3997.91406	0.99215
3995.98550	0.98966
3994.05693	0.98709
3992.12837	0.98829
3990.19980	0.99156
3988.27124	0.99216
3986.34268	0.99060
3984.41411	0.99072
3982.48555	0.99129
3980.55698	0.98957
3978.62842	0.98728
3976.69985	0.98648
3974.77129	0.98646
3972.84272	0.98572
3970.91416	0.98386
3968.98560	0.98139
3967.05703	0.98018
3965.12847	0.98198
3963.19990	0.98412
3961.27134	0.98305
3959.34277	0.98107
3957.41421	0.98125
3955.48564	0.98245
3953.55708	0.98281
3951.62852	0.98263
3949.69995	0.98342
3947.77139	0.98586
3945.84282	0.98858
3943.91426	0.98839
3941.98569	0.98459
3940.05713	0.98215
3938.12856	0.98156
3936.20000	0.97972
3934.27144	0.97918
3932.34287	0.98244
3930.41431	0.98478
3928.48574	0.98550
3926.55718	0.98811
3924.62861	0.98958
3922.70005	0.98728
3920.77148	0.98446
3918.84292	0.98208
3916.91436	0.98064
3914.98579	0.98083
3913.05723	0.98045
3911.12866	0.97836
3909.20010	0.97730
3907.27153	0.98070
3905.34297	0.98673
3903.41440	0.98864
3901.48584	0.98730
3899.55728	0.98635
3897.62871	0.98202
3895.70015	0.97571
3893.77158	0.97315
3891.84302	0.97627
3889.91445	0.97747
3887.98589	0.97432
3886.05733	0.97283
3884.12876	0.97481
3882.20020	0.97538
3880.27163	0.97422
3878.34307	0.97469
3876.41450	0.97677
3874.48594	0.97760
3872.55737	0.97627
3870.62881	0.97629
3868.70025	0.97707
3866.77168	0.97675
3864.84312	0.97447
3862.91455	0.97065
3860.98599	0.97010
3859.05742	0.97129
3857.12886	0.97100
3855.20029	0.96952
3853.27173	0.96915
3851.34317	0.96946
3849.41460	0.96958
3847.48604	0.97072
3845.55747	0.97273
3843.62891	0.97520
3841.70034	0.97984
3839.77178	0.98652
3837.84321	0.98595
3835.91465	0.97731
3833.98609	0.97131
3832.05752	0.96824
3830.12896	0.96541
3828.20039	0.96457
3826.27183	0.96673
3824.34326	0.96860
3822.41470	0.96783
3820.48613	0.96503
3818.55757	0.96337
3816.62901	0.96217
3814.70044	0.95970
3812.77188	0.95862
3810.84331	0.96034
3808.91475	0.96363
3806.98618	0.96485
3805.05762	0.96303
3803.12905	0.96319
3801.20049	0.96543
3799.27193	0.96499
3797.34336	0.96158
3795.41480	0.95714
3793.48623	0.95439
3791.55767	0.95236
3789.62910	0.94981
3787.70054	0.94868
3785.77197	0.94924
3783.84341	0.94889
3781.91485	0.94868
3779.98628	0.95056
3778.05772	0.95164
3776.12915	0.95039
3774.20059	0.94889
3772.27202	0.94821
3770.34346	0.94870
3768.41489	0.94970
3766.48633	0.95001
3764.55777	0.94999
3762.62920	0.95176
3760.70064	0.95636
3758.77207	0.95982
3756.84351	0.95936
3754.91494	0.96035
3752.98638	0.96481
3751.05781	0.96630
3749.12925	0.96024
3747.20069	0.95711
3745.27212	0.95796
3743.34356	0.95662
3741.41499	0.95417
3739.48643	0.95581
3737.55786	0.96157
3735.62930	0.96425
3733.70074	0.95839
3731.77217	0.95207
3729.84361	0.94906
3727.91504	0.95013
3725.98648	0.95403
3724.05791	0.95637
3722.12935	0.95626
3720.20078	0.95447
3718.27222	0.95093
3716.34366	0.94759
3714.41509	0.94782
3712.48653	0.95477
3710.55796	0.96200
3708.62940	0.95724
3706.70083	0.94945
3704.77227	0.94745
3702.84370	0.95102
3700.91514	0.95272
3698.98658	0.95093
3697.05801	0.95046
3695.12945	0.95170
3693.20088	0.95393
3691.27232	0.95880
3689.34375	0.96425
3687.41519	0.96443
3685.48662	0.96348
3683.55806	0.96451
3681.62950	0.96759
3679.70093	0.97143
3677.77237	0.97522
3675.84380	0.97945
3673.91524	0.98168
3671.98667	0.98462
3670.05811	0.99283
3668.12954	0.99931
3666.20098	1.00173
3664.27242	1.00564
3662.34385	1.01158
3660.41529	1.01825
3658.48672	1.02570
3656.55816	1.03452
3654.62959	1.04364
3652.70103	1.05409
3650.77246	1.07009
3648.84390	1.08716
3646.91534	1.09029
3644.98677	1.08981
3643.05821	1.09420
3641.12964	1.10441
3639.20108	1.11594
3637.27251	1.12468
3635.34395	1.13219
3633.41538	1.14075
3631.48682	1.15054
3629.55826	1.16488
3627.62969	1.17778
3625.70113	1.18389
3623.77256	1.19058
3621.84400	1.19885
3619.91543	1.21279
3617.98687	1.23114
3616.05830	1.24083
3614.12974	1.24602
3612.20118	1.25476
3610.27261	1.26432
3608.34405	1.27413
3606.41548	1.28597
3604.48692	1.29795
3602.55835	1.31276
3600.62979	1.33004
3598.70123	1.34110
3596.77266	1.34470
3594.84410	1.34946
3592.91553	1.35889
3590.98697	1.36797
3589.05840	1.37866
3587.12984	1.39463
3585.20127	1.40486
3583.27271	1.40943
3581.34415	1.41770
3579.41558	1.43068
3577.48702	1.44544
3575.55845	1.46206
3573.62989	1.47955
3571.70132	1.49382
3569.77276	1.50092
3567.84419	1.50500
3565.91563	1.51640
3563.98707	1.53088
3562.05850	1.54615
3560.12994	1.56122
3558.20137	1.57269
3556.27281	1.58271
3554.34424	1.59338
3552.41568	1.60515
3550.48711	1.61689
3548.55855	1.62779
3546.62999	1.64107
3544.70142	1.65666
3542.77286	1.67031
3540.84429	1.68259
3538.91573	1.69351
3536.98716	1.70241
3535.05860	1.70786
3533.13003	1.71212
3531.20147	1.72295
3529.27291	1.73597
3527.34434	1.74344
3525.41578	1.75066
3523.48721	1.75930
3521.55865	1.76539
3519.63008	1.77434
3517.70152	1.79278
3515.77295	1.80631
3513.84439	1.80359
3511.91583	1.80171
3509.98726	1.81481
3508.05870	1.83454
3506.13013	1.85189
3504.20157	1.86728
3502.27300	1.87618
3500.34444	1.88366
3498.41587	1.89086
3496.48731	1.88866
3494.55875	1.88281
3492.63018	1.88300
3490.70162	1.89233
3488.77305	1.90658
3486.84449	1.92005
3484.91592	1.92724
3482.98736	1.92832
3481.05879	1.93851
3479.13023	1.95381
3477.20167	1.95837
3475.27310	1.95905
3473.34454	1.96611
3471.41597	1.97599
3469.48741	1.97935
3467.55884	1.97230
3465.63028	1.96605
3463.70171	1.97596
3461.77315	1.99191
3459.84459	1.99526
3457.91602	1.98828
3455.98746	1.97547
3454.05889	1.96230
3452.13033	1.95559
3450.20176	1.95141
3448.27320	1.94149
3446.34464	1.92938
3444.41607	1.92602
3442.48751	1.93266
3440.55894	1.94167
3438.63038	1.94757
3436.70181	1.95755
3434.77325	1.97381
3432.84468	1.98357
3430.91612	1.98341
3428.98756	1.97602
3427.05899	1.95692
3425.13043	1.93342
3423.20186	1.92509
3421.27330	1.94164
3419.34473	1.97010
3417.41617	1.98987
3415.48760	1.99886
3413.55904	1.99663
3411.63048	1.98044
3409.70191	1.96532
3407.77335	1.96340
3405.84478	1.97041
3403.91622	1.97763
3401.98765	1.97314
3400.05909	1.95832
3398.13052	1.95422
3396.20196	1.96544
3394.27340	1.97506
3392.34483	1.97661
3390.41627	1.97423
3388.48770	1.96978
3386.55914	1.96712
3384.63057	1.96600
3382.70201	1.96272
3380.77344	1.96382
3378.84488	1.96828
3376.91632	1.95918
3374.98775	1.94074
3373.05919	1.93325
3371.13062	1.93592
3369.20206	1.93713
3367.27349	1.93747
3365.34493	1.94210
3363.41636	1.95426
3361.48780	1.96995
3359.55924	1.97238
3357.63067	1.96208
3355.70211	1.95892
3353.77354	1.96290
3351.84498	1.95896
3349.91641	1.95021
3347.98785	1.94970
3346.05928	1.95138
3344.13072	1.94669
3342.20216	1.94338
3340.27359	1.94356
3338.34503	1.94523
3336.41646	1.95267
3334.48790	1.96188
3332.55933	1.96831
3330.63077	1.97371
3328.70220	1.97126
3326.77364	1.96312
3324.84508	1.95873
3322.91651	1.95390
3320.98795	1.94982
3319.05938	1.94904
3317.13082	1.94668
3315.20225	1.94571
3313.27369	1.94604
3311.34513	1.94039
3309.41656	1.93306
3307.48800	1.93548
3305.55943	1.94684
3303.63087	1.95971
3301.70230	1.97457
3299.77374	1.98740
3297.84517	1.98439
3295.91661	1.97130
3293.98805	1.96652
3292.05948	1.96714
3290.13092	1.96354
3288.20235	1.96055
3286.27379	1.96321
3284.34522	1.96302
3282.41666	1.94883
3280.48809	1.93529
3278.55953	1.93961
3276.63097	1.94444
3274.70240	1.93564
3272.77384	1.93012
3270.84527	1.93128
3268.91671	1.92849
3266.98814	1.92403
3265.05958	1.91919
3263.13101	1.91392
3261.20245	1.91559
3259.27389	1.92262
3257.34532	1.92504
3255.41676	1.92004
3253.48819	1.91462
3251.55963	1.91394
3249.63106	1.91455
3247.70250	1.91330
3245.77393	1.91486
3243.84537	1.92189
3241.91681	1.92086
3239.98824	1.90421
3238.05968	1.88999
3236.13111	1.89071
3234.20255	1.89837
3232.27398	1.90376
3230.34542	1.90579
3228.41685	1.90650
3226.48829	1.91012
3224.55973	1.91339
3222.63116	1.90518
3220.70260	1.89047
3218.77403	1.88278
3216.84547	1.88361
3214.91690	1.88788
3212.98834	1.88748
3211.05977	1.88288
3209.13121	1.88301
3207.20265	1.88617
3205.27408	1.88749
3203.34552	1.88491
3201.41695	1.87763
3199.48839	1.87520
3197.55982	1.88355
3195.63126	1.89053
3193.70269	1.88632
3191.77413	1.87872
3189.84557	1.87569
3187.91700	1.87414
3185.98844	1.87042
3184.05987	1.86538
3182.13131	1.85984
3180.20274	1.85737
3178.27418	1.85979
3176.34562	1.85884
3174.41705	1.85305
3172.48849	1.85178
3170.55992	1.85049
3168.63136	1.84089
3166.70279	1.83304
3164.77423	1.83343
3162.84566	1.83326
3160.91710	1.82939
3158.98854	1.82757
3157.05997	1.82743
3155.13141	1.82415
3153.20284	1.81918
3151.27428	1.81919
3149.34571	1.82465
3147.41715	1.82848
3145.48858	1.82733
3143.56002	1.82502
3141.63146	1.82645
3139.70289	1.83037
3137.77433	1.82827
3135.84576	1.81754
3133.91720	1.80968
3131.98863	1.81262
3130.06007	1.81678
3128.13150	1.81620
3126.20294	1.81619
3124.27438	1.81249
3122.34581	1.80348
3120.41725	1.80050
3118.48868	1.80399
3116.56012	1.80541
3114.63155	1.80260
3112.70299	1.79646
3110.77442	1.79099
3108.84586	1.79177
3106.91730	1.79468
3104.98873	1.79190
3103.06017	1.78825
3101.13160	1.79044
3099.20304	1.79396
3097.27447	1.79193
3095.34591	1.78507
3093.41734	1.78223
3091.48878	1.78725
3089.56022	1.79087
3087.63165	1.78385
3085.70309	1.77179
3083.77452	1.76723
3081.84596	1.77052
3079.91739	1.77192
3077.98883	1.77078
3076.06026	1.77391
3074.13170	1.77778
3072.20314	1.77511
3070.27457	1.77135
3068.34601	1.77055
3066.41744	1.76546
3064.48888	1.75629
3062.56031	1.75242
3060.63175	1.75282
3058.70318	1.74946
3056.77462	1.74258
3054.84606	1.73523
3052.91749	1.72747
3050.98893	1.72120
3049.06036	1.71779
3047.13180	1.71408
3045.20323	1.70739
3043.27467	1.70054
3041.34610	1.69557
3039.41754	1.69053
3037.48898	1.68607
3035.56041	1.68273
3033.63185	1.67553
3031.70328	1.66599
3029.77472	1.66355
3027.84615	1.66734
3025.91759	1.66939
3023.98903	1.66642
3022.06046	1.65942
3020.13190	1.65276
3018.20333	1.65039
3016.27477	1.65203
3014.34620	1.65407
3012.41764	1.65306
3010.48907	1.64833
3008.56051	1.64270
3006.63195	1.63923
3004.70338	1.63510
3002.77482	1.62878
3000.84625	1.62584
2998.91769	1.62767
2996.98912	1.63004
2995.06056	1.63056
2993.13199	1.63018
2991.20343	1.63254
2989.27487	1.63928
2987.34630	1.64596
2985.41774	1.64903
2983.48917	1.65291
2981.56061	1.66260
2979.63204	1.67604
2977.70348	1.68763
2975.77491	1.69532
2973.84635	1.70217
2971.91779	1.71068
2969.98922	1.71995
2968.06066	1.72906
2966.13209	1.73539
2964.20353	1.73797
2962.27496	1.74161
2960.34640	1.74700
2958.41783	1.74878
2956.48927	1.74422
2954.56071	1.73677
2952.63214	1.73175
2950.70358	1.73030
2948.77501	1.73075
2946.84645	1.73182
2944.91788	1.73335
2942.98932	1.73657
2941.06075	1.74416
2939.13219	1.75608
2937.20363	1.76969
2935.27506	1.78450
2933.34650	1.79555
2931.41793	1.79882
2929.48937	1.80054
2927.56080	1.80445
2925.63224	1.80930
2923.70367	1.81187
2921.77511	1.81047
2919.84655	1.81020
2917.91798	1.80922
2915.98942	1.79547
2914.06085	1.76947
2912.13229	1.74630
2910.20372	1.73131
2908.27516	1.71611
2906.34659	1.69848
2904.41803	1.68400
2902.48947	1.67352
2900.56090	1.66707
2898.63234	1.66515
2896.70377	1.66258
2894.77521	1.65443
2892.84664	1.64528
2890.91808	1.64148
2888.98952	1.63868
2887.06095	1.63301
2885.13239	1.63026
2883.20382	1.63160
2881.27526	1.63253
2879.34669	1.63290
2877.41813	1.63436
2875.48956	1.63511
2873.56100	1.63394
2871.63244	1.63246
2869.70387	1.62903
2867.77531	1.62205
2865.84674	1.61491
2863.91818	1.61024
2861.98961	1.60822
2860.06105	1.60963
2858.13248	1.61426
2856.20392	1.61947
2854.27536	1.62603
2852.34679	1.63437
2850.41823	1.63405
2848.48966	1.61506
2846.56110	1.58299
2844.63253	1.55003
2842.70397	1.52413
2840.77540	1.50681
2838.84684	1.49449
2836.91828	1.48459
2834.98971	1.47629
2833.06115	1.46720
2831.13258	1.45687
2829.20402	1.44811
2827.27545	1.44337
2825.34689	1.44254
2823.41832	1.44233
2821.48976	1.44024
2819.56120	1.43700
2817.63263	1.43321
2815.70407	1.42920
2813.77550	1.42508
2811.84694	1.41932
2809.91837	1.41226
2807.98981	1.40700
2806.06124	1.40423
2804.13268	1.40106
2802.20412	1.39580
2800.27555	1.39005
2798.34699	1.38454
2796.41842	1.37854
2794.48986	1.37328
2792.56129	1.37018
2790.63273	1.36916
2788.70416	1.36892
2786.77560	1.36735
2784.84704	1.36445
2782.91847	1.36183
2780.98991	1.35972
2779.06134	1.35749
2777.13278	1.35481
2775.20421	1.35189
2773.27565	1.34907
2771.34708	1.34614
2769.41852	1.34295
2767.48996	1.33927
2765.56139	1.33439
2763.63283	1.32899
2761.70426	1.32523
2759.77570	1.32291
2757.84713	1.31956
2755.91857	1.31505
2753.99001	1.31145
2752.06144	1.30937
2750.13288	1.30771
2748.20431	1.30602
2746.27575	1.30525
2744.34718	1.30546
2742.41862	1.30495
2740.49005	1.30337
2738.56149	1.30152
2736.63293	1.29883
2734.70436	1.29579
2732.77580	1.29400
2730.84723	1.29259
2728.91867	1.28998
2726.99010	1.28685
2725.06154	1.28369
2723.13297	1.27921
2721.20441	1.27390
2719.27585	1.27059
2717.34728	1.26974
2715.41872	1.26863
2713.49015	1.26569
2711.56159	1.26195
2709.63302	1.25843
2707.70446	1.25555
2705.77589	1.25374
2703.84733	1.25333
2701.91877	1.25391
2699.99020	1.25392
2698.06164	1.25279
2696.13307	1.25130
2694.20451	1.24980
2692.27594	1.24908
2690.34738	1.24945
2688.41881	1.24930
2686.49025	1.24790
2684.56169	1.24551
2682.63312	1.24221
2680.70456	1.23964
2678.77599	1.23862
2676.84743	1.23743
2674.91886	1.23468
2672.99030	1.23068
2671.06173	1.22724
2669.13317	1.22535
2667.20461	1.22350
2665.27604	1.22137
2663.34748	1.22024
2661.41891	1.21993
2659.49035	1.21989
2657.56178	1.22017
2655.63322	1.21996
2653.70465	1.21902
2651.77609	1.21875
2649.84753	1.21955
2647.91896	1.21977
2645.99040	1.21808
2644.06183	1.21583
2642.13327	1.21488
2640.20470	1.21438
2638.27614	1.21269
2636.34757	1.21028
2634.41901	1.20837
2632.49045	1.20650
2630.56188	1.20371
2628.63332	1.20039
2626.70475	1.19730
2624.77619	1.19519
2622.84762	1.19407
2620.91906	1.19267
2618.99049	1.19108
2617.06193	1.19043
2615.13337	1.19005
2613.20480	1.18905
2611.27624	1.18824
2609.34767	1.18782
2607.41911	1.18696
2605.49054	1.18544
2603.56198	1.18359
2601.63342	1.18198
2599.70485	1.18086
2597.77629	1.17986
2595.84772	1.17847
2593.91916	1.17680
2591.99059	1.17522
2590.06203	1.17333
2588.13346	1.17095
2586.20490	1.16874
2584.27634	1.16664
2582.34777	1.16456
2580.41921	1.16305
2578.49064	1.16194
2576.56208	1.16089
2574.63351	1.15979
2572.70495	1.15806
2570.77638	1.15527
2568.84782	1.15264
2566.91926	1.15171
2564.99069	1.15184
2563.06213	1.15156
2561.13356	1.15064
2559.20500	1.14942
2557.27643	1.14786
2555.34787	1.14575
2553.41930	1.14384
2551.49074	1.14326
2549.56218	1.14348
2547.63361	1.14295
2545.70505	1.14112
2543.77648	1.13892
2541.84792	1.13752
2539.91935	1.13695
2537.99079	1.13654
2536.06222	1.13576
2534.13366	1.13415
2532.20510	1.13175
2530.27653	1.12955
2528.34797	1.12806
2526.41940	1.12684
2524.49084	1.12554
2522.56227	1.12429
2520.63371	1.12368
2518.70514	1.12353
2516.77658	1.12248
2514.84802	1.12027
2512.91945	1.11820
2510.99089	1.11726
2509.06232	1.11700
2507.13376	1.11645
2505.20519	1.11542
2503.27663	1.11403
2501.34806	1.11232
2499.41950	1.11041
2497.49094	1.10831
2495.56237	1.10648
2493.63381	1.10517
2491.70524	1.10399
2489.77668	1.10275
2487.84811	1.10070
2485.91955	1.09713
2483.99098	1.09354
2482.06242	1.09116
2480.13386	1.08883
2478.20529	1.08571
2476.27673	1.08242
2474.34816	1.07941
2472.41960	1.07653
2470.49103	1.07387
2468.56247	1.07160
2466.63391	1.06938
2464.70534	1.06738
2462.77678	1.06592
2460.84821	1.06429
2458.91965	1.06224
2456.99108	1.06094
2455.06252	1.06086
2453.13395	1.06097
2451.20539	1.06041
2449.27683	1.05917
2447.34826	1.05754
2445.41970	1.05602
2443.49113	1.05484
2441.56257	1.05350
2439.63400	1.05186
2437.70544	1.05016
2435.77687	1.04786
2433.84831	1.04468
2431.91975	1.04164
2429.99118	1.03960
2428.06262	1.03827
2426.13405	1.03701
2424.20549	1.03586
2422.27692	1.03509
2420.34836	1.03436
2418.41979	1.03320
2416.49123	1.03164
2414.56267	1.03019
2412.63410	1.02924
2410.70554	1.02848
2408.77697	1.02756
2406.84841	1.02618
2404.91984	1.02412
2402.99128	1.02205
2401.06271	1.02039
2399.13415	1.01854
2397.20559	1.01657
2395.27702	1.01490
2393.34846	1.01324
2391.41989	1.01127
2389.49133	1.00958
2387.56276	1.00893
2385.63420	1.00915
2383.70563	1.00973
2381.77707	1.01076
2379.84851	1.01207
2377.91994	1.01313
2375.99138	1.01420
2374.06281	1.01622
2372.13425	1.01914
2370.20568	1.02179
2368.27712	1.02424
2366.34855	1.02668
2364.41999	1.02605
2362.49143	1.02338
2360.56286	1.02300
2358.63430	1.02140
2356.70573	1.01743
2354.77717	1.01409
2352.84860	1.00994
2350.92004	1.00549
2348.99147	1.00334
2347.06291	1.00351
2345.13435	1.00397
2343.20578	1.00393
2341.27722	1.00409
2339.34865	1.00214
2337.42009	0.99966
2335.49152	1.00016
2333.56296	1.00237
2331.63440	1.00318
2329.70583	1.00100
2327.77727	0.99729
2325.84870	0.99432
2323.92014	0.99257
2321.99157	0.99085
2320.06301	0.98823
2318.13444	0.98580
2316.20588	0.98463
2314.27732	0.98382
2312.34875	0.98240
2310.42019	0.98095
2308.49162	0.97954
2306.56306	0.97707
2304.63449	0.97391
2302.70593	0.97133
2300.77736	0.96934
2298.84880	0.96754
2296.92024	0.96621
2294.99167	0.96515
2293.06311	0.96404
2291.13454	0.96316
2289.20598	0.96214
2287.27741	0.96067
2285.34885	0.95955
2283.42028	0.95915
2281.49172	0.95889
2279.56316	0.95821
2277.63459	0.95727
2275.70603	0.95659
2273.77746	0.95621
2271.84890	0.95554
2269.92033	0.95424
2267.99177	0.95274
2266.06320	0.95145
2264.13464	0.95019
2262.20608	0.94893
2260.27751	0.94798
2258.34895	0.94704
2256.42038	0.94596
2254.49182	0.94524
2252.56325	0.94483
2250.63469	0.94428
2248.70612	0.94345
2246.77756	0.94247
2244.84900	0.94172
2242.92043	0.94130
2240.99187	0.94082
2239.06330	0.94004
2237.13474	0.93892
2235.20617	0.93767
2233.27761	0.93681
2231.34904	0.93640
2229.42048	0.93570
2227.49192	0.93456
2225.56335	0.93359
2223.63479	0.93295
2221.70622	0.93218
2219.77766	0.93106
2217.84909	0.92999
2215.92053	0.92930
2213.99196	0.92887
2212.06340	0.92834
2210.13484	0.92751
2208.20627	0.92658
2206.27771	0.92591
2204.34914	0.92543
2202.42058	0.92487
2200.49201	0.92422
2198.56345	0.92356
2196.63488	0.92290
2194.70632	0.92236
2192.77776	0.92186
2190.84919	0.92139
2188.92063	0.92103
2186.99206	0.92048
2185.06350	0.91969
2183.13493	0.91894
2181.20637	0.91832
2179.27781	0.91781
2177.34924	0.91735
2175.42068	0.91677
2173.49211	0.91616
2171.56355	0.91598
2169.63498	0.91611
2167.70642	0.91600
2165.77785	0.91560
2163.84929	0.91524
2161.92073	0.91507
2159.99216	0.91493
2158.06360	0.91472
2156.13503	0.91448
2154.20647	0.91418
2152.27790	0.91378
2150.34934	0.91320
2148.42077	0.91253
2146.49221	0.91196
2144.56365	0.91139
2142.63508	0.91072
2140.70652	0.90997
2138.77795	0.90915
2136.84939	0.90840
2134.92082	0.90802
2132.99226	0.90799
2131.06369	0.90767
2129.13513	0.90694
2127.20657	0.90627
2125.27800	0.90571
2123.34944	0.90515
2121.42087	0.90448
2119.49231	0.90357
2117.56374	0.90255
2115.63518	0.90155
2113.70661	0.90061
2111.77805	0.89946
2109.84949	0.89801
2107.92092	0.89677
2105.99236	0.89586
2104.06379	0.89484
2102.13523	0.89372
2100.20666	0.89274
2098.27810	0.89183
2096.34953	0.89097
2094.42097	0.89044
2092.49241	0.89037
2090.56384	0.89035
2088.63528	0.88987
2086.70671	0.88908
2084.77815	0.88847
2082.84958	0.88801
2080.92102	0.88731
2078.99245	0.88635
2077.06389	0.88545
2075.13533	0.88454
2073.20676	0.88355
2071.27820	0.88267
2069.34963	0.88198
2067.42107	0.88136
2065.49250	0.88036
2063.56394	0.87881
2061.63537	0.87736
2059.70681	0.87624
2057.77825	0.87509
2055.84968	0.87402
2053.92112	0.87335
2051.99255	0.87283
2050.06399	0.87222
2048.13542	0.87163
2046.20686	0.87117
2044.27830	0.87082
2042.34973	0.87030
2040.42117	0.86947
2038.49260	0.86879
2036.56404	0.86835
2034.63547	0.86769
2032.70691	0.86683
2030.77834	0.86601
2028.84978	0.86534
2026.92122	0.86474
2024.99265	0.86397
2023.06409	0.86306
2021.13552	0.86216
2019.20696	0.86125
2017.27839	0.86014
2015.34983	0.85867
2013.42126	0.85710
2011.49270	0.85580
2009.56414	0.85467
2007.63557	0.85356
2005.70701	0.85268
2003.77844	0.85198
2001.84988	0.85099
1999.92131	0.84953
1997.99275	0.84801
1996.06418	0.84709
1994.13562	0.84669
1992.20706	0.84562
1990.27849	0.84361
1988.34993	0.84158
1986.42136	0.83976
1984.49280	0.83817
1982.56423	0.83705
1980.63567	0.83619
1978.70710	0.83523
1976.77854	0.83407
1974.84998	0.83282
1972.92141	0.83166
1970.99285	0.83091
1969.06428	0.83071
1967.13572	0.83040
1965.20715	0.82946
1963.27859	0.82847
1961.35002	0.82781
1959.42146	0.82736
1957.49290	0.82691
1955.56433	0.82616
1953.63577	0.82519
1951.70720	0.82449
1949.77864	0.82419
1947.85007	0.82402
1945.92151	0.82385
1943.99294	0.82335
1942.06438	0.82165
1940.13582	0.81940
1938.20725	0.81784
1936.27869	0.81678
1934.35012	0.81599
1932.42156	0.81558
1930.49299	0.81519
1928.56443	0.81480
1926.63586	0.81508
1924.70730	0.81612
1922.77874	0.81687
1920.85017	0.81709
1918.92161	0.81750
1916.99304	0.81770
1915.06448	0.81756
1913.13591	0.81793
1911.20735	0.81879
1909.27878	0.81922
1907.35022	0.81873
1905.42166	0.81801
1903.49309	0.81747
1901.56453	0.81686
1899.63596	0.81632
1897.70740	0.81602
1895.77883	0.81539
1893.85027	0.81425
1891.92171	0.81359
1889.99314	0.81321
1888.06458	0.81217
1886.13601	0.81122
1884.20745	0.81061
1882.27888	0.81009
1880.35032	0.81007
1878.42175	0.81041
1876.49319	0.81049
1874.56463	0.81058
1872.63606	0.81169
1870.70750	0.81397
1868.77893	0.81558
1866.85037	0.81475
1864.92180	0.81335
1862.99324	0.81268
1861.06467	0.81248
1859.13611	0.81209
1857.20755	0.81111
1855.27898	0.80995
1853.35042	0.80904
1851.42185	0.80850
1849.49329	0.80846
1847.56472	0.80907
1845.63616	0.80986
1843.70759	0.80921
1841.77903	0.80775
1839.85047	0.80744
1837.92190	0.80812
1835.99334	0.80909
1834.06477	0.81063
1832.13621	0.81329
1830.20764	0.81596
1828.27908	0.81691
1826.35051	0.81719
1824.42195	0.81746
1822.49339	0.81737
1820.56482	0.81745
1818.63626	0.81800
1816.70769	0.81868
1814.77913	0.81965
1812.85056	0.82109
1810.92200	0.82191
1808.99343	0.82137
1807.06487	0.82062
1805.13631	0.82078
1803.20774	0.82198
1801.27918	0.82353
1799.35061	0.82468
1797.42205	0.82577
1795.49348	0.82733
1793.56492	0.82916
1791.63635	0.82991
1789.70779	0.82944
1787.77923	0.82984
1785.85066	0.83154
1783.92210	0.83384
1781.99353	0.83617
1780.06497	0.83803
1778.13640	0.83952
1776.20784	0.84161
1774.27927	0.84470
1772.35071	0.84710
1770.42215	0.84696
1768.49358	0.84613
1766.56502	0.84607
1764.63645	0.84767
1762.70789	0.85075
1760.77932	0.85382
1758.85076	0.85678
1756.92220	0.86093
1754.99363	0.86611
1753.06507	0.87283
1751.13650	0.88296
1749.20794	0.89476
1747.27937	0.90365
1745.35081	0.91076
1743.42224	0.91813
1741.49368	0.92576
1739.56512	0.93296
1737.63655	0.93921
1735.70799	0.94625
1733.77942	0.95513
1731.85086	0.96029
1729.92229	0.96343
1727.99373	0.96804
1726.06516	0.97465
1724.13660	0.98386
1722.20804	0.99440
1720.27947	1.00593
1718.35091	1.02370
1716.42234	1.04876
1714.49378	1.06649
1712.56521	1.08085
1710.63665	1.09876
1708.70808	1.12129
1706.77952	1.15268
1704.85096	1.19302
1702.92239	1.23075
1700.99383	1.28225
1699.06526	1.36332
1697.13670	1.43928
1695.20813	1.51596
1693.27957	1.57796
1691.35100	1.62752
1689.42244	1.68463
1687.49388	1.73803
1685.56531	1.79192
1683.63675	1.86603
1681.70818	1.91067
1679.77962	1.93100
1677.85105	1.95074
1675.92249	1.97342
1673.99392	1.99277
1672.06536	2.00746
1670.13680	2.01904
1668.20823	2.02415
1666.27967	2.02469
1664.35110	2.02634
1662.42254	2.02718
1660.49397	2.02345
1658.56541	2.01942
1656.63684	2.01584
1654.70828	2.01433
1652.77972	2.00879
1650.85115	2.00206
1648.92259	2.00073
1646.99402	1.99813
1645.06546	1.99158
1643.13689	1.98443
1641.20833	1.97889
1639.27976	1.97343
1637.35120	1.96725
1635.42264	1.95986
1633.49407	1.95269
1631.56551	1.94692
1629.63694	1.93819
1627.70838	1.92522
1625.77981	1.91202
1623.85125	1.89986
1621.92269	1.88724
1619.99412	1.87651
1618.06556	1.86339
1616.13699	1.84165
1614.20843	1.82427
1612.27986	1.81117
1610.35130	1.79481
1608.42273	1.77512
1606.49417	1.75797
1604.56561	1.74656
1602.63704	1.73927
1600.70848	1.73574
1598.77991	1.73477
1596.85135	1.73390
1594.92278	1.73218
1592.99422	1.73224
1591.06565	1.73578
1589.13709	1.74081
1587.20853	1.74762
1585.27996	1.75628
1583.35140	1.76586
1581.42283	1.77662
1579.49427	1.78794
1577.56570	1.80106
1575.63714	1.81598
1573.70857	1.82601
1571.78001	1.83391
1569.85145	1.84471
1567.92288	1.85728
1565.99432	1.86884
1564.06575	1.87991
1562.13719	1.88943
1560.20862	1.89923
1558.28006	1.90863
1556.35149	1.91018
1554.42293	1.90743
1552.49437	1.90332
1550.56580	1.89999
1548.63724	1.89589
1546.70867	1.89471
1544.78011	1.89937
1542.85154	1.90419
1540.92298	1.89367
1538.99441	1.87291
1537.06585	1.86484
1535.13729	1.85945
1533.20872	1.85015
1531.28016	1.83743
1529.35159	1.82737
1527.42303	1.82384
1525.49446	1.82516
1523.56590	1.82089
1521.63733	1.80678
1519.70877	1.79774
1517.78021	1.79205
1515.85164	1.77853
1513.92308	1.76277
1511.99451	1.74920
1510.06595	1.73829
1508.13738	1.71881
1506.20882	1.67150
1504.28025	1.64637
1502.35169	1.63544
1500.42313	1.62301
1498.49456	1.60389
1496.56600	1.57788
1494.63743	1.55848
1492.70887	1.54801
1490.78030	1.53617
1488.85174	1.51484
1486.92317	1.49404
1484.99461	1.48173
1483.06605	1.47620
1481.13748	1.47562
1479.20892	1.47948
1477.28035	1.48879
1475.35179	1.50460
1473.42322	1.52687
1471.49466	1.54793
1469.56610	1.56146
1467.63753	1.57289
1465.70897	1.58563
1463.78040	1.59853
1461.85184	1.60887
1459.92327	1.61941
1457.99471	1.63543
1456.06614	1.64766
1454.13758	1.64736
1452.20902	1.64423
1450.28045	1.64055
1448.35189	1.63591
1446.42332	1.63026
1444.49476	1.62490
1442.56619	1.61939
1440.63763	1.61361
1438.70906	1.60695
1436.78050	1.59556
1434.85194	1.58217
1432.92337	1.57239
1430.99481	1.56330
1429.06624	1.55518
1427.13768	1.55176
1425.20911	1.55337
1423.28055	1.55786
1421.35198	1.56288
1419.42342	1.57025
1417.49486	1.57825
1415.56629	1.58292
1413.63773	1.58785
1411.70916	1.59412
1409.78060	1.59974
1407.85203	1.60394
1405.92347	1.60786
1403.99490	1.61140
1402.06634	1.61435
1400.13778	1.61777
1398.20921	1.62091
1396.28065	1.62079
1394.35208	1.61521
1392.42352	1.60817
1390.49495	1.60387
1388.56639	1.60273
1386.63782	1.60541
1384.70926	1.61099
1382.78070	1.61691
1380.85213	1.61986
1378.92357	1.61817
1376.99500	1.61316
1375.06644	1.60428
1373.13787	1.59103
1371.20931	1.57733
1369.28074	1.56316
1367.35218	1.54769
1365.42362	1.53399
1363.49505	1.52223
1361.56649	1.51139
1359.63792	1.50325
1357.70936	1.49821
1355.78079	1.49497
1353.85223	1.49245
1351.92366	1.49073
1349.99510	1.48905
1348.06654	1.48570
1346.13797	1.48151
1344.20941	1.47854
1342.28084	1.47671
1340.35228	1.47531
1338.42371	1.47480
1336.49515	1.47493
1334.56659	1.47573
1332.63802	1.47846
1330.70946	1.48281
1328.78089	1.48716
1326.85233	1.49111
1324.92376	1.49464
1322.99520	1.49844
1321.06663	1.50403
1319.13807	1.51028
1317.20951	1.51467
1315.28094	1.51770
1313.35238	1.52004
1311.42381	1.52031
1309.49525	1.51896
1307.56668	1.51803
1305.63812	1.51746
1303.70955	1.51537
1301.78099	1.51119
1299.85243	1.50608
1297.92386	1.49949
1295.99530	1.49085
1294.06673	1.48289
1292.13817	1.47752
1290.20960	1.47389
1288.28104	1.47116
1286.35247	1.46880
1284.42391	1.46648
1282.49535	1.46509
1280.56678	1.46516
1278.63822	1.46650
1276.70965	1.46938
1274.78109	1.47393
1272.85252	1.47950
1270.92396	1.48440
1268.99539	1.48817
1267.06683	1.49221
1265.13827	1.49619
1263.20970	1.49872
1261.28114	1.49911
1259.35257	1.49710
1257.42401	1.49382
1255.49544	1.49048
1253.56688	1.48732
1251.63831	1.48466
1249.70975	1.48191
1247.78119	1.47824
1245.85262	1.47445
1243.92406	1.47186
1241.99549	1.47057
1240.06693	1.46967
1238.13836	1.46866
1236.20980	1.46732
1234.28123	1.46522
1232.35267	1.46268
1230.42411	1.45939
1228.49554	1.45426
1226.56698	1.44798
1224.63841	1.44140
1222.70985	1.43413
1220.78128	1.42664
1218.85272	1.41995
1216.92415	1.41309
1214.99559	1.40492
1213.06703	1.39703
1211.13846	1.39114
1209.20990	1.38684
1207.28133	1.38247
1205.35277	1.37561
1203.42420	1.36486
1201.49564	1.35212
1199.56708	1.34000
1197.63851	1.32861
1195.70995	1.31796
1193.78138	1.30912
1191.85282	1.30239
1189.92425	1.29805
1187.99569	1.29644
1186.06712	1.29686
1184.13856	1.29920
1182.21000	1.30454
1180.28143	1.31321
1178.35287	1.32385
1176.42430	1.33476
1174.49574	1.34490
1172.56717	1.35431
1170.63861	1.36442
1168.71004	1.37638
1166.78148	1.38959
1164.85292	1.40341
1162.92435	1.41774
1160.99579	1.43046
1159.06722	1.43758
1157.13866	1.43737
1155.21009	1.43046
1153.28153	1.41818
1151.35296	1.40283
1149.42440	1.38671
1147.49584	1.37244
1145.56727	1.36270
1143.63871	1.35824
1141.71014	1.35877
1139.78158	1.36350
1137.85301	1.37203
1135.92445	1.38513
1133.99588	1.40148
1132.06732	1.41804
1130.13876	1.43433
1128.21019	1.45110
1126.28163	1.46725
1124.35306	1.48070
1122.42450	1.49107
1120.49593	1.49951
1118.56737	1.50584
1116.63880	1.50879
1114.71024	1.50785
1112.78168	1.50395
1110.85311	1.49885
1108.92455	1.49442
1106.99598	1.49248
1105.06742	1.49303
1103.13885	1.49399
1101.21029	1.49531
1099.28172	1.49931
1097.35316	1.50715
1095.42460	1.51887
1093.49603	1.53437
1091.56747	1.55353
1089.63890	1.57649
1087.71034	1.60140
1085.78177	1.62402
1083.85321	1.64212
1081.92464	1.65497
1079.99608	1.66034
1078.06752	1.65783
1076.13895	1.65032
1074.21039	1.63975
1072.28182	1.62568
1070.35326	1.60801
1068.42469	1.58922
1066.49613	1.57304
1064.56756	1.56111
1062.63900	1.55180
1060.71044	1.54363
1058.78187	1.53812
1056.85331	1.53585
1054.92474	1.53531
1052.99618	1.53658
1051.06761	1.54032
1049.13905	1.54629
1047.21049	1.55391
1045.28192	1.56235
1043.35336	1.57123
1041.42479	1.57908
1039.49623	1.58387
1037.56766	1.58714
1035.63910	1.59037
1033.71053	1.59037
1031.78197	1.58529
1029.85341	1.57749
1027.92484	1.56825
1025.99628	1.55648
1024.06771	1.54180
1022.13915	1.52615
1020.21058	1.51174
1018.28202	1.49869
1016.35345	1.48553
1014.42489	1.47095
1012.49633	1.45427
1010.56776	1.43494
1008.63920	1.41341
1006.71063	1.39191
1004.78207	1.37316
1002.85350	1.35861
1000.92494	1.34766
998.99637	1.33947
997.06781	1.33409
995.13925	1.33081
993.21068	1.32741
991.28212	1.32137
989.35355	1.31164
987.42499	1.29916
985.49642	1.28543
983.56786	1.27183
981.63929	1.25976
979.71073	1.24971
977.78217	1.24090
975.85360	1.23236
973.92504	1.22306
971.99647	1.21202
970.06791	1.19916
968.13934	1.18538
966.21078	1.17223
964.28221	1.16184
962.35365	1.15631
960.42509	1.15689
958.49652	1.16288
956.56796	1.17005
954.63939	1.17300
952.71083	1.17014
950.78226	1.16352
948.85370	1.15597
946.92513	1.14957
944.99657	1.14529
943.06801	1.14328
941.13944	1.14270
939.21088	1.14231
937.28231	1.14146
935.35375	1.13986
933.42518	1.13733
931.49662	1.13414
929.56805	1.13130
927.63949	1.12942
925.71093	1.12755
923.78236	1.12479
921.85380	1.12138
919.92523	1.11693
917.99667	1.11114
916.06810	1.10493
914.13954	1.09942
912.21098	1.09549
910.28241	1.09384
908.35385	1.09487
906.42528	1.09872
904.49672	1.10525
902.56815	1.11337
900.63959	1.12161
898.71102	1.12936
896.78246	1.13578
894.85390	1.14041
892.92533	1.14395
890.99677	1.14595
889.06820	1.14590
887.13964	1.14518
885.21107	1.14502
883.28251	1.14483
881.35394	1.14351
879.42538	1.14132
877.49682	1.13952
875.56825	1.13851
873.63969	1.13742
871.71112	1.13535
869.78256	1.13267
867.85399	1.13121
865.92543	1.13215
863.99686	1.13511
862.06830	1.13980
860.13974	1.14660
858.21117	1.15609
856.28261	1.16819
854.35404	1.18163
852.42548	1.19518
850.49691	1.20763
848.56835	1.21779
846.63978	1.22649
844.71122	1.23465
842.78266	1.24100
840.85409	1.24517
838.92553	1.24873
836.99696	1.25153
835.06840	1.25148
833.13983	1.24895
831.21127	1.24642
829.28270	1.24435
827.35414	1.24214
825.42558	1.24006
823.49701	1.23898
821.56845	1.23981
819.63988	1.24288
817.71132	1.24824
815.78275	1.25515
813.85419	1.26202
811.92562	1.26869
809.99706	1.27591
808.06850	1.28313
806.13993	1.28921
804.21137	1.29470
802.28280	1.30071
800.35424	1.30555
798.42567	1.30725
796.49711	1.30710
794.56854	1.30698
792.63998	1.30708
790.71142	1.30691
788.78285	1.30628
786.85429	1.30647
784.92572	1.30878
782.99716	1.31255
781.06859	1.31786
779.14003	1.32533
777.21147	1.33411
775.28290	1.34377
773.35434	1.35375
771.42577	1.36323
769.49721	1.37312
767.56864	1.38395
765.64008	1.39504
763.71151	1.40550
761.78295	1.41390
759.85439	1.42110
757.92582	1.42836
755.99726	1.43389
754.06869	1.43752
752.14013	1.44017
750.21156	1.44155
748.28300	1.44285
746.35443	1.44454
744.42587	1.44596
742.49731	1.44676
740.56874	1.44648
738.64018	1.44699
736.71161	1.45036
734.78305	1.45562
732.85448	1.46240
730.92592	1.47110
728.99735	1.48083
727.06879	1.49256
725.14023	1.50711
723.21166	1.52189
721.28310	1.53445
719.35453	1.54410
717.42597	1.55152
715.49740	1.55657
713.56884	1.55975
711.64027	1.56361
709.71171	1.56681
707.78315	1.56767
705.85458	1.56767
703.92602	1.56721
701.99745	1.56758
700.06889	1.56943
698.14032	1.56881
696.21176	1.56399
694.28319	1.55915
692.35463	1.55707
690.42607	1.55688
688.49750	1.55772
686.56894	1.55860
684.64037	1.55923
682.71181	1.56223
680.78324	1.56910
678.85468	1.57570
676.92611	1.57831
674.99755	1.57936
673.06899	1.58133
671.14042	1.58403
669.21186	1.58368
667.28329	1.57337
665.35473	1.56350
663.42616	1.55725
661.49760	1.55435
659.56903	1.55539
657.64047	1.55343
655.71191	1.54567
653.78334	1.53886
651.85478	1.53933
649.92621	1.54651
647.99765	1.55262
646.06908	1.55290
644.14052	1.55116
642.21195	1.55397
640.28339	1.56399
638.35483	1.57709
636.42626	1.58759
634.49770	1.59471
632.56913	1.60084
630.64057	1.60597
628.71200	1.61195
626.78344	1.62193
624.85488	1.63002
622.92631	1.62835
620.99775	1.61900
619.06918	1.60903
617.14062	1.60277
615.21205	1.59976
613.28349	1.59532
611.35492	1.58587
609.42636	1.57471
607.49780	1.56531
605.56923	1.55809
603.64067	1.55439
601.71210	1.55471
599.78354	1.55636
