3997.91406	0.90606
3995.98550	0.90697
3994.05693	0.90687
3992.12837	0.90522
3990.19980	0.90244
3988.27124	0.90007
3986.34268	0.90016
3984.41411	0.90273
3982.48555	0.90505
3980.55698	0.90566
3978.62842	0.90656
3976.69985	0.90767
3974.77129	0.90616
3972.84272	0.90399
3970.91416	0.90507
3968.98560	0.90790
3967.05703	0.90947
3965.12847	0.90903
3963.19990	0.90696
3961.27134	0.90554
3959.34277	0.90630
3957.41421	0.90656
3955.48564	0.90538
3953.55708	0.90616
3951.62852	0.90966
3949.69995	0.91067
3947.77139	0.90709
3945.84282	0.90527
3943.91426	0.90675
3941.98569	0.90797
3940.05713	0.90863
3938.12856	0.90851
3936.20000	0.90658
3934.27144	0.90430
3932.34287	0.90404
3930.41431	0.90508
3928.48574	0.90497
3926.55718	0.90441
3924.62861	0.90452
3922.70005	0.90519
3920.77148	0.90526
3918.84292	0.90315
3916.91436	0.90051
3914.98579	0.90063
3913.05723	0.90208
3911.12866	0.90271
3909.20010	0.90350
3907.27153	0.90532
3905.34297	0.90754
3903.41440	0.91005
3901.48584	0.91126
3899.55728	0.90907
3897.62871	0.90596
3895.70015	0.90554
3893.77158	0.90611
3891.84302	0.90182
3889.91445	0.89685
3887.98589	0.89752
3886.05733	0.89868
3884.12876	0.89835
3882.20020	0.89891
3880.27163	0.89666
3878.34307	0.89469
3876.41450	0.89671
3874.48594	0.89873
3872.55737	0.89944
3870.62881	0.89985
3868.70025	0.89869
3866.77168	0.89818
3864.84312	0.89733
3862.91455	0.89606
3860.98599	0.89805
3859.05742	0.90233
3857.12886	0.90785
3855.20029	0.91275
3853.27173	0.90642
3851.34317	0.89556
3849.41460	0.89255
3847.48604	0.89360
3845.55747	0.89789
3843.62891	0.90485
3841.70034	0.91188
3839.77178	0.91480
3837.84321	0.90910
3835.91465	0.90171
3833.98609	0.89957
3832.05752	0.90095
3830.12896	0.90275
3828.20039	0.90193
3826.27183	0.89899
3824.34326	0.89883
3822.41470	0.90153
3820.48613	0.90145
3818.55757	0.90017
3816.62901	0.89769
3814.70044	0.89289
3812.77188	0.89195
3810.84331	0.89492
3808.91475	0.89859
3806.98618	0.89963
3805.05762	0.90005
3803.12905	0.90128
3801.20049	0.89622
3799.27193	0.88990
3797.34336	0.88945
3795.41480	0.89224
3793.48623	0.89509
3791.55767	0.89578
3789.62910	0.89543
3787.70054	0.89661
3785.77197	0.89810
3783.84341	0.89785
3781.91485	0.89809
3779.98628	0.89852
3778.05772	0.89606
3776.12915	0.89395
3774.20059	0.89520
3772.27202	0.89813
3770.34346	0.89887
3768.41489	0.89747
3766.48633	0.89702
3764.55777	0.89662
3762.62920	0.89753
3760.70064	0.90099
3758.77207	0.90357
3756.84351	0.90469
3754.91494	0.90827
3752.98638	0.91278
3751.05781	0.91214
3749.12925	0.90997
3747.20069	0.91080
3745.27212	0.90729
3743.34356	0.90099
3741.41499	0.90182
3739.48643	0.90721
3737.55786	0.91164
3735.62930	0.91151
3733.70074	0.90722
3731.77217	0.90094
3729.84361	0.89690
3727.91504	0.89689
3725.98648	0.89687
3724.05791	0.89377
3722.12935	0.89163
3720.20078	0.89149
3718.27222	0.89179
3716.34366	0.89349
3714.41509	0.89718
3712.48653	0.90153
3710.55796	0.90192
3708.62940	0.89731
3706.70083	0.89355
3704.77227	0.89359
3702.84370	0.89664
3700.91514	0.89896
3698.98658	0.89901
3697.05801	0.89981
3695.12945	0.90316
3693.20088	0.90846
3691.27232	0.91481
3689.34375	0.91777
3687.41519	0.91525
3685.48662	0.91334
3683.55806	0.91410
3681.62950	0.91821
3679.70093	0.92499
3677.77237	0.93251
3675.84380	0.93778
3673.91524	0.93881
3671.98667	0.94224
3670.05811	0.94887
3668.12954	0.95163
3666.20098	0.95303
3664.27242	0.95725
3662.34385	0.96374
3660.41529	0.97124
3658.48672	0.97853
3656.55816	0.98582
3654.62959	0.99350
3652.70103	1.00172
3650.77246	1.01267
3648.84390	1.02432
3646.91534	1.02923
3644.98677	1.03288
3643.05821	1.03912
3641.12964	1.04701
3639.20108	1.05426
3637.27251	1.06300
3635.34395	1.07560
3633.41538	1.08791
3631.48682	1.09598
3629.55826	1.10418
3627.62969	1.11517
3625.70113	1.12327
3623.77256	1.13020
3621.84400	1.13784
3619.91543	1.14466
3617.98687	1.15092
3616.05830	1.16240
3614.12974	1.17866
3612.20118	1.19190
3610.27261	1.19915
3608.34405	1.20459
3606.41548	1.20944
3604.48692	1.21409
3602.55835	1.22025
3600.62979	1.22899
3598.70123	1.24073
3596.77266	1.25340
3594.84410	1.26556
3592.91553	1.27641
3590.98697	1.28411
3589.05840	1.29212
3587.12984	1.30138
3585.20127	1.30582
3583.27271	1.31044
3581.34415	1.32042
3579.41558	1.33253
3577.48702	1.34137
3575.55845	1.34703
3573.62989	1.35308
3571.70132	1.36144
3569.77276	1.37131
3567.84419	1.38332
3565.91563	1.39675
3563.98707	1.40730
3562.05850	1.41613
3560.12994	1.42431
3558.20137	1.43327
3556.27281	1.44184
3554.34424	1.44635
3552.41568	1.44922
3550.48711	1.45732
3548.55855	1.47200
3546.62999	1.48523
3544.70142	1.48801
3542.77286	1.48772
3540.84429	1.49265
3538.91573	1.50044
3536.98716	1.51072
3535.05860	1.52729
3533.13003	1.54369
3531.20147	1.54882
3529.27291	1.54514
3527.34434	1.54832
3525.41578	1.56292
3523.48721	1.57641
3521.55865	1.58268
3519.63008	1.58747
3517.70152	1.59436
3515.77295	1.60251
3513.84439	1.61353
3511.91583	1.62828
3509.98726	1.64027
3508.05870	1.64694
3506.13013	1.65592
3504.20157	1.66848
3502.27300	1.67441
3500.34444	1.67230
3498.41587	1.67192
3496.48731	1.67999
3494.55875	1.69737
3492.63018	1.71294
3490.70162	1.71755
3488.77305	1.71916
3486.84449	1.72648
3484.91592	1.73459
3482.98736	1.73886
3481.05879	1.73960
3479.13023	1.73299
3477.20167	1.72653
3475.27310	1.73571
3473.34454	1.75312
3471.41597	1.76131
3469.48741	1.76662
3467.55884	1.77594
3465.63028	1.78063
3463.70171	1.78176
3461.77315	1.79298
3459.84459	1.81477
3457.91602	1.82940
3455.98746	1.82733
3454.05889	1.81695
3452.13033	1.80910
3450.20176	1.80644
3448.27320	1.80742
3446.34464	1.81641
3444.41607	1.83045
3442.48751	1.83612
3440.55894	1.83619
3438.63038	1.84035
3436.70181	1.84174
3434.77325	1.83574
3432.84468	1.83305
3430.91612	1.84081
3428.98756	1.85051
3427.05899	1.84951
3425.13043	1.84393
3423.20186	1.84733
3421.27330	1.85453
3419.34473	1.84623
3417.41617	1.82682
3415.48760	1.82494
3413.55904	1.84282
3411.63048	1.85551
3409.70191	1.85528
3407.77335	1.85116
3405.84478	1.84910
3403.91622	1.85140
3401.98765	1.85848
3400.05909	1.86467
3398.13052	1.86176
3396.20196	1.85802
3394.27340	1.86261
3392.34483	1.86645
3390.41627	1.86595
3388.48770	1.86773
3386.55914	1.86823
3384.63057	1.86406
3382.70201	1.85997
3380.77344	1.85636
3378.84488	1.85214
3376.91632	1.84630
3374.98775	1.83813
3373.05919	1.83638
3371.13062	1.84799
3369.20206	1.86192
3367.27349	1.86622
3365.34493	1.86297
3363.41636	1.85583
3361.48780	1.85211
3359.55924	1.85525
3357.63067	1.85613
3355.70211	1.85776
3353.77354	1.86918
3351.84498	1.87737
3349.91641	1.87140
3347.98785	1.86928
3346.05928	1.88040
3344.13072	1.88482
3342.20216	1.87591
3340.27359	1.87216
3338.34503	1.87653
3336.41646	1.87770
3334.48790	1.87612
3332.55933	1.87902
3330.63077	1.89016
3328.70220	1.90340
3326.77364	1.90409
3324.84508	1.89618
3322.91651	1.89666
3320.98795	1.90783
3319.05938	1.92113
3317.13082	1.92668
3315.20225	1.91946
3313.27369	1.90521
3311.34513	1.89347
3309.41656	1.89027
3307.48800	1.89834
3305.55943	1.91192
3303.63087	1.91826
3301.70230	1.91489
3299.77374	1.90781
3297.84517	1.90063
3295.91661	1.89709
3293.98805	1.89548
3292.05948	1.89464
3290.13092	1.90121
3288.20235	1.91204
3286.27379	1.91818
3284.34522	1.92012
3282.41666	1.91771
3280.48809	1.91184
3278.55953	1.91218
3276.63097	1.92183
3274.70240	1.92770
3272.77384	1.92317
3270.84527	1.91645
3268.91671	1.90849
3266.98814	1.89861
3265.05958	1.89347
3263.13101	1.89380
3261.20245	1.89104
3259.27389	1.88090
3257.34532	1.87439
3255.41676	1.87608
3253.48819	1.87369
3251.55963	1.86770
3249.63106	1.86905
3247.70250	1.87066
3245.77393	1.85914
3243.84537	1.84133
3241.91681	1.82943
3239.98824	1.82145
3238.05968	1.81649
3236.13111	1.82169
3234.20255	1.83259
3232.27398	1.83209
3230.34542	1.81856
3228.41685	1.80682
3226.48829	1.80138
3224.55973	1.79568
3222.63116	1.79049
3220.70260	1.79107
3218.77403	1.79314
3216.84547	1.78956
3214.91690	1.78163
3212.98834	1.77602
3211.05977	1.77366
3209.13121	1.76899
3207.20265	1.76354
3205.27408	1.76023
3203.34552	1.75730
3201.41695	1.75827
3199.48839	1.76209
3197.55982	1.75742
3195.63126	1.74617
3193.70269	1.74278
3191.77413	1.74665
3189.84557	1.74389
3187.91700	1.73244
3185.98844	1.72085
3184.05987	1.71160
3182.13131	1.70642
3180.20274	1.70713
3178.27418	1.70786
3176.34562	1.70393
3174.41705	1.69598
3172.48849	1.68596
3170.55992	1.67911
3168.63136	1.67819
3166.70279	1.67680
3164.77423	1.66814
3162.84566	1.65672
3160.91710	1.64801
3158.98854	1.64127
3157.05997	1.63896
3155.13141	1.64177
3153.20284	1.64255
3151.27428	1.63834
3149.34571	1.63435
3147.41715	1.63266
3145.48858	1.63200
3143.56002	1.63254
3141.63146	1.63163
3139.70289	1.62864
3137.77433	1.62665
3135.84576	1.62368
3133.91720	1.61774
3131.98863	1.61273
3130.06007	1.61261
3128.13150	1.61805
3126.20294	1.62520
3124.27438	1.62511
3122.34581	1.61788
3120.41725	1.61645
3118.48868	1.62156
3116.56012	1.62251
3114.63155	1.61930
3112.70299	1.61512
3110.77442	1.60958
3108.84586	1.60679
3106.91730	1.60783
3104.98873	1.60724
3103.06017	1.60613
3101.13160	1.60817
3099.20304	1.60791
3097.27447	1.60238
3095.34591	1.59507
3093.41734	1.58837
3091.48878	1.58583
3089.56022	1.58843
3087.63165	1.59267
3085.70309	1.59484
3083.77452	1.59263
3081.84596	1.58807
3079.91739	1.58260
3077.98883	1.57577
3076.06026	1.57114
3074.13170	1.56937
3072.20314	1.56516
3070.27457	1.55744
3068.34601	1.55200
3066.41744	1.55081
3064.48888	1.54910
3062.56031	1.54630
3060.63175	1.54508
3058.70318	1.54362
3056.77462	1.54027
3054.84606	1.53636
3052.91749	1.53283
3050.98893	1.52923
3049.06036	1.52508
3047.13180	1.52124
3045.20323	1.51638
3043.27467	1.50779
3041.34610	1.49943
3039.41754	1.49629
3037.48898	1.49535
3035.56041	1.49286
3033.63185	1.48987
3031.70328	1.48687
3029.77472	1.48280
3027.84615	1.47783
3025.91759	1.47301
3023.98903	1.47009
3022.06046	1.47014
3020.13190	1.47087
3018.20333	1.46922
3016.27477	1.46546
3014.34620	1.46197
3012.41764	1.45960
3010.48907	1.45775
3008.56051	1.45602
3006.63195	1.45328
3004.70338	1.44900
3002.77482	1.44550
3000.84625	1.44538
2998.91769	1.44729
2996.98912	1.44803
2995.06056	1.44752
2993.13199	1.44735
2991.20343	1.44850
2989.27487	1.45246
2987.34630	1.45887
2985.41774	1.46488
2983.48917	1.46986
2981.56061	1.47554
2979.63204	1.48291
2977.70348	1.49072
2975.77491	1.49605
2973.84635	1.49968
2971.91779	1.50585
2969.98922	1.51605
2968.06066	1.52767
2966.13209	1.53511
2964.20353	1.53646
2962.27496	1.53616
2960.34640	1.53499
2958.41783	1.53170
2956.48927	1.52915
2954.56071	1.52715
2952.63214	1.52370
2950.70358	1.52136
2948.77501	1.52114
2946.84645	1.52074
2944.91788	1.52041
2942.98932	1.52239
2941.06075	1.52801
2939.13219	1.53701
2937.20363	1.54625
2935.27506	1.55320
2933.34650	1.55994
2931.41793	1.56752
2929.48937	1.57383
2927.56080	1.57849
2925.63224	1.58184
2923.70367	1.58523
2921.77511	1.59121
2919.84655	1.59674
2917.91798	1.59340
2915.98942	1.57802
2914.06085	1.55616
2912.13229	1.53552
2910.20372	1.51981
2908.27516	1.50640
2906.34659	1.49271
2904.41803	1.48181
2902.48947	1.47630
2900.56090	1.47392
2898.63234	1.47181
2896.70377	1.46888
2894.77521	1.46410
2892.84664	1.45822
2890.91808	1.45441
2888.98952	1.45392
2887.06095	1.45365
2885.13239	1.45010
2883.20382	1.44543
2881.27526	1.44398
2879.34669	1.44452
2877.41813	1.44358
2875.48956	1.44129
2873.56100	1.43844
2871.63244	1.43376
2869.70387	1.42661
2867.77531	1.41911
2865.84674	1.41452
2863.91818	1.41326
2861.98961	1.41376
2860.06105	1.41636
2858.13248	1.42143
2856.20392	1.42807
2854.27536	1.43736
2852.34679	1.44929
2850.41823	1.45559
2848.48966	1.44586
2846.56110	1.42191
2844.63253	1.39525
2842.70397	1.37349
2840.77540	1.35685
2838.84684	1.34347
2836.91828	1.33322
2834.98971	1.32682
2833.06115	1.32347
2831.13258	1.31976
2829.20402	1.31380
2827.27545	1.30748
2825.34689	1.30201
2823.41832	1.29768
2821.48976	1.29524
2819.56120	1.29343
2817.63263	1.29085
2815.70407	1.28736
2813.77550	1.28261
2811.84694	1.27798
2809.91837	1.27476
2807.98981	1.27105
2806.06124	1.26611
2804.13268	1.26185
2802.20412	1.25827
2800.27555	1.25420
2798.34699	1.25029
2796.41842	1.24714
2794.48986	1.24426
2792.56129	1.24166
2790.63273	1.23897
2788.70416	1.23512
2786.77560	1.23055
2784.84704	1.22692
2782.91847	1.22501
2780.98991	1.22417
2779.06134	1.22257
2777.13278	1.21874
2775.20421	1.21373
2773.27565	1.20957
2771.34708	1.20687
2769.41852	1.20566
2767.48996	1.20508
2765.56139	1.20290
2763.63283	1.19861
2761.70426	1.19451
2759.77570	1.19209
2757.84713	1.19043
2755.91857	1.18903
2753.99001	1.18842
2752.06144	1.18733
2750.13288	1.18471
2748.20431	1.18186
2746.27575	1.17940
2744.34718	1.17772
2742.41862	1.17731
2740.49005	1.17680
2738.56149	1.17530
2736.63293	1.17353
2734.70436	1.17167
2732.77580	1.16997
2730.84723	1.16882
2728.91867	1.16775
2726.99010	1.16652
2725.06154	1.16533
2723.13297	1.16377
2721.20441	1.16210
2719.27585	1.16116
2717.34728	1.16044
2715.41872	1.15895
2713.49015	1.15691
2711.56159	1.15503
2709.63302	1.15336
2707.70446	1.15198
2705.77589	1.15102
2703.84733	1.14965
2701.91877	1.14768
2699.99020	1.14613
2698.06164	1.14533
2696.13307	1.14487
2694.20451	1.14423
2692.27594	1.14309
2690.34738	1.14171
2688.41881	1.14026
2686.49025	1.13869
2684.56169	1.13715
2682.63312	1.13590
2680.70456	1.13516
2678.77599	1.13470
2676.84743	1.13387
2674.91886	1.13278
2672.99030	1.13208
2671.06173	1.13159
2669.13317	1.13055
2667.20461	1.12878
2665.27604	1.12691
2663.34748	1.12548
2661.41891	1.12432
2659.49035	1.12340
2657.56178	1.12272
2655.63322	1.12127
2653.70465	1.11832
2651.77609	1.11526
2649.84753	1.11360
2647.91896	1.11272
2645.99040	1.11153
2644.06183	1.11031
2642.13327	1.10973
2640.20470	1.10915
2638.27614	1.10737
2636.34757	1.10503
2634.41901	1.10332
2632.49045	1.10218
2630.56188	1.10150
2628.63332	1.10090
2626.70475	1.09950
2624.77619	1.09800
2622.84762	1.09767
2620.91906	1.09753
2618.99049	1.09616
2617.06193	1.09439
2615.13337	1.09318
2613.20480	1.09169
2611.27624	1.08975
2609.34767	1.08836
2607.41911	1.08710
2605.49054	1.08526
2603.56198	1.08365
2601.63342	1.08226
2599.70485	1.08028
2597.77629	1.07850
2595.84772	1.07739
2593.91916	1.07560
2591.99059	1.07306
2590.06203	1.07123
2588.13346	1.07032
2586.20490	1.06952
2584.27634	1.06846
2582.34777	1.06731
2580.41921	1.06606
2578.49064	1.06483
2576.56208	1.06408
2574.63351	1.06356
2572.70495	1.06259
2570.77638	1.06139
2568.84782	1.06080
2566.91926	1.06100
2564.99069	1.06111
2563.06213	1.06036
2561.13356	1.05900
2559.20500	1.05801
2557.27643	1.05782
2555.34787	1.05808
2553.41930	1.05815
2551.49074	1.05736
2549.56218	1.05586
2547.63361	1.05467
2545.70505	1.05431
2543.77648	1.05390
2541.84792	1.05283
2539.91935	1.05150
2537.99079	1.05029
2536.06222	1.04989
2534.13366	1.05030
2532.20510	1.04984
2530.27653	1.04771
2528.34797	1.04539
2526.41940	1.04435
2524.49084	1.04409
2522.56227	1.04364
2520.63371	1.04318
2518.70514	1.04291
2516.77658	1.04250
2514.84802	1.04209
2512.91945	1.04198
2510.99089	1.04141
2509.06232	1.04008
2507.13376	1.03912
2505.20519	1.03892
2503.27663	1.03853
2501.34806	1.03754
2499.41950	1.03627
2497.49094	1.03482
2495.56237	1.03333
2493.63381	1.03210
2491.70524	1.03117
2489.77668	1.03041
2487.84811	1.02969
2485.91955	1.02859
2483.99098	1.02677
2482.06242	1.02490
2480.13386	1.02379
2478.20529	1.02298
2476.27673	1.02151
2474.34816	1.01944
2472.41960	1.01759
2470.49103	1.01590
2468.56247	1.01374
2466.63391	1.01138
2464.70534	1.00971
2462.77678	1.00884
2460.84821	1.00770
2458.91965	1.00576
2456.99108	1.00370
2455.06252	1.00205
2453.13395	1.00072
2451.20539	0.99964
2449.27683	0.99855
2447.34826	0.99710
2445.41970	0.99577
2443.49113	0.99486
2441.56257	0.99398
2439.63400	0.99322
2437.70544	0.99285
2435.77687	0.99233
2433.84831	0.99106
2431.91975	0.98953
2429.99118	0.98832
2428.06262	0.98755
2426.13405	0.98702
2424.20549	0.98601
2422.27692	0.98475
2420.34836	0.98442
2418.41979	0.98457
2416.49123	0.98383
2414.56267	0.98246
2412.63410	0.98124
2410.70554	0.98007
2408.77697	0.97879
2406.84841	0.97740
2404.91984	0.97631
2402.99128	0.97578
2401.06271	0.97529
2399.13415	0.97481
2397.20559	0.97473
2395.27702	0.97473
2393.34846	0.97456
2391.41989	0.97456
2389.49133	0.97492
2387.56276	0.97563
2385.63420	0.97664
2383.70563	0.97786
2381.77707	0.97955
2379.84851	0.98221
2377.91994	0.98558
2375.99138	0.98855
2374.06281	0.99044
2372.13425	0.99154
2370.20568	0.99231
2368.27712	0.99213
2366.34855	0.99064
2364.41999	0.98939
2362.49143	0.98983
2360.56286	0.99239
2358.63430	0.99480
2356.70573	0.99551
2354.77717	0.99354
2352.84860	0.98709
2350.92004	0.98179
2348.99147	0.98121
2347.06291	0.98292
2345.13435	0.98327
2343.20578	0.98105
2341.27722	0.98017
2339.34865	0.98280
2337.42009	0.98561
2335.49152	0.98579
2333.56296	0.98440
2331.63440	0.98174
2329.70583	0.97880
2327.77727	0.97816
2325.84870	0.97896
2323.92014	0.97843
2321.99157	0.97604
2320.06301	0.97356
2318.13444	0.97208
2316.20588	0.97089
2314.27732	0.96947
2312.34875	0.96818
2310.42019	0.96710
2308.49162	0.96567
2306.56306	0.96371
2304.63449	0.96182
2302.70593	0.96034
2300.77736	0.95878
2298.84880	0.95717
2296.92024	0.95614
2294.99167	0.95523
2293.06311	0.95392
2291.13454	0.95248
2289.20598	0.95094
2287.27741	0.94959
2285.34885	0.94871
2283.42028	0.94786
2281.49172	0.94702
2279.56316	0.94670
2277.63459	0.94685
2275.70603	0.94702
2273.77746	0.94720
2271.84890	0.94749
2269.92033	0.94766
2267.99177	0.94791
2266.06320	0.94861
2264.13464	0.94943
2262.20608	0.94985
2260.27751	0.95002
2258.34895	0.95029
2256.42038	0.95052
2254.49182	0.95048
2252.56325	0.95045
2250.63469	0.95061
2248.70612	0.95046
2246.77756	0.94958
2244.84900	0.94855
2242.92043	0.94809
2240.99187	0.94816
2239.06330	0.94837
2237.13474	0.94840
2235.20617	0.94808
2233.27761	0.94764
2231.34904	0.94743
2229.42048	0.94739
2227.49192	0.94731
2225.56335	0.94737
2223.63479	0.94771
2221.70622	0.94832
2219.77766	0.94919
2217.84909	0.95025
2215.92053	0.95133
2213.99196	0.95214
2212.06340	0.95267
2210.13484	0.95312
2208.20627	0.95348
2206.27771	0.95375
2204.34914	0.95398
2202.42058	0.95437
2200.49201	0.95499
2198.56345	0.95543
2196.63488	0.95548
2194.70632	0.95514
2192.77776	0.95463
2190.84919	0.95452
2188.92063	0.95484
2186.99206	0.95481
2185.06350	0.95424
2183.13493	0.95370
2181.20637	0.95345
2179.27781	0.95315
2177.34924	0.95253
2175.42068	0.95183
2173.49211	0.95139
2171.56355	0.95115
2169.63498	0.95100
2167.70642	0.95076
2165.77785	0.95028
2163.84929	0.94983
2161.92073	0.94950
2159.99216	0.94881
2158.06360	0.94771
2156.13503	0.94670
2154.20647	0.94605
2152.27790	0.94554
2150.34934	0.94494
2148.42077	0.94451
2146.49221	0.94414
2144.56365	0.94350
2142.63508	0.94286
2140.70652	0.94261
2138.77795	0.94249
2136.84939	0.94224
2134.92082	0.94225
2132.99226	0.94247
2131.06369	0.94214
2129.13513	0.94131
2127.20657	0.94085
2125.27800	0.94092
2123.34944	0.94076
2121.42087	0.94004
2119.49231	0.93925
2117.56374	0.93872
2115.63518	0.93829
2113.70661	0.93766
2111.77805	0.93672
2109.84949	0.93565
2107.92092	0.93452
2105.99236	0.93351
2104.06379	0.93299
2102.13523	0.93276
2100.20666	0.93220
2098.27810	0.93110
2096.34953	0.93009
2094.42097	0.92973
2092.49241	0.92962
2090.56384	0.92928
2088.63528	0.92884
2086.70671	0.92845
2084.77815	0.92805
2082.84958	0.92775
2080.92102	0.92763
2078.99245	0.92760
2077.06389	0.92766
2075.13533	0.92772
2073.20676	0.92758
2071.27820	0.92729
2069.34963	0.92709
2067.42107	0.92681
2065.49250	0.92619
2063.56394	0.92539
2061.63537	0.92451
2059.70681	0.92350
2057.77825	0.92262
2055.84968	0.92195
2053.92112	0.92106
2051.99255	0.91983
2050.06399	0.91876
2048.13542	0.91805
2046.20686	0.91740
2044.27830	0.91670
2042.34973	0.91588
2040.42117	0.91477
2038.49260	0.91381
2036.56404	0.91334
2034.63547	0.91299
2032.70691	0.91232
2030.77834	0.91143
2028.84978	0.91067
2026.92122	0.91013
2024.99265	0.90975
2023.06409	0.90956
2021.13552	0.90965
2019.20696	0.90982
2017.27839	0.90949
2015.34983	0.90853
2013.42126	0.90742
2011.49270	0.90654
2009.56414	0.90587
2007.63557	0.90522
2005.70701	0.90458
2003.77844	0.90404
2001.84988	0.90350
1999.92131	0.90281
1997.99275	0.90184
1996.06418	0.90092
1994.13562	0.90040
1992.20706	0.89970
1990.27849	0.89823
1988.34993	0.89645
1986.42136	0.89484
1984.49280	0.89358
1982.56423	0.89259
1980.63567	0.89141
1978.70710	0.88997
1976.77854	0.88874
1974.84998	0.88788
1972.92141	0.88702
1970.99285	0.88642
1969.06428	0.88631
1967.13572	0.88537
1965.20715	0.88319
1963.27859	0.88112
1961.35002	0.87953
1959.42146	0.87810
1957.49290	0.87689
1955.56433	0.87566
1953.63577	0.87406
1951.70720	0.87242
1949.77864	0.87114
1947.85007	0.87013
1945.92151	0.86927
1943.99294	0.86801
1942.06438	0.86554
1940.13582	0.86301
1938.20725	0.86148
1936.27869	0.86035
1934.35012	0.85933
1932.42156	0.85828
1930.49299	0.85702
1928.56443	0.85592
1926.63586	0.85562
1924.70730	0.85580
1922.77874	0.85524
1920.85017	0.85436
1918.92161	0.85366
1916.99304	0.85225
1915.06448	0.85090
1913.13591	0.85068
1911.20735	0.85111
1909.27878	0.85088
1907.35022	0.84965
1905.42166	0.84842
1903.49309	0.84755
1901.56453	0.84668
1899.63596	0.84610
1897.70740	0.84621
1895.77883	0.84631
1893.85027	0.84584
1891.92171	0.84543
1889.99314	0.84457
1888.06458	0.84262
1886.13601	0.84091
1884.20745	0.83975
1882.27888	0.83874
1880.35032	0.83786
1878.42175	0.83690
1876.49319	0.83587
1874.56463	0.83546
1872.63606	0.83673
1870.70750	0.83912
1868.77893	0.83925
1866.85037	0.83624
1864.92180	0.83424
1862.99324	0.83388
1861.06467	0.83396
1859.13611	0.83384
1857.20755	0.83326
1855.27898	0.83263
1853.35042	0.83233
1851.42185	0.83261
1849.49329	0.83386
1847.56472	0.83598
1845.63616	0.83725
1843.70759	0.83526
1841.77903	0.83256
1839.85047	0.83164
1837.92190	0.83119
1835.99334	0.83048
1834.06477	0.83064
1832.13621	0.83209
1830.20764	0.83241
1828.27908	0.83086
1826.35051	0.82977
1824.42195	0.82868
1822.49339	0.82766
1820.56482	0.82748
1818.63626	0.82751
1816.70769	0.82747
1814.77913	0.82836
1812.85056	0.83018
1810.92200	0.83125
1808.99343	0.83132
1807.06487	0.83188
1805.13631	0.83345
1803.20774	0.83559
1801.27918	0.83720
1799.35061	0.83782
1797.42205	0.83886
1795.49348	0.84099
1793.56492	0.84271
1791.63635	0.84145
1789.70779	0.83941
1787.77923	0.83956
1785.85066	0.84044
1783.92210	0.84095
1781.99353	0.84147
1780.06497	0.84156
1778.13640	0.84183
1776.20784	0.84377
1774.27927	0.84678
1772.35071	0.84764
1770.42215	0.84583
1768.49358	0.84494
1766.56502	0.84578
1764.63645	0.84854
1762.70789	0.85217
1760.77932	0.85521
1758.85076	0.85858
1756.92220	0.86313
1754.99363	0.86857
1753.06507	0.87583
1751.13650	0.88597
1749.20794	0.89646
1747.27937	0.90445
1745.35081	0.91166
1743.42224	0.91926
1741.49368	0.92699
1739.56512	0.93436
1737.63655	0.94096
1735.70799	0.94750
1733.77942	0.95396
1731.85086	0.95792
1729.92229	0.96150
1727.99373	0.96623
1726.06516	0.97257
1724.13660	0.98111
1722.20804	0.99074
1720.27947	1.00121
1718.35091	1.01613
1716.42234	1.03540
1714.49378	1.04943
1712.56521	1.06161
1710.63665	1.07649
1708.70808	1.09539
1706.77952	1.12252
1704.85096	1.15713
1702.92239	1.18902
1700.99383	1.23258
1699.06526	1.30134
1697.13670	1.36616
1695.20813	1.42666
1693.27957	1.47129
1691.35100	1.50771
1689.42244	1.55277
1687.49388	1.59675
1685.56531	1.64150
1683.63675	1.70241
1681.70818	1.74117
1679.77962	1.76041
1677.85105	1.77631
1675.92249	1.79448
1673.99392	1.81692
1672.06536	1.83758
1670.13680	1.85525
1668.20823	1.87078
1666.27967	1.88016
1664.35110	1.88696
1662.42254	1.89125
1660.49397	1.89146
1658.56541	1.89322
1656.63684	1.89749
1654.70828	1.90297
1652.77972	1.89993
1650.85115	1.89483
1648.92259	1.89515
1646.99402	1.89161
1645.06546	1.88494
1643.13689	1.88161
1641.20833	1.88165
1639.27976	1.88390
1637.35120	1.88535
1635.42264	1.87604
1633.49407	1.86420
1631.56551	1.85976
1629.63694	1.85625
1627.70838	1.85128
1625.77981	1.84499
1623.85125	1.83414
1621.92269	1.81992
1619.99412	1.81048
1618.06556	1.80061
1616.13699	1.77872
1614.20843	1.75700
1612.27986	1.74195
1610.35130	1.72754
1608.42273	1.71025
1606.49417	1.69321
1604.56561	1.68061
1602.63704	1.67014
1600.70848	1.66132
1598.77991	1.65583
1596.85135	1.65200
1594.92278	1.64841
1592.99422	1.64688
1591.06565	1.64808
1589.13709	1.64964
1587.20853	1.65163
1585.27996	1.65731
1583.35140	1.66767
1581.42283	1.67977
1579.49427	1.69160
1577.56570	1.70617
1575.63714	1.72418
1573.70857	1.73537
1571.78001	1.74314
1569.85145	1.75546
1567.92288	1.77011
1565.99432	1.78152
1564.06575	1.79031
1562.13719	1.79590
1560.20862	1.80364
1558.28006	1.82031
1556.35149	1.82553
1554.42293	1.82582
1552.49437	1.82638
1550.56580	1.82442
1548.63724	1.82032
1546.70867	1.81902
1544.78011	1.82147
1542.85154	1.82826
1540.92298	1.83014
1538.99441	1.80888
1537.06585	1.79765
1535.13729	1.79337
1533.20872	1.78316
1531.28016	1.77145
1529.35159	1.76718
1527.42303	1.76573
1525.49446	1.76204
1523.56590	1.75827
1521.63733	1.75491
1519.70877	1.74930
1517.78021	1.73945
1515.85164	1.72619
1513.92308	1.71364
1511.99451	1.70231
1510.06595	1.69383
1508.13738	1.67929
1506.20882	1.63363
1504.28025	1.60398
1502.35169	1.58938
1500.42313	1.57457
1498.49456	1.55323
1496.56600	1.52428
1494.63743	1.50298
1492.70887	1.49219
1490.78030	1.48080
1488.85174	1.46100
1486.92317	1.44396
1484.99461	1.43579
1483.06605	1.43355
1481.13748	1.43566
1479.20892	1.44109
1477.28035	1.45047
1475.35179	1.46627
1473.42322	1.48880
1471.49466	1.50609
1469.56610	1.51397
1467.63753	1.52159
1465.70897	1.53098
1463.78040	1.53944
1461.85184	1.54686
1459.92327	1.55657
1457.99471	1.56893
1456.06614	1.57130
1454.13758	1.56678
1452.20902	1.56326
1450.28045	1.55999
1448.35189	1.55676
1446.42332	1.55277
1444.49476	1.54791
1442.56619	1.54309
1440.63763	1.53943
1438.70906	1.53615
1436.78050	1.52765
1434.85194	1.51382
1432.92337	1.50304
1430.99481	1.49377
1429.06624	1.48460
1427.13768	1.47979
1425.20911	1.48046
1423.28055	1.48412
1421.35198	1.48845
1419.42342	1.49411
1417.49486	1.49951
1415.56629	1.50149
1413.63773	1.50187
1411.70916	1.50255
1409.78060	1.50463
1407.85203	1.50775
1405.92347	1.50992
1403.99490	1.51016
1402.06634	1.51153
1400.13778	1.51572
1398.20921	1.51984
1396.28065	1.52052
1394.35208	1.51760
1392.42352	1.51458
1390.49495	1.51498
1388.56639	1.52046
1386.63782	1.53071
1384.70926	1.54146
1382.78070	1.55076
1380.85213	1.55702
1378.92357	1.55826
1376.99500	1.55481
1375.06644	1.54553
1373.13787	1.53097
1371.20931	1.51625
1369.28074	1.50035
1367.35218	1.48272
1365.42362	1.46741
1363.49505	1.45336
1361.56649	1.43955
1359.63792	1.43032
1357.70936	1.42549
1355.78079	1.42213
1353.85223	1.41943
1351.92366	1.41790
1349.99510	1.41689
1348.06654	1.41546
1346.13797	1.41398
1344.20941	1.41343
1342.28084	1.41414
1340.35228	1.41514
1338.42371	1.41523
1336.49515	1.41612
1334.56659	1.41957
1332.63802	1.42468
1330.70946	1.42990
1328.78089	1.43419
1326.85233	1.43698
1324.92376	1.43845
1322.99520	1.43988
1321.06663	1.44230
1319.13807	1.44480
1317.20951	1.44670
1315.28094	1.44884
1313.35238	1.45073
1311.42381	1.45103
1309.49525	1.44993
1307.56668	1.44825
1305.63812	1.44669
1303.70955	1.44540
1301.78099	1.44398
1299.85243	1.44212
1297.92386	1.43945
1295.99530	1.43586
1294.06673	1.43235
1292.13817	1.43029
1290.20960	1.42991
1288.28104	1.43018
1286.35247	1.43066
1284.42391	1.43166
1282.49535	1.43268
1280.56678	1.43328
1278.63822	1.43443
1276.70965	1.43668
1274.78109	1.43959
1272.85252	1.44357
1270.92396	1.44945
1268.99539	1.45617
1267.06683	1.46160
1265.13827	1.46542
1263.20970	1.46821
1261.28114	1.46934
1259.35257	1.46862
1257.42401	1.46764
1255.49544	1.46756
1253.56688	1.46782
1251.63831	1.46750
1249.70975	1.46616
1247.78119	1.46451
1245.85262	1.46376
1243.92406	1.46303
1241.99549	1.46032
1240.06693	1.45586
1238.13836	1.45182
1236.20980	1.44894
1234.28123	1.44513
1232.35267	1.43876
1230.42411	1.43054
1228.49554	1.42167
1226.56698	1.41270
1224.63841	1.40372
1222.70985	1.39464
1220.78128	1.38560
1218.85272	1.37737
1216.92415	1.37078
1214.99559	1.36605
1213.06703	1.36334
1211.13846	1.36318
1209.20990	1.36534
1207.28133	1.36733
1205.35277	1.36571
1203.42420	1.35925
1201.49564	1.35038
1199.56708	1.34168
1197.63851	1.33309
1195.70995	1.32422
1193.78138	1.31597
1191.85282	1.30916
1189.92425	1.30374
1187.99569	1.29932
1186.06712	1.29630
1184.13856	1.29556
1182.21000	1.29705
1180.28143	1.30053
1178.35287	1.30578
1176.42430	1.31194
1174.49574	1.31885
1172.56717	1.32681
1170.63861	1.33592
1168.71004	1.34750
1166.78148	1.36343
1164.85292	1.38329
1162.92435	1.40317
1160.99579	1.41855
1159.06722	1.42707
1157.13866	1.42739
1155.21009	1.41941
1153.28153	1.40492
1151.35296	1.38650
1149.42440	1.36730
1147.49584	1.35034
1145.56727	1.33672
1143.63871	1.32663
1141.71014	1.32118
1139.78158	1.32183
1137.85301	1.32782
1135.92445	1.33676
1133.99588	1.34858
1132.06732	1.36446
1130.13876	1.38349
1128.21019	1.40389
1126.28163	1.42384
1124.35306	1.44207
1122.42450	1.45867
1120.49593	1.47286
1118.56737	1.48307
1116.63880	1.48820
1114.71024	1.48824
1112.78168	1.48517
1110.85311	1.48093
1108.92455	1.47544
1106.99598	1.46803
1105.06742	1.45994
1103.13885	1.45385
1101.21029	1.45095
1099.28172	1.45154
1097.35316	1.45661
1095.42460	1.46614
1093.49603	1.47833
1091.56747	1.49239
1089.63890	1.50955
1087.71034	1.53092
1085.78177	1.55648
1083.85321	1.58291
1081.92464	1.60387
1079.99608	1.61556
1078.06752	1.61844
1076.13895	1.61556
1074.21039	1.61000
1072.28182	1.60212
1070.35326	1.59145
1068.42469	1.57945
1066.49613	1.56767
1064.56756	1.55678
1062.63900	1.54837
1060.71044	1.54256
1058.78187	1.53680
1056.85331	1.52975
1054.92474	1.52241
1052.99618	1.51570
1051.06761	1.51001
1049.13905	1.50683
1047.21049	1.50734
1045.28192	1.51074
1043.35336	1.51565
1041.42479	1.52036
1039.49623	1.52400
1037.56766	1.52720
1035.63910	1.52969
1033.71053	1.53049
1031.78197	1.52869
1029.85341	1.52329
1027.92484	1.51454
1025.99628	1.50463
1024.06771	1.49550
1022.13915	1.48718
1020.21058	1.47916
1018.28202	1.47127
1016.35345	1.46280
1014.42489	1.45224
1012.49633	1.43847
1010.56776	1.42154
1008.63920	1.40234
1006.71063	1.38249
1004.78207	1.36338
1002.85350	1.34569
1000.92494	1.33000
998.99637	1.31704
997.06781	1.30741
995.13925	1.29997
993.21068	1.29203
991.28212	1.28221
989.35355	1.27101
987.42499	1.25878
985.49642	1.24588
983.56786	1.23384
981.63929	1.22388
979.71073	1.21574
977.78217	1.20863
975.85360	1.20174
973.92504	1.19346
971.99647	1.18201
970.06791	1.16782
968.13934	1.15319
966.21078	1.14049
964.28221	1.13150
962.35365	1.12763
960.42509	1.12990
958.49652	1.13745
956.56796	1.14615
954.63939	1.15003
952.71083	1.14608
950.78226	1.13655
948.85370	1.12568
946.92513	1.11674
944.99657	1.11096
943.06801	1.10757
941.13944	1.10562
939.21088	1.10466
937.28231	1.10442
935.35375	1.10501
933.42518	1.10607
931.49662	1.10722
929.56805	1.10855
927.63949	1.10995
925.71093	1.11162
923.78236	1.11354
921.85380	1.11477
919.92523	1.11502
917.99667	1.11493
916.06810	1.11492
914.13954	1.11533
912.21098	1.11649
910.28241	1.11883
908.35385	1.12298
906.42528	1.12894
904.49672	1.13606
902.56815	1.14339
900.63959	1.14976
898.71102	1.15483
896.78246	1.15888
894.85390	1.16172
892.92533	1.16316
890.99677	1.16420
889.06820	1.16667
887.13964	1.17097
885.21107	1.17615
883.28251	1.18195
881.35394	1.18849
879.42538	1.19489
877.49682	1.20057
875.56825	1.20596
873.63969	1.21136
871.71112	1.21599
869.78256	1.21874
867.85399	1.22007
865.92543	1.22106
863.99686	1.22188
862.06830	1.22248
860.13974	1.22279
858.21117	1.22341
856.28261	1.22515
854.35404	1.22708
852.42548	1.22804
850.49691	1.22847
848.56835	1.22899
846.63978	1.22969
844.71122	1.23094
842.78266	1.23284
840.85409	1.23494
838.92553	1.23770
836.99696	1.24123
835.06840	1.24414
833.13983	1.24649
831.21127	1.24937
829.28270	1.25226
827.35414	1.25516
825.42558	1.25880
823.49701	1.26279
821.56845	1.26642
819.63988	1.26915
817.71132	1.27097
815.78275	1.27335
813.85419	1.27702
811.92562	1.28018
809.99706	1.28138
808.06850	1.28171
806.13993	1.28199
804.21137	1.28147
802.28280	1.28098
800.35424	1.28231
798.42567	1.28483
796.49711	1.28664
794.56854	1.28788
792.63998	1.28989
790.71142	1.29261
788.78285	1.29594
786.85429	1.30045
784.92572	1.30532
782.99716	1.30988
781.06859	1.31453
779.14003	1.31966
777.21147	1.32519
775.28290	1.33037
773.35434	1.33506
771.42577	1.34006
769.49721	1.34592
767.56864	1.35211
765.64008	1.35741
763.71151	1.36191
761.78295	1.36753
759.85439	1.37511
757.92582	1.38262
755.99726	1.38938
754.06869	1.39721
752.14013	1.40507
750.21156	1.41059
748.28300	1.41463
746.35443	1.41884
744.42587	1.42249
742.49731	1.42506
740.56874	1.42801
738.64018	1.43105
736.71161	1.43265
734.78305	1.43290
732.85448	1.43257
730.92592	1.43274
728.99735	1.43392
727.06879	1.43491
725.14023	1.43457
723.21166	1.43453
721.28310	1.43667
719.35453	1.43890
717.42597	1.43906
715.49740	1.43876
713.56884	1.43994
711.64027	1.44235
709.71171	1.44413
707.78315	1.44536
705.85458	1.44727
703.92602	1.44946
701.99745	1.45116
700.06889	1.45150
698.14032	1.45065
696.21176	1.44950
694.28319	1.44776
692.35463	1.44702
690.42607	1.44722
688.49750	1.44577
686.56894	1.44382
684.64037	1.44119
682.71181	1.43681
680.78324	1.43385
678.85468	1.43254
676.92611	1.42933
674.99755	1.42407
673.06899	1.42119
671.14042	1.42368
669.21186	1.42863
667.28329	1.42682
665.35473	1.42198
663.42616	1.41983
661.49760	1.41913
659.56903	1.41812
657.64047	1.41462
655.71191	1.41070
653.78334	1.41047
651.85478	1.41079
649.92621	1.40928
647.99765	1.40995
646.06908	1.41184
644.14052	1.41169
642.21195	1.41110
640.28339	1.41149
638.35483	1.41194
636.42626	1.41088
634.49770	1.40842
632.56913	1.40594
630.64057	1.40460
628.71200	1.40564
626.78344	1.40658
624.85488	1.40623
622.92631	1.40957
620.99775	1.41362
619.06918	1.41103
617.14062	1.40691
615.21205	1.40824
613.28349	1.41179
611.35492	1.41305
609.42636	1.41240
607.49780	1.41262
605.56923	1.41393
603.64067	1.41483
601.71210	1.41664
599.78354	1.41987
