3997.91406	1.19597
3995.98550	1.19294
3994.05693	1.19176
3992.12837	1.19488
3990.19980	1.19550
3988.27124	1.19384
3986.34268	1.19384
3984.41411	1.19196
3982.48555	1.18668
3980.55698	1.18256
3978.62842	1.18082
3976.69985	1.18050
3974.77129	1.18188
3972.84272	1.18257
3970.91416	1.17988
3968.98560	1.17650
3967.05703	1.17534
3965.12847	1.17434
3963.19990	1.17332
3961.27134	1.17557
3959.34277	1.17872
3957.41421	1.17854
3955.48564	1.17766
3953.55708	1.17870
3951.62852	1.17878
3949.69995	1.17573
3947.77139	1.17250
3945.84282	1.17119
3943.91426	1.16887
3941.98569	1.16467
3940.05713	1.16313
3938.12856	1.16689
3936.20000	1.17279
3934.27144	1.17302
3932.34287	1.16595
3930.41431	1.16109
3928.48574	1.16135
3926.55718	1.16377
3924.62861	1.16838
3922.70005	1.17142
3920.77148	1.16948
3918.84292	1.16520
3916.91436	1.16153
3914.98579	1.15955
3913.05723	1.15810
3911.12866	1.15587
3909.20010	1.15560
3907.27153	1.15725
3905.34297	1.15489
3903.41440	1.15092
3901.48584	1.15345
3899.55728	1.15670
3897.62871	1.15708
3895.70015	1.15897
3893.77158	1.16242
3891.84302	1.16075
3889.91445	1.15600
3887.98589	1.15849
3886.05733	1.16620
3884.12876	1.16893
3882.20020	1.16618
3880.27163	1.16461
3878.34307	1.16687
3876.41450	1.16866
3874.48594	1.16430
3872.55737	1.15895
3870.62881	1.15857
3868.70025	1.15727
3866.77168	1.15621
3864.84312	1.15405
3862.91455	1.14945
3860.98599	1.14955
3859.05742	1.15350
3857.12886	1.15896
3855.20029	1.16549
3853.27173	1.16399
3851.34317	1.15530
3849.41460	1.15259
3847.48604	1.15354
3845.55747	1.15562
3843.62891	1.15838
3841.70034	1.16232
3839.77178	1.16520
3837.84321	1.15971
3835.91465	1.15037
3833.98609	1.14808
3832.05752	1.15149
3830.12896	1.15463
3828.20039	1.15503
3826.27183	1.15422
3824.34326	1.15436
3822.41470	1.15392
3820.48613	1.15060
3818.55757	1.14699
3816.62901	1.14235
3814.70044	1.13986
3812.77188	1.14140
3810.84331	1.14316
3808.91475	1.14298
3806.98618	1.14045
3805.05762	1.14188
3803.12905	1.14796
3801.20049	1.14767
3799.27193	1.14096
3797.34336	1.13512
3795.41480	1.13193
3793.48623	1.13383
3791.55767	1.13672
3789.62910	1.13730
3787.70054	1.13680
3785.77197	1.13656
3783.84341	1.13680
3781.91485	1.13695
3779.98628	1.13698
3778.05772	1.13667
3776.12915	1.13529
3774.20059	1.13336
3772.27202	1.13167
3770.34346	1.13315
3768.41489	1.13888
3766.48633	1.14184
3764.55777	1.14088
3762.62920	1.14105
3760.70064	1.14075
3758.77207	1.13588
3756.84351	1.13164
3754.91494	1.13204
3752.98638	1.13524
3751.05781	1.13855
3749.12925	1.13796
3747.20069	1.13488
3745.27212	1.13235
3743.34356	1.13420
3741.41499	1.13658
3739.48643	1.13583
3737.55786	1.13316
3735.62930	1.13029
3733.70074	1.12832
3731.77217	1.12698
3729.84361	1.12652
3727.91504	1.12645
3725.98648	1.12433
3724.05791	1.12133
3722.12935	1.12143
3720.20078	1.12296
3718.27222	1.12332
3716.34366	1.12328
3714.41509	1.12426
3712.48653	1.12590
3710.55796	1.12561
3708.62940	1.12323
3706.70083	1.12083
3704.77227	1.11973
3702.84370	1.11969
3700.91514	1.11892
3698.98658	1.11933
3697.05801	1.12240
3695.12945	1.12451
3693.20088	1.12455
3691.27232	1.12679
3689.34375	1.13014
3687.41519	1.12989
3685.48662	1.12980
3683.55806	1.13006
3681.62950	1.13029
3679.70093	1.13212
3677.77237	1.13618
3675.84380	1.14130
3673.91524	1.14468
3671.98667	1.14553
3670.05811	1.14339
3668.12954	1.14176
3666.20098	1.14372
3664.27242	1.14757
3662.34385	1.15349
3660.41529	1.16190
3658.48672	1.16889
3656.55816	1.17056
3654.62959	1.17271
3652.70103	1.17966
3650.77246	1.18550
3648.84390	1.18406
3646.91534	1.18755
3644.98677	1.19704
3643.05821	1.20545
3641.12964	1.20893
3639.20108	1.20877
3637.27251	1.21013
3635.34395	1.21334
3633.41538	1.21604
3631.48682	1.21947
3629.55826	1.22550
3627.62969	1.23331
3625.70113	1.24112
3623.77256	1.24875
3621.84400	1.25542
3619.91543	1.25782
3617.98687	1.25864
3616.05830	1.26658
3614.12974	1.27583
3612.20118	1.27886
3610.27261	1.28041
3608.34405	1.28559
3606.41548	1.29261
3604.48692	1.29902
3602.55835	1.30417
3600.62979	1.30706
3598.70123	1.31020
3596.77266	1.31735
3594.84410	1.32810
3592.91553	1.33791
3590.98697	1.34466
3589.05840	1.35002
3587.12984	1.35184
3585.20127	1.35208
3583.27271	1.35670
3581.34415	1.36395
3579.41558	1.36928
3577.48702	1.37214
3575.55845	1.37572
3573.62989	1.38055
3571.70132	1.38634
3569.77276	1.39483
3567.84419	1.40500
3565.91563	1.40959
3563.98707	1.41200
3562.05850	1.41617
3560.12994	1.41684
3558.20137	1.41679
3556.27281	1.42285
3554.34424	1.43263
3552.41568	1.44033
3550.48711	1.44648
3548.55855	1.45617
3546.62999	1.46787
3544.70142	1.47313
3542.77286	1.47029
3540.84429	1.46824
3538.91573	1.47494
3536.98716	1.48789
3535.05860	1.49655
3533.13003	1.49981
3531.20147	1.50556
3529.27291	1.51559
3527.34434	1.52289
3525.41578	1.52382
3523.48721	1.52219
3521.55865	1.51876
3519.63008	1.51583
3517.70152	1.52065
3515.77295	1.53097
3513.84439	1.53949
3511.91583	1.54677
3509.98726	1.55219
3508.05870	1.55415
3506.13013	1.55802
3504.20157	1.56764
3502.27300	1.57766
3500.34444	1.58357
3498.41587	1.58961
3496.48731	1.59494
3494.55875	1.59727
3492.63018	1.60115
3490.70162	1.60550
3488.77305	1.60525
3486.84449	1.60415
3484.91592	1.60795
3482.98736	1.61593
3481.05879	1.62369
3479.13023	1.62896
3477.20167	1.63323
3475.27310	1.63584
3473.34454	1.63907
3471.41597	1.64809
3469.48741	1.65879
3467.55884	1.66196
3465.63028	1.65632
3463.70171	1.64917
3461.77315	1.64540
3459.84459	1.64406
3457.91602	1.64733
3455.98746	1.65688
3454.05889	1.66756
3452.13033	1.67772
3450.20176	1.68526
3448.27320	1.68134
3446.34464	1.66776
3444.41607	1.65840
3442.48751	1.66033
3440.55894	1.67016
3438.63038	1.67847
3436.70181	1.68121
3434.77325	1.68271
3432.84468	1.68587
3430.91612	1.68694
3428.98756	1.68415
3427.05899	1.68222
3425.13043	1.68656
3423.20186	1.69749
3421.27330	1.70534
3419.34473	1.70317
3417.41617	1.69885
3415.48760	1.69603
3413.55904	1.69055
3411.63048	1.68572
3409.70191	1.68668
3407.77335	1.69169
3405.84478	1.69903
3403.91622	1.70162
3401.98765	1.69232
3400.05909	1.68249
3398.13052	1.68459
3396.20196	1.69557
3394.27340	1.70396
3392.34483	1.70298
3390.41627	1.69975
3388.48770	1.70339
3386.55914	1.70738
3384.63057	1.70157
3382.70201	1.69391
3380.77344	1.69373
3378.84488	1.69686
3376.91632	1.70115
3374.98775	1.70768
3373.05919	1.71360
3371.13062	1.71689
3369.20206	1.71638
3367.27349	1.71219
3365.34493	1.70792
3363.41636	1.70627
3361.48780	1.70735
3359.55924	1.70851
3357.63067	1.70894
3355.70211	1.71273
3353.77354	1.71766
3351.84498	1.71708
3349.91641	1.71151
3347.98785	1.70495
3346.05928	1.70125
3344.13072	1.70333
3342.20216	1.71115
3340.27359	1.72125
3338.34503	1.73092
3336.41646	1.73951
3334.48790	1.74091
3332.55933	1.73199
3330.63077	1.72263
3328.70220	1.72110
3326.77364	1.72645
3324.84508	1.73827
3322.91651	1.75250
3320.98795	1.75587
3319.05938	1.74822
3317.13082	1.74244
3315.20225	1.74299
3313.27369	1.74786
3311.34513	1.75353
3309.41656	1.75920
3307.48800	1.76828
3305.55943	1.77890
3303.63087	1.78476
3301.70230	1.78614
3299.77374	1.78945
3297.84517	1.79275
3295.91661	1.79001
3293.98805	1.78585
3292.05948	1.78220
3290.13092	1.77678
3288.20235	1.77542
3286.27379	1.78012
3284.34522	1.78399
3282.41666	1.78000
3280.48809	1.77175
3278.55953	1.77039
3276.63097	1.77455
3274.70240	1.77751
3272.77384	1.77749
3270.84527	1.76924
3268.91671	1.75532
3266.98814	1.74827
3265.05958	1.75193
3263.13101	1.75616
3261.20245	1.75246
3259.27389	1.74654
3257.34532	1.74163
3255.41676	1.72992
3253.48819	1.71576
3251.55963	1.71416
3249.63106	1.72267
3247.70250	1.72520
3245.77393	1.71439
3243.84537	1.70002
3241.91681	1.69665
3239.98824	1.70241
3238.05968	1.70455
3236.13111	1.69975
3234.20255	1.69376
3232.27398	1.68953
3230.34542	1.68559
3228.41685	1.68301
3226.48829	1.68176
3224.55973	1.67620
3222.63116	1.66637
3220.70260	1.65983
3218.77403	1.65883
3216.84547	1.65904
3214.91690	1.65894
3212.98834	1.65916
3211.05977	1.65731
3209.13121	1.65142
3207.20265	1.64502
3205.27408	1.64123
3203.34552	1.63784
3201.41695	1.63523
3199.48839	1.63378
3197.55982	1.62936
3195.63126	1.62297
3193.70269	1.61803
3191.77413	1.61462
3189.84557	1.61220
3187.91700	1.60901
3185.98844	1.60394
3184.05987	1.59701
3182.13131	1.58900
3180.20274	1.58330
3178.27418	1.58176
3176.34562	1.58076
3174.41705	1.57575
3172.48849	1.56912
3170.55992	1.56711
3168.63136	1.56786
3166.70279	1.56397
3164.77423	1.55636
3162.84566	1.55005
3160.91710	1.54548
3158.98854	1.54290
3157.05997	1.54122
3155.13141	1.53789
3153.20284	1.53583
3151.27428	1.53759
3149.34571	1.53840
3147.41715	1.53460
3145.48858	1.52948
3143.56002	1.52647
3141.63146	1.52519
3139.70289	1.52388
3137.77433	1.52186
3135.84576	1.51883
3133.91720	1.51462
3131.98863	1.51321
3130.06007	1.51607
3128.13150	1.51721
3126.20294	1.51457
3124.27438	1.51103
3122.34581	1.50876
3120.41725	1.50821
3118.48868	1.50748
3116.56012	1.50592
3114.63155	1.50369
3112.70299	1.50042
3110.77442	1.49769
3108.84586	1.49752
3106.91730	1.49925
3104.98873	1.49974
3103.06017	1.49827
3101.13160	1.49626
3099.20304	1.49399
3097.27447	1.49191
3095.34591	1.49037
3093.41734	1.48899
3091.48878	1.48871
3089.56022	1.48935
3087.63165	1.48776
3085.70309	1.48377
3083.77452	1.48121
3081.84596	1.48058
3079.91739	1.47729
3077.98883	1.47003
3076.06026	1.46412
3074.13170	1.46256
3072.20314	1.46269
3070.27457	1.46208
3068.34601	1.46053
3066.41744	1.45617
3064.48888	1.44801
3062.56031	1.44110
3060.63175	1.43873
3058.70318	1.43836
3056.77462	1.43711
3054.84606	1.43406
3052.91749	1.43094
3050.98893	1.42855
3049.06036	1.42497
3047.13180	1.42022
3045.20323	1.41590
3043.27467	1.41264
3041.34610	1.40972
3039.41754	1.40680
3037.48898	1.40557
3035.56041	1.40516
3033.63185	1.40246
3031.70328	1.39853
3029.77472	1.39531
3027.84615	1.39160
3025.91759	1.38647
3023.98903	1.38158
3022.06046	1.37981
3020.13190	1.38044
3018.20333	1.37997
3016.27477	1.37783
3014.34620	1.37433
3012.41764	1.36986
3010.48907	1.36664
3008.56051	1.36499
3006.63195	1.36364
3004.70338	1.36199
3002.77482	1.35932
3000.84625	1.35669
2998.91769	1.35597
2996.98912	1.35635
2995.06056	1.35713
2993.13199	1.35959
2991.20343	1.36298
2989.27487	1.36575
2987.34630	1.36926
2985.41774	1.37462
2983.48917	1.38102
2981.56061	1.38653
2979.63204	1.38963
2977.70348	1.39369
2975.77491	1.40083
2973.84635	1.40675
2971.91779	1.41088
2969.98922	1.41701
2968.06066	1.42374
2966.13209	1.42819
2964.20353	1.43218
2962.27496	1.43721
2960.34640	1.44052
2958.41783	1.43956
2956.48927	1.43652
2954.56071	1.43391
2952.63214	1.43070
2950.70358	1.42676
2948.77501	1.42273
2946.84645	1.41972
2944.91788	1.42148
2942.98932	1.42907
2941.06075	1.43878
2939.13219	1.44825
2937.20363	1.45845
2935.27506	1.47129
2933.34650	1.48656
2931.41793	1.50128
2929.48937	1.51373
2927.56080	1.52494
2925.63224	1.53491
2923.70367	1.54224
2921.77511	1.54728
2919.84655	1.55061
2917.91798	1.54810
2915.98942	1.53359
2914.06085	1.50836
2912.13229	1.48099
2910.20372	1.45803
2908.27516	1.43914
2906.34659	1.42286
2904.41803	1.41109
2902.48947	1.40431
2900.56090	1.40002
2898.63234	1.39620
2896.70377	1.39250
2894.77521	1.38931
2892.84664	1.38503
2890.91808	1.37723
2888.98952	1.36824
2887.06095	1.36288
2885.13239	1.36100
2883.20382	1.35931
2881.27526	1.35763
2879.34669	1.35702
2877.41813	1.35649
2875.48956	1.35464
2873.56100	1.35143
2871.63244	1.34779
2869.70387	1.34432
2867.77531	1.34109
2865.84674	1.33832
2863.91818	1.33611
2861.98961	1.33571
2860.06105	1.34043
2858.13248	1.35173
2856.20392	1.36571
2854.27536	1.37841
2852.34679	1.39025
2850.41823	1.39743
2848.48966	1.38941
2846.56110	1.36442
2844.63253	1.33399
2842.70397	1.30830
2840.77540	1.28881
2838.84684	1.27413
2836.91828	1.26443
2834.98971	1.25864
2833.06115	1.25354
2831.13258	1.24814
2829.20402	1.24399
2827.27545	1.24103
2825.34689	1.23759
2823.41832	1.23318
2821.48976	1.22895
2819.56120	1.22633
2817.63263	1.22461
2815.70407	1.22168
2813.77550	1.21800
2811.84694	1.21578
2809.91837	1.21514
2807.98981	1.21445
2806.06124	1.21346
2804.13268	1.21279
2802.20412	1.21113
2800.27555	1.20753
2798.34699	1.20380
2796.41842	1.20161
2794.48986	1.20046
2792.56129	1.19924
2790.63273	1.19768
2788.70416	1.19562
2786.77560	1.19325
2784.84704	1.19132
2782.91847	1.18915
2780.98991	1.18615
2779.06134	1.18391
2777.13278	1.18325
2775.20421	1.18306
2773.27565	1.18235
2771.34708	1.18075
2769.41852	1.17813
2767.48996	1.17511
2765.56139	1.17313
2763.63283	1.17230
2761.70426	1.17148
2759.77570	1.17038
2757.84713	1.16947
2755.91857	1.16881
2753.99001	1.16806
2752.06144	1.16711
2750.13288	1.16586
2748.20431	1.16404
2746.27575	1.16245
2744.34718	1.16183
2742.41862	1.16108
2740.49005	1.15934
2738.56149	1.15724
2736.63293	1.15532
2734.70436	1.15391
2732.77580	1.15348
2730.84723	1.15329
2728.91867	1.15193
2726.99010	1.14996
2725.06154	1.14863
2723.13297	1.14711
2721.20441	1.14474
2719.27585	1.14276
2717.34728	1.14170
2715.41872	1.14092
2713.49015	1.14028
2711.56159	1.13983
2709.63302	1.13926
2707.70446	1.13859
2705.77589	1.13785
2703.84733	1.13680
2701.91877	1.13525
2699.99020	1.13324
2698.06164	1.13156
2696.13307	1.13068
2694.20451	1.12895
2692.27594	1.12533
2690.34738	1.12179
2688.41881	1.12027
2686.49025	1.12030
2684.56169	1.12022
2682.63312	1.11926
2680.70456	1.11783
2678.77599	1.11668
2676.84743	1.11632
2674.91886	1.11636
2672.99030	1.11593
2671.06173	1.11490
2669.13317	1.11395
2667.20461	1.11356
2665.27604	1.11317
2663.34748	1.11236
2661.41891	1.11150
2659.49035	1.10988
2657.56178	1.10719
2655.63322	1.10529
2653.70465	1.10505
2651.77609	1.10545
2649.84753	1.10556
2647.91896	1.10498
2645.99040	1.10407
2644.06183	1.10397
2642.13327	1.10475
2640.20470	1.10461
2638.27614	1.10324
2636.34757	1.10274
2634.41901	1.10330
2632.49045	1.10309
2630.56188	1.10156
2628.63332	1.09973
2626.70475	1.09896
2624.77619	1.09884
2622.84762	1.09765
2620.91906	1.09589
2618.99049	1.09523
2617.06193	1.09548
2615.13337	1.09538
2613.20480	1.09457
2611.27624	1.09349
2609.34767	1.09236
2607.41911	1.09156
2605.49054	1.09168
2603.56198	1.09237
2601.63342	1.09269
2599.70485	1.09217
2597.77629	1.09117
2595.84772	1.09048
2593.91916	1.09007
2591.99059	1.08892
2590.06203	1.08677
2588.13346	1.08474
2586.20490	1.08375
2584.27634	1.08325
2582.34777	1.08234
2580.41921	1.08144
2578.49064	1.08075
2576.56208	1.07948
2574.63351	1.07791
2572.70495	1.07679
2570.77638	1.07601
2568.84782	1.07569
2566.91926	1.07570
2564.99069	1.07521
2563.06213	1.07437
2561.13356	1.07372
2559.20500	1.07286
2557.27643	1.07149
2555.34787	1.06992
2553.41930	1.06886
2551.49074	1.06805
2549.56218	1.06644
2547.63361	1.06442
2545.70505	1.06277
2543.77648	1.06153
2541.84792	1.06094
2539.91935	1.06090
2537.99079	1.06080
2536.06222	1.06024
2534.13366	1.05908
2532.20510	1.05792
2530.27653	1.05741
2528.34797	1.05723
2526.41940	1.05692
2524.49084	1.05637
2522.56227	1.05576
2520.63371	1.05543
2518.70514	1.05488
2516.77658	1.05356
2514.84802	1.05205
2512.91945	1.05111
2510.99089	1.05070
2509.06232	1.05031
2507.13376	1.04981
2505.20519	1.04927
2503.27663	1.04848
2501.34806	1.04742
2499.41950	1.04621
2497.49094	1.04528
2495.56237	1.04521
2493.63381	1.04533
2491.70524	1.04467
2489.77668	1.04319
2487.84811	1.04140
2485.91955	1.03990
2483.99098	1.03887
2482.06242	1.03778
2480.13386	1.03648
2478.20529	1.03546
2476.27673	1.03438
2474.34816	1.03246
2472.41960	1.03054
2470.49103	1.03001
2468.56247	1.03025
2466.63391	1.02988
2464.70534	1.02928
2462.77678	1.02915
2460.84821	1.02886
2458.91965	1.02811
2456.99108	1.02770
2455.06252	1.02748
2453.13395	1.02650
2451.20539	1.02505
2449.27683	1.02373
2447.34826	1.02248
2445.41970	1.02135
2443.49113	1.02021
2441.56257	1.01883
2439.63400	1.01738
2437.70544	1.01605
2435.77687	1.01523
2433.84831	1.01473
2431.91975	1.01364
2429.99118	1.01219
2428.06262	1.01147
2426.13405	1.01137
2424.20549	1.01085
2422.27692	1.01016
2420.34836	1.01041
2418.41979	1.01109
2416.49123	1.01092
2414.56267	1.01005
2412.63410	1.00899
2410.70554	1.00773
2408.77697	1.00649
2406.84841	1.00535
2404.91984	1.00409
2402.99128	1.00298
2401.06271	1.00221
2399.13415	1.00149
2397.20559	1.00087
2395.27702	1.00034
2393.34846	0.99967
2391.41989	0.99912
2389.49133	0.99926
2387.56276	1.00017
2385.63420	1.00123
2383.70563	1.00203
2381.77707	1.00277
2379.84851	1.00366
2377.91994	1.00425
2375.99138	1.00446
2374.06281	1.00586
2372.13425	1.00850
2370.20568	1.00890
2368.27712	1.00649
2366.34855	1.00658
2364.41999	1.01318
2362.49143	1.01925
2360.56286	1.01473
2358.63430	1.00597
2356.70573	1.00130
2354.77717	1.00046
2352.84860	1.00110
2350.92004	0.99999
2348.99147	0.99751
2347.06291	0.99520
2345.13435	0.99380
2343.20578	0.99426
2341.27722	0.99576
2339.34865	0.99559
2337.42009	0.99415
2335.49152	0.99361
2333.56296	0.99357
2331.63440	0.99247
2329.70583	0.98996
2327.77727	0.98662
2325.84870	0.98367
2323.92014	0.98253
2321.99157	0.98301
2320.06301	0.98254
2318.13444	0.98029
2316.20588	0.97817
2314.27732	0.97664
2312.34875	0.97493
2310.42019	0.97332
2308.49162	0.97218
2306.56306	0.97114
2304.63449	0.96992
2302.70593	0.96876
2300.77736	0.96784
2298.84880	0.96664
2296.92024	0.96472
2294.99167	0.96273
2293.06311	0.96139
2291.13454	0.96013
2289.20598	0.95814
2287.27741	0.95598
2285.34885	0.95462
2283.42028	0.95406
2281.49172	0.95378
2279.56316	0.95364
2277.63459	0.95368
2275.70603	0.95378
2273.77746	0.95390
2271.84890	0.95392
2269.92033	0.95382
2267.99177	0.95368
2266.06320	0.95336
2264.13464	0.95280
2262.20608	0.95235
2260.27751	0.95207
2258.34895	0.95139
2256.42038	0.95029
2254.49182	0.94947
2252.56325	0.94885
2250.63469	0.94794
2248.70612	0.94703
2246.77756	0.94637
2244.84900	0.94567
2242.92043	0.94478
2240.99187	0.94390
2239.06330	0.94335
2237.13474	0.94298
2235.20617	0.94251
2233.27761	0.94217
2231.34904	0.94225
2229.42048	0.94247
2227.49192	0.94258
2225.56335	0.94249
2223.63479	0.94210
2221.70622	0.94165
2219.77766	0.94132
2217.84909	0.94071
2215.92053	0.93975
2213.99196	0.93881
2212.06340	0.93785
2210.13484	0.93682
2208.20627	0.93595
2206.27771	0.93544
2204.34914	0.93524
2202.42058	0.93491
2200.49201	0.93439
2198.56345	0.93416
2196.63488	0.93436
2194.70632	0.93465
2192.77776	0.93471
2190.84919	0.93454
2188.92063	0.93426
2186.99206	0.93389
2185.06350	0.93347
2183.13493	0.93286
2181.20637	0.93195
2179.27781	0.93112
2177.34924	0.93053
2175.42068	0.92976
2173.49211	0.92855
2171.56355	0.92722
2169.63498	0.92607
2167.70642	0.92515
2165.77785	0.92451
2163.84929	0.92396
2161.92073	0.92343
2159.99216	0.92303
2158.06360	0.92254
2156.13503	0.92188
2154.20647	0.92132
2152.27790	0.92101
2150.34934	0.92062
2148.42077	0.91992
2146.49221	0.91890
2144.56365	0.91757
2142.63508	0.91619
2140.70652	0.91515
2138.77795	0.91444
2136.84939	0.91373
2134.92082	0.91295
2132.99226	0.91205
2131.06369	0.91076
2129.13513	0.90915
2127.20657	0.90793
2125.27800	0.90748
2123.34944	0.90715
2121.42087	0.90643
2119.49231	0.90564
2117.56374	0.90501
2115.63518	0.90445
2113.70661	0.90396
2111.77805	0.90328
2109.84949	0.90230
2107.92092	0.90119
2105.99236	0.89990
2104.06379	0.89838
2102.13523	0.89680
2100.20666	0.89518
2098.27810	0.89366
2096.34953	0.89246
2094.42097	0.89141
2092.49241	0.89045
2090.56384	0.88954
2088.63528	0.88835
2086.70671	0.88710
2084.77815	0.88626
2082.84958	0.88565
2080.92102	0.88526
2078.99245	0.88513
2077.06389	0.88485
2075.13533	0.88430
2073.20676	0.88369
2071.27820	0.88299
2069.34963	0.88232
2067.42107	0.88168
2065.49250	0.88047
2063.56394	0.87859
2061.63537	0.87692
2059.70681	0.87596
2057.77825	0.87525
2055.84968	0.87425
2053.92112	0.87301
2051.99255	0.87190
2050.06399	0.87114
2048.13542	0.87077
2046.20686	0.87069
2044.27830	0.87054
2042.34973	0.87016
2040.42117	0.86986
2038.49260	0.86977
2036.56404	0.86953
2034.63547	0.86873
2032.70691	0.86766
2030.77834	0.86700
2028.84978	0.86643
2026.92122	0.86528
2024.99265	0.86385
2023.06409	0.86271
2021.13552	0.86192
2019.20696	0.86122
2017.27839	0.86028
2015.34983	0.85928
2013.42126	0.85851
2011.49270	0.85785
2009.56414	0.85717
2007.63557	0.85654
2005.70701	0.85614
2003.77844	0.85592
2001.84988	0.85554
1999.92131	0.85482
1997.99275	0.85388
1996.06418	0.85313
1994.13562	0.85283
1992.20706	0.85225
1990.27849	0.85075
1988.34993	0.84890
1986.42136	0.84750
1984.49280	0.84678
1982.56423	0.84620
1980.63567	0.84546
1978.70710	0.84486
1976.77854	0.84466
1974.84998	0.84472
1972.92141	0.84475
1970.99285	0.84485
1969.06428	0.84502
1967.13572	0.84452
1965.20715	0.84316
1963.27859	0.84192
1961.35002	0.84108
1959.42146	0.84004
1957.49290	0.83894
1955.56433	0.83795
1953.63577	0.83673
1951.70720	0.83530
1949.77864	0.83404
1947.85007	0.83323
1945.92151	0.83309
1943.99294	0.83311
1942.06438	0.83203
1940.13582	0.83042
1938.20725	0.82957
1936.27869	0.82912
1934.35012	0.82864
1932.42156	0.82821
1930.49299	0.82781
1928.56443	0.82728
1926.63586	0.82683
1924.70730	0.82669
1922.77874	0.82635
1920.85017	0.82570
1918.92161	0.82494
1916.99304	0.82356
1915.06448	0.82197
1913.13591	0.82103
1911.20735	0.82061
1909.27878	0.82005
1907.35022	0.81913
1905.42166	0.81819
1903.49309	0.81736
1901.56453	0.81656
1899.63596	0.81589
1897.70740	0.81555
1895.77883	0.81516
1893.85027	0.81437
1891.92171	0.81358
1889.99314	0.81247
1888.06458	0.81064
1886.13601	0.80897
1884.20745	0.80751
1882.27888	0.80605
1880.35032	0.80480
1878.42175	0.80352
1876.49319	0.80223
1874.56463	0.80143
1872.63606	0.80165
1870.70750	0.80273
1868.77893	0.80300
1866.85037	0.80091
1864.92180	0.79840
1862.99324	0.79701
1861.06467	0.79656
1859.13611	0.79625
1857.20755	0.79563
1855.27898	0.79505
1853.35042	0.79468
1851.42185	0.79449
1849.49329	0.79468
1847.56472	0.79529
1845.63616	0.79568
1843.70759	0.79441
1841.77903	0.79264
1839.85047	0.79204
1837.92190	0.79188
1835.99334	0.79154
1834.06477	0.79185
1832.13621	0.79345
1830.20764	0.79492
1828.27908	0.79476
1826.35051	0.79413
1824.42195	0.79337
1822.49339	0.79242
1820.56482	0.79181
1818.63626	0.79147
1816.70769	0.79101
1814.77913	0.79102
1812.85056	0.79182
1810.92200	0.79220
1808.99343	0.79153
1807.06487	0.79091
1805.13631	0.79126
1803.20774	0.79269
1801.27918	0.79418
1799.35061	0.79464
1797.42205	0.79529
1795.49348	0.79720
1793.56492	0.79935
1791.63635	0.79930
1789.70779	0.79774
1787.77923	0.79761
1785.85066	0.79880
1783.92210	0.80025
1781.99353	0.80146
1780.06497	0.80228
1778.13640	0.80325
1776.20784	0.80520
1774.27927	0.80787
1772.35071	0.80931
1770.42215	0.80859
1768.49358	0.80795
1766.56502	0.80840
1764.63645	0.81030
1762.70789	0.81316
1760.77932	0.81584
1758.85076	0.81838
1756.92220	0.82146
1754.99363	0.82517
1753.06507	0.83029
1751.13650	0.83783
1749.20794	0.84566
1747.27937	0.85099
1745.35081	0.85550
1743.42224	0.86020
1741.49368	0.86474
1739.56512	0.86922
1737.63655	0.87354
1735.70799	0.87809
1733.77942	0.88343
1731.85086	0.88700
1729.92229	0.88952
1727.99373	0.89298
1726.06516	0.89820
1724.13660	0.90547
1722.20804	0.91335
1720.27947	0.92167
1718.35091	0.93329
1716.42234	0.94681
1714.49378	0.95480
1712.56521	0.96153
1710.63665	0.97048
1708.70808	0.98203
1706.77952	0.99853
1704.85096	1.01905
1702.92239	1.03776
1700.99383	1.06435
1699.06526	1.10637
1697.13670	1.14626
1695.20813	1.18371
1693.27957	1.21250
1691.35100	1.23844
1689.42244	1.27033
1687.49388	1.29946
1685.56531	1.32885
1683.63675	1.37463
1681.70818	1.40813
1679.77962	1.42767
1677.85105	1.44630
1675.92249	1.46882
1673.99392	1.49394
1672.06536	1.51486
1670.13680	1.53561
1668.20823	1.55527
1666.27967	1.56812
1664.35110	1.58171
1662.42254	1.59806
1660.49397	1.60872
1658.56541	1.61459
1656.63684	1.62019
1654.70828	1.62723
1652.77972	1.62892
1650.85115	1.62491
1648.92259	1.62375
1646.99402	1.61994
1645.06546	1.61358
1643.13689	1.60939
1641.20833	1.60703
1639.27976	1.60662
1637.35120	1.60696
1635.42264	1.60297
1633.49407	1.59825
1631.56551	1.59664
1629.63694	1.59406
1627.70838	1.58816
1625.77981	1.57959
1623.85125	1.56786
1621.92269	1.55392
1619.99412	1.54242
1618.06556	1.52717
1616.13699	1.49983
1614.20843	1.47612
1612.27986	1.45918
1610.35130	1.44208
1608.42273	1.42426
1606.49417	1.40849
1604.56561	1.39602
1602.63704	1.38567
1600.70848	1.37808
1598.77991	1.37401
1596.85135	1.37188
1594.92278	1.37033
1592.99422	1.37006
1591.06565	1.37230
1589.13709	1.37718
1587.20853	1.38405
1585.27996	1.39236
1583.35140	1.40227
1581.42283	1.41309
1579.49427	1.42393
1577.56570	1.43736
1575.63714	1.45375
1573.70857	1.46403
1571.78001	1.47174
1569.85145	1.48287
1567.92288	1.49432
1565.99432	1.50326
1564.06575	1.51301
1562.13719	1.52340
1560.20862	1.53594
1558.28006	1.54941
1556.35149	1.55280
1554.42293	1.55544
1552.49437	1.55783
1550.56580	1.55875
1548.63724	1.55835
1546.70867	1.55807
1544.78011	1.55764
1542.85154	1.55616
1540.92298	1.55197
1538.99441	1.53895
1537.06585	1.52998
1535.13729	1.52378
1533.20872	1.51548
1531.28016	1.50820
1529.35159	1.50427
1527.42303	1.50027
1525.49446	1.49512
1523.56590	1.49075
1521.63733	1.48508
1519.70877	1.48018
1517.78021	1.47467
1515.85164	1.46324
1513.92308	1.45025
1511.99451	1.43912
1510.06595	1.42976
1508.13738	1.41244
1506.20882	1.37213
1504.28025	1.34927
1502.35169	1.33748
1500.42313	1.32466
1498.49456	1.30734
1496.56600	1.28534
1494.63743	1.26846
1492.70887	1.25859
1490.78030	1.24818
1488.85174	1.23176
1486.92317	1.21646
1484.99461	1.20683
1483.06605	1.20118
1481.13748	1.19862
1479.20892	1.19975
1477.28035	1.20577
1475.35179	1.21700
1473.42322	1.23225
1471.49466	1.24539
1469.56610	1.25294
1467.63753	1.25929
1465.70897	1.26640
1463.78040	1.27245
1461.85184	1.27610
1459.92327	1.27948
1457.99471	1.28441
1456.06614	1.28734
1454.13758	1.28689
1452.20902	1.28621
1450.28045	1.28547
1448.35189	1.28356
1446.42332	1.27994
1444.49476	1.27633
1442.56619	1.27314
1440.63763	1.27045
1438.70906	1.26827
1436.78050	1.26309
1434.85194	1.25384
1432.92337	1.24606
1430.99481	1.23904
1429.06624	1.23116
1427.13768	1.22550
1425.20911	1.22363
1423.28055	1.22419
1421.35198	1.22596
1419.42342	1.22873
1417.49486	1.23018
1415.56629	1.22968
1413.63773	1.22953
1411.70916	1.22994
1409.78060	1.23043
1407.85203	1.23164
1405.92347	1.23416
1403.99490	1.23673
1402.06634	1.23829
1400.13778	1.23956
1398.20921	1.24071
1396.28065	1.24055
1394.35208	1.23823
1392.42352	1.23656
1390.49495	1.23787
1388.56639	1.24272
1386.63782	1.25046
1384.70926	1.25779
1382.78070	1.26385
1380.85213	1.26848
1378.92357	1.27022
1376.99500	1.26852
1375.06644	1.26200
1373.13787	1.25045
1371.20931	1.23868
1369.28074	1.22725
1367.35218	1.21516
1365.42362	1.20476
1363.49505	1.19593
1361.56649	1.18711
1359.63792	1.17985
1357.70936	1.17536
1355.78079	1.17292
1353.85223	1.17126
1351.92366	1.16958
1349.99510	1.16772
1348.06654	1.16587
1346.13797	1.16427
1344.20941	1.16330
1342.28084	1.16351
1340.35228	1.16469
1338.42371	1.16548
1336.49515	1.16646
1334.56659	1.16914
1332.63802	1.17335
1330.70946	1.17849
1328.78089	1.18378
1326.85233	1.18798
1324.92376	1.19040
1322.99520	1.19209
1321.06663	1.19434
1319.13807	1.19639
1317.20951	1.19681
1315.28094	1.19606
1313.35238	1.19498
1311.42381	1.19365
1309.49525	1.19205
1307.56668	1.18997
1305.63812	1.18745
1303.70955	1.18508
1301.78099	1.18338
1299.85243	1.18218
1297.92386	1.18088
1295.99530	1.17963
1294.06673	1.17906
1292.13817	1.17937
1290.20960	1.18069
1288.28104	1.18255
1286.35247	1.18409
1284.42391	1.18515
1282.49535	1.18602
1280.56678	1.18655
1278.63822	1.18670
1276.70965	1.18731
1274.78109	1.18890
1272.85252	1.19121
1270.92396	1.19433
1268.99539	1.19827
1267.06683	1.20212
1265.13827	1.20529
1263.20970	1.20788
1261.28114	1.20987
1259.35257	1.21146
1257.42401	1.21290
1255.49544	1.21437
1253.56688	1.21616
1251.63831	1.21816
1249.70975	1.21989
1247.78119	1.22091
1245.85262	1.22099
1243.92406	1.22021
1241.99549	1.21890
1240.06693	1.21702
1238.13836	1.21416
1236.20980	1.21031
1234.28123	1.20581
1232.35267	1.20082
1230.42411	1.19535
1228.49554	1.18952
1226.56698	1.18338
1224.63841	1.17695
1222.70985	1.17068
1220.78128	1.16527
1218.85272	1.16109
1216.92415	1.15812
1214.99559	1.15639
1213.06703	1.15619
1211.13846	1.15804
1209.20990	1.16120
1207.28133	1.16321
1205.35277	1.16238
1203.42420	1.15896
1201.49564	1.15362
1199.56708	1.14705
1197.63851	1.14026
1195.70995	1.13358
1193.78138	1.12708
1191.85282	1.12174
1189.92425	1.11832
1187.99569	1.11658
1186.06712	1.11593
1184.13856	1.11609
1182.21000	1.11745
1180.28143	1.12045
1178.35287	1.12483
1176.42430	1.12983
1174.49574	1.13450
1172.56717	1.13863
1170.63861	1.14353
1168.71004	1.15106
1166.78148	1.16184
1164.85292	1.17513
1162.92435	1.18917
1160.99579	1.20154
1159.06722	1.20954
1157.13866	1.21092
1155.21009	1.20536
1153.28153	1.19481
1151.35296	1.18139
1149.42440	1.16647
1147.49584	1.15196
1145.56727	1.13988
1143.63871	1.13114
1141.71014	1.12625
1139.78158	1.12521
1137.85301	1.12693
1135.92445	1.13058
1133.99588	1.13620
1132.06732	1.14359
1130.13876	1.15249
1128.21019	1.16276
1126.28163	1.17336
1124.35306	1.18325
1122.42450	1.19259
1120.49593	1.20129
1118.56737	1.20793
1116.63880	1.21135
1114.71024	1.21235
1112.78168	1.21179
1110.85311	1.20879
1108.92455	1.20372
1106.99598	1.19861
1105.06742	1.19395
1103.13885	1.18953
1101.21029	1.18613
1099.28172	1.18466
1097.35316	1.18596
1095.42460	1.19020
1093.49603	1.19598
1091.56747	1.20215
1089.63890	1.20967
1087.71034	1.22063
1085.78177	1.23545
1083.85321	1.25155
1081.92464	1.26576
1079.99608	1.27754
1078.06752	1.28635
1076.13895	1.29036
1074.21039	1.28954
1072.28182	1.28444
1070.35326	1.27496
1068.42469	1.26258
1066.49613	1.25042
1064.56756	1.24047
1062.63900	1.23237
1060.71044	1.22467
1058.78187	1.21620
1056.85331	1.20721
1054.92474	1.19883
1052.99618	1.19174
1051.06761	1.18655
1049.13905	1.18382
1047.21049	1.18363
1045.28192	1.18609
1043.35336	1.19119
1041.42479	1.19803
1039.49623	1.20493
1037.56766	1.21045
1035.63910	1.21439
1033.71053	1.21704
1031.78197	1.21789
1029.85341	1.21685
1027.92484	1.21434
1025.99628	1.21012
1024.06771	1.20443
1022.13915	1.19837
1020.21058	1.19281
1018.28202	1.18769
1016.35345	1.18158
1014.42489	1.17198
1012.49633	1.15776
1010.56776	1.14041
1008.63920	1.12218
1006.71063	1.10486
1004.78207	1.08959
1002.85350	1.07658
1000.92494	1.06619
998.99637	1.05897
997.06781	1.05427
995.13925	1.05067
993.21068	1.04767
991.28212	1.04508
989.35355	1.04232
987.42499	1.03941
985.49642	1.03693
983.56786	1.03517
981.63929	1.03487
979.71073	1.03640
977.78217	1.03810
975.85360	1.03786
973.92504	1.03485
971.99647	1.02936
970.06791	1.02196
968.13934	1.01334
966.21078	1.00499
964.28221	0.99885
962.35365	0.99665
960.42509	0.99944
958.49652	1.00635
956.56796	1.01378
954.63939	1.01777
952.71083	1.01671
950.78226	1.01177
948.85370	1.00592
946.92513	1.00121
944.99657	0.99797
943.06801	0.99620
941.13944	0.99507
939.21088	0.99349
937.28231	0.99166
935.35375	0.99046
933.42518	0.98951
931.49662	0.98799
929.56805	0.98620
927.63949	0.98495
925.71093	0.98451
923.78236	0.98474
921.85380	0.98523
919.92523	0.98534
917.99667	0.98493
916.06810	0.98453
914.13954	0.98448
912.21098	0.98503
910.28241	0.98643
908.35385	0.98843
906.42528	0.99071
904.49672	0.99314
902.56815	0.99562
900.63959	0.99765
898.71102	0.99884
896.78246	0.99934
894.85390	0.99916
892.92533	0.99791
890.99677	0.99548
889.06820	0.99248
887.13964	0.99002
885.21107	0.98877
883.28251	0.98848
881.35394	0.98861
879.42538	0.98884
877.49682	0.98894
875.56825	0.98899
873.63969	0.98939
871.71112	0.99014
869.78256	0.99018
867.85399	0.98899
865.92543	0.98783
863.99686	0.98765
862.06830	0.98769
860.13974	0.98757
858.21117	0.98811
856.28261	0.98976
854.35404	0.99173
852.42548	0.99321
850.49691	0.99420
848.56835	0.99494
846.63978	0.99596
844.71122	0.99810
842.78266	1.00079
840.85409	1.00264
838.92553	1.00387
836.99696	1.00552
835.06840	1.00726
833.13983	1.00834
831.21127	1.00890
829.28270	1.00920
827.35414	1.00925
825.42558	1.00904
823.49701	1.00876
821.56845	1.00855
819.63988	1.00868
817.71132	1.00965
815.78275	1.01093
813.85419	1.01197
811.92562	1.01380
809.99706	1.01622
808.06850	1.01745
806.13993	1.01779
804.21137	1.01877
802.28280	1.01999
800.35424	1.02053
798.42567	1.02047
796.49711	1.01989
794.56854	1.01905
792.63998	1.01857
790.71142	1.01842
788.78285	1.01817
786.85429	1.01789
784.92572	1.01794
782.99716	1.01836
781.06859	1.01925
779.14003	1.02105
777.21147	1.02375
775.28290	1.02645
773.35434	1.02854
771.42577	1.03074
769.49721	1.03382
767.56864	1.03697
765.64008	1.03958
763.71151	1.04192
761.78295	1.04369
759.85439	1.04482
757.92582	1.04598
755.99726	1.04688
754.06869	1.04700
752.14013	1.04681
750.21156	1.04629
748.28300	1.04534
746.35443	1.04521
744.42587	1.04594
742.49731	1.04607
740.56874	1.04568
738.64018	1.04595
736.71161	1.04747
734.78305	1.04945
732.85448	1.05127
730.92592	1.05379
728.99735	1.05701
727.06879	1.05978
725.14023	1.06177
723.21166	1.06375
721.28310	1.06592
719.35453	1.06696
717.42597	1.06632
715.49740	1.06489
713.56884	1.06346
711.64027	1.06268
709.71171	1.06318
707.78315	1.06519
705.85458	1.06791
703.92602	1.07002
701.99745	1.07063
700.06889	1.07010
698.14032	1.07015
696.21176	1.07158
694.28319	1.07297
692.35463	1.07372
690.42607	1.07487
688.49750	1.07584
686.56894	1.07473
684.64037	1.07217
682.71181	1.06986
680.78324	1.06795
678.85468	1.06599
676.92611	1.06349
674.99755	1.06042
673.06899	1.05807
671.14042	1.05681
669.21186	1.05363
667.28329	1.04777
665.35473	1.04620
663.42616	1.04706
661.49760	1.04713
659.56903	1.04543
657.64047	1.04292
655.71191	1.04213
653.78334	1.04412
651.85478	1.04616
649.92621	1.04631
647.99765	1.04584
646.06908	1.04596
644.14052	1.04693
642.21195	1.04911
640.28339	1.05204
638.35483	1.05405
636.42626	1.05452
634.49770	1.05408
632.56913	1.05198
630.64057	1.04759
628.71200	1.04315
626.78344	1.04028
624.85488	1.03778
622.92631	1.03569
620.99775	1.03485
619.06918	1.03403
617.14062	1.03209
615.21205	1.02919
613.28349	1.02622
611.35492	1.02421
609.42636	1.02328
607.49780	1.02347
605.56923	1.02418
603.64067	1.02392
601.71210	1.02358
599.78354	1.02493
