3997.91406	1.04714
3995.98550	1.04399
3994.05693	1.04186
3992.12837	1.04252
3990.19980	1.04344
3988.27124	1.04370
3986.34268	1.04381
3984.41411	1.04275
3982.48555	1.03976
3980.55698	1.03545
3978.62842	1.03232
3976.69985	1.03215
3974.77129	1.03397
3972.84272	1.03562
3970.91416	1.03510
3968.98560	1.03330
3967.05703	1.03261
3965.12847	1.03381
3963.19990	1.03579
3961.27134	1.03632
3959.34277	1.03558
3957.41421	1.03487
3955.48564	1.03384
3953.55708	1.03294
3951.62852	1.03345
3949.69995	1.03431
3947.77139	1.03214
3945.84282	1.02780
3943.91426	1.02466
3941.98569	1.02350
3940.05713	1.02323
3938.12856	1.02295
3936.20000	1.02298
3934.27144	1.02268
3932.34287	1.02086
3930.41431	1.01874
3928.48574	1.01737
3926.55718	1.01623
3924.62861	1.01603
3922.70005	1.01864
3920.77148	1.02305
3918.84292	1.02469
3916.91436	1.02091
3914.98579	1.01682
3913.05723	1.01565
3911.12866	1.01537
3909.20010	1.01662
3907.27153	1.02157
3905.34297	1.02732
3903.41440	1.02803
3901.48584	1.02360
3899.55728	1.01739
3897.62871	1.01583
3895.70015	1.02056
3893.77158	1.02528
3891.84302	1.02293
3889.91445	1.01761
3887.98589	1.01734
3886.05733	1.01838
3884.12876	1.01486
3882.20020	1.01037
3880.27163	1.00871
3878.34307	1.00833
3876.41450	1.00796
3874.48594	1.00980
3872.55737	1.01485
3870.62881	1.01704
3868.70025	1.01408
3866.77168	1.01370
3864.84312	1.01477
3862.91455	1.01116
3860.98599	1.00711
3859.05742	1.00687
3857.12886	1.00881
3855.20029	1.00912
3853.27173	1.00458
3851.34317	1.00266
3849.41460	1.00228
3847.48604	1.00127
3845.55747	1.00109
3843.62891	1.00284
3841.70034	1.00710
3839.77178	1.01003
3837.84321	1.00561
3835.91465	1.00093
3833.98609	1.00022
3832.05752	0.99870
3830.12896	0.99675
3828.20039	0.99651
3826.27183	0.99661
3824.34326	0.99793
3822.41470	1.00190
3820.48613	1.00336
3818.55757	0.99824
3816.62901	0.99025
3814.70044	0.98594
3812.77188	0.98712
3810.84331	0.98933
3808.91475	0.99110
3806.98618	0.99160
3805.05762	0.99065
3803.12905	0.98842
3801.20049	0.98530
3799.27193	0.98469
3797.34336	0.98403
3795.41480	0.98203
3793.48623	0.98155
3791.55767	0.98156
3789.62910	0.98070
3787.70054	0.98089
3785.77197	0.98130
3783.84341	0.97964
3781.91485	0.97932
3779.98628	0.98124
3778.05772	0.98001
3776.12915	0.97609
3774.20059	0.97453
3772.27202	0.97580
3770.34346	0.97761
3768.41489	0.97977
3766.48633	0.98138
3764.55777	0.97977
3762.62920	0.97752
3760.70064	0.97735
3758.77207	0.97737
3756.84351	0.97677
3754.91494	0.97745
3752.98638	0.97921
3751.05781	0.97956
3749.12925	0.97876
3747.20069	0.97934
3745.27212	0.97621
3743.34356	0.97004
3741.41499	0.97085
3739.48643	0.97671
3737.55786	0.98258
3735.62930	0.98193
3733.70074	0.97292
3731.77217	0.96662
3729.84361	0.96702
3727.91504	0.97036
3725.98648	0.97175
3724.05791	0.97128
3722.12935	0.97111
3720.20078	0.97033
3718.27222	0.97151
3716.34366	0.97559
3714.41509	0.98107
3712.48653	0.98627
3710.55796	0.98294
3708.62940	0.97384
3706.70083	0.96924
3704.77227	0.96850
3702.84370	0.96798
3700.91514	0.96514
3698.98658	0.96263
3697.05801	0.96232
3695.12945	0.96314
3693.20088	0.96654
3691.27232	0.97392
3689.34375	0.97795
3687.41519	0.97511
3685.48662	0.97319
3683.55806	0.97363
3681.62950	0.97688
3679.70093	0.98277
3677.77237	0.98805
3675.84380	0.98749
3673.91524	0.98700
3671.98667	0.99353
3670.05811	1.00065
3668.12954	1.00072
3666.20098	1.00026
3664.27242	1.00330
3662.34385	1.00691
3660.41529	1.00864
3658.48672	1.01106
3656.55816	1.01786
3654.62959	1.02751
3652.70103	1.03739
3650.77246	1.04737
3648.84390	1.05315
3646.91534	1.05360
3644.98677	1.05403
3643.05821	1.05655
3641.12964	1.06079
3639.20108	1.06514
3637.27251	1.06954
3635.34395	1.07408
3633.41538	1.08001
3631.48682	1.08916
3629.55826	1.09860
3627.62969	1.10026
3625.70113	1.10189
3623.77256	1.10872
3621.84400	1.11639
3619.91543	1.12023
3617.98687	1.12324
3616.05830	1.13005
3614.12974	1.13641
3612.20118	1.13941
3610.27261	1.14210
3608.34405	1.14589
3606.41548	1.14853
3604.48692	1.15063
3602.55835	1.15562
3600.62979	1.16254
3598.70123	1.16672
3596.77266	1.17057
3594.84410	1.17886
3592.91553	1.18831
3590.98697	1.19431
3589.05840	1.19775
3587.12984	1.19932
3585.20127	1.20143
3583.27271	1.20572
3581.34415	1.21029
3579.41558	1.21539
3577.48702	1.22343
3575.55845	1.23235
3573.62989	1.23707
3571.70132	1.23981
3569.77276	1.24693
3567.84419	1.25861
3565.91563	1.26550
3563.98707	1.26620
3562.05850	1.26767
3560.12994	1.27096
3558.20137	1.27397
3556.27281	1.27695
3554.34424	1.28113
3552.41568	1.28471
3550.48711	1.28962
3548.55855	1.29936
3546.62999	1.30819
3544.70142	1.31056
3542.77286	1.31191
3540.84429	1.31568
3538.91573	1.32009
3536.98716	1.32374
3535.05860	1.32778
3533.13003	1.33451
3531.20147	1.34630
3529.27291	1.36266
3527.34434	1.37324
3525.41578	1.37085
3523.48721	1.36486
3521.55865	1.36397
3519.63008	1.36676
3517.70152	1.37147
3515.77295	1.37939
3513.84439	1.38906
3511.91583	1.39685
3509.98726	1.40212
3508.05870	1.40366
3506.13013	1.40314
3504.20157	1.40886
3502.27300	1.42070
3500.34444	1.42791
3498.41587	1.42953
3496.48731	1.43139
3494.55875	1.43511
3492.63018	1.43905
3490.70162	1.44317
3488.77305	1.44857
3486.84449	1.45521
3484.91592	1.46263
3482.98736	1.47056
3481.05879	1.47398
3479.13023	1.46970
3477.20167	1.46669
3475.27310	1.47034
3473.34454	1.47571
3471.41597	1.48076
3469.48741	1.48687
3467.55884	1.49044
3465.63028	1.48806
3463.70171	1.48376
3461.77315	1.48508
3459.84459	1.49264
3457.91602	1.49975
3455.98746	1.50250
3454.05889	1.50068
3452.13033	1.49779
3450.20176	1.49784
3448.27320	1.49828
3446.34464	1.49950
3444.41607	1.50779
3442.48751	1.52067
3440.55894	1.52756
3438.63038	1.52335
3436.70181	1.51537
3434.77325	1.51385
3432.84468	1.51886
3430.91612	1.52269
3428.98756	1.52179
3427.05899	1.51790
3425.13043	1.51427
3423.20186	1.51450
3421.27330	1.51830
3419.34473	1.52239
3417.41617	1.52550
3415.48760	1.52582
3413.55904	1.52269
3411.63048	1.52258
3409.70191	1.52718
3407.77335	1.52862
3405.84478	1.52621
3403.91622	1.52484
3401.98765	1.52576
3400.05909	1.52925
3398.13052	1.53513
3396.20196	1.54195
3394.27340	1.54388
3392.34483	1.53752
3390.41627	1.53123
3388.48770	1.53219
3386.55914	1.53738
3384.63057	1.54023
3382.70201	1.53919
3380.77344	1.53869
3378.84488	1.53944
3376.91632	1.53797
3374.98775	1.53502
3373.05919	1.53452
3371.13062	1.53762
3369.20206	1.53890
3367.27349	1.53424
3365.34493	1.53127
3363.41636	1.53636
3361.48780	1.54356
3359.55924	1.54621
3357.63067	1.54520
3355.70211	1.54519
3353.77354	1.54808
3351.84498	1.55223
3349.91641	1.55547
3347.98785	1.55460
3346.05928	1.54962
3344.13072	1.54547
3342.20216	1.54399
3340.27359	1.54396
3338.34503	1.54546
3336.41646	1.54845
3334.48790	1.55170
3332.55933	1.55400
3330.63077	1.55552
3328.70220	1.55603
3326.77364	1.55465
3324.84508	1.55443
3322.91651	1.55790
3320.98795	1.56100
3319.05938	1.56086
3317.13082	1.56009
3315.20225	1.56209
3313.27369	1.56898
3311.34513	1.57780
3309.41656	1.58298
3307.48800	1.58715
3305.55943	1.59402
3303.63087	1.59822
3301.70230	1.59722
3299.77374	1.59651
3297.84517	1.60035
3295.91661	1.60672
3293.98805	1.60783
3292.05948	1.60354
3290.13092	1.60230
3288.20235	1.60228
3286.27379	1.59819
3284.34522	1.59460
3282.41666	1.59547
3280.48809	1.60000
3278.55953	1.60566
3276.63097	1.60534
3274.70240	1.59446
3272.77384	1.58099
3270.84527	1.57391
3268.91671	1.57260
3266.98814	1.57569
3265.05958	1.58189
3263.13101	1.58639
3261.20245	1.58709
3259.27389	1.58366
3257.34532	1.57949
3255.41676	1.57916
3253.48819	1.57873
3251.55963	1.57494
3249.63106	1.56830
3247.70250	1.55843
3245.77393	1.54876
3243.84537	1.54179
3241.91681	1.53772
3239.98824	1.53709
3238.05968	1.53537
3236.13111	1.52973
3234.20255	1.52439
3232.27398	1.52059
3230.34542	1.51833
3228.41685	1.51711
3226.48829	1.51223
3224.55973	1.50461
3222.63116	1.49959
3220.70260	1.49707
3218.77403	1.49239
3216.84547	1.48526
3214.91690	1.48145
3212.98834	1.47977
3211.05977	1.47599
3209.13121	1.47303
3207.20265	1.47068
3205.27408	1.46767
3203.34552	1.46780
3201.41695	1.46848
3199.48839	1.46439
3197.55982	1.45805
3195.63126	1.45139
3193.70269	1.44521
3191.77413	1.44229
3189.84557	1.43940
3187.91700	1.43328
3185.98844	1.42734
3184.05987	1.42332
3182.13131	1.41943
3180.20274	1.41421
3178.27418	1.40861
3176.34562	1.40466
3174.41705	1.40119
3172.48849	1.39688
3170.55992	1.39335
3168.63136	1.39174
3166.70279	1.38917
3164.77423	1.38159
3162.84566	1.37161
3160.91710	1.36629
3158.98854	1.36715
3157.05997	1.36878
3155.13141	1.36641
3153.20284	1.36144
3151.27428	1.35752
3149.34571	1.35589
3147.41715	1.35544
3145.48858	1.35358
3143.56002	1.34941
3141.63146	1.34594
3139.70289	1.34613
3137.77433	1.34763
3135.84576	1.34627
3133.91720	1.34315
3131.98863	1.34102
3130.06007	1.33981
3128.13150	1.34052
3126.20294	1.34406
3124.27438	1.34736
3122.34581	1.34655
3120.41725	1.34243
3118.48868	1.33880
3116.56012	1.33680
3114.63155	1.33554
3112.70299	1.33444
3110.77442	1.33363
3108.84586	1.33387
3106.91730	1.33508
3104.98873	1.33658
3103.06017	1.33767
3101.13160	1.33673
3099.20304	1.33446
3097.27447	1.33349
3095.34591	1.33258
3093.41734	1.33047
3091.48878	1.32954
3089.56022	1.32916
3087.63165	1.32734
3085.70309	1.32538
3083.77452	1.32340
3081.84596	1.32037
3079.91739	1.31754
3077.98883	1.31610
3076.06026	1.31468
3074.13170	1.31154
3072.20314	1.30774
3070.27457	1.30525
3068.34601	1.30407
3066.41744	1.30242
3064.48888	1.29848
3062.56031	1.29246
3060.63175	1.28649
3058.70318	1.28189
3056.77462	1.27756
3054.84606	1.27258
3052.91749	1.26781
3050.98893	1.26387
3049.06036	1.26022
3047.13180	1.25624
3045.20323	1.25176
3043.27467	1.24667
3041.34610	1.24281
3039.41754	1.24172
3037.48898	1.24001
3035.56041	1.23485
3033.63185	1.22904
3031.70328	1.22517
3029.77472	1.22166
3027.84615	1.21763
3025.91759	1.21416
3023.98903	1.21074
3022.06046	1.20712
3020.13190	1.20400
3018.20333	1.20038
3016.27477	1.19670
3014.34620	1.19500
3012.41764	1.19396
3010.48907	1.19099
3008.56051	1.18688
3006.63195	1.18331
3004.70338	1.18109
3002.77482	1.18082
3000.84625	1.18203
2998.91769	1.18380
2996.98912	1.18547
2995.06056	1.18633
2993.13199	1.18721
2991.20343	1.18966
2989.27487	1.19324
2987.34630	1.19638
2985.41774	1.19900
2983.48917	1.20205
2981.56061	1.20614
2979.63204	1.21154
2977.70348	1.21720
2975.77491	1.22115
2973.84635	1.22331
2971.91779	1.22518
2969.98922	1.22888
2968.06066	1.23627
2966.13209	1.24485
2964.20353	1.25040
2962.27496	1.25305
2960.34640	1.25385
2958.41783	1.25259
2956.48927	1.25035
2954.56071	1.24753
2952.63214	1.24296
2950.70358	1.23788
2948.77501	1.23590
2946.84645	1.23770
2944.91788	1.24092
2942.98932	1.24535
2941.06075	1.25203
2939.13219	1.25988
2937.20363	1.26843
2935.27506	1.27781
2933.34650	1.28610
2931.41793	1.29310
2929.48937	1.30086
2927.56080	1.30954
2925.63224	1.31799
2923.70367	1.32514
2921.77511	1.33054
2919.84655	1.33381
2917.91798	1.33263
2915.98942	1.32298
2914.06085	1.30444
2912.13229	1.28342
2910.20372	1.26634
2908.27516	1.25310
2906.34659	1.24153
2904.41803	1.23337
2902.48947	1.22974
2900.56090	1.22676
2898.63234	1.22164
2896.70377	1.21632
2894.77521	1.21318
2892.84664	1.21130
2890.91808	1.20797
2888.98952	1.20357
2887.06095	1.20049
2885.13239	1.19872
2883.20382	1.19664
2881.27526	1.19433
2879.34669	1.19315
2877.41813	1.19292
2875.48956	1.19251
2873.56100	1.19134
2871.63244	1.18874
2869.70387	1.18422
2867.77531	1.17866
2865.84674	1.17378
2863.91818	1.17032
2861.98961	1.16857
2860.06105	1.16994
2858.13248	1.17524
2856.20392	1.18314
2854.27536	1.19189
2852.34679	1.20047
2850.41823	1.20530
2848.48966	1.19855
2846.56110	1.17843
2844.63253	1.15441
2842.70397	1.13440
2840.77540	1.11902
2838.84684	1.10709
2836.91828	1.09821
2834.98971	1.09150
2833.06115	1.08572
2831.13258	1.08185
2829.20402	1.08071
2827.27545	1.07960
2825.34689	1.07608
2823.41832	1.07129
2821.48976	1.06709
2819.56120	1.06334
2817.63263	1.05965
2815.70407	1.05652
2813.77550	1.05428
2811.84694	1.05248
2809.91837	1.05005
2807.98981	1.04609
2806.06124	1.04103
2804.13268	1.03714
2802.20412	1.03540
2800.27555	1.03390
2798.34699	1.03132
2796.41842	1.02835
2794.48986	1.02638
2792.56129	1.02569
2790.63273	1.02462
2788.70416	1.02238
2786.77560	1.02043
2784.84704	1.01961
2782.91847	1.01860
2780.98991	1.01668
2779.06134	1.01487
2777.13278	1.01347
2775.20421	1.01227
2773.27565	1.01132
2771.34708	1.01035
2769.41852	1.00899
2767.48996	1.00685
2765.56139	1.00451
2763.63283	1.00284
2761.70426	1.00112
2759.77570	0.99891
2757.84713	0.99714
2755.91857	0.99585
2753.99001	0.99423
2752.06144	0.99243
2750.13288	0.99111
2748.20431	0.98999
2746.27575	0.98861
2744.34718	0.98759
2742.41862	0.98719
2740.49005	0.98660
2738.56149	0.98584
2736.63293	0.98557
2734.70436	0.98516
2732.77580	0.98411
2730.84723	0.98357
2728.91867	0.98369
2726.99010	0.98315
2725.06154	0.98187
2723.13297	0.98075
2721.20441	0.97950
2719.27585	0.97733
2717.34728	0.97479
2715.41872	0.97306
2713.49015	0.97201
2711.56159	0.97047
2709.63302	0.96860
2707.70446	0.96701
2705.77589	0.96543
2703.84733	0.96420
2701.91877	0.96359
2699.99020	0.96299
2698.06164	0.96227
2696.13307	0.96171
2694.20451	0.96101
2692.27594	0.95994
2690.34738	0.95877
2688.41881	0.95790
2686.49025	0.95797
2684.56169	0.95855
2682.63312	0.95824
2680.70456	0.95683
2678.77599	0.95507
2676.84743	0.95362
2674.91886	0.95265
2672.99030	0.95150
2671.06173	0.94980
2669.13317	0.94809
2667.20461	0.94656
2665.27604	0.94468
2663.34748	0.94293
2661.41891	0.94220
2659.49035	0.94204
2657.56178	0.94162
2655.63322	0.94092
2653.70465	0.94027
2651.77609	0.93965
2649.84753	0.93908
2647.91896	0.93878
2645.99040	0.93870
2644.06183	0.93889
2642.13327	0.93917
2640.20470	0.93876
2638.27614	0.93774
2636.34757	0.93674
2634.41901	0.93589
2632.49045	0.93546
2630.56188	0.93529
2628.63332	0.93461
2626.70475	0.93357
2624.77619	0.93253
2622.84762	0.93126
2620.91906	0.93000
2618.99049	0.92926
2617.06193	0.92894
2615.13337	0.92837
2613.20480	0.92738
2611.27624	0.92679
2609.34767	0.92689
2607.41911	0.92708
2605.49054	0.92697
2603.56198	0.92637
2601.63342	0.92529
2599.70485	0.92428
2597.77629	0.92360
2595.84772	0.92326
2593.91916	0.92305
2591.99059	0.92228
2590.06203	0.92095
2588.13346	0.91968
2586.20490	0.91839
2584.27634	0.91693
2582.34777	0.91552
2580.41921	0.91415
2578.49064	0.91291
2576.56208	0.91217
2574.63351	0.91184
2572.70495	0.91141
2570.77638	0.91089
2568.84782	0.91054
2566.91926	0.91034
2564.99069	0.91024
2563.06213	0.91003
2561.13356	0.90941
2559.20500	0.90870
2557.27643	0.90827
2555.34787	0.90777
2553.41930	0.90695
2551.49074	0.90625
2549.56218	0.90571
2547.63361	0.90483
2545.70505	0.90360
2543.77648	0.90251
2541.84792	0.90142
2539.91935	0.89998
2537.99079	0.89875
2536.06222	0.89821
2534.13366	0.89783
2532.20510	0.89743
2530.27653	0.89722
2528.34797	0.89713
2526.41940	0.89713
2524.49084	0.89719
2522.56227	0.89713
2520.63371	0.89726
2518.70514	0.89800
2516.77658	0.89862
2514.84802	0.89833
2512.91945	0.89804
2510.99089	0.89858
2509.06232	0.89916
2507.13376	0.89887
2505.20519	0.89781
2503.27663	0.89659
2501.34806	0.89563
2499.41950	0.89504
2497.49094	0.89445
2495.56237	0.89330
2493.63381	0.89211
2491.70524	0.89181
2489.77668	0.89217
2487.84811	0.89267
2485.91955	0.89301
2483.99098	0.89257
2482.06242	0.89121
2480.13386	0.89003
2478.20529	0.88992
2476.27673	0.89042
2474.34816	0.89060
2472.41960	0.89015
2470.49103	0.88942
2468.56247	0.88885
2466.63391	0.88855
2464.70534	0.88833
2462.77678	0.88779
2460.84821	0.88679
2458.91965	0.88548
2456.99108	0.88407
2455.06252	0.88278
2453.13395	0.88164
2451.20539	0.88073
2449.27683	0.88004
2447.34826	0.87935
2445.41970	0.87861
2443.49113	0.87789
2441.56257	0.87750
2439.63400	0.87781
2437.70544	0.87848
2435.77687	0.87893
2433.84831	0.87910
2431.91975	0.87907
2429.99118	0.87898
2428.06262	0.87890
2426.13405	0.87867
2424.20549	0.87818
2422.27692	0.87774
2420.34836	0.87762
2418.41979	0.87745
2416.49123	0.87685
2414.56267	0.87593
2412.63410	0.87481
2410.70554	0.87359
2408.77697	0.87259
2406.84841	0.87198
2404.91984	0.87155
2402.99128	0.87104
2401.06271	0.87039
2399.13415	0.86959
2397.20559	0.86893
2395.27702	0.86882
2393.34846	0.86890
2391.41989	0.86864
2389.49133	0.86855
2387.56276	0.86922
2385.63420	0.87046
2383.70563	0.87209
2381.77707	0.87423
2379.84851	0.87679
2377.91994	0.87943
2375.99138	0.88148
2374.06281	0.88298
2372.13425	0.88514
2370.20568	0.88783
2368.27712	0.88978
2366.34855	0.89064
2364.41999	0.89087
2362.49143	0.89057
2360.56286	0.88917
2358.63430	0.88781
2356.70573	0.88732
2354.77717	0.88717
2352.84860	0.88618
2350.92004	0.88446
2348.99147	0.88411
2347.06291	0.88564
2345.13435	0.88813
2343.20578	0.89051
2341.27722	0.89086
2339.34865	0.88874
2337.42009	0.88810
2335.49152	0.89042
2333.56296	0.89224
2331.63440	0.89103
2329.70583	0.88783
2327.77727	0.88463
2325.84870	0.88264
2323.92014	0.88210
2321.99157	0.88119
2320.06301	0.87871
2318.13444	0.87608
2316.20588	0.87457
2314.27732	0.87411
2312.34875	0.87385
2310.42019	0.87294
2308.49162	0.87177
2306.56306	0.87083
2304.63449	0.86980
2302.70593	0.86866
2300.77736	0.86775
2298.84880	0.86717
2296.92024	0.86656
2294.99167	0.86560
2293.06311	0.86465
2291.13454	0.86396
2289.20598	0.86347
2287.27741	0.86313
2285.34885	0.86273
2283.42028	0.86237
2281.49172	0.86226
2279.56316	0.86222
2277.63459	0.86216
2275.70603	0.86217
2273.77746	0.86216
2271.84890	0.86225
2269.92033	0.86239
2267.99177	0.86220
2266.06320	0.86200
2264.13464	0.86209
2262.20608	0.86219
2260.27751	0.86221
2258.34895	0.86204
2256.42038	0.86158
2254.49182	0.86105
2252.56325	0.86032
2250.63469	0.85939
2248.70612	0.85855
2246.77756	0.85767
2244.84900	0.85653
2242.92043	0.85529
2240.99187	0.85402
2239.06330	0.85270
2237.13474	0.85149
2235.20617	0.85073
2233.27761	0.85054
2231.34904	0.85060
2229.42048	0.85041
2227.49192	0.84985
2225.56335	0.84922
2223.63479	0.84888
2221.70622	0.84883
2219.77766	0.84867
2217.84909	0.84833
2215.92053	0.84790
2213.99196	0.84749
2212.06340	0.84724
2210.13484	0.84697
2208.20627	0.84654
2206.27771	0.84602
2204.34914	0.84539
2202.42058	0.84470
2200.49201	0.84424
2198.56345	0.84400
2196.63488	0.84380
2194.70632	0.84358
2192.77776	0.84339
2190.84919	0.84321
2188.92063	0.84316
2186.99206	0.84313
2185.06350	0.84271
2183.13493	0.84193
2181.20637	0.84110
2179.27781	0.84039
2177.34924	0.83984
2175.42068	0.83954
2173.49211	0.83959
2171.56355	0.83965
2169.63498	0.83934
2167.70642	0.83887
2165.77785	0.83840
2163.84929	0.83777
2161.92073	0.83697
2159.99216	0.83595
2158.06360	0.83470
2156.13503	0.83366
2154.20647	0.83300
2152.27790	0.83231
2150.34934	0.83152
2148.42077	0.83097
2146.49221	0.83071
2144.56365	0.83049
2142.63508	0.83013
2140.70652	0.82979
2138.77795	0.82964
2136.84939	0.82941
2134.92082	0.82905
2132.99226	0.82885
2131.06369	0.82867
2129.13513	0.82849
2127.20657	0.82849
2125.27800	0.82849
2123.34944	0.82823
2121.42087	0.82772
2119.49231	0.82693
2117.56374	0.82610
2115.63518	0.82555
2113.70661	0.82502
2111.77805	0.82412
2109.84949	0.82303
2107.92092	0.82221
2105.99236	0.82161
2104.06379	0.82093
2102.13523	0.82024
2100.20666	0.81967
2098.27810	0.81932
2096.34953	0.81909
2094.42097	0.81882
2092.49241	0.81851
2090.56384	0.81820
2088.63528	0.81762
2086.70671	0.81681
2084.77815	0.81608
2082.84958	0.81536
2080.92102	0.81451
2078.99245	0.81367
2077.06389	0.81288
2075.13533	0.81220
2073.20676	0.81168
2071.27820	0.81103
2069.34963	0.81027
2067.42107	0.80972
2065.49250	0.80916
2063.56394	0.80835
2061.63537	0.80765
2059.70681	0.80716
2057.77825	0.80670
2055.84968	0.80619
2053.92112	0.80558
2051.99255	0.80488
2050.06399	0.80417
2048.13542	0.80348
2046.20686	0.80284
2044.27830	0.80213
2042.34973	0.80102
2040.42117	0.79953
2038.49260	0.79794
2036.56404	0.79640
2034.63547	0.79497
2032.70691	0.79357
2030.77834	0.79196
2028.84978	0.79023
2026.92122	0.78869
2024.99265	0.78741
2023.06409	0.78630
2021.13552	0.78528
2019.20696	0.78427
2017.27839	0.78300
2015.34983	0.78154
2013.42126	0.78043
2011.49270	0.77977
2009.56414	0.77913
2007.63557	0.77843
2005.70701	0.77794
2003.77844	0.77749
2001.84988	0.77680
1999.92131	0.77604
1997.99275	0.77543
1996.06418	0.77508
1994.13562	0.77481
1992.20706	0.77398
1990.27849	0.77257
1988.34993	0.77114
1986.42136	0.76971
1984.49280	0.76828
1982.56423	0.76688
1980.63567	0.76537
1978.70710	0.76384
1976.77854	0.76251
1974.84998	0.76141
1972.92141	0.76027
1970.99285	0.75925
1969.06428	0.75860
1967.13572	0.75772
1965.20715	0.75621
1963.27859	0.75478
1961.35002	0.75378
1959.42146	0.75282
1957.49290	0.75183
1955.56433	0.75099
1953.63577	0.75018
1951.70720	0.74931
1949.77864	0.74859
1947.85007	0.74819
1945.92151	0.74805
1943.99294	0.74775
1942.06438	0.74646
1940.13582	0.74464
1938.20725	0.74332
1936.27869	0.74245
1934.35012	0.74186
1932.42156	0.74153
1930.49299	0.74133
1928.56443	0.74124
1926.63586	0.74169
1924.70730	0.74267
1922.77874	0.74319
1920.85017	0.74312
1918.92161	0.74307
1916.99304	0.74257
1915.06448	0.74194
1913.13591	0.74185
1911.20735	0.74195
1909.27878	0.74152
1907.35022	0.74038
1905.42166	0.73924
1903.49309	0.73849
1901.56453	0.73765
1899.63596	0.73660
1897.70740	0.73558
1895.77883	0.73437
1893.85027	0.73304
1891.92171	0.73233
1889.99314	0.73163
1888.06458	0.73016
1886.13601	0.72885
1884.20745	0.72796
1882.27888	0.72729
1880.35032	0.72695
1878.42175	0.72669
1876.49319	0.72652
1874.56463	0.72691
1872.63606	0.72829
1870.70750	0.73054
1868.77893	0.73184
1866.85037	0.73063
1864.92180	0.72922
1862.99324	0.72878
1861.06467	0.72866
1859.13611	0.72829
1857.20755	0.72775
1855.27898	0.72739
1853.35042	0.72727
1851.42185	0.72727
1849.49329	0.72773
1847.56472	0.72880
1845.63616	0.72958
1843.70759	0.72811
1841.77903	0.72572
1839.85047	0.72463
1837.92190	0.72416
1835.99334	0.72335
1834.06477	0.72291
1832.13621	0.72351
1830.20764	0.72348
1828.27908	0.72177
1826.35051	0.72014
1824.42195	0.71855
1822.49339	0.71692
1820.56482	0.71592
1818.63626	0.71546
1816.70769	0.71514
1814.77913	0.71527
1812.85056	0.71617
1810.92200	0.71689
1808.99343	0.71682
1807.06487	0.71700
1805.13631	0.71830
1803.20774	0.72042
1801.27918	0.72229
1799.35061	0.72329
1797.42205	0.72447
1795.49348	0.72649
1793.56492	0.72834
1791.63635	0.72780
1789.70779	0.72582
1787.77923	0.72527
1785.85066	0.72585
1783.92210	0.72638
1781.99353	0.72641
1780.06497	0.72589
1778.13640	0.72563
1776.20784	0.72675
1774.27927	0.72902
1772.35071	0.72991
1770.42215	0.72810
1768.49358	0.72635
1766.56502	0.72575
1764.63645	0.72693
1762.70789	0.72948
1760.77932	0.73218
1758.85076	0.73505
1756.92220	0.73850
1754.99363	0.74230
1753.06507	0.74731
1751.13650	0.75464
1749.20794	0.76224
1747.27937	0.76750
1745.35081	0.77190
1743.42224	0.77642
1741.49368	0.78075
1739.56512	0.78470
1737.63655	0.78838
1735.70799	0.79238
1733.77942	0.79625
1731.85086	0.79775
1729.92229	0.79875
1727.99373	0.80078
1726.06516	0.80468
1724.13660	0.81083
1722.20804	0.81777
1720.27947	0.82534
1718.35091	0.83676
1716.42234	0.85117
1714.49378	0.85979
1712.56521	0.86641
1710.63665	0.87545
1708.70808	0.88769
1706.77952	0.90504
1704.85096	0.92629
1702.92239	0.94573
1700.99383	0.97287
1699.06526	1.01371
1697.13670	1.04942
1695.20813	1.08134
1693.27957	1.10536
1691.35100	1.12627
1689.42244	1.15175
1687.49388	1.17532
1685.56531	1.19910
1683.63675	1.23387
1681.70818	1.25734
1679.77962	1.27022
1677.85105	1.28264
1675.92249	1.29754
1673.99392	1.31309
1672.06536	1.32547
1670.13680	1.33904
1668.20823	1.35329
1666.27967	1.36255
1664.35110	1.37164
1662.42254	1.38190
1660.49397	1.38839
1658.56541	1.39264
1656.63684	1.39690
1654.70828	1.40142
1652.77972	1.40466
1650.85115	1.40650
1648.92259	1.40904
1646.99402	1.40763
1645.06546	1.40131
1643.13689	1.39812
1641.20833	1.39802
1639.27976	1.39955
1637.35120	1.40240
1635.42264	1.40202
1633.49407	1.39781
1631.56551	1.39576
1629.63694	1.39470
1627.70838	1.39288
1625.77981	1.38877
1623.85125	1.38052
1621.92269	1.36917
1619.99412	1.35953
1618.06556	1.34738
1616.13699	1.32585
1614.20843	1.30641
1612.27986	1.29138
1610.35130	1.27478
1608.42273	1.25635
1606.49417	1.24024
1604.56561	1.22850
1602.63704	1.21929
1600.70848	1.21135
1598.77991	1.20549
1596.85135	1.20205
1594.92278	1.19964
1592.99422	1.19795
1591.06565	1.19843
1589.13709	1.20158
1587.20853	1.20707
1585.27996	1.21463
1583.35140	1.22380
1581.42283	1.23367
1579.49427	1.24370
1577.56570	1.25571
1575.63714	1.27070
1573.70857	1.28140
1571.78001	1.28961
1569.85145	1.30028
1567.92288	1.31016
1565.99432	1.31721
1564.06575	1.32439
1562.13719	1.33088
1560.20862	1.33835
1558.28006	1.34922
1556.35149	1.35256
1554.42293	1.35239
1552.49437	1.35189
1550.56580	1.35122
1548.63724	1.34967
1546.70867	1.34853
1544.78011	1.34904
1542.85154	1.35121
1540.92298	1.34925
1538.99441	1.33753
1537.06585	1.33162
1535.13729	1.32906
1533.20872	1.32469
1531.28016	1.31890
1529.35159	1.31524
1527.42303	1.31312
1525.49446	1.31114
1523.56590	1.30959
1521.63733	1.30696
1519.70877	1.30348
1517.78021	1.29864
1515.85164	1.28974
1513.92308	1.28031
1511.99451	1.27318
1510.06595	1.26895
1508.13738	1.25931
1506.20882	1.22512
1504.28025	1.20261
1502.35169	1.19118
1500.42313	1.17960
1498.49456	1.16368
1496.56600	1.14150
1494.63743	1.12398
1492.70887	1.11479
1490.78030	1.10605
1488.85174	1.09131
1486.92317	1.07758
1484.99461	1.06987
1483.06605	1.06613
1481.13748	1.06467
1479.20892	1.06573
1477.28035	1.07091
1475.35179	1.08104
1473.42322	1.09576
1471.49466	1.10793
1469.56610	1.11365
1467.63753	1.11909
1465.70897	1.12696
1463.78040	1.13444
1461.85184	1.13949
1459.92327	1.14503
1457.99471	1.15206
1456.06614	1.15444
1454.13758	1.15387
1452.20902	1.15411
1450.28045	1.15449
1448.35189	1.15399
1446.42332	1.15153
1444.49476	1.14811
1442.56619	1.14504
1440.63763	1.14285
1438.70906	1.14075
1436.78050	1.13556
1434.85194	1.12748
1432.92337	1.12065
1430.99481	1.11379
1429.06624	1.10612
1427.13768	1.10029
1425.20911	1.09672
1423.28055	1.09449
1421.35198	1.09412
1419.42342	1.09519
1417.49486	1.09419
1415.56629	1.09110
1413.63773	1.08827
1411.70916	1.08586
1409.78060	1.08391
1407.85203	1.08323
1405.92347	1.08390
1403.99490	1.08489
1402.06634	1.08616
1400.13778	1.08822
1398.20921	1.09062
1396.28065	1.09262
1394.35208	1.09392
1392.42352	1.09585
1390.49495	1.10051
1388.56639	1.10961
1386.63782	1.12282
1384.70926	1.13532
1382.78070	1.14528
1380.85213	1.15247
1378.92357	1.15548
1376.99500	1.15391
1375.06644	1.14640
1373.13787	1.13280
1371.20931	1.11821
1369.28074	1.10307
1367.35218	1.08702
1365.42362	1.07316
1363.49505	1.06052
1361.56649	1.04779
1359.63792	1.03818
1357.70936	1.03225
1355.78079	1.02865
1353.85223	1.02661
1351.92366	1.02564
1349.99510	1.02561
1348.06654	1.02622
1346.13797	1.02724
1344.20941	1.02926
1342.28084	1.03293
1340.35228	1.03773
1338.42371	1.04141
1336.49515	1.04405
1334.56659	1.04820
1332.63802	1.05429
1330.70946	1.06079
1328.78089	1.06561
1326.85233	1.06787
1324.92376	1.06860
1322.99520	1.06946
1321.06663	1.07116
1319.13807	1.07268
1317.20951	1.07309
1315.28094	1.07333
1313.35238	1.07396
1311.42381	1.07434
1309.49525	1.07420
1307.56668	1.07340
1305.63812	1.07189
1303.70955	1.07065
1301.78099	1.07011
1299.85243	1.06923
1297.92386	1.06732
1295.99530	1.06513
1294.06673	1.06396
1292.13817	1.06459
1290.20960	1.06671
1288.28104	1.06891
1286.35247	1.07020
1284.42391	1.07119
1282.49535	1.07277
1280.56678	1.07487
1278.63822	1.07680
1276.70965	1.07879
1274.78109	1.08192
1272.85252	1.08671
1270.92396	1.09240
1268.99539	1.09806
1267.06683	1.10332
1265.13827	1.10771
1263.20970	1.11041
1261.28114	1.11124
1259.35257	1.11108
1257.42401	1.11059
1255.49544	1.10958
1253.56688	1.10829
1251.63831	1.10728
1249.70975	1.10650
1247.78119	1.10544
1245.85262	1.10382
1243.92406	1.10173
1241.99549	1.09953
1240.06693	1.09747
1238.13836	1.09524
1236.20980	1.09215
1234.28123	1.08786
1232.35267	1.08281
1230.42411	1.07733
1228.49554	1.07147
1226.56698	1.06566
1224.63841	1.06013
1222.70985	1.05483
1220.78128	1.05013
1218.85272	1.04662
1216.92415	1.04464
1214.99559	1.04431
1213.06703	1.04591
1211.13846	1.04943
1209.20990	1.05362
1207.28133	1.05620
1205.35277	1.05525
1203.42420	1.05074
1201.49564	1.04407
1199.56708	1.03633
1197.63851	1.02796
1195.70995	1.01957
1193.78138	1.01224
1191.85282	1.00701
1189.92425	1.00401
1187.99569	1.00274
1186.06712	1.00278
1184.13856	1.00410
1182.21000	1.00681
1180.28143	1.01106
1178.35287	1.01708
1176.42430	1.02478
1174.49574	1.03370
1172.56717	1.04350
1170.63861	1.05414
1168.71004	1.06630
1166.78148	1.08037
1164.85292	1.09516
1162.92435	1.10851
1160.99579	1.11837
1159.06722	1.12293
1157.13866	1.12100
1155.21009	1.11257
1153.28153	1.09909
1151.35296	1.08274
1149.42440	1.06562
1147.49584	1.04961
1145.56727	1.03607
1143.63871	1.02572
1141.71014	1.01897
1139.78158	1.01626
1137.85301	1.01789
1135.92445	1.02328
1133.99588	1.03154
1132.06732	1.04251
1130.13876	1.05632
1128.21019	1.07166
1126.28163	1.08628
1124.35306	1.09877
1122.42450	1.10868
1120.49593	1.11673
1118.56737	1.12323
1116.63880	1.12602
1114.71024	1.12378
1112.78168	1.11856
1110.85311	1.11245
1108.92455	1.10624
1106.99598	1.10052
1105.06742	1.09543
1103.13885	1.09139
1101.21029	1.08975
1099.28172	1.09136
1097.35316	1.09610
1095.42460	1.10354
1093.49603	1.11358
1091.56747	1.12580
1089.63890	1.13930
1087.71034	1.15353
1085.78177	1.16826
1083.85321	1.18308
1081.92464	1.19630
1079.99608	1.20552
1078.06752	1.20971
1076.13895	1.20884
1074.21039	1.20379
1072.28182	1.19584
1070.35326	1.18580
1068.42469	1.17521
1066.49613	1.16552
1064.56756	1.15631
1062.63900	1.14674
1060.71044	1.13733
1058.78187	1.12862
1056.85331	1.12092
1054.92474	1.11563
1052.99618	1.11377
1051.06761	1.11443
1049.13905	1.11667
1047.21049	1.12132
1045.28192	1.12906
1043.35336	1.13882
1041.42479	1.14914
1039.49623	1.15858
1037.56766	1.16530
1035.63910	1.16890
1033.71053	1.17032
1031.78197	1.16978
1029.85341	1.16695
1027.92484	1.16180
1025.99628	1.15500
1024.06771	1.14785
1022.13915	1.14159
1020.21058	1.13631
1018.28202	1.13118
1016.35345	1.12532
1014.42489	1.11720
1012.49633	1.10543
1010.56776	1.09076
1008.63920	1.07507
1006.71063	1.05952
1004.78207	1.04480
1002.85350	1.03176
1000.92494	1.02115
998.99637	1.01323
997.06781	1.00761
995.13925	1.00328
993.21068	0.99912
991.28212	0.99447
989.35355	0.98938
987.42499	0.98433
985.49642	0.98025
983.56786	0.97801
981.63929	0.97774
979.71073	0.97894
977.78217	0.98076
975.85360	0.98194
973.92504	0.98125
971.99647	0.97781
970.06791	0.97195
968.13934	0.96525
966.21078	0.95947
964.28221	0.95613
962.35365	0.95684
960.42509	0.96294
958.49652	0.97330
956.56796	0.98266
954.63939	0.98587
952.71083	0.98241
950.78226	0.97423
948.85370	0.96369
946.92513	0.95387
944.99657	0.94646
943.06801	0.94092
941.13944	0.93641
939.21088	0.93249
937.28231	0.92913
935.35375	0.92676
933.42518	0.92525
931.49662	0.92378
929.56805	0.92218
927.63949	0.92104
925.71093	0.92057
923.78236	0.92039
921.85380	0.92015
919.92523	0.91961
917.99667	0.91823
916.06810	0.91618
914.13954	0.91464
912.21098	0.91419
910.28241	0.91464
908.35385	0.91633
906.42528	0.91981
904.49672	0.92488
902.56815	0.93068
900.63959	0.93584
898.71102	0.93931
896.78246	0.94113
894.85390	0.94169
892.92533	0.94139
890.99677	0.94040
889.06820	0.93881
887.13964	0.93718
885.21107	0.93614
883.28251	0.93579
881.35394	0.93557
879.42538	0.93515
877.49682	0.93482
875.56825	0.93462
873.63969	0.93440
871.71112	0.93403
869.78256	0.93360
867.85399	0.93367
865.92543	0.93424
863.99686	0.93516
862.06830	0.93692
860.13974	0.93964
858.21117	0.94289
856.28261	0.94651
854.35404	0.95049
852.42548	0.95447
850.49691	0.95751
848.56835	0.95948
846.63978	0.96142
844.71122	0.96376
842.78266	0.96644
840.85409	0.96976
838.92553	0.97332
836.99696	0.97603
835.06840	0.97796
833.13983	0.97996
831.21127	0.98235
829.28270	0.98506
827.35414	0.98720
825.42558	0.98784
823.49701	0.98790
821.56845	0.98829
819.63988	0.98853
817.71132	0.98880
815.78275	0.98967
813.85419	0.99089
811.92562	0.99222
809.99706	0.99354
808.06850	0.99450
806.13993	0.99511
804.21137	0.99541
802.28280	0.99540
800.35424	0.99541
798.42567	0.99573
796.49711	0.99612
794.56854	0.99640
792.63998	0.99666
790.71142	0.99709
788.78285	0.99771
786.85429	0.99811
784.92572	0.99818
782.99716	0.99830
781.06859	0.99859
779.14003	0.99874
777.21147	0.99854
775.28290	0.99841
773.35434	0.99912
771.42577	1.00089
769.49721	1.00324
767.56864	1.00553
765.64008	1.00733
763.71151	1.00860
761.78295	1.00984
759.85439	1.01173
757.92582	1.01428
755.99726	1.01641
754.06869	1.01773
752.14013	1.01926
750.21156	1.02080
748.28300	1.02141
746.35443	1.02187
744.42587	1.02266
742.49731	1.02285
740.56874	1.02180
738.64018	1.01974
736.71161	1.01790
734.78305	1.01723
732.85448	1.01754
730.92592	1.01818
728.99735	1.01862
727.06879	1.01953
725.14023	1.02139
723.21166	1.02358
721.28310	1.02574
719.35453	1.02706
717.42597	1.02723
715.49740	1.02767
713.56884	1.02951
711.64027	1.03181
709.71171	1.03320
707.78315	1.03417
705.85458	1.03523
703.92602	1.03635
701.99745	1.03726
700.06889	1.03681
698.14032	1.03572
696.21176	1.03581
694.28319	1.03636
692.35463	1.03544
690.42607	1.03281
688.49750	1.02997
686.56894	1.02771
684.64037	1.02548
682.71181	1.02351
680.78324	1.02257
678.85468	1.02191
676.92611	1.01995
674.99755	1.01715
673.06899	1.01535
671.14042	1.01465
669.21186	1.01312
667.28329	1.01064
665.35473	1.01043
663.42616	1.01122
661.49760	1.01148
659.56903	1.01082
657.64047	1.00945
655.71191	1.00750
653.78334	1.00583
651.85478	1.00581
649.92621	1.00638
647.99765	1.00562
646.06908	1.00445
644.14052	1.00442
642.21195	1.00638
640.28339	1.00971
638.35483	1.01121
636.42626	1.00958
634.49770	1.00762
632.56913	1.00730
630.64057	1.00755
628.71200	1.00729
626.78344	1.00603
624.85488	1.00326
622.92631	0.99987
620.99775	0.99650
619.06918	0.99285
617.14062	0.99056
615.21205	0.99052
613.28349	0.99011
611.35492	0.98742
609.42636	0.98331
607.49780	0.98013
605.56923	0.97907
603.64067	0.97871
601.71210	0.97821
599.78354	0.97876
