3997.91406	1.05849
3995.98550	1.05695
3994.05693	1.05711
3992.12837	1.05935
3990.19980	1.06132
3988.27124	1.06160
3986.34268	1.06152
3984.41411	1.06182
3982.48555	1.06159
3980.55698	1.06046
3978.62842	1.05990
3976.69985	1.06105
3974.77129	1.06202
3972.84272	1.06115
3970.91416	1.06017
3968.98560	1.06020
3967.05703	1.05969
3965.12847	1.05820
3963.19990	1.05686
3961.27134	1.05633
3959.34277	1.05709
3957.41421	1.05710
3955.48564	1.05356
3953.55708	1.05039
3951.62852	1.05282
3949.69995	1.05738
3947.77139	1.05971
3945.84282	1.06178
3943.91426	1.06251
3941.98569	1.06020
3940.05713	1.05760
3938.12856	1.05584
3936.20000	1.05613
3934.27144	1.06025
3932.34287	1.06438
3930.41431	1.06274
3928.48574	1.05960
3926.55718	1.05852
3924.62861	1.05465
3922.70005	1.04859
3920.77148	1.04725
3918.84292	1.04973
3916.91436	1.05126
3914.98579	1.05264
3913.05723	1.05450
3911.12866	1.05408
3909.20010	1.05323
3907.27153	1.05638
3905.34297	1.06084
3903.41440	1.06032
3901.48584	1.05758
3899.55728	1.05275
3897.62871	1.04659
3895.70015	1.04532
3893.77158	1.04803
3891.84302	1.04895
3889.91445	1.04769
3887.98589	1.04838
3886.05733	1.04946
3884.12876	1.05020
3882.20020	1.05000
3880.27163	1.04549
3878.34307	1.04434
3876.41450	1.04946
3874.48594	1.05260
3872.55737	1.05065
3870.62881	1.04746
3868.70025	1.04582
3866.77168	1.04739
3864.84312	1.04819
3862.91455	1.04521
3860.98599	1.04303
3859.05742	1.04503
3857.12886	1.05144
3855.20029	1.05776
3853.27173	1.05136
3851.34317	1.04018
3849.41460	1.03725
3847.48604	1.03937
3845.55747	1.04389
3843.62891	1.04825
3841.70034	1.05133
3839.77178	1.05143
3837.84321	1.04596
3835.91465	1.04040
3833.98609	1.03867
3832.05752	1.03899
3830.12896	1.04068
3828.20039	1.04169
3826.27183	1.04102
3824.34326	1.04403
3822.41470	1.05014
3820.48613	1.04821
3818.55757	1.04274
3816.62901	1.03864
3814.70044	1.03371
3812.77188	1.03190
3810.84331	1.03295
3808.91475	1.03536
3806.98618	1.03727
3805.05762	1.04058
3803.12905	1.04709
3801.20049	1.04713
3799.27193	1.04079
3797.34336	1.03643
3795.41480	1.03223
3793.48623	1.02959
3791.55767	1.02874
3789.62910	1.03006
3787.70054	1.03357
3785.77197	1.03397
3783.84341	1.02993
3781.91485	1.02790
3779.98628	1.02844
3778.05772	1.02830
3776.12915	1.02807
3774.20059	1.02873
3772.27202	1.03035
3770.34346	1.03245
3768.41489	1.03419
3766.48633	1.03543
3764.55777	1.03630
3762.62920	1.03849
3760.70064	1.03943
3758.77207	1.03561
3756.84351	1.03587
3754.91494	1.04333
3752.98638	1.05163
3751.05781	1.05418
3749.12925	1.05197
3747.20069	1.05350
3745.27212	1.05271
3743.34356	1.04532
3741.41499	1.04261
3739.48643	1.04658
3737.55786	1.05411
3735.62930	1.05895
3733.70074	1.05451
3731.77217	1.04821
3729.84361	1.04625
3727.91504	1.04768
3725.98648	1.04895
3724.05791	1.04678
3722.12935	1.04192
3720.20078	1.03858
3718.27222	1.03907
3716.34366	1.04271
3714.41509	1.04941
3712.48653	1.05508
3710.55796	1.04962
3708.62940	1.04269
3706.70083	1.04302
3704.77227	1.04492
3702.84370	1.04320
3700.91514	1.04161
3698.98658	1.04484
3697.05801	1.04825
3695.12945	1.04985
3693.20088	1.05407
3691.27232	1.06291
3689.34375	1.06493
3687.41519	1.05798
3685.48662	1.05711
3683.55806	1.06068
3681.62950	1.06493
3679.70093	1.07204
3677.77237	1.08384
3675.84380	1.09429
3673.91524	1.09986
3671.98667	1.10520
3670.05811	1.10457
3668.12954	1.10134
3666.20098	1.10582
3664.27242	1.11506
3662.34385	1.12476
3660.41529	1.13348
3658.48672	1.14220
3656.55816	1.15066
3654.62959	1.15909
3652.70103	1.17191
3650.77246	1.19120
3648.84390	1.20442
3646.91534	1.20259
3644.98677	1.20364
3643.05821	1.21216
3641.12964	1.22576
3639.20108	1.23705
3637.27251	1.24240
3635.34395	1.24712
3633.41538	1.25699
3631.48682	1.27048
3629.55826	1.27978
3627.62969	1.28393
3625.70113	1.29714
3623.77256	1.31669
3621.84400	1.33519
3619.91543	1.34836
3617.98687	1.35625
3616.05830	1.36552
3614.12974	1.37699
3612.20118	1.38715
3610.27261	1.39700
3608.34405	1.40750
3606.41548	1.41669
3604.48692	1.42584
3602.55835	1.43659
3600.62979	1.44674
3598.70123	1.45516
3596.77266	1.46396
3594.84410	1.47568
3592.91553	1.48765
3590.98697	1.49640
3589.05840	1.50504
3587.12984	1.51109
3585.20127	1.51440
3583.27271	1.52083
3581.34415	1.52827
3579.41558	1.53589
3577.48702	1.54546
3575.55845	1.55492
3573.62989	1.55947
3571.70132	1.56261
3569.77276	1.57459
3567.84419	1.60104
3565.91563	1.62320
3563.98707	1.62615
3562.05850	1.62777
3560.12994	1.63322
3558.20137	1.63627
3556.27281	1.63579
3554.34424	1.63959
3552.41568	1.65112
3550.48711	1.65993
3548.55855	1.66369
3546.62999	1.67440
3544.70142	1.69165
3542.77286	1.69463
3540.84429	1.68456
3538.91573	1.68085
3536.98716	1.68954
3535.05860	1.70567
3533.13003	1.72004
3531.20147	1.72526
3529.27291	1.72806
3527.34434	1.73636
3525.41578	1.74362
3523.48721	1.74551
3521.55865	1.74718
3519.63008	1.75325
3517.70152	1.76090
3515.77295	1.76329
3513.84439	1.76353
3511.91583	1.77137
3509.98726	1.78285
3508.05870	1.78981
3506.13013	1.79649
3504.20157	1.79968
3502.27300	1.79772
3500.34444	1.80489
3498.41587	1.81553
3496.48731	1.81304
3494.55875	1.80547
3492.63018	1.80877
3490.70162	1.81555
3488.77305	1.81247
3486.84449	1.81085
3484.91592	1.82285
3482.98736	1.83643
3481.05879	1.84069
3479.13023	1.84467
3477.20167	1.85550
3475.27310	1.85983
3473.34454	1.84552
3471.41597	1.82939
3469.48741	1.82792
3467.55884	1.83124
3465.63028	1.83001
3463.70171	1.83357
3461.77315	1.84089
3459.84459	1.83760
3457.91602	1.82755
3455.98746	1.82540
3454.05889	1.83281
3452.13033	1.84049
3450.20176	1.83831
3448.27320	1.82565
3446.34464	1.82019
3444.41607	1.83573
3442.48751	1.85762
3440.55894	1.86677
3438.63038	1.86911
3436.70181	1.86903
3434.77325	1.86177
3432.84468	1.86337
3430.91612	1.87591
3428.98756	1.87186
3427.05899	1.85170
3425.13043	1.84059
3423.20186	1.85157
3421.27330	1.87623
3419.34473	1.88691
3417.41617	1.87981
3415.48760	1.87370
3413.55904	1.86981
3411.63048	1.86129
3409.70191	1.85696
3407.77335	1.86976
3405.84478	1.88861
3403.91622	1.89256
3401.98765	1.88044
3400.05909	1.86336
3398.13052	1.85380
3396.20196	1.85739
3394.27340	1.87123
3392.34483	1.89008
3390.41627	1.90203
3388.48770	1.89824
3386.55914	1.88650
3384.63057	1.88022
3382.70201	1.88386
3380.77344	1.89230
3378.84488	1.89758
3376.91632	1.89489
3374.98775	1.88745
3373.05919	1.88108
3371.13062	1.87670
3369.20206	1.87287
3367.27349	1.87255
3365.34493	1.87923
3363.41636	1.88635
3361.48780	1.88808
3359.55924	1.88880
3357.63067	1.88792
3355.70211	1.88119
3353.77354	1.87607
3351.84498	1.88108
3349.91641	1.88838
3347.98785	1.88514
3346.05928	1.87678
3344.13072	1.87491
3342.20216	1.87586
3340.27359	1.87360
3338.34503	1.87486
3336.41646	1.88944
3334.48790	1.91388
3332.55933	1.92344
3330.63077	1.90563
3328.70220	1.88852
3326.77364	1.89262
3324.84508	1.90310
3322.91651	1.90639
3320.98795	1.90810
3319.05938	1.90922
3317.13082	1.90987
3315.20225	1.91679
3313.27369	1.92522
3311.34513	1.92491
3309.41656	1.91692
3307.48800	1.90398
3305.55943	1.89205
3303.63087	1.89401
3301.70230	1.90873
3299.77374	1.91751
3297.84517	1.91292
3295.91661	1.90297
3293.98805	1.89790
3292.05948	1.90670
3290.13092	1.91664
3288.20235	1.90783
3286.27379	1.89443
3284.34522	1.89654
3282.41666	1.91001
3280.48809	1.91947
3278.55953	1.92090
3276.63097	1.92065
3274.70240	1.91675
3272.77384	1.91010
3270.84527	1.90607
3268.91671	1.90106
3266.98814	1.89803
3265.05958	1.90158
3263.13101	1.90403
3261.20245	1.89663
3259.27389	1.87877
3257.34532	1.86512
3255.41676	1.86944
3253.48819	1.88048
3251.55963	1.88445
3249.63106	1.88576
3247.70250	1.88326
3245.77393	1.87162
3243.84537	1.85940
3241.91681	1.85425
3239.98824	1.85307
3238.05968	1.85440
3236.13111	1.85719
3234.20255	1.85372
3232.27398	1.84597
3230.34542	1.84460
3228.41685	1.84453
3226.48829	1.83746
3224.55973	1.83135
3222.63116	1.83325
3220.70260	1.83910
3218.77403	1.84659
3216.84547	1.85702
3214.91690	1.86402
3212.98834	1.86249
3211.05977	1.85519
3209.13121	1.84257
3207.20265	1.83025
3205.27408	1.82648
3203.34552	1.82619
3201.41695	1.82224
3199.48839	1.81968
3197.55982	1.82035
3195.63126	1.81761
3193.70269	1.81451
3191.77413	1.81802
3189.84557	1.82155
3187.91700	1.81604
3185.98844	1.80664
3184.05987	1.80062
3182.13131	1.79882
3180.20274	1.80137
3178.27418	1.80217
3176.34562	1.79614
3174.41705	1.79061
3172.48849	1.79246
3170.55992	1.79871
3168.63136	1.79834
3166.70279	1.78900
3164.77423	1.78247
3162.84566	1.78216
3160.91710	1.78273
3158.98854	1.78271
3157.05997	1.77797
3155.13141	1.76764
3153.20284	1.76306
3151.27428	1.76785
3149.34571	1.77248
3147.41715	1.77166
3145.48858	1.76786
3143.56002	1.76772
3141.63146	1.77325
3139.70289	1.77563
3137.77433	1.77152
3135.84576	1.76754
3133.91720	1.76301
3131.98863	1.75582
3130.06007	1.75372
3128.13150	1.75667
3126.20294	1.75641
3124.27438	1.75448
3122.34581	1.75390
3120.41725	1.75489
3118.48868	1.75886
3116.56012	1.76073
3114.63155	1.75833
3112.70299	1.75866
3110.77442	1.76251
3108.84586	1.76229
3106.91730	1.75908
3104.98873	1.76194
3103.06017	1.76570
3101.13160	1.76200
3099.20304	1.75981
3097.27447	1.76286
3095.34591	1.76130
3093.41734	1.75432
3091.48878	1.74918
3089.56022	1.74562
3087.63165	1.74346
3085.70309	1.74633
3083.77452	1.74874
3081.84596	1.74254
3079.91739	1.73264
3077.98883	1.73011
3076.06026	1.73574
3074.13170	1.73911
3072.20314	1.73469
3070.27457	1.73059
3068.34601	1.73621
3066.41744	1.74537
3064.48888	1.74431
3062.56031	1.73402
3060.63175	1.72464
3058.70318	1.72148
3056.77462	1.72245
3054.84606	1.72203
3052.91749	1.71917
3050.98893	1.71685
3049.06036	1.71701
3047.13180	1.71696
3045.20323	1.71323
3043.27467	1.70741
3041.34610	1.70276
3039.41754	1.69916
3037.48898	1.69575
3035.56041	1.69521
3033.63185	1.69549
3031.70328	1.69048
3029.77472	1.68390
3027.84615	1.68090
3025.91759	1.67854
3023.98903	1.67447
3022.06046	1.67186
3020.13190	1.67313
3018.20333	1.67516
3016.27477	1.67425
3014.34620	1.66965
3012.41764	1.66348
3010.48907	1.66081
3008.56051	1.66434
3006.63195	1.66994
3004.70338	1.67054
3002.77482	1.66429
3000.84625	1.65757
2998.91769	1.65690
2996.98912	1.66014
2995.06056	1.66171
2993.13199	1.66331
2991.20343	1.66875
2989.27487	1.67424
2987.34630	1.67624
2985.41774	1.68106
2983.48917	1.69131
2981.56061	1.69709
2979.63204	1.69567
2977.70348	1.69680
2975.77491	1.70467
2973.84635	1.71541
2971.91779	1.72338
2969.98922	1.72701
2968.06066	1.73068
2966.13209	1.73620
2964.20353	1.74198
2962.27496	1.74685
2960.34640	1.74886
2958.41783	1.74903
2956.48927	1.74934
2954.56071	1.74749
2952.63214	1.74306
2950.70358	1.74116
2948.77501	1.74486
2946.84645	1.74932
2944.91788	1.75048
2942.98932	1.75287
2941.06075	1.75904
2939.13219	1.76641
2937.20363	1.77411
2935.27506	1.78123
2933.34650	1.78720
2931.41793	1.79318
2929.48937	1.79961
2927.56080	1.80727
2925.63224	1.81572
2923.70367	1.82199
2921.77511	1.82412
2919.84655	1.82217
2917.91798	1.81726
2915.98942	1.80569
2914.06085	1.78405
2912.13229	1.76177
2910.20372	1.74664
2908.27516	1.73433
2906.34659	1.72152
2904.41803	1.71076
2902.48947	1.70415
2900.56090	1.70004
2898.63234	1.69546
2896.70377	1.68932
2894.77521	1.68284
2892.84664	1.67662
2890.91808	1.67014
2888.98952	1.66791
2887.06095	1.67171
2885.13239	1.67346
2883.20382	1.67146
2881.27526	1.67160
2879.34669	1.67355
2877.41813	1.67440
2875.48956	1.67384
2873.56100	1.67144
2871.63244	1.66699
2869.70387	1.66169
2867.77531	1.65628
2865.84674	1.65181
2863.91818	1.65035
2861.98961	1.65145
2860.06105	1.65475
2858.13248	1.66241
2856.20392	1.67342
2854.27536	1.68509
2852.34679	1.69711
2850.41823	1.70259
2848.48966	1.69053
2846.56110	1.66393
2844.63253	1.63439
2842.70397	1.60781
2840.77540	1.58664
2838.84684	1.57242
2836.91828	1.56340
2834.98971	1.55519
2833.06115	1.54595
2831.13258	1.53710
2829.20402	1.53006
2827.27545	1.52658
2825.34689	1.52511
2823.41832	1.52126
2821.48976	1.51540
2819.56120	1.51125
2817.63263	1.51013
2815.70407	1.50838
2813.77550	1.50292
2811.84694	1.49717
2809.91837	1.49408
2807.98981	1.49275
2806.06124	1.49092
2804.13268	1.48662
2802.20412	1.48183
2800.27555	1.47880
2798.34699	1.47609
2796.41842	1.47250
2794.48986	1.46812
2792.56129	1.46300
2790.63273	1.45748
2788.70416	1.45259
2786.77560	1.44903
2784.84704	1.44606
2782.91847	1.44390
2780.98991	1.44336
2779.06134	1.44298
2777.13278	1.44075
2775.20421	1.43653
2773.27565	1.43138
2771.34708	1.42648
2769.41852	1.42308
2767.48996	1.42147
2765.56139	1.42000
2763.63283	1.41767
2761.70426	1.41605
2759.77570	1.41593
2757.84713	1.41484
2755.91857	1.41150
2753.99001	1.40786
2752.06144	1.40487
2750.13288	1.40245
2748.20431	1.40092
2746.27575	1.40009
2744.34718	1.39936
2742.41862	1.39808
2740.49005	1.39580
2738.56149	1.39257
2736.63293	1.38998
2734.70436	1.38916
2732.77580	1.38817
2730.84723	1.38569
2728.91867	1.38187
2726.99010	1.37720
2725.06154	1.37402
2723.13297	1.37263
2721.20441	1.37097
2719.27585	1.36938
2717.34728	1.36815
2715.41872	1.36633
2713.49015	1.36371
2711.56159	1.36059
2709.63302	1.35800
2707.70446	1.35641
2705.77589	1.35528
2703.84733	1.35397
2701.91877	1.35211
2699.99020	1.35064
2698.06164	1.35041
2696.13307	1.35034
2694.20451	1.34939
2692.27594	1.34733
2690.34738	1.34416
2688.41881	1.34081
2686.49025	1.33818
2684.56169	1.33598
2682.63312	1.33403
2680.70456	1.33315
2678.77599	1.33315
2676.84743	1.33196
2674.91886	1.32922
2672.99030	1.32652
2671.06173	1.32434
2669.13317	1.32224
2667.20461	1.31988
2665.27604	1.31789
2663.34748	1.31714
2661.41891	1.31719
2659.49035	1.31668
2657.56178	1.31481
2655.63322	1.31185
2653.70465	1.30862
2651.77609	1.30630
2649.84753	1.30519
2647.91896	1.30379
2645.99040	1.30120
2644.06183	1.29861
2642.13327	1.29663
2640.20470	1.29466
2638.27614	1.29265
2636.34757	1.29048
2634.41901	1.28863
2632.49045	1.28737
2630.56188	1.28535
2628.63332	1.28267
2626.70475	1.28064
2624.77619	1.27899
2622.84762	1.27727
2620.91906	1.27531
2618.99049	1.27265
2617.06193	1.27017
2615.13337	1.26928
2613.20480	1.27002
2611.27624	1.27083
2609.34767	1.26934
2607.41911	1.26631
2605.49054	1.26428
2603.56198	1.26293
2601.63342	1.26156
2599.70485	1.26002
2597.77629	1.25794
2595.84772	1.25583
2593.91916	1.25422
2591.99059	1.25331
2590.06203	1.25268
2588.13346	1.25164
2586.20490	1.25018
2584.27634	1.24840
2582.34777	1.24679
2580.41921	1.24574
2578.49064	1.24467
2576.56208	1.24322
2574.63351	1.24159
2572.70495	1.24017
2570.77638	1.23964
2568.84782	1.23932
2566.91926	1.23829
2564.99069	1.23742
2563.06213	1.23738
2561.13356	1.23726
2559.20500	1.23628
2557.27643	1.23486
2555.34787	1.23354
2553.41930	1.23210
2551.49074	1.23033
2549.56218	1.22864
2547.63361	1.22770
2545.70505	1.22735
2543.77648	1.22718
2541.84792	1.22681
2539.91935	1.22566
2537.99079	1.22430
2536.06222	1.22311
2534.13366	1.22156
2532.20510	1.22019
2530.27653	1.21927
2528.34797	1.21819
2526.41940	1.21739
2524.49084	1.21716
2522.56227	1.21650
2520.63371	1.21503
2518.70514	1.21368
2516.77658	1.21325
2514.84802	1.21343
2512.91945	1.21318
2510.99089	1.21231
2509.06232	1.21075
2507.13376	1.20801
2505.20519	1.20527
2503.27663	1.20434
2501.34806	1.20449
2499.41950	1.20387
2497.49094	1.20234
2495.56237	1.20053
2493.63381	1.19893
2491.70524	1.19776
2489.77668	1.19669
2487.84811	1.19573
2485.91955	1.19501
2483.99098	1.19397
2482.06242	1.19231
2480.13386	1.19029
2478.20529	1.18788
2476.27673	1.18581
2474.34816	1.18473
2472.41960	1.18383
2470.49103	1.18234
2468.56247	1.18007
2466.63391	1.17773
2464.70534	1.17652
2462.77678	1.17594
2460.84821	1.17460
2458.91965	1.17261
2456.99108	1.17130
2455.06252	1.17051
2453.13395	1.16900
2451.20539	1.16715
2449.27683	1.16582
2447.34826	1.16496
2445.41970	1.16434
2443.49113	1.16360
2441.56257	1.16248
2439.63400	1.16131
2437.70544	1.16029
2435.77687	1.15943
2433.84831	1.15857
2431.91975	1.15717
2429.99118	1.15533
2428.06262	1.15391
2426.13405	1.15311
2424.20549	1.15214
2422.27692	1.15082
2420.34836	1.14977
2418.41979	1.14888
2416.49123	1.14762
2414.56267	1.14634
2412.63410	1.14551
2410.70554	1.14480
2408.77697	1.14347
2406.84841	1.14180
2404.91984	1.14081
2402.99128	1.14095
2401.06271	1.14140
2399.13415	1.14081
2397.20559	1.13961
2395.27702	1.13917
2393.34846	1.13914
2391.41989	1.13880
2389.49133	1.13866
2387.56276	1.13879
2385.63420	1.13901
2383.70563	1.13964
2381.77707	1.14051
2379.84851	1.14122
2377.91994	1.14201
2375.99138	1.14382
2374.06281	1.14667
2372.13425	1.14908
2370.20568	1.15107
2368.27712	1.15626
2366.34855	1.16540
2364.41999	1.16813
2362.49143	1.16224
2360.56286	1.16076
2358.63430	1.15981
2356.70573	1.15127
2354.77717	1.14236
2352.84860	1.13750
2350.92004	1.13567
2348.99147	1.13643
2347.06291	1.13923
2345.13435	1.14199
2343.20578	1.14243
2341.27722	1.14235
2339.34865	1.14302
2337.42009	1.14327
2335.49152	1.14263
2333.56296	1.14216
2331.63440	1.14167
2329.70583	1.13907
2327.77727	1.13469
2325.84870	1.13109
2323.92014	1.12883
2321.99157	1.12655
2320.06301	1.12405
2318.13444	1.12145
2316.20588	1.11848
2314.27732	1.11613
2312.34875	1.11449
2310.42019	1.11220
2308.49162	1.11015
2306.56306	1.10929
2304.63449	1.10796
2302.70593	1.10558
2300.77736	1.10350
2298.84880	1.10229
2296.92024	1.10123
2294.99167	1.09976
2293.06311	1.09832
2291.13454	1.09756
2289.20598	1.09713
2287.27741	1.09636
2285.34885	1.09530
2283.42028	1.09404
2281.49172	1.09228
2279.56316	1.09048
2277.63459	1.08938
2275.70603	1.08895
2273.77746	1.08888
2271.84890	1.08882
2269.92033	1.08799
2267.99177	1.08632
2266.06320	1.08486
2264.13464	1.08426
2262.20608	1.08411
2260.27751	1.08364
2258.34895	1.08283
2256.42038	1.08226
2254.49182	1.08219
2252.56325	1.08241
2250.63469	1.08231
2248.70612	1.08155
2246.77756	1.08071
2244.84900	1.08035
2242.92043	1.08050
2240.99187	1.08095
2239.06330	1.08104
2237.13474	1.08024
2235.20617	1.07909
2233.27761	1.07824
2231.34904	1.07786
2229.42048	1.07783
2227.49192	1.07765
2225.56335	1.07714
2223.63479	1.07694
2221.70622	1.07717
2219.77766	1.07719
2217.84909	1.07694
2215.92053	1.07668
2213.99196	1.07651
2212.06340	1.07663
2210.13484	1.07676
2208.20627	1.07688
2206.27771	1.07744
2204.34914	1.07816
2202.42058	1.07876
2200.49201	1.07952
2198.56345	1.07999
2196.63488	1.07999
2194.70632	1.08006
2192.77776	1.08024
2190.84919	1.08039
2188.92063	1.08034
2186.99206	1.08017
2185.06350	1.08041
2183.13493	1.08074
2181.20637	1.08057
2179.27781	1.08017
2177.34924	1.07955
2175.42068	1.07875
2173.49211	1.07833
2171.56355	1.07801
2169.63498	1.07708
2167.70642	1.07590
2165.77785	1.07528
2163.84929	1.07544
2161.92073	1.07593
2159.99216	1.07587
2158.06360	1.07536
2156.13503	1.07533
2154.20647	1.07562
2152.27790	1.07557
2150.34934	1.07524
2148.42077	1.07505
2146.49221	1.07532
2144.56365	1.07559
2142.63508	1.07523
2140.70652	1.07473
2138.77795	1.07483
2136.84939	1.07508
2134.92082	1.07490
2132.99226	1.07449
2131.06369	1.07418
2129.13513	1.07423
2127.20657	1.07456
2125.27800	1.07460
2123.34944	1.07424
2121.42087	1.07398
2119.49231	1.07376
2117.56374	1.07306
2115.63518	1.07205
2113.70661	1.07116
2111.77805	1.07022
2109.84949	1.06898
2107.92092	1.06763
2105.99236	1.06629
2104.06379	1.06479
2102.13523	1.06320
2100.20666	1.06172
2098.27810	1.06045
2096.34953	1.05949
2094.42097	1.05883
2092.49241	1.05816
2090.56384	1.05726
2088.63528	1.05625
2086.70671	1.05520
2084.77815	1.05407
2082.84958	1.05310
2080.92102	1.05239
2078.99245	1.05179
2077.06389	1.05129
2075.13533	1.05091
2073.20676	1.05074
2071.27820	1.05083
2069.34963	1.05126
2067.42107	1.05184
2065.49250	1.05194
2063.56394	1.05167
2061.63537	1.05182
2059.70681	1.05227
2057.77825	1.05238
2055.84968	1.05200
2053.92112	1.05134
2051.99255	1.05073
2050.06399	1.05022
2048.13542	1.04970
2046.20686	1.04905
2044.27830	1.04821
2042.34973	1.04720
2040.42117	1.04621
2038.49260	1.04531
2036.56404	1.04437
2034.63547	1.04336
2032.70691	1.04233
2030.77834	1.04143
2028.84978	1.04086
2026.92122	1.04043
2024.99265	1.03986
2023.06409	1.03918
2021.13552	1.03884
2019.20696	1.03892
2017.27839	1.03870
2015.34983	1.03814
2013.42126	1.03813
2011.49270	1.03872
2009.56414	1.03935
2007.63557	1.03983
2005.70701	1.04013
2003.77844	1.04012
2001.84988	1.03993
1999.92131	1.03977
1997.99275	1.03991
1996.06418	1.04080
1994.13562	1.04184
1992.20706	1.04163
1990.27849	1.04052
1988.34993	1.03977
1986.42136	1.03934
1984.49280	1.03911
1982.56423	1.03912
1980.63567	1.03905
1978.70710	1.03884
1976.77854	1.03861
1974.84998	1.03819
1972.92141	1.03746
1970.99285	1.03680
1969.06428	1.03644
1967.13572	1.03549
1965.20715	1.03372
1963.27859	1.03233
1961.35002	1.03181
1959.42146	1.03190
1957.49290	1.03202
1955.56433	1.03149
1953.63577	1.03051
1951.70720	1.02958
1949.77864	1.02870
1947.85007	1.02810
1945.92151	1.02816
1943.99294	1.02809
1942.06438	1.02641
1940.13582	1.02391
1938.20725	1.02216
1936.27869	1.02118
1934.35012	1.02039
1932.42156	1.01935
1930.49299	1.01814
1928.56443	1.01718
1926.63586	1.01704
1924.70730	1.01776
1922.77874	1.01808
1920.85017	1.01783
1918.92161	1.01742
1916.99304	1.01610
1915.06448	1.01492
1913.13591	1.01509
1911.20735	1.01579
1909.27878	1.01564
1907.35022	1.01463
1905.42166	1.01418
1903.49309	1.01460
1901.56453	1.01510
1899.63596	1.01558
1897.70740	1.01634
1895.77883	1.01690
1893.85027	1.01675
1891.92171	1.01657
1889.99314	1.01624
1888.06458	1.01515
1886.13601	1.01404
1884.20745	1.01312
1882.27888	1.01227
1880.35032	1.01182
1878.42175	1.01169
1876.49319	1.01127
1874.56463	1.01068
1872.63606	1.01117
1870.70750	1.01277
1868.77893	1.01300
1866.85037	1.01077
1864.92180	1.00900
1862.99324	1.00872
1861.06467	1.00926
1859.13611	1.00988
1857.20755	1.01031
1855.27898	1.01097
1853.35042	1.01198
1851.42185	1.01326
1849.49329	1.01491
1847.56472	1.01700
1845.63616	1.01889
1843.70759	1.01882
1841.77903	1.01791
1839.85047	1.01855
1837.92190	1.02006
1835.99334	1.02080
1834.06477	1.02122
1832.13621	1.02238
1830.20764	1.02295
1828.27908	1.02230
1826.35051	1.02154
1824.42195	1.01978
1822.49339	1.01765
1820.56482	1.01656
1818.63626	1.01603
1816.70769	1.01570
1814.77913	1.01617
1812.85056	1.01728
1810.92200	1.01768
1808.99343	1.01726
1807.06487	1.01720
1805.13631	1.01811
1803.20774	1.02004
1801.27918	1.02188
1799.35061	1.02270
1797.42205	1.02380
1795.49348	1.02580
1793.56492	1.02750
1791.63635	1.02714
1789.70779	1.02608
1787.77923	1.02672
1785.85066	1.02844
1783.92210	1.03016
1781.99353	1.03160
1780.06497	1.03257
1778.13640	1.03362
1776.20784	1.03574
1774.27927	1.03867
1772.35071	1.03977
1770.42215	1.03808
1768.49358	1.03670
1766.56502	1.03647
1764.63645	1.03788
1762.70789	1.04047
1760.77932	1.04347
1758.85076	1.04679
1756.92220	1.05011
1754.99363	1.05387
1753.06507	1.05973
1751.13650	1.06831
1749.20794	1.07725
1747.27937	1.08429
1745.35081	1.09049
1743.42224	1.09649
1741.49368	1.10221
1739.56512	1.10747
1737.63655	1.11254
1735.70799	1.11842
1733.77942	1.12500
1731.85086	1.12977
1729.92229	1.13427
1727.99373	1.14003
1726.06516	1.14752
1724.13660	1.15749
1722.20804	1.16845
1720.27947	1.18001
1718.35091	1.19616
1716.42234	1.21625
1714.49378	1.23059
1712.56521	1.24321
1710.63665	1.25826
1708.70808	1.27674
1706.77952	1.30222
1704.85096	1.33322
1702.92239	1.36077
1700.99383	1.39974
1699.06526	1.46322
1697.13670	1.52148
1695.20813	1.57074
1693.27957	1.60460
1691.35100	1.63219
1689.42244	1.66576
1687.49388	1.69516
1685.56531	1.72022
1683.63675	1.75585
1681.70818	1.78147
1679.77962	1.79220
1677.85105	1.79956
1675.92249	1.81060
1673.99392	1.82723
1672.06536	1.84482
1670.13680	1.85791
1668.20823	1.86008
1666.27967	1.85970
1664.35110	1.86376
1662.42254	1.86883
1660.49397	1.87014
1658.56541	1.87100
1656.63684	1.87214
1654.70828	1.87138
1652.77972	1.86708
1650.85115	1.86864
1648.92259	1.87362
1646.99402	1.87578
1645.06546	1.87194
1643.13689	1.86819
1641.20833	1.86694
1639.27976	1.86796
1637.35120	1.86957
1635.42264	1.86291
1633.49407	1.85404
1631.56551	1.85145
1629.63694	1.84994
1627.70838	1.84664
1625.77981	1.84029
1623.85125	1.83005
1621.92269	1.81983
1619.99412	1.81411
1618.06556	1.80786
1616.13699	1.79505
1614.20843	1.78458
1612.27986	1.77851
1610.35130	1.77180
1608.42273	1.76331
1606.49417	1.75574
1604.56561	1.75066
1602.63704	1.74609
1600.70848	1.74096
1598.77991	1.73743
1596.85135	1.73666
1594.92278	1.73655
1592.99422	1.73605
1591.06565	1.73687
1589.13709	1.73968
1587.20853	1.74388
1585.27996	1.74802
1583.35140	1.75152
1581.42283	1.75575
1579.49427	1.76178
1577.56570	1.76983
1575.63714	1.77851
1573.70857	1.78450
1571.78001	1.78967
1569.85145	1.79536
1567.92288	1.79869
1565.99432	1.80114
1564.06575	1.80590
1562.13719	1.81064
1560.20862	1.81421
1558.28006	1.81966
1556.35149	1.82488
1554.42293	1.82802
1552.49437	1.82869
1550.56580	1.82681
1548.63724	1.82363
1546.70867	1.82085
1544.78011	1.81888
1542.85154	1.82162
1540.92298	1.82964
1538.99441	1.82253
1537.06585	1.81323
1535.13729	1.80797
1533.20872	1.80489
1531.28016	1.80428
1529.35159	1.80344
1527.42303	1.80000
1525.49446	1.79475
1523.56590	1.79115
1521.63733	1.78738
1519.70877	1.78184
1517.78021	1.77549
1515.85164	1.76760
1513.92308	1.76147
1511.99451	1.75863
1510.06595	1.75797
1508.13738	1.75066
1506.20882	1.71820
1504.28025	1.69810
1502.35169	1.69089
1500.42313	1.68330
1498.49456	1.66925
1496.56600	1.64945
1494.63743	1.63477
1492.70887	1.62734
1490.78030	1.62090
1488.85174	1.60960
1486.92317	1.59888
1484.99461	1.59344
1483.06605	1.59122
1481.13748	1.59096
1479.20892	1.59395
1477.28035	1.60176
1475.35179	1.61332
1473.42322	1.62670
1471.49466	1.63837
1469.56610	1.64571
1467.63753	1.65226
1465.70897	1.65886
1463.78040	1.66109
1461.85184	1.66039
1459.92327	1.66267
1457.99471	1.66940
1456.06614	1.67232
1454.13758	1.67080
1452.20902	1.66997
1450.28045	1.66872
1448.35189	1.66507
1446.42332	1.65903
1444.49476	1.65364
1442.56619	1.64987
1440.63763	1.64696
1438.70906	1.64392
1436.78050	1.63843
1434.85194	1.63135
1432.92337	1.62713
1430.99481	1.62416
1429.06624	1.62010
1427.13768	1.61803
1425.20911	1.62006
1423.28055	1.62370
1421.35198	1.62725
1419.42342	1.63220
1417.49486	1.63627
1415.56629	1.63674
1413.63773	1.63606
1411.70916	1.63671
1409.78060	1.63959
1407.85203	1.64256
1405.92347	1.64381
1403.99490	1.64336
1402.06634	1.64317
1400.13778	1.64403
1398.20921	1.64397
1396.28065	1.64093
1394.35208	1.63539
1392.42352	1.63129
1390.49495	1.63046
1388.56639	1.63161
1386.63782	1.63300
1384.70926	1.63322
1382.78070	1.63300
1380.85213	1.63304
1378.92357	1.63270
1376.99500	1.62984
1375.06644	1.62217
1373.13787	1.61255
1371.20931	1.60573
1369.28074	1.59890
1367.35218	1.58986
1365.42362	1.58155
1363.49505	1.57447
1361.56649	1.56656
1359.63792	1.55903
1357.70936	1.55358
1355.78079	1.54983
1353.85223	1.54690
1351.92366	1.54442
1349.99510	1.54213
1348.06654	1.53980
1346.13797	1.53820
1344.20941	1.53795
1342.28084	1.53821
1340.35228	1.53758
1338.42371	1.53549
1336.49515	1.53350
1334.56659	1.53310
1332.63802	1.53449
1330.70946	1.53698
1328.78089	1.53917
1326.85233	1.54046
1324.92376	1.54167
1322.99520	1.54366
1321.06663	1.54600
1319.13807	1.54786
1317.20951	1.54905
1315.28094	1.54953
1313.35238	1.54924
1311.42381	1.54831
1309.49525	1.54720
1307.56668	1.54634
1305.63812	1.54561
1303.70955	1.54441
1301.78099	1.54253
1299.85243	1.54093
1297.92386	1.53993
1295.99530	1.53809
1294.06673	1.53555
1292.13817	1.53357
1290.20960	1.53164
1288.28104	1.52945
1286.35247	1.52759
1284.42391	1.52591
1282.49535	1.52429
1280.56678	1.52301
1278.63822	1.52175
1276.70965	1.52044
1274.78109	1.52032
1272.85252	1.52130
1270.92396	1.52182
1268.99539	1.52204
1267.06683	1.52212
1265.13827	1.52175
1263.20970	1.52187
1261.28114	1.52323
1259.35257	1.52531
1257.42401	1.52702
1255.49544	1.52764
1253.56688	1.52713
1251.63831	1.52669
1249.70975	1.52741
1247.78119	1.52815
1245.85262	1.52777
1243.92406	1.52715
1241.99549	1.52731
1240.06693	1.52773
1238.13836	1.52658
1236.20980	1.52285
1234.28123	1.51761
1232.35267	1.51224
1230.42411	1.50733
1228.49554	1.50239
1226.56698	1.49609
1224.63841	1.48842
1222.70985	1.48051
1220.78128	1.47273
1218.85272	1.46531
1216.92415	1.45871
1214.99559	1.45357
1213.06703	1.45043
1211.13846	1.44920
1209.20990	1.44927
1207.28133	1.44900
1205.35277	1.44683
1203.42420	1.44235
1201.49564	1.43563
1199.56708	1.42780
1197.63851	1.42067
1195.70995	1.41481
1193.78138	1.40942
1191.85282	1.40357
1189.92425	1.39751
1187.99569	1.39244
1186.06712	1.38876
1184.13856	1.38637
1182.21000	1.38594
1180.28143	1.38739
1178.35287	1.38966
1176.42430	1.39293
1174.49574	1.39721
1172.56717	1.40154
1170.63861	1.40672
1168.71004	1.41448
1166.78148	1.42430
1164.85292	1.43364
1162.92435	1.44142
1160.99579	1.44838
1159.06722	1.45366
1157.13866	1.45516
1155.21009	1.45153
1153.28153	1.44336
1151.35296	1.43328
1149.42440	1.42303
1147.49584	1.41296
1145.56727	1.40400
1143.63871	1.39787
1141.71014	1.39536
1139.78158	1.39553
1137.85301	1.39733
1135.92445	1.40134
1133.99588	1.40902
1132.06732	1.41967
1130.13876	1.43127
1128.21019	1.44344
1126.28163	1.45528
1124.35306	1.46485
1122.42450	1.47294
1120.49593	1.48164
1118.56737	1.48995
1116.63880	1.49541
1114.71024	1.49777
1112.78168	1.49713
1110.85311	1.49327
1108.92455	1.48796
1106.99598	1.48342
1105.06742	1.48003
1103.13885	1.47672
1101.21029	1.47273
1099.28172	1.46951
1097.35316	1.46919
1095.42460	1.47170
1093.49603	1.47561
1091.56747	1.48094
1089.63890	1.48988
1087.71034	1.50210
1085.78177	1.51396
1083.85321	1.52397
1081.92464	1.53193
1079.99608	1.53745
1078.06752	1.54063
1076.13895	1.53968
1074.21039	1.53436
1072.28182	1.52796
1070.35326	1.52229
1068.42469	1.51788
1066.49613	1.51506
1064.56756	1.51201
1062.63900	1.50786
1060.71044	1.50441
1058.78187	1.50256
1056.85331	1.50232
1054.92474	1.50319
1052.99618	1.50290
1051.06761	1.50041
1049.13905	1.49813
1047.21049	1.49758
1045.28192	1.49766
1043.35336	1.49762
1041.42479	1.49765
1039.49623	1.49860
1037.56766	1.49999
1035.63910	1.49867
1033.71053	1.49430
1031.78197	1.48998
1029.85341	1.48558
1027.92484	1.47879
1025.99628	1.47001
1024.06771	1.46092
1022.13915	1.45168
1020.21058	1.44244
1018.28202	1.43446
1016.35345	1.42832
1014.42489	1.42248
1012.49633	1.41463
1010.56776	1.40401
1008.63920	1.39147
1006.71063	1.37830
1004.78207	1.36617
1002.85350	1.35658
1000.92494	1.34963
998.99637	1.34511
997.06781	1.34324
995.13925	1.34310
993.21068	1.34221
991.28212	1.33805
989.35355	1.33048
987.42499	1.32124
985.49642	1.31095
983.56786	1.30012
981.63929	1.29037
979.71073	1.28232
977.78217	1.27469
975.85360	1.26648
973.92504	1.25842
971.99647	1.25056
970.06791	1.24160
968.13934	1.23181
966.21078	1.22336
964.28221	1.21738
962.35365	1.21391
960.42509	1.21379
958.49652	1.21707
956.56796	1.22097
954.63939	1.22186
952.71083	1.21864
950.78226	1.21281
948.85370	1.20653
946.92513	1.20128
944.99657	1.19688
943.06801	1.19255
941.13944	1.18877
939.21088	1.18653
937.28231	1.18512
935.35375	1.18317
933.42518	1.18121
931.49662	1.18055
929.56805	1.18058
927.63949	1.18013
925.71093	1.17966
923.78236	1.17974
921.85380	1.17957
919.92523	1.17862
917.99667	1.17725
916.06810	1.17569
914.13954	1.17419
912.21098	1.17324
910.28241	1.17305
908.35385	1.17376
906.42528	1.17557
904.49672	1.17822
902.56815	1.18122
900.63959	1.18360
898.71102	1.18462
896.78246	1.18474
894.85390	1.18382
892.92533	1.18152
890.99677	1.17897
889.06820	1.17682
887.13964	1.17427
885.21107	1.17137
883.28251	1.16987
881.35394	1.17032
879.42538	1.17085
877.49682	1.17101
875.56825	1.17215
873.63969	1.17421
871.71112	1.17613
869.78256	1.17729
867.85399	1.17805
865.92543	1.17961
863.99686	1.18217
862.06830	1.18479
860.13974	1.18730
858.21117	1.19038
856.28261	1.19405
854.35404	1.19745
852.42548	1.20032
850.49691	1.20286
848.56835	1.20510
846.63978	1.20719
844.71122	1.20882
842.78266	1.20920
840.85409	1.20936
838.92553	1.21110
836.99696	1.21356
835.06840	1.21516
833.13983	1.21583
831.21127	1.21566
829.28270	1.21479
827.35414	1.21412
825.42558	1.21422
823.49701	1.21462
821.56845	1.21491
819.63988	1.21505
817.71132	1.21504
815.78275	1.21548
813.85419	1.21754
811.92562	1.22106
809.99706	1.22454
808.06850	1.22790
806.13993	1.23213
804.21137	1.23658
802.28280	1.24030
800.35424	1.24428
798.42567	1.24925
796.49711	1.25359
794.56854	1.25654
792.63998	1.25959
790.71142	1.26368
788.78285	1.26826
786.85429	1.27210
784.92572	1.27509
782.99716	1.27784
781.06859	1.28008
779.14003	1.28171
777.21147	1.28299
775.28290	1.28365
773.35434	1.28352
771.42577	1.28328
769.49721	1.28344
767.56864	1.28327
765.64008	1.28257
763.71151	1.28272
761.78295	1.28369
759.85439	1.28433
757.92582	1.28588
755.99726	1.28918
754.06869	1.29298
752.14013	1.29663
750.21156	1.30016
748.28300	1.30404
746.35443	1.30873
744.42587	1.31284
742.49731	1.31519
740.56874	1.31733
738.64018	1.32119
736.71161	1.32639
734.78305	1.33121
732.85448	1.33520
730.92592	1.33930
728.99735	1.34375
727.06879	1.34807
725.14023	1.35207
723.21166	1.35616
721.28310	1.36011
719.35453	1.36220
717.42597	1.36275
715.49740	1.36380
713.56884	1.36495
711.64027	1.36545
709.71171	1.36632
707.78315	1.36795
705.85458	1.36910
703.92602	1.36893
701.99745	1.36865
700.06889	1.36957
698.14032	1.37119
696.21176	1.37232
694.28319	1.37245
692.35463	1.37164
690.42607	1.37036
688.49750	1.37132
686.56894	1.37632
684.64037	1.38126
682.71181	1.38233
680.78324	1.38164
678.85468	1.38250
676.92611	1.38568
674.99755	1.39102
673.06899	1.39829
671.14042	1.40597
669.21186	1.41091
667.28329	1.40849
665.35473	1.40535
663.42616	1.40469
661.49760	1.40554
659.56903	1.40855
657.64047	1.41084
655.71191	1.40856
653.78334	1.40473
651.85478	1.40371
649.92621	1.40438
647.99765	1.40378
646.06908	1.40179
644.14052	1.39956
642.21195	1.39812
640.28339	1.39899
638.35483	1.40144
636.42626	1.40144
634.49770	1.39783
632.56913	1.39473
630.64057	1.39408
628.71200	1.39423
626.78344	1.39576
624.85488	1.39931
622.92631	1.40292
620.99775	1.40600
619.06918	1.40745
617.14062	1.40584
615.21205	1.40395
613.28349	1.40323
611.35492	1.40290
609.42636	1.40259
607.49780	1.40147
605.56923	1.40106
603.64067	1.40097
601.71210	1.39738
599.78354	1.39357
