3997.91406	0.83432
3995.98550	0.83432
3994.05693	0.83264
3992.12837	0.83082
3990.19980	0.83088
3988.27124	0.83254
3986.34268	0.83436
3984.41411	0.83489
3982.48555	0.83375
3980.55698	0.83262
3978.62842	0.83231
3976.69985	0.83276
3974.77129	0.83308
3972.84272	0.83153
3970.91416	0.82995
3968.98560	0.83091
3967.05703	0.83319
3965.12847	0.83469
3963.19990	0.83391
3961.27134	0.83146
3959.34277	0.83016
3957.41421	0.82965
3955.48564	0.82831
3953.55708	0.82793
3951.62852	0.83036
3949.69995	0.83252
3947.77139	0.83062
3945.84282	0.82815
3943.91426	0.82934
3941.98569	0.83220
3940.05713	0.83299
3938.12856	0.83272
3936.20000	0.83359
3934.27144	0.83567
3932.34287	0.83752
3930.41431	0.83687
3928.48574	0.83444
3926.55718	0.83245
3924.62861	0.83100
3922.70005	0.83111
3920.77148	0.83312
3918.84292	0.83413
3916.91436	0.83238
3914.98579	0.82998
3913.05723	0.82871
3911.12866	0.82942
3909.20010	0.83255
3907.27153	0.83728
3905.34297	0.84085
3903.41440	0.83869
3901.48584	0.83283
3899.55728	0.82848
3897.62871	0.82754
3895.70015	0.83096
3893.77158	0.83629
3891.84302	0.83776
3889.91445	0.83604
3887.98589	0.83628
3886.05733	0.83534
3884.12876	0.83197
3882.20020	0.82961
3880.27163	0.82702
3878.34307	0.82637
3876.41450	0.82898
3874.48594	0.83264
3872.55737	0.83615
3870.62881	0.83611
3868.70025	0.83265
3866.77168	0.83409
3864.84312	0.83729
3862.91455	0.83336
3860.98599	0.82806
3859.05742	0.82816
3857.12886	0.83183
3855.20029	0.83432
3853.27173	0.82893
3851.34317	0.82358
3849.41460	0.82365
3847.48604	0.82513
3845.55747	0.82608
3843.62891	0.82605
3841.70034	0.82814
3839.77178	0.83410
3837.84321	0.83627
3835.91465	0.83186
3833.98609	0.82806
3832.05752	0.82618
3830.12896	0.82592
3828.20039	0.82704
3826.27183	0.82818
3824.34326	0.82943
3822.41470	0.83035
3820.48613	0.82910
3818.55757	0.82886
3816.62901	0.82670
3814.70044	0.82154
3812.77188	0.82118
3810.84331	0.82454
3808.91475	0.82616
3806.98618	0.82350
3805.05762	0.82276
3803.12905	0.82485
3801.20049	0.82233
3799.27193	0.81894
3797.34336	0.81761
3795.41480	0.81593
3793.48623	0.81577
3791.55767	0.81621
3789.62910	0.81587
3787.70054	0.81576
3785.77197	0.81595
3783.84341	0.81594
3781.91485	0.81655
3779.98628	0.81692
3778.05772	0.81537
3776.12915	0.81407
3774.20059	0.81478
3772.27202	0.81606
3770.34346	0.81539
3768.41489	0.81481
3766.48633	0.81670
3764.55777	0.81884
3762.62920	0.82162
3760.70064	0.82418
3758.77207	0.82301
3756.84351	0.82224
3754.91494	0.82666
3752.98638	0.83355
3751.05781	0.83368
3749.12925	0.82725
3747.20069	0.82626
3745.27212	0.82568
3743.34356	0.82213
3741.41499	0.82198
3739.48643	0.82644
3737.55786	0.83384
3735.62930	0.83782
3733.70074	0.83210
3731.77217	0.82581
3729.84361	0.82477
3727.91504	0.82721
3725.98648	0.82865
3724.05791	0.82589
3722.12935	0.82135
3720.20078	0.81905
3718.27222	0.81965
3716.34366	0.82124
3714.41509	0.82360
3712.48653	0.82584
3710.55796	0.82418
3708.62940	0.82126
3706.70083	0.82077
3704.77227	0.82204
3702.84370	0.82324
3700.91514	0.82300
3698.98658	0.82319
3697.05801	0.82600
3695.12945	0.83161
3693.20088	0.84023
3691.27232	0.85064
3689.34375	0.85171
3687.41519	0.84392
3685.48662	0.84142
3683.55806	0.84317
3681.62950	0.84664
3679.70093	0.85215
3677.77237	0.86020
3675.84380	0.86675
3673.91524	0.86998
3671.98667	0.87519
3670.05811	0.87777
3668.12954	0.87596
3666.20098	0.87793
3664.27242	0.88408
3662.34385	0.89206
3660.41529	0.89986
3658.48672	0.90618
3656.55816	0.91164
3654.62959	0.91906
3652.70103	0.93078
3650.77246	0.94693
3648.84390	0.95572
3646.91534	0.95230
3644.98677	0.95393
3643.05821	0.96121
3641.12964	0.96978
3639.20108	0.97726
3637.27251	0.98545
3635.34395	0.99635
3633.41538	1.00895
3631.48682	1.01983
3629.55826	1.02839
3627.62969	1.03573
3625.70113	1.04398
3623.77256	1.05476
3621.84400	1.06810
3619.91543	1.08168
3617.98687	1.08897
3616.05830	1.09165
3614.12974	1.09559
3612.20118	1.10380
3610.27261	1.11534
3608.34405	1.12558
3606.41548	1.13259
3604.48692	1.13952
3602.55835	1.14924
3600.62979	1.15956
3598.70123	1.16772
3596.77266	1.17648
3594.84410	1.18681
3592.91553	1.19577
3590.98697	1.20390
3589.05840	1.21641
3587.12984	1.23035
3585.20127	1.23535
3583.27271	1.23798
3581.34415	1.24392
3579.41558	1.25229
3577.48702	1.26261
3575.55845	1.27629
3573.62989	1.28908
3571.70132	1.29596
3569.77276	1.30168
3567.84419	1.31442
3565.91563	1.33016
3563.98707	1.33746
3562.05850	1.34233
3560.12994	1.35091
3558.20137	1.36192
3556.27281	1.37223
3554.34424	1.38293
3552.41568	1.39637
3550.48711	1.40904
3548.55855	1.41872
3546.62999	1.42872
3544.70142	1.43881
3542.77286	1.44561
3540.84429	1.45004
3538.91573	1.45530
3536.98716	1.46296
3535.05860	1.46930
3533.13003	1.47137
3531.20147	1.47512
3529.27291	1.48324
3527.34434	1.49156
3525.41578	1.50196
3523.48721	1.51653
3521.55865	1.52982
3519.63008	1.53963
3517.70152	1.54984
3515.77295	1.55881
3513.84439	1.56019
3511.91583	1.55957
3509.98726	1.57014
3508.05870	1.58756
3506.13013	1.60000
3504.20157	1.61100
3502.27300	1.62033
3500.34444	1.62611
3498.41587	1.63597
3496.48731	1.64713
3494.55875	1.65232
3492.63018	1.65638
3490.70162	1.66226
3488.77305	1.66516
3486.84449	1.66805
3484.91592	1.67685
3482.98736	1.68926
3481.05879	1.69956
3479.13023	1.69955
3477.20167	1.68881
3475.27310	1.68105
3473.34454	1.68749
3471.41597	1.69944
3469.48741	1.70672
3467.55884	1.71692
3465.63028	1.73110
3463.70171	1.73668
3461.77315	1.73443
3459.84459	1.73801
3457.91602	1.74834
3455.98746	1.75256
3454.05889	1.74704
3452.13033	1.74419
3450.20176	1.75118
3448.27320	1.75721
3446.34464	1.75262
3444.41607	1.74334
3442.48751	1.73802
3440.55894	1.74474
3438.63038	1.76202
3436.70181	1.77679
3434.77325	1.77609
3432.84468	1.76192
3430.91612	1.75615
3428.98756	1.76680
3427.05899	1.77516
3425.13043	1.76889
3423.20186	1.75976
3421.27330	1.76233
3419.34473	1.76763
3417.41617	1.76312
3415.48760	1.76322
3413.55904	1.77993
3411.63048	1.79815
3409.70191	1.79753
3407.77335	1.78174
3405.84478	1.76811
3403.91622	1.76745
3401.98765	1.77885
3400.05909	1.79193
3398.13052	1.79791
3396.20196	1.79537
3394.27340	1.78997
3392.34483	1.78782
3390.41627	1.78657
3388.48770	1.78464
3386.55914	1.78329
3384.63057	1.77962
3382.70201	1.77664
3380.77344	1.78270
3378.84488	1.79669
3376.91632	1.80746
3374.98775	1.80880
3373.05919	1.80925
3371.13062	1.81256
3369.20206	1.80957
3367.27349	1.80304
3365.34493	1.80239
3363.41636	1.80326
3361.48780	1.80220
3359.55924	1.80164
3357.63067	1.79847
3355.70211	1.79439
3353.77354	1.79660
3351.84498	1.80115
3349.91641	1.80301
3347.98785	1.81025
3346.05928	1.82346
3344.13072	1.82875
3342.20216	1.82355
3340.27359	1.81818
3338.34503	1.81947
3336.41646	1.82758
3334.48790	1.83290
3332.55933	1.82715
3330.63077	1.81772
3328.70220	1.81590
3326.77364	1.82038
3324.84508	1.82171
3322.91651	1.82174
3320.98795	1.82709
3319.05938	1.83209
3317.13082	1.83168
3315.20225	1.83404
3313.27369	1.84778
3311.34513	1.86296
3309.41656	1.86069
3307.48800	1.84800
3305.55943	1.84330
3303.63087	1.84337
3301.70230	1.84059
3299.77374	1.84074
3297.84517	1.84921
3295.91661	1.85995
3293.98805	1.86482
3292.05948	1.86422
3290.13092	1.85786
3288.20235	1.84515
3286.27379	1.83612
3284.34522	1.83732
3282.41666	1.84084
3280.48809	1.84183
3278.55953	1.84529
3276.63097	1.85084
3274.70240	1.85541
3272.77384	1.85703
3270.84527	1.85048
3268.91671	1.83648
3266.98814	1.82374
3265.05958	1.81987
3263.13101	1.82176
3261.20245	1.81905
3259.27389	1.80953
3257.34532	1.80151
3255.41676	1.79986
3253.48819	1.79714
3251.55963	1.79131
3249.63106	1.78881
3247.70250	1.79041
3245.77393	1.79526
3243.84537	1.79400
3241.91681	1.77825
3239.98824	1.75845
3238.05968	1.74538
3236.13111	1.74156
3234.20255	1.74390
3232.27398	1.74602
3230.34542	1.74394
3228.41685	1.73867
3226.48829	1.73428
3224.55973	1.73195
3222.63116	1.73230
3220.70260	1.73482
3218.77403	1.73514
3216.84547	1.73348
3214.91690	1.73126
3212.98834	1.72483
3211.05977	1.71513
3209.13121	1.70744
3207.20265	1.70176
3205.27408	1.69798
3203.34552	1.69806
3201.41695	1.69876
3199.48839	1.69682
3197.55982	1.69422
3195.63126	1.69400
3193.70269	1.69422
3191.77413	1.68826
3189.84557	1.67710
3187.91700	1.66977
3185.98844	1.67009
3184.05987	1.67162
3182.13131	1.66782
3180.20274	1.66289
3178.27418	1.66070
3176.34562	1.65714
3174.41705	1.65229
3172.48849	1.65001
3170.55992	1.64819
3168.63136	1.64447
3166.70279	1.63908
3164.77423	1.62935
3162.84566	1.61654
3160.91710	1.60894
3158.98854	1.60923
3157.05997	1.61010
3155.13141	1.60681
3153.20284	1.60397
3151.27428	1.60498
3149.34571	1.60618
3147.41715	1.60458
3145.48858	1.60235
3143.56002	1.60020
3141.63146	1.59571
3139.70289	1.58969
3137.77433	1.58581
3135.84576	1.58523
3133.91720	1.58580
3131.98863	1.58481
3130.06007	1.58322
3128.13150	1.58450
3126.20294	1.58734
3124.27438	1.58678
3122.34581	1.58318
3120.41725	1.58266
3118.48868	1.58690
3116.56012	1.58810
3114.63155	1.58368
3112.70299	1.58141
3110.77442	1.58386
3108.84586	1.58651
3106.91730	1.58466
3104.98873	1.58005
3103.06017	1.57883
3101.13160	1.58117
3099.20304	1.58224
3097.27447	1.58091
3095.34591	1.58227
3093.41734	1.58628
3091.48878	1.58622
3089.56022	1.58318
3087.63165	1.58045
3085.70309	1.57672
3083.77452	1.57286
3081.84596	1.57042
3079.91739	1.56901
3077.98883	1.56542
3076.06026	1.55896
3074.13170	1.55487
3072.20314	1.55231
3070.27457	1.54788
3068.34601	1.54723
3066.41744	1.55082
3064.48888	1.54863
3062.56031	1.53921
3060.63175	1.53123
3058.70318	1.52836
3056.77462	1.52586
3054.84606	1.51987
3052.91749	1.51378
3050.98893	1.51051
3049.06036	1.50838
3047.13180	1.50566
3045.20323	1.50161
3043.27467	1.49653
3041.34610	1.49106
3039.41754	1.48489
3037.48898	1.47867
3035.56041	1.47361
3033.63185	1.47042
3031.70328	1.46905
3029.77472	1.46786
3027.84615	1.46633
3025.91759	1.46501
3023.98903	1.46237
3022.06046	1.45756
3020.13190	1.45337
3018.20333	1.44985
3016.27477	1.44415
3014.34620	1.43817
3012.41764	1.43450
3010.48907	1.43190
3008.56051	1.42968
3006.63195	1.42867
3004.70338	1.42890
3002.77482	1.42824
3000.84625	1.42495
2998.91769	1.42187
2996.98912	1.42236
2995.06056	1.42477
2993.13199	1.42704
2991.20343	1.43071
2989.27487	1.43624
2987.34630	1.44192
2985.41774	1.44762
2983.48917	1.45350
2981.56061	1.45905
2979.63204	1.46534
2977.70348	1.47170
2975.77491	1.47787
2973.84635	1.48709
2971.91779	1.49861
2969.98922	1.50969
2968.06066	1.51961
2966.13209	1.52699
2964.20353	1.53185
2962.27496	1.53357
2960.34640	1.53087
2958.41783	1.52682
2956.48927	1.52340
2954.56071	1.51846
2952.63214	1.51226
2950.70358	1.50683
2948.77501	1.50249
2946.84645	1.50124
2944.91788	1.50513
2942.98932	1.51274
2941.06075	1.52099
2939.13219	1.52839
2937.20363	1.53592
2935.27506	1.54403
2933.34650	1.55309
2931.41793	1.56356
2929.48937	1.57277
2927.56080	1.57997
2925.63224	1.58818
2923.70367	1.59367
2921.77511	1.59109
2919.84655	1.58609
2917.91798	1.58168
2915.98942	1.57097
2914.06085	1.55122
2912.13229	1.52667
2910.20372	1.50318
2908.27516	1.48558
2906.34659	1.47428
2904.41803	1.46627
2902.48947	1.45970
2900.56090	1.45392
2898.63234	1.44871
2896.70377	1.44462
2894.77521	1.44080
2892.84664	1.43640
2890.91808	1.43214
2888.98952	1.42740
2887.06095	1.42216
2885.13239	1.41868
2883.20382	1.41756
2881.27526	1.41856
2879.34669	1.42164
2877.41813	1.42379
2875.48956	1.42256
2873.56100	1.41918
2871.63244	1.41461
2869.70387	1.40753
2867.77531	1.39783
2865.84674	1.38988
2863.91818	1.38704
2861.98961	1.38642
2860.06105	1.38607
2858.13248	1.39003
2856.20392	1.39897
2854.27536	1.40862
2852.34679	1.41726
2850.41823	1.42001
2848.48966	1.40855
2846.56110	1.38357
2844.63253	1.35454
2842.70397	1.33007
2840.77540	1.31244
2838.84684	1.29986
2836.91828	1.29045
2834.98971	1.28257
2833.06115	1.27509
2831.13258	1.26824
2829.20402	1.26249
2827.27545	1.25759
2825.34689	1.25346
2823.41832	1.25019
2821.48976	1.24705
2819.56120	1.24321
2817.63263	1.23958
2815.70407	1.23734
2813.77550	1.23457
2811.84694	1.22952
2809.91837	1.22400
2807.98981	1.22014
2806.06124	1.21754
2804.13268	1.21520
2802.20412	1.21283
2800.27555	1.20941
2798.34699	1.20508
2796.41842	1.20109
2794.48986	1.19697
2792.56129	1.19251
2790.63273	1.18835
2788.70416	1.18438
2786.77560	1.18105
2784.84704	1.17901
2782.91847	1.17713
2780.98991	1.17430
2779.06134	1.17093
2777.13278	1.16726
2775.20421	1.16356
2773.27565	1.16078
2771.34708	1.15861
2769.41852	1.15684
2767.48996	1.15642
2765.56139	1.15609
2763.63283	1.15332
2761.70426	1.14921
2759.77570	1.14636
2757.84713	1.14431
2755.91857	1.14248
2753.99001	1.14186
2752.06144	1.14133
2750.13288	1.13940
2748.20431	1.13741
2746.27575	1.13660
2744.34718	1.13598
2742.41862	1.13487
2740.49005	1.13429
2738.56149	1.13429
2736.63293	1.13333
2734.70436	1.13116
2732.77580	1.12905
2730.84723	1.12768
2728.91867	1.12646
2726.99010	1.12473
2725.06154	1.12265
2723.13297	1.12036
2721.20441	1.11754
2719.27585	1.11474
2717.34728	1.11324
2715.41872	1.11255
2713.49015	1.11060
2711.56159	1.10725
2709.63302	1.10468
2707.70446	1.10346
2705.77589	1.10181
2703.84733	1.09953
2701.91877	1.09769
2699.99020	1.09622
2698.06164	1.09501
2696.13307	1.09412
2694.20451	1.09303
2692.27594	1.09161
2690.34738	1.09019
2688.41881	1.08895
2686.49025	1.08756
2684.56169	1.08525
2682.63312	1.08237
2680.70456	1.08041
2678.77599	1.07989
2676.84743	1.07960
2674.91886	1.07833
2672.99030	1.07684
2671.06173	1.07617
2669.13317	1.07553
2667.20461	1.07427
2665.27604	1.07299
2663.34748	1.07198
2661.41891	1.07127
2659.49035	1.07075
2657.56178	1.07001
2655.63322	1.06930
2653.70465	1.06872
2651.77609	1.06747
2649.84753	1.06575
2647.91896	1.06455
2645.99040	1.06374
2644.06183	1.06261
2642.13327	1.06134
2640.20470	1.06059
2638.27614	1.06009
2636.34757	1.05862
2634.41901	1.05596
2632.49045	1.05376
2630.56188	1.05295
2628.63332	1.05229
2626.70475	1.05061
2624.77619	1.04826
2622.84762	1.04639
2620.91906	1.04532
2618.99049	1.04440
2617.06193	1.04324
2615.13337	1.04196
2613.20480	1.04094
2611.27624	1.04006
2609.34767	1.03874
2607.41911	1.03728
2605.49054	1.03636
2603.56198	1.03596
2601.63342	1.03551
2599.70485	1.03440
2597.77629	1.03276
2595.84772	1.03121
2593.91916	1.02987
2591.99059	1.02841
2590.06203	1.02662
2588.13346	1.02525
2586.20490	1.02506
2584.27634	1.02519
2582.34777	1.02457
2580.41921	1.02361
2578.49064	1.02270
2576.56208	1.02138
2574.63351	1.01964
2572.70495	1.01801
2570.77638	1.01651
2568.84782	1.01476
2566.91926	1.01276
2564.99069	1.01087
2563.06213	1.00930
2561.13356	1.00799
2559.20500	1.00649
2557.27643	1.00461
2555.34787	1.00291
2553.41930	1.00177
2551.49074	1.00094
2549.56218	1.00007
2547.63361	0.99909
2545.70505	0.99802
2543.77648	0.99699
2541.84792	0.99642
2539.91935	0.99641
2537.99079	0.99657
2536.06222	0.99638
2534.13366	0.99543
2532.20510	0.99396
2530.27653	0.99266
2528.34797	0.99206
2526.41940	0.99241
2524.49084	0.99308
2522.56227	0.99280
2520.63371	0.99154
2518.70514	0.99017
2516.77658	0.98897
2514.84802	0.98795
2512.91945	0.98734
2510.99089	0.98700
2509.06232	0.98626
2507.13376	0.98439
2505.20519	0.98182
2503.27663	0.97993
2501.34806	0.97922
2499.41950	0.97889
2497.49094	0.97807
2495.56237	0.97664
2493.63381	0.97501
2491.70524	0.97377
2489.77668	0.97316
2487.84811	0.97268
2485.91955	0.97173
2483.99098	0.97044
2482.06242	0.96945
2480.13386	0.96920
2478.20529	0.96911
2476.27673	0.96828
2474.34816	0.96682
2472.41960	0.96572
2470.49103	0.96566
2468.56247	0.96610
2466.63391	0.96612
2464.70534	0.96580
2462.77678	0.96557
2460.84821	0.96534
2458.91965	0.96503
2456.99108	0.96474
2455.06252	0.96431
2453.13395	0.96364
2451.20539	0.96264
2449.27683	0.96145
2447.34826	0.96052
2445.41970	0.95977
2443.49113	0.95870
2441.56257	0.95738
2439.63400	0.95623
2437.70544	0.95513
2435.77687	0.95356
2433.84831	0.95166
2431.91975	0.94997
2429.99118	0.94873
2428.06262	0.94783
2426.13405	0.94679
2424.20549	0.94547
2422.27692	0.94405
2420.34836	0.94246
2418.41979	0.94115
2416.49123	0.94013
2414.56267	0.93850
2412.63410	0.93656
2410.70554	0.93542
2408.77697	0.93516
2406.84841	0.93521
2404.91984	0.93505
2402.99128	0.93462
2401.06271	0.93406
2399.13415	0.93340
2397.20559	0.93284
2395.27702	0.93256
2393.34846	0.93238
2391.41989	0.93231
2389.49133	0.93249
2387.56276	0.93276
2385.63420	0.93337
2383.70563	0.93471
2381.77707	0.93666
2379.84851	0.93864
2377.91994	0.94036
2375.99138	0.94257
2374.06281	0.94568
2372.13425	0.94939
2370.20568	0.95491
2368.27712	0.96324
2366.34855	0.97218
2364.41999	0.97763
2362.49143	0.97571
2360.56286	0.96719
2358.63430	0.95860
2356.70573	0.95248
2354.77717	0.94573
2352.84860	0.93820
2350.92004	0.93379
2348.99147	0.93398
2347.06291	0.93770
2345.13435	0.94298
2343.20578	0.94583
2341.27722	0.94595
2339.34865	0.94651
2337.42009	0.94622
2335.49152	0.94409
2333.56296	0.94208
2331.63440	0.94185
2329.70583	0.94439
2327.77727	0.94761
2325.84870	0.94828
2323.92014	0.94697
2321.99157	0.94506
2320.06301	0.94239
2318.13444	0.93976
2316.20588	0.93816
2314.27732	0.93735
2312.34875	0.93673
2310.42019	0.93556
2308.49162	0.93374
2306.56306	0.93178
2304.63449	0.92988
2302.70593	0.92824
2300.77736	0.92687
2298.84880	0.92502
2296.92024	0.92270
2294.99167	0.92096
2293.06311	0.91994
2291.13454	0.91881
2289.20598	0.91711
2287.27741	0.91493
2285.34885	0.91300
2283.42028	0.91197
2281.49172	0.91150
2279.56316	0.91112
2277.63459	0.91069
2275.70603	0.91018
2273.77746	0.90955
2271.84890	0.90879
2269.92033	0.90792
2267.99177	0.90722
2266.06320	0.90680
2264.13464	0.90632
2262.20608	0.90579
2260.27751	0.90546
2258.34895	0.90522
2256.42038	0.90493
2254.49182	0.90473
2252.56325	0.90459
2250.63469	0.90433
2248.70612	0.90391
2246.77756	0.90343
2244.84900	0.90276
2242.92043	0.90200
2240.99187	0.90139
2239.06330	0.90083
2237.13474	0.90024
2235.20617	0.89973
2233.27761	0.89925
2231.34904	0.89879
2229.42048	0.89838
2227.49192	0.89788
2225.56335	0.89715
2223.63479	0.89633
2221.70622	0.89562
2219.77766	0.89504
2217.84909	0.89456
2215.92053	0.89411
2213.99196	0.89372
2212.06340	0.89350
2210.13484	0.89328
2208.20627	0.89273
2206.27771	0.89200
2204.34914	0.89165
2202.42058	0.89169
2200.49201	0.89171
2198.56345	0.89180
2196.63488	0.89202
2194.70632	0.89216
2192.77776	0.89220
2190.84919	0.89224
2188.92063	0.89227
2186.99206	0.89225
2185.06350	0.89235
2183.13493	0.89263
2181.20637	0.89281
2179.27781	0.89283
2177.34924	0.89285
2175.42068	0.89299
2173.49211	0.89315
2171.56355	0.89325
2169.63498	0.89310
2167.70642	0.89260
2165.77785	0.89213
2163.84929	0.89185
2161.92073	0.89147
2159.99216	0.89099
2158.06360	0.89059
2156.13503	0.89032
2154.20647	0.89011
2152.27790	0.88954
2150.34934	0.88847
2148.42077	0.88758
2146.49221	0.88724
2144.56365	0.88691
2142.63508	0.88608
2140.70652	0.88520
2138.77795	0.88470
2136.84939	0.88426
2134.92082	0.88370
2132.99226	0.88334
2131.06369	0.88341
2129.13513	0.88372
2127.20657	0.88388
2125.27800	0.88388
2123.34944	0.88389
2121.42087	0.88381
2119.49231	0.88352
2117.56374	0.88341
2115.63518	0.88388
2113.70661	0.88462
2111.77805	0.88506
2109.84949	0.88533
2107.92092	0.88566
2105.99236	0.88594
2104.06379	0.88612
2102.13523	0.88592
2100.20666	0.88537
2098.27810	0.88491
2096.34953	0.88455
2094.42097	0.88417
2092.49241	0.88385
2090.56384	0.88349
2088.63528	0.88292
2086.70671	0.88222
2084.77815	0.88146
2082.84958	0.88064
2080.92102	0.87973
2078.99245	0.87858
2077.06389	0.87749
2075.13533	0.87688
2073.20676	0.87646
2071.27820	0.87576
2069.34963	0.87483
2067.42107	0.87386
2065.49250	0.87259
2063.56394	0.87090
2061.63537	0.86942
2059.70681	0.86863
2057.77825	0.86822
2055.84968	0.86754
2053.92112	0.86659
2051.99255	0.86568
2050.06399	0.86465
2048.13542	0.86351
2046.20686	0.86267
2044.27830	0.86216
2042.34973	0.86139
2040.42117	0.86013
2038.49260	0.85886
2036.56404	0.85782
2034.63547	0.85666
2032.70691	0.85534
2030.77834	0.85422
2028.84978	0.85327
2026.92122	0.85215
2024.99265	0.85083
2023.06409	0.84964
2021.13552	0.84897
2019.20696	0.84868
2017.27839	0.84801
2015.34983	0.84666
2013.42126	0.84519
2011.49270	0.84407
2009.56414	0.84339
2007.63557	0.84288
2005.70701	0.84238
2003.77844	0.84202
2001.84988	0.84167
1999.92131	0.84126
1997.99275	0.84098
1996.06418	0.84117
1994.13562	0.84166
1992.20706	0.84176
1990.27849	0.84154
1988.34993	0.84153
1986.42136	0.84157
1984.49280	0.84170
1982.56423	0.84208
1980.63567	0.84259
1978.70710	0.84308
1976.77854	0.84339
1974.84998	0.84359
1972.92141	0.84404
1970.99285	0.84500
1969.06428	0.84609
1967.13572	0.84611
1965.20715	0.84503
1963.27859	0.84418
1961.35002	0.84368
1959.42146	0.84305
1957.49290	0.84235
1955.56433	0.84161
1953.63577	0.84076
1951.70720	0.83990
1949.77864	0.83916
1947.85007	0.83871
1945.92151	0.83875
1943.99294	0.83857
1942.06438	0.83692
1940.13582	0.83496
1938.20725	0.83404
1936.27869	0.83352
1934.35012	0.83290
1932.42156	0.83245
1930.49299	0.83226
1928.56443	0.83207
1926.63586	0.83231
1924.70730	0.83307
1922.77874	0.83334
1920.85017	0.83325
1918.92161	0.83301
1916.99304	0.83185
1915.06448	0.83083
1913.13591	0.83086
1911.20735	0.83131
1909.27878	0.83127
1907.35022	0.83051
1905.42166	0.82978
1903.49309	0.82928
1901.56453	0.82871
1899.63596	0.82843
1897.70740	0.82867
1895.77883	0.82867
1893.85027	0.82833
1891.92171	0.82849
1889.99314	0.82823
1888.06458	0.82667
1886.13601	0.82523
1884.20745	0.82412
1882.27888	0.82290
1880.35032	0.82181
1878.42175	0.82097
1876.49319	0.82037
1874.56463	0.82016
1872.63606	0.82097
1870.70750	0.82240
1868.77893	0.82166
1866.85037	0.81823
1864.92180	0.81595
1862.99324	0.81528
1861.06467	0.81489
1859.13611	0.81418
1857.20755	0.81328
1855.27898	0.81265
1853.35042	0.81244
1851.42185	0.81265
1849.49329	0.81350
1847.56472	0.81510
1845.63616	0.81610
1843.70759	0.81416
1841.77903	0.81172
1839.85047	0.81122
1837.92190	0.81120
1835.99334	0.81060
1834.06477	0.81058
1832.13621	0.81192
1830.20764	0.81255
1828.27908	0.81140
1826.35051	0.81035
1824.42195	0.80925
1822.49339	0.80824
1820.56482	0.80793
1818.63626	0.80794
1816.70769	0.80790
1814.77913	0.80825
1812.85056	0.80899
1810.92200	0.80894
1808.99343	0.80803
1807.06487	0.80733
1805.13631	0.80742
1803.20774	0.80828
1801.27918	0.80892
1799.35061	0.80891
1797.42205	0.80961
1795.49348	0.81140
1793.56492	0.81274
1791.63635	0.81143
1789.70779	0.80956
1787.77923	0.80991
1785.85066	0.81141
1783.92210	0.81304
1781.99353	0.81475
1780.06497	0.81614
1778.13640	0.81797
1776.20784	0.82132
1774.27927	0.82549
1772.35071	0.82767
1770.42215	0.82724
1768.49358	0.82724
1766.56502	0.82864
1764.63645	0.83183
1762.70789	0.83573
1760.77932	0.83901
1758.85076	0.84257
1756.92220	0.84706
1754.99363	0.85235
1753.06507	0.85951
1751.13650	0.86967
1749.20794	0.88032
1747.27937	0.88800
1745.35081	0.89453
1743.42224	0.90140
1741.49368	0.90802
1739.56512	0.91362
1737.63655	0.91864
1735.70799	0.92406
1733.77942	0.92902
1731.85086	0.93158
1729.92229	0.93420
1727.99373	0.93847
1726.06516	0.94490
1724.13660	0.95366
1722.20804	0.96353
1720.27947	0.97430
1718.35091	0.98946
1716.42234	1.00918
1714.49378	1.02407
1712.56521	1.03763
1710.63665	1.05468
1708.70808	1.07605
1706.77952	1.10517
1704.85096	1.14140
1702.92239	1.17559
1700.99383	1.22332
1699.06526	1.29695
1697.13670	1.36354
1695.20813	1.42484
1693.27957	1.47063
1691.35100	1.50848
1689.42244	1.55499
1687.49388	1.59895
1685.56531	1.64087
1683.63675	1.69500
1681.70818	1.72896
1679.77962	1.74779
1677.85105	1.76650
1675.92249	1.78860
1673.99392	1.81056
1672.06536	1.82740
1670.13680	1.84346
1668.20823	1.85799
1666.27967	1.86671
1664.35110	1.87634
1662.42254	1.88433
1660.49397	1.88473
1658.56541	1.88637
1656.63684	1.89047
1654.70828	1.89299
1652.77972	1.88558
1650.85115	1.87832
1648.92259	1.87596
1646.99402	1.87410
1645.06546	1.87388
1643.13689	1.87327
1641.20833	1.87239
1639.27976	1.87112
1637.35120	1.86680
1635.42264	1.85540
1633.49407	1.85050
1631.56551	1.85200
1629.63694	1.84981
1627.70838	1.84304
1625.77981	1.83723
1623.85125	1.83320
1621.92269	1.82725
1619.99412	1.81985
1618.06556	1.80728
1616.13699	1.78462
1614.20843	1.76608
1612.27986	1.75183
1610.35130	1.73609
1608.42273	1.71834
1606.49417	1.70002
1604.56561	1.68401
1602.63704	1.67133
1600.70848	1.66202
1598.77991	1.65526
1596.85135	1.65026
1594.92278	1.64647
1592.99422	1.64421
1591.06565	1.64415
1589.13709	1.64625
1587.20853	1.65063
1585.27996	1.65705
1583.35140	1.66674
1581.42283	1.67949
1579.49427	1.69068
1577.56570	1.70042
1575.63714	1.71479
1573.70857	1.72850
1571.78001	1.73903
1569.85145	1.75212
1567.92288	1.76627
1565.99432	1.77762
1564.06575	1.78789
1562.13719	1.79692
1560.20862	1.80677
1558.28006	1.81412
1556.35149	1.81312
1554.42293	1.81336
1552.49437	1.81559
1550.56580	1.81816
1548.63724	1.81756
1546.70867	1.81534
1544.78011	1.81454
1542.85154	1.81504
1540.92298	1.80870
1538.99441	1.79545
1537.06585	1.79351
1535.13729	1.79564
1533.20872	1.79347
1531.28016	1.78529
1529.35159	1.77780
1527.42303	1.77189
1525.49446	1.76927
1523.56590	1.77130
1521.63733	1.77178
1519.70877	1.76950
1517.78021	1.76379
1515.85164	1.75052
1513.92308	1.73681
1511.99451	1.72612
1510.06595	1.71767
1508.13738	1.70142
1506.20882	1.65665
1504.28025	1.62896
1502.35169	1.61518
1500.42313	1.60036
1498.49456	1.57714
1496.56600	1.54396
1494.63743	1.51972
1492.70887	1.50723
1490.78030	1.49192
1488.85174	1.46571
1486.92317	1.44350
1484.99461	1.43039
1483.06605	1.42161
1481.13748	1.41555
1479.20892	1.41432
1477.28035	1.41963
1475.35179	1.43023
1473.42322	1.44587
1471.49466	1.46262
1469.56610	1.47392
1467.63753	1.48368
1465.70897	1.49441
1463.78040	1.50303
1461.85184	1.50890
1459.92327	1.51642
1457.99471	1.52820
1456.06614	1.53424
1454.13758	1.53259
1452.20902	1.53116
1450.28045	1.52971
1448.35189	1.52705
1446.42332	1.52333
1444.49476	1.51937
1442.56619	1.51493
1440.63763	1.51064
1438.70906	1.50586
1436.78050	1.49550
1434.85194	1.48178
1432.92337	1.47189
1430.99481	1.46230
1429.06624	1.45211
1427.13768	1.44641
1425.20911	1.44572
1423.28055	1.44710
1421.35198	1.44899
1419.42342	1.45279
1417.49486	1.45753
1415.56629	1.45985
1413.63773	1.46056
1411.70916	1.46030
1409.78060	1.45983
1407.85203	1.46077
1405.92347	1.46313
1403.99490	1.46536
1402.06634	1.46762
1400.13778	1.47011
1398.20921	1.47096
1396.28065	1.46928
1394.35208	1.46551
1392.42352	1.46217
1390.49495	1.46191
1388.56639	1.46591
1386.63782	1.47405
1384.70926	1.48310
1382.78070	1.49192
1380.85213	1.50018
1378.92357	1.50567
1376.99500	1.50626
1375.06644	1.50016
1373.13787	1.48780
1371.20931	1.47311
1369.28074	1.45611
1367.35218	1.43802
1365.42362	1.42278
1363.49505	1.40787
1361.56649	1.39171
1359.63792	1.37952
1357.70936	1.37191
1355.78079	1.36673
1353.85223	1.36281
1351.92366	1.35930
1349.99510	1.35581
1348.06654	1.35245
1346.13797	1.34981
1344.20941	1.34864
1342.28084	1.34859
1340.35228	1.34827
1338.42371	1.34710
1336.49515	1.34675
1334.56659	1.34867
1332.63802	1.35285
1330.70946	1.35835
1328.78089	1.36332
1326.85233	1.36670
1324.92376	1.36899
1322.99520	1.37104
1321.06663	1.37367
1319.13807	1.37694
1317.20951	1.37967
1315.28094	1.38122
1313.35238	1.38129
1311.42381	1.37963
1309.49525	1.37780
1307.56668	1.37691
1305.63812	1.37606
1303.70955	1.37436
1301.78099	1.37154
1299.85243	1.36730
1297.92386	1.36164
1295.99530	1.35532
1294.06673	1.34961
1292.13817	1.34547
1290.20960	1.34289
1288.28104	1.34113
1286.35247	1.33939
1284.42391	1.33714
1282.49535	1.33466
1280.56678	1.33281
1278.63822	1.33179
1276.70965	1.33193
1274.78109	1.33387
1272.85252	1.33722
1270.92396	1.34119
1268.99539	1.34576
1267.06683	1.35080
1265.13827	1.35500
1263.20970	1.35711
1261.28114	1.35780
1259.35257	1.35809
1257.42401	1.35830
1255.49544	1.35894
1253.56688	1.35985
1251.63831	1.36026
1249.70975	1.36014
1247.78119	1.35972
1245.85262	1.35877
1243.92406	1.35720
1241.99549	1.35571
1240.06693	1.35486
1238.13836	1.35365
1236.20980	1.35023
1234.28123	1.34466
1232.35267	1.33841
1230.42411	1.33149
1228.49554	1.32300
1226.56698	1.31345
1224.63841	1.30435
1222.70985	1.29613
1220.78128	1.28772
1218.85272	1.27873
1216.92415	1.27048
1214.99559	1.26439
1213.06703	1.26119
1211.13846	1.26154
1209.20990	1.26417
1207.28133	1.26598
1205.35277	1.26489
1203.42420	1.26021
1201.49564	1.25288
1199.56708	1.24511
1197.63851	1.23782
1195.70995	1.23035
1193.78138	1.22308
1191.85282	1.21758
1189.92425	1.21418
1187.99569	1.21200
1186.06712	1.21093
1184.13856	1.21159
1182.21000	1.21413
1180.28143	1.21809
1178.35287	1.22342
1176.42430	1.23011
1174.49574	1.23742
1172.56717	1.24486
1170.63861	1.25288
1168.71004	1.26232
1166.78148	1.27397
1164.85292	1.28748
1162.92435	1.30201
1160.99579	1.31573
1159.06722	1.32394
1157.13866	1.32327
1155.21009	1.31495
1153.28153	1.30126
1151.35296	1.28438
1149.42440	1.26683
1147.49584	1.25041
1145.56727	1.23671
1143.63871	1.22760
1141.71014	1.22405
1139.78158	1.22538
1137.85301	1.23034
1135.92445	1.23865
1133.99588	1.25015
1132.06732	1.26450
1130.13876	1.28191
1128.21019	1.30144
1126.28163	1.32085
1124.35306	1.33853
1122.42450	1.35410
1120.49593	1.36767
1118.56737	1.37830
1116.63880	1.38445
1114.71024	1.38613
1112.78168	1.38397
1110.85311	1.37803
1108.92455	1.37070
1106.99598	1.36538
1105.06742	1.36186
1103.13885	1.35877
1101.21029	1.35608
1099.28172	1.35425
1097.35316	1.35511
1095.42460	1.36018
1093.49603	1.36920
1091.56747	1.38120
1089.63890	1.39507
1087.71034	1.41086
1085.78177	1.42902
1083.85321	1.44750
1081.92464	1.46339
1079.99608	1.47497
1078.06752	1.48098
1076.13895	1.48153
1074.21039	1.47720
1072.28182	1.46886
1070.35326	1.45881
1068.42469	1.44902
1066.49613	1.44040
1064.56756	1.43301
1062.63900	1.42647
1060.71044	1.42002
1058.78187	1.41290
1056.85331	1.40629
1054.92474	1.40116
1052.99618	1.39669
1051.06761	1.39325
1049.13905	1.39198
1047.21049	1.39314
1045.28192	1.39670
1043.35336	1.40218
1041.42479	1.40904
1039.49623	1.41575
1037.56766	1.41990
1035.63910	1.42056
1033.71053	1.41878
1031.78197	1.41560
1029.85341	1.41006
1027.92484	1.40126
1025.99628	1.39022
1024.06771	1.37825
1022.13915	1.36678
1020.21058	1.35669
1018.28202	1.34755
1016.35345	1.33829
1014.42489	1.32751
1012.49633	1.31458
1010.56776	1.29929
1008.63920	1.28128
1006.71063	1.26259
1004.78207	1.24628
1002.85350	1.23262
1000.92494	1.22124
998.99637	1.21314
997.06781	1.20836
995.13925	1.20542
993.21068	1.20246
991.28212	1.19791
989.35355	1.19164
987.42499	1.18503
985.49642	1.17947
983.56786	1.17511
981.63929	1.17143
979.71073	1.16902
977.78217	1.16807
975.85360	1.16615
973.92504	1.16047
971.99647	1.15081
970.06791	1.13874
968.13934	1.12572
966.21078	1.11288
964.28221	1.10175
962.35365	1.09395
960.42509	1.09077
958.49652	1.09213
956.56796	1.09472
954.63939	1.09349
952.71083	1.08613
950.78226	1.07396
948.85370	1.05984
946.92513	1.04673
944.99657	1.03615
943.06801	1.02801
941.13944	1.02167
939.21088	1.01665
937.28231	1.01275
935.35375	1.00995
933.42518	1.00825
931.49662	1.00748
929.56805	1.00747
927.63949	1.00879
925.71093	1.01194
923.78236	1.01626
921.85380	1.02075
919.92523	1.02495
917.99667	1.02882
916.06810	1.03239
914.13954	1.03580
912.21098	1.03976
910.28241	1.04507
908.35385	1.05211
906.42528	1.06053
904.49672	1.06921
902.56815	1.07679
900.63959	1.08251
898.71102	1.08680
896.78246	1.08983
894.85390	1.09017
892.92533	1.08703
890.99677	1.08202
889.06820	1.07695
887.13964	1.07188
885.21107	1.06680
883.28251	1.06224
881.35394	1.05836
879.42538	1.05544
877.49682	1.05334
875.56825	1.05182
873.63969	1.05153
871.71112	1.05205
869.78256	1.05226
867.85399	1.05295
865.92543	1.05548
863.99686	1.05984
862.06830	1.06588
860.13974	1.07375
858.21117	1.08313
856.28261	1.09394
854.35404	1.10579
852.42548	1.11769
850.49691	1.12899
848.56835	1.14040
846.63978	1.15304
844.71122	1.16640
842.78266	1.17933
840.85409	1.19144
838.92553	1.20251
836.99696	1.21264
835.06840	1.22246
833.13983	1.23151
831.21127	1.23837
829.28270	1.24291
827.35414	1.24564
825.42558	1.24651
823.49701	1.24599
821.56845	1.24469
819.63988	1.24245
817.71132	1.23933
815.78275	1.23623
813.85419	1.23309
811.92562	1.22916
809.99706	1.22486
808.06850	1.22076
806.13993	1.21736
804.21137	1.21588
802.28280	1.21653
800.35424	1.21813
798.42567	1.22012
796.49711	1.22330
794.56854	1.22758
792.63998	1.23155
790.71142	1.23572
788.78285	1.24204
786.85429	1.24945
784.92572	1.25552
782.99716	1.26080
781.06859	1.26654
779.14003	1.27210
777.21147	1.27609
775.28290	1.27804
773.35434	1.27917
771.42577	1.27992
769.49721	1.27928
767.56864	1.27697
765.64008	1.27337
763.71151	1.26921
761.78295	1.26593
759.85439	1.26420
757.92582	1.26208
755.99726	1.25786
754.06869	1.25370
752.14013	1.25170
750.21156	1.25098
748.28300	1.25043
746.35443	1.25022
744.42587	1.25049
742.49731	1.25038
740.56874	1.25001
738.64018	1.25081
736.71161	1.25322
734.78305	1.25699
732.85448	1.26205
730.92592	1.26832
728.99735	1.27566
727.06879	1.28405
725.14023	1.29316
723.21166	1.30284
721.28310	1.31427
719.35453	1.32603
717.42597	1.33431
715.49740	1.34004
713.56884	1.34715
711.64027	1.35737
709.71171	1.37015
707.78315	1.38281
705.85458	1.39197
703.92602	1.39789
701.99745	1.40346
700.06889	1.40955
698.14032	1.41519
696.21176	1.42031
694.28319	1.42539
692.35463	1.42980
690.42607	1.43314
688.49750	1.43478
686.56894	1.43325
684.64037	1.42903
682.71181	1.42521
680.78324	1.42372
678.85468	1.42200
676.92611	1.41765
674.99755	1.41361
673.06899	1.41320
671.14042	1.41536
669.21186	1.41434
667.28329	1.40578
665.35473	1.40114
663.42616	1.40137
661.49760	1.40312
659.56903	1.40433
657.64047	1.40286
655.71191	1.40091
653.78334	1.40256
651.85478	1.40569
649.92621	1.40688
647.99765	1.40929
646.06908	1.41501
644.14052	1.42147
642.21195	1.42844
640.28339	1.43484
638.35483	1.43727
636.42626	1.43761
634.49770	1.43901
632.56913	1.44245
630.64057	1.44764
628.71200	1.45048
626.78344	1.44954
624.85488	1.44597
622.92631	1.43933
620.99775	1.43341
619.06918	1.43030
617.14062	1.42470
615.21205	1.41523
613.28349	1.40722
611.35492	1.40227
609.42636	1.39707
607.49780	1.39074
605.56923	1.38538
603.64067	1.38107
601.71210	1.37736
599.78354	1.37169
