3997.91406	0.94131
3995.98550	0.94394
3994.05693	0.94575
3992.12837	0.94415
3990.19980	0.94150
3988.27124	0.94169
3986.34268	0.94452
3984.41411	0.94771
3982.48555	0.94996
3980.55698	0.95000
3978.62842	0.94897
3976.69985	0.94847
3974.77129	0.94693
3972.84272	0.94476
3970.91416	0.94461
3968.98560	0.94602
3967.05703	0.94698
3965.12847	0.94724
3963.19990	0.94702
3961.27134	0.94578
3959.34277	0.94457
3957.41421	0.94472
3955.48564	0.94478
3953.55708	0.94357
3951.62852	0.94191
3949.69995	0.93936
3947.77139	0.93656
3945.84282	0.93753
3943.91426	0.94125
3941.98569	0.94266
3940.05713	0.94149
3938.12856	0.94073
3936.20000	0.94235
3934.27144	0.94538
3932.34287	0.94600
3930.41431	0.94359
3928.48574	0.94123
3926.55718	0.94006
3924.62861	0.94023
3922.70005	0.94222
3920.77148	0.94475
3918.84292	0.94476
3916.91436	0.94091
3914.98579	0.93738
3913.05723	0.93737
3911.12866	0.93824
3909.20010	0.93806
3907.27153	0.93911
3905.34297	0.94094
3903.41440	0.93902
3901.48584	0.93478
3899.55728	0.93090
3897.62871	0.92839
3895.70015	0.92883
3893.77158	0.92928
3891.84302	0.92521
3889.91445	0.92187
3887.98589	0.92463
3886.05733	0.92832
3884.12876	0.92967
3882.20020	0.93114
3880.27163	0.93074
3878.34307	0.93065
3876.41450	0.93276
3874.48594	0.93260
3872.55737	0.93066
3870.62881	0.93028
3868.70025	0.93173
3866.77168	0.93540
3864.84312	0.93867
3862.91455	0.93921
3860.98599	0.93890
3859.05742	0.93994
3857.12886	0.94425
3855.20029	0.94983
3853.27173	0.94185
3851.34317	0.92965
3849.41460	0.92859
3847.48604	0.93142
3845.55747	0.93402
3843.62891	0.93450
3841.70034	0.93660
3839.77178	0.94167
3837.84321	0.93720
3835.91465	0.92751
3833.98609	0.92541
3832.05752	0.92618
3830.12896	0.92632
3828.20039	0.92798
3826.27183	0.93054
3824.34326	0.93290
3822.41470	0.93512
3820.48613	0.93679
3818.55757	0.93914
3816.62901	0.93793
3814.70044	0.93183
3812.77188	0.92764
3810.84331	0.92653
3808.91475	0.92742
3806.98618	0.92900
3805.05762	0.93360
3803.12905	0.93927
3801.20049	0.93636
3799.27193	0.93162
3797.34336	0.92979
3795.41480	0.92645
3793.48623	0.92534
3791.55767	0.92714
3789.62910	0.92918
3787.70054	0.93044
3785.77197	0.93119
3783.84341	0.93162
3781.91485	0.93172
3779.98628	0.93028
3778.05772	0.92779
3776.12915	0.92747
3774.20059	0.92997
3772.27202	0.93478
3770.34346	0.93948
3768.41489	0.94038
3766.48633	0.93704
3764.55777	0.93258
3762.62920	0.93228
3760.70064	0.93494
3758.77207	0.93602
3756.84351	0.93810
3754.91494	0.94466
3752.98638	0.95117
3751.05781	0.94395
3749.12925	0.93135
3747.20069	0.93170
3745.27212	0.93584
3743.34356	0.93672
3741.41499	0.93788
3739.48643	0.94182
3737.55786	0.94850
3735.62930	0.95418
3733.70074	0.94864
3731.77217	0.93696
3729.84361	0.93184
3727.91504	0.93498
3725.98648	0.94017
3724.05791	0.94038
3722.12935	0.93750
3720.20078	0.93501
3718.27222	0.93310
3716.34366	0.93304
3714.41509	0.93739
3712.48653	0.94375
3710.55796	0.94143
3708.62940	0.93560
3706.70083	0.93593
3704.77227	0.94043
3702.84370	0.94400
3700.91514	0.94330
3698.98658	0.94227
3697.05801	0.94366
3695.12945	0.94780
3693.20088	0.95443
3691.27232	0.95969
3689.34375	0.95909
3687.41519	0.95838
3685.48662	0.95925
3683.55806	0.96062
3681.62950	0.96434
3679.70093	0.97056
3677.77237	0.97834
3675.84380	0.98457
3673.91524	0.98701
3671.98667	0.98997
3670.05811	0.99090
3668.12954	0.99199
3666.20098	0.99748
3664.27242	1.00389
3662.34385	1.01027
3660.41529	1.01831
3658.48672	1.02689
3656.55816	1.03512
3654.62959	1.04553
3652.70103	1.05879
3650.77246	1.07247
3648.84390	1.08005
3646.91534	1.08482
3644.98677	1.09187
3643.05821	1.10059
3641.12964	1.11155
3639.20108	1.12273
3637.27251	1.13320
3635.34395	1.14590
3633.41538	1.15999
3631.48682	1.17098
3629.55826	1.17821
3627.62969	1.18358
3625.70113	1.19061
3623.77256	1.20034
3621.84400	1.21382
3619.91543	1.23144
3617.98687	1.24637
3616.05830	1.25582
3614.12974	1.26420
3612.20118	1.27445
3610.27261	1.28811
3608.34405	1.30274
3606.41548	1.31395
3604.48692	1.32347
3602.55835	1.33480
3600.62979	1.34478
3598.70123	1.35127
3596.77266	1.35919
3594.84410	1.36990
3592.91553	1.38214
3590.98697	1.39543
3589.05840	1.40781
3587.12984	1.41983
3585.20127	1.43601
3583.27271	1.45002
3581.34415	1.45624
3579.41558	1.46020
3577.48702	1.46963
3575.55845	1.48127
3573.62989	1.48873
3571.70132	1.49562
3569.77276	1.50226
3567.84419	1.50888
3565.91563	1.52661
3563.98707	1.54351
3562.05850	1.55030
3560.12994	1.55552
3558.20137	1.56316
3556.27281	1.57115
3554.34424	1.57934
3552.41568	1.58800
3550.48711	1.59735
3548.55855	1.61149
3546.62999	1.62861
3544.70142	1.63925
3542.77286	1.64456
3540.84429	1.65124
3538.91573	1.65930
3536.98716	1.66658
3535.05860	1.67191
3533.13003	1.67410
3531.20147	1.67228
3529.27291	1.66919
3527.34434	1.67515
3525.41578	1.69234
3523.48721	1.70761
3521.55865	1.71555
3519.63008	1.72047
3517.70152	1.72245
3515.77295	1.72178
3513.84439	1.72182
3511.91583	1.72287
3509.98726	1.72480
3508.05870	1.72907
3506.13013	1.73732
3504.20157	1.75301
3502.27300	1.76726
3500.34444	1.76818
3498.41587	1.76489
3496.48731	1.76536
3494.55875	1.76813
3492.63018	1.77021
3490.70162	1.76974
3488.77305	1.77057
3486.84449	1.77587
3484.91592	1.77574
3482.98736	1.77000
3481.05879	1.77295
3479.13023	1.77983
3477.20167	1.78105
3475.27310	1.78215
3473.34454	1.78456
3471.41597	1.78034
3469.48741	1.76940
3467.55884	1.76702
3465.63028	1.78154
3463.70171	1.80211
3461.77315	1.81518
3459.84459	1.81325
3457.91602	1.79846
3455.98746	1.78472
3454.05889	1.78051
3452.13033	1.78288
3450.20176	1.79037
3448.27320	1.80027
3446.34464	1.80719
3444.41607	1.80948
3442.48751	1.80784
3440.55894	1.80683
3438.63038	1.80576
3436.70181	1.80031
3434.77325	1.79547
3432.84468	1.79296
3430.91612	1.78809
3428.98756	1.78710
3427.05899	1.79813
3425.13043	1.81138
3423.20186	1.81595
3421.27330	1.81527
3419.34473	1.81024
3417.41617	1.80189
3415.48760	1.79724
3413.55904	1.79757
3411.63048	1.80247
3409.70191	1.81211
3407.77335	1.81845
3405.84478	1.81711
3403.91622	1.81718
3401.98765	1.82079
3400.05909	1.81827
3398.13052	1.81169
3396.20196	1.81189
3394.27340	1.81449
3392.34483	1.81110
3390.41627	1.80485
3388.48770	1.79830
3386.55914	1.79305
3384.63057	1.79006
3382.70201	1.78822
3380.77344	1.79190
3378.84488	1.80058
3376.91632	1.80520
3374.98775	1.80361
3373.05919	1.79971
3371.13062	1.79551
3369.20206	1.79562
3367.27349	1.80384
3365.34493	1.81005
3363.41636	1.80608
3361.48780	1.80501
3359.55924	1.81046
3357.63067	1.80707
3355.70211	1.79645
3353.77354	1.79382
3351.84498	1.79800
3349.91641	1.79876
3347.98785	1.79666
3346.05928	1.79419
3344.13072	1.78821
3342.20216	1.78053
3340.27359	1.77538
3338.34503	1.77935
3336.41646	1.79541
3334.48790	1.80776
3332.55933	1.80672
3330.63077	1.80410
3328.70220	1.80597
3326.77364	1.80500
3324.84508	1.79783
3322.91651	1.79668
3320.98795	1.80775
3319.05938	1.81760
3317.13082	1.81591
3315.20225	1.80452
3313.27369	1.78955
3311.34513	1.78260
3309.41656	1.78805
3307.48800	1.79393
3305.55943	1.79130
3303.63087	1.78761
3301.70230	1.78921
3299.77374	1.78858
3297.84517	1.78209
3295.91661	1.78018
3293.98805	1.78571
3292.05948	1.79143
3290.13092	1.79484
3288.20235	1.79401
3286.27379	1.78871
3284.34522	1.78745
3282.41666	1.79075
3280.48809	1.78966
3278.55953	1.78603
3276.63097	1.78144
3274.70240	1.77357
3272.77384	1.77005
3270.84527	1.77044
3268.91671	1.76706
3266.98814	1.76418
3265.05958	1.76303
3263.13101	1.75985
3261.20245	1.75983
3259.27389	1.76295
3257.34532	1.76265
3255.41676	1.76085
3253.48819	1.75872
3251.55963	1.75363
3249.63106	1.74914
3247.70250	1.74936
3245.77393	1.75040
3243.84537	1.74496
3241.91681	1.73470
3239.98824	1.72894
3238.05968	1.73098
3236.13111	1.73282
3234.20255	1.72905
3232.27398	1.72715
3230.34542	1.73003
3228.41685	1.73061
3226.48829	1.72523
3224.55973	1.71627
3222.63116	1.71076
3220.70260	1.71223
3218.77403	1.71455
3216.84547	1.71370
3214.91690	1.71406
3212.98834	1.71701
3211.05977	1.71666
3209.13121	1.71326
3207.20265	1.71398
3205.27408	1.71786
3203.34552	1.71807
3201.41695	1.71377
3199.48839	1.70950
3197.55982	1.70678
3195.63126	1.70343
3193.70269	1.69911
3191.77413	1.69485
3189.84557	1.69182
3187.91700	1.69169
3185.98844	1.69217
3184.05987	1.68834
3182.13131	1.68095
3180.20274	1.67612
3178.27418	1.67893
3176.34562	1.68358
3174.41705	1.68064
3172.48849	1.67800
3170.55992	1.68140
3168.63136	1.68044
3166.70279	1.67513
3164.77423	1.67455
3162.84566	1.67604
3160.91710	1.67267
3158.98854	1.66610
3157.05997	1.66056
3155.13141	1.65869
3153.20284	1.66172
3151.27428	1.66384
3149.34571	1.65932
3147.41715	1.65091
3145.48858	1.64604
3143.56002	1.64926
3141.63146	1.65325
3139.70289	1.65048
3137.77433	1.64655
3135.84576	1.64594
3133.91720	1.64551
3131.98863	1.64453
3130.06007	1.64545
3128.13150	1.64761
3126.20294	1.64848
3124.27438	1.64723
3122.34581	1.64442
3120.41725	1.64350
3118.48868	1.64795
3116.56012	1.65304
3114.63155	1.65196
3112.70299	1.64689
3110.77442	1.64389
3108.84586	1.64382
3106.91730	1.64225
3104.98873	1.63898
3103.06017	1.63784
3101.13160	1.63781
3099.20304	1.63764
3097.27447	1.63943
3095.34591	1.64258
3093.41734	1.64246
3091.48878	1.63657
3089.56022	1.62940
3087.63165	1.62683
3085.70309	1.62711
3083.77452	1.62568
3081.84596	1.62468
3079.91739	1.62577
3077.98883	1.62576
3076.06026	1.62538
3074.13170	1.62637
3072.20314	1.62570
3070.27457	1.62196
3068.34601	1.61768
3066.41744	1.61498
3064.48888	1.61353
3062.56031	1.61070
3060.63175	1.60642
3058.70318	1.60499
3056.77462	1.60671
3054.84606	1.60628
3052.91749	1.60143
3050.98893	1.59506
3049.06036	1.58962
3047.13180	1.58459
3045.20323	1.58088
3043.27467	1.58175
3041.34610	1.58527
3039.41754	1.58374
3037.48898	1.57596
3035.56041	1.56942
3033.63185	1.56734
3031.70328	1.56633
3029.77472	1.56551
3027.84615	1.56700
3025.91759	1.56861
3023.98903	1.56450
3022.06046	1.55644
3020.13190	1.55335
3018.20333	1.55576
3016.27477	1.55640
3014.34620	1.55381
3012.41764	1.55198
3010.48907	1.55320
3008.56051	1.55536
3006.63195	1.55385
3004.70338	1.55015
3002.77482	1.54934
3000.84625	1.55015
2998.91769	1.55096
2996.98912	1.55362
2995.06056	1.55620
2993.13199	1.55508
2991.20343	1.55316
2989.27487	1.55674
2987.34630	1.56497
2985.41774	1.57228
2983.48917	1.57763
2981.56061	1.58206
2979.63204	1.58508
2977.70348	1.58655
2975.77491	1.58879
2973.84635	1.59453
2971.91779	1.60162
2969.98922	1.60683
2968.06066	1.61172
2966.13209	1.61766
2964.20353	1.62185
2962.27496	1.62304
2960.34640	1.62331
2958.41783	1.62332
2956.48927	1.62311
2954.56071	1.62461
2952.63214	1.62870
2950.70358	1.63162
2948.77501	1.63135
2946.84645	1.63228
2944.91788	1.63645
2942.98932	1.64189
2941.06075	1.64781
2939.13219	1.65345
2937.20363	1.65869
2935.27506	1.66553
2933.34650	1.67402
2931.41793	1.68137
2929.48937	1.68709
2927.56080	1.69320
2925.63224	1.70030
2923.70367	1.70562
2921.77511	1.70653
2919.84655	1.70482
2917.91798	1.69884
2915.98942	1.68442
2914.06085	1.66802
2912.13229	1.65574
2910.20372	1.64367
2908.27516	1.63191
2906.34659	1.62472
2904.41803	1.62022
2902.48947	1.61563
2900.56090	1.61256
2898.63234	1.61128
2896.70377	1.60908
2894.77521	1.60616
2892.84664	1.60386
2890.91808	1.60040
2888.98952	1.59496
2887.06095	1.59017
2885.13239	1.58940
2883.20382	1.59210
2881.27526	1.59354
2879.34669	1.59203
2877.41813	1.59125
2875.48956	1.59312
2873.56100	1.59328
2871.63244	1.58876
2869.70387	1.58386
2867.77531	1.58108
2865.84674	1.57743
2863.91818	1.57180
2861.98961	1.56737
2860.06105	1.56774
2858.13248	1.57183
2856.20392	1.57607
2854.27536	1.58325
2852.34679	1.59487
2850.41823	1.59931
2848.48966	1.58539
2846.56110	1.55890
2844.63253	1.53390
2842.70397	1.51637
2840.77540	1.50322
2838.84684	1.49245
2836.91828	1.48529
2834.98971	1.48008
2833.06115	1.47361
2831.13258	1.46644
2829.20402	1.46058
2827.27545	1.45652
2825.34689	1.45359
2823.41832	1.45070
2821.48976	1.44762
2819.56120	1.44405
2817.63263	1.43959
2815.70407	1.43461
2813.77550	1.42855
2811.84694	1.42135
2809.91837	1.41536
2807.98981	1.41198
2806.06124	1.41036
2804.13268	1.40937
2802.20412	1.40761
2800.27555	1.40437
2798.34699	1.40084
2796.41842	1.39811
2794.48986	1.39585
2792.56129	1.39286
2790.63273	1.38907
2788.70416	1.38618
2786.77560	1.38480
2784.84704	1.38351
2782.91847	1.38159
2780.98991	1.37964
2779.06134	1.37742
2777.13278	1.37415
2775.20421	1.37024
2773.27565	1.36727
2771.34708	1.36571
2769.41852	1.36413
2767.48996	1.36212
2765.56139	1.35981
2763.63283	1.35639
2761.70426	1.35282
2759.77570	1.35094
2757.84713	1.34968
2755.91857	1.34664
2753.99001	1.34189
2752.06144	1.33749
2750.13288	1.33488
2748.20431	1.33353
2746.27575	1.33218
2744.34718	1.33114
2742.41862	1.33156
2740.49005	1.33299
2738.56149	1.33366
2736.63293	1.33241
2734.70436	1.32949
2732.77580	1.32575
2730.84723	1.32317
2728.91867	1.32299
2726.99010	1.32278
2725.06154	1.32089
2723.13297	1.31900
2721.20441	1.31715
2719.27585	1.31445
2717.34728	1.31260
2715.41872	1.31184
2713.49015	1.31014
2711.56159	1.30821
2709.63302	1.30679
2707.70446	1.30387
2705.77589	1.29880
2703.84733	1.29373
2701.91877	1.29040
2699.99020	1.28789
2698.06164	1.28544
2696.13307	1.28421
2694.20451	1.28412
2692.27594	1.28354
2690.34738	1.28184
2688.41881	1.27953
2686.49025	1.27735
2684.56169	1.27555
2682.63312	1.27395
2680.70456	1.27232
2678.77599	1.27006
2676.84743	1.26711
2674.91886	1.26494
2672.99030	1.26367
2671.06173	1.26198
2669.13317	1.25987
2667.20461	1.25768
2665.27604	1.25549
2663.34748	1.25388
2661.41891	1.25307
2659.49035	1.25197
2657.56178	1.24954
2655.63322	1.24671
2653.70465	1.24483
2651.77609	1.24355
2649.84753	1.24147
2647.91896	1.23831
2645.99040	1.23554
2644.06183	1.23423
2642.13327	1.23381
2640.20470	1.23300
2638.27614	1.23142
2636.34757	1.22953
2634.41901	1.22712
2632.49045	1.22426
2630.56188	1.22212
2628.63332	1.22098
2626.70475	1.22012
2624.77619	1.21937
2622.84762	1.21830
2620.91906	1.21615
2618.99049	1.21331
2617.06193	1.21040
2615.13337	1.20818
2613.20480	1.20739
2611.27624	1.20709
2609.34767	1.20615
2607.41911	1.20429
2605.49054	1.20166
2603.56198	1.19936
2601.63342	1.19808
2599.70485	1.19717
2597.77629	1.19603
2595.84772	1.19496
2593.91916	1.19371
2591.99059	1.19113
2590.06203	1.18774
2588.13346	1.18538
2586.20490	1.18424
2584.27634	1.18291
2582.34777	1.18086
2580.41921	1.17858
2578.49064	1.17575
2576.56208	1.17258
2574.63351	1.17059
2572.70495	1.16975
2570.77638	1.16864
2568.84782	1.16684
2566.91926	1.16462
2564.99069	1.16222
2563.06213	1.15972
2561.13356	1.15734
2559.20500	1.15553
2557.27643	1.15341
2555.34787	1.15048
2553.41930	1.14867
2551.49074	1.14826
2549.56218	1.14727
2547.63361	1.14564
2545.70505	1.14457
2543.77648	1.14439
2541.84792	1.14430
2539.91935	1.14335
2537.99079	1.14210
2536.06222	1.14143
2534.13366	1.14065
2532.20510	1.13942
2530.27653	1.13864
2528.34797	1.13843
2526.41940	1.13842
2524.49084	1.13858
2522.56227	1.13850
2520.63371	1.13761
2518.70514	1.13583
2516.77658	1.13415
2514.84802	1.13341
2512.91945	1.13268
2510.99089	1.13095
2509.06232	1.12855
2507.13376	1.12668
2505.20519	1.12619
2503.27663	1.12610
2501.34806	1.12493
2499.41950	1.12298
2497.49094	1.12114
2495.56237	1.11929
2493.63381	1.11725
2491.70524	1.11540
2489.77668	1.11376
2487.84811	1.11212
2485.91955	1.11051
2483.99098	1.10899
2482.06242	1.10741
2480.13386	1.10570
2478.20529	1.10423
2476.27673	1.10318
2474.34816	1.10217
2472.41960	1.10125
2470.49103	1.10045
2468.56247	1.09924
2466.63391	1.09774
2464.70534	1.09638
2462.77678	1.09511
2460.84821	1.09372
2458.91965	1.09217
2456.99108	1.09030
2455.06252	1.08782
2453.13395	1.08489
2451.20539	1.08245
2449.27683	1.08094
2447.34826	1.07941
2445.41970	1.07698
2443.49113	1.07397
2441.56257	1.07102
2439.63400	1.06861
2437.70544	1.06652
2435.77687	1.06406
2433.84831	1.06141
2431.91975	1.05892
2429.99118	1.05638
2428.06262	1.05387
2426.13405	1.05205
2424.20549	1.05108
2422.27692	1.05014
2420.34836	1.04866
2418.41979	1.04724
2416.49123	1.04662
2414.56267	1.04662
2412.63410	1.04661
2410.70554	1.04638
2408.77697	1.04571
2406.84841	1.04448
2404.91984	1.04306
2402.99128	1.04184
2401.06271	1.04060
2399.13415	1.03895
2397.20559	1.03710
2395.27702	1.03520
2393.34846	1.03315
2391.41989	1.03115
2389.49133	1.02949
2387.56276	1.02837
2385.63420	1.02799
2383.70563	1.02826
2381.77707	1.02886
2379.84851	1.02992
2377.91994	1.03138
2375.99138	1.03224
2374.06281	1.03257
2372.13425	1.03362
2370.20568	1.03460
2368.27712	1.03476
2366.34855	1.03512
2364.41999	1.03607
2362.49143	1.04214
2360.56286	1.05327
2358.63430	1.05529
2356.70573	1.04553
2354.77717	1.03505
2352.84860	1.02848
2350.92004	1.02609
2348.99147	1.02706
2347.06291	1.03096
2345.13435	1.03758
2343.20578	1.04244
2341.27722	1.04014
2339.34865	1.03379
2337.42009	1.02754
2335.49152	1.02351
2333.56296	1.02430
2331.63440	1.02712
2329.70583	1.02643
2327.77727	1.02354
2325.84870	1.02138
2323.92014	1.01981
2321.99157	1.01782
2320.06301	1.01447
2318.13444	1.01075
2316.20588	1.00803
2314.27732	1.00610
2312.34875	1.00464
2310.42019	1.00304
2308.49162	1.00091
2306.56306	0.99896
2304.63449	0.99760
2302.70593	0.99639
2300.77736	0.99500
2298.84880	0.99362
2296.92024	0.99268
2294.99167	0.99210
2293.06311	0.99114
2291.13454	0.98956
2289.20598	0.98781
2287.27741	0.98620
2285.34885	0.98490
2283.42028	0.98406
2281.49172	0.98337
2279.56316	0.98243
2277.63459	0.98133
2275.70603	0.98043
2273.77746	0.97947
2271.84890	0.97805
2269.92033	0.97684
2267.99177	0.97640
2266.06320	0.97593
2264.13464	0.97466
2262.20608	0.97304
2260.27751	0.97200
2258.34895	0.97189
2256.42038	0.97222
2254.49182	0.97234
2252.56325	0.97236
2250.63469	0.97258
2248.70612	0.97280
2246.77756	0.97310
2244.84900	0.97373
2242.92043	0.97443
2240.99187	0.97486
2239.06330	0.97506
2237.13474	0.97542
2235.20617	0.97617
2233.27761	0.97670
2231.34904	0.97651
2229.42048	0.97628
2227.49192	0.97651
2225.56335	0.97678
2223.63479	0.97678
2221.70622	0.97651
2219.77766	0.97626
2217.84909	0.97612
2215.92053	0.97582
2213.99196	0.97537
2212.06340	0.97516
2210.13484	0.97510
2208.20627	0.97476
2206.27771	0.97438
2204.34914	0.97426
2202.42058	0.97404
2200.49201	0.97369
2198.56345	0.97355
2196.63488	0.97364
2194.70632	0.97374
2192.77776	0.97361
2190.84919	0.97333
2188.92063	0.97324
2186.99206	0.97360
2185.06350	0.97430
2183.13493	0.97467
2181.20637	0.97438
2179.27781	0.97399
2177.34924	0.97386
2175.42068	0.97388
2173.49211	0.97394
2171.56355	0.97406
2169.63498	0.97423
2167.70642	0.97415
2165.77785	0.97355
2163.84929	0.97267
2161.92073	0.97195
2159.99216	0.97148
2158.06360	0.97117
2156.13503	0.97096
2154.20647	0.97064
2152.27790	0.97005
2150.34934	0.96929
2148.42077	0.96850
2146.49221	0.96778
2144.56365	0.96729
2142.63508	0.96726
2140.70652	0.96759
2138.77795	0.96797
2136.84939	0.96808
2134.92082	0.96784
2132.99226	0.96765
2131.06369	0.96761
2129.13513	0.96737
2127.20657	0.96719
2125.27800	0.96753
2123.34944	0.96792
2121.42087	0.96765
2119.49231	0.96713
2117.56374	0.96710
2115.63518	0.96722
2113.70661	0.96694
2111.77805	0.96621
2109.84949	0.96537
2107.92092	0.96489
2105.99236	0.96465
2104.06379	0.96413
2102.13523	0.96299
2100.20666	0.96146
2098.27810	0.96037
2096.34953	0.96003
2094.42097	0.96000
2092.49241	0.96003
2090.56384	0.96000
2088.63528	0.95989
2086.70671	0.95991
2084.77815	0.95986
2082.84958	0.95929
2080.92102	0.95873
2078.99245	0.95881
2077.06389	0.95918
2075.13533	0.95921
2073.20676	0.95886
2071.27820	0.95863
2069.34963	0.95889
2067.42107	0.95923
2065.49250	0.95893
2063.56394	0.95819
2061.63537	0.95758
2059.70681	0.95684
2057.77825	0.95583
2055.84968	0.95502
2053.92112	0.95459
2051.99255	0.95429
2050.06399	0.95382
2048.13542	0.95307
2046.20686	0.95203
2044.27830	0.95074
2042.34973	0.94957
2040.42117	0.94871
2038.49260	0.94759
2036.56404	0.94576
2034.63547	0.94379
2032.70691	0.94218
2030.77834	0.94073
2028.84978	0.93927
2026.92122	0.93781
2024.99265	0.93623
2023.06409	0.93469
2021.13552	0.93362
2019.20696	0.93275
2017.27839	0.93125
2015.34983	0.92938
2013.42126	0.92817
2011.49270	0.92753
2009.56414	0.92689
2007.63557	0.92638
2005.70701	0.92617
2003.77844	0.92590
2001.84988	0.92540
1999.92131	0.92500
1997.99275	0.92478
1996.06418	0.92482
1994.13562	0.92531
1992.20706	0.92559
1990.27849	0.92531
1988.34993	0.92497
1986.42136	0.92470
1984.49280	0.92465
1982.56423	0.92503
1980.63567	0.92560
1978.70710	0.92602
1976.77854	0.92634
1974.84998	0.92671
1972.92141	0.92710
1970.99285	0.92774
1969.06428	0.92871
1967.13572	0.92906
1965.20715	0.92859
1963.27859	0.92825
1961.35002	0.92842
1959.42146	0.92895
1957.49290	0.92957
1955.56433	0.93004
1953.63577	0.93018
1951.70720	0.93010
1949.77864	0.93026
1947.85007	0.93115
1945.92151	0.93303
1943.99294	0.93488
1942.06438	0.93500
1940.13582	0.93421
1938.20725	0.93422
1936.27869	0.93493
1934.35012	0.93573
1932.42156	0.93625
1930.49299	0.93642
1928.56443	0.93651
1926.63586	0.93712
1924.70730	0.93794
1922.77874	0.93756
1920.85017	0.93649
1918.92161	0.93542
1916.99304	0.93336
1915.06448	0.93129
1913.13591	0.93044
1911.20735	0.92998
1909.27878	0.92875
1907.35022	0.92681
1905.42166	0.92496
1903.49309	0.92345
1901.56453	0.92208
1899.63596	0.92104
1897.70740	0.92045
1895.77883	0.91954
1893.85027	0.91851
1891.92171	0.91843
1889.99314	0.91819
1888.06458	0.91713
1886.13601	0.91676
1884.20745	0.91701
1882.27888	0.91696
1880.35032	0.91657
1878.42175	0.91618
1876.49319	0.91608
1874.56463	0.91635
1872.63606	0.91745
1870.70750	0.91914
1868.77893	0.91888
1866.85037	0.91602
1864.92180	0.91409
1862.99324	0.91363
1861.06467	0.91350
1859.13611	0.91304
1857.20755	0.91208
1855.27898	0.91113
1853.35042	0.91075
1851.42185	0.91105
1849.49329	0.91197
1847.56472	0.91315
1845.63616	0.91349
1843.70759	0.91143
1841.77903	0.90919
1839.85047	0.90889
1837.92190	0.90908
1835.99334	0.90869
1834.06477	0.90913
1832.13621	0.91116
1830.20764	0.91249
1828.27908	0.91211
1826.35051	0.91200
1824.42195	0.91174
1822.49339	0.91148
1820.56482	0.91229
1818.63626	0.91356
1816.70769	0.91436
1814.77913	0.91528
1812.85056	0.91676
1810.92200	0.91759
1808.99343	0.91730
1807.06487	0.91706
1805.13631	0.91765
1803.20774	0.91881
1801.27918	0.91929
1799.35061	0.91873
1797.42205	0.91871
1795.49348	0.91980
1793.56492	0.92054
1791.63635	0.91857
1789.70779	0.91576
1787.77923	0.91482
1785.85066	0.91495
1783.92210	0.91545
1781.99353	0.91605
1780.06497	0.91584
1778.13640	0.91569
1776.20784	0.91716
1774.27927	0.91967
1772.35071	0.92041
1770.42215	0.91888
1768.49358	0.91809
1766.56502	0.91867
1764.63645	0.92069
1762.70789	0.92297
1760.77932	0.92451
1758.85076	0.92656
1756.92220	0.92918
1754.99363	0.93229
1753.06507	0.93707
1751.13650	0.94392
1749.20794	0.95077
1747.27937	0.95587
1745.35081	0.96074
1743.42224	0.96608
1741.49368	0.97121
1739.56512	0.97583
1737.63655	0.98077
1735.70799	0.98712
1733.77942	0.99490
1731.85086	1.00080
1729.92229	1.00586
1727.99373	1.01222
1726.06516	1.02061
1724.13660	1.03165
1722.20804	1.04390
1720.27947	1.05703
1718.35091	1.07565
1716.42234	1.09866
1714.49378	1.11295
1712.56521	1.12419
1710.63665	1.13828
1708.70808	1.15560
1706.77952	1.17867
1704.85096	1.20781
1702.92239	1.23612
1700.99383	1.27426
1699.06526	1.33140
1697.13670	1.38541
1695.20813	1.43910
1693.27957	1.48198
1691.35100	1.51850
1689.42244	1.56146
1687.49388	1.60206
1685.56531	1.64597
1683.63675	1.70857
1681.70818	1.74597
1679.77962	1.76533
1677.85105	1.78538
1675.92249	1.80705
1673.99392	1.82665
1672.06536	1.84364
1670.13680	1.86056
1668.20823	1.87341
1666.27967	1.88119
1664.35110	1.88859
1662.42254	1.89387
1660.49397	1.89667
1658.56541	1.90018
1656.63684	1.90360
1654.70828	1.90708
1652.77972	1.89982
1650.85115	1.89313
1648.92259	1.89621
1646.99402	1.89442
1645.06546	1.88364
1643.13689	1.87693
1641.20833	1.87526
1639.27976	1.87378
1637.35120	1.86683
1635.42264	1.85541
1633.49407	1.85223
1631.56551	1.85260
1629.63694	1.85036
1627.70838	1.84564
1625.77981	1.83902
1623.85125	1.82932
1621.92269	1.81873
1619.99412	1.81294
1618.06556	1.80750
1616.13699	1.79072
1614.20843	1.77151
1612.27986	1.75658
1610.35130	1.74094
1608.42273	1.72406
1606.49417	1.70860
1604.56561	1.69634
1602.63704	1.68712
1600.70848	1.68043
1598.77991	1.67623
1596.85135	1.67455
1594.92278	1.67394
1592.99422	1.67367
1591.06565	1.67477
1589.13709	1.67824
1587.20853	1.68483
1585.27996	1.69379
1583.35140	1.70456
1581.42283	1.71619
1579.49427	1.72729
1577.56570	1.73895
1575.63714	1.74857
1573.70857	1.75253
1571.78001	1.75719
1569.85145	1.76707
1567.92288	1.77883
1565.99432	1.78718
1564.06575	1.79429
1562.13719	1.80112
1560.20862	1.80929
1558.28006	1.82032
1556.35149	1.82549
1554.42293	1.82616
1552.49437	1.82546
1550.56580	1.82304
1548.63724	1.81784
1546.70867	1.81524
1544.78011	1.81778
1542.85154	1.82199
1540.92298	1.81612
1538.99441	1.79915
1537.06585	1.79297
1535.13729	1.78883
1533.20872	1.78030
1531.28016	1.77330
1529.35159	1.77004
1527.42303	1.76484
1525.49446	1.75871
1523.56590	1.75722
1521.63733	1.75567
1519.70877	1.75122
1517.78021	1.74383
1515.85164	1.73170
1513.92308	1.72009
1511.99451	1.71142
1510.06595	1.70620
1508.13738	1.69258
1506.20882	1.64635
1504.28025	1.61899
1502.35169	1.60600
1500.42313	1.59088
1498.49456	1.56872
1496.56600	1.54193
1494.63743	1.52398
1492.70887	1.51524
1490.78030	1.50632
1488.85174	1.49118
1486.92317	1.47728
1484.99461	1.46927
1483.06605	1.46678
1481.13748	1.46956
1479.20892	1.47630
1477.28035	1.48752
1475.35179	1.50431
1473.42322	1.52553
1471.49466	1.54507
1469.56610	1.55838
1467.63753	1.57000
1465.70897	1.58184
1463.78040	1.59136
1461.85184	1.59869
1459.92327	1.60755
1457.99471	1.61758
1456.06614	1.61909
1454.13758	1.61729
1452.20902	1.61656
1450.28045	1.61479
1448.35189	1.61090
1446.42332	1.60550
1444.49476	1.60048
1442.56619	1.59592
1440.63763	1.59227
1438.70906	1.58903
1436.78050	1.58230
1434.85194	1.57383
1432.92337	1.56913
1430.99481	1.56550
1429.06624	1.56082
1427.13768	1.55786
1425.20911	1.55779
1423.28055	1.55958
1421.35198	1.56308
1419.42342	1.56899
1417.49486	1.57441
1415.56629	1.57650
1413.63773	1.57755
1411.70916	1.57766
1409.78060	1.57615
1407.85203	1.57486
1405.92347	1.57473
1403.99490	1.57406
1402.06634	1.57324
1400.13778	1.57258
1398.20921	1.57034
1396.28065	1.56662
1394.35208	1.56298
1392.42352	1.56160
1390.49495	1.56269
1388.56639	1.56623
1386.63782	1.57282
1384.70926	1.58015
1382.78070	1.58680
1380.85213	1.59219
1378.92357	1.59414
1376.99500	1.59175
1375.06644	1.58482
1373.13787	1.57448
1371.20931	1.56433
1369.28074	1.55315
1367.35218	1.54044
1365.42362	1.52980
1363.49505	1.51961
1361.56649	1.50689
1359.63792	1.49606
1357.70936	1.48924
1355.78079	1.48431
1353.85223	1.48036
1351.92366	1.47721
1349.99510	1.47380
1348.06654	1.47064
1346.13797	1.46843
1344.20941	1.46677
1342.28084	1.46653
1340.35228	1.46753
1338.42371	1.46725
1336.49515	1.46664
1334.56659	1.46797
1332.63802	1.47055
1330.70946	1.47386
1328.78089	1.47754
1326.85233	1.48012
1324.92376	1.48148
1322.99520	1.48378
1321.06663	1.48758
1319.13807	1.49033
1317.20951	1.49069
1315.28094	1.49058
1313.35238	1.49112
1311.42381	1.49122
1309.49525	1.49055
1307.56668	1.48991
1305.63812	1.48907
1303.70955	1.48722
1301.78099	1.48448
1299.85243	1.48186
1297.92386	1.47963
1295.99530	1.47689
1294.06673	1.47387
1292.13817	1.47198
1290.20960	1.47112
1288.28104	1.47051
1286.35247	1.47058
1284.42391	1.47148
1282.49535	1.47212
1280.56678	1.47161
1278.63822	1.47071
1276.70965	1.47123
1274.78109	1.47353
1272.85252	1.47611
1270.92396	1.47803
1268.99539	1.48009
1267.06683	1.48264
1265.13827	1.48467
1263.20970	1.48531
1261.28114	1.48411
1259.35257	1.48123
1257.42401	1.47774
1255.49544	1.47440
1253.56688	1.47140
1251.63831	1.46856
1249.70975	1.46566
1247.78119	1.46288
1245.85262	1.46012
1243.92406	1.45688
1241.99549	1.45320
1240.06693	1.44913
1238.13836	1.44440
1236.20980	1.43935
1234.28123	1.43414
1232.35267	1.42794
1230.42411	1.42021
1228.49554	1.41116
1226.56698	1.40156
1224.63841	1.39218
1222.70985	1.38307
1220.78128	1.37397
1218.85272	1.36566
1216.92415	1.35956
1214.99559	1.35607
1213.06703	1.35504
1211.13846	1.35658
1209.20990	1.35972
1207.28133	1.36244
1205.35277	1.36273
1203.42420	1.35957
1201.49564	1.35396
1199.56708	1.34718
1197.63851	1.33866
1195.70995	1.32832
1193.78138	1.31811
1191.85282	1.30954
1189.92425	1.30243
1187.99569	1.29631
1186.06712	1.29175
1184.13856	1.28940
1182.21000	1.28956
1180.28143	1.29279
1178.35287	1.29930
1176.42430	1.30849
1174.49574	1.31910
1172.56717	1.33002
1170.63861	1.34191
1168.71004	1.35686
1166.78148	1.37626
1164.85292	1.40009
1162.92435	1.42646
1160.99579	1.45256
1159.06722	1.47545
1157.13866	1.49158
1155.21009	1.49891
1153.28153	1.49848
1151.35296	1.49231
1149.42440	1.48179
1147.49584	1.46842
1145.56727	1.45506
1143.63871	1.44454
1141.71014	1.43755
1139.78158	1.43386
1137.85301	1.43449
1135.92445	1.43986
1133.99588	1.44773
1132.06732	1.45656
1130.13876	1.46700
1128.21019	1.47839
1126.28163	1.48931
1124.35306	1.49973
1122.42450	1.51064
1120.49593	1.52140
1118.56737	1.52901
1116.63880	1.53330
1114.71024	1.53647
1112.78168	1.53704
1110.85311	1.53350
1108.92455	1.53022
1106.99598	1.53008
1105.06742	1.52897
1103.13885	1.52470
1101.21029	1.52131
1099.28172	1.52195
1097.35316	1.52516
1095.42460	1.52889
1093.49603	1.53480
1091.56747	1.54463
1089.63890	1.55720
1087.71034	1.57279
1085.78177	1.59153
1083.85321	1.60875
1081.92464	1.61999
1079.99608	1.62483
1078.06752	1.62469
1076.13895	1.62215
1074.21039	1.61809
1072.28182	1.61064
1070.35326	1.60063
1068.42469	1.59080
1066.49613	1.58050
1064.56756	1.56941
1062.63900	1.56042
1060.71044	1.55486
1058.78187	1.55134
1056.85331	1.54839
1054.92474	1.54572
1052.99618	1.54344
1051.06761	1.54203
1049.13905	1.54280
1047.21049	1.54693
1045.28192	1.55433
1043.35336	1.56205
1041.42479	1.56599
1039.49623	1.56681
1037.56766	1.56900
1035.63910	1.57354
1033.71053	1.57705
1031.78197	1.57705
1029.85341	1.57369
1027.92484	1.56786
1025.99628	1.56071
1024.06771	1.55420
1022.13915	1.54868
1020.21058	1.54189
1018.28202	1.53340
1016.35345	1.52454
1014.42489	1.51498
1012.49633	1.50415
1010.56776	1.49170
1008.63920	1.47658
1006.71063	1.45940
1004.78207	1.44291
1002.85350	1.42893
1000.92494	1.41794
998.99637	1.41091
997.06781	1.40749
995.13925	1.40445
993.21068	1.39948
991.28212	1.39220
989.35355	1.38189
987.42499	1.36789
985.49642	1.35037
983.56786	1.33056
981.63929	1.31087
979.71073	1.29290
977.78217	1.27673
975.85360	1.26210
973.92504	1.24872
971.99647	1.23593
970.06791	1.22313
968.13934	1.21119
966.21078	1.20215
964.28221	1.19745
962.35365	1.19795
960.42509	1.20415
958.49652	1.21403
956.56796	1.22209
954.63939	1.22363
952.71083	1.21874
950.78226	1.21003
948.85370	1.19929
946.92513	1.18750
944.99657	1.17555
943.06801	1.16415
941.13944	1.15330
939.21088	1.14230
937.28231	1.13102
935.35375	1.12040
933.42518	1.11138
931.49662	1.10424
929.56805	1.09925
927.63949	1.09676
925.71093	1.09679
923.78236	1.09932
921.85380	1.10360
919.92523	1.10842
917.99667	1.11390
916.06810	1.12087
914.13954	1.12955
912.21098	1.14015
910.28241	1.15278
908.35385	1.16715
906.42528	1.18284
904.49672	1.19901
902.56815	1.21433
900.63959	1.22713
898.71102	1.23613
896.78246	1.24123
894.85390	1.24293
892.92533	1.24108
890.99677	1.23480
889.06820	1.22467
887.13964	1.21318
885.21107	1.20198
883.28251	1.19145
881.35394	1.18151
879.42538	1.17178
877.49682	1.16283
875.56825	1.15626
873.63969	1.15289
871.71112	1.15237
869.78256	1.15467
867.85399	1.15954
865.92543	1.16608
863.99686	1.17420
862.06830	1.18464
860.13974	1.19733
858.21117	1.21124
856.28261	1.22572
854.35404	1.24015
852.42548	1.25343
850.49691	1.26559
848.56835	1.27747
846.63978	1.28876
844.71122	1.29818
842.78266	1.30489
840.85409	1.30916
838.92553	1.31134
836.99696	1.31076
835.06840	1.30725
833.13983	1.30229
831.21127	1.29671
829.28270	1.29024
827.35414	1.28330
825.42558	1.27665
823.49701	1.27026
821.56845	1.26398
819.63988	1.25906
817.71132	1.25680
815.78275	1.25664
813.85419	1.25738
811.92562	1.25841
809.99706	1.25994
808.06850	1.26287
806.13993	1.26736
804.21137	1.27314
802.28280	1.28102
800.35424	1.29157
798.42567	1.30324
796.49711	1.31457
794.56854	1.32608
792.63998	1.33785
790.71142	1.34900
788.78285	1.36041
786.85429	1.37344
784.92572	1.38672
782.99716	1.39824
781.06859	1.40820
779.14003	1.41758
777.21147	1.42601
775.28290	1.43223
773.35434	1.43608
771.42577	1.43827
769.49721	1.43942
767.56864	1.43939
765.64008	1.43650
763.71151	1.43124
761.78295	1.42770
759.85439	1.42722
757.92582	1.42768
755.99726	1.42785
754.06869	1.42844
752.14013	1.43056
750.21156	1.43350
748.28300	1.43596
746.35443	1.43896
744.42587	1.44296
742.49731	1.44552
740.56874	1.44626
738.64018	1.44789
736.71161	1.45070
734.78305	1.45283
732.85448	1.45407
730.92592	1.45538
728.99735	1.45698
727.06879	1.45892
725.14023	1.46219
723.21166	1.46623
721.28310	1.46830
719.35453	1.46774
717.42597	1.46765
715.49740	1.46925
713.56884	1.46972
711.64027	1.46832
709.71171	1.46775
707.78315	1.46858
705.85458	1.46977
703.92602	1.47129
701.99745	1.47316
700.06889	1.47466
698.14032	1.47642
696.21176	1.48142
694.28319	1.48874
692.35463	1.49400
690.42607	1.49778
688.49750	1.50262
686.56894	1.50793
684.64037	1.51195
682.71181	1.51388
680.78324	1.51534
678.85468	1.51781
676.92611	1.52097
674.99755	1.52506
673.06899	1.52952
671.14042	1.53171
669.21186	1.52832
667.28329	1.52084
665.35473	1.51836
663.42616	1.51934
661.49760	1.52137
659.56903	1.52237
657.64047	1.51981
655.71191	1.51532
653.78334	1.51383
651.85478	1.51308
649.92621	1.50801
647.99765	1.50357
646.06908	1.50491
644.14052	1.50813
642.21195	1.51038
640.28339	1.51362
638.35483	1.51586
636.42626	1.51276
634.49770	1.50660
632.56913	1.50392
630.64057	1.50818
628.71200	1.51601
626.78344	1.52003
624.85488	1.51793
622.92631	1.51103
620.99775	1.50010
619.06918	1.49023
617.14062	1.48629
615.21205	1.48629
613.28349	1.48463
611.35492	1.47700
609.42636	1.46552
607.49780	1.45598
605.56923	1.44948
603.64067	1.44483
601.71210	1.44385
599.78354	1.44778
