3997.91406	0.84369
3995.98550	0.84448
3994.05693	0.84413
3992.12837	0.84332
3990.19980	0.84349
3988.27124	0.84529
3986.34268	0.84685
3984.41411	0.84640
3982.48555	0.84462
3980.55698	0.84293
3978.62842	0.84286
3976.69985	0.84520
3974.77129	0.84743
3972.84272	0.84751
3970.91416	0.84686
3968.98560	0.84598
3967.05703	0.84422
3965.12847	0.84226
3963.19990	0.84123
3961.27134	0.84136
3959.34277	0.84109
3957.41421	0.83910
3955.48564	0.83713
3953.55708	0.83684
3951.62852	0.83669
3949.69995	0.83530
3947.77139	0.83434
3945.84282	0.83556
3943.91426	0.83700
3941.98569	0.83608
3940.05713	0.83429
3938.12856	0.83353
3936.20000	0.83448
3934.27144	0.83769
3932.34287	0.83959
3930.41431	0.83659
3928.48574	0.83433
3926.55718	0.83555
3924.62861	0.83660
3922.70005	0.83652
3920.77148	0.83658
3918.84292	0.83591
3916.91436	0.83488
3914.98579	0.83553
3913.05723	0.83660
3911.12866	0.83663
3909.20010	0.83834
3907.27153	0.84391
3905.34297	0.84939
3903.41440	0.84782
3901.48584	0.84228
3899.55728	0.83849
3897.62871	0.83695
3895.70015	0.83869
3893.77158	0.84101
3891.84302	0.83925
3889.91445	0.83820
3887.98589	0.84137
3886.05733	0.84199
3884.12876	0.83889
3882.20020	0.83686
3880.27163	0.83360
3878.34307	0.83274
3876.41450	0.83630
3874.48594	0.84032
3872.55737	0.84288
3870.62881	0.84151
3868.70025	0.83720
3866.77168	0.83567
3864.84312	0.83475
3862.91455	0.83327
3860.98599	0.83501
3859.05742	0.84044
3857.12886	0.84654
3855.20029	0.84573
3853.27173	0.83069
3851.34317	0.82439
3849.41460	0.82904
3847.48604	0.83503
3845.55747	0.84028
3843.62891	0.84356
3841.70034	0.84585
3839.77178	0.84718
3837.84321	0.84373
3835.91465	0.83892
3833.98609	0.83478
3832.05752	0.82992
3830.12896	0.82766
3828.20039	0.82954
3826.27183	0.83365
3824.34326	0.83773
3822.41470	0.83694
3820.48613	0.83075
3818.55757	0.83085
3816.62901	0.83117
3814.70044	0.82771
3812.77188	0.82830
3810.84331	0.83221
3808.91475	0.83537
3806.98618	0.83496
3805.05762	0.83505
3803.12905	0.83716
3801.20049	0.83654
3799.27193	0.83599
3797.34336	0.83417
3795.41480	0.83034
3793.48623	0.83031
3791.55767	0.83230
3789.62910	0.83347
3787.70054	0.83534
3785.77197	0.83720
3783.84341	0.83672
3781.91485	0.83573
3779.98628	0.83489
3778.05772	0.83366
3776.12915	0.83322
3774.20059	0.83460
3772.27202	0.83799
3770.34346	0.83971
3768.41489	0.83828
3766.48633	0.83646
3764.55777	0.83509
3762.62920	0.83768
3760.70064	0.84313
3758.77207	0.84540
3756.84351	0.84618
3754.91494	0.85043
3752.98638	0.85579
3751.05781	0.85535
3749.12925	0.85208
3747.20069	0.85316
3745.27212	0.85265
3743.34356	0.85067
3741.41499	0.85447
3739.48643	0.86113
3737.55786	0.86459
3735.62930	0.85919
3733.70074	0.84842
3731.77217	0.84446
3729.84361	0.84723
3727.91504	0.85001
3725.98648	0.84824
3724.05791	0.84516
3722.12935	0.84448
3720.20078	0.84314
3718.27222	0.84201
3716.34366	0.84524
3714.41509	0.85260
3712.48653	0.85613
3710.55796	0.84739
3708.62940	0.84070
3706.70083	0.84140
3704.77227	0.84377
3702.84370	0.84315
3700.91514	0.84036
3698.98658	0.84104
3697.05801	0.84471
3695.12945	0.84980
3693.20088	0.85658
3691.27232	0.86310
3689.34375	0.86238
3687.41519	0.85680
3685.48662	0.85570
3683.55806	0.85936
3681.62950	0.86577
3679.70093	0.87321
3677.77237	0.87937
3675.84380	0.87813
3673.91524	0.87644
3671.98667	0.88147
3670.05811	0.88346
3668.12954	0.88308
3666.20098	0.88783
3664.27242	0.89498
3662.34385	0.90208
3660.41529	0.90991
3658.48672	0.91856
3656.55816	0.92488
3654.62959	0.93023
3652.70103	0.94070
3650.77246	0.95489
3648.84390	0.95924
3646.91534	0.95776
3644.98677	0.96308
3643.05821	0.97172
3641.12964	0.98018
3639.20108	0.98628
3637.27251	0.99129
3635.34395	0.99887
3633.41538	1.01092
3631.48682	1.02229
3629.55826	1.02584
3627.62969	1.02948
3625.70113	1.04169
3623.77256	1.05469
3621.84400	1.06600
3619.91543	1.07623
3617.98687	1.08362
3616.05830	1.09005
3614.12974	1.09754
3612.20118	1.10492
3610.27261	1.11229
3608.34405	1.11883
3606.41548	1.12424
3604.48692	1.13216
3602.55835	1.14344
3600.62979	1.15372
3598.70123	1.16019
3596.77266	1.16522
3594.84410	1.17006
3592.91553	1.17614
3590.98697	1.18504
3589.05840	1.19652
3587.12984	1.20761
3585.20127	1.21629
3583.27271	1.22294
3581.34415	1.22657
3579.41558	1.22879
3577.48702	1.23297
3575.55845	1.24085
3573.62989	1.25115
3571.70132	1.26239
3569.77276	1.27306
3567.84419	1.27961
3565.91563	1.28370
3563.98707	1.29126
3562.05850	1.29993
3560.12994	1.30725
3558.20137	1.31496
3556.27281	1.32458
3554.34424	1.33543
3552.41568	1.34649
3550.48711	1.35599
3548.55855	1.36509
3546.62999	1.37613
3544.70142	1.38487
3542.77286	1.38718
3540.84429	1.38771
3538.91573	1.39098
3536.98716	1.39803
3535.05860	1.40599
3533.13003	1.41235
3531.20147	1.42020
3529.27291	1.42894
3527.34434	1.43623
3525.41578	1.44620
3523.48721	1.45728
3521.55865	1.46349
3519.63008	1.46559
3517.70152	1.46769
3515.77295	1.47423
3513.84439	1.48756
3511.91583	1.50372
3509.98726	1.51546
3508.05870	1.52198
3506.13013	1.53022
3504.20157	1.54314
3502.27300	1.55385
3500.34444	1.55921
3498.41587	1.56638
3496.48731	1.57711
3494.55875	1.58589
3492.63018	1.59203
3490.70162	1.59900
3488.77305	1.60489
3486.84449	1.60947
3484.91592	1.61577
3482.98736	1.62342
3481.05879	1.63050
3479.13023	1.63387
3477.20167	1.63551
3475.27310	1.63868
3473.34454	1.63880
3471.41597	1.63669
3469.48741	1.63941
3467.55884	1.64321
3465.63028	1.64246
3463.70171	1.64104
3461.77315	1.63926
3459.84459	1.63672
3457.91602	1.63922
3455.98746	1.64529
3454.05889	1.65036
3452.13033	1.65825
3450.20176	1.66898
3448.27320	1.67571
3446.34464	1.67597
3444.41607	1.67098
3442.48751	1.66539
3440.55894	1.66636
3438.63038	1.67227
3436.70181	1.67580
3434.77325	1.67696
3432.84468	1.68043
3430.91612	1.68497
3428.98756	1.68254
3427.05899	1.67303
3425.13043	1.66790
3423.20186	1.66835
3421.27330	1.66644
3419.34473	1.66565
3417.41617	1.67009
3415.48760	1.67652
3413.55904	1.68379
3411.63048	1.68974
3409.70191	1.69134
3407.77335	1.68861
3405.84478	1.68334
3403.91622	1.67859
3401.98765	1.67745
3400.05909	1.67956
3398.13052	1.68089
3396.20196	1.68101
3394.27340	1.68349
3392.34483	1.68894
3390.41627	1.69550
3388.48770	1.69860
3386.55914	1.69526
3384.63057	1.69303
3382.70201	1.69853
3380.77344	1.70638
3378.84488	1.70915
3376.91632	1.70432
3374.98775	1.69679
3373.05919	1.69597
3371.13062	1.69994
3369.20206	1.69843
3367.27349	1.69427
3365.34493	1.69540
3363.41636	1.70135
3361.48780	1.71213
3359.55924	1.72384
3357.63067	1.72677
3355.70211	1.72438
3353.77354	1.72653
3351.84498	1.72939
3349.91641	1.72544
3347.98785	1.71814
3346.05928	1.71600
3344.13072	1.72155
3342.20216	1.72616
3340.27359	1.72324
3338.34503	1.72067
3336.41646	1.72426
3334.48790	1.72993
3332.55933	1.73511
3330.63077	1.74231
3328.70220	1.75015
3326.77364	1.74944
3324.84508	1.74105
3322.91651	1.73729
3320.98795	1.74147
3319.05938	1.74866
3317.13082	1.75525
3315.20225	1.75856
3313.27369	1.75454
3311.34513	1.74713
3309.41656	1.74612
3307.48800	1.75045
3305.55943	1.75367
3303.63087	1.75627
3301.70230	1.76204
3299.77374	1.76860
3297.84517	1.77025
3295.91661	1.76891
3293.98805	1.76727
3292.05948	1.76506
3290.13092	1.76423
3288.20235	1.76282
3286.27379	1.75569
3284.34522	1.74817
3282.41666	1.75097
3280.48809	1.75714
3278.55953	1.75213
3276.63097	1.74295
3274.70240	1.74226
3272.77384	1.74398
3270.84527	1.73910
3268.91671	1.73008
3266.98814	1.72125
3265.05958	1.71690
3263.13101	1.71957
3261.20245	1.72154
3259.27389	1.71378
3257.34532	1.70267
3255.41676	1.69807
3253.48819	1.69461
3251.55963	1.68510
3249.63106	1.67564
3247.70250	1.67185
3245.77393	1.66781
3243.84537	1.65903
3241.91681	1.65054
3239.98824	1.64533
3238.05968	1.64457
3236.13111	1.64811
3234.20255	1.65068
3232.27398	1.64998
3230.34542	1.64489
3228.41685	1.63485
3226.48829	1.62741
3224.55973	1.62741
3222.63116	1.63066
3220.70260	1.63274
3218.77403	1.63035
3216.84547	1.62265
3214.91690	1.61371
3212.98834	1.60592
3211.05977	1.59945
3209.13121	1.59561
3207.20265	1.59341
3205.27408	1.59086
3203.34552	1.58963
3201.41695	1.58943
3199.48839	1.58562
3197.55982	1.57886
3195.63126	1.57156
3193.70269	1.56290
3191.77413	1.55760
3189.84557	1.55843
3187.91700	1.55805
3185.98844	1.55356
3184.05987	1.55030
3182.13131	1.54854
3180.20274	1.54586
3178.27418	1.54351
3176.34562	1.54072
3174.41705	1.53548
3172.48849	1.52882
3170.55992	1.52206
3168.63136	1.51600
3166.70279	1.51020
3164.77423	1.50536
3162.84566	1.50374
3160.91710	1.50333
3158.98854	1.50123
3157.05997	1.49863
3155.13141	1.49657
3153.20284	1.49534
3151.27428	1.49483
3149.34571	1.49271
3147.41715	1.48862
3145.48858	1.48595
3143.56002	1.48745
3141.63146	1.49173
3139.70289	1.49355
3137.77433	1.49082
3135.84576	1.48743
3133.91720	1.48691
3131.98863	1.48944
3130.06007	1.49169
3128.13150	1.49059
3126.20294	1.48703
3124.27438	1.48308
3122.34581	1.48054
3120.41725	1.48096
3118.48868	1.48302
3116.56012	1.48371
3114.63155	1.48236
3112.70299	1.48010
3110.77442	1.47885
3108.84586	1.48079
3106.91730	1.48370
3104.98873	1.48341
3103.06017	1.48045
3101.13160	1.47724
3099.20304	1.47467
3097.27447	1.47292
3095.34591	1.47099
3093.41734	1.46807
3091.48878	1.46608
3089.56022	1.46576
3087.63165	1.46458
3085.70309	1.46353
3083.77452	1.46569
3081.84596	1.46825
3079.91739	1.46765
3077.98883	1.46487
3076.06026	1.46075
3074.13170	1.45626
3072.20314	1.45262
3070.27457	1.44936
3068.34601	1.44698
3066.41744	1.44577
3064.48888	1.44271
3062.56031	1.43554
3060.63175	1.42665
3058.70318	1.41985
3056.77462	1.41668
3054.84606	1.41531
3052.91749	1.41255
3050.98893	1.40843
3049.06036	1.40430
3047.13180	1.40075
3045.20323	1.39915
3043.27467	1.39899
3041.34610	1.39778
3039.41754	1.39440
3037.48898	1.38845
3035.56041	1.38101
3033.63185	1.37649
3031.70328	1.37625
3029.77472	1.37477
3027.84615	1.36973
3025.91759	1.36530
3023.98903	1.36358
3022.06046	1.36248
3020.13190	1.36076
3018.20333	1.35970
3016.27477	1.35900
3014.34620	1.35738
3012.41764	1.35532
3010.48907	1.35345
3008.56051	1.35291
3006.63195	1.35383
3004.70338	1.35385
3002.77482	1.35181
3000.84625	1.34817
2998.91769	1.34388
2996.98912	1.34165
2995.06056	1.34288
2993.13199	1.34567
2991.20343	1.34911
2989.27487	1.35353
2987.34630	1.35849
2985.41774	1.36369
2983.48917	1.36960
2981.56061	1.37677
2979.63204	1.38426
2977.70348	1.39122
2975.77491	1.39796
2973.84635	1.40318
2971.91779	1.40702
2969.98922	1.41269
2968.06066	1.42071
2966.13209	1.42857
2964.20353	1.43389
2962.27496	1.43525
2960.34640	1.43382
2958.41783	1.43121
2956.48927	1.42816
2954.56071	1.42599
2952.63214	1.42362
2950.70358	1.41917
2948.77501	1.41405
2946.84645	1.41126
2944.91788	1.41421
2942.98932	1.42319
2941.06075	1.43320
2939.13219	1.44055
2937.20363	1.44723
2935.27506	1.45732
2933.34650	1.47067
2931.41793	1.48254
2929.48937	1.49104
2927.56080	1.49803
2925.63224	1.50446
2923.70367	1.51095
2921.77511	1.51601
2919.84655	1.51595
2917.91798	1.50856
2915.98942	1.49307
2914.06085	1.47139
2912.13229	1.44772
2910.20372	1.42723
2908.27516	1.41339
2906.34659	1.40328
2904.41803	1.39356
2902.48947	1.38655
2900.56090	1.38342
2898.63234	1.38042
2896.70377	1.37588
2894.77521	1.37220
2892.84664	1.36967
2890.91808	1.36636
2888.98952	1.36304
2887.06095	1.36143
2885.13239	1.36025
2883.20382	1.35806
2881.27526	1.35649
2879.34669	1.35704
2877.41813	1.35855
2875.48956	1.35827
2873.56100	1.35459
2871.63244	1.34885
2869.70387	1.34265
2867.77531	1.33657
2865.84674	1.33172
2863.91818	1.32812
2861.98961	1.32543
2860.06105	1.32524
2858.13248	1.32836
2856.20392	1.33406
2854.27536	1.34223
2852.34679	1.35193
2850.41823	1.35687
2848.48966	1.34701
2846.56110	1.32182
2844.63253	1.29213
2842.70397	1.26677
2840.77540	1.24894
2838.84684	1.23791
2836.91828	1.23048
2834.98971	1.22415
2833.06115	1.21709
2831.13258	1.20954
2829.20402	1.20425
2827.27545	1.20092
2825.34689	1.19739
2823.41832	1.19426
2821.48976	1.19155
2819.56120	1.18784
2817.63263	1.18376
2815.70407	1.18094
2813.77550	1.17900
2811.84694	1.17636
2809.91837	1.17288
2807.98981	1.16934
2806.06124	1.16618
2804.13268	1.16355
2802.20412	1.16152
2800.27555	1.15947
2798.34699	1.15629
2796.41842	1.15233
2794.48986	1.14869
2792.56129	1.14509
2790.63273	1.14145
2788.70416	1.13924
2786.77560	1.13887
2784.84704	1.13868
2782.91847	1.13681
2780.98991	1.13252
2779.06134	1.12754
2777.13278	1.12442
2775.20421	1.12297
2773.27565	1.12139
2771.34708	1.11912
2769.41852	1.11710
2767.48996	1.11550
2765.56139	1.11325
2763.63283	1.11060
2761.70426	1.10885
2759.77570	1.10764
2757.84713	1.10614
2755.91857	1.10467
2753.99001	1.10347
2752.06144	1.10260
2750.13288	1.10230
2748.20431	1.10194
2746.27575	1.10084
2744.34718	1.09942
2742.41862	1.09792
2740.49005	1.09672
2738.56149	1.09583
2736.63293	1.09368
2734.70436	1.09094
2732.77580	1.08993
2730.84723	1.08956
2728.91867	1.08808
2726.99010	1.08572
2725.06154	1.08303
2723.13297	1.08074
2721.20441	1.07872
2719.27585	1.07626
2717.34728	1.07316
2715.41872	1.06967
2713.49015	1.06684
2711.56159	1.06541
2709.63302	1.06427
2707.70446	1.06230
2705.77589	1.06007
2703.84733	1.05811
2701.91877	1.05613
2699.99020	1.05474
2698.06164	1.05419
2696.13307	1.05335
2694.20451	1.05196
2692.27594	1.05039
2690.34738	1.04884
2688.41881	1.04799
2686.49025	1.04841
2684.56169	1.04905
2682.63312	1.04866
2680.70456	1.04782
2678.77599	1.04697
2676.84743	1.04539
2674.91886	1.04350
2672.99030	1.04238
2671.06173	1.04176
2669.13317	1.04037
2667.20461	1.03775
2665.27604	1.03497
2663.34748	1.03276
2661.41891	1.03064
2659.49035	1.02830
2657.56178	1.02582
2655.63322	1.02309
2653.70465	1.02065
2651.77609	1.01874
2649.84753	1.01667
2647.91896	1.01448
2645.99040	1.01280
2644.06183	1.01163
2642.13327	1.01084
2640.20470	1.01045
2638.27614	1.00994
2636.34757	1.00860
2634.41901	1.00687
2632.49045	1.00608
2630.56188	1.00646
2628.63332	1.00679
2626.70475	1.00654
2624.77619	1.00626
2622.84762	1.00604
2620.91906	1.00550
2618.99049	1.00469
2617.06193	1.00387
2615.13337	1.00332
2613.20480	1.00315
2611.27624	1.00281
2609.34767	1.00176
2607.41911	1.00029
2605.49054	0.99888
2603.56198	0.99750
2601.63342	0.99560
2599.70485	0.99341
2597.77629	0.99150
2595.84772	0.98939
2593.91916	0.98693
2591.99059	0.98493
2590.06203	0.98351
2588.13346	0.98194
2586.20490	0.98017
2584.27634	0.97864
2582.34777	0.97709
2580.41921	0.97528
2578.49064	0.97371
2576.56208	0.97242
2574.63351	0.97083
2572.70495	0.96930
2570.77638	0.96843
2568.84782	0.96764
2566.91926	0.96671
2564.99069	0.96585
2563.06213	0.96468
2561.13356	0.96319
2559.20500	0.96187
2557.27643	0.96083
2555.34787	0.96003
2553.41930	0.95947
2551.49074	0.95866
2549.56218	0.95728
2547.63361	0.95581
2545.70505	0.95482
2543.77648	0.95392
2541.84792	0.95201
2539.91935	0.94911
2537.99079	0.94652
2536.06222	0.94474
2534.13366	0.94301
2532.20510	0.94097
2530.27653	0.93865
2528.34797	0.93609
2526.41940	0.93403
2524.49084	0.93286
2522.56227	0.93165
2520.63371	0.92992
2518.70514	0.92836
2516.77658	0.92747
2514.84802	0.92698
2512.91945	0.92624
2510.99089	0.92548
2509.06232	0.92547
2507.13376	0.92592
2505.20519	0.92599
2503.27663	0.92547
2501.34806	0.92475
2499.41950	0.92438
2497.49094	0.92428
2495.56237	0.92413
2493.63381	0.92406
2491.70524	0.92421
2489.77668	0.92439
2487.84811	0.92452
2485.91955	0.92457
2483.99098	0.92426
2482.06242	0.92372
2480.13386	0.92316
2478.20529	0.92232
2476.27673	0.92108
2474.34816	0.92020
2472.41960	0.91994
2470.49103	0.91952
2468.56247	0.91889
2466.63391	0.91819
2464.70534	0.91668
2462.77678	0.91482
2460.84821	0.91388
2458.91965	0.91345
2456.99108	0.91242
2455.06252	0.91108
2453.13395	0.90999
2451.20539	0.90903
2449.27683	0.90815
2447.34826	0.90721
2445.41970	0.90593
2443.49113	0.90458
2441.56257	0.90349
2439.63400	0.90234
2437.70544	0.90102
2435.77687	0.90004
2433.84831	0.89942
2431.91975	0.89850
2429.99118	0.89712
2428.06262	0.89561
2426.13405	0.89417
2424.20549	0.89278
2422.27692	0.89140
2420.34836	0.89010
2418.41979	0.88879
2416.49123	0.88730
2414.56267	0.88575
2412.63410	0.88408
2410.70554	0.88204
2408.77697	0.87959
2406.84841	0.87677
2404.91984	0.87401
2402.99128	0.87181
2401.06271	0.86984
2399.13415	0.86757
2397.20559	0.86548
2395.27702	0.86397
2393.34846	0.86250
2391.41989	0.86130
2389.49133	0.86117
2387.56276	0.86165
2385.63420	0.86234
2383.70563	0.86373
2381.77707	0.86576
2379.84851	0.86811
2377.91994	0.87127
2375.99138	0.87529
2374.06281	0.87905
2372.13425	0.88239
2370.20568	0.88764
2368.27712	0.89533
2366.34855	0.90200
2364.41999	0.90687
2362.49143	0.90817
2360.56286	0.90180
2358.63430	0.89394
2356.70573	0.89051
2354.77717	0.88895
2352.84860	0.88640
2350.92004	0.88405
2348.99147	0.88427
2347.06291	0.88700
2345.13435	0.88999
2343.20578	0.89046
2341.27722	0.88961
2339.34865	0.88923
2337.42009	0.88840
2335.49152	0.88756
2333.56296	0.88738
2331.63440	0.88667
2329.70583	0.88656
2327.77727	0.88780
2325.84870	0.88757
2323.92014	0.88486
2321.99157	0.88117
2320.06301	0.87788
2318.13444	0.87551
2316.20588	0.87398
2314.27732	0.87334
2312.34875	0.87331
2310.42019	0.87258
2308.49162	0.87081
2306.56306	0.86921
2304.63449	0.86841
2302.70593	0.86809
2300.77736	0.86782
2298.84880	0.86719
2296.92024	0.86621
2294.99167	0.86528
2293.06311	0.86441
2291.13454	0.86326
2289.20598	0.86178
2287.27741	0.86016
2285.34885	0.85866
2283.42028	0.85757
2281.49172	0.85668
2279.56316	0.85563
2277.63459	0.85455
2275.70603	0.85341
2273.77746	0.85192
2271.84890	0.85038
2269.92033	0.84905
2267.99177	0.84769
2266.06320	0.84637
2264.13464	0.84531
2262.20608	0.84439
2260.27751	0.84330
2258.34895	0.84225
2256.42038	0.84137
2254.49182	0.84041
2252.56325	0.83949
2250.63469	0.83898
2248.70612	0.83870
2246.77756	0.83821
2244.84900	0.83739
2242.92043	0.83671
2240.99187	0.83655
2239.06330	0.83654
2237.13474	0.83641
2235.20617	0.83634
2233.27761	0.83625
2231.34904	0.83590
2229.42048	0.83557
2227.49192	0.83547
2225.56335	0.83535
2223.63479	0.83527
2221.70622	0.83557
2219.77766	0.83595
2217.84909	0.83603
2215.92053	0.83590
2213.99196	0.83566
2212.06340	0.83549
2210.13484	0.83569
2208.20627	0.83615
2206.27771	0.83632
2204.34914	0.83615
2202.42058	0.83608
2200.49201	0.83629
2198.56345	0.83689
2196.63488	0.83783
2194.70632	0.83860
2192.77776	0.83902
2190.84919	0.83951
2188.92063	0.84033
2186.99206	0.84115
2185.06350	0.84157
2183.13493	0.84190
2181.20637	0.84248
2179.27781	0.84317
2177.34924	0.84384
2175.42068	0.84452
2173.49211	0.84524
2171.56355	0.84598
2169.63498	0.84637
2167.70642	0.84627
2165.77785	0.84626
2163.84929	0.84664
2161.92073	0.84691
2159.99216	0.84667
2158.06360	0.84618
2156.13503	0.84582
2154.20647	0.84575
2152.27790	0.84584
2150.34934	0.84582
2148.42077	0.84577
2146.49221	0.84565
2144.56365	0.84541
2142.63508	0.84524
2140.70652	0.84522
2138.77795	0.84519
2136.84939	0.84496
2134.92082	0.84455
2132.99226	0.84432
2131.06369	0.84440
2129.13513	0.84442
2127.20657	0.84421
2125.27800	0.84388
2123.34944	0.84355
2121.42087	0.84330
2119.49231	0.84307
2117.56374	0.84278
2115.63518	0.84242
2113.70661	0.84203
2111.77805	0.84169
2109.84949	0.84147
2107.92092	0.84131
2105.99236	0.84120
2104.06379	0.84135
2102.13523	0.84166
2100.20666	0.84160
2098.27810	0.84117
2096.34953	0.84095
2094.42097	0.84119
2092.49241	0.84169
2090.56384	0.84203
2088.63528	0.84184
2086.70671	0.84149
2084.77815	0.84154
2082.84958	0.84187
2080.92102	0.84217
2078.99245	0.84249
2077.06389	0.84302
2075.13533	0.84352
2073.20676	0.84372
2071.27820	0.84386
2069.34963	0.84426
2067.42107	0.84460
2065.49250	0.84440
2063.56394	0.84389
2061.63537	0.84355
2059.70681	0.84326
2057.77825	0.84294
2055.84968	0.84277
2053.92112	0.84264
2051.99255	0.84221
2050.06399	0.84128
2048.13542	0.84001
2046.20686	0.83906
2044.27830	0.83879
2042.34973	0.83844
2040.42117	0.83737
2038.49260	0.83598
2036.56404	0.83483
2034.63547	0.83385
2032.70691	0.83286
2030.77834	0.83198
2028.84978	0.83122
2026.92122	0.83047
2024.99265	0.82969
2023.06409	0.82870
2021.13552	0.82776
2019.20696	0.82718
2017.27839	0.82635
2015.34983	0.82496
2013.42126	0.82366
2011.49270	0.82264
2009.56414	0.82183
2007.63557	0.82113
2005.70701	0.82044
2003.77844	0.81980
2001.84988	0.81929
1999.92131	0.81883
1997.99275	0.81828
1996.06418	0.81811
1994.13562	0.81854
1992.20706	0.81861
1990.27849	0.81794
1988.34993	0.81715
1986.42136	0.81642
1984.49280	0.81602
1982.56423	0.81606
1980.63567	0.81606
1978.70710	0.81587
1976.77854	0.81576
1974.84998	0.81575
1972.92141	0.81584
1970.99285	0.81633
1969.06428	0.81703
1967.13572	0.81710
1965.20715	0.81664
1963.27859	0.81662
1961.35002	0.81704
1959.42146	0.81754
1957.49290	0.81800
1955.56433	0.81834
1953.63577	0.81845
1951.70720	0.81840
1949.77864	0.81863
1947.85007	0.81952
1945.92151	0.82096
1943.99294	0.82183
1942.06438	0.82097
1940.13582	0.81966
1938.20725	0.81927
1936.27869	0.81942
1934.35012	0.81972
1932.42156	0.81980
1930.49299	0.81941
1928.56443	0.81890
1926.63586	0.81895
1924.70730	0.81924
1922.77874	0.81861
1920.85017	0.81758
1918.92161	0.81663
1916.99304	0.81493
1915.06448	0.81345
1913.13591	0.81314
1911.20735	0.81324
1909.27878	0.81264
1907.35022	0.81136
1905.42166	0.81044
1903.49309	0.81004
1901.56453	0.80975
1899.63596	0.80970
1897.70740	0.80984
1895.77883	0.80949
1893.85027	0.80888
1891.92171	0.80899
1889.99314	0.80887
1888.06458	0.80772
1886.13601	0.80667
1884.20745	0.80561
1882.27888	0.80435
1880.35032	0.80323
1878.42175	0.80219
1876.49319	0.80112
1874.56463	0.80030
1872.63606	0.80067
1870.70750	0.80178
1868.77893	0.80055
1866.85037	0.79687
1864.92180	0.79474
1862.99324	0.79402
1861.06467	0.79333
1859.13611	0.79247
1857.20755	0.79180
1855.27898	0.79167
1853.35042	0.79193
1851.42185	0.79242
1849.49329	0.79357
1847.56472	0.79541
1845.63616	0.79641
1843.70759	0.79443
1841.77903	0.79227
1839.85047	0.79233
1837.92190	0.79303
1835.99334	0.79336
1834.06477	0.79430
1832.13621	0.79628
1830.20764	0.79715
1828.27908	0.79634
1826.35051	0.79596
1824.42195	0.79529
1822.49339	0.79438
1820.56482	0.79430
1818.63626	0.79469
1816.70769	0.79503
1814.77913	0.79586
1812.85056	0.79705
1810.92200	0.79709
1808.99343	0.79608
1807.06487	0.79546
1805.13631	0.79585
1803.20774	0.79723
1801.27918	0.79838
1799.35061	0.79859
1797.42205	0.79951
1795.49348	0.80184
1793.56492	0.80392
1791.63635	0.80313
1789.70779	0.80164
1787.77923	0.80249
1785.85066	0.80469
1783.92210	0.80707
1781.99353	0.80938
1780.06497	0.81106
1778.13640	0.81280
1776.20784	0.81612
1774.27927	0.82056
1772.35071	0.82277
1770.42215	0.82183
1768.49358	0.82166
1766.56502	0.82319
1764.63645	0.82627
1762.70789	0.82949
1760.77932	0.83152
1758.85076	0.83374
1756.92220	0.83653
1754.99363	0.83992
1753.06507	0.84525
1751.13650	0.85262
1749.20794	0.85862
1747.27937	0.86199
1745.35081	0.86563
1743.42224	0.86999
1741.49368	0.87408
1739.56512	0.87779
1737.63655	0.88220
1735.70799	0.88754
1733.77942	0.89171
1731.85086	0.89345
1729.92229	0.89572
1727.99373	0.89920
1726.06516	0.90446
1724.13660	0.91176
1722.20804	0.91990
1720.27947	0.92910
1718.35091	0.94183
1716.42234	0.95594
1714.49378	0.96501
1712.56521	0.97379
1710.63665	0.98578
1708.70808	1.00154
1706.77952	1.02373
1704.85096	1.05155
1702.92239	1.07868
1700.99383	1.11914
1699.06526	1.18300
1697.13670	1.24349
1695.20813	1.30100
1693.27957	1.34446
1691.35100	1.38202
1689.42244	1.42924
1687.49388	1.47486
1685.56531	1.51913
1683.63675	1.58009
1681.70818	1.62513
1679.77962	1.65348
1677.85105	1.68012
1675.92249	1.71009
1673.99392	1.74111
1672.06536	1.76591
1670.13680	1.78723
1668.20823	1.80226
1666.27967	1.80989
1664.35110	1.81973
1662.42254	1.83137
1660.49397	1.83701
1658.56541	1.83935
1656.63684	1.84229
1654.70828	1.84951
1652.77972	1.85152
1650.85115	1.84431
1648.92259	1.84125
1646.99402	1.83654
1645.06546	1.83059
1643.13689	1.82692
1641.20833	1.82508
1639.27976	1.82544
1637.35120	1.82575
1635.42264	1.81395
1633.49407	1.80147
1631.56551	1.79845
1629.63694	1.79494
1627.70838	1.78726
1625.77981	1.77911
1623.85125	1.76946
1621.92269	1.75522
1619.99412	1.74325
1618.06556	1.72874
1616.13699	1.69989
1614.20843	1.67347
1612.27986	1.65401
1610.35130	1.63291
1608.42273	1.60919
1606.49417	1.58745
1604.56561	1.56957
1602.63704	1.55358
1600.70848	1.53993
1598.77991	1.53073
1596.85135	1.52580
1594.92278	1.52129
1592.99422	1.51576
1591.06565	1.51250
1589.13709	1.51324
1587.20853	1.51828
1585.27996	1.52685
1583.35140	1.53739
1581.42283	1.54945
1579.49427	1.56320
1577.56570	1.58027
1575.63714	1.59975
1573.70857	1.61200
1571.78001	1.62112
1569.85145	1.63498
1567.92288	1.65022
1565.99432	1.66148
1564.06575	1.67193
1562.13719	1.68125
1560.20862	1.69130
1558.28006	1.70492
1556.35149	1.71099
1554.42293	1.71457
1552.49437	1.71773
1550.56580	1.71869
1548.63724	1.71805
1546.70867	1.71910
1544.78011	1.72186
1542.85154	1.72526
1540.92298	1.72109
1538.99441	1.70482
1537.06585	1.69968
1535.13729	1.69711
1533.20872	1.68525
1531.28016	1.67046
1529.35159	1.66397
1527.42303	1.66194
1525.49446	1.65984
1523.56590	1.65812
1521.63733	1.65544
1519.70877	1.65063
1517.78021	1.64098
1515.85164	1.62498
1513.92308	1.61057
1511.99451	1.60044
1510.06595	1.59386
1508.13738	1.57699
1506.20882	1.52395
1504.28025	1.49284
1502.35169	1.47860
1500.42313	1.46415
1498.49456	1.44337
1496.56600	1.41474
1494.63743	1.39376
1492.70887	1.38329
1490.78030	1.37157
1488.85174	1.35099
1486.92317	1.33335
1484.99461	1.32420
1483.06605	1.31946
1481.13748	1.31723
1479.20892	1.31889
1477.28035	1.32626
1475.35179	1.33924
1473.42322	1.35640
1471.49466	1.37148
1469.56610	1.38122
1467.63753	1.39052
1465.70897	1.40064
1463.78040	1.40849
1461.85184	1.41459
1459.92327	1.42242
1457.99471	1.43249
1456.06614	1.43792
1454.13758	1.43877
1452.20902	1.43946
1450.28045	1.43942
1448.35189	1.43725
1446.42332	1.43309
1444.49476	1.42888
1442.56619	1.42480
1440.63763	1.42115
1438.70906	1.41662
1436.78050	1.40661
1434.85194	1.39475
1432.92337	1.38665
1430.99481	1.37754
1429.06624	1.36664
1427.13768	1.35915
1425.20911	1.35562
1423.28055	1.35486
1421.35198	1.35649
1419.42342	1.35809
1417.49486	1.35673
1415.56629	1.35479
1413.63773	1.35355
1411.70916	1.35148
1409.78060	1.34821
1407.85203	1.34591
1405.92347	1.34554
1403.99490	1.34574
1402.06634	1.34651
1400.13778	1.34777
1398.20921	1.34820
1396.28065	1.34780
1394.35208	1.34686
1392.42352	1.34711
1390.49495	1.35071
1388.56639	1.35901
1386.63782	1.37247
1384.70926	1.38702
1382.78070	1.39977
1380.85213	1.41010
1378.92357	1.41677
1376.99500	1.41793
1375.06644	1.41082
1373.13787	1.39653
1371.20931	1.38123
1369.28074	1.36416
1367.35218	1.34549
1365.42362	1.32997
1363.49505	1.31509
1361.56649	1.29836
1359.63792	1.28555
1357.70936	1.27778
1355.78079	1.27234
1353.85223	1.26799
1351.92366	1.26479
1349.99510	1.26232
1348.06654	1.25988
1346.13797	1.25772
1344.20941	1.25687
1342.28084	1.25800
1340.35228	1.26029
1338.42371	1.26210
1336.49515	1.26424
1334.56659	1.26840
1332.63802	1.27433
1330.70946	1.28092
1328.78089	1.28718
1326.85233	1.29233
1324.92376	1.29575
1322.99520	1.29821
1321.06663	1.30088
1319.13807	1.30328
1317.20951	1.30471
1315.28094	1.30574
1313.35238	1.30651
1311.42381	1.30629
1309.49525	1.30501
1307.56668	1.30291
1305.63812	1.30019
1303.70955	1.29710
1301.78099	1.29337
1299.85243	1.28854
1297.92386	1.28234
1295.99530	1.27504
1294.06673	1.26830
1292.13817	1.26398
1290.20960	1.26182
1288.28104	1.26017
1286.35247	1.25853
1284.42391	1.25722
1282.49535	1.25624
1280.56678	1.25543
1278.63822	1.25517
1276.70965	1.25643
1274.78109	1.25983
1272.85252	1.26522
1270.92396	1.27154
1268.99539	1.27776
1267.06683	1.28421
1265.13827	1.29083
1263.20970	1.29639
1261.28114	1.30019
1259.35257	1.30234
1257.42401	1.30367
1255.49544	1.30559
1253.56688	1.30837
1251.63831	1.31047
1249.70975	1.31108
1247.78119	1.31118
1245.85262	1.31132
1243.92406	1.31124
1241.99549	1.31065
1240.06693	1.30870
1238.13836	1.30481
1236.20980	1.29951
1234.28123	1.29315
1232.35267	1.28568
1230.42411	1.27745
1228.49554	1.26851
1226.56698	1.25859
1224.63841	1.24841
1222.70985	1.23876
1220.78128	1.22913
1218.85272	1.21935
1216.92415	1.21119
1214.99559	1.20650
1213.06703	1.20525
1211.13846	1.20673
1209.20990	1.20972
1207.28133	1.21176
1205.35277	1.21074
1203.42420	1.20568
1201.49564	1.19721
1199.56708	1.18762
1197.63851	1.17853
1195.70995	1.17006
1193.78138	1.16242
1191.85282	1.15626
1189.92425	1.15162
1187.99569	1.14813
1186.06712	1.14599
1184.13856	1.14577
1182.21000	1.14776
1180.28143	1.15185
1178.35287	1.15814
1176.42430	1.16659
1174.49574	1.17614
1172.56717	1.18560
1170.63861	1.19584
1168.71004	1.20925
1166.78148	1.22702
1164.85292	1.24849
1162.92435	1.27067
1160.99579	1.28880
1159.06722	1.29942
1157.13866	1.30099
1155.21009	1.29312
1153.28153	1.27762
1151.35296	1.25769
1149.42440	1.23674
1147.49584	1.21818
1145.56727	1.20399
1143.63871	1.19431
1141.71014	1.18916
1139.78158	1.18928
1137.85301	1.19526
1135.92445	1.20639
1133.99588	1.22122
1132.06732	1.23900
1130.13876	1.25952
1128.21019	1.28192
1126.28163	1.30428
1124.35306	1.32493
1122.42450	1.34360
1120.49593	1.35969
1118.56737	1.37191
1116.63880	1.38010
1114.71024	1.38374
1112.78168	1.38223
1110.85311	1.37813
1108.92455	1.37485
1106.99598	1.37238
1105.06742	1.36854
1103.13885	1.36377
1101.21029	1.36104
1099.28172	1.36156
1097.35316	1.36457
1095.42460	1.37049
1093.49603	1.38070
1091.56747	1.39451
1089.63890	1.41033
1087.71034	1.42861
1085.78177	1.44888
1083.85321	1.46771
1081.92464	1.48279
1079.99608	1.49398
1078.06752	1.49981
1076.13895	1.49810
1074.21039	1.49001
1072.28182	1.47814
1070.35326	1.46390
1068.42469	1.44923
1066.49613	1.43611
1064.56756	1.42454
1062.63900	1.41338
1060.71044	1.40264
1058.78187	1.39327
1056.85331	1.38649
1054.92474	1.38271
1052.99618	1.38039
1051.06761	1.37878
1049.13905	1.37912
1047.21049	1.38237
1045.28192	1.38878
1043.35336	1.39723
1041.42479	1.40569
1039.49623	1.41325
1037.56766	1.41923
1035.63910	1.42213
1033.71053	1.42149
1031.78197	1.41799
1029.85341	1.41194
1027.92484	1.40303
1025.99628	1.39069
1024.06771	1.37555
1022.13915	1.35947
1020.21058	1.34388
1018.28202	1.32933
1016.35345	1.31540
1014.42489	1.30038
1012.49633	1.28230
1010.56776	1.26046
1008.63920	1.23645
1006.71063	1.21306
1004.78207	1.19177
1002.85350	1.17337
1000.92494	1.15885
998.99637	1.14870
997.06781	1.14249
995.13925	1.13897
993.21068	1.13660
991.28212	1.13371
989.35355	1.12918
987.42499	1.12390
985.49642	1.11976
983.56786	1.11739
981.63929	1.11640
979.71073	1.11671
977.78217	1.11784
975.85360	1.11817
973.92504	1.11589
971.99647	1.10990
970.06791	1.10084
968.13934	1.09075
966.21078	1.08164
964.28221	1.07498
962.35365	1.07256
960.42509	1.07603
958.49652	1.08435
956.56796	1.09221
954.63939	1.09373
952.71083	1.08788
950.78226	1.07742
948.85370	1.06568
946.92513	1.05558
944.99657	1.04851
943.06801	1.04448
941.13944	1.04286
939.21088	1.04298
937.28231	1.04466
935.35375	1.04742
933.42518	1.05046
931.49662	1.05412
929.56805	1.05913
927.63949	1.06514
925.71093	1.07134
923.78236	1.07743
921.85380	1.08324
919.92523	1.08782
917.99667	1.09010
916.06810	1.09041
914.13954	1.09028
912.21098	1.09052
910.28241	1.09086
908.35385	1.09091
906.42528	1.09090
904.49672	1.09131
902.56815	1.09161
900.63959	1.09051
898.71102	1.08730
896.78246	1.08186
894.85390	1.07481
892.92533	1.06703
890.99677	1.05864
889.06820	1.04996
887.13964	1.04216
885.21107	1.03620
883.28251	1.03257
881.35394	1.03112
879.42538	1.03081
877.49682	1.03087
875.56825	1.03176
873.63969	1.03430
871.71112	1.03825
869.78256	1.04261
867.85399	1.04724
865.92543	1.05254
863.99686	1.05886
862.06830	1.06673
860.13974	1.07584
858.21117	1.08514
856.28261	1.09440
854.35404	1.10323
852.42548	1.11064
850.49691	1.11635
848.56835	1.12099
846.63978	1.12482
844.71122	1.12787
842.78266	1.13041
840.85409	1.13166
838.92553	1.13094
836.99696	1.12949
835.06840	1.12830
833.13983	1.12716
831.21127	1.12587
829.28270	1.12453
827.35414	1.12347
825.42558	1.12224
823.49701	1.12082
821.56845	1.12107
819.63988	1.12404
817.71132	1.12889
815.78275	1.13508
813.85419	1.14275
811.92562	1.15164
809.99706	1.16139
808.06850	1.17247
806.13993	1.18480
804.21137	1.19762
802.28280	1.21139
800.35424	1.22619
798.42567	1.24065
796.49711	1.25385
794.56854	1.26499
792.63998	1.27288
790.71142	1.27799
788.78285	1.28183
786.85429	1.28445
784.92572	1.28479
782.99716	1.28242
781.06859	1.27780
779.14003	1.27211
777.21147	1.26598
775.28290	1.25875
773.35434	1.25110
771.42577	1.24540
769.49721	1.24194
767.56864	1.23915
765.64008	1.23638
763.71151	1.23461
761.78295	1.23526
759.85439	1.23738
757.92582	1.23884
755.99726	1.24008
754.06869	1.24280
752.14013	1.24732
750.21156	1.25204
748.28300	1.25556
746.35443	1.25871
744.42587	1.26226
742.49731	1.26605
740.56874	1.27048
738.64018	1.27545
736.71161	1.27999
734.78305	1.28377
732.85448	1.28686
730.92592	1.28954
728.99735	1.29202
727.06879	1.29436
725.14023	1.29722
723.21166	1.30038
721.28310	1.30277
719.35453	1.30386
717.42597	1.30452
715.49740	1.30592
713.56884	1.30769
711.64027	1.30916
709.71171	1.31023
707.78315	1.31102
705.85458	1.31200
703.92602	1.31235
701.99745	1.31076
700.06889	1.30796
698.14032	1.30590
696.21176	1.30565
694.28319	1.30663
692.35463	1.30822
690.42607	1.30964
688.49750	1.30925
686.56894	1.30817
684.64037	1.30930
682.71181	1.31370
680.78324	1.32180
678.85468	1.33202
676.92611	1.34112
674.99755	1.34942
673.06899	1.35904
671.14042	1.36935
669.21186	1.37856
667.28329	1.38281
665.35473	1.38395
663.42616	1.38555
661.49760	1.38687
659.56903	1.38555
657.64047	1.37906
655.71191	1.36664
653.78334	1.35107
651.85478	1.33746
649.92621	1.32598
647.99765	1.31303
646.06908	1.29904
644.14052	1.28581
642.21195	1.27508
640.28339	1.26854
638.35483	1.26384
636.42626	1.25773
634.49770	1.25135
632.56913	1.24679
630.64057	1.24531
628.71200	1.24825
626.78344	1.25445
624.85488	1.25956
622.92631	1.26314
620.99775	1.26989
619.06918	1.27881
617.14062	1.28525
615.21205	1.28962
613.28349	1.29382
611.35492	1.29832
609.42636	1.30251
607.49780	1.30415
605.56923	1.30253
603.64067	1.29896
601.71210	1.29409
599.78354	1.28855
