3997.91406	0.98264
3995.98550	0.97915
3994.05693	0.97691
3992.12837	0.97913
3990.19980	0.98170
3988.27124	0.97962
3986.34268	0.97541
3984.41411	0.97379
3982.48555	0.97543
3980.55698	0.97843
3978.62842	0.98064
3976.69985	0.98009
3974.77129	0.97667
3972.84272	0.97359
3970.91416	0.97182
3968.98560	0.97051
3967.05703	0.97021
3965.12847	0.96978
3963.19990	0.96908
3961.27134	0.96927
3959.34277	0.97038
3957.41421	0.97251
3955.48564	0.97433
3953.55708	0.97543
3951.62852	0.97768
3949.69995	0.97964
3947.77139	0.97902
3945.84282	0.97851
3943.91426	0.97846
3941.98569	0.97597
3940.05713	0.97179
3938.12856	0.96945
3936.20000	0.97168
3934.27144	0.97655
3932.34287	0.97792
3930.41431	0.97359
3928.48574	0.96981
3926.55718	0.97026
3924.62861	0.97121
3922.70005	0.97051
3920.77148	0.97092
3918.84292	0.97224
3916.91436	0.97352
3914.98579	0.97473
3913.05723	0.97453
3911.12866	0.97267
3909.20010	0.97070
3907.27153	0.97047
3905.34297	0.97251
3903.41440	0.97406
3901.48584	0.97147
3899.55728	0.96650
3897.62871	0.96460
3895.70015	0.96782
3893.77158	0.97246
3891.84302	0.97325
3889.91445	0.97183
3887.98589	0.97351
3886.05733	0.97644
3884.12876	0.97692
3882.20020	0.97463
3880.27163	0.96991
3878.34307	0.96879
3876.41450	0.97235
3874.48594	0.97333
3872.55737	0.96803
3870.62881	0.96180
3868.70025	0.96125
3866.77168	0.96407
3864.84312	0.96499
3862.91455	0.96394
3860.98599	0.96467
3859.05742	0.96929
3857.12886	0.97767
3855.20029	0.98297
3853.27173	0.96928
3851.34317	0.95810
3849.41460	0.96093
3847.48604	0.96603
3845.55747	0.96940
3843.62891	0.97076
3841.70034	0.97386
3839.77178	0.97691
3837.84321	0.97143
3835.91465	0.96660
3833.98609	0.96833
3832.05752	0.97015
3830.12896	0.97146
3828.20039	0.97327
3826.27183	0.97290
3824.34326	0.97193
3822.41470	0.97063
3820.48613	0.96585
3818.55757	0.96358
3816.62901	0.96081
3814.70044	0.95675
3812.77188	0.95761
3810.84331	0.96127
3808.91475	0.96373
3806.98618	0.96223
3805.05762	0.96202
3803.12905	0.96268
3801.20049	0.95646
3799.27193	0.95386
3797.34336	0.95630
3795.41480	0.95612
3793.48623	0.95614
3791.55767	0.95878
3789.62910	0.96177
3787.70054	0.96260
3785.77197	0.96082
3783.84341	0.95948
3781.91485	0.96069
3779.98628	0.96024
3778.05772	0.95710
3776.12915	0.95654
3774.20059	0.95850
3772.27202	0.96083
3770.34346	0.96256
3768.41489	0.96408
3766.48633	0.96461
3764.55777	0.96310
3762.62920	0.96302
3760.70064	0.96474
3758.77207	0.96416
3756.84351	0.96262
3754.91494	0.96362
3752.98638	0.96527
3751.05781	0.96388
3749.12925	0.96328
3747.20069	0.96569
3745.27212	0.96357
3743.34356	0.95912
3741.41499	0.96381
3739.48643	0.97430
3737.55786	0.98339
3735.62930	0.98263
3733.70074	0.97032
3731.77217	0.96053
3729.84361	0.95977
3727.91504	0.96268
3725.98648	0.96172
3724.05791	0.95910
3722.12935	0.95990
3720.20078	0.96001
3718.27222	0.95911
3716.34366	0.96073
3714.41509	0.96558
3712.48653	0.96959
3710.55796	0.96574
3708.62940	0.96105
3706.70083	0.96164
3704.77227	0.96496
3702.84370	0.96622
3700.91514	0.96402
3698.98658	0.96402
3697.05801	0.96735
3695.12945	0.97205
3693.20088	0.97826
3691.27232	0.98483
3689.34375	0.98394
3687.41519	0.97763
3685.48662	0.97604
3683.55806	0.98040
3681.62950	0.98963
3679.70093	1.00002
3677.77237	1.00708
3675.84380	1.00729
3673.91524	1.00938
3671.98667	1.01706
3670.05811	1.01990
3668.12954	1.01914
3666.20098	1.02267
3664.27242	1.02752
3662.34385	1.03273
3660.41529	1.04035
3658.48672	1.04908
3656.55816	1.05642
3654.62959	1.06480
3652.70103	1.07633
3650.77246	1.08753
3648.84390	1.09032
3646.91534	1.09442
3644.98677	1.10611
3643.05821	1.11969
3641.12964	1.13115
3639.20108	1.13797
3637.27251	1.14301
3635.34395	1.15184
3633.41538	1.16438
3631.48682	1.17669
3629.55826	1.18764
3627.62969	1.19411
3625.70113	1.20044
3623.77256	1.21164
3621.84400	1.22557
3619.91543	1.23591
3617.98687	1.24147
3616.05830	1.25180
3614.12974	1.26555
3612.20118	1.27281
3610.27261	1.27401
3608.34405	1.27972
3606.41548	1.29261
3604.48692	1.30518
3602.55835	1.31482
3600.62979	1.32121
3598.70123	1.32701
3596.77266	1.33715
3594.84410	1.35232
3592.91553	1.36911
3590.98697	1.38510
3589.05840	1.39984
3587.12984	1.40646
3585.20127	1.40667
3583.27271	1.41212
3581.34415	1.42266
3579.41558	1.43190
3577.48702	1.43700
3575.55845	1.44383
3573.62989	1.45621
3571.70132	1.47082
3569.77276	1.48262
3567.84419	1.49157
3565.91563	1.50203
3563.98707	1.50927
3562.05850	1.51390
3560.12994	1.52319
3558.20137	1.53558
3556.27281	1.54511
3554.34424	1.55705
3552.41568	1.57310
3550.48711	1.58195
3548.55855	1.58831
3546.62999	1.60177
3544.70142	1.61591
3542.77286	1.62367
3540.84429	1.62773
3538.91573	1.63353
3536.98716	1.64218
3535.05860	1.64938
3533.13003	1.65517
3531.20147	1.66021
3529.27291	1.66036
3527.34434	1.65976
3525.41578	1.66692
3523.48721	1.67743
3521.55865	1.68615
3519.63008	1.69736
3517.70152	1.71299
3515.77295	1.72591
3513.84439	1.73044
3511.91583	1.73041
3509.98726	1.73301
3508.05870	1.74389
3506.13013	1.76111
3504.20157	1.77973
3502.27300	1.79234
3500.34444	1.79016
3498.41587	1.77975
3496.48731	1.77304
3494.55875	1.77963
3492.63018	1.80027
3490.70162	1.81561
3488.77305	1.81619
3486.84449	1.81968
3484.91592	1.83404
3482.98736	1.85436
3481.05879	1.87187
3479.13023	1.87290
3477.20167	1.85908
3475.27310	1.84729
3473.34454	1.84949
3471.41597	1.85928
3469.48741	1.86465
3467.55884	1.86926
3465.63028	1.88087
3463.70171	1.88904
3461.77315	1.88757
3459.84459	1.89179
3457.91602	1.90217
3455.98746	1.89952
3454.05889	1.88377
3452.13033	1.87647
3450.20176	1.88129
3448.27320	1.88030
3446.34464	1.87336
3444.41607	1.87505
3442.48751	1.88298
3440.55894	1.89217
3438.63038	1.90383
3436.70181	1.91251
3434.77325	1.90989
3432.84468	1.89733
3430.91612	1.88299
3428.98756	1.87516
3427.05899	1.88247
3425.13043	1.90608
3423.20186	1.92905
3421.27330	1.93358
3419.34473	1.92347
3417.41617	1.91406
3415.48760	1.91119
3413.55904	1.90445
3411.63048	1.89433
3409.70191	1.89744
3407.77335	1.91037
3405.84478	1.91591
3403.91622	1.90740
3401.98765	1.89880
3400.05909	1.90956
3398.13052	1.92260
3396.20196	1.91509
3394.27340	1.91028
3392.34483	1.92174
3390.41627	1.93545
3388.48770	1.94385
3386.55914	1.93619
3384.63057	1.91506
3382.70201	1.91243
3380.77344	1.93507
3378.84488	1.95355
3376.91632	1.95216
3374.98775	1.93860
3373.05919	1.92583
3371.13062	1.92350
3369.20206	1.92439
3367.27349	1.92174
3365.34493	1.91997
3363.41636	1.91952
3361.48780	1.92071
3359.55924	1.92513
3357.63067	1.92915
3355.70211	1.93332
3353.77354	1.94571
3351.84498	1.96079
3349.91641	1.96299
3347.98785	1.95961
3346.05928	1.96523
3344.13072	1.96897
3342.20216	1.95920
3340.27359	1.95141
3338.34503	1.96022
3336.41646	1.97589
3334.48790	1.97862
3332.55933	1.96997
3330.63077	1.96331
3328.70220	1.95829
3326.77364	1.95536
3324.84508	1.95897
3322.91651	1.96883
3320.98795	1.97877
3319.05938	1.98021
3317.13082	1.97792
3315.20225	1.97463
3313.27369	1.96578
3311.34513	1.96159
3309.41656	1.96950
3307.48800	1.97705
3305.55943	1.97586
3303.63087	1.97863
3301.70230	1.99410
3299.77374	2.00759
3297.84517	2.00461
3295.91661	1.99525
3293.98805	1.99133
3292.05948	1.99111
3290.13092	1.98978
3288.20235	1.98475
3286.27379	1.97923
3284.34522	1.97170
3282.41666	1.96372
3280.48809	1.97205
3278.55953	1.99472
3276.63097	2.00623
3274.70240	1.99942
3272.77384	1.98728
3270.84527	1.97491
3268.91671	1.97146
3266.98814	1.98573
3265.05958	1.99391
3263.13101	1.97733
3261.20245	1.95935
3259.27389	1.95686
3257.34532	1.96332
3255.41676	1.96608
3253.48819	1.95791
3251.55963	1.94034
3249.63106	1.91901
3247.70250	1.90486
3245.77393	1.90779
3243.84537	1.91659
3241.91681	1.91345
3239.98824	1.90651
3238.05968	1.90776
3236.13111	1.91277
3234.20255	1.90972
3232.27398	1.89631
3230.34542	1.88675
3228.41685	1.88666
3226.48829	1.88884
3224.55973	1.88757
3222.63116	1.87748
3220.70260	1.86358
3218.77403	1.86034
3216.84547	1.86605
3214.91690	1.86633
3212.98834	1.86022
3211.05977	1.85275
3209.13121	1.84300
3207.20265	1.83563
3205.27408	1.83716
3203.34552	1.84772
3201.41695	1.85884
3199.48839	1.85450
3197.55982	1.83501
3195.63126	1.81959
3193.70269	1.81338
3191.77413	1.80860
3189.84557	1.80379
3187.91700	1.79979
3185.98844	1.79483
3184.05987	1.79025
3182.13131	1.78963
3180.20274	1.79315
3178.27418	1.79765
3176.34562	1.79636
3174.41705	1.78666
3172.48849	1.77847
3170.55992	1.77565
3168.63136	1.77018
3166.70279	1.76097
3164.77423	1.75295
3162.84566	1.74698
3160.91710	1.74146
3158.98854	1.73716
3157.05997	1.73386
3155.13141	1.72783
3153.20284	1.72064
3151.27428	1.71748
3149.34571	1.71822
3147.41715	1.72006
3145.48858	1.72100
3143.56002	1.71832
3141.63146	1.71257
3139.70289	1.70645
3137.77433	1.69875
3135.84576	1.69060
3133.91720	1.68672
3131.98863	1.68770
3130.06007	1.68837
3128.13150	1.68496
3126.20294	1.68214
3124.27438	1.68459
3122.34581	1.68969
3120.41725	1.69280
3118.48868	1.69155
3116.56012	1.68779
3114.63155	1.68398
3112.70299	1.68114
3110.77442	1.67972
3108.84586	1.67850
3106.91730	1.67861
3104.98873	1.68167
3103.06017	1.68276
3101.13160	1.67875
3099.20304	1.67563
3097.27447	1.67654
3095.34591	1.67723
3093.41734	1.67482
3091.48878	1.67201
3089.56022	1.67459
3087.63165	1.68028
3085.70309	1.67774
3083.77452	1.66852
3081.84596	1.66522
3079.91739	1.66765
3077.98883	1.66751
3076.06026	1.66531
3074.13170	1.66336
3072.20314	1.65858
3070.27457	1.65123
3068.34601	1.64379
3066.41744	1.63549
3064.48888	1.62837
3062.56031	1.62521
3060.63175	1.62219
3058.70318	1.61646
3056.77462	1.61067
3054.84606	1.60524
3052.91749	1.59976
3050.98893	1.59679
3049.06036	1.59628
3047.13180	1.59509
3045.20323	1.59134
3043.27467	1.58439
3041.34610	1.57473
3039.41754	1.56501
3037.48898	1.55906
3035.56041	1.55820
3033.63185	1.55802
3031.70328	1.55268
3029.77472	1.54331
3027.84615	1.53708
3025.91759	1.53582
3023.98903	1.53365
3022.06046	1.52980
3020.13190	1.52791
3018.20333	1.52580
3016.27477	1.52208
3014.34620	1.51947
3012.41764	1.51759
3010.48907	1.51377
3008.56051	1.50848
3006.63195	1.50512
3004.70338	1.50507
3002.77482	1.50425
3000.84625	1.49928
2998.91769	1.49549
2996.98912	1.49751
2995.06056	1.50133
2993.13199	1.50327
2991.20343	1.50470
2989.27487	1.50780
2987.34630	1.51226
2985.41774	1.51669
2983.48917	1.52078
2981.56061	1.52543
2979.63204	1.53293
2977.70348	1.54186
2975.77491	1.54727
2973.84635	1.55037
2971.91779	1.55668
2969.98922	1.56773
2968.06066	1.58114
2966.13209	1.59166
2964.20353	1.59460
2962.27496	1.59475
2960.34640	1.59799
2958.41783	1.59957
2956.48927	1.59606
2954.56071	1.59004
2952.63214	1.58292
2950.70358	1.57657
2948.77501	1.57306
2946.84645	1.57342
2944.91788	1.57716
2942.98932	1.58281
2941.06075	1.59177
2939.13219	1.60558
2937.20363	1.62167
2935.27506	1.63491
2933.34650	1.64292
2931.41793	1.64953
2929.48937	1.65915
2927.56080	1.67187
2925.63224	1.68345
2923.70367	1.69101
2921.77511	1.69698
2919.84655	1.70002
2917.91798	1.69407
2915.98942	1.67614
2914.06085	1.65030
2912.13229	1.62548
2910.20372	1.60610
2908.27516	1.58985
2906.34659	1.57276
2904.41803	1.55585
2902.48947	1.54364
2900.56090	1.53601
2898.63234	1.53095
2896.70377	1.52709
2894.77521	1.52279
2892.84664	1.51837
2890.91808	1.51390
2888.98952	1.50836
2887.06095	1.50297
2885.13239	1.50048
2883.20382	1.50046
2881.27526	1.49975
2879.34669	1.49816
2877.41813	1.49799
2875.48956	1.49825
2873.56100	1.49593
2871.63244	1.49094
2869.70387	1.48489
2867.77531	1.47898
2865.84674	1.47419
2863.91818	1.47116
2861.98961	1.47175
2860.06105	1.47707
2858.13248	1.48485
2856.20392	1.49287
2854.27536	1.50086
2852.34679	1.50860
2850.41823	1.51221
2848.48966	1.50082
2846.56110	1.47114
2844.63253	1.43744
2842.70397	1.41105
2840.77540	1.39145
2838.84684	1.37659
2836.91828	1.36633
2834.98971	1.35932
2833.06115	1.35255
2831.13258	1.34486
2829.20402	1.33818
2827.27545	1.33374
2825.34689	1.33044
2823.41832	1.32634
2821.48976	1.32078
2819.56120	1.31559
2817.63263	1.31201
2815.70407	1.30866
2813.77550	1.30441
2811.84694	1.29951
2809.91837	1.29513
2807.98981	1.29192
2806.06124	1.28831
2804.13268	1.28348
2802.20412	1.27859
2800.27555	1.27455
2798.34699	1.27133
2796.41842	1.26830
2794.48986	1.26497
2792.56129	1.26178
2790.63273	1.25916
2788.70416	1.25637
2786.77560	1.25278
2784.84704	1.24929
2782.91847	1.24692
2780.98991	1.24541
2779.06134	1.24381
2777.13278	1.24225
2775.20421	1.24106
2773.27565	1.23920
2771.34708	1.23647
2769.41852	1.23432
2767.48996	1.23279
2765.56139	1.23054
2763.63283	1.22812
2761.70426	1.22716
2759.77570	1.22691
2757.84713	1.22496
2755.91857	1.22134
2753.99001	1.21884
2752.06144	1.21779
2750.13288	1.21535
2748.20431	1.21101
2746.27575	1.20775
2744.34718	1.20723
2742.41862	1.20717
2740.49005	1.20462
2738.56149	1.20093
2736.63293	1.19873
2734.70436	1.19704
2732.77580	1.19500
2730.84723	1.19371
2728.91867	1.19304
2726.99010	1.19227
2725.06154	1.19141
2723.13297	1.19011
2721.20441	1.18805
2719.27585	1.18608
2717.34728	1.18423
2715.41872	1.18149
2713.49015	1.17824
2711.56159	1.17524
2709.63302	1.17255
2707.70446	1.17067
2705.77589	1.17029
2703.84733	1.17065
2701.91877	1.17019
2699.99020	1.16904
2698.06164	1.16798
2696.13307	1.16633
2694.20451	1.16392
2692.27594	1.16181
2690.34738	1.16033
2688.41881	1.15912
2686.49025	1.15809
2684.56169	1.15680
2682.63312	1.15483
2680.70456	1.15254
2678.77599	1.15054
2676.84743	1.14901
2674.91886	1.14739
2672.99030	1.14548
2671.06173	1.14354
2669.13317	1.14114
2667.20461	1.13786
2665.27604	1.13461
2663.34748	1.13243
2661.41891	1.13105
2659.49035	1.12963
2657.56178	1.12790
2655.63322	1.12625
2653.70465	1.12496
2651.77609	1.12405
2649.84753	1.12349
2647.91896	1.12270
2645.99040	1.12112
2644.06183	1.11944
2642.13327	1.11803
2640.20470	1.11619
2638.27614	1.11403
2636.34757	1.11247
2634.41901	1.11157
2632.49045	1.11073
2630.56188	1.10944
2628.63332	1.10790
2626.70475	1.10692
2624.77619	1.10629
2622.84762	1.10512
2620.91906	1.10367
2618.99049	1.10276
2617.06193	1.10176
2615.13337	1.10016
2613.20480	1.09877
2611.27624	1.09751
2609.34767	1.09603
2607.41911	1.09495
2605.49054	1.09415
2603.56198	1.09325
2601.63342	1.09239
2599.70485	1.09124
2597.77629	1.08981
2595.84772	1.08861
2593.91916	1.08766
2591.99059	1.08698
2590.06203	1.08613
2588.13346	1.08457
2586.20490	1.08334
2584.27634	1.08309
2582.34777	1.08248
2580.41921	1.08087
2578.49064	1.07906
2576.56208	1.07790
2574.63351	1.07745
2572.70495	1.07661
2570.77638	1.07487
2568.84782	1.07322
2566.91926	1.07197
2564.99069	1.07086
2563.06213	1.07029
2561.13356	1.06960
2559.20500	1.06765
2557.27643	1.06503
2555.34787	1.06275
2553.41930	1.06094
2551.49074	1.05982
2549.56218	1.05932
2547.63361	1.05827
2545.70505	1.05623
2543.77648	1.05449
2541.84792	1.05352
2539.91935	1.05239
2537.99079	1.05091
2536.06222	1.04964
2534.13366	1.04872
2532.20510	1.04806
2530.27653	1.04698
2528.34797	1.04503
2526.41940	1.04321
2524.49084	1.04225
2522.56227	1.04173
2520.63371	1.04107
2518.70514	1.03958
2516.77658	1.03697
2514.84802	1.03415
2512.91945	1.03240
2510.99089	1.03163
2509.06232	1.03066
2507.13376	1.02918
2505.20519	1.02800
2503.27663	1.02732
2501.34806	1.02637
2499.41950	1.02526
2497.49094	1.02455
2495.56237	1.02374
2493.63381	1.02245
2491.70524	1.02146
2489.77668	1.02097
2487.84811	1.02027
2485.91955	1.01947
2483.99098	1.01906
2482.06242	1.01914
2480.13386	1.01961
2478.20529	1.02001
2476.27673	1.01995
2474.34816	1.01914
2472.41960	1.01785
2470.49103	1.01706
2468.56247	1.01691
2466.63391	1.01679
2464.70534	1.01655
2462.77678	1.01610
2460.84821	1.01524
2458.91965	1.01417
2456.99108	1.01298
2455.06252	1.01155
2453.13395	1.01023
2451.20539	1.00937
2449.27683	1.00825
2447.34826	1.00657
2445.41970	1.00528
2443.49113	1.00435
2441.56257	1.00287
2439.63400	1.00125
2437.70544	1.00024
2435.77687	0.99965
2433.84831	0.99921
2431.91975	0.99895
2429.99118	0.99898
2428.06262	0.99916
2426.13405	0.99910
2424.20549	0.99893
2422.27692	0.99851
2420.34836	0.99760
2418.41979	0.99681
2416.49123	0.99631
2414.56267	0.99566
2412.63410	0.99478
2410.70554	0.99355
2408.77697	0.99208
2406.84841	0.99074
2404.91984	0.98904
2402.99128	0.98658
2401.06271	0.98418
2399.13415	0.98235
2397.20559	0.98067
2395.27702	0.97873
2393.34846	0.97643
2391.41989	0.97422
2389.49133	0.97253
2387.56276	0.97171
2385.63420	0.97211
2383.70563	0.97312
2381.77707	0.97371
2379.84851	0.97400
2377.91994	0.97511
2375.99138	0.97723
2374.06281	0.97967
2372.13425	0.98258
2370.20568	0.98474
2368.27712	0.98452
2366.34855	0.98523
2364.41999	0.98733
2362.49143	0.98647
2360.56286	0.98629
2358.63430	0.98752
2356.70573	0.98497
2354.77717	0.98071
2352.84860	0.97631
2350.92004	0.97336
2348.99147	0.97350
2347.06291	0.97493
2345.13435	0.97500
2343.20578	0.97463
2341.27722	0.97593
2339.34865	0.97761
2337.42009	0.97750
2335.49152	0.97349
2333.56296	0.96881
2331.63440	0.96774
2329.70583	0.96940
2327.77727	0.97124
2325.84870	0.97135
2323.92014	0.96926
2321.99157	0.96648
2320.06301	0.96402
2318.13444	0.96212
2316.20588	0.96128
2314.27732	0.96090
2312.34875	0.95979
2310.42019	0.95867
2308.49162	0.95868
2306.56306	0.95908
2304.63449	0.95893
2302.70593	0.95858
2300.77736	0.95842
2298.84880	0.95816
2296.92024	0.95775
2294.99167	0.95740
2293.06311	0.95721
2291.13454	0.95703
2289.20598	0.95635
2287.27741	0.95511
2285.34885	0.95385
2283.42028	0.95295
2281.49172	0.95261
2279.56316	0.95277
2277.63459	0.95273
2275.70603	0.95204
2273.77746	0.95089
2271.84890	0.94973
2269.92033	0.94912
2267.99177	0.94881
2266.06320	0.94807
2264.13464	0.94689
2262.20608	0.94572
2260.27751	0.94481
2258.34895	0.94400
2256.42038	0.94304
2254.49182	0.94212
2252.56325	0.94140
2250.63469	0.94068
2248.70612	0.93991
2246.77756	0.93910
2244.84900	0.93819
2242.92043	0.93738
2240.99187	0.93688
2239.06330	0.93663
2237.13474	0.93654
2235.20617	0.93639
2233.27761	0.93583
2231.34904	0.93521
2229.42048	0.93517
2227.49192	0.93547
2225.56335	0.93531
2223.63479	0.93455
2221.70622	0.93362
2219.77766	0.93292
2217.84909	0.93260
2215.92053	0.93226
2213.99196	0.93133
2212.06340	0.93030
2210.13484	0.92993
2208.20627	0.92975
2206.27771	0.92934
2204.34914	0.92909
2202.42058	0.92885
2200.49201	0.92845
2198.56345	0.92829
2196.63488	0.92833
2194.70632	0.92841
2192.77776	0.92842
2190.84919	0.92799
2188.92063	0.92766
2186.99206	0.92809
2185.06350	0.92860
2183.13493	0.92858
2181.20637	0.92843
2179.27781	0.92852
2177.34924	0.92876
2175.42068	0.92911
2173.49211	0.92984
2171.56355	0.93090
2169.63498	0.93161
2167.70642	0.93180
2165.77785	0.93213
2163.84929	0.93275
2161.92073	0.93311
2159.99216	0.93327
2158.06360	0.93364
2156.13503	0.93410
2154.20647	0.93461
2152.27790	0.93525
2150.34934	0.93542
2148.42077	0.93475
2146.49221	0.93390
2144.56365	0.93353
2142.63508	0.93340
2140.70652	0.93304
2138.77795	0.93229
2136.84939	0.93134
2134.92082	0.93060
2132.99226	0.93008
2131.06369	0.92925
2129.13513	0.92798
2127.20657	0.92678
2125.27800	0.92598
2123.34944	0.92572
2121.42087	0.92579
2119.49231	0.92555
2117.56374	0.92499
2115.63518	0.92461
2113.70661	0.92465
2111.77805	0.92488
2109.84949	0.92499
2107.92092	0.92492
2105.99236	0.92463
2104.06379	0.92423
2102.13523	0.92410
2100.20666	0.92418
2098.27810	0.92412
2096.34953	0.92385
2094.42097	0.92352
2092.49241	0.92330
2090.56384	0.92303
2088.63528	0.92246
2086.70671	0.92161
2084.77815	0.92071
2082.84958	0.92008
2080.92102	0.91949
2078.99245	0.91840
2077.06389	0.91718
2075.13533	0.91634
2073.20676	0.91558
2071.27820	0.91482
2069.34963	0.91436
2067.42107	0.91408
2065.49250	0.91351
2063.56394	0.91259
2061.63537	0.91180
2059.70681	0.91158
2057.77825	0.91175
2055.84968	0.91164
2053.92112	0.91130
2051.99255	0.91114
2050.06399	0.91112
2048.13542	0.91086
2046.20686	0.91027
2044.27830	0.90985
2042.34973	0.91001
2040.42117	0.91031
2038.49260	0.91003
2036.56404	0.90915
2034.63547	0.90820
2032.70691	0.90736
2030.77834	0.90652
2028.84978	0.90572
2026.92122	0.90483
2024.99265	0.90378
2023.06409	0.90270
2021.13552	0.90160
2019.20696	0.90034
2017.27839	0.89889
2015.34983	0.89745
2013.42126	0.89610
2011.49270	0.89483
2009.56414	0.89376
2007.63557	0.89278
2005.70701	0.89154
2003.77844	0.89009
2001.84988	0.88906
1999.92131	0.88846
1997.99275	0.88787
1996.06418	0.88773
1994.13562	0.88826
1992.20706	0.88845
1990.27849	0.88784
1988.34993	0.88694
1986.42136	0.88599
1984.49280	0.88530
1982.56423	0.88489
1980.63567	0.88442
1978.70710	0.88393
1976.77854	0.88351
1974.84998	0.88289
1972.92141	0.88194
1970.99285	0.88123
1969.06428	0.88100
1967.13572	0.88031
1965.20715	0.87886
1963.27859	0.87753
1961.35002	0.87652
1959.42146	0.87565
1957.49290	0.87491
1955.56433	0.87402
1953.63577	0.87282
1951.70720	0.87158
1949.77864	0.87059
1947.85007	0.87003
1945.92151	0.87014
1943.99294	0.87016
1942.06438	0.86880
1940.13582	0.86696
1938.20725	0.86578
1936.27869	0.86503
1934.35012	0.86462
1932.42156	0.86451
1930.49299	0.86456
1928.56443	0.86464
1926.63586	0.86513
1924.70730	0.86600
1922.77874	0.86628
1920.85017	0.86620
1918.92161	0.86615
1916.99304	0.86537
1915.06448	0.86465
1913.13591	0.86502
1911.20735	0.86567
1909.27878	0.86537
1907.35022	0.86450
1905.42166	0.86408
1903.49309	0.86388
1901.56453	0.86347
1899.63596	0.86317
1897.70740	0.86325
1895.77883	0.86326
1893.85027	0.86308
1891.92171	0.86329
1889.99314	0.86325
1888.06458	0.86228
1886.13601	0.86135
1884.20745	0.86070
1882.27888	0.86002
1880.35032	0.85940
1878.42175	0.85889
1876.49319	0.85840
1874.56463	0.85823
1872.63606	0.85924
1870.70750	0.86105
1868.77893	0.86096
1866.85037	0.85810
1864.92180	0.85596
1862.99324	0.85522
1861.06467	0.85490
1859.13611	0.85442
1857.20755	0.85353
1855.27898	0.85260
1853.35042	0.85204
1851.42185	0.85202
1849.49329	0.85266
1847.56472	0.85382
1845.63616	0.85434
1843.70759	0.85227
1841.77903	0.85006
1839.85047	0.84976
1837.92190	0.84976
1835.99334	0.84921
1834.06477	0.84928
1832.13621	0.85050
1830.20764	0.85091
1828.27908	0.84976
1826.35051	0.84882
1824.42195	0.84757
1822.49339	0.84632
1820.56482	0.84608
1818.63626	0.84626
1816.70769	0.84617
1814.77913	0.84648
1812.85056	0.84744
1810.92200	0.84758
1808.99343	0.84673
1807.06487	0.84630
1805.13631	0.84691
1803.20774	0.84823
1801.27918	0.84887
1799.35061	0.84831
1797.42205	0.84859
1795.49348	0.85031
1793.56492	0.85145
1791.63635	0.84980
1789.70779	0.84774
1787.77923	0.84752
1785.85066	0.84796
1783.92210	0.84857
1781.99353	0.84948
1780.06497	0.84986
1778.13640	0.85027
1776.20784	0.85206
1774.27927	0.85458
1772.35071	0.85516
1770.42215	0.85376
1768.49358	0.85321
1766.56502	0.85382
1764.63645	0.85602
1762.70789	0.85901
1760.77932	0.86136
1758.85076	0.86381
1756.92220	0.86702
1754.99363	0.87105
1753.06507	0.87685
1751.13650	0.88481
1749.20794	0.89275
1747.27937	0.89919
1745.35081	0.90531
1743.42224	0.91152
1741.49368	0.91764
1739.56512	0.92372
1737.63655	0.92981
1735.70799	0.93621
1733.77942	0.94192
1731.85086	0.94483
1729.92229	0.94766
1727.99373	0.95185
1726.06516	0.95780
1724.13660	0.96567
1722.20804	0.97431
1720.27947	0.98373
1718.35091	0.99661
1716.42234	1.01241
1714.49378	1.02425
1712.56521	1.03525
1710.63665	1.04901
1708.70808	1.06631
1706.77952	1.09079
1704.85096	1.12205
1702.92239	1.15154
1700.99383	1.19359
1699.06526	1.26168
1697.13670	1.32809
1695.20813	1.39316
1693.27957	1.44501
1691.35100	1.48981
1689.42244	1.54339
1687.49388	1.59299
1685.56531	1.64104
1683.63675	1.70994
1681.70818	1.75920
1679.77962	1.78809
1677.85105	1.81456
1675.92249	1.84105
1673.99392	1.86717
1672.06536	1.89104
1670.13680	1.91237
1668.20823	1.92958
1666.27967	1.94154
1664.35110	1.95341
1662.42254	1.96397
1660.49397	1.97012
1658.56541	1.97730
1656.63684	1.98608
1654.70828	1.99594
1652.77972	1.99593
1650.85115	1.98964
1648.92259	1.98755
1646.99402	1.98174
1645.06546	1.97400
1643.13689	1.96871
1641.20833	1.96552
1639.27976	1.96442
1637.35120	1.96866
1635.42264	1.97043
1633.49407	1.96050
1631.56551	1.95469
1629.63694	1.95118
1627.70838	1.94330
1625.77981	1.93190
1623.85125	1.92087
1621.92269	1.90951
1619.99412	1.89923
1618.06556	1.88527
1616.13699	1.85870
1614.20843	1.83470
1612.27986	1.81692
1610.35130	1.79612
1608.42273	1.76949
1606.49417	1.74478
1604.56561	1.72739
1602.63704	1.71286
1600.70848	1.69965
1598.77991	1.68980
1596.85135	1.68255
1594.92278	1.67608
1592.99422	1.67110
1591.06565	1.66964
1589.13709	1.67166
1587.20853	1.67664
1585.27996	1.68551
1583.35140	1.69864
1581.42283	1.71376
1579.49427	1.72910
1577.56570	1.74635
1575.63714	1.76488
1573.70857	1.77766
1571.78001	1.78875
1569.85145	1.80446
1567.92288	1.81902
1565.99432	1.82814
1564.06575	1.83850
1562.13719	1.85020
1560.20862	1.86541
1558.28006	1.88861
1556.35149	1.89554
1554.42293	1.89349
1552.49437	1.89267
1550.56580	1.89666
1548.63724	1.90200
1546.70867	1.90698
1544.78011	1.91094
1542.85154	1.90635
1540.92298	1.88367
1538.99441	1.86643
1537.06585	1.86876
1535.13729	1.87036
1533.20872	1.86240
1531.28016	1.85198
1529.35159	1.84882
1527.42303	1.84976
1525.49446	1.84840
1523.56590	1.84328
1521.63733	1.83507
1519.70877	1.82605
1517.78021	1.81357
1515.85164	1.79780
1513.92308	1.78645
1511.99451	1.77783
1510.06595	1.76859
1508.13738	1.74476
1506.20882	1.68788
1504.28025	1.65558
1502.35169	1.63723
1500.42313	1.61727
1498.49456	1.59280
1496.56600	1.56223
1494.63743	1.53765
1492.70887	1.52307
1490.78030	1.50752
1488.85174	1.48349
1486.92317	1.46357
1484.99461	1.45285
1483.06605	1.44676
1481.13748	1.44338
1479.20892	1.44460
1477.28035	1.45260
1475.35179	1.46716
1473.42322	1.48661
1471.49466	1.50339
1469.56610	1.51345
1467.63753	1.52240
1465.70897	1.53223
1463.78040	1.54100
1461.85184	1.54780
1459.92327	1.55502
1457.99471	1.56378
1456.06614	1.56764
1454.13758	1.56692
1452.20902	1.56610
1450.28045	1.56528
1448.35189	1.56247
1446.42332	1.55613
1444.49476	1.54923
1442.56619	1.54268
1440.63763	1.53669
1438.70906	1.53090
1436.78050	1.51996
1434.85194	1.50532
1432.92337	1.49428
1430.99481	1.48317
1429.06624	1.47141
1427.13768	1.46494
1425.20911	1.46370
1423.28055	1.46448
1421.35198	1.46680
1419.42342	1.46946
1417.49486	1.46821
1415.56629	1.46548
1413.63773	1.46389
1411.70916	1.46278
1409.78060	1.46245
1407.85203	1.46348
1405.92347	1.46510
1403.99490	1.46576
1402.06634	1.46646
1400.13778	1.46838
1398.20921	1.46952
1396.28065	1.46783
1394.35208	1.46511
1392.42352	1.46517
1390.49495	1.46900
1388.56639	1.47719
1386.63782	1.48974
1384.70926	1.50270
1382.78070	1.51478
1380.85213	1.52462
1378.92357	1.52895
1376.99500	1.52741
1375.06644	1.51908
1373.13787	1.50379
1371.20931	1.48678
1369.28074	1.46790
1367.35218	1.44738
1365.42362	1.42935
1363.49505	1.41212
1361.56649	1.39516
1359.63792	1.38283
1357.70936	1.37434
1355.78079	1.36750
1353.85223	1.36220
1351.92366	1.35839
1349.99510	1.35486
1348.06654	1.35122
1346.13797	1.34873
1344.20941	1.34808
1342.28084	1.34878
1340.35228	1.35021
1338.42371	1.35112
1336.49515	1.35197
1334.56659	1.35492
1332.63802	1.36008
1330.70946	1.36577
1328.78089	1.37066
1326.85233	1.37445
1324.92376	1.37736
1322.99520	1.38017
1321.06663	1.38323
1319.13807	1.38552
1317.20951	1.38650
1315.28094	1.38685
1313.35238	1.38719
1311.42381	1.38719
1309.49525	1.38594
1307.56668	1.38320
1305.63812	1.38012
1303.70955	1.37786
1301.78099	1.37589
1299.85243	1.37303
1297.92386	1.36902
1295.99530	1.36445
1294.06673	1.35991
1292.13817	1.35638
1290.20960	1.35494
1288.28104	1.35501
1286.35247	1.35506
1284.42391	1.35434
1282.49535	1.35303
1280.56678	1.35174
1278.63822	1.35134
1276.70965	1.35250
1274.78109	1.35479
1272.85252	1.35769
1270.92396	1.36179
1268.99539	1.36741
1267.06683	1.37321
1265.13827	1.37776
1263.20970	1.38082
1261.28114	1.38238
1259.35257	1.38279
1257.42401	1.38303
1255.49544	1.38356
1253.56688	1.38426
1251.63831	1.38518
1249.70975	1.38631
1247.78119	1.38713
1245.85262	1.38715
1243.92406	1.38677
1241.99549	1.38630
1240.06693	1.38501
1238.13836	1.38265
1236.20980	1.37943
1234.28123	1.37461
1232.35267	1.36792
1230.42411	1.35981
1228.49554	1.35038
1226.56698	1.33989
1224.63841	1.32940
1222.70985	1.31962
1220.78128	1.31012
1218.85272	1.30084
1216.92415	1.29313
1214.99559	1.28811
1213.06703	1.28549
1211.13846	1.28486
1209.20990	1.28571
1207.28133	1.28649
1205.35277	1.28505
1203.42420	1.27972
1201.49564	1.27122
1199.56708	1.26185
1197.63851	1.25264
1195.70995	1.24377
1193.78138	1.23566
1191.85282	1.22850
1189.92425	1.22219
1187.99569	1.21712
1186.06712	1.21433
1184.13856	1.21404
1182.21000	1.21531
1180.28143	1.21803
1178.35287	1.22320
1176.42430	1.23055
1174.49574	1.23852
1172.56717	1.24669
1170.63861	1.25642
1168.71004	1.26907
1166.78148	1.28485
1164.85292	1.30380
1162.92435	1.32452
1160.99579	1.34260
1159.06722	1.35340
1157.13866	1.35501
1155.21009	1.34804
1153.28153	1.33397
1151.35296	1.31523
1149.42440	1.29508
1147.49584	1.27649
1145.56727	1.26190
1143.63871	1.25255
1141.71014	1.24791
1139.78158	1.24728
1137.85301	1.25073
1135.92445	1.25792
1133.99588	1.26832
1132.06732	1.28215
1130.13876	1.29901
1128.21019	1.31692
1126.28163	1.33371
1124.35306	1.34922
1122.42450	1.36472
1120.49593	1.37890
1118.56737	1.38815
1116.63880	1.39160
1114.71024	1.39065
1112.78168	1.38687
1110.85311	1.38176
1108.92455	1.37549
1106.99598	1.36809
1105.06742	1.36092
1103.13885	1.35533
1101.21029	1.35160
1099.28172	1.34994
1097.35316	1.35133
1095.42460	1.35644
1093.49603	1.36567
1091.56747	1.37926
1089.63890	1.39662
1087.71034	1.41704
1085.78177	1.43932
1083.85321	1.46096
1081.92464	1.47915
1079.99608	1.49228
1078.06752	1.49976
1076.13895	1.49995
1074.21039	1.49290
1072.28182	1.48213
1070.35326	1.46916
1068.42469	1.45450
1066.49613	1.44060
1064.56756	1.42846
1062.63900	1.41820
1060.71044	1.41034
1058.78187	1.40327
1056.85331	1.39568
1054.92474	1.38941
1052.99618	1.38607
1051.06761	1.38457
1049.13905	1.38354
1047.21049	1.38295
1045.28192	1.38412
1043.35336	1.38865
1041.42479	1.39571
1039.49623	1.40237
1037.56766	1.40676
1035.63910	1.40844
1033.71053	1.40780
1031.78197	1.40526
1029.85341	1.39995
1027.92484	1.39090
1025.99628	1.37954
1024.06771	1.36804
1022.13915	1.35746
1020.21058	1.34869
1018.28202	1.34135
1016.35345	1.33291
1014.42489	1.32130
1012.49633	1.30670
1010.56776	1.29056
1008.63920	1.27332
1006.71063	1.25501
1004.78207	1.23676
1002.85350	1.21982
1000.92494	1.20533
998.99637	1.19443
997.06781	1.18648
995.13925	1.17971
993.21068	1.17292
991.28212	1.16502
989.35355	1.15548
987.42499	1.14489
985.49642	1.13436
983.56786	1.12565
981.63929	1.11996
979.71073	1.11672
977.78217	1.11428
975.85360	1.11137
973.92504	1.10723
971.99647	1.10130
970.06791	1.09390
968.13934	1.08648
966.21078	1.08038
964.28221	1.07636
962.35365	1.07605
960.42509	1.08174
958.49652	1.09295
956.56796	1.10442
954.63939	1.10989
952.71083	1.10803
950.78226	1.10172
948.85370	1.09405
946.92513	1.08731
944.99657	1.08227
943.06801	1.07863
941.13944	1.07613
939.21088	1.07419
937.28231	1.07226
935.35375	1.07071
933.42518	1.06990
931.49662	1.06928
929.56805	1.06805
927.63949	1.06617
925.71093	1.06429
923.78236	1.06288
921.85380	1.06187
919.92523	1.06090
917.99667	1.05926
916.06810	1.05659
914.13954	1.05376
912.21098	1.05182
910.28241	1.05105
908.35385	1.05222
906.42528	1.05595
904.49672	1.06123
902.56815	1.06705
900.63959	1.07291
898.71102	1.07766
896.78246	1.08068
894.85390	1.08239
892.92533	1.08335
890.99677	1.08435
889.06820	1.08601
887.13964	1.08795
885.21107	1.08970
883.28251	1.09130
881.35394	1.09325
879.42538	1.09627
877.49682	1.09973
875.56825	1.10236
873.63969	1.10461
871.71112	1.10721
869.78256	1.10965
867.85399	1.11172
865.92543	1.11358
863.99686	1.11528
862.06830	1.11747
860.13974	1.12079
858.21117	1.12478
856.28261	1.12894
854.35404	1.13368
852.42548	1.13921
850.49691	1.14489
848.56835	1.15047
846.63978	1.15581
844.71122	1.16077
842.78266	1.16631
840.85409	1.17331
838.92553	1.18100
836.99696	1.18811
835.06840	1.19428
833.13983	1.19996
831.21127	1.20525
829.28270	1.20943
827.35414	1.21268
825.42558	1.21607
823.49701	1.21902
821.56845	1.22000
819.63988	1.21920
817.71132	1.21825
815.78275	1.21798
813.85419	1.21747
811.92562	1.21542
809.99706	1.21156
808.06850	1.20723
806.13993	1.20445
804.21137	1.20357
802.28280	1.20356
800.35424	1.20381
798.42567	1.20404
796.49711	1.20438
794.56854	1.20568
792.63998	1.20811
790.71142	1.21186
788.78285	1.21717
786.85429	1.22344
784.92572	1.23037
782.99716	1.23765
781.06859	1.24464
779.14003	1.25123
777.21147	1.25644
775.28290	1.25941
773.35434	1.26154
771.42577	1.26399
769.49721	1.26607
767.56864	1.26792
765.64008	1.26982
763.71151	1.27070
761.78295	1.27032
759.85439	1.26953
757.92582	1.26854
755.99726	1.26731
754.06869	1.26669
752.14013	1.26674
750.21156	1.26650
748.28300	1.26677
746.35443	1.26883
744.42587	1.27199
742.49731	1.27499
740.56874	1.27782
738.64018	1.28185
736.71161	1.28770
734.78305	1.29407
732.85448	1.30007
730.92592	1.30708
728.99735	1.31611
727.06879	1.32563
725.14023	1.33421
723.21166	1.34232
721.28310	1.35051
719.35453	1.35714
717.42597	1.36086
715.49740	1.36314
713.56884	1.36530
711.64027	1.36715
709.71171	1.36822
707.78315	1.36823
705.85458	1.36805
703.92602	1.36839
701.99745	1.36733
700.06889	1.36332
698.14032	1.35793
696.21176	1.35283
694.28319	1.34805
692.35463	1.34347
690.42607	1.33995
688.49750	1.33811
686.56894	1.33742
684.64037	1.33624
682.71181	1.33382
680.78324	1.33297
678.85468	1.33540
676.92611	1.33783
674.99755	1.33980
673.06899	1.34496
671.14042	1.35242
669.21186	1.35729
667.28329	1.35655
665.35473	1.35711
663.42616	1.36100
661.49760	1.36499
659.56903	1.36466
657.64047	1.36155
655.71191	1.36107
653.78334	1.36361
651.85478	1.36606
649.92621	1.36595
647.99765	1.36536
646.06908	1.36801
644.14052	1.37181
642.21195	1.37363
640.28339	1.37311
638.35483	1.37015
636.42626	1.36593
634.49770	1.36216
632.56913	1.36001
630.64057	1.35930
628.71200	1.35809
626.78344	1.35621
624.85488	1.35562
622.92631	1.35704
620.99775	1.35856
619.06918	1.35881
617.14062	1.35914
615.21205	1.35869
613.28349	1.35692
611.35492	1.35858
609.42636	1.36550
607.49780	1.37368
605.56923	1.37878
603.64067	1.38164
601.71210	1.38738
599.78354	1.39565
