3997.91406	1.03552
3995.98550	1.03468
3994.05693	1.03268
3992.12837	1.03094
3990.19980	1.03048
3988.27124	1.03080
3986.34268	1.03068
3984.41411	1.03185
3982.48555	1.03449
3980.55698	1.03454
3978.62842	1.03292
3976.69985	1.03288
3974.77129	1.03321
3972.84272	1.03399
3970.91416	1.03554
3968.98560	1.03557
3967.05703	1.03343
3965.12847	1.02954
3963.19990	1.02472
3961.27134	1.02201
3959.34277	1.02369
3957.41421	1.02670
3955.48564	1.02661
3953.55708	1.02457
3951.62852	1.02424
3949.69995	1.02599
3947.77139	1.02879
3945.84282	1.03224
3943.91426	1.03336
3941.98569	1.03082
3940.05713	1.03008
3938.12856	1.03172
3936.20000	1.03163
3934.27144	1.03070
3932.34287	1.03057
3930.41431	1.02887
3928.48574	1.02669
3926.55718	1.02423
3924.62861	1.01871
3922.70005	1.01517
3920.77148	1.01816
3918.84292	1.02059
3916.91436	1.01635
3914.98579	1.01252
3913.05723	1.01313
3911.12866	1.01524
3909.20010	1.01952
3907.27153	1.02677
3905.34297	1.03095
3903.41440	1.02649
3901.48584	1.02120
3899.55728	1.01638
3897.62871	1.01123
3895.70015	1.01172
3893.77158	1.01478
3891.84302	1.01295
3889.91445	1.01318
3887.98589	1.02157
3886.05733	1.02667
3884.12876	1.02105
3882.20020	1.01328
3880.27163	1.00502
3878.34307	1.00213
3876.41450	1.00585
3874.48594	1.01037
3872.55737	1.01482
3870.62881	1.01585
3868.70025	1.01165
3866.77168	1.00899
3864.84312	1.00504
3862.91455	1.00026
3860.98599	1.00163
3859.05742	1.00767
3857.12886	1.01568
3855.20029	1.02134
3853.27173	1.01306
3851.34317	1.00272
3849.41460	1.00200
3847.48604	1.00458
3845.55747	1.00707
3843.62891	1.00848
3841.70034	1.01106
3839.77178	1.01217
3837.84321	1.00737
3835.91465	1.00560
3833.98609	1.00590
3832.05752	1.00234
3830.12896	0.99947
3828.20039	0.99962
3826.27183	1.00134
3824.34326	1.00686
3822.41470	1.00987
3820.48613	1.00164
3818.55757	0.99850
3816.62901	0.99740
3814.70044	0.99117
3812.77188	0.99008
3810.84331	0.99328
3808.91475	0.99305
3806.98618	0.98710
3805.05762	0.98907
3803.12905	0.99762
3801.20049	0.99615
3799.27193	0.99244
3797.34336	0.99094
3795.41480	0.98609
3793.48623	0.98363
3791.55767	0.98366
3789.62910	0.98424
3787.70054	0.98616
3785.77197	0.98652
3783.84341	0.98506
3781.91485	0.98676
3779.98628	0.98851
3778.05772	0.98578
3776.12915	0.98403
3774.20059	0.98616
3772.27202	0.99032
3770.34346	0.99277
3768.41489	0.99267
3766.48633	0.99148
3764.55777	0.98938
3762.62920	0.98981
3760.70064	0.99080
3758.77207	0.98827
3756.84351	0.98849
3754.91494	0.99649
3752.98638	1.00714
3751.05781	1.00191
3749.12925	0.98735
3747.20069	0.98726
3745.27212	0.98858
3743.34356	0.98676
3741.41499	0.99032
3739.48643	0.99683
3737.55786	1.00274
3735.62930	1.00310
3733.70074	0.99525
3731.77217	0.99033
3729.84361	0.99243
3727.91504	0.99622
3725.98648	0.99525
3724.05791	0.99157
3722.12935	0.99109
3720.20078	0.99162
3718.27222	0.99181
3716.34366	0.99386
3714.41509	0.99899
3712.48653	1.00276
3710.55796	0.99771
3708.62940	0.99312
3706.70083	0.99301
3704.77227	0.99379
3702.84370	0.99330
3700.91514	0.99192
3698.98658	0.99340
3697.05801	0.99827
3695.12945	1.00470
3693.20088	1.01199
3691.27232	1.01818
3689.34375	1.01638
3687.41519	1.01207
3685.48662	1.01300
3683.55806	1.01667
3681.62950	1.02348
3679.70093	1.03438
3677.77237	1.04478
3675.84380	1.04663
3673.91524	1.04912
3671.98667	1.05966
3670.05811	1.06571
3668.12954	1.06426
3666.20098	1.06792
3664.27242	1.07606
3662.34385	1.08497
3660.41529	1.09489
3658.48672	1.10560
3656.55816	1.11590
3654.62959	1.12934
3652.70103	1.14739
3650.77246	1.15943
3648.84390	1.14977
3646.91534	1.15017
3644.98677	1.16522
3643.05821	1.18030
3641.12964	1.19326
3639.20108	1.20477
3637.27251	1.21472
3635.34395	1.22377
3633.41538	1.23439
3631.48682	1.24749
3629.55826	1.25930
3627.62969	1.26587
3625.70113	1.27551
3623.77256	1.28894
3621.84400	1.30203
3619.91543	1.31265
3617.98687	1.32356
3616.05830	1.33841
3614.12974	1.35039
3612.20118	1.35426
3610.27261	1.35931
3608.34405	1.37065
3606.41548	1.38310
3604.48692	1.39547
3602.55835	1.40783
3600.62979	1.41430
3598.70123	1.41500
3596.77266	1.41807
3594.84410	1.42606
3592.91553	1.43661
3590.98697	1.44678
3589.05840	1.45490
3587.12984	1.46257
3585.20127	1.47465
3583.27271	1.48766
3581.34415	1.49844
3579.41558	1.50734
3577.48702	1.51628
3575.55845	1.52769
3573.62989	1.53858
3571.70132	1.54965
3569.77276	1.56677
3567.84419	1.58201
3565.91563	1.58098
3563.98707	1.57908
3562.05850	1.57883
3560.12994	1.57305
3558.20137	1.56849
3556.27281	1.57099
3554.34424	1.57707
3552.41568	1.58125
3550.48711	1.58734
3548.55855	1.60211
3546.62999	1.61567
3544.70142	1.61482
3542.77286	1.60805
3540.84429	1.60499
3538.91573	1.60603
3536.98716	1.61083
3535.05860	1.61932
3533.13003	1.62890
3531.20147	1.63370
3529.27291	1.63017
3527.34434	1.62983
3525.41578	1.64055
3523.48721	1.64850
3521.55865	1.64758
3519.63008	1.64404
3517.70152	1.64035
3515.77295	1.64020
3513.84439	1.64149
3511.91583	1.63937
3509.98726	1.63868
3508.05870	1.64255
3506.13013	1.64675
3504.20157	1.64626
3502.27300	1.64057
3500.34444	1.63876
3498.41587	1.64200
3496.48731	1.64508
3494.55875	1.64718
3492.63018	1.64656
3490.70162	1.64725
3488.77305	1.65776
3486.84449	1.67101
3484.91592	1.67551
3482.98736	1.67578
3481.05879	1.67590
3479.13023	1.67414
3477.20167	1.67122
3475.27310	1.66929
3473.34454	1.66974
3471.41597	1.66647
3469.48741	1.65698
3467.55884	1.65140
3465.63028	1.65781
3463.70171	1.67204
3461.77315	1.68060
3459.84459	1.67974
3457.91602	1.67859
3455.98746	1.67849
3454.05889	1.67580
3452.13033	1.67041
3450.20176	1.66374
3448.27320	1.65939
3446.34464	1.66101
3444.41607	1.66644
3442.48751	1.66845
3440.55894	1.66440
3438.63038	1.66056
3436.70181	1.66018
3434.77325	1.66027
3432.84468	1.66125
3430.91612	1.66610
3428.98756	1.67397
3427.05899	1.67868
3425.13043	1.67551
3423.20186	1.66691
3421.27330	1.65849
3419.34473	1.65494
3417.41617	1.65657
3415.48760	1.66100
3413.55904	1.66485
3411.63048	1.66408
3409.70191	1.65979
3407.77335	1.65776
3405.84478	1.65962
3403.91622	1.66009
3401.98765	1.65671
3400.05909	1.65391
3398.13052	1.65650
3396.20196	1.66444
3394.27340	1.66918
3392.34483	1.66232
3390.41627	1.64928
3388.48770	1.64221
3386.55914	1.64131
3384.63057	1.63732
3382.70201	1.63144
3380.77344	1.63267
3378.84488	1.64032
3376.91632	1.64592
3374.98775	1.64431
3373.05919	1.63932
3371.13062	1.63983
3369.20206	1.64716
3367.27349	1.65193
3365.34493	1.64838
3363.41636	1.64151
3361.48780	1.63828
3359.55924	1.63988
3357.63067	1.64143
3355.70211	1.63951
3353.77354	1.63610
3351.84498	1.63510
3349.91641	1.63873
3347.98785	1.64272
3346.05928	1.63952
3344.13072	1.63360
3342.20216	1.63581
3340.27359	1.64009
3338.34503	1.63500
3336.41646	1.62955
3334.48790	1.63441
3332.55933	1.63990
3330.63077	1.63517
3328.70220	1.62682
3326.77364	1.62377
3324.84508	1.62538
3322.91651	1.62665
3320.98795	1.62267
3319.05938	1.61563
3317.13082	1.61420
3315.20225	1.62070
3313.27369	1.62943
3311.34513	1.63445
3309.41656	1.63315
3307.48800	1.62855
3305.55943	1.62439
3303.63087	1.62029
3301.70230	1.61847
3299.77374	1.62232
3297.84517	1.62942
3295.91661	1.63431
3293.98805	1.63417
3292.05948	1.63251
3290.13092	1.63219
3288.20235	1.62972
3286.27379	1.62559
3284.34522	1.62534
3282.41666	1.62782
3280.48809	1.62715
3278.55953	1.62362
3276.63097	1.62244
3274.70240	1.62407
3272.77384	1.62297
3270.84527	1.61582
3268.91671	1.60582
3266.98814	1.60008
3265.05958	1.60100
3263.13101	1.59989
3261.20245	1.59127
3259.27389	1.58386
3257.34532	1.58299
3255.41676	1.58311
3253.48819	1.58147
3251.55963	1.57969
3249.63106	1.57755
3247.70250	1.57688
3245.77393	1.57762
3243.84537	1.57479
3241.91681	1.57069
3239.98824	1.57101
3238.05968	1.57333
3236.13111	1.57416
3234.20255	1.57219
3232.27398	1.56821
3230.34542	1.56764
3228.41685	1.57005
3226.48829	1.56930
3224.55973	1.56773
3222.63116	1.56829
3220.70260	1.56443
3218.77403	1.55437
3216.84547	1.54704
3214.91690	1.54637
3212.98834	1.54857
3211.05977	1.55102
3209.13121	1.55194
3207.20265	1.54886
3205.27408	1.54396
3203.34552	1.54120
3201.41695	1.53977
3199.48839	1.53775
3197.55982	1.53510
3195.63126	1.53340
3193.70269	1.53402
3191.77413	1.53377
3189.84557	1.52981
3187.91700	1.52519
3185.98844	1.52479
3184.05987	1.52765
3182.13131	1.52717
3180.20274	1.52311
3178.27418	1.52007
3176.34562	1.51656
3174.41705	1.51098
3172.48849	1.50653
3170.55992	1.50464
3168.63136	1.50624
3166.70279	1.51274
3164.77423	1.51851
3162.84566	1.51740
3160.91710	1.51202
3158.98854	1.50647
3157.05997	1.50280
3155.13141	1.50119
3153.20284	1.49955
3151.27428	1.49693
3149.34571	1.49496
3147.41715	1.49491
3145.48858	1.49386
3143.56002	1.48867
3141.63146	1.48303
3139.70289	1.48304
3137.77433	1.48749
3135.84576	1.48950
3133.91720	1.48801
3131.98863	1.48737
3130.06007	1.48788
3128.13150	1.48772
3126.20294	1.48753
3124.27438	1.48767
3122.34581	1.48742
3120.41725	1.48781
3118.48868	1.49039
3116.56012	1.49411
3114.63155	1.49577
3112.70299	1.49411
3110.77442	1.49122
3108.84586	1.48914
3106.91730	1.48836
3104.98873	1.48879
3103.06017	1.48910
3101.13160	1.48778
3099.20304	1.48717
3097.27447	1.48917
3095.34591	1.48986
3093.41734	1.48757
3091.48878	1.48574
3089.56022	1.48541
3087.63165	1.48526
3085.70309	1.48449
3083.77452	1.48261
3081.84596	1.47895
3079.91739	1.47455
3077.98883	1.47285
3076.06026	1.47428
3074.13170	1.47479
3072.20314	1.47248
3070.27457	1.47068
3068.34601	1.47218
3066.41744	1.47392
3064.48888	1.47197
3062.56031	1.46841
3060.63175	1.46635
3058.70318	1.46509
3056.77462	1.46427
3054.84606	1.46421
3052.91749	1.46326
3050.98893	1.46082
3049.06036	1.45893
3047.13180	1.45817
3045.20323	1.45716
3043.27467	1.45647
3041.34610	1.45649
3039.41754	1.45576
3037.48898	1.45503
3035.56041	1.45612
3033.63185	1.45795
3031.70328	1.45801
3029.77472	1.45491
3027.84615	1.45061
3025.91759	1.44894
3023.98903	1.44941
3022.06046	1.44871
3020.13190	1.44630
3018.20333	1.44225
3016.27477	1.43802
3014.34620	1.43677
3012.41764	1.43821
3010.48907	1.43965
3008.56051	1.44014
3006.63195	1.44008
3004.70338	1.44014
3002.77482	1.44071
3000.84625	1.44177
2998.91769	1.44358
2996.98912	1.44522
2995.06056	1.44609
2993.13199	1.44882
2991.20343	1.45295
2989.27487	1.45430
2987.34630	1.45396
2985.41774	1.45582
2983.48917	1.46051
2981.56061	1.46667
2979.63204	1.47297
2977.70348	1.47871
2975.77491	1.48344
2973.84635	1.48727
2971.91779	1.49117
2969.98922	1.49485
2968.06066	1.49760
2966.13209	1.49900
2964.20353	1.49813
2962.27496	1.49793
2960.34640	1.50161
2958.41783	1.50458
2956.48927	1.50241
2954.56071	1.49738
2952.63214	1.49325
2950.70358	1.49230
2948.77501	1.49344
2946.84645	1.49457
2944.91788	1.49660
2942.98932	1.50050
2941.06075	1.50615
2939.13219	1.51221
2937.20363	1.51645
2935.27506	1.51938
2933.34650	1.52368
2931.41793	1.53156
2929.48937	1.54134
2927.56080	1.54847
2925.63224	1.55238
2923.70367	1.55438
2921.77511	1.55554
2919.84655	1.55657
2917.91798	1.55315
2915.98942	1.54065
2914.06085	1.52252
2912.13229	1.50592
2910.20372	1.49343
2908.27516	1.48387
2906.34659	1.47749
2904.41803	1.47449
2902.48947	1.47113
2900.56090	1.46624
2898.63234	1.46394
2896.70377	1.46352
2894.77521	1.46112
2892.84664	1.45827
2890.91808	1.45694
2888.98952	1.45565
2887.06095	1.45436
2885.13239	1.45499
2883.20382	1.45589
2881.27526	1.45443
2879.34669	1.45263
2877.41813	1.45303
2875.48956	1.45494
2873.56100	1.45589
2871.63244	1.45418
2869.70387	1.45171
2867.77531	1.45081
2865.84674	1.44961
2863.91818	1.44746
2861.98961	1.44831
2860.06105	1.45263
2858.13248	1.45630
2856.20392	1.46010
2854.27536	1.46812
2852.34679	1.47796
2850.41823	1.48061
2848.48966	1.46906
2846.56110	1.44719
2844.63253	1.42564
2842.70397	1.40933
2840.77540	1.39806
2838.84684	1.39077
2836.91828	1.38551
2834.98971	1.38123
2833.06115	1.37749
2831.13258	1.37460
2829.20402	1.37291
2827.27545	1.37019
2825.34689	1.36546
2823.41832	1.36075
2821.48976	1.35651
2819.56120	1.35165
2817.63263	1.34690
2815.70407	1.34344
2813.77550	1.34174
2811.84694	1.34245
2809.91837	1.34393
2807.98981	1.34305
2806.06124	1.34012
2804.13268	1.33738
2802.20412	1.33533
2800.27555	1.33352
2798.34699	1.33183
2796.41842	1.33041
2794.48986	1.32863
2792.56129	1.32561
2790.63273	1.32281
2788.70416	1.32125
2786.77560	1.31878
2784.84704	1.31457
2782.91847	1.31089
2780.98991	1.30905
2779.06134	1.30768
2777.13278	1.30546
2775.20421	1.30349
2773.27565	1.30261
2771.34708	1.30133
2769.41852	1.29931
2767.48996	1.29789
2765.56139	1.29709
2763.63283	1.29570
2761.70426	1.29345
2759.77570	1.29189
2757.84713	1.29148
2755.91857	1.29054
2753.99001	1.28880
2752.06144	1.28739
2750.13288	1.28653
2748.20431	1.28562
2746.27575	1.28441
2744.34718	1.28275
2742.41862	1.28042
2740.49005	1.27835
2738.56149	1.27659
2736.63293	1.27398
2734.70436	1.27122
2732.77580	1.26905
2730.84723	1.26676
2728.91867	1.26396
2726.99010	1.26166
2725.06154	1.26074
2723.13297	1.25945
2721.20441	1.25656
2719.27585	1.25413
2717.34728	1.25331
2715.41872	1.25217
2713.49015	1.24979
2711.56159	1.24771
2709.63302	1.24686
2707.70446	1.24698
2705.77589	1.24729
2703.84733	1.24606
2701.91877	1.24294
2699.99020	1.23987
2698.06164	1.23786
2696.13307	1.23646
2694.20451	1.23518
2692.27594	1.23374
2690.34738	1.23203
2688.41881	1.23009
2686.49025	1.22850
2684.56169	1.22754
2682.63312	1.22622
2680.70456	1.22448
2678.77599	1.22328
2676.84743	1.22228
2674.91886	1.22123
2672.99030	1.22063
2671.06173	1.22006
2669.13317	1.21879
2667.20461	1.21705
2665.27604	1.21538
2663.34748	1.21367
2661.41891	1.21157
2659.49035	1.20876
2657.56178	1.20569
2655.63322	1.20376
2653.70465	1.20287
2651.77609	1.20107
2649.84753	1.19775
2647.91896	1.19422
2645.99040	1.19140
2644.06183	1.18899
2642.13327	1.18669
2640.20470	1.18492
2638.27614	1.18401
2636.34757	1.18368
2634.41901	1.18355
2632.49045	1.18353
2630.56188	1.18345
2628.63332	1.18289
2626.70475	1.18165
2624.77619	1.18056
2622.84762	1.18018
2620.91906	1.17906
2618.99049	1.17659
2617.06193	1.17471
2615.13337	1.17359
2613.20480	1.17166
2611.27624	1.16950
2609.34767	1.16788
2607.41911	1.16630
2605.49054	1.16488
2603.56198	1.16379
2601.63342	1.16275
2599.70485	1.16144
2597.77629	1.15998
2595.84772	1.15878
2593.91916	1.15724
2591.99059	1.15476
2590.06203	1.15227
2588.13346	1.15081
2586.20490	1.15040
2584.27634	1.15006
2582.34777	1.14849
2580.41921	1.14577
2578.49064	1.14339
2576.56208	1.14168
2574.63351	1.13985
2572.70495	1.13845
2570.77638	1.13803
2568.84782	1.13685
2566.91926	1.13415
2564.99069	1.13198
2563.06213	1.13069
2561.13356	1.12916
2559.20500	1.12802
2557.27643	1.12715
2555.34787	1.12550
2553.41930	1.12340
2551.49074	1.12179
2549.56218	1.12097
2547.63361	1.12010
2545.70505	1.11885
2543.77648	1.11788
2541.84792	1.11656
2539.91935	1.11404
2537.99079	1.11128
2536.06222	1.10925
2534.13366	1.10801
2532.20510	1.10691
2530.27653	1.10503
2528.34797	1.10286
2526.41940	1.10160
2524.49084	1.10110
2522.56227	1.10047
2520.63371	1.09936
2518.70514	1.09770
2516.77658	1.09579
2514.84802	1.09403
2512.91945	1.09230
2510.99089	1.09114
2509.06232	1.09078
2507.13376	1.08966
2505.20519	1.08730
2503.27663	1.08531
2501.34806	1.08439
2499.41950	1.08347
2497.49094	1.08168
2495.56237	1.07927
2493.63381	1.07695
2491.70524	1.07522
2489.77668	1.07390
2487.84811	1.07274
2485.91955	1.07151
2483.99098	1.06974
2482.06242	1.06742
2480.13386	1.06490
2478.20529	1.06257
2476.27673	1.06066
2474.34816	1.05924
2472.41960	1.05833
2470.49103	1.05729
2468.56247	1.05562
2466.63391	1.05400
2464.70534	1.05273
2462.77678	1.05080
2460.84821	1.04828
2458.91965	1.04655
2456.99108	1.04541
2455.06252	1.04355
2453.13395	1.04079
2451.20539	1.03803
2449.27683	1.03598
2447.34826	1.03434
2445.41970	1.03273
2443.49113	1.03117
2441.56257	1.02932
2439.63400	1.02718
2437.70544	1.02523
2435.77687	1.02365
2433.84831	1.02250
2431.91975	1.02135
2429.99118	1.01991
2428.06262	1.01866
2426.13405	1.01777
2424.20549	1.01680
2422.27692	1.01554
2420.34836	1.01416
2418.41979	1.01300
2416.49123	1.01202
2414.56267	1.01080
2412.63410	1.00945
2410.70554	1.00794
2408.77697	1.00606
2406.84841	1.00445
2404.91984	1.00324
2402.99128	1.00213
2401.06271	1.00143
2399.13415	1.00095
2397.20559	0.99983
2395.27702	0.99802
2393.34846	0.99612
2391.41989	0.99436
2389.49133	0.99303
2387.56276	0.99269
2385.63420	0.99355
2383.70563	0.99510
2381.77707	0.99683
2379.84851	0.99855
2377.91994	0.99984
2375.99138	1.00094
2374.06281	1.00326
2372.13425	1.00728
2370.20568	1.01140
2368.27712	1.01466
2366.34855	1.01844
2364.41999	1.02168
2362.49143	1.02069
2360.56286	1.01492
2358.63430	1.00769
2356.70573	1.00063
2354.77717	0.99454
2352.84860	0.99174
2350.92004	0.99179
2348.99147	0.99306
2347.06291	0.99453
2345.13435	0.99565
2343.20578	0.99650
2341.27722	0.99617
2339.34865	0.99507
2337.42009	0.99491
2335.49152	0.99509
2333.56296	0.99400
2331.63440	0.99194
2329.70583	0.99065
2327.77727	0.98978
2325.84870	0.98753
2323.92014	0.98327
2321.99157	0.97973
2320.06301	0.97898
2318.13444	0.97790
2316.20588	0.97484
2314.27732	0.97191
2312.34875	0.97047
2310.42019	0.96982
2308.49162	0.96921
2306.56306	0.96864
2304.63449	0.96800
2302.70593	0.96724
2300.77736	0.96652
2298.84880	0.96567
2296.92024	0.96459
2294.99167	0.96327
2293.06311	0.96164
2291.13454	0.95985
2289.20598	0.95825
2287.27741	0.95676
2285.34885	0.95512
2283.42028	0.95375
2281.49172	0.95291
2279.56316	0.95225
2277.63459	0.95159
2275.70603	0.95099
2273.77746	0.95025
2271.84890	0.94951
2269.92033	0.94909
2267.99177	0.94896
2266.06320	0.94904
2264.13464	0.94902
2262.20608	0.94873
2260.27751	0.94841
2258.34895	0.94809
2256.42038	0.94767
2254.49182	0.94704
2252.56325	0.94644
2250.63469	0.94604
2248.70612	0.94546
2246.77756	0.94464
2244.84900	0.94388
2242.92043	0.94298
2240.99187	0.94173
2239.06330	0.94048
2237.13474	0.93987
2235.20617	0.94020
2233.27761	0.94082
2231.34904	0.94095
2229.42048	0.94085
2227.49192	0.94081
2225.56335	0.94053
2223.63479	0.94012
2221.70622	0.93975
2219.77766	0.93943
2217.84909	0.93937
2215.92053	0.93934
2213.99196	0.93896
2212.06340	0.93831
2210.13484	0.93759
2208.20627	0.93695
2206.27771	0.93645
2204.34914	0.93603
2202.42058	0.93562
2200.49201	0.93504
2198.56345	0.93446
2196.63488	0.93419
2194.70632	0.93414
2192.77776	0.93411
2190.84919	0.93405
2188.92063	0.93388
2186.99206	0.93360
2185.06350	0.93331
2183.13493	0.93330
2181.20637	0.93344
2179.27781	0.93316
2177.34924	0.93263
2175.42068	0.93244
2173.49211	0.93253
2171.56355	0.93251
2169.63498	0.93240
2167.70642	0.93208
2165.77785	0.93144
2163.84929	0.93100
2161.92073	0.93078
2159.99216	0.93029
2158.06360	0.92974
2156.13503	0.92939
2154.20647	0.92926
2152.27790	0.92916
2150.34934	0.92874
2148.42077	0.92829
2146.49221	0.92807
2144.56365	0.92775
2142.63508	0.92733
2140.70652	0.92722
2138.77795	0.92719
2136.84939	0.92669
2134.92082	0.92589
2132.99226	0.92519
2131.06369	0.92443
2129.13513	0.92341
2127.20657	0.92234
2125.27800	0.92168
2123.34944	0.92132
2121.42087	0.92065
2119.49231	0.91967
2117.56374	0.91884
2115.63518	0.91823
2113.70661	0.91788
2111.77805	0.91765
2109.84949	0.91707
2107.92092	0.91615
2105.99236	0.91553
2104.06379	0.91535
2102.13523	0.91506
2100.20666	0.91454
2098.27810	0.91409
2096.34953	0.91380
2094.42097	0.91370
2092.49241	0.91378
2090.56384	0.91388
2088.63528	0.91394
2086.70671	0.91398
2084.77815	0.91382
2082.84958	0.91346
2080.92102	0.91320
2078.99245	0.91299
2077.06389	0.91266
2075.13533	0.91223
2073.20676	0.91157
2071.27820	0.91076
2069.34963	0.91018
2067.42107	0.90970
2065.49250	0.90863
2063.56394	0.90681
2061.63537	0.90499
2059.70681	0.90354
2057.77825	0.90226
2055.84968	0.90104
2053.92112	0.90013
2051.99255	0.89944
2050.06399	0.89841
2048.13542	0.89702
2046.20686	0.89576
2044.27830	0.89473
2042.34973	0.89350
2040.42117	0.89184
2038.49260	0.89003
2036.56404	0.88860
2034.63547	0.88757
2032.70691	0.88661
2030.77834	0.88561
2028.84978	0.88452
2026.92122	0.88332
2024.99265	0.88206
2023.06409	0.88079
2021.13552	0.88010
2019.20696	0.88013
2017.27839	0.87971
2015.34983	0.87837
2013.42126	0.87728
2011.49270	0.87694
2009.56414	0.87675
2007.63557	0.87630
2005.70701	0.87570
2003.77844	0.87511
2001.84988	0.87461
1999.92131	0.87427
1997.99275	0.87421
1996.06418	0.87471
1994.13562	0.87537
1992.20706	0.87507
1990.27849	0.87404
1988.34993	0.87311
1986.42136	0.87219
1984.49280	0.87144
1982.56423	0.87097
1980.63567	0.87049
1978.70710	0.87003
1976.77854	0.86973
1974.84998	0.86953
1972.92141	0.86926
1970.99285	0.86909
1969.06428	0.86909
1967.13572	0.86854
1965.20715	0.86731
1963.27859	0.86608
1961.35002	0.86486
1959.42146	0.86346
1957.49290	0.86205
1955.56433	0.86056
1953.63577	0.85867
1951.70720	0.85665
1949.77864	0.85506
1947.85007	0.85382
1945.92151	0.85268
1943.99294	0.85125
1942.06438	0.84854
1940.13582	0.84542
1938.20725	0.84365
1936.27869	0.84296
1934.35012	0.84226
1932.42156	0.84110
1930.49299	0.83970
1928.56443	0.83845
1926.63586	0.83770
1924.70730	0.83710
1922.77874	0.83608
1920.85017	0.83553
1918.92161	0.83509
1916.99304	0.83330
1915.06448	0.83157
1913.13591	0.83127
1911.20735	0.83140
1909.27878	0.83070
1907.35022	0.82936
1905.42166	0.82857
1903.49309	0.82849
1901.56453	0.82856
1899.63596	0.82871
1897.70740	0.82920
1895.77883	0.82962
1893.85027	0.82972
1891.92171	0.83016
1889.99314	0.83052
1888.06458	0.83001
1886.13601	0.82922
1884.20745	0.82833
1882.27888	0.82752
1880.35032	0.82702
1878.42175	0.82644
1876.49319	0.82565
1874.56463	0.82509
1872.63606	0.82558
1870.70750	0.82685
1868.77893	0.82616
1866.85037	0.82270
1864.92180	0.82002
1862.99324	0.81875
1861.06467	0.81779
1859.13611	0.81670
1857.20755	0.81541
1855.27898	0.81411
1853.35042	0.81304
1851.42185	0.81256
1849.49329	0.81284
1847.56472	0.81367
1845.63616	0.81391
1843.70759	0.81162
1841.77903	0.80895
1839.85047	0.80803
1837.92190	0.80746
1835.99334	0.80661
1834.06477	0.80674
1832.13621	0.80818
1830.20764	0.80870
1828.27908	0.80740
1826.35051	0.80627
1824.42195	0.80500
1822.49339	0.80389
1820.56482	0.80383
1818.63626	0.80429
1816.70769	0.80466
1814.77913	0.80558
1812.85056	0.80722
1810.92200	0.80796
1808.99343	0.80729
1807.06487	0.80698
1805.13631	0.80804
1803.20774	0.80997
1801.27918	0.81127
1799.35061	0.81143
1797.42205	0.81210
1795.49348	0.81374
1793.56492	0.81490
1791.63635	0.81368
1789.70779	0.81196
1787.77923	0.81217
1785.85066	0.81338
1783.92210	0.81456
1781.99353	0.81576
1780.06497	0.81700
1778.13640	0.81884
1776.20784	0.82200
1774.27927	0.82597
1772.35071	0.82843
1770.42215	0.82849
1768.49358	0.82889
1766.56502	0.83061
1764.63645	0.83391
1762.70789	0.83814
1760.77932	0.84195
1758.85076	0.84571
1756.92220	0.85046
1754.99363	0.85634
1753.06507	0.86415
1751.13650	0.87502
1749.20794	0.88735
1747.27937	0.89813
1745.35081	0.90842
1743.42224	0.91915
1741.49368	0.92987
1739.56512	0.94058
1737.63655	0.95033
1735.70799	0.96016
1733.77942	0.97241
1731.85086	0.98262
1729.92229	0.99077
1727.99373	0.99956
1726.06516	1.00992
1724.13660	1.02316
1722.20804	1.03757
1720.27947	1.05230
1718.35091	1.07297
1716.42234	1.10112
1714.49378	1.12251
1712.56521	1.14117
1710.63665	1.16361
1708.70808	1.19081
1706.77952	1.22778
1704.85096	1.27494
1702.92239	1.31788
1700.99383	1.37282
1699.06526	1.46065
1697.13670	1.54448
1695.20813	1.62360
1693.27957	1.68328
1691.35100	1.72814
1689.42244	1.77854
1687.49388	1.82609
1685.56531	1.87408
1683.63675	1.92435
1681.70818	1.94729
1679.77962	1.96490
1677.85105	1.98422
1675.92249	1.99914
1673.99392	2.01033
1672.06536	2.02856
1670.13680	2.04688
1668.20823	2.04635
1666.27967	2.03700
1664.35110	2.03374
1662.42254	2.03674
1660.49397	2.03984
1658.56541	2.04482
1656.63684	2.05062
1654.70828	2.05107
1652.77972	2.03286
1650.85115	2.02640
1648.92259	2.03133
1646.99402	2.02367
1645.06546	2.01213
1643.13689	2.01118
1641.20833	2.01281
1639.27976	2.01196
1637.35120	2.00617
1635.42264	1.99441
1633.49407	1.98675
1631.56551	1.98382
1629.63694	1.97910
1627.70838	1.97065
1625.77981	1.96088
1623.85125	1.95198
1621.92269	1.94407
1619.99412	1.94035
1618.06556	1.93758
1616.13699	1.92361
1614.20843	1.90742
1612.27986	1.89801
1610.35130	1.89072
1608.42273	1.87898
1606.49417	1.86188
1604.56561	1.84710
1602.63704	1.83737
1600.70848	1.83121
1598.77991	1.82608
1596.85135	1.82154
1594.92278	1.81940
1592.99422	1.81979
1591.06565	1.82145
1589.13709	1.82406
1587.20853	1.82812
1585.27996	1.83302
1583.35140	1.83937
1581.42283	1.84906
1579.49427	1.86154
1577.56570	1.87328
1575.63714	1.87828
1573.70857	1.88124
1571.78001	1.88767
1569.85145	1.89567
1567.92288	1.90014
1565.99432	1.90249
1564.06575	1.90790
1562.13719	1.91610
1560.20862	1.92419
1558.28006	1.92323
1556.35149	1.92129
1554.42293	1.92302
1552.49437	1.92369
1550.56580	1.92367
1548.63724	1.92365
1546.70867	1.92571
1544.78011	1.92840
1542.85154	1.92829
1540.92298	1.91703
1538.99441	1.89339
1537.06585	1.88578
1535.13729	1.88557
1533.20872	1.88278
1531.28016	1.87766
1529.35159	1.87584
1527.42303	1.87574
1525.49446	1.87446
1523.56590	1.87031
1521.63733	1.85858
1519.70877	1.84805
1517.78021	1.84472
1515.85164	1.84373
1513.92308	1.84190
1511.99451	1.83724
1510.06595	1.83194
1508.13738	1.81898
1506.20882	1.78115
1504.28025	1.75993
1502.35169	1.74997
1500.42313	1.73741
1498.49456	1.71620
1496.56600	1.68581
1494.63743	1.66205
1492.70887	1.64663
1490.78030	1.62754
1488.85174	1.59965
1486.92317	1.57617
1484.99461	1.56234
1483.06605	1.55528
1481.13748	1.55267
1479.20892	1.55445
1477.28035	1.56186
1475.35179	1.57522
1473.42322	1.59449
1471.49466	1.61214
1469.56610	1.62195
1467.63753	1.63011
1465.70897	1.63977
1463.78040	1.64883
1461.85184	1.65560
1459.92327	1.66290
1457.99471	1.67343
1456.06614	1.67973
1454.13758	1.67788
1452.20902	1.67585
1450.28045	1.67555
1448.35189	1.67368
1446.42332	1.66771
1444.49476	1.66152
1442.56619	1.65644
1440.63763	1.65203
1438.70906	1.64707
1436.78050	1.63718
1434.85194	1.62496
1432.92337	1.61649
1430.99481	1.60861
1429.06624	1.60056
1427.13768	1.59551
1425.20911	1.59307
1423.28055	1.59295
1421.35198	1.59626
1419.42342	1.60105
1417.49486	1.60327
1415.56629	1.60387
1413.63773	1.60483
1411.70916	1.60575
1409.78060	1.60636
1407.85203	1.60758
1405.92347	1.61020
1403.99490	1.61317
1402.06634	1.61545
1400.13778	1.61650
1398.20921	1.61530
1396.28065	1.61238
1394.35208	1.60816
1392.42352	1.60545
1390.49495	1.60667
1388.56639	1.61100
1386.63782	1.61644
1384.70926	1.62097
1382.78070	1.62521
1380.85213	1.62894
1378.92357	1.62976
1376.99500	1.62702
1375.06644	1.61924
1373.13787	1.60514
1371.20931	1.59060
1369.28074	1.57593
1367.35218	1.55958
1365.42362	1.54524
1363.49505	1.53167
1361.56649	1.51700
1359.63792	1.50576
1357.70936	1.49862
1355.78079	1.49259
1353.85223	1.48643
1351.92366	1.48098
1349.99510	1.47601
1348.06654	1.47105
1346.13797	1.46704
1344.20941	1.46504
1342.28084	1.46490
1340.35228	1.46491
1338.42371	1.46402
1336.49515	1.46475
1334.56659	1.46939
1332.63802	1.47777
1330.70946	1.48827
1328.78089	1.49822
1326.85233	1.50565
1324.92376	1.51102
1322.99520	1.51641
1321.06663	1.52226
1319.13807	1.52691
1317.20951	1.52946
1315.28094	1.53003
1313.35238	1.52839
1311.42381	1.52536
1309.49525	1.52197
1307.56668	1.51741
1305.63812	1.51176
1303.70955	1.50672
1301.78099	1.50214
1299.85243	1.49697
1297.92386	1.49095
1295.99530	1.48398
1294.06673	1.47694
1292.13817	1.47130
1290.20960	1.46746
1288.28104	1.46440
1286.35247	1.46116
1284.42391	1.45809
1282.49535	1.45552
1280.56678	1.45300
1278.63822	1.44995
1276.70965	1.44645
1274.78109	1.44382
1272.85252	1.44302
1270.92396	1.44298
1268.99539	1.44302
1267.06683	1.44429
1265.13827	1.44687
1263.20970	1.44949
1261.28114	1.45182
1259.35257	1.45465
1257.42401	1.45891
1255.49544	1.46447
1253.56688	1.47008
1251.63831	1.47527
1249.70975	1.48042
1247.78119	1.48525
1245.85262	1.48960
1243.92406	1.49371
1241.99549	1.49663
1240.06693	1.49683
1238.13836	1.49399
1236.20980	1.48850
1234.28123	1.48064
1232.35267	1.47076
1230.42411	1.45927
1228.49554	1.44668
1226.56698	1.43333
1224.63841	1.41971
1222.70985	1.40649
1220.78128	1.39349
1218.85272	1.38071
1216.92415	1.36960
1214.99559	1.36218
1213.06703	1.35958
1211.13846	1.36083
1209.20990	1.36373
1207.28133	1.36664
1205.35277	1.36800
1203.42420	1.36632
1201.49564	1.36137
1199.56708	1.35440
1197.63851	1.34656
1195.70995	1.33777
1193.78138	1.32832
1191.85282	1.31973
1189.92425	1.31284
1187.99569	1.30691
1186.06712	1.30157
1184.13856	1.29812
1182.21000	1.29799
1180.28143	1.30119
1178.35287	1.30733
1176.42430	1.31636
1174.49574	1.32720
1172.56717	1.33812
1170.63861	1.34924
1168.71004	1.36217
1166.78148	1.37760
1164.85292	1.39434
1162.92435	1.40977
1160.99579	1.42170
1159.06722	1.42804
1157.13866	1.42630
1155.21009	1.41672
1153.28153	1.40164
1151.35296	1.38307
1149.42440	1.36284
1147.49584	1.34262
1145.56727	1.32470
1143.63871	1.31118
1141.71014	1.30272
1139.78158	1.29932
1137.85301	1.30058
1135.92445	1.30647
1133.99588	1.31682
1132.06732	1.32959
1130.13876	1.34359
1128.21019	1.35952
1126.28163	1.37709
1124.35306	1.39497
1122.42450	1.41136
1120.49593	1.42480
1118.56737	1.43509
1116.63880	1.44117
1114.71024	1.44257
1112.78168	1.44141
1110.85311	1.43811
1108.92455	1.43219
1106.99598	1.42581
1105.06742	1.42045
1103.13885	1.41624
1101.21029	1.41428
1099.28172	1.41486
1097.35316	1.41683
1095.42460	1.42053
1093.49603	1.42830
1091.56747	1.44020
1089.63890	1.45368
1087.71034	1.46853
1085.78177	1.48495
1083.85321	1.49985
1081.92464	1.51130
1079.99608	1.52010
1078.06752	1.52486
1076.13895	1.52311
1074.21039	1.51520
1072.28182	1.50244
1070.35326	1.48699
1068.42469	1.47221
1066.49613	1.45981
1064.56756	1.44946
1062.63900	1.43963
1060.71044	1.42928
1058.78187	1.41991
1056.85331	1.41274
1054.92474	1.40732
1052.99618	1.40378
1051.06761	1.40288
1049.13905	1.40512
1047.21049	1.40977
1045.28192	1.41537
1043.35336	1.42270
1041.42479	1.43299
1039.49623	1.44395
1037.56766	1.45253
1035.63910	1.45873
1033.71053	1.46288
1031.78197	1.46262
1029.85341	1.45662
1027.92484	1.44810
1025.99628	1.43885
1024.06771	1.42699
1022.13915	1.41346
1020.21058	1.40106
1018.28202	1.38921
1016.35345	1.37616
1014.42489	1.36056
1012.49633	1.34141
1010.56776	1.32012
1008.63920	1.29829
1006.71063	1.27623
1004.78207	1.25483
1002.85350	1.23583
1000.92494	1.22056
998.99637	1.20919
997.06781	1.20181
995.13925	1.19755
993.21068	1.19336
991.28212	1.18716
989.35355	1.17941
987.42499	1.17078
985.49642	1.16214
983.56786	1.15541
981.63929	1.15196
979.71073	1.15126
977.78217	1.15192
975.85360	1.15252
973.92504	1.15122
971.99647	1.14690
970.06791	1.14015
968.13934	1.13220
966.21078	1.12421
964.28221	1.11744
962.35365	1.11376
960.42509	1.11499
958.49652	1.12067
956.56796	1.12647
954.63939	1.12670
952.71083	1.11928
950.78226	1.10684
948.85370	1.09343
946.92513	1.08182
944.99657	1.07317
943.06801	1.06756
941.13944	1.06451
939.21088	1.06300
937.28231	1.06195
935.35375	1.06142
933.42518	1.06187
931.49662	1.06301
929.56805	1.06458
927.63949	1.06611
925.71093	1.06666
923.78236	1.06633
921.85380	1.06582
919.92523	1.06467
917.99667	1.06203
916.06810	1.05839
914.13954	1.05533
912.21098	1.05382
910.28241	1.05373
908.35385	1.05515
906.42528	1.05872
904.49672	1.06454
902.56815	1.07181
900.63959	1.07884
898.71102	1.08415
896.78246	1.08775
894.85390	1.08997
892.92533	1.09068
890.99677	1.09030
889.06820	1.08941
887.13964	1.08782
885.21107	1.08558
883.28251	1.08362
881.35394	1.08260
879.42538	1.08239
877.49682	1.08270
875.56825	1.08322
873.63969	1.08384
871.71112	1.08492
869.78256	1.08710
867.85399	1.09064
865.92543	1.09474
863.99686	1.09853
862.06830	1.10282
860.13974	1.10832
858.21117	1.11417
856.28261	1.11949
854.35404	1.12382
852.42548	1.12689
850.49691	1.12868
848.56835	1.12908
846.63978	1.12918
844.71122	1.13032
842.78266	1.13171
840.85409	1.13222
838.92553	1.13252
836.99696	1.13372
835.06840	1.13591
833.13983	1.13870
831.21127	1.14177
829.28270	1.14471
827.35414	1.14793
825.42558	1.15282
823.49701	1.15945
821.56845	1.16669
819.63988	1.17437
817.71132	1.18247
815.78275	1.19048
813.85419	1.19848
811.92562	1.20668
809.99706	1.21428
808.06850	1.22037
806.13993	1.22522
804.21137	1.22922
802.28280	1.23219
800.35424	1.23437
798.42567	1.23563
796.49711	1.23533
794.56854	1.23425
792.63998	1.23395
790.71142	1.23476
788.78285	1.23610
786.85429	1.23851
784.92572	1.24306
782.99716	1.24880
781.06859	1.25480
779.14003	1.26252
777.21147	1.27290
775.28290	1.28408
773.35434	1.29419
771.42577	1.30337
769.49721	1.31186
767.56864	1.31973
765.64008	1.32777
763.71151	1.33569
761.78295	1.34206
759.85439	1.34674
757.92582	1.35011
755.99726	1.35188
754.06869	1.35261
752.14013	1.35310
750.21156	1.35339
748.28300	1.35413
746.35443	1.35631
744.42587	1.35953
742.49731	1.36254
740.56874	1.36503
738.64018	1.36718
736.71161	1.36901
734.78305	1.37114
732.85448	1.37430
730.92592	1.37865
728.99735	1.38276
727.06879	1.38441
725.14023	1.38465
723.21166	1.38627
721.28310	1.38802
719.35453	1.38690
717.42597	1.38497
715.49740	1.38568
713.56884	1.38749
711.64027	1.38711
709.71171	1.38571
707.78315	1.38658
705.85458	1.39023
703.92602	1.39510
701.99745	1.39980
700.06889	1.40511
698.14032	1.41240
696.21176	1.42054
694.28319	1.42797
692.35463	1.43437
690.42607	1.44092
688.49750	1.44832
686.56894	1.45562
684.64037	1.46485
682.71181	1.47591
680.78324	1.48143
678.85468	1.48013
676.92611	1.47847
674.99755	1.47753
673.06899	1.47544
671.14042	1.47363
669.21186	1.47092
667.28329	1.46563
665.35473	1.46426
663.42616	1.46407
661.49760	1.46165
659.56903	1.46047
657.64047	1.46211
655.71191	1.46160
653.78334	1.45940
651.85478	1.46050
649.92621	1.46432
647.99765	1.46849
646.06908	1.47349
644.14052	1.47884
642.21195	1.48089
640.28339	1.47782
638.35483	1.47307
636.42626	1.46915
634.49770	1.46413
632.56913	1.45535
630.64057	1.44371
628.71200	1.43482
626.78344	1.43214
624.85488	1.43312
622.92631	1.43385
620.99775	1.43441
619.06918	1.43799
617.14062	1.44355
615.21205	1.44584
613.28349	1.44529
611.35492	1.44578
609.42636	1.44840
607.49780	1.45399
605.56923	1.46145
603.64067	1.46529
601.71210	1.46636
599.78354	1.47105
