3997.91406	0.99832
3995.98550	0.99819
3994.05693	0.99806
3992.12837	0.99786
3990.19980	0.99651
3988.27124	0.99503
3986.34268	0.99455
3984.41411	0.99390
3982.48555	0.99236
3980.55698	0.99117
3978.62842	0.99108
3976.69985	0.99070
3974.77129	0.98891
3972.84272	0.98681
3970.91416	0.98592
3968.98560	0.98622
3967.05703	0.98662
3965.12847	0.98664
3963.19990	0.98654
3961.27134	0.98630
3959.34277	0.98519
3957.41421	0.98314
3955.48564	0.98098
3953.55708	0.97833
3951.62852	0.97536
3949.69995	0.97458
3947.77139	0.97558
3945.84282	0.97505
3943.91426	0.97416
3941.98569	0.97623
3940.05713	0.97960
3938.12856	0.98049
3936.20000	0.97923
3934.27144	0.97841
3932.34287	0.97897
3930.41431	0.97907
3928.48574	0.97584
3926.55718	0.97072
3924.62861	0.96937
3922.70005	0.97255
3920.77148	0.97435
3918.84292	0.97411
3916.91436	0.97416
3914.98579	0.97315
3913.05723	0.97160
3911.12866	0.97085
3909.20010	0.96866
3907.27153	0.96419
3905.34297	0.96063
3903.41440	0.96152
3901.48584	0.96451
3899.55728	0.96719
3897.62871	0.96872
3895.70015	0.96782
3893.77158	0.96626
3891.84302	0.96601
3889.91445	0.96451
3887.98589	0.96270
3886.05733	0.96577
3884.12876	0.96899
3882.20020	0.96711
3880.27163	0.96773
3878.34307	0.96818
3876.41450	0.96372
3874.48594	0.95940
3872.55737	0.95983
3870.62881	0.96429
3868.70025	0.96628
3866.77168	0.96217
3864.84312	0.95722
3862.91455	0.95527
3860.98599	0.95388
3859.05742	0.95172
3857.12886	0.94836
3855.20029	0.94489
3853.27173	0.95236
3851.34317	0.96088
3849.41460	0.95751
3847.48604	0.94999
3845.55747	0.94369
3843.62891	0.94173
3841.70034	0.94435
3839.77178	0.95036
3837.84321	0.95434
3835.91465	0.95037
3833.98609	0.94501
3832.05752	0.94343
3830.12896	0.94400
3828.20039	0.94511
3826.27183	0.94640
3824.34326	0.94436
3822.41470	0.94170
3820.48613	0.94528
3818.55757	0.94772
3816.62901	0.94726
3814.70044	0.94558
3812.77188	0.94147
3810.84331	0.93551
3808.91475	0.93004
3806.98618	0.93046
3805.05762	0.93316
3803.12905	0.93324
3801.20049	0.93430
3799.27193	0.93465
3797.34336	0.93589
3795.41480	0.93793
3793.48623	0.93640
3791.55767	0.93342
3789.62910	0.93141
3787.70054	0.92959
3785.77197	0.92905
3783.84341	0.93004
3781.91485	0.92957
3779.98628	0.92897
3778.05772	0.93002
3776.12915	0.93037
3774.20059	0.92941
3772.27202	0.92820
3770.34346	0.92884
3768.41489	0.93103
3766.48633	0.93329
3764.55777	0.93383
3762.62920	0.92923
3760.70064	0.92321
3758.77207	0.92213
3756.84351	0.92133
3754.91494	0.91536
3752.98638	0.90806
3751.05781	0.91044
3749.12925	0.92023
3747.20069	0.92367
3745.27212	0.92878
3743.34356	0.93421
3741.41499	0.92959
3739.48643	0.92178
3737.55786	0.92009
3735.62930	0.92695
3733.70074	0.93006
3731.77217	0.92662
3729.84361	0.92220
3727.91504	0.91805
3725.98648	0.91595
3724.05791	0.91672
3722.12935	0.91856
3720.20078	0.92095
3718.27222	0.92301
3716.34366	0.92183
3714.41509	0.91663
3712.48653	0.91342
3710.55796	0.91950
3708.62940	0.92318
3706.70083	0.91992
3704.77227	0.91582
3702.84370	0.91587
3700.91514	0.91839
3698.98658	0.91882
3697.05801	0.91888
3695.12945	0.91838
3693.20088	0.91624
3691.27232	0.91683
3689.34375	0.92541
3687.41519	0.93104
3685.48662	0.93040
3683.55806	0.92961
3681.62950	0.93055
3679.70093	0.93112
3677.77237	0.92916
3675.84380	0.93346
3673.91524	0.94269
3671.98667	0.94560
3670.05811	0.95449
3668.12954	0.96562
3666.20098	0.96750
3664.27242	0.96711
3662.34385	0.96982
3660.41529	0.97543
3658.48672	0.98225
3656.55816	0.99131
3654.62959	0.99734
3652.70103	0.99662
3650.77246	0.99661
3648.84390	1.01289
3646.91534	1.03014
3644.98677	1.03476
3643.05821	1.03771
3641.12964	1.04434
3639.20108	1.05337
3637.27251	1.06246
3635.34395	1.07029
3633.41538	1.07400
3631.48682	1.07364
3629.55826	1.08248
3627.62969	1.10161
3625.70113	1.10935
3623.77256	1.11204
3621.84400	1.11487
3619.91543	1.12233
3617.98687	1.13484
3616.05830	1.14250
3614.12974	1.14965
3612.20118	1.15935
3610.27261	1.16492
3608.34405	1.17015
3606.41548	1.17865
3604.48692	1.18352
3602.55835	1.18710
3600.62979	1.19587
3598.70123	1.20545
3596.77266	1.21043
3594.84410	1.21599
3592.91553	1.22296
3590.98697	1.22465
3589.05840	1.22522
3587.12984	1.23807
3585.20127	1.25537
3583.27271	1.26563
3581.34415	1.27234
3579.41558	1.27721
3577.48702	1.28380
3575.55845	1.29483
3573.62989	1.30413
3571.70132	1.30674
3569.77276	1.30651
3567.84419	1.31251
3565.91563	1.32514
3563.98707	1.33361
3562.05850	1.34336
3560.12994	1.35748
3558.20137	1.36946
3556.27281	1.37522
3554.34424	1.37860
3552.41568	1.38534
3550.48711	1.39143
3548.55855	1.39429
3546.62999	1.40216
3544.70142	1.41414
3542.77286	1.42094
3540.84429	1.42544
3538.91573	1.43156
3536.98716	1.43905
3535.05860	1.44732
3533.13003	1.45445
3531.20147	1.45787
3529.27291	1.45834
3527.34434	1.46243
3525.41578	1.47213
3523.48721	1.48218
3521.55865	1.49196
3519.63008	1.50499
3517.70152	1.52011
3515.77295	1.53106
3513.84439	1.53386
3511.91583	1.53036
3509.98726	1.52905
3508.05870	1.53529
3506.13013	1.54216
3504.20157	1.54959
3502.27300	1.56476
3500.34444	1.58019
3498.41587	1.58581
3496.48731	1.58685
3494.55875	1.59533
3492.63018	1.61226
3490.70162	1.62928
3488.77305	1.64209
3486.84449	1.64912
3484.91592	1.64936
3482.98736	1.64802
3481.05879	1.65003
3479.13023	1.65402
3477.20167	1.66000
3475.27310	1.66782
3473.34454	1.66980
3471.41597	1.66330
3469.48741	1.65902
3467.55884	1.66113
3465.63028	1.66263
3463.70171	1.66337
3461.77315	1.67205
3459.84459	1.68736
3457.91602	1.69412
3455.98746	1.69272
3454.05889	1.69927
3452.13033	1.71045
3450.20176	1.71107
3448.27320	1.70251
3446.34464	1.69515
3444.41607	1.69720
3442.48751	1.70813
3440.55894	1.71435
3438.63038	1.71537
3436.70181	1.72349
3434.77325	1.73414
3432.84468	1.73906
3430.91612	1.73759
3428.98756	1.72977
3427.05899	1.71876
3425.13043	1.71007
3423.20186	1.70774
3421.27330	1.71029
3419.34473	1.71231
3417.41617	1.71243
3415.48760	1.71723
3413.55904	1.72896
3411.63048	1.73733
3409.70191	1.73655
3407.77335	1.73011
3405.84478	1.72541
3403.91622	1.73149
3401.98765	1.74278
3400.05909	1.74540
3398.13052	1.74289
3396.20196	1.74529
3394.27340	1.75288
3392.34483	1.76150
3390.41627	1.76410
3388.48770	1.75779
3386.55914	1.74974
3384.63057	1.74842
3382.70201	1.75203
3380.77344	1.75048
3378.84488	1.74594
3376.91632	1.74644
3374.98775	1.74595
3373.05919	1.74100
3371.13062	1.74166
3369.20206	1.75540
3367.27349	1.77204
3365.34493	1.76913
3363.41636	1.75115
3361.48780	1.74674
3359.55924	1.75895
3357.63067	1.76661
3355.70211	1.76555
3353.77354	1.76479
3351.84498	1.76473
3349.91641	1.76627
3347.98785	1.76844
3346.05928	1.76762
3344.13072	1.76496
3342.20216	1.76329
3340.27359	1.76569
3338.34503	1.77101
3336.41646	1.77854
3334.48790	1.78779
3332.55933	1.78826
3330.63077	1.77708
3328.70220	1.77101
3326.77364	1.78261
3324.84508	1.80300
3322.91651	1.81649
3320.98795	1.81806
3319.05938	1.81668
3317.13082	1.82337
3315.20225	1.82933
3313.27369	1.82589
3311.34513	1.82263
3309.41656	1.82323
3307.48800	1.82481
3305.55943	1.82465
3303.63087	1.81850
3301.70230	1.81149
3299.77374	1.81752
3297.84517	1.83757
3295.91661	1.85221
3293.98805	1.85279
3292.05948	1.85553
3290.13092	1.86500
3288.20235	1.86367
3286.27379	1.84831
3284.34522	1.83717
3282.41666	1.83737
3280.48809	1.83845
3278.55953	1.83409
3276.63097	1.83024
3274.70240	1.83426
3272.77384	1.84424
3270.84527	1.84584
3268.91671	1.83175
3266.98814	1.81640
3265.05958	1.81442
3263.13101	1.82178
3261.20245	1.82645
3259.27389	1.82546
3257.34532	1.81843
3255.41676	1.80651
3253.48819	1.79923
3251.55963	1.79496
3249.63106	1.78151
3247.70250	1.76185
3245.77393	1.74948
3243.84537	1.74810
3241.91681	1.74812
3239.98824	1.74078
3238.05968	1.72851
3236.13111	1.71849
3234.20255	1.71334
3232.27398	1.71099
3230.34542	1.70874
3228.41685	1.70534
3226.48829	1.70041
3224.55973	1.69246
3222.63116	1.68111
3220.70260	1.67035
3218.77403	1.66401
3216.84547	1.65854
3214.91690	1.64880
3212.98834	1.63951
3211.05977	1.63772
3209.13121	1.63912
3207.20265	1.63606
3205.27408	1.62979
3203.34552	1.62119
3201.41695	1.60986
3199.48839	1.60273
3197.55982	1.60115
3195.63126	1.59866
3193.70269	1.59521
3191.77413	1.59153
3189.84557	1.58548
3187.91700	1.57851
3185.98844	1.57160
3184.05987	1.56352
3182.13131	1.55699
3180.20274	1.55522
3178.27418	1.55511
3176.34562	1.55114
3174.41705	1.54365
3172.48849	1.53764
3170.55992	1.53396
3168.63136	1.52900
3166.70279	1.52085
3164.77423	1.51020
3162.84566	1.50079
3160.91710	1.49652
3158.98854	1.49545
3157.05997	1.49314
3155.13141	1.49017
3153.20284	1.48883
3151.27428	1.48588
3149.34571	1.47945
3147.41715	1.47464
3145.48858	1.47333
3143.56002	1.47166
3141.63146	1.46681
3139.70289	1.46041
3137.77433	1.45738
3135.84576	1.45641
3133.91720	1.45110
3131.98863	1.44433
3130.06007	1.44234
3128.13150	1.44217
3126.20294	1.43890
3124.27438	1.43519
3122.34581	1.43563
3120.41725	1.43804
3118.48868	1.43849
3116.56012	1.43710
3114.63155	1.43436
3112.70299	1.43069
3110.77442	1.42910
3108.84586	1.43023
3106.91730	1.42948
3104.98873	1.42649
3103.06017	1.42603
3101.13160	1.42718
3099.20304	1.42622
3097.27447	1.42380
3095.34591	1.42086
3093.41734	1.41736
3091.48878	1.41349
3089.56022	1.40970
3087.63165	1.40718
3085.70309	1.40484
3083.77452	1.40171
3081.84596	1.39915
3079.91739	1.39650
3077.98883	1.39421
3076.06026	1.39337
3074.13170	1.39191
3072.20314	1.38976
3070.27457	1.38758
3068.34601	1.38350
3066.41744	1.37798
3064.48888	1.37380
3062.56031	1.37166
3060.63175	1.36963
3058.70318	1.36485
3056.77462	1.35810
3054.84606	1.35358
3052.91749	1.35095
3050.98893	1.34688
3049.06036	1.34166
3047.13180	1.33655
3045.20323	1.33056
3043.27467	1.32399
3041.34610	1.31914
3039.41754	1.31532
3037.48898	1.30941
3035.56041	1.30235
3033.63185	1.29775
3031.70328	1.29559
3029.77472	1.29338
3027.84615	1.28984
3025.91759	1.28490
3023.98903	1.27964
3022.06046	1.27471
3020.13190	1.27016
3018.20333	1.26733
3016.27477	1.26589
3014.34620	1.26284
3012.41764	1.25751
3010.48907	1.25256
3008.56051	1.24926
3006.63195	1.24698
3004.70338	1.24538
3002.77482	1.24380
3000.84625	1.24120
2998.91769	1.23764
2996.98912	1.23564
2995.06056	1.23879
2993.13199	1.24612
2991.20343	1.25143
2989.27487	1.25248
2987.34630	1.25448
2985.41774	1.26079
2983.48917	1.26791
2981.56061	1.27330
2979.63204	1.27934
2977.70348	1.28719
2975.77491	1.29636
2973.84635	1.30613
2971.91779	1.31419
2969.98922	1.32107
2968.06066	1.32947
2966.13209	1.33846
2964.20353	1.34540
2962.27496	1.34831
2960.34640	1.34669
2958.41783	1.34268
2956.48927	1.33803
2954.56071	1.33196
2952.63214	1.32377
2950.70358	1.31526
2948.77501	1.31003
2946.84645	1.31048
2944.91788	1.31513
2942.98932	1.32080
2941.06075	1.32663
2939.13219	1.33486
2937.20363	1.34711
2935.27506	1.36020
2933.34650	1.36969
2931.41793	1.37624
2929.48937	1.38350
2927.56080	1.39119
2925.63224	1.39738
2923.70367	1.40319
2921.77511	1.40731
2919.84655	1.40742
2917.91798	1.40367
2915.98942	1.39256
2914.06085	1.37227
2912.13229	1.34900
2910.20372	1.32835
2908.27516	1.31147
2906.34659	1.29875
2904.41803	1.28948
2902.48947	1.28157
2900.56090	1.27379
2898.63234	1.26638
2896.70377	1.26019
2894.77521	1.25562
2892.84664	1.25227
2890.91808	1.24839
2888.98952	1.24284
2887.06095	1.23662
2885.13239	1.23085
2883.20382	1.22756
2881.27526	1.22824
2879.34669	1.23109
2877.41813	1.23338
2875.48956	1.23346
2873.56100	1.23079
2871.63244	1.22557
2869.70387	1.21838
2867.77531	1.21056
2865.84674	1.20391
2863.91818	1.19958
2861.98961	1.19826
2860.06105	1.20069
2858.13248	1.20617
2856.20392	1.21375
2854.27536	1.22360
2852.34679	1.23460
2850.41823	1.24074
2848.48966	1.23232
2846.56110	1.20731
2844.63253	1.17656
2842.70397	1.15133
2840.77540	1.13471
2838.84684	1.12432
2836.91828	1.11732
2834.98971	1.11212
2833.06115	1.10723
2831.13258	1.10202
2829.20402	1.09751
2827.27545	1.09322
2825.34689	1.08844
2823.41832	1.08437
2821.48976	1.08074
2819.56120	1.07722
2817.63263	1.07512
2815.70407	1.07327
2813.77550	1.06948
2811.84694	1.06497
2809.91837	1.06138
2807.98981	1.05794
2806.06124	1.05450
2804.13268	1.05181
2802.20412	1.04926
2800.27555	1.04675
2798.34699	1.04447
2796.41842	1.04083
2794.48986	1.03571
2792.56129	1.03167
2790.63273	1.02935
2788.70416	1.02727
2786.77560	1.02484
2784.84704	1.02242
2782.91847	1.02024
2780.98991	1.01757
2779.06134	1.01427
2777.13278	1.01211
2775.20421	1.01172
2773.27565	1.01129
2771.34708	1.00968
2769.41852	1.00781
2767.48996	1.00637
2765.56139	1.00502
2763.63283	1.00359
2761.70426	1.00213
2759.77570	1.00016
2757.84713	0.99737
2755.91857	0.99455
2753.99001	0.99232
2752.06144	0.98987
2750.13288	0.98685
2748.20431	0.98425
2746.27575	0.98256
2744.34718	0.98143
2742.41862	0.98051
2740.49005	0.97903
2738.56149	0.97678
2736.63293	0.97459
2734.70436	0.97246
2732.77580	0.96985
2730.84723	0.96688
2728.91867	0.96444
2726.99010	0.96309
2725.06154	0.96186
2723.13297	0.96009
2721.20441	0.95865
2719.27585	0.95778
2717.34728	0.95675
2715.41872	0.95544
2713.49015	0.95377
2711.56159	0.95135
2709.63302	0.94858
2707.70446	0.94629
2705.77589	0.94473
2703.84733	0.94354
2701.91877	0.94264
2699.99020	0.94188
2698.06164	0.94057
2696.13307	0.93902
2694.20451	0.93773
2692.27594	0.93625
2690.34738	0.93501
2688.41881	0.93500
2686.49025	0.93509
2684.56169	0.93384
2682.63312	0.93227
2680.70456	0.93154
2678.77599	0.93111
2676.84743	0.93036
2674.91886	0.92928
2672.99030	0.92817
2671.06173	0.92740
2669.13317	0.92688
2667.20461	0.92632
2665.27604	0.92605
2663.34748	0.92657
2661.41891	0.92711
2659.49035	0.92665
2657.56178	0.92543
2655.63322	0.92417
2653.70465	0.92284
2651.77609	0.92132
2649.84753	0.92025
2647.91896	0.91991
2645.99040	0.91956
2644.06183	0.91882
2642.13327	0.91791
2640.20470	0.91683
2638.27614	0.91587
2636.34757	0.91500
2634.41901	0.91361
2632.49045	0.91186
2630.56188	0.91036
2628.63332	0.90950
2626.70475	0.90933
2624.77619	0.90902
2622.84762	0.90761
2620.91906	0.90565
2618.99049	0.90423
2617.06193	0.90328
2615.13337	0.90232
2613.20480	0.90110
2611.27624	0.89950
2609.34767	0.89777
2607.41911	0.89610
2605.49054	0.89440
2603.56198	0.89313
2601.63342	0.89269
2599.70485	0.89201
2597.77629	0.89051
2595.84772	0.88918
2593.91916	0.88816
2591.99059	0.88704
2590.06203	0.88594
2588.13346	0.88474
2586.20490	0.88328
2584.27634	0.88186
2582.34777	0.88067
2580.41921	0.87944
2578.49064	0.87813
2576.56208	0.87681
2574.63351	0.87541
2572.70495	0.87410
2570.77638	0.87320
2568.84782	0.87286
2566.91926	0.87263
2564.99069	0.87167
2563.06213	0.87027
2561.13356	0.86919
2559.20500	0.86789
2557.27643	0.86611
2555.34787	0.86483
2553.41930	0.86432
2551.49074	0.86363
2549.56218	0.86246
2547.63361	0.86112
2545.70505	0.85968
2543.77648	0.85903
2541.84792	0.85952
2539.91935	0.85953
2537.99079	0.85841
2536.06222	0.85702
2534.13366	0.85590
2532.20510	0.85504
2530.27653	0.85414
2528.34797	0.85352
2526.41940	0.85351
2524.49084	0.85315
2522.56227	0.85174
2520.63371	0.85025
2518.70514	0.84942
2516.77658	0.84871
2514.84802	0.84783
2512.91945	0.84700
2510.99089	0.84635
2509.06232	0.84564
2507.13376	0.84445
2505.20519	0.84298
2503.27663	0.84170
2501.34806	0.84047
2499.41950	0.83915
2497.49094	0.83825
2495.56237	0.83770
2493.63381	0.83667
2491.70524	0.83531
2489.77668	0.83429
2487.84811	0.83357
2485.91955	0.83281
2483.99098	0.83212
2482.06242	0.83166
2480.13386	0.83121
2478.20529	0.83063
2476.27673	0.83003
2474.34816	0.82952
2472.41960	0.82921
2470.49103	0.82896
2468.56247	0.82891
2466.63391	0.82928
2464.70534	0.82931
2462.77678	0.82846
2460.84821	0.82724
2458.91965	0.82619
2456.99108	0.82519
2455.06252	0.82384
2453.13395	0.82226
2451.20539	0.82090
2449.27683	0.81986
2447.34826	0.81911
2445.41970	0.81844
2443.49113	0.81749
2441.56257	0.81640
2439.63400	0.81553
2437.70544	0.81462
2435.77687	0.81331
2433.84831	0.81203
2431.91975	0.81093
2429.99118	0.80936
2428.06262	0.80745
2426.13405	0.80606
2424.20549	0.80522
2422.27692	0.80455
2420.34836	0.80392
2418.41979	0.80318
2416.49123	0.80222
2414.56267	0.80119
2412.63410	0.80028
2410.70554	0.79926
2408.77697	0.79793
2406.84841	0.79649
2404.91984	0.79515
2402.99128	0.79434
2401.06271	0.79409
2399.13415	0.79361
2397.20559	0.79240
2395.27702	0.79090
2393.34846	0.78972
2391.41989	0.78909
2389.49133	0.78838
2387.56276	0.78693
2385.63420	0.78501
2383.70563	0.78318
2381.77707	0.78170
2379.84851	0.78039
2377.91994	0.77896
2375.99138	0.77783
2374.06281	0.77743
2372.13425	0.77705
2370.20568	0.77573
2368.27712	0.77391
2366.34855	0.77400
2364.41999	0.77812
2362.49143	0.78389
2360.56286	0.78308
2358.63430	0.77512
2356.70573	0.77211
2354.77717	0.77562
2352.84860	0.77750
2350.92004	0.77566
2348.99147	0.77309
2347.06291	0.77207
2345.13435	0.77289
2343.20578	0.77298
2341.27722	0.77201
2339.34865	0.77337
2337.42009	0.77611
2335.49152	0.77736
2333.56296	0.77677
2331.63440	0.77474
2329.70583	0.77301
2327.77727	0.77244
2325.84870	0.77166
2323.92014	0.77151
2321.99157	0.77291
2320.06301	0.77398
2318.13444	0.77360
2316.20588	0.77266
2314.27732	0.77162
2312.34875	0.77043
2310.42019	0.76953
2308.49162	0.76885
2306.56306	0.76810
2304.63449	0.76754
2302.70593	0.76737
2300.77736	0.76718
2298.84880	0.76627
2296.92024	0.76491
2294.99167	0.76404
2293.06311	0.76365
2291.13454	0.76324
2289.20598	0.76263
2287.27741	0.76199
2285.34885	0.76167
2283.42028	0.76158
2281.49172	0.76091
2279.56316	0.75956
2277.63459	0.75844
2275.70603	0.75761
2273.77746	0.75632
2271.84890	0.75473
2269.92033	0.75344
2267.99177	0.75248
2266.06320	0.75143
2264.13464	0.74988
2262.20608	0.74837
2260.27751	0.74765
2258.34895	0.74720
2256.42038	0.74614
2254.49182	0.74450
2252.56325	0.74292
2250.63469	0.74195
2248.70612	0.74132
2246.77756	0.74051
2244.84900	0.73958
2242.92043	0.73859
2240.99187	0.73743
2239.06330	0.73641
2237.13474	0.73597
2235.20617	0.73596
2233.27761	0.73566
2231.34904	0.73490
2229.42048	0.73406
2227.49192	0.73331
2225.56335	0.73287
2223.63479	0.73282
2221.70622	0.73271
2219.77766	0.73253
2217.84909	0.73252
2215.92053	0.73235
2213.99196	0.73195
2212.06340	0.73172
2210.13484	0.73156
2208.20627	0.73134
2206.27771	0.73124
2204.34914	0.73112
2202.42058	0.73076
2200.49201	0.73035
2198.56345	0.73030
2196.63488	0.73057
2194.70632	0.73081
2192.77776	0.73087
2190.84919	0.73090
2188.92063	0.73089
2186.99206	0.73069
2185.06350	0.73027
2183.13493	0.72965
2181.20637	0.72893
2179.27781	0.72830
2177.34924	0.72768
2175.42068	0.72672
2173.49211	0.72566
2171.56355	0.72506
2169.63498	0.72455
2167.70642	0.72370
2165.77785	0.72296
2163.84929	0.72257
2161.92073	0.72229
2159.99216	0.72178
2158.06360	0.72095
2156.13503	0.71986
2154.20647	0.71863
2152.27790	0.71770
2150.34934	0.71719
2148.42077	0.71682
2146.49221	0.71633
2144.56365	0.71562
2142.63508	0.71462
2140.70652	0.71350
2138.77795	0.71270
2136.84939	0.71239
2134.92082	0.71203
2132.99226	0.71123
2131.06369	0.71027
2129.13513	0.70962
2127.20657	0.70903
2125.27800	0.70800
2123.34944	0.70684
2121.42087	0.70627
2119.49231	0.70589
2117.56374	0.70492
2115.63518	0.70373
2113.70661	0.70285
2111.77805	0.70206
2109.84949	0.70117
2107.92092	0.70022
2105.99236	0.69912
2104.06379	0.69794
2102.13523	0.69689
2100.20666	0.69591
2098.27810	0.69487
2096.34953	0.69374
2094.42097	0.69266
2092.49241	0.69174
2090.56384	0.69076
2088.63528	0.68976
2086.70671	0.68896
2084.77815	0.68825
2082.84958	0.68736
2080.92102	0.68627
2078.99245	0.68519
2077.06389	0.68423
2075.13533	0.68328
2073.20676	0.68224
2071.27820	0.68111
2069.34963	0.67974
2067.42107	0.67817
2065.49250	0.67674
2063.56394	0.67556
2061.63537	0.67424
2059.70681	0.67242
2057.77825	0.67040
2055.84968	0.66887
2053.92112	0.66770
2051.99255	0.66641
2050.06399	0.66534
2048.13542	0.66449
2046.20686	0.66340
2044.27830	0.66234
2042.34973	0.66158
2040.42117	0.66084
2038.49260	0.66000
2036.56404	0.65929
2034.63547	0.65873
2032.70691	0.65807
2030.77834	0.65737
2028.84978	0.65685
2026.92122	0.65652
2024.99265	0.65633
2023.06409	0.65623
2021.13552	0.65622
2019.20696	0.65646
2017.27839	0.65678
2015.34983	0.65674
2013.42126	0.65652
2011.49270	0.65652
2009.56414	0.65656
2007.63557	0.65630
2005.70701	0.65567
2003.77844	0.65485
2001.84988	0.65397
1999.92131	0.65299
1997.99275	0.65179
1996.06418	0.65009
1994.13562	0.64811
1992.20706	0.64667
1990.27849	0.64551
1988.34993	0.64373
1986.42136	0.64144
1984.49280	0.63913
1982.56423	0.63718
1980.63567	0.63578
1978.70710	0.63451
1976.77854	0.63280
1974.84998	0.63078
1972.92141	0.62893
1970.99285	0.62724
1969.06428	0.62560
1967.13572	0.62425
1965.20715	0.62298
1963.27859	0.62142
1961.35002	0.61983
1959.42146	0.61839
1957.49290	0.61698
1955.56433	0.61566
1953.63577	0.61440
1951.70720	0.61303
1949.77864	0.61149
1947.85007	0.60970
1945.92151	0.60778
1943.99294	0.60642
1942.06438	0.60573
1940.13582	0.60445
1938.20725	0.60250
1936.27869	0.60074
1934.35012	0.59908
1932.42156	0.59728
1930.49299	0.59551
1928.56443	0.59363
1926.63586	0.59153
1924.70730	0.58971
1922.77874	0.58841
1920.85017	0.58691
1918.92161	0.58544
1916.99304	0.58469
1915.06448	0.58378
1913.13591	0.58241
1911.20735	0.58126
1909.27878	0.58052
1907.35022	0.57991
1905.42166	0.57934
1903.49309	0.57891
1901.56453	0.57847
1899.63596	0.57790
1897.70740	0.57744
1895.77883	0.57744
1893.85027	0.57740
1891.92171	0.57700
1889.99314	0.57717
1888.06458	0.57770
1886.13601	0.57761
1884.20745	0.57736
1882.27888	0.57723
1880.35032	0.57682
1878.42175	0.57604
1876.49319	0.57506
1874.56463	0.57386
1872.63606	0.57227
1870.70750	0.57066
1868.77893	0.57030
1866.85037	0.57061
1864.92180	0.56989
1862.99324	0.56855
1861.06467	0.56719
1859.13611	0.56610
1857.20755	0.56545
1855.27898	0.56514
1853.35042	0.56479
1851.42185	0.56411
1849.49329	0.56316
1847.56472	0.56214
1845.63616	0.56205
1843.70759	0.56378
1841.77903	0.56477
1839.85047	0.56425
1837.92190	0.56401
1835.99334	0.56450
1834.06477	0.56436
1832.13621	0.56361
1830.20764	0.56398
1828.27908	0.56485
1826.35051	0.56477
1824.42195	0.56498
1822.49339	0.56523
1820.56482	0.56473
1818.63626	0.56399
1816.70769	0.56325
1814.77913	0.56233
1812.85056	0.56158
1810.92200	0.56148
1808.99343	0.56128
1807.06487	0.56035
1805.13631	0.55913
1803.20774	0.55792
1801.27918	0.55743
1799.35061	0.55750
1797.42205	0.55684
1795.49348	0.55551
1793.56492	0.55513
1791.63635	0.55687
1789.70779	0.55769
1787.77923	0.55684
1785.85066	0.55604
1783.92210	0.55567
1781.99353	0.55565
1780.06497	0.55617
1778.13640	0.55618
1776.20784	0.55494
1774.27927	0.55380
1772.35071	0.55496
1770.42215	0.55719
1768.49358	0.55823
1766.56502	0.55839
1764.63645	0.55792
1762.70789	0.55852
1760.77932	0.56103
1758.85076	0.56355
1756.92220	0.56704
1754.99363	0.57082
1753.06507	0.57371
1751.13650	0.57909
1749.20794	0.58895
1747.27937	0.59841
1745.35081	0.60566
1743.42224	0.61212
1741.49368	0.61872
1739.56512	0.62554
1737.63655	0.62969
1735.70799	0.63216
1733.77942	0.63988
1731.85086	0.64907
1729.92229	0.65481
1727.99373	0.65998
1726.06516	0.66524
1724.13660	0.67220
1722.20804	0.67933
1720.27947	0.68501
1718.35091	0.69506
1716.42234	0.71622
1714.49378	0.73501
1712.56521	0.74883
1710.63665	0.76351
1708.70808	0.78103
1706.77952	0.80739
1704.85096	0.84280
1702.92239	0.87340
1700.99383	0.91463
1699.06526	0.98399
1697.13670	1.05207
1695.20813	1.11885
1693.27957	1.16597
1691.35100	1.20015
1689.42244	1.24218
1687.49388	1.28109
1685.56531	1.31782
1683.63675	1.37819
1681.70818	1.42358
1679.77962	1.44701
1677.85105	1.46796
1675.92249	1.49495
1673.99392	1.52430
1672.06536	1.54476
1670.13680	1.56573
1668.20823	1.58989
1666.27967	1.60100
1664.35110	1.60801
1662.42254	1.62139
1660.49397	1.63136
1658.56541	1.63054
1656.63684	1.62401
1654.70828	1.61929
1652.77972	1.62235
1650.85115	1.62432
1648.92259	1.62299
1646.99402	1.62076
1645.06546	1.61760
1643.13689	1.61280
1641.20833	1.60816
1639.27976	1.60244
1637.35120	1.59671
1635.42264	1.59458
1633.49407	1.58987
1631.56551	1.58144
1629.63694	1.57157
1627.70838	1.56355
1625.77981	1.55714
1623.85125	1.54583
1621.92269	1.52675
1619.99412	1.50785
1618.06556	1.48722
1616.13699	1.45793
1614.20843	1.43203
1612.27986	1.41121
1610.35130	1.39012
1608.42273	1.36710
1606.49417	1.34427
1604.56561	1.32561
1602.63704	1.31208
1600.70848	1.30320
1598.77991	1.29746
1596.85135	1.29357
1594.92278	1.29108
1592.99422	1.29030
1591.06565	1.29166
1589.13709	1.29518
1587.20853	1.30132
1585.27996	1.31004
1583.35140	1.32054
1581.42283	1.33134
1579.49427	1.34163
1577.56570	1.35649
1575.63714	1.38018
1573.70857	1.39570
1571.78001	1.40465
1569.85145	1.41984
1567.92288	1.43736
1565.99432	1.45013
1564.06575	1.46219
1562.13719	1.46886
1560.20862	1.47103
1558.28006	1.48856
1556.35149	1.50484
1554.42293	1.51071
1552.49437	1.51431
1550.56580	1.51682
1548.63724	1.51628
1546.70867	1.51177
1544.78011	1.50408
1542.85154	1.49407
1540.92298	1.48799
1538.99441	1.48625
1537.06585	1.47999
1535.13729	1.47166
1533.20872	1.46493
1531.28016	1.45903
1529.35159	1.45264
1527.42303	1.44842
1525.49446	1.44531
1523.56590	1.44032
1521.63733	1.43666
1519.70877	1.43475
1517.78021	1.42658
1515.85164	1.41152
1513.92308	1.39512
1511.99451	1.37812
1510.06595	1.36079
1508.13738	1.33712
1506.20882	1.29842
1504.28025	1.27422
1502.35169	1.25623
1500.42313	1.23612
1498.49456	1.21363
1496.56600	1.19025
1494.63743	1.17087
1492.70887	1.15508
1490.78030	1.13720
1488.85174	1.11771
1486.92317	1.10452
1484.99461	1.09535
1483.06605	1.08891
1481.13748	1.08658
1479.20892	1.08828
1477.28035	1.09400
1475.35179	1.10543
1473.42322	1.12668
1471.49466	1.15139
1469.56610	1.16381
1467.63753	1.17007
1465.70897	1.17882
1463.78040	1.18951
1461.85184	1.19461
1459.92327	1.19552
1457.99471	1.20035
1456.06614	1.21228
1454.13758	1.21678
1452.20902	1.21611
1450.28045	1.21373
1448.35189	1.21025
1446.42332	1.20572
1444.49476	1.19965
1442.56619	1.19155
1440.63763	1.18244
1438.70906	1.17271
1436.78050	1.16080
1434.85194	1.14781
1432.92337	1.13564
1430.99481	1.12413
1429.06624	1.11476
1427.13768	1.10813
1425.20911	1.10386
1423.28055	1.10238
1421.35198	1.10291
1419.42342	1.10710
1417.49486	1.11485
1415.56629	1.11920
1413.63773	1.12109
1411.70916	1.12341
1409.78060	1.12639
1407.85203	1.12935
1405.92347	1.13405
1403.99490	1.14057
1402.06634	1.14496
1400.13778	1.14787
1398.20921	1.15143
1396.28065	1.15509
1394.35208	1.15794
1392.42352	1.15907
1390.49495	1.15980
1388.56639	1.16418
1386.63782	1.17439
1384.70926	1.18511
1382.78070	1.19299
1380.85213	1.19770
1378.92357	1.19774
1376.99500	1.19212
1375.06644	1.18019
1373.13787	1.16361
1371.20931	1.14618
1369.28074	1.12668
1367.35218	1.10545
1365.42362	1.08641
1363.49505	1.06984
1361.56649	1.05682
1359.63792	1.04920
1357.70936	1.04533
1355.78079	1.04411
1353.85223	1.04474
1351.92366	1.04611
1349.99510	1.04830
1348.06654	1.05173
1346.13797	1.05581
1344.20941	1.06001
1342.28084	1.06446
1340.35228	1.07063
1338.42371	1.07909
1336.49515	1.08792
1334.56659	1.09705
1332.63802	1.10708
1330.70946	1.11707
1328.78089	1.12523
1326.85233	1.13040
1324.92376	1.13316
1322.99520	1.13522
1321.06663	1.13757
1319.13807	1.13977
1317.20951	1.14099
1315.28094	1.14139
1313.35238	1.14151
1311.42381	1.14074
1309.49525	1.13873
1307.56668	1.13616
1305.63812	1.13384
1303.70955	1.13229
1301.78099	1.13088
1299.85243	1.12874
1297.92386	1.12605
1295.99530	1.12381
1294.06673	1.12343
1292.13817	1.12545
1290.20960	1.12903
1288.28104	1.13323
1286.35247	1.13762
1284.42391	1.14200
1282.49535	1.14604
1280.56678	1.14953
1278.63822	1.15351
1276.70965	1.15917
1274.78109	1.16578
1272.85252	1.17243
1270.92396	1.17921
1268.99539	1.18602
1267.06683	1.19153
1265.13827	1.19480
1263.20970	1.19623
1261.28114	1.19595
1259.35257	1.19355
1257.42401	1.18937
1255.49544	1.18508
1253.56688	1.18205
1251.63831	1.17941
1249.70975	1.17614
1247.78119	1.17324
1245.85262	1.17095
1243.92406	1.16798
1241.99549	1.16430
1240.06693	1.16095
1238.13836	1.15716
1236.20980	1.15140
1234.28123	1.14431
1232.35267	1.13706
1230.42411	1.12954
1228.49554	1.12178
1226.56698	1.11379
1224.63841	1.10541
1222.70985	1.09761
1220.78128	1.09131
1218.85272	1.08637
1216.92415	1.08298
1214.99559	1.08167
1213.06703	1.08227
1211.13846	1.08489
1209.20990	1.08920
1207.28133	1.09216
1205.35277	1.09049
1203.42420	1.08459
1201.49564	1.07653
1199.56708	1.06681
1197.63851	1.05556
1195.70995	1.04427
1193.78138	1.03456
1191.85282	1.02691
1189.92425	1.02102
1187.99569	1.01691
1186.06712	1.01498
1184.13856	1.01542
1182.21000	1.01806
1180.28143	1.02292
1178.35287	1.03054
1176.42430	1.04089
1174.49574	1.05281
1172.56717	1.06570
1170.63861	1.08025
1168.71004	1.09777
1166.78148	1.11881
1164.85292	1.14183
1162.92435	1.16366
1160.99579	1.18118
1159.06722	1.19114
1157.13866	1.19138
1155.21009	1.18333
1153.28153	1.16953
1151.35296	1.15176
1149.42440	1.13285
1147.49584	1.11505
1145.56727	1.09903
1143.63871	1.08648
1141.71014	1.07937
1139.78158	1.07698
1137.85301	1.07699
1135.92445	1.07850
1133.99588	1.08223
1132.06732	1.08953
1130.13876	1.10125
1128.21019	1.11559
1126.28163	1.12954
1124.35306	1.14169
1122.42450	1.15211
1120.49593	1.16118
1118.56737	1.16870
1116.63880	1.17334
1114.71024	1.17385
1112.78168	1.17072
1110.85311	1.16525
1108.92455	1.15946
1106.99598	1.15573
1105.06742	1.15380
1103.13885	1.15287
1101.21029	1.15430
1099.28172	1.15902
1097.35316	1.16706
1095.42460	1.17874
1093.49603	1.19317
1091.56747	1.20835
1089.63890	1.22480
1087.71034	1.24444
1085.78177	1.26651
1083.85321	1.28802
1081.92464	1.30499
1079.99608	1.31520
1078.06752	1.31964
1076.13895	1.31885
1074.21039	1.31165
1072.28182	1.29892
1070.35326	1.28423
1068.42469	1.26825
1066.49613	1.25046
1064.56756	1.23323
1062.63900	1.21804
1060.71044	1.20453
1058.78187	1.19236
1056.85331	1.18177
1054.92474	1.17414
1052.99618	1.16999
1051.06761	1.16833
1049.13905	1.16927
1047.21049	1.17462
1045.28192	1.18517
1043.35336	1.19888
1041.42479	1.21263
1039.49623	1.22464
1037.56766	1.23439
1035.63910	1.24225
1033.71053	1.24870
1031.78197	1.25256
1029.85341	1.25270
1027.92484	1.25003
1025.99628	1.24493
1024.06771	1.23672
1022.13915	1.22670
1020.21058	1.21739
1018.28202	1.20928
1016.35345	1.20064
1014.42489	1.18820
1012.49633	1.16988
1010.56776	1.14723
1008.63920	1.12239
1006.71063	1.09696
1004.78207	1.07269
1002.85350	1.05079
1000.92494	1.03224
998.99637	1.01755
997.06781	1.00652
995.13925	0.99840
993.21068	0.99190
991.28212	0.98558
989.35355	0.97874
987.42499	0.97244
985.49642	0.96886
983.56786	0.96929
981.63929	0.97299
979.71073	0.97858
977.78217	0.98526
975.85360	0.99158
973.92504	0.99541
971.99647	0.99588
970.06791	0.99334
968.13934	0.98838
966.21078	0.98232
964.28221	0.97677
962.35365	0.97342
960.42509	0.97457
958.49652	0.97997
956.56796	0.98486
954.63939	0.98364
952.71083	0.97389
950.78226	0.95760
948.85370	0.93929
946.92513	0.92226
944.99657	0.90732
943.06801	0.89420
941.13944	0.88274
939.21088	0.87300
937.28231	0.86511
935.35375	0.85876
933.42518	0.85348
931.49662	0.84974
929.56805	0.84852
927.63949	0.84960
925.71093	0.85213
923.78236	0.85584
921.85380	0.86087
919.92523	0.86670
917.99667	0.87231
916.06810	0.87798
914.13954	0.88484
912.21098	0.89273
910.28241	0.90065
908.35385	0.90901
906.42528	0.91885
904.49672	0.92980
902.56815	0.94025
900.63959	0.94856
898.71102	0.95396
896.78246	0.95622
894.85390	0.95572
892.92533	0.95358
890.99677	0.95001
889.06820	0.94510
887.13964	0.93978
885.21107	0.93460
883.28251	0.92984
881.35394	0.92570
879.42538	0.92212
877.49682	0.91911
875.56825	0.91691
873.63969	0.91592
871.71112	0.91616
869.78256	0.91777
867.85399	0.92098
865.92543	0.92512
863.99686	0.92988
862.06830	0.93592
860.13974	0.94334
858.21117	0.95174
856.28261	0.96056
854.35404	0.96910
852.42548	0.97688
850.49691	0.98380
848.56835	0.98969
846.63978	0.99379
844.71122	0.99624
842.78266	0.99829
840.85409	1.00001
838.92553	1.00093
836.99696	1.00121
835.06840	1.00077
833.13983	0.99918
831.21127	0.99640
829.28270	0.99290
827.35414	0.98883
825.42558	0.98423
823.49701	0.97921
821.56845	0.97428
819.63988	0.96984
817.71132	0.96542
815.78275	0.96143
813.85419	0.95877
811.92562	0.95684
809.99706	0.95508
808.06850	0.95353
806.13993	0.95232
804.21137	0.95182
802.28280	0.95245
800.35424	0.95462
798.42567	0.95773
796.49711	0.96103
794.56854	0.96543
792.63998	0.97147
790.71142	0.97860
788.78285	0.98620
786.85429	0.99342
784.92572	1.00016
782.99716	1.00662
781.06859	1.01241
779.14003	1.01772
777.21147	1.02216
775.28290	1.02466
773.35434	1.02625
771.42577	1.02791
769.49721	1.02807
767.56864	1.02643
765.64008	1.02419
763.71151	1.02152
761.78295	1.01852
759.85439	1.01511
757.92582	1.01126
755.99726	1.00788
754.06869	1.00517
752.14013	1.00249
750.21156	1.00047
748.28300	0.99958
746.35443	0.99906
744.42587	0.99943
742.49731	1.00183
740.56874	1.00618
738.64018	1.01198
736.71161	1.01879
734.78305	1.02643
732.85448	1.03504
730.92592	1.04485
728.99735	1.05536
727.06879	1.06551
725.14023	1.07535
723.21166	1.08545
721.28310	1.09546
719.35453	1.10378
717.42597	1.10926
715.49740	1.11221
713.56884	1.11335
711.64027	1.11351
709.71171	1.11328
707.78315	1.11334
705.85458	1.11284
703.92602	1.10953
701.99745	1.10466
700.06889	1.10126
698.14032	1.09869
696.21176	1.09433
694.28319	1.08816
692.35463	1.08282
690.42607	1.07965
688.49750	1.07740
686.56894	1.07444
684.64037	1.07146
682.71181	1.07047
680.78324	1.07118
678.85468	1.07125
676.92611	1.06978
674.99755	1.06856
673.06899	1.06925
671.14042	1.07173
669.21186	1.07750
667.28329	1.08299
665.35473	1.08195
663.42616	1.07952
661.49760	1.07842
659.56903	1.07971
657.64047	1.08150
655.71191	1.07984
653.78334	1.07613
651.85478	1.07453
649.92621	1.07431
647.99765	1.07323
646.06908	1.07239
644.14052	1.07219
642.21195	1.07085
640.28339	1.06902
638.35483	1.06832
636.42626	1.06850
634.49770	1.06920
632.56913	1.06843
630.64057	1.06354
628.71200	1.05674
626.78344	1.05225
624.85488	1.05071
622.92631	1.05005
620.99775	1.04884
619.06918	1.04619
617.14062	1.04259
615.21205	1.04096
613.28349	1.04122
611.35492	1.04096
609.42636	1.04079
607.49780	1.04275
605.56923	1.04691
603.64067	1.05311
601.71210	1.06097
599.78354	1.06878
