3997.91406	1.08814
3995.98550	1.08691
3994.05693	1.08293
3992.12837	1.08079
3990.19980	1.08061
3988.27124	1.08163
3986.34268	1.08301
3984.41411	1.08210
3982.48555	1.07847
3980.55698	1.07608
3978.62842	1.07541
3976.69985	1.07401
3974.77129	1.07240
3972.84272	1.07073
3970.91416	1.06942
3968.98560	1.07076
3967.05703	1.07293
3965.12847	1.07220
3963.19990	1.07023
3961.27134	1.06966
3959.34277	1.06871
3957.41421	1.06677
3955.48564	1.06572
3953.55708	1.06592
3951.62852	1.06732
3949.69995	1.07000
3947.77139	1.07131
3945.84282	1.06986
3943.91426	1.06827
3941.98569	1.06744
3940.05713	1.06597
3938.12856	1.06472
3936.20000	1.06528
3934.27144	1.06657
3932.34287	1.06639
3930.41431	1.06508
3928.48574	1.06280
3926.55718	1.05929
3924.62861	1.05717
3922.70005	1.05804
3920.77148	1.05947
3918.84292	1.05835
3916.91436	1.05506
3914.98579	1.05418
3913.05723	1.05623
3911.12866	1.05889
3909.20010	1.05987
3907.27153	1.05866
3905.34297	1.05886
3903.41440	1.06048
3901.48584	1.05739
3899.55728	1.05361
3897.62871	1.05196
3895.70015	1.04934
3893.77158	1.04626
3891.84302	1.04563
3889.91445	1.04531
3887.98589	1.04226
3886.05733	1.03975
3884.12876	1.03823
3882.20020	1.03613
3880.27163	1.03789
3878.34307	1.03967
3876.41450	1.03747
3874.48594	1.03469
3872.55737	1.03352
3870.62881	1.03595
3868.70025	1.03966
3866.77168	1.04078
3864.84312	1.04234
3862.91455	1.04210
3860.98599	1.03830
3859.05742	1.03504
3857.12886	1.03341
3855.20029	1.03483
3853.27173	1.03874
3851.34317	1.03632
3849.41460	1.03309
3847.48604	1.03104
3845.55747	1.02872
3843.62891	1.02557
3841.70034	1.02130
3839.77178	1.01909
3837.84321	1.02340
3835.91465	1.02775
3833.98609	1.02774
3832.05752	1.02698
3830.12896	1.02593
3828.20039	1.02279
3826.27183	1.02002
3824.34326	1.01970
3822.41470	1.02181
3820.48613	1.02432
3818.55757	1.02345
3816.62901	1.02365
3814.70044	1.02243
3812.77188	1.01826
3810.84331	1.01537
3808.91475	1.01470
3806.98618	1.01691
3805.05762	1.02001
3803.12905	1.02198
3801.20049	1.02230
3799.27193	1.01914
3797.34336	1.01577
3795.41480	1.01331
3793.48623	1.01106
3791.55767	1.00953
3789.62910	1.00847
3787.70054	1.00728
3785.77197	1.00689
3783.84341	1.00751
3781.91485	1.00795
3779.98628	1.00940
3778.05772	1.01061
3776.12915	1.00837
3774.20059	1.00413
3772.27202	1.00087
3770.34346	1.00105
3768.41489	1.00290
3766.48633	1.00395
3764.55777	1.00331
3762.62920	0.99939
3760.70064	0.99529
3758.77207	0.99414
3756.84351	0.99196
3754.91494	0.98689
3752.98638	0.98316
3751.05781	0.98782
3749.12925	0.99120
3747.20069	0.98641
3745.27212	0.98735
3743.34356	0.99553
3741.41499	0.99661
3739.48643	0.99230
3737.55786	0.98916
3735.62930	0.99158
3733.70074	0.99450
3731.77217	0.99240
3729.84361	0.98946
3727.91504	0.98809
3725.98648	0.98765
3724.05791	0.98738
3722.12935	0.98908
3720.20078	0.99085
3718.27222	0.98888
3716.34366	0.98406
3714.41509	0.97881
3712.48653	0.97873
3710.55796	0.98881
3708.62940	0.99365
3706.70083	0.99007
3704.77227	0.98584
3702.84370	0.98548
3700.91514	0.98788
3698.98658	0.98910
3697.05801	0.98991
3695.12945	0.98908
3693.20088	0.98440
3691.27232	0.98179
3689.34375	0.99080
3687.41519	0.99931
3685.48662	1.00067
3683.55806	1.00019
3681.62950	0.99898
3679.70093	0.99712
3677.77237	0.99496
3675.84380	0.99763
3673.91524	1.00364
3671.98667	1.00673
3670.05811	1.01751
3668.12954	1.03101
3666.20098	1.03501
3664.27242	1.03497
3662.34385	1.03497
3660.41529	1.03563
3658.48672	1.03903
3656.55816	1.04841
3654.62959	1.05468
3652.70103	1.05294
3650.77246	1.05661
3648.84390	1.08137
3646.91534	1.09749
3644.98677	1.09855
3643.05821	1.09963
3641.12964	1.10456
3639.20108	1.11102
3637.27251	1.11658
3635.34395	1.12114
3633.41538	1.12447
3631.48682	1.12803
3629.55826	1.14176
3627.62969	1.15998
3625.70113	1.16380
3623.77256	1.16281
3621.84400	1.16227
3619.91543	1.16694
3617.98687	1.18158
3616.05830	1.19634
3614.12974	1.20646
3612.20118	1.21271
3610.27261	1.21578
3608.34405	1.22087
3606.41548	1.22761
3604.48692	1.23036
3602.55835	1.23448
3600.62979	1.24612
3598.70123	1.25895
3596.77266	1.26794
3594.84410	1.27869
3592.91553	1.28908
3590.98697	1.29283
3589.05840	1.29740
3587.12984	1.31141
3585.20127	1.32410
3583.27271	1.33205
3581.34415	1.33859
3579.41558	1.34054
3577.48702	1.34121
3575.55845	1.35093
3573.62989	1.36819
3571.70132	1.38185
3569.77276	1.38751
3567.84419	1.39007
3565.91563	1.39830
3563.98707	1.41061
3562.05850	1.42480
3560.12994	1.43680
3558.20137	1.43959
3556.27281	1.43744
3554.34424	1.43835
3552.41568	1.44253
3550.48711	1.44880
3548.55855	1.46152
3546.62999	1.48216
3544.70142	1.50169
3542.77286	1.51233
3540.84429	1.51600
3538.91573	1.51814
3536.98716	1.52385
3535.05860	1.52939
3533.13003	1.53163
3531.20147	1.53713
3529.27291	1.54615
3527.34434	1.55385
3525.41578	1.55989
3523.48721	1.56339
3521.55865	1.56717
3519.63008	1.57631
3517.70152	1.58922
3515.77295	1.59973
3513.84439	1.60904
3511.91583	1.62283
3509.98726	1.63633
3508.05870	1.64059
3506.13013	1.63826
3504.20157	1.64071
3502.27300	1.65366
3500.34444	1.66817
3498.41587	1.67746
3496.48731	1.68301
3494.55875	1.68481
3492.63018	1.68390
3490.70162	1.68691
3488.77305	1.69791
3486.84449	1.71635
3484.91592	1.73458
3482.98736	1.74031
3481.05879	1.73713
3479.13023	1.73722
3477.20167	1.73941
3475.27310	1.74081
3473.34454	1.74684
3471.41597	1.76130
3469.48741	1.77678
3467.55884	1.78058
3465.63028	1.77481
3463.70171	1.77542
3461.77315	1.78057
3459.84459	1.77502
3457.91602	1.76538
3455.98746	1.76465
3454.05889	1.76805
3452.13033	1.76931
3450.20176	1.77460
3448.27320	1.78539
3446.34464	1.79101
3444.41607	1.79025
3442.48751	1.78933
3440.55894	1.79301
3438.63038	1.80632
3436.70181	1.81581
3434.77325	1.80901
3432.84468	1.80265
3430.91612	1.80644
3428.98756	1.80886
3427.05899	1.80181
3425.13043	1.79173
3423.20186	1.78909
3421.27330	1.79596
3419.34473	1.80878
3417.41617	1.82027
3415.48760	1.82354
3413.55904	1.82198
3411.63048	1.82148
3409.70191	1.82453
3407.77335	1.83253
3405.84478	1.83853
3403.91622	1.83563
3401.98765	1.83385
3400.05909	1.83972
3398.13052	1.84223
3396.20196	1.83763
3394.27340	1.83120
3392.34483	1.82153
3390.41627	1.81247
3388.48770	1.81440
3386.55914	1.82678
3384.63057	1.83631
3382.70201	1.83667
3380.77344	1.83629
3378.84488	1.84285
3376.91632	1.85049
3374.98775	1.84818
3373.05919	1.84344
3371.13062	1.84419
3369.20206	1.84071
3367.27349	1.83317
3365.34493	1.83273
3363.41636	1.83827
3361.48780	1.83950
3359.55924	1.83466
3357.63067	1.83279
3355.70211	1.83551
3353.77354	1.83637
3351.84498	1.83513
3349.91641	1.83696
3347.98785	1.84523
3346.05928	1.85280
3344.13072	1.85075
3342.20216	1.84757
3340.27359	1.84704
3338.34503	1.84145
3336.41646	1.83958
3334.48790	1.85186
3332.55933	1.87113
3330.63077	1.88033
3328.70220	1.86908
3326.77364	1.85511
3324.84508	1.85820
3322.91651	1.87093
3320.98795	1.87906
3319.05938	1.88519
3317.13082	1.89739
3315.20225	1.90927
3313.27369	1.90842
3311.34513	1.89823
3309.41656	1.89063
3307.48800	1.88930
3305.55943	1.89092
3303.63087	1.89097
3301.70230	1.88943
3299.77374	1.88891
3297.84517	1.88562
3295.91661	1.87993
3293.98805	1.88043
3292.05948	1.88575
3290.13092	1.88600
3288.20235	1.88542
3286.27379	1.89614
3284.34522	1.90998
3282.41666	1.91041
3280.48809	1.89941
3278.55953	1.88605
3276.63097	1.87958
3274.70240	1.88363
3272.77384	1.88296
3270.84527	1.86779
3268.91671	1.85174
3266.98814	1.84541
3265.05958	1.84829
3263.13101	1.85775
3261.20245	1.86644
3259.27389	1.86461
3257.34532	1.85205
3255.41676	1.83834
3253.48819	1.83085
3251.55963	1.82844
3249.63106	1.82721
3247.70250	1.82237
3245.77393	1.80950
3243.84537	1.79421
3241.91681	1.78291
3239.98824	1.77594
3238.05968	1.77405
3236.13111	1.77222
3234.20255	1.76752
3232.27398	1.76563
3230.34542	1.76689
3228.41685	1.76734
3226.48829	1.76611
3224.55973	1.76556
3222.63116	1.76570
3220.70260	1.76198
3218.77403	1.75404
3216.84547	1.74612
3214.91690	1.74163
3212.98834	1.74143
3211.05977	1.74193
3209.13121	1.74238
3207.20265	1.74529
3205.27408	1.74383
3203.34552	1.73238
3201.41695	1.71723
3199.48839	1.70360
3197.55982	1.69513
3195.63126	1.69326
3193.70269	1.69431
3191.77413	1.69499
3189.84557	1.69363
3187.91700	1.69053
3185.98844	1.68550
3184.05987	1.67980
3182.13131	1.67469
3180.20274	1.66728
3178.27418	1.66027
3176.34562	1.65746
3174.41705	1.65468
3172.48849	1.65131
3170.55992	1.65013
3168.63136	1.64713
3166.70279	1.63858
3164.77423	1.62894
3162.84566	1.62228
3160.91710	1.61776
3158.98854	1.61652
3157.05997	1.61852
3155.13141	1.61667
3153.20284	1.60813
3151.27428	1.59875
3149.34571	1.59155
3147.41715	1.58528
3145.48858	1.58004
3143.56002	1.57747
3141.63146	1.57709
3139.70289	1.57670
3137.77433	1.57655
3135.84576	1.57758
3133.91720	1.57756
3131.98863	1.57554
3130.06007	1.57369
3128.13150	1.57177
3126.20294	1.56961
3124.27438	1.56681
3122.34581	1.56198
3120.41725	1.55963
3118.48868	1.56162
3116.56012	1.56318
3114.63155	1.56449
3112.70299	1.56691
3110.77442	1.56624
3108.84586	1.56164
3106.91730	1.55869
3104.98873	1.55838
3103.06017	1.55638
3101.13160	1.55267
3099.20304	1.54949
3097.27447	1.54682
3095.34591	1.54629
3093.41734	1.54833
3091.48878	1.54630
3089.56022	1.53745
3087.63165	1.52935
3085.70309	1.52603
3083.77452	1.52422
3081.84596	1.52209
3079.91739	1.52005
3077.98883	1.51770
3076.06026	1.51548
3074.13170	1.51460
3072.20314	1.51459
3070.27457	1.51392
3068.34601	1.50855
3066.41744	1.49798
3064.48888	1.49044
3062.56031	1.48828
3060.63175	1.48373
3058.70318	1.47498
3056.77462	1.46862
3054.84606	1.46652
3052.91749	1.46604
3050.98893	1.46606
3049.06036	1.46315
3047.13180	1.45648
3045.20323	1.44986
3043.27467	1.44348
3041.34610	1.43820
3039.41754	1.43632
3037.48898	1.43450
3035.56041	1.42807
3033.63185	1.41947
3031.70328	1.41377
3029.77472	1.41042
3027.84615	1.40780
3025.91759	1.40604
3023.98903	1.40311
3022.06046	1.39834
3020.13190	1.39235
3018.20333	1.38496
3016.27477	1.37874
3014.34620	1.37623
3012.41764	1.37487
3010.48907	1.37127
3008.56051	1.36654
3006.63195	1.36426
3004.70338	1.36500
3002.77482	1.36521
3000.84625	1.36230
2998.91769	1.35834
2996.98912	1.35691
2995.06056	1.36000
2993.13199	1.36641
2991.20343	1.37141
2989.27487	1.37286
2987.34630	1.37495
2985.41774	1.38080
2983.48917	1.38876
2981.56061	1.39600
2979.63204	1.40129
2977.70348	1.40824
2975.77491	1.41889
2973.84635	1.42621
2971.91779	1.42871
2969.98922	1.43550
2968.06066	1.44643
2966.13209	1.45407
2964.20353	1.46066
2962.27496	1.46859
2960.34640	1.47254
2958.41783	1.47097
2956.48927	1.46429
2954.56071	1.45249
2952.63214	1.44170
2950.70358	1.43605
2948.77501	1.43245
2946.84645	1.43026
2944.91788	1.43325
2942.98932	1.44139
2941.06075	1.45132
2939.13219	1.46272
2937.20363	1.47513
2935.27506	1.48508
2933.34650	1.49189
2931.41793	1.49758
2929.48937	1.50322
2927.56080	1.50830
2925.63224	1.51221
2923.70367	1.51860
2921.77511	1.52926
2919.84655	1.53577
2917.91798	1.53221
2915.98942	1.52119
2914.06085	1.50103
2912.13229	1.47227
2910.20372	1.44441
2908.27516	1.42313
2906.34659	1.40756
2904.41803	1.39609
2902.48947	1.38886
2900.56090	1.38556
2898.63234	1.38231
2896.70377	1.37698
2894.77521	1.37190
2892.84664	1.36757
2890.91808	1.36252
2888.98952	1.35688
2887.06095	1.35236
2885.13239	1.35006
2883.20382	1.34860
2881.27526	1.34701
2879.34669	1.34550
2877.41813	1.34367
2875.48956	1.34214
2873.56100	1.34056
2871.63244	1.33725
2869.70387	1.33232
2867.77531	1.32527
2865.84674	1.31724
2863.91818	1.31154
2861.98961	1.30763
2860.06105	1.30555
2858.13248	1.30974
2856.20392	1.32066
2854.27536	1.33330
2852.34679	1.34477
2850.41823	1.35132
2848.48966	1.34275
2846.56110	1.31608
2844.63253	1.28371
2842.70397	1.25728
2840.77540	1.23819
2838.84684	1.22442
2836.91828	1.21483
2834.98971	1.20724
2833.06115	1.19986
2831.13258	1.19300
2829.20402	1.18738
2827.27545	1.18275
2825.34689	1.17734
2823.41832	1.17027
2821.48976	1.16377
2819.56120	1.15943
2817.63263	1.15657
2815.70407	1.15440
2813.77550	1.15132
2811.84694	1.14664
2809.91837	1.14253
2807.98981	1.13991
2806.06124	1.13718
2804.13268	1.13322
2802.20412	1.12899
2800.27555	1.12624
2798.34699	1.12490
2796.41842	1.12279
2794.48986	1.11843
2792.56129	1.11296
2790.63273	1.10750
2788.70416	1.10266
2786.77560	1.09959
2784.84704	1.09745
2782.91847	1.09422
2780.98991	1.09020
2779.06134	1.08748
2777.13278	1.08681
2775.20421	1.08685
2773.27565	1.08583
2771.34708	1.08248
2769.41852	1.07769
2767.48996	1.07363
2765.56139	1.07108
2763.63283	1.06938
2761.70426	1.06683
2759.77570	1.06279
2757.84713	1.05889
2755.91857	1.05638
2753.99001	1.05456
2752.06144	1.05188
2750.13288	1.04868
2748.20431	1.04679
2746.27575	1.04604
2744.34718	1.04466
2742.41862	1.04226
2740.49005	1.03995
2738.56149	1.03841
2736.63293	1.03710
2734.70436	1.03600
2732.77580	1.03560
2730.84723	1.03475
2728.91867	1.03246
2726.99010	1.02988
2725.06154	1.02807
2723.13297	1.02670
2721.20441	1.02501
2719.27585	1.02251
2717.34728	1.01967
2715.41872	1.01720
2713.49015	1.01479
2711.56159	1.01200
2709.63302	1.00956
2707.70446	1.00796
2705.77589	1.00589
2703.84733	1.00292
2701.91877	1.00034
2699.99020	0.99830
2698.06164	0.99638
2696.13307	0.99458
2694.20451	0.99257
2692.27594	0.99016
2690.34738	0.98820
2688.41881	0.98776
2686.49025	0.98836
2684.56169	0.98822
2682.63312	0.98630
2680.70456	0.98382
2678.77599	0.98213
2676.84743	0.98066
2674.91886	0.97920
2672.99030	0.97854
2671.06173	0.97824
2669.13317	0.97727
2667.20461	0.97575
2665.27604	0.97409
2663.34748	0.97240
2661.41891	0.97066
2659.49035	0.96869
2657.56178	0.96649
2655.63322	0.96363
2653.70465	0.96020
2651.77609	0.95778
2649.84753	0.95667
2647.91896	0.95593
2645.99040	0.95532
2644.06183	0.95419
2642.13327	0.95212
2640.20470	0.95031
2638.27614	0.94937
2636.34757	0.94834
2634.41901	0.94667
2632.49045	0.94494
2630.56188	0.94396
2628.63332	0.94324
2626.70475	0.94185
2624.77619	0.94039
2622.84762	0.93916
2620.91906	0.93769
2618.99049	0.93634
2617.06193	0.93499
2615.13337	0.93292
2613.20480	0.93070
2611.27624	0.92922
2609.34767	0.92809
2607.41911	0.92668
2605.49054	0.92535
2603.56198	0.92419
2601.63342	0.92237
2599.70485	0.91983
2597.77629	0.91774
2595.84772	0.91638
2593.91916	0.91522
2591.99059	0.91445
2590.06203	0.91376
2588.13346	0.91210
2586.20490	0.90983
2584.27634	0.90811
2582.34777	0.90725
2580.41921	0.90711
2578.49064	0.90730
2576.56208	0.90654
2574.63351	0.90435
2572.70495	0.90239
2570.77638	0.90154
2568.84782	0.90084
2566.91926	0.89947
2564.99069	0.89748
2563.06213	0.89527
2561.13356	0.89307
2559.20500	0.89111
2557.27643	0.88971
2555.34787	0.88854
2553.41930	0.88710
2551.49074	0.88545
2549.56218	0.88357
2547.63361	0.88178
2545.70505	0.88048
2543.77648	0.87938
2541.84792	0.87844
2539.91935	0.87764
2537.99079	0.87674
2536.06222	0.87587
2534.13366	0.87466
2532.20510	0.87294
2530.27653	0.87145
2528.34797	0.87040
2526.41940	0.86959
2524.49084	0.86904
2522.56227	0.86839
2520.63371	0.86719
2518.70514	0.86581
2516.77658	0.86499
2514.84802	0.86445
2512.91945	0.86300
2510.99089	0.86068
2509.06232	0.85855
2507.13376	0.85691
2505.20519	0.85568
2503.27663	0.85465
2501.34806	0.85352
2499.41950	0.85228
2497.49094	0.85096
2495.56237	0.84952
2493.63381	0.84787
2491.70524	0.84600
2489.77668	0.84428
2487.84811	0.84285
2485.91955	0.84132
2483.99098	0.83957
2482.06242	0.83810
2480.13386	0.83715
2478.20529	0.83630
2476.27673	0.83527
2474.34816	0.83441
2472.41960	0.83377
2470.49103	0.83262
2468.56247	0.83090
2466.63391	0.82939
2464.70534	0.82833
2462.77678	0.82758
2460.84821	0.82691
2458.91965	0.82569
2456.99108	0.82391
2455.06252	0.82240
2453.13395	0.82142
2451.20539	0.82045
2449.27683	0.81924
2447.34826	0.81773
2445.41970	0.81600
2443.49113	0.81451
2441.56257	0.81337
2439.63400	0.81215
2437.70544	0.81079
2435.77687	0.80934
2433.84831	0.80791
2431.91975	0.80717
2429.99118	0.80723
2428.06262	0.80690
2426.13405	0.80552
2424.20549	0.80402
2422.27692	0.80300
2420.34836	0.80220
2418.41979	0.80188
2416.49123	0.80211
2414.56267	0.80171
2412.63410	0.80015
2410.70554	0.79863
2408.77697	0.79806
2406.84841	0.79777
2404.91984	0.79686
2402.99128	0.79572
2401.06271	0.79480
2399.13415	0.79360
2397.20559	0.79209
2395.27702	0.79085
2393.34846	0.78983
2391.41989	0.78890
2389.49133	0.78834
2387.56276	0.78760
2385.63420	0.78583
2383.70563	0.78369
2381.77707	0.78188
2379.84851	0.77983
2377.91994	0.77736
2375.99138	0.77514
2374.06281	0.77335
2372.13425	0.77234
2370.20568	0.77315
2368.27712	0.77483
2366.34855	0.77523
2364.41999	0.77222
2362.49143	0.76531
2360.56286	0.76276
2358.63430	0.76821
2356.70573	0.77209
2354.77717	0.77132
2352.84860	0.77018
2350.92004	0.76896
2348.99147	0.76739
2347.06291	0.76668
2345.13435	0.76741
2343.20578	0.76821
2341.27722	0.76839
2339.34865	0.76828
2337.42009	0.76756
2335.49152	0.76563
2333.56296	0.76288
2331.63440	0.76188
2329.70583	0.76263
2327.77727	0.76213
2325.84870	0.76089
2323.92014	0.76021
2321.99157	0.75944
2320.06301	0.75860
2318.13444	0.75757
2316.20588	0.75620
2314.27732	0.75489
2312.34875	0.75383
2310.42019	0.75327
2308.49162	0.75302
2306.56306	0.75255
2304.63449	0.75167
2302.70593	0.75051
2300.77736	0.74946
2298.84880	0.74872
2296.92024	0.74809
2294.99167	0.74742
2293.06311	0.74648
2291.13454	0.74490
2289.20598	0.74322
2287.27741	0.74242
2285.34885	0.74264
2283.42028	0.74295
2281.49172	0.74255
2279.56316	0.74178
2277.63459	0.74154
2275.70603	0.74170
2273.77746	0.74157
2271.84890	0.74118
2269.92033	0.74075
2267.99177	0.74007
2266.06320	0.73907
2264.13464	0.73815
2262.20608	0.73767
2260.27751	0.73730
2258.34895	0.73646
2256.42038	0.73523
2254.49182	0.73409
2252.56325	0.73328
2250.63469	0.73272
2248.70612	0.73217
2246.77756	0.73145
2244.84900	0.73058
2242.92043	0.72975
2240.99187	0.72900
2239.06330	0.72804
2237.13474	0.72695
2235.20617	0.72610
2233.27761	0.72560
2231.34904	0.72550
2229.42048	0.72556
2227.49192	0.72540
2225.56335	0.72516
2223.63479	0.72491
2221.70622	0.72449
2219.77766	0.72407
2217.84909	0.72378
2215.92053	0.72367
2213.99196	0.72378
2212.06340	0.72382
2210.13484	0.72335
2208.20627	0.72243
2206.27771	0.72174
2204.34914	0.72162
2202.42058	0.72144
2200.49201	0.72088
2198.56345	0.72024
2196.63488	0.71944
2194.70632	0.71838
2192.77776	0.71721
2190.84919	0.71609
2188.92063	0.71527
2186.99206	0.71480
2185.06350	0.71411
2183.13493	0.71297
2181.20637	0.71220
2179.27781	0.71205
2177.34924	0.71166
2175.42068	0.71093
2173.49211	0.71044
2171.56355	0.71025
2169.63498	0.71025
2167.70642	0.71041
2165.77785	0.71056
2163.84929	0.71057
2161.92073	0.71047
2159.99216	0.71043
2158.06360	0.71054
2156.13503	0.71058
2154.20647	0.71026
2152.27790	0.70971
2150.34934	0.70920
2148.42077	0.70886
2146.49221	0.70856
2144.56365	0.70806
2142.63508	0.70729
2140.70652	0.70651
2138.77795	0.70587
2136.84939	0.70535
2134.92082	0.70479
2132.99226	0.70384
2131.06369	0.70252
2129.13513	0.70130
2127.20657	0.70048
2125.27800	0.69999
2123.34944	0.69945
2121.42087	0.69855
2119.49231	0.69753
2117.56374	0.69688
2115.63518	0.69670
2113.70661	0.69663
2111.77805	0.69656
2109.84949	0.69648
2107.92092	0.69622
2105.99236	0.69579
2104.06379	0.69544
2102.13523	0.69529
2100.20666	0.69523
2098.27810	0.69503
2096.34953	0.69451
2094.42097	0.69397
2092.49241	0.69354
2090.56384	0.69302
2088.63528	0.69239
2086.70671	0.69151
2084.77815	0.69012
2082.84958	0.68860
2080.92102	0.68750
2078.99245	0.68644
2077.06389	0.68478
2075.13533	0.68287
2073.20676	0.68126
2071.27820	0.67993
2069.34963	0.67858
2067.42107	0.67695
2065.49250	0.67533
2063.56394	0.67430
2061.63537	0.67358
2059.70681	0.67270
2057.77825	0.67197
2055.84968	0.67162
2053.92112	0.67110
2051.99255	0.67043
2050.06399	0.67007
2048.13542	0.66975
2046.20686	0.66933
2044.27830	0.66913
2042.34973	0.66901
2040.42117	0.66889
2038.49260	0.66868
2036.56404	0.66814
2034.63547	0.66719
2032.70691	0.66594
2030.77834	0.66469
2028.84978	0.66366
2026.92122	0.66274
2024.99265	0.66175
2023.06409	0.66069
2021.13552	0.65942
2019.20696	0.65807
2017.27839	0.65708
2015.34983	0.65638
2013.42126	0.65566
2011.49270	0.65497
2009.56414	0.65425
2007.63557	0.65328
2005.70701	0.65219
2003.77844	0.65126
2001.84988	0.65045
1999.92131	0.64966
1997.99275	0.64880
1996.06418	0.64777
1994.13562	0.64699
1992.20706	0.64683
1990.27849	0.64670
1988.34993	0.64600
1986.42136	0.64507
1984.49280	0.64407
1982.56423	0.64302
1980.63567	0.64204
1978.70710	0.64114
1976.77854	0.64034
1974.84998	0.63966
1972.92141	0.63884
1970.99285	0.63757
1969.06428	0.63621
1967.13572	0.63525
1965.20715	0.63447
1963.27859	0.63362
1961.35002	0.63274
1959.42146	0.63165
1957.49290	0.63036
1955.56433	0.62925
1953.63577	0.62826
1951.70720	0.62717
1949.77864	0.62607
1947.85007	0.62500
1945.92151	0.62390
1943.99294	0.62323
1942.06438	0.62330
1940.13582	0.62312
1938.20725	0.62237
1936.27869	0.62166
1934.35012	0.62075
1932.42156	0.61942
1930.49299	0.61817
1928.56443	0.61712
1926.63586	0.61602
1924.70730	0.61513
1922.77874	0.61444
1920.85017	0.61326
1918.92161	0.61232
1916.99304	0.61223
1915.06448	0.61157
1913.13591	0.61015
1911.20735	0.60882
1909.27878	0.60778
1907.35022	0.60690
1905.42166	0.60605
1903.49309	0.60523
1901.56453	0.60455
1899.63596	0.60376
1897.70740	0.60264
1895.77883	0.60178
1893.85027	0.60106
1891.92171	0.59974
1889.99314	0.59876
1888.06458	0.59850
1886.13601	0.59775
1884.20745	0.59658
1882.27888	0.59551
1880.35032	0.59446
1878.42175	0.59339
1876.49319	0.59249
1874.56463	0.59149
1872.63606	0.58998
1870.70750	0.58855
1868.77893	0.58846
1866.85037	0.58878
1864.92180	0.58811
1862.99324	0.58712
1861.06467	0.58624
1859.13611	0.58553
1857.20755	0.58502
1855.27898	0.58445
1853.35042	0.58365
1851.42185	0.58268
1849.49329	0.58166
1847.56472	0.58061
1845.63616	0.58044
1843.70759	0.58183
1841.77903	0.58230
1839.85047	0.58132
1837.92190	0.58031
1835.99334	0.57956
1834.06477	0.57846
1832.13621	0.57732
1830.20764	0.57714
1828.27908	0.57691
1826.35051	0.57576
1824.42195	0.57497
1822.49339	0.57429
1820.56482	0.57300
1818.63626	0.57167
1816.70769	0.57053
1814.77913	0.56911
1812.85056	0.56753
1810.92200	0.56661
1808.99343	0.56628
1807.06487	0.56554
1805.13631	0.56427
1803.20774	0.56277
1801.27918	0.56181
1799.35061	0.56141
1797.42205	0.56044
1795.49348	0.55898
1793.56492	0.55857
1791.63635	0.55999
1789.70779	0.56020
1787.77923	0.55882
1785.85066	0.55766
1783.92210	0.55704
1781.99353	0.55671
1780.06497	0.55686
1778.13640	0.55663
1776.20784	0.55532
1774.27927	0.55421
1772.35071	0.55564
1770.42215	0.55821
1768.49358	0.55940
1766.56502	0.55955
1764.63645	0.55910
1762.70789	0.55978
1760.77932	0.56200
1758.85076	0.56372
1756.92220	0.56608
1754.99363	0.56872
1753.06507	0.57040
1751.13650	0.57409
1749.20794	0.58176
1747.27937	0.58914
1745.35081	0.59474
1743.42224	0.60005
1741.49368	0.60587
1739.56512	0.61183
1737.63655	0.61496
1735.70799	0.61649
1733.77942	0.62337
1731.85086	0.63163
1729.92229	0.63665
1727.99373	0.64140
1726.06516	0.64620
1724.13660	0.65245
1722.20804	0.65876
1720.27947	0.66370
1718.35091	0.67325
1716.42234	0.69445
1714.49378	0.71271
1712.56521	0.72489
1710.63665	0.73722
1708.70808	0.75193
1706.77952	0.77456
1704.85096	0.80514
1702.92239	0.83156
1700.99383	0.86892
1699.06526	0.93396
1697.13670	1.00020
1695.20813	1.06657
1693.27957	1.11421
1691.35100	1.15033
1689.42244	1.19489
1687.49388	1.23674
1685.56531	1.27987
1683.63675	1.35486
1681.70818	1.41225
1679.77962	1.44117
1677.85105	1.46489
1675.92249	1.49495
1673.99392	1.52978
1672.06536	1.55457
1670.13680	1.57811
1668.20823	1.60453
1666.27967	1.61858
1664.35110	1.62988
1662.42254	1.64551
1660.49397	1.65591
1658.56541	1.65745
1656.63684	1.65298
1654.70828	1.65019
1652.77972	1.65664
1650.85115	1.65551
1648.92259	1.64933
1646.99402	1.64846
1645.06546	1.65112
1643.13689	1.64725
1641.20833	1.64183
1639.27976	1.63700
1637.35120	1.63550
1635.42264	1.63837
1633.49407	1.63541
1631.56551	1.62863
1629.63694	1.61938
1627.70838	1.60899
1625.77981	1.59885
1623.85125	1.58567
1621.92269	1.56786
1619.99412	1.55124
1618.06556	1.53279
1616.13699	1.50523
1614.20843	1.47992
1612.27986	1.45805
1610.35130	1.43331
1608.42273	1.40571
1606.49417	1.38118
1604.56561	1.36271
1602.63704	1.34816
1600.70848	1.33660
1598.77991	1.32751
1596.85135	1.32105
1594.92278	1.31748
1592.99422	1.31538
1591.06565	1.31510
1589.13709	1.31854
1587.20853	1.32606
1585.27996	1.33706
1583.35140	1.35087
1581.42283	1.36447
1579.49427	1.37488
1577.56570	1.38758
1575.63714	1.41090
1573.70857	1.42859
1571.78001	1.43889
1569.85145	1.45524
1567.92288	1.47448
1565.99432	1.48723
1564.06575	1.49666
1562.13719	1.50344
1560.20862	1.51778
1558.28006	1.55017
1556.35149	1.55525
1554.42293	1.55215
1552.49437	1.55201
1550.56580	1.55293
1548.63724	1.55197
1546.70867	1.54812
1544.78011	1.54174
1542.85154	1.53179
1540.92298	1.52295
1538.99441	1.52057
1537.06585	1.51489
1535.13729	1.50722
1533.20872	1.50079
1531.28016	1.49286
1529.35159	1.48360
1527.42303	1.47475
1525.49446	1.46574
1523.56590	1.45892
1521.63733	1.45368
1519.70877	1.44567
1517.78021	1.43595
1515.85164	1.42550
1513.92308	1.41132
1511.99451	1.39225
1510.06595	1.37105
1508.13738	1.34252
1506.20882	1.30284
1504.28025	1.28005
1502.35169	1.26179
1500.42313	1.24007
1498.49456	1.21339
1496.56600	1.18392
1494.63743	1.16121
1492.70887	1.14387
1490.78030	1.12366
1488.85174	1.10079
1486.92317	1.08560
1484.99461	1.07602
1483.06605	1.06928
1481.13748	1.06600
1479.20892	1.06678
1477.28035	1.07181
1475.35179	1.08236
1473.42322	1.10334
1471.49466	1.12889
1469.56610	1.14241
1467.63753	1.14998
1465.70897	1.16037
1463.78040	1.17239
1461.85184	1.17758
1459.92327	1.17816
1457.99471	1.18495
1456.06614	1.19935
1454.13758	1.20173
1452.20902	1.19891
1450.28045	1.19615
1448.35189	1.19290
1446.42332	1.18791
1444.49476	1.18209
1442.56619	1.17589
1440.63763	1.16892
1438.70906	1.16010
1436.78050	1.14740
1434.85194	1.13432
1432.92337	1.12435
1430.99481	1.11497
1429.06624	1.10637
1427.13768	1.10085
1425.20911	1.09840
1423.28055	1.09838
1421.35198	1.10017
1419.42342	1.10599
1417.49486	1.11488
1415.56629	1.11933
1413.63773	1.12080
1411.70916	1.12185
1409.78060	1.12324
1407.85203	1.12576
1405.92347	1.13024
1403.99490	1.13526
1402.06634	1.13777
1400.13778	1.13849
1398.20921	1.13869
1396.28065	1.13863
1394.35208	1.13915
1392.42352	1.14004
1390.49495	1.14133
1388.56639	1.14559
1386.63782	1.15438
1384.70926	1.16341
1382.78070	1.17019
1380.85213	1.17445
1378.92357	1.17426
1376.99500	1.16837
1375.06644	1.15745
1373.13787	1.14364
1371.20931	1.12922
1369.28074	1.11291
1367.35218	1.09483
1365.42362	1.07774
1363.49505	1.06196
1361.56649	1.04958
1359.63792	1.04187
1357.70936	1.03612
1355.78079	1.03185
1353.85223	1.02969
1351.92366	1.02877
1349.99510	1.02838
1348.06654	1.02852
1346.13797	1.02887
1344.20941	1.02895
1342.28084	1.02924
1340.35228	1.03129
1338.42371	1.03543
1336.49515	1.03985
1334.56659	1.04436
1332.63802	1.05009
1330.70946	1.05728
1328.78089	1.06411
1326.85233	1.06894
1324.92376	1.07192
1322.99520	1.07371
1321.06663	1.07565
1319.13807	1.07905
1317.20951	1.08258
1315.28094	1.08454
1313.35238	1.08551
1311.42381	1.08626
1309.49525	1.08701
1307.56668	1.08742
1305.63812	1.08699
1303.70955	1.08615
1301.78099	1.08495
1299.85243	1.08255
1297.92386	1.07923
1295.99530	1.07613
1294.06673	1.07398
1292.13817	1.07317
1290.20960	1.07353
1288.28104	1.07460
1286.35247	1.07594
1284.42391	1.07661
1282.49535	1.07641
1280.56678	1.07662
1278.63822	1.07824
1276.70965	1.08093
1274.78109	1.08420
1272.85252	1.08815
1270.92396	1.09275
1268.99539	1.09796
1267.06683	1.10358
1265.13827	1.10831
1263.20970	1.11107
1261.28114	1.11236
1259.35257	1.11276
1257.42401	1.11251
1255.49544	1.11207
1253.56688	1.11217
1251.63831	1.11336
1249.70975	1.11500
1247.78119	1.11588
1245.85262	1.11574
1243.92406	1.11489
1241.99549	1.11357
1240.06693	1.11160
1238.13836	1.10868
1236.20980	1.10496
1234.28123	1.09998
1232.35267	1.09306
1230.42411	1.08489
1228.49554	1.07619
1226.56698	1.06698
1224.63841	1.05755
1222.70985	1.04834
1220.78128	1.03988
1218.85272	1.03256
1216.92415	1.02626
1214.99559	1.02146
1213.06703	1.01915
1211.13846	1.01951
1209.20990	1.02153
1207.28133	1.02281
1205.35277	1.02099
1203.42420	1.01557
1201.49564	1.00745
1199.56708	0.99811
1197.63851	0.98858
1195.70995	0.97936
1193.78138	0.97123
1191.85282	0.96476
1189.92425	0.95976
1187.99569	0.95595
1186.06712	0.95407
1184.13856	0.95495
1182.21000	0.95797
1180.28143	0.96281
1178.35287	0.97030
1176.42430	0.97962
1174.49574	0.98827
1172.56717	0.99594
1170.63861	1.00474
1168.71004	1.01653
1166.78148	1.03219
1164.85292	1.05064
1162.92435	1.06933
1160.99579	1.08551
1159.06722	1.09519
1157.13866	1.09622
1155.21009	1.09019
1153.28153	1.07867
1151.35296	1.06281
1149.42440	1.04520
1147.49584	1.02844
1145.56727	1.01413
1143.63871	1.00386
1141.71014	0.99849
1139.78158	0.99790
1137.85301	1.00213
1135.92445	1.01089
1133.99588	1.02305
1132.06732	1.03793
1130.13876	1.05537
1128.21019	1.07445
1126.28163	1.09343
1124.35306	1.11086
1122.42450	1.12648
1120.49593	1.13990
1118.56737	1.14950
1116.63880	1.15489
1114.71024	1.15687
1112.78168	1.15467
1110.85311	1.14797
1108.92455	1.14012
1106.99598	1.13430
1105.06742	1.12955
1103.13885	1.12457
1101.21029	1.12092
1099.28172	1.12095
1097.35316	1.12554
1095.42460	1.13429
1093.49603	1.14651
1091.56747	1.16193
1089.63890	1.18087
1087.71034	1.20338
1085.78177	1.22865
1083.85321	1.25356
1081.92464	1.27383
1079.99608	1.28801
1078.06752	1.29496
1076.13895	1.29373
1074.21039	1.28717
1072.28182	1.27766
1070.35326	1.26440
1068.42469	1.24796
1066.49613	1.23133
1064.56756	1.21700
1062.63900	1.20606
1060.71044	1.19764
1058.78187	1.18922
1056.85331	1.17991
1054.92474	1.17123
1052.99618	1.16430
1051.06761	1.15921
1049.13905	1.15647
1047.21049	1.15660
1045.28192	1.15937
1043.35336	1.16500
1041.42479	1.17338
1039.49623	1.18178
1037.56766	1.18703
1035.63910	1.18848
1033.71053	1.18710
1031.78197	1.18378
1029.85341	1.17775
1027.92484	1.16792
1025.99628	1.15587
1024.06771	1.14373
1022.13915	1.13192
1020.21058	1.12087
1018.28202	1.11111
1016.35345	1.10158
1014.42489	1.09013
1012.49633	1.07564
1010.56776	1.05870
1008.63920	1.04015
1006.71063	1.02090
1004.78207	1.00239
1002.85350	0.98552
1000.92494	0.97087
998.99637	0.95918
997.06781	0.95015
995.13925	0.94211
993.21068	0.93333
991.28212	0.92299
989.35355	0.91133
987.42499	0.89920
985.49642	0.88747
983.56786	0.87706
981.63929	0.86909
979.71073	0.86420
977.78217	0.86164
975.85360	0.85940
973.92504	0.85549
971.99647	0.84972
970.06791	0.84320
968.13934	0.83669
966.21078	0.83101
964.28221	0.82808
962.35365	0.83015
960.42509	0.83854
958.49652	0.85198
956.56796	0.86519
954.63939	0.87239
952.71083	0.87253
950.78226	0.86816
948.85370	0.86202
946.92513	0.85615
944.99657	0.85105
943.06801	0.84641
941.13944	0.84242
939.21088	0.83862
937.28231	0.83382
935.35375	0.82797
933.42518	0.82162
931.49662	0.81494
929.56805	0.80859
927.63949	0.80330
925.71093	0.79915
923.78236	0.79594
921.85380	0.79322
919.92523	0.79032
917.99667	0.78728
916.06810	0.78530
914.13954	0.78507
912.21098	0.78625
910.28241	0.78929
908.35385	0.79525
906.42528	0.80376
904.49672	0.81343
902.56815	0.82361
900.63959	0.83429
898.71102	0.84458
896.78246	0.85291
894.85390	0.85871
892.92533	0.86293
890.99677	0.86628
889.06820	0.86879
887.13964	0.87125
885.21107	0.87409
883.28251	0.87667
881.35394	0.87854
879.42538	0.87921
877.49682	0.87872
875.56825	0.87813
873.63969	0.87761
871.71112	0.87670
869.78256	0.87573
867.85399	0.87507
865.92543	0.87435
863.99686	0.87356
862.06830	0.87380
860.13974	0.87596
858.21117	0.87982
856.28261	0.88445
854.35404	0.88975
852.42548	0.89599
850.49691	0.90237
848.56835	0.90842
846.63978	0.91445
844.71122	0.92071
842.78266	0.92795
840.85409	0.93628
838.92553	0.94414
836.99696	0.95088
835.06840	0.95694
833.13983	0.96160
831.21127	0.96493
829.28270	0.96769
827.35414	0.96903
825.42558	0.96843
823.49701	0.96652
821.56845	0.96382
819.63988	0.96067
817.71132	0.95771
815.78275	0.95509
813.85419	0.95244
811.92562	0.95083
809.99706	0.95141
808.06850	0.95275
806.13993	0.95340
804.21137	0.95443
802.28280	0.95762
800.35424	0.96293
798.42567	0.96893
796.49711	0.97507
794.56854	0.98173
792.63998	0.98894
790.71142	0.99709
788.78285	1.00621
786.85429	1.01484
784.92572	1.02226
782.99716	1.02915
781.06859	1.03596
779.14003	1.04254
777.21147	1.04835
775.28290	1.05261
773.35434	1.05460
771.42577	1.05547
769.49721	1.05754
767.56864	1.05963
765.64008	1.05930
763.71151	1.05873
761.78295	1.05986
759.85439	1.06092
757.92582	1.06156
755.99726	1.06279
754.06869	1.06435
752.14013	1.06599
750.21156	1.06827
748.28300	1.07118
746.35443	1.07407
744.42587	1.07679
742.49731	1.07931
740.56874	1.08135
738.64018	1.08292
736.71161	1.08549
734.78305	1.08995
732.85448	1.09425
730.92592	1.09672
728.99735	1.09745
727.06879	1.09648
725.14023	1.09520
723.21166	1.09558
721.28310	1.09736
719.35453	1.09801
717.42597	1.09658
715.49740	1.09552
713.56884	1.09628
711.64027	1.09798
709.71171	1.10046
707.78315	1.10423
705.85458	1.10903
703.92602	1.11342
701.99745	1.11713
700.06889	1.12221
698.14032	1.12754
696.21176	1.12973
694.28319	1.13016
692.35463	1.13176
690.42607	1.13429
688.49750	1.13622
686.56894	1.13727
684.64037	1.13885
682.71181	1.14151
680.78324	1.14292
678.85468	1.13991
676.92611	1.13314
674.99755	1.12733
673.06899	1.12462
671.14042	1.12364
669.21186	1.12500
667.28329	1.12751
665.35473	1.12613
663.42616	1.12322
661.49760	1.12151
659.56903	1.12225
657.64047	1.12300
655.71191	1.12149
653.78334	1.11981
651.85478	1.12123
649.92621	1.12637
647.99765	1.13333
646.06908	1.14116
644.14052	1.15002
642.21195	1.15906
640.28339	1.16568
638.35483	1.16822
636.42626	1.16906
634.49770	1.16953
632.56913	1.16997
630.64057	1.17227
628.71200	1.17352
626.78344	1.16930
624.85488	1.16216
622.92631	1.15771
620.99775	1.15560
619.06918	1.15076
617.14062	1.14259
615.21205	1.13567
613.28349	1.13122
611.35492	1.12715
609.42636	1.12141
607.49780	1.11357
605.56923	1.10629
603.64067	1.10362
601.71210	1.10608
599.78354	1.10871
