3997.91406	1.55074
3995.98550	1.55090
3994.05693	1.55007
3992.12837	1.55047
3990.19980	1.55309
3988.27124	1.55539
3986.34268	1.55062
3984.41411	1.54239
3982.48555	1.54056
3980.55698	1.54530
3978.62842	1.55042
3976.69985	1.55173
3974.77129	1.54758
3972.84272	1.54104
3970.91416	1.54003
3968.98560	1.54733
3967.05703	1.55269
3965.12847	1.54811
3963.19990	1.54269
3961.27134	1.54406
3959.34277	1.54594
3957.41421	1.54535
3955.48564	1.54426
3953.55708	1.54281
3951.62852	1.54475
3949.69995	1.55321
3947.77139	1.56276
3945.84282	1.56430
3943.91426	1.55908
3941.98569	1.55800
3940.05713	1.56192
3938.12856	1.56239
3936.20000	1.55719
3934.27144	1.55183
3932.34287	1.55371
3930.41431	1.55603
3928.48574	1.54806
3926.55718	1.53975
3924.62861	1.54298
3922.70005	1.54993
3920.77148	1.55240
3918.84292	1.55676
3916.91436	1.56294
3914.98579	1.56322
3913.05723	1.55557
3911.12866	1.54431
3909.20010	1.53487
3907.27153	1.53172
3905.34297	1.54551
3903.41440	1.56684
3901.48584	1.56146
3899.55728	1.55166
3897.62871	1.55760
3895.70015	1.56460
3893.77158	1.56528
3891.84302	1.55986
3889.91445	1.54878
3887.98589	1.53564
3886.05733	1.52994
3884.12876	1.53414
3882.20020	1.54168
3880.27163	1.55966
3878.34307	1.57122
3876.41450	1.56553
3874.48594	1.55721
3872.55737	1.55222
3870.62881	1.55046
3868.70025	1.55410
3866.77168	1.55956
3864.84312	1.57091
3862.91455	1.58174
3860.98599	1.57856
3859.05742	1.56923
3857.12886	1.56055
3855.20029	1.55533
3853.27173	1.56094
3851.34317	1.56285
3849.41460	1.55508
3847.48604	1.54697
3845.55747	1.54255
3843.62891	1.54409
3841.70034	1.54986
3839.77178	1.56120
3837.84321	1.57649
3835.91465	1.57461
3833.98609	1.56152
3832.05752	1.55140
3830.12896	1.54397
3828.20039	1.54190
3826.27183	1.54739
3824.34326	1.54424
3822.41470	1.52541
3820.48613	1.51219
3818.55757	1.51770
3816.62901	1.54332
3814.70044	1.56910
3812.77188	1.56720
3810.84331	1.55611
3808.91475	1.54699
3806.98618	1.54020
3805.05762	1.53691
3803.12905	1.53751
3801.20049	1.54656
3799.27193	1.55577
3797.34336	1.56093
3795.41480	1.56262
3793.48623	1.55992
3791.55767	1.55640
3789.62910	1.55334
3787.70054	1.54858
3785.77197	1.54228
3783.84341	1.54144
3781.91485	1.54541
3779.98628	1.54828
3778.05772	1.54951
3776.12915	1.54736
3774.20059	1.54167
3772.27202	1.53538
3770.34346	1.53074
3768.41489	1.52710
3766.48633	1.52752
3764.55777	1.53375
3762.62920	1.53663
3760.70064	1.53848
3758.77207	1.54904
3756.84351	1.55519
3754.91494	1.54696
3752.98638	1.53324
3751.05781	1.53787
3749.12925	1.55762
3747.20069	1.55371
3745.27212	1.53719
3743.34356	1.52716
3741.41499	1.51406
3739.48643	1.49848
3737.55786	1.49873
3735.62930	1.52212
3733.70074	1.53513
3731.77217	1.52958
3729.84361	1.52367
3727.91504	1.52433
3725.98648	1.53084
3724.05791	1.53468
3722.12935	1.53797
3720.20078	1.54824
3718.27222	1.55926
3716.34366	1.55684
3714.41509	1.53950
3712.48653	1.52423
3710.55796	1.52563
3708.62940	1.53092
3706.70083	1.53563
3704.77227	1.53826
3702.84370	1.53742
3700.91514	1.53621
3698.98658	1.53409
3697.05801	1.53211
3695.12945	1.52928
3693.20088	1.52074
3691.27232	1.51682
3689.34375	1.53697
3687.41519	1.55363
3685.48662	1.55508
3683.55806	1.55669
3681.62950	1.55915
3679.70093	1.55471
3677.77237	1.54355
3675.84380	1.54724
3673.91524	1.55853
3671.98667	1.56133
3670.05811	1.58579
3668.12954	1.61266
3666.20098	1.60796
3664.27242	1.59278
3662.34385	1.58485
3660.41529	1.58452
3658.48672	1.58740
3656.55816	1.59793
3654.62959	1.60468
3652.70103	1.59711
3650.77246	1.59059
3648.84390	1.60540
3646.91534	1.62290
3644.98677	1.63559
3643.05821	1.65021
3641.12964	1.66580
3639.20108	1.68058
3637.27251	1.68948
3635.34395	1.69076
3633.41538	1.69155
3631.48682	1.69687
3629.55826	1.71761
3627.62969	1.74056
3625.70113	1.73826
3623.77256	1.73055
3621.84400	1.72826
3619.91543	1.73129
3617.98687	1.72636
3616.05830	1.71482
3614.12974	1.72219
3612.20118	1.75079
3610.27261	1.77819
3608.34405	1.81053
3606.41548	1.83820
3604.48692	1.83151
3602.55835	1.81156
3600.62979	1.80930
3598.70123	1.82274
3596.77266	1.83796
3594.84410	1.85500
3592.91553	1.86808
3590.98697	1.87464
3589.05840	1.87947
3587.12984	1.87528
3585.20127	1.86885
3583.27271	1.87213
3581.34415	1.87660
3579.41558	1.88142
3577.48702	1.89422
3575.55845	1.90602
3573.62989	1.90081
3571.70132	1.88999
3569.77276	1.89707
3567.84419	1.92156
3565.91563	1.92476
3563.98707	1.91509
3562.05850	1.92748
3560.12994	1.95417
3558.20137	1.96776
3556.27281	1.96894
3554.34424	1.98277
3552.41568	2.01104
3550.48711	2.01342
3548.55855	1.97954
3546.62999	1.96062
3544.70142	1.98441
3542.77286	2.00375
3540.84429	2.00577
3538.91573	2.02389
3536.98716	2.05536
3535.05860	2.07085
3533.13003	2.06606
3531.20147	2.05926
3529.27291	2.06207
3527.34434	2.06807
3525.41578	2.07799
3523.48721	2.10560
3521.55865	2.13711
3519.63008	2.15315
3517.70152	2.16089
3515.77295	2.15802
3513.84439	2.13612
3511.91583	2.10219
3509.98726	2.07872
3508.05870	2.08700
3506.13013	2.11385
3504.20157	2.13544
3502.27300	2.14893
3500.34444	2.16625
3498.41587	2.18943
3496.48731	2.20232
3494.55875	2.19749
3492.63018	2.18397
3490.70162	2.16521
3488.77305	2.14835
3486.84449	2.15606
3484.91592	2.18219
3482.98736	2.18520
3481.05879	2.18288
3479.13023	2.20935
3477.20167	2.22562
3475.27310	2.21236
3473.34454	2.20303
3471.41597	2.20173
3469.48741	2.19728
3467.55884	2.20304
3465.63028	2.21468
3463.70171	2.20556
3461.77315	2.18932
3459.84459	2.20053
3457.91602	2.24139
3455.98746	2.27303
3454.05889	2.26061
3452.13033	2.23540
3450.20176	2.24145
3448.27320	2.27760
3446.34464	2.30397
3444.41607	2.31567
3442.48751	2.33724
3440.55894	2.33064
3438.63038	2.29038
3436.70181	2.27495
3434.77325	2.27051
3432.84468	2.24146
3430.91612	2.22099
3428.98756	2.22363
3427.05899	2.22570
3425.13043	2.22053
3423.20186	2.20644
3421.27330	2.18689
3419.34473	2.18025
3417.41617	2.19518
3415.48760	2.22096
3413.55904	2.22734
3411.63048	2.20142
3409.70191	2.17242
3407.77335	2.16624
3405.84478	2.18433
3403.91622	2.20911
3401.98765	2.23256
3400.05909	2.26144
3398.13052	2.27501
3396.20196	2.25907
3394.27340	2.24162
3392.34483	2.23744
3390.41627	2.24275
3388.48770	2.25172
3386.55914	2.24862
3384.63057	2.23062
3382.70201	2.22272
3380.77344	2.23711
3378.84488	2.25554
3376.91632	2.26315
3374.98775	2.26993
3373.05919	2.27275
3371.13062	2.25398
3369.20206	2.22689
3367.27349	2.21973
3365.34493	2.23336
3363.41636	2.24633
3361.48780	2.25710
3359.55924	2.26039
3357.63067	2.23124
3355.70211	2.19750
3353.77354	2.19664
3351.84498	2.21541
3349.91641	2.23105
3347.98785	2.24278
3346.05928	2.24824
3344.13072	2.23802
3342.20216	2.23008
3340.27359	2.24373
3338.34503	2.25991
3336.41646	2.25972
3334.48790	2.24949
3332.55933	2.22911
3330.63077	2.20141
3328.70220	2.19314
3326.77364	2.22200
3324.84508	2.26174
3322.91651	2.26071
3320.98795	2.21410
3319.05938	2.17453
3317.13082	2.17866
3315.20225	2.21098
3313.27369	2.22740
3311.34513	2.22345
3309.41656	2.22776
3307.48800	2.23893
3305.55943	2.25201
3303.63087	2.27074
3301.70230	2.27512
3299.77374	2.26841
3297.84517	2.27449
3295.91661	2.28676
3293.98805	2.30492
3292.05948	2.32167
3290.13092	2.30775
3288.20235	2.28594
3286.27379	2.27673
3284.34522	2.26658
3282.41666	2.25638
3280.48809	2.23301
3278.55953	2.19266
3276.63097	2.16823
3274.70240	2.17268
3272.77384	2.19465
3270.84527	2.22196
3268.91671	2.24012
3266.98814	2.24161
3265.05958	2.23247
3263.13101	2.21166
3261.20245	2.18899
3259.27389	2.18854
3257.34532	2.18923
3255.41676	2.16511
3253.48819	2.15435
3251.55963	2.17148
3249.63106	2.18222
3247.70250	2.17676
3245.77393	2.16968
3243.84537	2.15909
3241.91681	2.14089
3239.98824	2.13220
3238.05968	2.14366
3236.13111	2.16127
3234.20255	2.17147
3232.27398	2.17338
3230.34542	2.17674
3228.41685	2.18392
3226.48829	2.17891
3224.55973	2.16718
3222.63116	2.16732
3220.70260	2.17242
3218.77403	2.16635
3216.84547	2.14601
3214.91690	2.12773
3212.98834	2.13193
3211.05977	2.14786
3209.13121	2.14197
3207.20265	2.11460
3205.27408	2.10038
3203.34552	2.11274
3201.41695	2.12963
3199.48839	2.12932
3197.55982	2.11788
3195.63126	2.10353
3193.70269	2.08787
3191.77413	2.07869
3189.84557	2.07454
3187.91700	2.07099
3185.98844	2.07902
3184.05987	2.09676
3182.13131	2.09676
3180.20274	2.07583
3178.27418	2.06772
3176.34562	2.08160
3174.41705	2.08563
3172.48849	2.06819
3170.55992	2.05257
3168.63136	2.04753
3166.70279	2.04612
3164.77423	2.04821
3162.84566	2.05348
3160.91710	2.05621
3158.98854	2.05182
3157.05997	2.04323
3155.13141	2.04153
3153.20284	2.04745
3151.27428	2.04938
3149.34571	2.04025
3147.41715	2.02202
3145.48858	2.00383
3143.56002	1.99343
3141.63146	1.99276
3139.70289	1.99920
3137.77433	2.00589
3135.84576	2.00475
3133.91720	1.99337
3131.98863	1.98445
3130.06007	1.98853
3128.13150	1.99698
3126.20294	1.99967
3124.27438	1.99614
3122.34581	1.99301
3120.41725	1.99888
3118.48868	2.00794
3116.56012	2.00227
3114.63155	1.98294
3112.70299	1.97602
3110.77442	1.99310
3108.84586	2.01153
3106.91730	2.01008
3104.98873	1.99684
3103.06017	1.98462
3101.13160	1.98051
3099.20304	1.98287
3097.27447	1.98316
3095.34591	1.98327
3093.41734	1.98612
3091.48878	1.98071
3089.56022	1.96161
3087.63165	1.94351
3085.70309	1.94062
3083.77452	1.95012
3081.84596	1.96126
3079.91739	1.96504
3077.98883	1.96076
3076.06026	1.95577
3074.13170	1.95070
3072.20314	1.94575
3070.27457	1.94262
3068.34601	1.93657
3066.41744	1.93486
3064.48888	1.94262
3062.56031	1.94162
3060.63175	1.92858
3058.70318	1.92148
3056.77462	1.92374
3054.84606	1.92545
3052.91749	1.92074
3050.98893	1.91285
3049.06036	1.91025
3047.13180	1.90777
3045.20323	1.89412
3043.27467	1.87996
3041.34610	1.87711
3039.41754	1.87910
3037.48898	1.87724
3035.56041	1.87145
3033.63185	1.86588
3031.70328	1.86479
3029.77472	1.87097
3027.84615	1.87625
3025.91759	1.87005
3023.98903	1.86005
3022.06046	1.85578
3020.13190	1.85217
3018.20333	1.84484
3016.27477	1.83671
3014.34620	1.82963
3012.41764	1.82748
3010.48907	1.83050
3008.56051	1.82606
3006.63195	1.81437
3004.70338	1.81548
3002.77482	1.82749
3000.84625	1.82504
2998.91769	1.80932
2996.98912	1.80239
2995.06056	1.80847
2993.13199	1.81761
2991.20343	1.82345
2989.27487	1.82812
2987.34630	1.83180
2985.41774	1.82976
2983.48917	1.82764
2981.56061	1.83320
2979.63204	1.83878
2977.70348	1.83779
2975.77491	1.83863
2973.84635	1.84788
2971.91779	1.85804
2969.98922	1.85961
2968.06066	1.86148
2966.13209	1.87497
2964.20353	1.88921
2962.27496	1.88987
2960.34640	1.88145
2958.41783	1.87610
2956.48927	1.87532
2954.56071	1.87090
2952.63214	1.86250
2950.70358	1.85838
2948.77501	1.86144
2946.84645	1.86869
2944.91788	1.87912
2942.98932	1.88842
2941.06075	1.88810
2939.13219	1.88206
2937.20363	1.88127
2935.27506	1.88803
2933.34650	1.90031
2931.41793	1.91833
2929.48937	1.93423
2927.56080	1.93357
2925.63224	1.92730
2923.70367	1.93819
2921.77511	1.95575
2919.84655	1.95296
2917.91798	1.93780
2915.98942	1.93037
2914.06085	1.92087
2912.13229	1.90030
2910.20372	1.88064
2908.27516	1.86684
2906.34659	1.85465
2904.41803	1.84381
2902.48947	1.83675
2900.56090	1.83121
2898.63234	1.82329
2896.70377	1.81664
2894.77521	1.81539
2892.84664	1.81404
2890.91808	1.80537
2888.98952	1.79540
2887.06095	1.79162
2885.13239	1.78715
2883.20382	1.77808
2881.27526	1.77136
2879.34669	1.77223
2877.41813	1.77978
2875.48956	1.78379
2873.56100	1.77861
2871.63244	1.77307
2869.70387	1.76806
2867.77531	1.75621
2865.84674	1.74354
2863.91818	1.74074
2861.98961	1.74694
2860.06105	1.75487
2858.13248	1.75870
2856.20392	1.75855
2854.27536	1.76166
2852.34679	1.76924
2850.41823	1.77152
2848.48966	1.76384
2846.56110	1.74910
2844.63253	1.72931
2842.70397	1.70931
2840.77540	1.69357
2838.84684	1.68115
2836.91828	1.67079
2834.98971	1.66310
2833.06115	1.65652
2831.13258	1.64858
2829.20402	1.64224
2827.27545	1.64026
2825.34689	1.63657
2823.41832	1.62642
2821.48976	1.61555
2819.56120	1.61105
2817.63263	1.61163
2815.70407	1.61195
2813.77550	1.61075
2811.84694	1.60862
2809.91837	1.60655
2807.98981	1.60457
2806.06124	1.59825
2804.13268	1.58795
2802.20412	1.58163
2800.27555	1.58113
2798.34699	1.57980
2796.41842	1.57601
2794.48986	1.57497
2792.56129	1.57541
2790.63273	1.57249
2788.70416	1.56836
2786.77560	1.56610
2784.84704	1.56508
2782.91847	1.56393
2780.98991	1.56008
2779.06134	1.55373
2777.13278	1.55058
2775.20421	1.55127
2773.27565	1.55073
2771.34708	1.54956
2769.41852	1.54915
2767.48996	1.54743
2765.56139	1.54515
2763.63283	1.54397
2761.70426	1.54416
2759.77570	1.54470
2757.84713	1.54341
2755.91857	1.54000
2753.99001	1.53676
2752.06144	1.53714
2750.13288	1.54120
2748.20431	1.54260
2746.27575	1.53771
2744.34718	1.53180
2742.41862	1.52920
2740.49005	1.52784
2738.56149	1.52634
2736.63293	1.52546
2734.70436	1.52362
2732.77580	1.51967
2730.84723	1.51577
2728.91867	1.51358
2726.99010	1.51309
2725.06154	1.51395
2723.13297	1.51467
2721.20441	1.51278
2719.27585	1.50824
2717.34728	1.50393
2715.41872	1.50101
2713.49015	1.49838
2711.56159	1.49618
2709.63302	1.49478
2707.70446	1.49287
2705.77589	1.48945
2703.84733	1.48598
2701.91877	1.48431
2699.99020	1.48394
2698.06164	1.48320
2696.13307	1.48101
2694.20451	1.47722
2692.27594	1.47417
2690.34738	1.47314
2688.41881	1.47184
2686.49025	1.46949
2684.56169	1.46709
2682.63312	1.46578
2680.70456	1.46610
2678.77599	1.46551
2676.84743	1.46230
2674.91886	1.45943
2672.99030	1.45906
2671.06173	1.45978
2669.13317	1.46082
2667.20461	1.46180
2665.27604	1.46096
2663.34748	1.45761
2661.41891	1.45383
2659.49035	1.45276
2657.56178	1.45437
2655.63322	1.45637
2653.70465	1.45770
2651.77609	1.45741
2649.84753	1.45455
2647.91896	1.45097
2645.99040	1.45092
2644.06183	1.45421
2642.13327	1.45566
2640.20470	1.45390
2638.27614	1.45108
2636.34757	1.44805
2634.41901	1.44594
2632.49045	1.44578
2630.56188	1.44674
2628.63332	1.44808
2626.70475	1.44795
2624.77619	1.44444
2622.84762	1.44053
2620.91906	1.43945
2618.99049	1.44070
2617.06193	1.44187
2615.13337	1.43946
2613.20480	1.43479
2611.27624	1.43296
2609.34767	1.43336
2607.41911	1.43252
2605.49054	1.43076
2603.56198	1.42752
2601.63342	1.42168
2599.70485	1.41653
2597.77629	1.41436
2595.84772	1.41388
2593.91916	1.41420
2591.99059	1.41370
2590.06203	1.41105
2588.13346	1.40827
2586.20490	1.40632
2584.27634	1.40420
2582.34777	1.40261
2580.41921	1.40169
2578.49064	1.39996
2576.56208	1.39688
2574.63351	1.39332
2572.70495	1.39017
2570.77638	1.38822
2568.84782	1.38930
2566.91926	1.39354
2564.99069	1.39743
2563.06213	1.39787
2561.13356	1.39483
2559.20500	1.38999
2557.27643	1.38558
2555.34787	1.38423
2553.41930	1.38640
2551.49074	1.38870
2549.56218	1.38814
2547.63361	1.38613
2545.70505	1.38477
2543.77648	1.38370
2541.84792	1.38261
2539.91935	1.38176
2537.99079	1.38123
2536.06222	1.38035
2534.13366	1.37901
2532.20510	1.37910
2530.27653	1.37950
2528.34797	1.37785
2526.41940	1.37643
2524.49084	1.37760
2522.56227	1.37934
2520.63371	1.37812
2518.70514	1.37420
2516.77658	1.37103
2514.84802	1.37041
2512.91945	1.37099
2510.99089	1.37026
2509.06232	1.36836
2507.13376	1.36701
2505.20519	1.36623
2503.27663	1.36578
2501.34806	1.36446
2499.41950	1.36101
2497.49094	1.35795
2495.56237	1.35622
2493.63381	1.35302
2491.70524	1.34923
2489.77668	1.34778
2487.84811	1.34781
2485.91955	1.34748
2483.99098	1.34625
2482.06242	1.34355
2480.13386	1.34034
2478.20529	1.33800
2476.27673	1.33615
2474.34816	1.33538
2472.41960	1.33511
2470.49103	1.33286
2468.56247	1.32974
2466.63391	1.32800
2464.70534	1.32714
2462.77678	1.32631
2460.84821	1.32497
2458.91965	1.32296
2456.99108	1.32173
2455.06252	1.32264
2453.13395	1.32432
2451.20539	1.32437
2449.27683	1.32281
2447.34826	1.32047
2445.41970	1.31781
2443.49113	1.31635
2441.56257	1.31584
2439.63400	1.31421
2437.70544	1.31222
2435.77687	1.31126
2433.84831	1.31060
2431.91975	1.30928
2429.99118	1.30730
2428.06262	1.30640
2426.13405	1.30784
2424.20549	1.30966
2422.27692	1.30947
2420.34836	1.30737
2418.41979	1.30447
2416.49123	1.30147
2414.56267	1.29916
2412.63410	1.29746
2410.70554	1.29595
2408.77697	1.29545
2406.84841	1.29569
2404.91984	1.29470
2402.99128	1.29221
2401.06271	1.28962
2399.13415	1.28763
2397.20559	1.28669
2395.27702	1.28622
2393.34846	1.28434
2391.41989	1.28167
2389.49133	1.28018
2387.56276	1.27941
2385.63420	1.27867
2383.70563	1.27846
2381.77707	1.27816
2379.84851	1.27572
2377.91994	1.27018
2375.99138	1.26302
2374.06281	1.25883
2372.13425	1.26365
2370.20568	1.27512
2368.27712	1.27966
2366.34855	1.27333
2364.41999	1.27016
2362.49143	1.27969
2360.56286	1.29938
2358.63430	1.31607
2356.70573	1.30947
2354.77717	1.28844
2352.84860	1.27281
2350.92004	1.26235
2348.99147	1.25209
2347.06291	1.24341
2345.13435	1.24379
2343.20578	1.25287
2341.27722	1.25587
2339.34865	1.25730
2337.42009	1.26447
2335.49152	1.26829
2333.56296	1.26422
2331.63440	1.25910
2329.70583	1.25577
2327.77727	1.25178
2325.84870	1.24756
2323.92014	1.24584
2321.99157	1.24704
2320.06301	1.24805
2318.13444	1.24736
2316.20588	1.24607
2314.27732	1.24583
2312.34875	1.24725
2310.42019	1.24785
2308.49162	1.24531
2306.56306	1.24021
2304.63449	1.23495
2302.70593	1.23292
2300.77736	1.23495
2298.84880	1.23811
2296.92024	1.23952
2294.99167	1.23857
2293.06311	1.23649
2291.13454	1.23426
2289.20598	1.23149
2287.27741	1.22898
2285.34885	1.22781
2283.42028	1.22687
2281.49172	1.22552
2279.56316	1.22523
2277.63459	1.22681
2275.70603	1.22829
2273.77746	1.22785
2271.84890	1.22715
2269.92033	1.22722
2267.99177	1.22642
2266.06320	1.22394
2264.13464	1.22063
2262.20608	1.21813
2260.27751	1.21717
2258.34895	1.21664
2256.42038	1.21636
2254.49182	1.21646
2252.56325	1.21590
2250.63469	1.21484
2248.70612	1.21463
2246.77756	1.21553
2244.84900	1.21562
2242.92043	1.21367
2240.99187	1.21188
2239.06330	1.21146
2237.13474	1.21058
2235.20617	1.20879
2233.27761	1.20741
2231.34904	1.20705
2229.42048	1.20705
2227.49192	1.20645
2225.56335	1.20545
2223.63479	1.20506
2221.70622	1.20530
2219.77766	1.20519
2217.84909	1.20452
2215.92053	1.20361
2213.99196	1.20283
2212.06340	1.20246
2210.13484	1.20202
2208.20627	1.20114
2206.27771	1.20004
2204.34914	1.19850
2202.42058	1.19703
2200.49201	1.19694
2198.56345	1.19799
2196.63488	1.19865
2194.70632	1.19792
2192.77776	1.19639
2190.84919	1.19553
2188.92063	1.19525
2186.99206	1.19390
2185.06350	1.19136
2183.13493	1.18959
2181.20637	1.18987
2179.27781	1.19140
2177.34924	1.19274
2175.42068	1.19352
2173.49211	1.19360
2171.56355	1.19257
2169.63498	1.19087
2167.70642	1.18926
2165.77785	1.18808
2163.84929	1.18726
2161.92073	1.18609
2159.99216	1.18457
2158.06360	1.18400
2156.13503	1.18450
2154.20647	1.18500
2152.27790	1.18530
2150.34934	1.18539
2148.42077	1.18450
2146.49221	1.18235
2144.56365	1.18004
2142.63508	1.17881
2140.70652	1.17846
2138.77795	1.17832
2136.84939	1.17832
2134.92082	1.17856
2132.99226	1.17866
2131.06369	1.17798
2129.13513	1.17709
2127.20657	1.17653
2125.27800	1.17497
2123.34944	1.17227
2121.42087	1.17086
2119.49231	1.17134
2117.56374	1.17126
2115.63518	1.16963
2113.70661	1.16836
2111.77805	1.16849
2109.84949	1.16890
2107.92092	1.16849
2105.99236	1.16696
2104.06379	1.16514
2102.13523	1.16448
2100.20666	1.16444
2098.27810	1.16354
2096.34953	1.16187
2094.42097	1.15981
2092.49241	1.15713
2090.56384	1.15476
2088.63528	1.15444
2086.70671	1.15590
2084.77815	1.15745
2082.84958	1.15837
2080.92102	1.15841
2078.99245	1.15760
2077.06389	1.15649
2075.13533	1.15513
2073.20676	1.15318
2071.27820	1.15102
2069.34963	1.14946
2067.42107	1.14868
2065.49250	1.14885
2063.56394	1.14994
2061.63537	1.15099
2059.70681	1.15170
2057.77825	1.15207
2055.84968	1.15150
2053.92112	1.14989
2051.99255	1.14785
2050.06399	1.14595
2048.13542	1.14411
2046.20686	1.14223
2044.27830	1.14108
2042.34973	1.14156
2040.42117	1.14297
2038.49260	1.14342
2036.56404	1.14293
2034.63547	1.14292
2032.70691	1.14346
2030.77834	1.14347
2028.84978	1.14270
2026.92122	1.14186
2024.99265	1.14101
2023.06409	1.13923
2021.13552	1.13675
2019.20696	1.13503
2017.27839	1.13433
2015.34983	1.13388
2013.42126	1.13438
2011.49270	1.13640
2009.56414	1.13852
2007.63557	1.13965
2005.70701	1.13978
2003.77844	1.13881
2001.84988	1.13716
1999.92131	1.13560
1997.99275	1.13384
1996.06418	1.13121
1994.13562	1.12907
1992.20706	1.12970
1990.27849	1.13217
1988.34993	1.13442
1986.42136	1.13612
1984.49280	1.13717
1982.56423	1.13784
1980.63567	1.13801
1978.70710	1.13682
1976.77854	1.13438
1974.84998	1.13166
1972.92141	1.12932
1970.99285	1.12742
1969.06428	1.12627
1967.13572	1.12650
1965.20715	1.12780
1963.27859	1.12976
1961.35002	1.13198
1959.42146	1.13284
1957.49290	1.13233
1955.56433	1.13216
1953.63577	1.13181
1951.70720	1.12988
1949.77864	1.12715
1947.85007	1.12454
1945.92151	1.12204
1943.99294	1.12102
1942.06438	1.12286
1940.13582	1.12550
1938.20725	1.12735
1936.27869	1.12888
1934.35012	1.13004
1932.42156	1.13037
1930.49299	1.12993
1928.56443	1.12879
1926.63586	1.12669
1924.70730	1.12465
1922.77874	1.12340
1920.85017	1.12227
1918.92161	1.12240
1916.99304	1.12383
1915.06448	1.12410
1913.13591	1.12379
1911.20735	1.12485
1909.27878	1.12732
1907.35022	1.12901
1905.42166	1.12859
1903.49309	1.12731
1901.56453	1.12599
1899.63596	1.12435
1897.70740	1.12271
1895.77883	1.12218
1893.85027	1.12246
1891.92171	1.12255
1889.99314	1.12375
1888.06458	1.12582
1886.13601	1.12700
1884.20745	1.12780
1882.27888	1.12778
1880.35032	1.12674
1878.42175	1.12579
1876.49319	1.12436
1874.56463	1.12137
1872.63606	1.11755
1870.70750	1.11546
1868.77893	1.11821
1866.85037	1.12216
1864.92180	1.12258
1862.99324	1.12183
1861.06467	1.12158
1859.13611	1.12194
1857.20755	1.12229
1855.27898	1.12172
1853.35042	1.12035
1851.42185	1.11870
1849.49329	1.11712
1847.56472	1.11543
1845.63616	1.11511
1843.70759	1.11823
1841.77903	1.12026
1839.85047	1.11949
1837.92190	1.11868
1835.99334	1.11834
1834.06477	1.11675
1832.13621	1.11420
1830.20764	1.11370
1828.27908	1.11452
1826.35051	1.11441
1824.42195	1.11522
1822.49339	1.11596
1820.56482	1.11583
1818.63626	1.11562
1816.70769	1.11422
1814.77913	1.11169
1812.85056	1.11068
1810.92200	1.11232
1808.99343	1.11341
1807.06487	1.11215
1805.13631	1.11052
1803.20774	1.10996
1801.27918	1.11097
1799.35061	1.11217
1797.42205	1.11164
1795.49348	1.10966
1793.56492	1.10859
1791.63635	1.11069
1789.70779	1.11142
1787.77923	1.10935
1785.85066	1.10809
1783.92210	1.10879
1781.99353	1.10992
1780.06497	1.11021
1778.13640	1.10872
1776.20784	1.10580
1774.27927	1.10413
1772.35071	1.10810
1770.42215	1.11410
1768.49358	1.11594
1766.56502	1.11515
1764.63645	1.11349
1762.70789	1.11430
1760.77932	1.11764
1758.85076	1.11959
1756.92220	1.12199
1754.99363	1.12363
1753.06507	1.12318
1751.13650	1.12677
1749.20794	1.13804
1747.27937	1.14823
1745.35081	1.15420
1743.42224	1.15935
1741.49368	1.16598
1739.56512	1.17366
1737.63655	1.17687
1735.70799	1.17828
1733.77942	1.18951
1731.85086	1.20139
1729.92229	1.20669
1727.99373	1.21210
1726.06516	1.21838
1724.13660	1.22719
1722.20804	1.23489
1720.27947	1.23791
1718.35091	1.24537
1716.42234	1.26929
1714.49378	1.29014
1712.56521	1.30124
1710.63665	1.30958
1708.70808	1.31819
1706.77952	1.33510
1704.85096	1.36155
1702.92239	1.38251
1700.99383	1.41044
1699.06526	1.46273
1697.13670	1.51873
1695.20813	1.57842
1693.27957	1.62026
1691.35100	1.64972
1689.42244	1.68741
1687.49388	1.72267
1685.56531	1.76138
1683.63675	1.84265
1681.70818	1.90712
1679.77962	1.93678
1677.85105	1.96228
1675.92249	1.99707
1673.99392	2.03739
1672.06536	2.06823
1670.13680	2.10617
1668.20823	2.14745
1666.27967	2.16259
1664.35110	2.16931
1662.42254	2.17863
1660.49397	2.18201
1658.56541	2.17722
1656.63684	2.16885
1654.70828	2.16922
1652.77972	2.18189
1650.85115	2.17353
1648.92259	2.15856
1646.99402	2.15896
1645.06546	2.18171
1643.13689	2.19422
1641.20833	2.19341
1639.27976	2.18428
1637.35120	2.17520
1635.42264	2.17363
1633.49407	2.16396
1631.56551	2.14671
1629.63694	2.12948
1627.70838	2.11464
1625.77981	2.10193
1623.85125	2.09099
1621.92269	2.07060
1619.99412	2.03969
1618.06556	2.00599
1616.13699	1.97570
1614.20843	1.95657
1612.27986	1.93764
1610.35130	1.91370
1608.42273	1.89026
1606.49417	1.87250
1604.56561	1.85761
1602.63704	1.84382
1600.70848	1.83478
1598.77991	1.82980
1596.85135	1.82559
1594.92278	1.82140
1592.99422	1.81591
1591.06565	1.81091
1589.13709	1.81170
1587.20853	1.81786
1585.27996	1.82472
1583.35140	1.83244
1581.42283	1.84188
1579.49427	1.85224
1577.56570	1.86839
1575.63714	1.89012
1573.70857	1.90002
1571.78001	1.90710
1569.85145	1.92836
1567.92288	1.95313
1565.99432	1.96098
1564.06575	1.96416
1562.13719	1.97061
1560.20862	1.98097
1558.28006	2.00234
1556.35149	2.01616
1554.42293	2.01861
1552.49437	2.01455
1550.56580	2.01153
1548.63724	2.01163
1546.70867	2.00859
1544.78011	1.99955
1542.85154	1.98035
1540.92298	1.96393
1538.99441	1.97842
1537.06585	1.98493
1535.13729	1.98172
1533.20872	1.97332
1531.28016	1.95957
1529.35159	1.94879
1527.42303	1.93779
1525.49446	1.92305
1523.56590	1.91674
1521.63733	1.91712
1519.70877	1.90540
1517.78021	1.88734
1515.85164	1.87276
1513.92308	1.85796
1511.99451	1.83725
1510.06595	1.81370
1508.13738	1.78567
1506.20882	1.74711
1504.28025	1.72401
1502.35169	1.70724
1500.42313	1.68832
1498.49456	1.66673
1496.56600	1.64296
1494.63743	1.62061
1492.70887	1.60191
1490.78030	1.58330
1488.85174	1.56368
1486.92317	1.54876
1484.99461	1.53746
1483.06605	1.52703
1481.13748	1.51828
1479.20892	1.51427
1477.28035	1.51618
1475.35179	1.52439
1473.42322	1.54313
1471.49466	1.56542
1469.56610	1.57472
1467.63753	1.57847
1465.70897	1.58804
1463.78040	1.60305
1461.85184	1.60919
1459.92327	1.60630
1457.99471	1.60587
1456.06614	1.61698
1454.13758	1.62063
1452.20902	1.61775
1450.28045	1.61490
1448.35189	1.61352
1446.42332	1.61120
1444.49476	1.60657
1442.56619	1.60058
1440.63763	1.59305
1438.70906	1.58329
1436.78050	1.57306
1434.85194	1.56471
1432.92337	1.55619
1430.99481	1.54734
1429.06624	1.54024
1427.13768	1.53550
1425.20911	1.53336
1423.28055	1.53426
1421.35198	1.53703
1419.42342	1.54414
1417.49486	1.55346
1415.56629	1.55539
1413.63773	1.55239
1411.70916	1.54958
1409.78060	1.54954
1407.85203	1.55002
1405.92347	1.54937
1403.99490	1.54843
1402.06634	1.54643
1400.13778	1.54417
1398.20921	1.54371
1396.28065	1.54477
1394.35208	1.54488
1392.42352	1.54255
1390.49495	1.53989
1388.56639	1.53933
1386.63782	1.54171
1384.70926	1.54545
1382.78070	1.54945
1380.85213	1.55242
1378.92357	1.55248
1376.99500	1.54930
1375.06644	1.54113
1373.13787	1.52702
1371.20931	1.51223
1369.28074	1.49820
1367.35218	1.48337
1365.42362	1.46869
1363.49505	1.45526
1361.56649	1.44383
1359.63792	1.43486
1357.70936	1.42861
1355.78079	1.42510
1353.85223	1.42296
1351.92366	1.42092
1349.99510	1.41937
1348.06654	1.41841
1346.13797	1.41731
1344.20941	1.41584
1342.28084	1.41459
1340.35228	1.41512
1338.42371	1.41761
1336.49515	1.42073
1334.56659	1.42473
1332.63802	1.42924
1330.70946	1.43392
1328.78089	1.43859
1326.85233	1.44188
1324.92376	1.44372
1322.99520	1.44571
1321.06663	1.44846
1319.13807	1.45211
1317.20951	1.45651
1315.28094	1.45977
1313.35238	1.46170
1311.42381	1.46411
1309.49525	1.46637
1307.56668	1.46630
1305.63812	1.46432
1303.70955	1.46283
1301.78099	1.46211
1299.85243	1.45947
1297.92386	1.45372
1295.99530	1.44771
1294.06673	1.44459
1292.13817	1.44391
1290.20960	1.44303
1288.28104	1.44091
1286.35247	1.43865
1284.42391	1.43656
1282.49535	1.43485
1280.56678	1.43484
1278.63822	1.43616
1276.70965	1.43696
1274.78109	1.43737
1272.85252	1.43873
1270.92396	1.44111
1268.99539	1.44452
1267.06683	1.44959
1265.13827	1.45527
1263.20970	1.45900
1261.28114	1.45987
1259.35257	1.46000
1257.42401	1.46176
1255.49544	1.46512
1253.56688	1.46885
1251.63831	1.47185
1249.70975	1.47355
1247.78119	1.47433
1245.85262	1.47438
1243.92406	1.47315
1241.99549	1.47056
1240.06693	1.46785
1238.13836	1.46631
1236.20980	1.46500
1234.28123	1.46203
1232.35267	1.45707
1230.42411	1.45099
1228.49554	1.44426
1226.56698	1.43654
1224.63841	1.42849
1222.70985	1.42103
1220.78128	1.41276
1218.85272	1.40309
1216.92415	1.39479
1214.99559	1.39017
1213.06703	1.38805
1211.13846	1.38652
1209.20990	1.38622
1207.28133	1.38719
1205.35277	1.38673
1203.42420	1.38296
1201.49564	1.37652
1199.56708	1.36830
1197.63851	1.35870
1195.70995	1.34904
1193.78138	1.34065
1191.85282	1.33333
1189.92425	1.32662
1187.99569	1.32107
1186.06712	1.31769
1184.13856	1.31695
1182.21000	1.31891
1180.28143	1.32342
1178.35287	1.32913
1176.42430	1.33480
1174.49574	1.34073
1172.56717	1.34666
1170.63861	1.35245
1168.71004	1.36083
1166.78148	1.37407
1164.85292	1.39132
1162.92435	1.41070
1160.99579	1.42922
1159.06722	1.44338
1157.13866	1.44982
1155.21009	1.44575
1153.28153	1.43360
1151.35296	1.41866
1149.42440	1.40243
1147.49584	1.38513
1145.56727	1.36969
1143.63871	1.35932
1141.71014	1.35448
1139.78158	1.35351
1137.85301	1.35496
1135.92445	1.35883
1133.99588	1.36625
1132.06732	1.37772
1130.13876	1.39168
1128.21019	1.40578
1126.28163	1.41911
1124.35306	1.43177
1122.42450	1.44336
1120.49593	1.45425
1118.56737	1.46464
1116.63880	1.47187
1114.71024	1.47509
1112.78168	1.47699
1110.85311	1.47776
1108.92455	1.47494
1106.99598	1.46911
1105.06742	1.46321
1103.13885	1.45787
1101.21029	1.45439
1099.28172	1.45544
1097.35316	1.45915
1095.42460	1.46374
1093.49603	1.47260
1091.56747	1.48808
1089.63890	1.50760
1087.71034	1.52774
1085.78177	1.54971
1083.85321	1.57428
1081.92464	1.59582
1079.99608	1.61034
1078.06752	1.61788
1076.13895	1.61656
1074.21039	1.60663
1072.28182	1.59143
1070.35326	1.57234
1068.42469	1.55136
1066.49613	1.53381
1064.56756	1.52228
1062.63900	1.51352
1060.71044	1.50476
1058.78187	1.49655
1056.85331	1.49004
1054.92474	1.48470
1052.99618	1.47928
1051.06761	1.47512
1049.13905	1.47270
1047.21049	1.47048
1045.28192	1.47144
1043.35336	1.48031
1041.42479	1.49483
1039.49623	1.50621
1037.56766	1.50970
1035.63910	1.50944
1033.71053	1.50919
1031.78197	1.50739
1029.85341	1.50180
1027.92484	1.49203
1025.99628	1.47950
1024.06771	1.46662
1022.13915	1.45380
1020.21058	1.44052
1018.28202	1.42829
1016.35345	1.41640
1014.42489	1.40124
1012.49633	1.38236
1010.56776	1.36212
1008.63920	1.34219
1006.71063	1.32272
1004.78207	1.30342
1002.85350	1.28559
1000.92494	1.27069
998.99637	1.25901
997.06781	1.25089
995.13925	1.24511
993.21068	1.23867
991.28212	1.23064
989.35355	1.22251
987.42499	1.21517
985.49642	1.20839
983.56786	1.20220
981.63929	1.19682
979.71073	1.19275
977.78217	1.19010
975.85360	1.18741
973.92504	1.18297
971.99647	1.17604
970.06791	1.16687
968.13934	1.15735
966.21078	1.14989
964.28221	1.14599
962.35365	1.14640
960.42509	1.15120
958.49652	1.15859
956.56796	1.16455
954.63939	1.16576
952.71083	1.16202
950.78226	1.15524
948.85370	1.14811
946.92513	1.14299
944.99657	1.14053
943.06801	1.13968
941.13944	1.13899
939.21088	1.13830
937.28231	1.13772
935.35375	1.13603
933.42518	1.13316
931.49662	1.13054
929.56805	1.12909
927.63949	1.13002
925.71093	1.13361
923.78236	1.13793
921.85380	1.14168
919.92523	1.14430
917.99667	1.14397
916.06810	1.14025
914.13954	1.13610
912.21098	1.13361
910.28241	1.13211
908.35385	1.13173
906.42528	1.13345
904.49672	1.13691
902.56815	1.14136
900.63959	1.14626
898.71102	1.14997
896.78246	1.15083
894.85390	1.14917
892.92533	1.14614
890.99677	1.14249
889.06820	1.13939
887.13964	1.13759
885.21107	1.13610
883.28251	1.13339
881.35394	1.13043
879.42538	1.13006
877.49682	1.13206
875.56825	1.13372
873.63969	1.13407
871.71112	1.13443
869.78256	1.13624
867.85399	1.13946
865.92543	1.14304
863.99686	1.14540
862.06830	1.14576
860.13974	1.14531
858.21117	1.14540
856.28261	1.14672
854.35404	1.14976
852.42548	1.15470
850.49691	1.16137
848.56835	1.16910
846.63978	1.17655
844.71122	1.18250
842.78266	1.18681
840.85409	1.18874
838.92553	1.18752
836.99696	1.18425
835.06840	1.18035
833.13983	1.17737
831.21127	1.17735
829.28270	1.18031
827.35414	1.18468
825.42558	1.19043
823.49701	1.19673
821.56845	1.20102
819.63988	1.20386
817.71132	1.20694
815.78275	1.20846
813.85419	1.20644
811.92562	1.20162
809.99706	1.19663
808.06850	1.19316
806.13993	1.19029
804.21137	1.18910
802.28280	1.19333
800.35424	1.20224
798.42567	1.21008
796.49711	1.21311
794.56854	1.21302
792.63998	1.21276
790.71142	1.21282
788.78285	1.21245
786.85429	1.21133
784.92572	1.20979
782.99716	1.20793
781.06859	1.20726
779.14003	1.21094
777.21147	1.21870
775.28290	1.22756
773.35434	1.23585
771.42577	1.24249
769.49721	1.24659
767.56864	1.24778
765.64008	1.24548
763.71151	1.23965
761.78295	1.23163
759.85439	1.22386
757.92582	1.21999
755.99726	1.22236
754.06869	1.22997
752.14013	1.24068
750.21156	1.25124
748.28300	1.25775
746.35443	1.26043
744.42587	1.26211
742.49731	1.26194
740.56874	1.25790
738.64018	1.25209
736.71161	1.24771
734.78305	1.24554
732.85448	1.24634
730.92592	1.25251
728.99735	1.26365
727.06879	1.27537
725.14023	1.28470
723.21166	1.29153
721.28310	1.29711
719.35453	1.30153
717.42597	1.30189
715.49740	1.29887
713.56884	1.29785
711.64027	1.30084
709.71171	1.30564
707.78315	1.31052
705.85458	1.31449
703.92602	1.31805
701.99745	1.32280
700.06889	1.32741
698.14032	1.32897
696.21176	1.32775
694.28319	1.32416
692.35463	1.31810
690.42607	1.31433
688.49750	1.31712
686.56894	1.32232
684.64037	1.32282
682.71181	1.31759
680.78324	1.31189
678.85468	1.30859
676.92611	1.30626
674.99755	1.30668
673.06899	1.31050
671.14042	1.31145
669.21186	1.30484
667.28329	1.30115
665.35473	1.30527
663.42616	1.30654
661.49760	1.30372
659.56903	1.30141
657.64047	1.30215
655.71191	1.30298
653.78334	1.30087
651.85478	1.29806
649.92621	1.29872
647.99765	1.30140
646.06908	1.30032
644.14052	1.29493
642.21195	1.29078
640.28339	1.29017
638.35483	1.29051
636.42626	1.29212
634.49770	1.29853
632.56913	1.30593
630.64057	1.30356
628.71200	1.29381
626.78344	1.28821
624.85488	1.28663
622.92631	1.28568
620.99775	1.28728
619.06918	1.28843
617.14062	1.28621
615.21205	1.28703
613.28349	1.29312
611.35492	1.29794
609.42636	1.30177
607.49780	1.30765
605.56923	1.30987
603.64067	1.30655
601.71210	1.30123
599.78354	1.29349
