3997.91406	0.86368
3995.98550	0.86608
3994.05693	0.86787
3992.12837	0.86857
3990.19980	0.86799
3988.27124	0.86650
3986.34268	0.86558
3984.41411	0.86523
3982.48555	0.86374
3980.55698	0.86152
3978.62842	0.86024
3976.69985	0.85943
3974.77129	0.85865
3972.84272	0.85821
3970.91416	0.85775
3968.98560	0.85796
3967.05703	0.85867
3965.12847	0.85802
3963.19990	0.85643
3961.27134	0.85574
3959.34277	0.85583
3957.41421	0.85569
3955.48564	0.85500
3953.55708	0.85381
3951.62852	0.85240
3949.69995	0.85164
3947.77139	0.85194
3945.84282	0.85187
3943.91426	0.85094
3941.98569	0.85000
3940.05713	0.84914
3938.12856	0.84739
3936.20000	0.84394
3934.27144	0.84029
3932.34287	0.83993
3930.41431	0.84211
3928.48574	0.84198
3926.55718	0.84007
3924.62861	0.83904
3922.70005	0.83882
3920.77148	0.83956
3918.84292	0.84113
3916.91436	0.84178
3914.98579	0.84066
3913.05723	0.83868
3911.12866	0.83723
3909.20010	0.83552
3907.27153	0.83327
3905.34297	0.83292
3903.41440	0.83269
3901.48584	0.82977
3899.55728	0.82882
3897.62871	0.82944
3895.70015	0.82823
3893.77158	0.82632
3891.84302	0.82711
3889.91445	0.82862
3887.98589	0.82818
3886.05733	0.82930
3884.12876	0.83130
3882.20020	0.83222
3880.27163	0.83346
3878.34307	0.82999
3876.41450	0.82431
3874.48594	0.82264
3872.55737	0.82269
3870.62881	0.82215
3868.70025	0.82315
3866.77168	0.82313
3864.84312	0.82340
3862.91455	0.82454
3860.98599	0.82335
3859.05742	0.81999
3857.12886	0.81475
3855.20029	0.81089
3853.27173	0.81968
3851.34317	0.82670
3849.41460	0.82284
3847.48604	0.81701
3845.55747	0.81331
3843.62891	0.81249
3841.70034	0.81151
3839.77178	0.80998
3837.84321	0.80975
3835.91465	0.80831
3833.98609	0.80768
3832.05752	0.80907
3830.12896	0.80892
3828.20039	0.80713
3826.27183	0.80521
3824.34326	0.80212
3822.41470	0.80147
3820.48613	0.80549
3818.55757	0.80547
3816.62901	0.80601
3814.70044	0.80718
3812.77188	0.80335
3810.84331	0.79809
3808.91475	0.79560
3806.98618	0.79741
3805.05762	0.79716
3803.12905	0.79505
3801.20049	0.79882
3799.27193	0.80181
3797.34336	0.80101
3795.41480	0.79977
3793.48623	0.79782
3791.55767	0.79633
3789.62910	0.79574
3787.70054	0.79508
3785.77197	0.79484
3783.84341	0.79479
3781.91485	0.79381
3779.98628	0.79340
3778.05772	0.79355
3776.12915	0.79248
3774.20059	0.79055
3772.27202	0.78869
3770.34346	0.78865
3768.41489	0.78953
3766.48633	0.79001
3764.55777	0.79051
3762.62920	0.78887
3760.70064	0.78748
3758.77207	0.78998
3756.84351	0.79079
3754.91494	0.78757
3752.98638	0.78584
3751.05781	0.79059
3749.12925	0.79192
3747.20069	0.78731
3745.27212	0.78595
3743.34356	0.78659
3741.41499	0.78277
3739.48643	0.77713
3737.55786	0.77383
3735.62930	0.77734
3733.70074	0.78381
3731.77217	0.78319
3729.84361	0.77797
3727.91504	0.77431
3725.98648	0.77502
3724.05791	0.77699
3722.12935	0.77835
3720.20078	0.78011
3718.27222	0.77946
3716.34366	0.77554
3714.41509	0.77121
3712.48653	0.77146
3710.55796	0.77921
3708.62940	0.78244
3706.70083	0.77803
3704.77227	0.77268
3702.84370	0.77317
3700.91514	0.77816
3698.98658	0.77954
3697.05801	0.77821
3695.12945	0.77646
3693.20088	0.77473
3691.27232	0.77684
3689.34375	0.78513
3687.41519	0.78870
3685.48662	0.78693
3683.55806	0.78470
3681.62950	0.78287
3679.70093	0.78118
3677.77237	0.78102
3675.84380	0.78887
3673.91524	0.79666
3671.98667	0.79809
3670.05811	0.80634
3668.12954	0.81604
3666.20098	0.81827
3664.27242	0.81967
3662.34385	0.82292
3660.41529	0.82620
3658.48672	0.82875
3656.55816	0.83345
3654.62959	0.83796
3652.70103	0.83913
3650.77246	0.84360
3648.84390	0.86003
3646.91534	0.87155
3644.98677	0.87430
3643.05821	0.87669
3641.12964	0.88143
3639.20108	0.88730
3637.27251	0.89269
3635.34395	0.89782
3633.41538	0.90214
3631.48682	0.90547
3629.55826	0.91625
3627.62969	0.93216
3625.70113	0.93703
3623.77256	0.93772
3621.84400	0.93935
3619.91543	0.94667
3617.98687	0.95877
3616.05830	0.96662
3614.12974	0.97446
3612.20118	0.98412
3610.27261	0.99140
3608.34405	1.00031
3606.41548	1.00891
3604.48692	1.01119
3602.55835	1.01347
3600.62979	1.02084
3598.70123	1.02764
3596.77266	1.03308
3594.84410	1.04506
3592.91553	1.05842
3590.98697	1.06253
3589.05840	1.06540
3587.12984	1.08097
3585.20127	1.09816
3583.27271	1.10697
3581.34415	1.11131
3579.41558	1.11457
3577.48702	1.12128
3575.55845	1.13121
3573.62989	1.13839
3571.70132	1.13999
3569.77276	1.14052
3567.84419	1.15083
3565.91563	1.16969
3563.98707	1.18030
3562.05850	1.18749
3560.12994	1.19702
3558.20137	1.20573
3556.27281	1.21087
3554.34424	1.21652
3552.41568	1.22649
3550.48711	1.23497
3548.55855	1.23933
3546.62999	1.24842
3544.70142	1.26652
3542.77286	1.28024
3540.84429	1.28207
3538.91573	1.28117
3536.98716	1.28746
3535.05860	1.29862
3533.13003	1.30733
3531.20147	1.31535
3529.27291	1.32590
3527.34434	1.33577
3525.41578	1.34470
3523.48721	1.35410
3521.55865	1.35984
3519.63008	1.36532
3517.70152	1.37663
3515.77295	1.38956
3513.84439	1.39883
3511.91583	1.40588
3509.98726	1.41467
3508.05870	1.42361
3506.13013	1.43184
3504.20157	1.44645
3502.27300	1.46321
3500.34444	1.47035
3498.41587	1.47158
3496.48731	1.47506
3494.55875	1.48269
3492.63018	1.49218
3490.70162	1.50398
3488.77305	1.51620
3486.84449	1.52280
3484.91592	1.52643
3482.98736	1.53666
3481.05879	1.55101
3479.13023	1.55499
3477.20167	1.54652
3475.27310	1.53998
3473.34454	1.54974
3471.41597	1.56586
3469.48741	1.57020
3467.55884	1.57071
3465.63028	1.57914
3463.70171	1.59214
3461.77315	1.60481
3459.84459	1.61271
3457.91602	1.61378
3455.98746	1.61250
3454.05889	1.61306
3452.13033	1.61796
3450.20176	1.62610
3448.27320	1.63121
3446.34464	1.63170
3444.41607	1.63131
3442.48751	1.63237
3440.55894	1.63542
3438.63038	1.64122
3436.70181	1.64769
3434.77325	1.64726
3432.84468	1.64428
3430.91612	1.64622
3428.98756	1.64497
3427.05899	1.63934
3425.13043	1.63986
3423.20186	1.64883
3421.27330	1.66083
3419.34473	1.66990
3417.41617	1.67226
3415.48760	1.66797
3413.55904	1.66058
3411.63048	1.65595
3409.70191	1.65711
3407.77335	1.66268
3405.84478	1.66987
3403.91622	1.67439
3401.98765	1.67639
3400.05909	1.67919
3398.13052	1.67908
3396.20196	1.67549
3394.27340	1.67763
3392.34483	1.68579
3390.41627	1.68853
3388.48770	1.68600
3386.55914	1.68922
3384.63057	1.69806
3382.70201	1.70060
3380.77344	1.69354
3378.84488	1.68206
3376.91632	1.67084
3374.98775	1.67151
3373.05919	1.68822
3371.13062	1.70596
3369.20206	1.71421
3367.27349	1.71542
3365.34493	1.71432
3363.41636	1.71472
3361.48780	1.71687
3359.55924	1.71870
3357.63067	1.71907
3355.70211	1.71633
3353.77354	1.70970
3351.84498	1.70622
3349.91641	1.71025
3347.98785	1.71560
3346.05928	1.71749
3344.13072	1.71640
3342.20216	1.71569
3340.27359	1.71636
3338.34503	1.71671
3336.41646	1.72123
3334.48790	1.73043
3332.55933	1.73290
3330.63077	1.72660
3328.70220	1.72339
3326.77364	1.72671
3324.84508	1.73556
3322.91651	1.75095
3320.98795	1.76386
3319.05938	1.77061
3317.13082	1.77644
3315.20225	1.77769
3313.27369	1.77304
3311.34513	1.76607
3309.41656	1.75910
3307.48800	1.75853
3305.55943	1.76649
3303.63087	1.77960
3301.70230	1.79769
3299.77374	1.81445
3297.84517	1.81983
3295.91661	1.81672
3293.98805	1.81326
3292.05948	1.80995
3290.13092	1.80130
3288.20235	1.79520
3286.27379	1.80393
3284.34522	1.81282
3282.41666	1.80608
3280.48809	1.79650
3278.55953	1.79170
3276.63097	1.78484
3274.70240	1.77723
3272.77384	1.77343
3270.84527	1.77260
3268.91671	1.77285
3266.98814	1.76866
3265.05958	1.76012
3263.13101	1.75350
3261.20245	1.74681
3259.27389	1.73814
3257.34532	1.73291
3255.41676	1.73104
3253.48819	1.72412
3251.55963	1.71220
3249.63106	1.70382
3247.70250	1.70054
3245.77393	1.69941
3243.84537	1.69689
3241.91681	1.69152
3239.98824	1.68475
3238.05968	1.67453
3236.13111	1.66380
3234.20255	1.65926
3232.27398	1.65785
3230.34542	1.65382
3228.41685	1.64744
3226.48829	1.64389
3224.55973	1.64531
3222.63116	1.64375
3220.70260	1.63506
3218.77403	1.62550
3216.84547	1.61827
3214.91690	1.61137
3212.98834	1.60445
3211.05977	1.60044
3209.13121	1.59958
3207.20265	1.59787
3205.27408	1.59293
3203.34552	1.58284
3201.41695	1.57067
3199.48839	1.56395
3197.55982	1.56057
3195.63126	1.55633
3193.70269	1.55353
3191.77413	1.54889
3189.84557	1.54011
3187.91700	1.53447
3185.98844	1.53413
3184.05987	1.53167
3182.13131	1.52369
3180.20274	1.51493
3178.27418	1.50914
3176.34562	1.50538
3174.41705	1.49996
3172.48849	1.49096
3170.55992	1.48234
3168.63136	1.47760
3166.70279	1.47565
3164.77423	1.47449
3162.84566	1.47140
3160.91710	1.46527
3158.98854	1.45790
3157.05997	1.44994
3155.13141	1.44322
3153.20284	1.44098
3151.27428	1.44040
3149.34571	1.43614
3147.41715	1.42924
3145.48858	1.42282
3143.56002	1.41787
3141.63146	1.41479
3139.70289	1.41338
3137.77433	1.41255
3135.84576	1.41031
3133.91720	1.40626
3131.98863	1.40188
3130.06007	1.39829
3128.13150	1.39727
3126.20294	1.39890
3124.27438	1.39996
3122.34581	1.39908
3120.41725	1.39749
3118.48868	1.39619
3116.56012	1.39537
3114.63155	1.39405
3112.70299	1.39267
3110.77442	1.39292
3108.84586	1.39370
3106.91730	1.39357
3104.98873	1.39174
3103.06017	1.38668
3101.13160	1.38049
3099.20304	1.37723
3097.27447	1.37765
3095.34591	1.37966
3093.41734	1.37878
3091.48878	1.37307
3089.56022	1.36734
3087.63165	1.36590
3085.70309	1.36575
3083.77452	1.36221
3081.84596	1.35680
3079.91739	1.35177
3077.98883	1.34581
3076.06026	1.34037
3074.13170	1.33804
3072.20314	1.33657
3070.27457	1.33250
3068.34601	1.32685
3066.41744	1.32209
3064.48888	1.31781
3062.56031	1.31334
3060.63175	1.30821
3058.70318	1.30141
3056.77462	1.29435
3054.84606	1.28921
3052.91749	1.28583
3050.98893	1.28236
3049.06036	1.27654
3047.13180	1.26821
3045.20323	1.25945
3043.27467	1.25165
3041.34610	1.24574
3039.41754	1.24201
3037.48898	1.23866
3035.56041	1.23381
3033.63185	1.22725
3031.70328	1.22107
3029.77472	1.21762
3027.84615	1.21526
3025.91759	1.21205
3023.98903	1.20877
3022.06046	1.20543
3020.13190	1.20176
3018.20333	1.19810
3016.27477	1.19453
3014.34620	1.19141
3012.41764	1.18897
3010.48907	1.18582
3008.56051	1.18085
3006.63195	1.17576
3004.70338	1.17158
3002.77482	1.16873
3000.84625	1.16873
2998.91769	1.17008
2996.98912	1.17004
2995.06056	1.16940
2993.13199	1.17010
2991.20343	1.17322
2989.27487	1.17831
2987.34630	1.18302
2985.41774	1.18667
2983.48917	1.19120
2981.56061	1.19792
2979.63204	1.20576
2977.70348	1.21207
2975.77491	1.21593
2973.84635	1.21991
2971.91779	1.22677
2969.98922	1.23590
2968.06066	1.24438
2966.13209	1.25064
2964.20353	1.25541
2962.27496	1.25821
2960.34640	1.25704
2958.41783	1.25284
2956.48927	1.24803
2954.56071	1.24328
2952.63214	1.23934
2950.70358	1.23616
2948.77501	1.23383
2946.84645	1.23458
2944.91788	1.23859
2942.98932	1.24439
2941.06075	1.25167
2939.13219	1.26008
2937.20363	1.26933
2935.27506	1.27817
2933.34650	1.28617
2931.41793	1.29516
2929.48937	1.30315
2927.56080	1.30676
2925.63224	1.30865
2923.70367	1.31255
2921.77511	1.31697
2919.84655	1.31843
2917.91798	1.31541
2915.98942	1.30615
2914.06085	1.28896
2912.13229	1.26771
2910.20372	1.24927
2908.27516	1.23548
2906.34659	1.22397
2904.41803	1.21420
2902.48947	1.20754
2900.56090	1.20308
2898.63234	1.19897
2896.70377	1.19669
2894.77521	1.19680
2892.84664	1.19515
2890.91808	1.18979
2888.98952	1.18402
2887.06095	1.18065
2885.13239	1.17912
2883.20382	1.17766
2881.27526	1.17607
2879.34669	1.17533
2877.41813	1.17530
2875.48956	1.17433
2873.56100	1.17095
2871.63244	1.16568
2869.70387	1.15912
2867.77531	1.15047
2865.84674	1.14064
2863.91818	1.13312
2861.98961	1.13053
2860.06105	1.13169
2858.13248	1.13410
2856.20392	1.13860
2854.27536	1.14618
2852.34679	1.15389
2850.41823	1.15681
2848.48966	1.14898
2846.56110	1.12879
2844.63253	1.10444
2842.70397	1.08493
2840.77540	1.07111
2838.84684	1.05954
2836.91828	1.04958
2834.98971	1.04278
2833.06115	1.03878
2831.13258	1.03498
2829.20402	1.02951
2827.27545	1.02315
2825.34689	1.01740
2823.41832	1.01297
2821.48976	1.00988
2819.56120	1.00722
2817.63263	1.00434
2815.70407	1.00129
2813.77550	0.99774
2811.84694	0.99375
2809.91837	0.99049
2807.98981	0.98777
2806.06124	0.98380
2804.13268	0.97891
2802.20412	0.97548
2800.27555	0.97394
2798.34699	0.97199
2796.41842	0.96821
2794.48986	0.96381
2792.56129	0.96039
2790.63273	0.95815
2788.70416	0.95615
2786.77560	0.95368
2784.84704	0.95126
2782.91847	0.94898
2780.98991	0.94649
2779.06134	0.94399
2777.13278	0.94118
2775.20421	0.93819
2773.27565	0.93627
2771.34708	0.93496
2769.41852	0.93276
2767.48996	0.93010
2765.56139	0.92772
2763.63283	0.92565
2761.70426	0.92391
2759.77570	0.92170
2757.84713	0.91836
2755.91857	0.91477
2753.99001	0.91244
2752.06144	0.91157
2750.13288	0.91040
2748.20431	0.90783
2746.27575	0.90545
2744.34718	0.90436
2742.41862	0.90325
2740.49005	0.90106
2738.56149	0.89865
2736.63293	0.89708
2734.70436	0.89565
2732.77580	0.89368
2730.84723	0.89220
2728.91867	0.89142
2726.99010	0.89005
2725.06154	0.88786
2723.13297	0.88567
2721.20441	0.88423
2719.27585	0.88356
2717.34728	0.88283
2715.41872	0.88153
2713.49015	0.88020
2711.56159	0.87940
2709.63302	0.87889
2707.70446	0.87792
2705.77589	0.87629
2703.84733	0.87448
2701.91877	0.87262
2699.99020	0.87058
2698.06164	0.86896
2696.13307	0.86821
2694.20451	0.86769
2692.27594	0.86670
2690.34738	0.86537
2688.41881	0.86399
2686.49025	0.86228
2684.56169	0.86031
2682.63312	0.85827
2680.70456	0.85589
2678.77599	0.85322
2676.84743	0.85063
2674.91886	0.84840
2672.99030	0.84652
2671.06173	0.84483
2669.13317	0.84332
2667.20461	0.84197
2665.27604	0.84055
2663.34748	0.83882
2661.41891	0.83675
2659.49035	0.83434
2657.56178	0.83169
2655.63322	0.82944
2653.70465	0.82799
2651.77609	0.82673
2649.84753	0.82504
2647.91896	0.82310
2645.99040	0.82110
2644.06183	0.81887
2642.13327	0.81674
2640.20470	0.81493
2638.27614	0.81319
2636.34757	0.81147
2634.41901	0.80981
2632.49045	0.80816
2630.56188	0.80624
2628.63332	0.80413
2626.70475	0.80290
2624.77619	0.80252
2622.84762	0.80154
2620.91906	0.80006
2618.99049	0.79914
2617.06193	0.79845
2615.13337	0.79716
2613.20480	0.79548
2611.27624	0.79417
2609.34767	0.79349
2607.41911	0.79306
2605.49054	0.79257
2603.56198	0.79220
2601.63342	0.79187
2599.70485	0.79106
2597.77629	0.79004
2595.84772	0.78924
2593.91916	0.78811
2591.99059	0.78670
2590.06203	0.78582
2588.13346	0.78517
2586.20490	0.78404
2584.27634	0.78261
2582.34777	0.78124
2580.41921	0.77999
2578.49064	0.77848
2576.56208	0.77642
2574.63351	0.77441
2572.70495	0.77284
2570.77638	0.77130
2568.84782	0.76963
2566.91926	0.76798
2564.99069	0.76637
2563.06213	0.76472
2561.13356	0.76300
2559.20500	0.76125
2557.27643	0.75953
2555.34787	0.75796
2553.41930	0.75666
2551.49074	0.75560
2549.56218	0.75448
2547.63361	0.75300
2545.70505	0.75119
2543.77648	0.74912
2541.84792	0.74703
2539.91935	0.74538
2537.99079	0.74414
2536.06222	0.74290
2534.13366	0.74143
2532.20510	0.73988
2530.27653	0.73839
2528.34797	0.73694
2526.41940	0.73570
2524.49084	0.73464
2522.56227	0.73356
2520.63371	0.73285
2518.70514	0.73266
2516.77658	0.73240
2514.84802	0.73172
2512.91945	0.73080
2510.99089	0.72985
2509.06232	0.72875
2507.13376	0.72761
2505.20519	0.72678
2503.27663	0.72629
2501.34806	0.72593
2499.41950	0.72551
2497.49094	0.72497
2495.56237	0.72423
2493.63381	0.72313
2491.70524	0.72190
2489.77668	0.72083
2487.84811	0.71975
2485.91955	0.71847
2483.99098	0.71734
2482.06242	0.71672
2480.13386	0.71601
2478.20529	0.71450
2476.27673	0.71279
2474.34816	0.71130
2472.41960	0.70982
2470.49103	0.70875
2468.56247	0.70802
2466.63391	0.70675
2464.70534	0.70518
2462.77678	0.70419
2460.84821	0.70372
2458.91965	0.70304
2456.99108	0.70181
2455.06252	0.70037
2453.13395	0.69900
2451.20539	0.69749
2449.27683	0.69551
2447.34826	0.69342
2445.41970	0.69198
2443.49113	0.69114
2441.56257	0.69011
2439.63400	0.68866
2437.70544	0.68718
2435.77687	0.68569
2433.84831	0.68401
2431.91975	0.68224
2429.99118	0.68054
2428.06262	0.67896
2426.13405	0.67773
2424.20549	0.67690
2422.27692	0.67608
2420.34836	0.67503
2418.41979	0.67374
2416.49123	0.67242
2414.56267	0.67132
2412.63410	0.67033
2410.70554	0.66945
2408.77697	0.66886
2406.84841	0.66838
2404.91984	0.66793
2402.99128	0.66755
2401.06271	0.66697
2399.13415	0.66586
2397.20559	0.66468
2395.27702	0.66419
2393.34846	0.66414
2391.41989	0.66397
2389.49133	0.66356
2387.56276	0.66266
2385.63420	0.66133
2383.70563	0.66012
2381.77707	0.65946
2379.84851	0.65905
2377.91994	0.65834
2375.99138	0.65751
2374.06281	0.65716
2372.13425	0.65730
2370.20568	0.65871
2368.27712	0.66118
2366.34855	0.66017
2364.41999	0.65585
2362.49143	0.65556
2360.56286	0.65963
2358.63430	0.66227
2356.70573	0.66058
2354.77717	0.65718
2352.84860	0.65465
2350.92004	0.65182
2348.99147	0.64806
2347.06291	0.64443
2345.13435	0.64282
2343.20578	0.64369
2341.27722	0.64422
2339.34865	0.64303
2337.42009	0.64152
2335.49152	0.64130
2333.56296	0.64152
2331.63440	0.64115
2329.70583	0.64050
2327.77727	0.63926
2325.84870	0.63748
2323.92014	0.63633
2321.99157	0.63642
2320.06301	0.63718
2318.13444	0.63738
2316.20588	0.63642
2314.27732	0.63509
2312.34875	0.63430
2310.42019	0.63387
2308.49162	0.63324
2306.56306	0.63260
2304.63449	0.63236
2302.70593	0.63236
2300.77736	0.63221
2298.84880	0.63178
2296.92024	0.63151
2294.99167	0.63165
2293.06311	0.63149
2291.13454	0.63074
2289.20598	0.62999
2287.27741	0.62968
2285.34885	0.62978
2283.42028	0.63000
2281.49172	0.63019
2279.56316	0.63030
2277.63459	0.63007
2275.70603	0.62968
2273.77746	0.62944
2271.84890	0.62950
2269.92033	0.62965
2267.99177	0.62932
2266.06320	0.62852
2264.13464	0.62768
2262.20608	0.62701
2260.27751	0.62658
2258.34895	0.62610
2256.42038	0.62529
2254.49182	0.62441
2252.56325	0.62359
2250.63469	0.62267
2248.70612	0.62169
2246.77756	0.62075
2244.84900	0.61981
2242.92043	0.61883
2240.99187	0.61793
2239.06330	0.61712
2237.13474	0.61625
2235.20617	0.61520
2233.27761	0.61398
2231.34904	0.61287
2229.42048	0.61218
2227.49192	0.61179
2225.56335	0.61120
2223.63479	0.61045
2221.70622	0.61002
2219.77766	0.60992
2217.84909	0.60963
2215.92053	0.60920
2213.99196	0.60908
2212.06340	0.60925
2210.13484	0.60939
2208.20627	0.60940
2206.27771	0.60942
2204.34914	0.60957
2202.42058	0.60954
2200.49201	0.60911
2198.56345	0.60884
2196.63488	0.60920
2194.70632	0.60993
2192.77776	0.61040
2190.84919	0.61043
2188.92063	0.61027
2186.99206	0.61008
2185.06350	0.61002
2183.13493	0.61037
2181.20637	0.61094
2179.27781	0.61121
2177.34924	0.61117
2175.42068	0.61115
2173.49211	0.61123
2171.56355	0.61121
2169.63498	0.61086
2167.70642	0.61041
2165.77785	0.61008
2163.84929	0.60974
2161.92073	0.60939
2159.99216	0.60900
2158.06360	0.60835
2156.13503	0.60737
2154.20647	0.60634
2152.27790	0.60550
2150.34934	0.60482
2148.42077	0.60421
2146.49221	0.60365
2144.56365	0.60299
2142.63508	0.60206
2140.70652	0.60098
2138.77795	0.60005
2136.84939	0.59940
2134.92082	0.59870
2132.99226	0.59765
2131.06369	0.59653
2129.13513	0.59555
2127.20657	0.59467
2125.27800	0.59374
2123.34944	0.59265
2121.42087	0.59157
2119.49231	0.59068
2117.56374	0.59000
2115.63518	0.58955
2113.70661	0.58917
2111.77805	0.58858
2109.84949	0.58771
2107.92092	0.58681
2105.99236	0.58610
2104.06379	0.58577
2102.13523	0.58555
2100.20666	0.58496
2098.27810	0.58416
2096.34953	0.58356
2094.42097	0.58305
2092.49241	0.58251
2090.56384	0.58216
2088.63528	0.58207
2086.70671	0.58208
2084.77815	0.58199
2082.84958	0.58181
2080.92102	0.58178
2078.99245	0.58191
2077.06389	0.58194
2075.13533	0.58194
2073.20676	0.58221
2071.27820	0.58251
2069.34963	0.58239
2067.42107	0.58208
2065.49250	0.58191
2063.56394	0.58186
2061.63537	0.58173
2059.70681	0.58131
2057.77825	0.58064
2055.84968	0.57986
2053.92112	0.57894
2051.99255	0.57787
2050.06399	0.57692
2048.13542	0.57599
2046.20686	0.57473
2044.27830	0.57328
2042.34973	0.57193
2040.42117	0.57079
2038.49260	0.56955
2036.56404	0.56793
2034.63547	0.56622
2032.70691	0.56477
2030.77834	0.56343
2028.84978	0.56202
2026.92122	0.56059
2024.99265	0.55900
2023.06409	0.55722
2021.13552	0.55563
2019.20696	0.55452
2017.27839	0.55375
2015.34983	0.55285
2013.42126	0.55172
2011.49270	0.55061
2009.56414	0.54963
2007.63557	0.54868
2005.70701	0.54739
2003.77844	0.54592
2001.84988	0.54481
1999.92131	0.54383
1997.99275	0.54244
1996.06418	0.54078
1994.13562	0.53943
1992.20706	0.53868
1990.27849	0.53799
1988.34993	0.53702
1986.42136	0.53605
1984.49280	0.53519
1982.56423	0.53444
1980.63567	0.53380
1978.70710	0.53324
1976.77854	0.53289
1974.84998	0.53278
1972.92141	0.53276
1970.99285	0.53280
1969.06428	0.53315
1967.13572	0.53385
1965.20715	0.53449
1963.27859	0.53491
1961.35002	0.53528
1959.42146	0.53552
1957.49290	0.53557
1955.56433	0.53556
1953.63577	0.53532
1951.70720	0.53477
1949.77864	0.53413
1947.85007	0.53340
1945.92151	0.53242
1943.99294	0.53156
1942.06438	0.53118
1940.13582	0.53050
1938.20725	0.52941
1936.27869	0.52832
1934.35012	0.52708
1932.42156	0.52568
1930.49299	0.52442
1928.56443	0.52334
1926.63586	0.52219
1924.70730	0.52087
1922.77874	0.51951
1920.85017	0.51821
1918.92161	0.51747
1916.99304	0.51729
1915.06448	0.51653
1913.13591	0.51533
1911.20735	0.51450
1909.27878	0.51413
1907.35022	0.51381
1905.42166	0.51330
1903.49309	0.51278
1901.56453	0.51234
1899.63596	0.51165
1897.70740	0.51062
1895.77883	0.50971
1893.85027	0.50880
1891.92171	0.50751
1889.99314	0.50656
1888.06458	0.50598
1886.13601	0.50495
1884.20745	0.50376
1882.27888	0.50282
1880.35032	0.50187
1878.42175	0.50075
1876.49319	0.49983
1874.56463	0.49908
1872.63606	0.49795
1870.70750	0.49683
1868.77893	0.49698
1866.85037	0.49777
1864.92180	0.49766
1862.99324	0.49702
1861.06467	0.49643
1859.13611	0.49623
1857.20755	0.49635
1855.27898	0.49639
1853.35042	0.49610
1851.42185	0.49537
1849.49329	0.49435
1847.56472	0.49323
1845.63616	0.49272
1843.70759	0.49308
1841.77903	0.49255
1839.85047	0.49110
1837.92190	0.48996
1835.99334	0.48927
1834.06477	0.48806
1832.13621	0.48642
1830.20764	0.48576
1828.27908	0.48591
1826.35051	0.48572
1824.42195	0.48590
1822.49339	0.48604
1820.56482	0.48562
1818.63626	0.48539
1816.70769	0.48552
1814.77913	0.48564
1812.85056	0.48601
1810.92200	0.48747
1808.99343	0.48940
1807.06487	0.49058
1805.13631	0.49128
1803.20774	0.49218
1801.27918	0.49389
1799.35061	0.49567
1797.42205	0.49623
1795.49348	0.49599
1793.56492	0.49654
1791.63635	0.49878
1789.70779	0.49968
1787.77923	0.49894
1785.85066	0.49850
1783.92210	0.49863
1781.99353	0.49893
1780.06497	0.49944
1778.13640	0.49944
1776.20784	0.49843
1774.27927	0.49761
1772.35071	0.49892
1770.42215	0.50115
1768.49358	0.50236
1766.56502	0.50291
1764.63645	0.50313
1762.70789	0.50456
1760.77932	0.50741
1758.85076	0.50963
1756.92220	0.51225
1754.99363	0.51471
1753.06507	0.51605
1751.13650	0.51909
1749.20794	0.52533
1747.27937	0.53102
1745.35081	0.53512
1743.42224	0.53901
1741.49368	0.54355
1739.56512	0.54853
1737.63655	0.55147
1735.70799	0.55367
1733.77942	0.56104
1731.85086	0.56893
1729.92229	0.57375
1727.99373	0.57889
1726.06516	0.58450
1724.13660	0.59166
1722.20804	0.59885
1720.27947	0.60468
1718.35091	0.61502
1716.42234	0.63688
1714.49378	0.65623
1712.56521	0.66942
1710.63665	0.68195
1708.70808	0.69602
1706.77952	0.71722
1704.85096	0.74584
1702.92239	0.77073
1700.99383	0.80605
1699.06526	0.86753
1697.13670	0.93032
1695.20813	0.99193
1693.27957	1.03507
1691.35100	1.06894
1689.42244	1.11341
1687.49388	1.15594
1685.56531	1.19794
1683.63675	1.27035
1681.70818	1.32724
1679.77962	1.35873
1677.85105	1.38765
1675.92249	1.42405
1673.99392	1.46538
1672.06536	1.49598
1670.13680	1.52481
1668.20823	1.55703
1666.27967	1.57559
1664.35110	1.59006
1662.42254	1.61009
1660.49397	1.62517
1658.56541	1.63042
1656.63684	1.63087
1654.70828	1.63422
1652.77972	1.64458
1650.85115	1.64781
1648.92259	1.64659
1646.99402	1.64300
1645.06546	1.63987
1643.13689	1.63662
1641.20833	1.63294
1639.27976	1.62978
1637.35120	1.62970
1635.42264	1.62934
1633.49407	1.62428
1631.56551	1.61874
1629.63694	1.61007
1627.70838	1.59887
1625.77981	1.58710
1623.85125	1.57164
1621.92269	1.55272
1619.99412	1.53561
1618.06556	1.51273
1616.13699	1.47427
1614.20843	1.43896
1612.27986	1.40860
1610.35130	1.37537
1608.42273	1.34084
1606.49417	1.31054
1604.56561	1.28608
1602.63704	1.26591
1600.70848	1.25045
1598.77991	1.23951
1596.85135	1.23161
1594.92278	1.22594
1592.99422	1.22286
1591.06565	1.22365
1589.13709	1.22918
1587.20853	1.23888
1585.27996	1.25168
1583.35140	1.26704
1581.42283	1.28290
1579.49427	1.29762
1577.56570	1.31622
1575.63714	1.34192
1573.70857	1.35807
1571.78001	1.36847
1569.85145	1.38765
1567.92288	1.41118
1565.99432	1.42787
1564.06575	1.44105
1562.13719	1.44884
1560.20862	1.45949
1558.28006	1.49742
1556.35149	1.51879
1554.42293	1.52292
1552.49437	1.52356
1550.56580	1.52194
1548.63724	1.51848
1546.70867	1.51379
1544.78011	1.50977
1542.85154	1.50962
1540.92298	1.50746
1538.99441	1.49211
1537.06585	1.48111
1535.13729	1.47188
1533.20872	1.46215
1531.28016	1.45467
1529.35159	1.44740
1527.42303	1.43757
1525.49446	1.42729
1523.56590	1.41938
1521.63733	1.41176
1519.70877	1.40742
1517.78021	1.40290
1515.85164	1.39128
1513.92308	1.37309
1511.99451	1.35146
1510.06595	1.33032
1508.13738	1.30112
1506.20882	1.24462
1504.28025	1.20921
1502.35169	1.18680
1500.42313	1.16277
1498.49456	1.13320
1496.56600	1.10040
1494.63743	1.07577
1492.70887	1.05876
1490.78030	1.04092
1488.85174	1.02026
1486.92317	1.00620
1484.99461	0.99876
1483.06605	0.99510
1481.13748	0.99509
1479.20892	0.99870
1477.28035	1.00628
1475.35179	1.01924
1473.42322	1.04281
1471.49466	1.07149
1469.56610	1.08771
1467.63753	1.09797
1465.70897	1.11166
1463.78040	1.12713
1461.85184	1.13554
1459.92327	1.14002
1457.99471	1.15110
1456.06614	1.16756
1454.13758	1.17224
1452.20902	1.17247
1450.28045	1.17251
1448.35189	1.17228
1446.42332	1.17038
1444.49476	1.16629
1442.56619	1.16070
1440.63763	1.15447
1438.70906	1.14730
1436.78050	1.13761
1434.85194	1.12689
1432.92337	1.11759
1430.99481	1.10896
1429.06624	1.10168
1427.13768	1.09689
1425.20911	1.09459
1423.28055	1.09445
1421.35198	1.09498
1419.42342	1.09824
1417.49486	1.10485
1415.56629	1.10780
1413.63773	1.10720
1411.70916	1.10524
1409.78060	1.10256
1407.85203	1.09969
1405.92347	1.09786
1403.99490	1.09711
1402.06634	1.09577
1400.13778	1.09379
1398.20921	1.09171
1396.28065	1.08997
1394.35208	1.08893
1392.42352	1.08829
1390.49495	1.08852
1388.56639	1.09276
1386.63782	1.10388
1384.70926	1.11701
1382.78070	1.12768
1380.85213	1.13490
1378.92357	1.13729
1376.99500	1.13435
1375.06644	1.12544
1373.13787	1.11150
1371.20931	1.09626
1369.28074	1.07964
1367.35218	1.06208
1365.42362	1.04618
1363.49505	1.03196
1361.56649	1.02073
1359.63792	1.01398
1357.70936	1.01024
1355.78079	1.00872
1353.85223	1.00867
1351.92366	1.00907
1349.99510	1.01002
1348.06654	1.01177
1346.13797	1.01354
1344.20941	1.01474
1342.28084	1.01595
1340.35228	1.01872
1338.42371	1.02335
1336.49515	1.02824
1334.56659	1.03380
1332.63802	1.04083
1330.70946	1.04829
1328.78089	1.05474
1326.85233	1.05939
1324.92376	1.06181
1322.99520	1.06294
1321.06663	1.06471
1319.13807	1.06740
1317.20951	1.06953
1315.28094	1.07041
1313.35238	1.07061
1311.42381	1.07025
1309.49525	1.06889
1307.56668	1.06656
1305.63812	1.06371
1303.70955	1.06044
1301.78099	1.05667
1299.85243	1.05227
1297.92386	1.04679
1295.99530	1.04060
1294.06673	1.03499
1292.13817	1.03076
1290.20960	1.02797
1288.28104	1.02609
1286.35247	1.02438
1284.42391	1.02238
1282.49535	1.02049
1280.56678	1.01930
1278.63822	1.01870
1276.70965	1.01875
1274.78109	1.02025
1272.85252	1.02374
1270.92396	1.02876
1268.99539	1.03492
1267.06683	1.04172
1265.13827	1.04725
1263.20970	1.05058
1261.28114	1.05283
1259.35257	1.05444
1257.42401	1.05529
1255.49544	1.05609
1253.56688	1.05761
1251.63831	1.05982
1249.70975	1.06225
1247.78119	1.06496
1245.85262	1.06806
1243.92406	1.07080
1241.99549	1.07279
1240.06693	1.07424
1238.13836	1.07452
1236.20980	1.07283
1234.28123	1.06959
1232.35267	1.06555
1230.42411	1.06057
1228.49554	1.05445
1226.56698	1.04756
1224.63841	1.04011
1222.70985	1.03242
1220.78128	1.02502
1218.85272	1.01827
1216.92415	1.01249
1214.99559	1.00824
1213.06703	1.00640
1211.13846	1.00756
1209.20990	1.01084
1207.28133	1.01369
1205.35277	1.01324
1203.42420	1.00815
1201.49564	0.99960
1199.56708	0.98932
1197.63851	0.97821
1195.70995	0.96718
1193.78138	0.95697
1191.85282	0.94785
1189.92425	0.94020
1187.99569	0.93438
1186.06712	0.93066
1184.13856	0.92898
1182.21000	0.92907
1180.28143	0.93114
1178.35287	0.93572
1176.42430	0.94308
1174.49574	0.95272
1172.56717	0.96373
1170.63861	0.97623
1168.71004	0.99155
1166.78148	1.01093
1164.85292	1.03487
1162.92435	1.06225
1160.99579	1.08856
1159.06722	1.10761
1157.13866	1.11556
1155.21009	1.11238
1153.28153	1.10092
1151.35296	1.08485
1149.42440	1.06732
1147.49584	1.05074
1145.56727	1.03697
1143.63871	1.02778
1141.71014	1.02369
1139.78158	1.02349
1137.85301	1.02653
1135.92445	1.03337
1133.99588	1.04418
1132.06732	1.05857
1130.13876	1.07640
1128.21019	1.09674
1126.28163	1.11668
1124.35306	1.13388
1122.42450	1.14916
1120.49593	1.16373
1118.56737	1.17659
1116.63880	1.18600
1114.71024	1.19195
1112.78168	1.19540
1110.85311	1.19539
1108.92455	1.19224
1106.99598	1.18896
1105.06742	1.18670
1103.13885	1.18490
1101.21029	1.18305
1099.28172	1.18197
1097.35316	1.18402
1095.42460	1.19036
1093.49603	1.20014
1091.56747	1.21266
1089.63890	1.22930
1087.71034	1.25157
1085.78177	1.27657
1083.85321	1.29861
1081.92464	1.31596
1079.99608	1.32979
1078.06752	1.33815
1076.13895	1.33837
1074.21039	1.33072
1072.28182	1.31628
1070.35326	1.29725
1068.42469	1.27824
1066.49613	1.26293
1064.56756	1.25117
1062.63900	1.24205
1060.71044	1.23540
1058.78187	1.22981
1056.85331	1.22434
1054.92474	1.21941
1052.99618	1.21614
1051.06761	1.21652
1049.13905	1.22119
1047.21049	1.22844
1045.28192	1.23732
1043.35336	1.24835
1041.42479	1.25966
1039.49623	1.26818
1037.56766	1.27405
1035.63910	1.27763
1033.71053	1.27733
1031.78197	1.27412
1029.85341	1.27003
1027.92484	1.26320
1025.99628	1.25158
1024.06771	1.23767
1022.13915	1.22478
1020.21058	1.21352
1018.28202	1.20322
1016.35345	1.19295
1014.42489	1.18078
1012.49633	1.16478
1010.56776	1.14506
1008.63920	1.12328
1006.71063	1.10065
1004.78207	1.07822
1002.85350	1.05847
1000.92494	1.04321
998.99637	1.03208
997.06781	1.02487
995.13925	1.02094
993.21068	1.01718
991.28212	1.01079
989.35355	1.00159
987.42499	0.99054
985.49642	0.97856
983.56786	0.96688
981.63929	0.95627
979.71073	0.94685
977.78217	0.93881
975.85360	0.93112
973.92504	0.92186
971.99647	0.91017
970.06791	0.89659
968.13934	0.88260
966.21078	0.87026
964.28221	0.86112
962.35365	0.85652
960.42509	0.85779
958.49652	0.86427
956.56796	0.87171
954.63939	0.87487
952.71083	0.87222
950.78226	0.86618
948.85370	0.85962
946.92513	0.85462
944.99657	0.85244
943.06801	0.85303
941.13944	0.85582
939.21088	0.86004
937.28231	0.86485
935.35375	0.86975
933.42518	0.87479
931.49662	0.88049
929.56805	0.88657
927.63949	0.89168
925.71093	0.89505
923.78236	0.89695
921.85380	0.89767
919.92523	0.89676
917.99667	0.89351
916.06810	0.88859
914.13954	0.88346
912.21098	0.87837
910.28241	0.87362
908.35385	0.87066
906.42528	0.86980
904.49672	0.86995
902.56815	0.87074
900.63959	0.87207
898.71102	0.87302
896.78246	0.87275
894.85390	0.87079
892.92533	0.86758
890.99677	0.86452
889.06820	0.86209
887.13964	0.86006
885.21107	0.85850
883.28251	0.85744
881.35394	0.85687
879.42538	0.85655
877.49682	0.85628
875.56825	0.85615
873.63969	0.85582
871.71112	0.85499
869.78256	0.85423
867.85399	0.85406
865.92543	0.85468
863.99686	0.85665
862.06830	0.85989
860.13974	0.86336
858.21117	0.86715
856.28261	0.87245
854.35404	0.87924
852.42548	0.88626
850.49691	0.89254
848.56835	0.89826
846.63978	0.90383
844.71122	0.90960
842.78266	0.91554
840.85409	0.92118
838.92553	0.92692
836.99696	0.93315
835.06840	0.93911
833.13983	0.94443
831.21127	0.94921
829.28270	0.95373
827.35414	0.95771
825.42558	0.95987
823.49701	0.95998
821.56845	0.95910
819.63988	0.95799
817.71132	0.95627
815.78275	0.95357
813.85419	0.95109
811.92562	0.95006
809.99706	0.94996
808.06850	0.94877
806.13993	0.94574
804.21137	0.94285
802.28280	0.94162
800.35424	0.94141
798.42567	0.94207
796.49711	0.94348
794.56854	0.94507
792.63998	0.94762
790.71142	0.95163
788.78285	0.95604
786.85429	0.95993
784.92572	0.96325
782.99716	0.96695
781.06859	0.97185
779.14003	0.97700
777.21147	0.98080
775.28290	0.98320
773.35434	0.98534
771.42577	0.98740
769.49721	0.98818
767.56864	0.98767
765.64008	0.98681
763.71151	0.98600
761.78295	0.98613
759.85439	0.98705
757.92582	0.98777
755.99726	0.98948
754.06869	0.99322
752.14013	0.99825
750.21156	1.00393
748.28300	1.00988
746.35443	1.01724
744.42587	1.02682
742.49731	1.03537
740.56874	1.04143
738.64018	1.04829
736.71161	1.05661
734.78305	1.06460
732.85448	1.07261
730.92592	1.08102
728.99735	1.08837
727.06879	1.09362
725.14023	1.09730
723.21166	1.09981
721.28310	1.10076
719.35453	1.09927
717.42597	1.09482
715.49740	1.08869
713.56884	1.08342
711.64027	1.08021
709.71171	1.07741
707.78315	1.07419
705.85458	1.07135
703.92602	1.06766
701.99745	1.06312
700.06889	1.06084
698.14032	1.06073
696.21176	1.05983
694.28319	1.05759
692.35463	1.05531
690.42607	1.05333
688.49750	1.05109
686.56894	1.04916
684.64037	1.04961
682.71181	1.05162
680.78324	1.05105
678.85468	1.04744
676.92611	1.04477
674.99755	1.04463
673.06899	1.04433
671.14042	1.04183
669.21186	1.03929
667.28329	1.04028
665.35473	1.04071
663.42616	1.03895
661.49760	1.03611
659.56903	1.03457
657.64047	1.03669
655.71191	1.04074
653.78334	1.04404
651.85478	1.04666
649.92621	1.04869
647.99765	1.05026
646.06908	1.05437
644.14052	1.06290
642.21195	1.07335
640.28339	1.08299
638.35483	1.09121
636.42626	1.09850
634.49770	1.10651
632.56913	1.11668
630.64057	1.12778
628.71200	1.13697
626.78344	1.14293
624.85488	1.14678
622.92631	1.15092
620.99775	1.15443
619.06918	1.15434
617.14062	1.15271
615.21205	1.15176
613.28349	1.14634
611.35492	1.13594
609.42636	1.12719
607.49780	1.11868
605.56923	1.10772
603.64067	1.09966
601.71210	1.09457
599.78354	1.08745
