3997.91406	1.17766
3995.98550	1.18159
3994.05693	1.18275
3992.12837	1.18119
3990.19980	1.17737
3988.27124	1.17338
3986.34268	1.17344
3984.41411	1.17793
3982.48555	1.18111
3980.55698	1.17883
3978.62842	1.17569
3976.69985	1.17649
3974.77129	1.17998
3972.84272	1.18165
3970.91416	1.17864
3968.98560	1.17458
3967.05703	1.17319
3965.12847	1.17385
3963.19990	1.17532
3961.27134	1.17572
3959.34277	1.17552
3957.41421	1.17650
3955.48564	1.17704
3953.55708	1.17614
3951.62852	1.17484
3949.69995	1.17350
3947.77139	1.17180
3945.84282	1.17075
3943.91426	1.17199
3941.98569	1.17202
3940.05713	1.16899
3938.12856	1.16775
3936.20000	1.16746
3934.27144	1.16516
3932.34287	1.16395
3930.41431	1.16575
3928.48574	1.16713
3926.55718	1.16604
3924.62861	1.16447
3922.70005	1.16462
3920.77148	1.16482
3918.84292	1.16469
3916.91436	1.16498
3914.98579	1.16349
3913.05723	1.15961
3911.12866	1.15714
3909.20010	1.15731
3907.27153	1.15589
3905.34297	1.15320
3903.41440	1.15488
3901.48584	1.15780
3899.55728	1.15840
3897.62871	1.15758
3895.70015	1.15545
3893.77158	1.15286
3891.84302	1.15165
3889.91445	1.15297
3887.98589	1.15508
3886.05733	1.15775
3884.12876	1.16034
3882.20020	1.16248
3880.27163	1.16386
3878.34307	1.16027
3876.41450	1.15423
3874.48594	1.15151
3872.55737	1.15205
3870.62881	1.15036
3868.70025	1.14725
3866.77168	1.14625
3864.84312	1.14792
3862.91455	1.15032
3860.98599	1.15047
3859.05742	1.15114
3857.12886	1.15443
3855.20029	1.15686
3853.27173	1.15404
3851.34317	1.15061
3849.41460	1.14730
3847.48604	1.14416
3845.55747	1.14165
3843.62891	1.13849
3841.70034	1.13381
3839.77178	1.13103
3837.84321	1.13599
3835.91465	1.14246
3833.98609	1.14446
3832.05752	1.14439
3830.12896	1.14370
3828.20039	1.14310
3826.27183	1.14363
3824.34326	1.14522
3822.41470	1.14684
3820.48613	1.14429
3818.55757	1.13729
3816.62901	1.13261
3814.70044	1.13334
3812.77188	1.13362
3810.84331	1.13025
3808.91475	1.12764
3806.98618	1.13180
3805.05762	1.13628
3803.12905	1.13500
3801.20049	1.13484
3799.27193	1.13643
3797.34336	1.13538
3795.41480	1.13634
3793.48623	1.13891
3791.55767	1.13783
3789.62910	1.13468
3787.70054	1.13455
3785.77197	1.13740
3783.84341	1.13740
3781.91485	1.13373
3779.98628	1.13203
3778.05772	1.13184
3776.12915	1.13027
3774.20059	1.12902
3772.27202	1.12799
3770.34346	1.12723
3768.41489	1.12776
3766.48633	1.12913
3764.55777	1.13189
3762.62920	1.13418
3760.70064	1.13359
3758.77207	1.13124
3756.84351	1.12889
3754.91494	1.12367
3752.98638	1.11413
3751.05781	1.11006
3749.12925	1.11549
3747.20069	1.11370
3745.27212	1.11039
3743.34356	1.11662
3741.41499	1.12228
3739.48643	1.12122
3737.55786	1.11518
3735.62930	1.10966
3733.70074	1.11206
3731.77217	1.11807
3729.84361	1.12254
3727.91504	1.12480
3725.98648	1.12526
3724.05791	1.12305
3722.12935	1.11873
3720.20078	1.11708
3718.27222	1.11864
3716.34366	1.11983
3714.41509	1.11906
3712.48653	1.11686
3710.55796	1.11893
3708.62940	1.12436
3706.70083	1.12640
3704.77227	1.12583
3702.84370	1.12540
3700.91514	1.12610
3698.98658	1.12668
3697.05801	1.12674
3695.12945	1.12641
3693.20088	1.12631
3691.27232	1.12850
3689.34375	1.13428
3687.41519	1.13929
3685.48662	1.14159
3683.55806	1.14344
3681.62950	1.14612
3679.70093	1.14674
3677.77237	1.14228
3675.84380	1.14192
3673.91524	1.15107
3671.98667	1.15772
3670.05811	1.16509
3668.12954	1.17423
3666.20098	1.18299
3664.27242	1.19244
3662.34385	1.20032
3660.41529	1.20456
3658.48672	1.20625
3656.55816	1.20958
3654.62959	1.21635
3652.70103	1.22427
3650.77246	1.23398
3648.84390	1.24308
3646.91534	1.25177
3644.98677	1.26062
3643.05821	1.26817
3641.12964	1.27722
3639.20108	1.28707
3637.27251	1.29455
3635.34395	1.30164
3633.41538	1.30774
3631.48682	1.30913
3629.55826	1.31279
3627.62969	1.32812
3625.70113	1.34283
3623.77256	1.35410
3621.84400	1.36297
3619.91543	1.37015
3617.98687	1.38053
3616.05830	1.39222
3614.12974	1.40106
3612.20118	1.40681
3610.27261	1.41141
3608.34405	1.42335
3606.41548	1.44089
3604.48692	1.45011
3602.55835	1.45610
3600.62979	1.47027
3598.70123	1.48735
3596.77266	1.49616
3594.84410	1.50049
3592.91553	1.50511
3590.98697	1.50563
3589.05840	1.50454
3587.12984	1.51364
3585.20127	1.52972
3583.27271	1.54160
3581.34415	1.55131
3579.41558	1.56078
3577.48702	1.56802
3575.55845	1.57568
3573.62989	1.58487
3571.70132	1.58707
3569.77276	1.57898
3567.84419	1.57709
3565.91563	1.59945
3563.98707	1.62006
3562.05850	1.62958
3560.12994	1.64204
3558.20137	1.65797
3556.27281	1.66769
3554.34424	1.67130
3552.41568	1.67506
3550.48711	1.68129
3548.55855	1.69034
3546.62999	1.70202
3544.70142	1.71308
3542.77286	1.72364
3540.84429	1.73774
3538.91573	1.75124
3536.98716	1.75377
3535.05860	1.74881
3533.13003	1.75166
3531.20147	1.76220
3529.27291	1.76792
3527.34434	1.77092
3525.41578	1.78520
3523.48721	1.80452
3521.55865	1.81156
3519.63008	1.81337
3517.70152	1.81807
3515.77295	1.81893
3513.84439	1.82279
3511.91583	1.83216
3509.98726	1.83855
3508.05870	1.84761
3506.13013	1.85501
3504.20157	1.85067
3502.27300	1.84626
3500.34444	1.85520
3498.41587	1.87175
3496.48731	1.87905
3494.55875	1.87105
3492.63018	1.86201
3490.70162	1.85984
3488.77305	1.86600
3486.84449	1.88478
3484.91592	1.91302
3482.98736	1.94250
3481.05879	1.95766
3479.13023	1.94794
3477.20167	1.92647
3475.27310	1.90660
3473.34454	1.89783
3471.41597	1.90402
3469.48741	1.91935
3467.55884	1.93253
3465.63028	1.93805
3463.70171	1.94057
3461.77315	1.93868
3459.84459	1.93856
3457.91602	1.94899
3455.98746	1.95662
3454.05889	1.94883
3452.13033	1.93358
3450.20176	1.92828
3448.27320	1.93776
3446.34464	1.94253
3444.41607	1.93284
3442.48751	1.92625
3440.55894	1.93207
3438.63038	1.94429
3436.70181	1.95599
3434.77325	1.96452
3432.84468	1.97333
3430.91612	1.98206
3428.98756	1.98558
3427.05899	1.98586
3425.13043	1.98265
3423.20186	1.97238
3421.27330	1.96173
3419.34473	1.96337
3417.41617	1.97474
3415.48760	1.98150
3413.55904	1.98079
3411.63048	1.97455
3409.70191	1.96256
3407.77335	1.95999
3405.84478	1.97749
3403.91622	1.99754
3401.98765	2.00374
3400.05909	1.99887
3398.13052	1.99457
3396.20196	2.00236
3394.27340	2.01137
3392.34483	2.00916
3390.41627	2.00380
3388.48770	1.99238
3386.55914	1.96882
3384.63057	1.95301
3382.70201	1.96031
3380.77344	1.96904
3378.84488	1.96546
3376.91632	1.97049
3374.98775	1.98523
3373.05919	1.98776
3371.13062	1.97604
3369.20206	1.96596
3367.27349	1.96793
3365.34493	1.97933
3363.41636	1.99288
3361.48780	2.00518
3359.55924	2.01476
3357.63067	2.01837
3355.70211	2.01377
3353.77354	2.00684
3351.84498	2.00673
3349.91641	2.01512
3347.98785	2.02215
3346.05928	2.01769
3344.13072	2.01127
3342.20216	2.01665
3340.27359	2.02280
3338.34503	2.01305
3336.41646	2.00179
3334.48790	2.00459
3332.55933	2.00523
3330.63077	1.99832
3328.70220	2.00324
3326.77364	2.02057
3324.84508	2.03527
3322.91651	2.04129
3320.98795	2.04231
3319.05938	2.04343
3317.13082	2.04436
3315.20225	2.04363
3313.27369	2.03904
3311.34513	2.03228
3309.41656	2.02547
3307.48800	2.01394
3305.55943	2.00582
3303.63087	2.01224
3301.70230	2.02134
3299.77374	2.01818
3297.84517	2.01137
3295.91661	2.01321
3293.98805	2.01493
3292.05948	2.00367
3290.13092	1.99088
3288.20235	1.99000
3286.27379	1.98712
3284.34522	1.97652
3282.41666	1.97942
3280.48809	1.99813
3278.55953	2.01424
3276.63097	2.02325
3274.70240	2.02613
3272.77384	2.01775
3270.84527	2.00866
3268.91671	2.01605
3266.98814	2.03259
3265.05958	2.03616
3263.13101	2.01815
3261.20245	1.98597
3259.27389	1.95757
3257.34532	1.95114
3255.41676	1.96054
3253.48819	1.95834
3251.55963	1.94560
3249.63106	1.94396
3247.70250	1.94896
3245.77393	1.94968
3243.84537	1.94835
3241.91681	1.94288
3239.98824	1.93719
3238.05968	1.94393
3236.13111	1.95084
3234.20255	1.93984
3232.27398	1.93109
3230.34542	1.93881
3228.41685	1.94556
3226.48829	1.94185
3224.55973	1.93184
3222.63116	1.92039
3220.70260	1.91543
3218.77403	1.91396
3216.84547	1.90571
3214.91690	1.89641
3212.98834	1.89775
3211.05977	1.90618
3209.13121	1.90316
3207.20265	1.88466
3205.27408	1.87244
3203.34552	1.87382
3201.41695	1.87460
3199.48839	1.86768
3197.55982	1.85667
3195.63126	1.84621
3193.70269	1.84344
3191.77413	1.85154
3189.84557	1.85681
3187.91700	1.85058
3185.98844	1.84467
3184.05987	1.84434
3182.13131	1.84687
3180.20274	1.84887
3178.27418	1.84580
3176.34562	1.83931
3174.41705	1.83215
3172.48849	1.82600
3170.55992	1.82370
3168.63136	1.82280
3166.70279	1.81644
3164.77423	1.80777
3162.84566	1.80576
3160.91710	1.80549
3158.98854	1.80292
3157.05997	1.80391
3155.13141	1.80390
3153.20284	1.79738
3151.27428	1.79071
3149.34571	1.78735
3147.41715	1.78494
3145.48858	1.78164
3143.56002	1.77600
3141.63146	1.77108
3139.70289	1.77444
3137.77433	1.78366
3135.84576	1.78569
3133.91720	1.77776
3131.98863	1.77036
3130.06007	1.76925
3128.13150	1.77006
3126.20294	1.76802
3124.27438	1.76150
3122.34581	1.75021
3120.41725	1.73865
3118.48868	1.73371
3116.56012	1.73985
3114.63155	1.75343
3112.70299	1.76272
3110.77442	1.76315
3108.84586	1.75815
3106.91730	1.75169
3104.98873	1.74795
3103.06017	1.74724
3101.13160	1.74800
3099.20304	1.75114
3097.27447	1.75487
3095.34591	1.75421
3093.41734	1.75206
3091.48878	1.75487
3089.56022	1.75907
3087.63165	1.75655
3085.70309	1.74550
3083.77452	1.73167
3081.84596	1.72119
3079.91739	1.71845
3077.98883	1.72485
3076.06026	1.73125
3074.13170	1.72846
3072.20314	1.71987
3070.27457	1.71203
3068.34601	1.70758
3066.41744	1.70720
3064.48888	1.70843
3062.56031	1.70449
3060.63175	1.69550
3058.70318	1.68958
3056.77462	1.68812
3054.84606	1.68688
3052.91749	1.68328
3050.98893	1.67553
3049.06036	1.66467
3047.13180	1.65642
3045.20323	1.65392
3043.27467	1.65260
3041.34610	1.65097
3039.41754	1.65255
3037.48898	1.65246
3035.56041	1.64668
3033.63185	1.64112
3031.70328	1.63658
3029.77472	1.62929
3027.84615	1.62157
3025.91759	1.61793
3023.98903	1.61835
3022.06046	1.61701
3020.13190	1.61102
3018.20333	1.60334
3016.27477	1.59712
3014.34620	1.59642
3012.41764	1.60101
3010.48907	1.60240
3008.56051	1.59587
3006.63195	1.58625
3004.70338	1.58039
3002.77482	1.57947
3000.84625	1.57936
2998.91769	1.58182
2996.98912	1.59128
2995.06056	1.60152
2993.13199	1.60462
2991.20343	1.60333
2989.27487	1.60244
2987.34630	1.60258
2985.41774	1.60585
2983.48917	1.61480
2981.56061	1.62523
2979.63204	1.63199
2977.70348	1.63804
2975.77491	1.64771
2973.84635	1.65905
2971.91779	1.66833
2969.98922	1.67601
2968.06066	1.68376
2966.13209	1.68939
2964.20353	1.69110
2962.27496	1.69186
2960.34640	1.69313
2958.41783	1.69269
2956.48927	1.69016
2954.56071	1.68574
2952.63214	1.67808
2950.70358	1.66879
2948.77501	1.66355
2946.84645	1.66317
2944.91788	1.66459
2942.98932	1.67122
2941.06075	1.68428
2939.13219	1.69767
2937.20363	1.70916
2935.27506	1.71890
2933.34650	1.72569
2931.41793	1.73315
2929.48937	1.74387
2927.56080	1.75024
2925.63224	1.74769
2923.70367	1.74382
2921.77511	1.74435
2919.84655	1.74561
2917.91798	1.74251
2915.98942	1.73282
2914.06085	1.71392
2912.13229	1.69035
2910.20372	1.67028
2908.27516	1.65363
2906.34659	1.64014
2904.41803	1.63061
2902.48947	1.62282
2900.56090	1.61707
2898.63234	1.61364
2896.70377	1.60853
2894.77521	1.60054
2892.84664	1.59390
2890.91808	1.58995
2888.98952	1.58618
2887.06095	1.58197
2885.13239	1.57904
2883.20382	1.57804
2881.27526	1.57800
2879.34669	1.57780
2877.41813	1.57591
2875.48956	1.57203
2873.56100	1.56786
2871.63244	1.56319
2869.70387	1.55515
2867.77531	1.54451
2865.84674	1.53638
2863.91818	1.53330
2861.98961	1.53398
2860.06105	1.53655
2858.13248	1.54233
2856.20392	1.55283
2854.27536	1.56394
2852.34679	1.57204
2850.41823	1.57345
2848.48966	1.55844
2846.56110	1.52667
2844.63253	1.49323
2842.70397	1.46669
2840.77540	1.44359
2838.84684	1.42348
2836.91828	1.41094
2834.98971	1.40524
2833.06115	1.39966
2831.13258	1.39158
2829.20402	1.38390
2827.27545	1.37752
2825.34689	1.37187
2823.41832	1.36718
2821.48976	1.36302
2819.56120	1.35925
2817.63263	1.35645
2815.70407	1.35391
2813.77550	1.35024
2811.84694	1.34664
2809.91837	1.34450
2807.98981	1.34163
2806.06124	1.33713
2804.13268	1.33315
2802.20412	1.32929
2800.27555	1.32480
2798.34699	1.32233
2796.41842	1.32216
2794.48986	1.32112
2792.56129	1.31857
2790.63273	1.31614
2788.70416	1.31350
2786.77560	1.30926
2784.84704	1.30483
2782.91847	1.30211
2780.98991	1.29921
2779.06134	1.29338
2777.13278	1.28690
2775.20421	1.28437
2773.27565	1.28524
2771.34708	1.28500
2769.41852	1.28259
2767.48996	1.28057
2765.56139	1.27890
2763.63283	1.27609
2761.70426	1.27360
2759.77570	1.27216
2757.84713	1.27045
2755.91857	1.26796
2753.99001	1.26485
2752.06144	1.26226
2750.13288	1.26076
2748.20431	1.25860
2746.27575	1.25461
2744.34718	1.25039
2742.41862	1.24739
2740.49005	1.24447
2738.56149	1.24116
2736.63293	1.23795
2734.70436	1.23420
2732.77580	1.23064
2730.84723	1.22755
2728.91867	1.22387
2726.99010	1.22081
2725.06154	1.21873
2723.13297	1.21598
2721.20441	1.21328
2719.27585	1.21172
2717.34728	1.20971
2715.41872	1.20635
2713.49015	1.20334
2711.56159	1.20226
2709.63302	1.20265
2707.70446	1.20208
2705.77589	1.19928
2703.84733	1.19635
2701.91877	1.19544
2699.99020	1.19633
2698.06164	1.19719
2696.13307	1.19642
2694.20451	1.19436
2692.27594	1.19219
2690.34738	1.18979
2688.41881	1.18715
2686.49025	1.18518
2684.56169	1.18366
2682.63312	1.18156
2680.70456	1.17872
2678.77599	1.17551
2676.84743	1.17213
2674.91886	1.16938
2672.99030	1.16748
2671.06173	1.16531
2669.13317	1.16324
2667.20461	1.16200
2665.27604	1.16068
2663.34748	1.15894
2661.41891	1.15719
2659.49035	1.15576
2657.56178	1.15508
2655.63322	1.15536
2653.70465	1.15536
2651.77609	1.15372
2649.84753	1.15163
2647.91896	1.15045
2645.99040	1.15013
2644.06183	1.15035
2642.13327	1.14998
2640.20470	1.14890
2638.27614	1.14808
2636.34757	1.14657
2634.41901	1.14358
2632.49045	1.14097
2630.56188	1.13964
2628.63332	1.13789
2626.70475	1.13493
2624.77619	1.13195
2622.84762	1.12982
2620.91906	1.12791
2618.99049	1.12590
2617.06193	1.12422
2615.13337	1.12255
2613.20480	1.12123
2611.27624	1.12026
2609.34767	1.11778
2607.41911	1.11446
2605.49054	1.11286
2603.56198	1.11241
2601.63342	1.11103
2599.70485	1.10862
2597.77629	1.10642
2595.84772	1.10476
2593.91916	1.10295
2591.99059	1.10147
2590.06203	1.10085
2588.13346	1.09988
2586.20490	1.09777
2584.27634	1.09560
2582.34777	1.09400
2580.41921	1.09221
2578.49064	1.08998
2576.56208	1.08799
2574.63351	1.08558
2572.70495	1.08209
2570.77638	1.07917
2568.84782	1.07746
2566.91926	1.07586
2564.99069	1.07456
2563.06213	1.07324
2561.13356	1.07050
2559.20500	1.06747
2557.27643	1.06574
2555.34787	1.06436
2553.41930	1.06248
2551.49074	1.06088
2549.56218	1.06049
2547.63361	1.06089
2545.70505	1.06015
2543.77648	1.05803
2541.84792	1.05628
2539.91935	1.05527
2537.99079	1.05421
2536.06222	1.05290
2534.13366	1.05144
2532.20510	1.04954
2530.27653	1.04744
2528.34797	1.04615
2526.41940	1.04591
2524.49084	1.04590
2522.56227	1.04548
2520.63371	1.04442
2518.70514	1.04221
2516.77658	1.03898
2514.84802	1.03617
2512.91945	1.03428
2510.99089	1.03241
2509.06232	1.03031
2507.13376	1.02813
2505.20519	1.02584
2503.27663	1.02388
2501.34806	1.02261
2499.41950	1.02177
2497.49094	1.02088
2495.56237	1.01972
2493.63381	1.01841
2491.70524	1.01663
2489.77668	1.01448
2487.84811	1.01322
2485.91955	1.01313
2483.99098	1.01309
2482.06242	1.01217
2480.13386	1.01069
2478.20529	1.00956
2476.27673	1.00863
2474.34816	1.00750
2472.41960	1.00634
2470.49103	1.00525
2468.56247	1.00423
2466.63391	1.00285
2464.70534	1.00111
2462.77678	0.99988
2460.84821	0.99897
2458.91965	0.99736
2456.99108	0.99545
2455.06252	0.99411
2453.13395	0.99274
2451.20539	0.99084
2449.27683	0.98890
2447.34826	0.98685
2445.41970	0.98511
2443.49113	0.98434
2441.56257	0.98346
2439.63400	0.98181
2437.70544	0.98046
2435.77687	0.97965
2433.84831	0.97826
2431.91975	0.97628
2429.99118	0.97464
2428.06262	0.97315
2426.13405	0.97180
2424.20549	0.97115
2422.27692	0.97033
2420.34836	0.96846
2418.41979	0.96685
2416.49123	0.96623
2414.56267	0.96489
2412.63410	0.96201
2410.70554	0.95933
2408.77697	0.95808
2406.84841	0.95726
2404.91984	0.95577
2402.99128	0.95402
2401.06271	0.95235
2399.13415	0.95064
2397.20559	0.94901
2395.27702	0.94751
2393.34846	0.94597
2391.41989	0.94427
2389.49133	0.94268
2387.56276	0.94164
2385.63420	0.94104
2383.70563	0.94056
2381.77707	0.94027
2379.84851	0.94071
2377.91994	0.94238
2375.99138	0.94423
2374.06281	0.94501
2372.13425	0.94563
2370.20568	0.94674
2368.27712	0.94548
2366.34855	0.93799
2364.41999	0.93072
2362.49143	0.93236
2360.56286	0.93215
2358.63430	0.92482
2356.70573	0.92298
2354.77717	0.92752
2352.84860	0.93104
2350.92004	0.93051
2348.99147	0.92768
2347.06291	0.92578
2345.13435	0.92728
2343.20578	0.92919
2341.27722	0.92730
2339.34865	0.92579
2337.42009	0.92812
2335.49152	0.93050
2333.56296	0.92769
2331.63440	0.92270
2329.70583	0.92089
2327.77727	0.92113
2325.84870	0.92065
2323.92014	0.91864
2321.99157	0.91636
2320.06301	0.91554
2318.13444	0.91495
2316.20588	0.91290
2314.27732	0.91060
2312.34875	0.90993
2310.42019	0.91009
2308.49162	0.90907
2306.56306	0.90697
2304.63449	0.90488
2302.70593	0.90310
2300.77736	0.90178
2298.84880	0.90093
2296.92024	0.89999
2294.99167	0.89857
2293.06311	0.89689
2291.13454	0.89561
2289.20598	0.89486
2287.27741	0.89405
2285.34885	0.89303
2283.42028	0.89218
2281.49172	0.89158
2279.56316	0.89100
2277.63459	0.89028
2275.70603	0.88952
2273.77746	0.88911
2271.84890	0.88939
2269.92033	0.88978
2267.99177	0.88946
2266.06320	0.88863
2264.13464	0.88784
2262.20608	0.88746
2260.27751	0.88750
2258.34895	0.88743
2256.42038	0.88680
2254.49182	0.88561
2252.56325	0.88444
2250.63469	0.88386
2248.70612	0.88352
2246.77756	0.88277
2244.84900	0.88157
2242.92043	0.88018
2240.99187	0.87863
2239.06330	0.87717
2237.13474	0.87609
2235.20617	0.87520
2233.27761	0.87442
2231.34904	0.87392
2229.42048	0.87342
2227.49192	0.87251
2225.56335	0.87156
2223.63479	0.87110
2221.70622	0.87100
2219.77766	0.87101
2217.84909	0.87069
2215.92053	0.87010
2213.99196	0.87013
2212.06340	0.87041
2210.13484	0.86987
2208.20627	0.86860
2206.27771	0.86715
2204.34914	0.86568
2202.42058	0.86405
2200.49201	0.86238
2198.56345	0.86093
2196.63488	0.85963
2194.70632	0.85860
2192.77776	0.85796
2190.84919	0.85720
2188.92063	0.85614
2186.99206	0.85514
2185.06350	0.85444
2183.13493	0.85408
2181.20637	0.85367
2179.27781	0.85308
2177.34924	0.85263
2175.42068	0.85211
2173.49211	0.85156
2171.56355	0.85152
2169.63498	0.85159
2167.70642	0.85129
2165.77785	0.85123
2163.84929	0.85159
2161.92073	0.85158
2159.99216	0.85081
2158.06360	0.84968
2156.13503	0.84861
2154.20647	0.84736
2152.27790	0.84569
2150.34934	0.84404
2148.42077	0.84276
2146.49221	0.84168
2144.56365	0.84046
2142.63508	0.83875
2140.70652	0.83701
2138.77795	0.83581
2136.84939	0.83478
2134.92082	0.83369
2132.99226	0.83275
2131.06369	0.83187
2129.13513	0.83086
2127.20657	0.82976
2125.27800	0.82893
2123.34944	0.82848
2121.42087	0.82807
2119.49231	0.82777
2117.56374	0.82779
2115.63518	0.82753
2113.70661	0.82660
2111.77805	0.82556
2109.84949	0.82510
2107.92092	0.82498
2105.99236	0.82453
2104.06379	0.82380
2102.13523	0.82294
2100.20666	0.82179
2098.27810	0.82053
2096.34953	0.81931
2094.42097	0.81798
2092.49241	0.81651
2090.56384	0.81490
2088.63528	0.81344
2086.70671	0.81232
2084.77815	0.81127
2082.84958	0.81002
2080.92102	0.80858
2078.99245	0.80696
2077.06389	0.80536
2075.13533	0.80402
2073.20676	0.80300
2071.27820	0.80213
2069.34963	0.80120
2067.42107	0.80025
2065.49250	0.79949
2063.56394	0.79882
2061.63537	0.79780
2059.70681	0.79630
2057.77825	0.79475
2055.84968	0.79336
2053.92112	0.79186
2051.99255	0.79020
2050.06399	0.78854
2048.13542	0.78648
2046.20686	0.78384
2044.27830	0.78137
2042.34973	0.77965
2040.42117	0.77831
2038.49260	0.77655
2036.56404	0.77417
2034.63547	0.77171
2032.70691	0.76969
2030.77834	0.76804
2028.84978	0.76641
2026.92122	0.76463
2024.99265	0.76273
2023.06409	0.76075
2021.13552	0.75877
2019.20696	0.75683
2017.27839	0.75492
2015.34983	0.75321
2013.42126	0.75181
2011.49270	0.75070
2009.56414	0.74979
2007.63557	0.74899
2005.70701	0.74833
2003.77844	0.74785
2001.84988	0.74727
1999.92131	0.74643
1997.99275	0.74560
1996.06418	0.74496
1994.13562	0.74436
1992.20706	0.74360
1990.27849	0.74294
1988.34993	0.74259
1986.42136	0.74236
1984.49280	0.74215
1982.56423	0.74201
1980.63567	0.74168
1978.70710	0.74089
1976.77854	0.73970
1974.84998	0.73848
1972.92141	0.73744
1970.99285	0.73630
1969.06428	0.73485
1967.13572	0.73341
1965.20715	0.73215
1963.27859	0.73084
1961.35002	0.72934
1959.42146	0.72756
1957.49290	0.72565
1955.56433	0.72386
1953.63577	0.72222
1951.70720	0.72045
1949.77864	0.71845
1947.85007	0.71638
1945.92151	0.71438
1943.99294	0.71269
1942.06438	0.71125
1940.13582	0.70960
1938.20725	0.70789
1936.27869	0.70637
1934.35012	0.70506
1932.42156	0.70410
1930.49299	0.70336
1928.56443	0.70258
1926.63586	0.70184
1924.70730	0.70139
1922.77874	0.70114
1920.85017	0.70078
1918.92161	0.70053
1916.99304	0.70017
1915.06448	0.69907
1913.13591	0.69765
1911.20735	0.69653
1909.27878	0.69584
1907.35022	0.69524
1905.42166	0.69438
1903.49309	0.69343
1901.56453	0.69235
1899.63596	0.69086
1897.70740	0.68932
1895.77883	0.68830
1893.85027	0.68750
1891.92171	0.68641
1889.99314	0.68536
1888.06458	0.68433
1886.13601	0.68317
1884.20745	0.68224
1882.27888	0.68154
1880.35032	0.68050
1878.42175	0.67891
1876.49319	0.67734
1874.56463	0.67615
1872.63606	0.67501
1870.70750	0.67371
1868.77893	0.67246
1866.85037	0.67106
1864.92180	0.66937
1862.99324	0.66770
1861.06467	0.66605
1859.13611	0.66441
1857.20755	0.66288
1855.27898	0.66131
1853.35042	0.65938
1851.42185	0.65713
1849.49329	0.65509
1847.56472	0.65336
1845.63616	0.65205
1843.70759	0.65148
1841.77903	0.65093
1839.85047	0.64997
1837.92190	0.64899
1835.99334	0.64816
1834.06477	0.64733
1832.13621	0.64658
1830.20764	0.64663
1828.27908	0.64721
1826.35051	0.64741
1824.42195	0.64785
1822.49339	0.64845
1820.56482	0.64867
1818.63626	0.64869
1816.70769	0.64870
1814.77913	0.64874
1812.85056	0.64890
1810.92200	0.64919
1808.99343	0.64921
1807.06487	0.64896
1805.13631	0.64875
1803.20774	0.64861
1801.27918	0.64876
1799.35061	0.64892
1797.42205	0.64848
1795.49348	0.64776
1793.56492	0.64769
1791.63635	0.64876
1789.70779	0.64916
1787.77923	0.64888
1785.85066	0.64908
1783.92210	0.64958
1781.99353	0.64992
1780.06497	0.65045
1778.13640	0.65088
1776.20784	0.65072
1774.27927	0.65085
1772.35071	0.65291
1770.42215	0.65554
1768.49358	0.65696
1766.56502	0.65780
1764.63645	0.65850
1762.70789	0.66049
1760.77932	0.66417
1758.85076	0.66783
1756.92220	0.67244
1754.99363	0.67724
1753.06507	0.68153
1751.13650	0.68878
1749.20794	0.70030
1747.27937	0.71135
1745.35081	0.72103
1743.42224	0.73037
1741.49368	0.73951
1739.56512	0.74861
1737.63655	0.75507
1735.70799	0.76055
1733.77942	0.77229
1731.85086	0.78414
1729.92229	0.79159
1727.99373	0.79868
1726.06516	0.80603
1724.13660	0.81546
1722.20804	0.82541
1720.27947	0.83384
1718.35091	0.84664
1716.42234	0.87078
1714.49378	0.89215
1712.56521	0.90777
1710.63665	0.92359
1708.70808	0.94237
1706.77952	0.97139
1704.85096	1.01189
1702.92239	1.04882
1700.99383	1.09814
1699.06526	1.17876
1697.13670	1.25798
1695.20813	1.33666
1693.27957	1.39333
1691.35100	1.43557
1689.42244	1.48630
1687.49388	1.53040
1685.56531	1.56913
1683.63675	1.63534
1681.70818	1.68975
1679.77962	1.71753
1677.85105	1.73920
1675.92249	1.76654
1673.99392	1.79586
1672.06536	1.81445
1670.13680	1.83016
1668.20823	1.84620
1666.27967	1.85124
1664.35110	1.85482
1662.42254	1.86015
1660.49397	1.85943
1658.56541	1.85811
1656.63684	1.85788
1654.70828	1.85849
1652.77972	1.85494
1650.85115	1.84591
1648.92259	1.83774
1646.99402	1.83660
1645.06546	1.84306
1643.13689	1.83978
1641.20833	1.83184
1639.27976	1.82361
1637.35120	1.81653
1635.42264	1.81825
1633.49407	1.82341
1631.56551	1.82139
1629.63694	1.81351
1627.70838	1.80769
1625.77981	1.80288
1623.85125	1.79019
1621.92269	1.77532
1619.99412	1.76543
1618.06556	1.75747
1616.13699	1.74680
1614.20843	1.73084
1612.27986	1.71030
1610.35130	1.68782
1608.42273	1.66885
1606.49417	1.65551
1604.56561	1.64266
1602.63704	1.62865
1600.70848	1.61873
1598.77991	1.61335
1596.85135	1.61040
1594.92278	1.60986
1592.99422	1.61211
1591.06565	1.61656
1589.13709	1.62043
1587.20853	1.62441
1585.27996	1.63135
1583.35140	1.64172
1581.42283	1.65334
1579.49427	1.66337
1577.56570	1.67607
1575.63714	1.69711
1573.70857	1.71075
1571.78001	1.71650
1569.85145	1.72484
1567.92288	1.73617
1565.99432	1.74753
1564.06575	1.75905
1562.13719	1.76549
1560.20862	1.76974
1558.28006	1.78841
1556.35149	1.80375
1554.42293	1.80528
1552.49437	1.79799
1550.56580	1.78957
1548.63724	1.78403
1546.70867	1.77789
1544.78011	1.76727
1542.85154	1.75408
1540.92298	1.74918
1538.99441	1.75336
1537.06585	1.75343
1535.13729	1.75271
1533.20872	1.75177
1531.28016	1.74322
1529.35159	1.72991
1527.42303	1.71754
1525.49446	1.71004
1523.56590	1.70926
1521.63733	1.71131
1519.70877	1.70827
1517.78021	1.69813
1515.85164	1.68327
1513.92308	1.66765
1511.99451	1.65291
1510.06595	1.64048
1508.13738	1.62452
1506.20882	1.59077
1504.28025	1.56556
1502.35169	1.54764
1500.42313	1.52975
1498.49456	1.50872
1496.56600	1.48099
1494.63743	1.45532
1492.70887	1.43535
1490.78030	1.41281
1488.85174	1.38504
1486.92317	1.36428
1484.99461	1.35155
1483.06605	1.34269
1481.13748	1.33606
1479.20892	1.33293
1477.28035	1.33565
1475.35179	1.34511
1473.42322	1.36537
1471.49466	1.39196
1469.56610	1.40741
1467.63753	1.41547
1465.70897	1.42333
1463.78040	1.43218
1461.85184	1.43804
1459.92327	1.44189
1457.99471	1.45068
1456.06614	1.46069
1454.13758	1.46032
1452.20902	1.45713
1450.28045	1.45374
1448.35189	1.45036
1446.42332	1.44621
1444.49476	1.44019
1442.56619	1.43263
1440.63763	1.42410
1438.70906	1.41264
1436.78050	1.39573
1434.85194	1.38012
1432.92337	1.36858
1430.99481	1.35650
1429.06624	1.34591
1427.13768	1.34027
1425.20911	1.33840
1423.28055	1.33946
1421.35198	1.34299
1419.42342	1.35027
1417.49486	1.35868
1415.56629	1.36270
1413.63773	1.36579
1411.70916	1.37044
1409.78060	1.37481
1407.85203	1.37723
1405.92347	1.38036
1403.99490	1.38537
1402.06634	1.38853
1400.13778	1.38909
1398.20921	1.38873
1396.28065	1.38806
1394.35208	1.38720
1392.42352	1.38711
1390.49495	1.38744
1388.56639	1.38910
1386.63782	1.39492
1384.70926	1.40241
1382.78070	1.40762
1380.85213	1.41030
1378.92357	1.41009
1376.99500	1.40508
1375.06644	1.39332
1373.13787	1.37632
1371.20931	1.35923
1369.28074	1.34152
1367.35218	1.32216
1365.42362	1.30405
1363.49505	1.28792
1361.56649	1.27557
1359.63792	1.26836
1357.70936	1.26377
1355.78079	1.26071
1353.85223	1.25878
1351.92366	1.25667
1349.99510	1.25454
1348.06654	1.25362
1346.13797	1.25310
1344.20941	1.25208
1342.28084	1.25117
1340.35228	1.25132
1338.42371	1.25253
1336.49515	1.25369
1334.56659	1.25574
1332.63802	1.26011
1330.70946	1.26602
1328.78089	1.27153
1326.85233	1.27524
1324.92376	1.27728
1322.99520	1.27941
1321.06663	1.28280
1319.13807	1.28703
1317.20951	1.29025
1315.28094	1.29188
1313.35238	1.29446
1311.42381	1.29870
1309.49525	1.30169
1307.56668	1.30252
1305.63812	1.30313
1303.70955	1.30430
1301.78099	1.30486
1299.85243	1.30328
1297.92386	1.29889
1295.99530	1.29305
1294.06673	1.28764
1292.13817	1.28315
1290.20960	1.28005
1288.28104	1.27825
1286.35247	1.27591
1284.42391	1.27268
1282.49535	1.26999
1280.56678	1.26733
1278.63822	1.26452
1276.70965	1.26345
1274.78109	1.26508
1272.85252	1.26863
1270.92396	1.27319
1268.99539	1.27884
1267.06683	1.28571
1265.13827	1.29257
1263.20970	1.29801
1261.28114	1.30163
1259.35257	1.30447
1257.42401	1.30753
1255.49544	1.31079
1253.56688	1.31416
1251.63831	1.31740
1249.70975	1.32032
1247.78119	1.32310
1245.85262	1.32537
1243.92406	1.32609
1241.99549	1.32511
1240.06693	1.32296
1238.13836	1.31954
1236.20980	1.31539
1234.28123	1.31052
1232.35267	1.30227
1230.42411	1.29024
1228.49554	1.27707
1226.56698	1.26340
1224.63841	1.24934
1222.70985	1.23621
1220.78128	1.22395
1218.85272	1.21214
1216.92415	1.20228
1214.99559	1.19581
1213.06703	1.19243
1211.13846	1.19139
1209.20990	1.19241
1207.28133	1.19448
1205.35277	1.19536
1203.42420	1.19304
1201.49564	1.18678
1199.56708	1.17757
1197.63851	1.16796
1195.70995	1.15954
1193.78138	1.15233
1191.85282	1.14658
1189.92425	1.14250
1187.99569	1.13929
1186.06712	1.13563
1184.13856	1.13218
1182.21000	1.13137
1180.28143	1.13374
1178.35287	1.13808
1176.42430	1.14377
1174.49574	1.15016
1172.56717	1.15663
1170.63861	1.16386
1168.71004	1.17324
1166.78148	1.18609
1164.85292	1.20259
1162.92435	1.22001
1160.99579	1.23370
1159.06722	1.24011
1157.13866	1.23826
1155.21009	1.22873
1153.28153	1.21298
1151.35296	1.19350
1149.42440	1.17263
1147.49584	1.15210
1145.56727	1.13433
1143.63871	1.12200
1141.71014	1.11567
1139.78158	1.11370
1137.85301	1.11525
1135.92445	1.12028
1133.99588	1.12792
1132.06732	1.13789
1130.13876	1.15145
1128.21019	1.16869
1126.28163	1.18683
1124.35306	1.20308
1122.42450	1.21734
1120.49593	1.22991
1118.56737	1.23956
1116.63880	1.24520
1114.71024	1.24618
1112.78168	1.24233
1110.85311	1.23445
1108.92455	1.22438
1106.99598	1.21463
1105.06742	1.20683
1103.13885	1.20069
1101.21029	1.19571
1099.28172	1.19339
1097.35316	1.19560
1095.42460	1.20139
1093.49603	1.21059
1091.56747	1.22590
1089.63890	1.24663
1087.71034	1.26954
1085.78177	1.29475
1083.85321	1.32174
1081.92464	1.34613
1079.99608	1.36394
1078.06752	1.37308
1076.13895	1.37393
1074.21039	1.36836
1072.28182	1.35761
1070.35326	1.34286
1068.42469	1.32509
1066.49613	1.30662
1064.56756	1.29005
1062.63900	1.27447
1060.71044	1.25829
1058.78187	1.24165
1056.85331	1.22506
1054.92474	1.20925
1052.99618	1.19497
1051.06761	1.18400
1049.13905	1.17796
1047.21049	1.17541
1045.28192	1.17610
1043.35336	1.18200
1041.42479	1.19110
1039.49623	1.19922
1037.56766	1.20511
1035.63910	1.20854
1033.71053	1.21021
1031.78197	1.21120
1029.85341	1.20979
1027.92484	1.20388
1025.99628	1.19449
1024.06771	1.18445
1022.13915	1.17615
1020.21058	1.17021
1018.28202	1.16578
1016.35345	1.16075
1014.42489	1.15272
1012.49633	1.14043
1010.56776	1.12330
1008.63920	1.10250
1006.71063	1.08107
1004.78207	1.06041
1002.85350	1.04064
1000.92494	1.02338
998.99637	1.00990
997.06781	0.99883
995.13925	0.98831
993.21068	0.97701
991.28212	0.96400
989.35355	0.95048
987.42499	0.93829
985.49642	0.92761
983.56786	0.91862
981.63929	0.91238
979.71073	0.90943
977.78217	0.90843
975.85360	0.90686
973.92504	0.90328
971.99647	0.89733
970.06791	0.88930
968.13934	0.88054
966.21078	0.87255
964.28221	0.86664
962.35365	0.86466
960.42509	0.86869
958.49652	0.87828
956.56796	0.88814
954.63939	0.89151
952.71083	0.88573
950.78226	0.87297
948.85370	0.85692
946.92513	0.84064
944.99657	0.82612
943.06801	0.81406
941.13944	0.80439
939.21088	0.79681
937.28231	0.79080
935.35375	0.78592
933.42518	0.78246
931.49662	0.78065
929.56805	0.78053
927.63949	0.78287
925.71093	0.78788
923.78236	0.79433
921.85380	0.80107
919.92523	0.80744
917.99667	0.81298
916.06810	0.81838
914.13954	0.82465
912.21098	0.83172
910.28241	0.83928
908.35385	0.84778
906.42528	0.85780
904.49672	0.86840
902.56815	0.87726
900.63959	0.88296
898.71102	0.88562
896.78246	0.88577
894.85390	0.88347
892.92533	0.87868
890.99677	0.87175
889.06820	0.86361
887.13964	0.85558
885.21107	0.84849
883.28251	0.84280
881.35394	0.83915
879.42538	0.83746
877.49682	0.83680
875.56825	0.83672
873.63969	0.83733
871.71112	0.83876
869.78256	0.84153
867.85399	0.84611
865.92543	0.85196
863.99686	0.85843
862.06830	0.86580
860.13974	0.87416
858.21117	0.88306
856.28261	0.89254
854.35404	0.90281
852.42548	0.91287
850.49691	0.92095
848.56835	0.92613
846.63978	0.92885
844.71122	0.93058
842.78266	0.93254
840.85409	0.93446
838.92553	0.93550
836.99696	0.93562
835.06840	0.93537
833.13983	0.93535
831.21127	0.93587
829.28270	0.93702
827.35414	0.93866
825.42558	0.94031
823.49701	0.94226
821.56845	0.94622
819.63988	0.95313
817.71132	0.96168
815.78275	0.97075
813.85419	0.98038
811.92562	0.99029
809.99706	1.00024
808.06850	1.00983
806.13993	1.01876
804.21137	1.02746
802.28280	1.03604
800.35424	1.04396
798.42567	1.05005
796.49711	1.05336
794.56854	1.05538
792.63998	1.05824
790.71142	1.06144
788.78285	1.06377
786.85429	1.06510
784.92572	1.06593
782.99716	1.06755
781.06859	1.07038
779.14003	1.07328
777.21147	1.07577
775.28290	1.07875
773.35434	1.08292
771.42577	1.08785
769.49721	1.09404
767.56864	1.10202
765.64008	1.10983
763.71151	1.11700
761.78295	1.12510
759.85439	1.13287
757.92582	1.13878
755.99726	1.14370
754.06869	1.14799
752.14013	1.15210
750.21156	1.15666
748.28300	1.15977
746.35443	1.16094
744.42587	1.16236
742.49731	1.16322
740.56874	1.16256
738.64018	1.16287
736.71161	1.16414
734.78305	1.16416
732.85448	1.16462
730.92592	1.16807
728.99735	1.17329
727.06879	1.17844
725.14023	1.18396
723.21166	1.19107
721.28310	1.19986
719.35453	1.20743
717.42597	1.21164
715.49740	1.21732
713.56884	1.22823
711.64027	1.23936
709.71171	1.24672
707.78315	1.25316
705.85458	1.26100
703.92602	1.26870
701.99745	1.27330
700.06889	1.27586
698.14032	1.27961
696.21176	1.28208
694.28319	1.27988
692.35463	1.27665
690.42607	1.27649
688.49750	1.27705
686.56894	1.27517
684.64037	1.27271
682.71181	1.27182
680.78324	1.27181
678.85468	1.27147
676.92611	1.26971
674.99755	1.26832
673.06899	1.27132
671.14042	1.27752
669.21186	1.28449
667.28329	1.29121
665.35473	1.29497
663.42616	1.29787
661.49760	1.30160
659.56903	1.30476
657.64047	1.30509
655.71191	1.30445
653.78334	1.30552
651.85478	1.30447
649.92621	1.30051
647.99765	1.30100
646.06908	1.30751
644.14052	1.31212
642.21195	1.30988
640.28339	1.30620
638.35483	1.30640
636.42626	1.30665
634.49770	1.30115
632.56913	1.29292
630.64057	1.28942
628.71200	1.29017
626.78344	1.29164
624.85488	1.29469
622.92631	1.29737
620.99775	1.29560
619.06918	1.29327
617.14062	1.29834
615.21205	1.30744
613.28349	1.30897
611.35492	1.30273
609.42636	1.29665
607.49780	1.29230
605.56923	1.28731
603.64067	1.28094
601.71210	1.27196
599.78354	1.26232
