3997.91406	1.02841
3995.98550	1.02884
3994.05693	1.03079
3992.12837	1.02970
3990.19980	1.02641
3988.27124	1.02489
3986.34268	1.02610
3984.41411	1.02848
3982.48555	1.02925
3980.55698	1.02807
3978.62842	1.02674
3976.69985	1.02540
3974.77129	1.02470
3972.84272	1.02617
3970.91416	1.02754
3968.98560	1.02658
3967.05703	1.02594
3965.12847	1.02603
3963.19990	1.02422
3961.27134	1.02070
3959.34277	1.01715
3957.41421	1.01595
3955.48564	1.01812
3953.55708	1.02048
3951.62852	1.02151
3949.69995	1.02177
3947.77139	1.02032
3945.84282	1.01919
3943.91426	1.01996
3941.98569	1.01920
3940.05713	1.01556
3938.12856	1.01155
3936.20000	1.00905
3934.27144	1.00934
3932.34287	1.01157
3930.41431	1.01278
3928.48574	1.01189
3926.55718	1.01075
3924.62861	1.01312
3922.70005	1.01714
3920.77148	1.01600
3918.84292	1.01176
3916.91436	1.01045
3914.98579	1.00973
3913.05723	1.00740
3911.12866	1.00512
3909.20010	1.00310
3907.27153	1.00218
3905.34297	1.00422
3903.41440	1.00653
3901.48584	1.00495
3899.55728	1.00339
3897.62871	1.00286
3895.70015	1.00028
3893.77158	0.99682
3891.84302	0.99638
3889.91445	0.99769
3887.98589	0.99828
3886.05733	0.99893
3884.12876	0.99595
3882.20020	0.99220
3880.27163	0.99555
3878.34307	0.99983
3876.41450	0.99963
3874.48594	0.99687
3872.55737	0.99244
3870.62881	0.99000
3868.70025	0.98984
3866.77168	0.98802
3864.84312	0.98720
3862.91455	0.98935
3860.98599	0.98846
3859.05742	0.98293
3857.12886	0.97608
3855.20029	0.97365
3853.27173	0.98523
3851.34317	0.99401
3849.41460	0.99265
3847.48604	0.98940
3845.55747	0.98666
3843.62891	0.98589
3841.70034	0.98725
3839.77178	0.98962
3837.84321	0.99105
3835.91465	0.98913
3833.98609	0.98807
3832.05752	0.98992
3830.12896	0.98984
3828.20039	0.98666
3826.27183	0.98481
3824.34326	0.98515
3822.41470	0.98597
3820.48613	0.98415
3818.55757	0.97929
3816.62901	0.97926
3814.70044	0.98371
3812.77188	0.98414
3810.84331	0.97981
3808.91475	0.97524
3806.98618	0.97580
3805.05762	0.97641
3803.12905	0.97479
3801.20049	0.97783
3799.27193	0.98058
3797.34336	0.98241
3795.41480	0.98561
3793.48623	0.98448
3791.55767	0.97989
3789.62910	0.97749
3787.70054	0.97801
3785.77197	0.97766
3783.84341	0.97487
3781.91485	0.97279
3779.98628	0.97523
3778.05772	0.97883
3776.12915	0.97778
3774.20059	0.97505
3772.27202	0.97416
3770.34346	0.97545
3768.41489	0.97635
3766.48633	0.97588
3764.55777	0.97543
3762.62920	0.97471
3760.70064	0.97323
3758.77207	0.97107
3756.84351	0.96859
3754.91494	0.96537
3752.98638	0.96211
3751.05781	0.96657
3749.12925	0.97473
3747.20069	0.97389
3745.27212	0.97118
3743.34356	0.97123
3741.41499	0.96990
3739.48643	0.96773
3737.55786	0.96556
3735.62930	0.96294
3733.70074	0.96438
3731.77217	0.96811
3729.84361	0.96912
3727.91504	0.96825
3725.98648	0.96722
3724.05791	0.96663
3722.12935	0.96672
3720.20078	0.96760
3718.27222	0.96798
3716.34366	0.96681
3714.41509	0.96483
3712.48653	0.96535
3710.55796	0.97018
3708.62940	0.97103
3706.70083	0.96829
3704.77227	0.96731
3702.84370	0.96972
3700.91514	0.97142
3698.98658	0.97043
3697.05801	0.96996
3695.12945	0.96901
3693.20088	0.96660
3691.27232	0.96979
3689.34375	0.98484
3687.41519	0.99238
3685.48662	0.98893
3683.55806	0.98527
3681.62950	0.98415
3679.70093	0.98374
3677.77237	0.98604
3675.84380	1.00038
3673.91524	1.01224
3671.98667	1.01268
3670.05811	1.01729
3668.12954	1.02317
3666.20098	1.02289
3664.27242	1.02234
3662.34385	1.02556
3660.41529	1.03068
3658.48672	1.03507
3656.55816	1.04130
3654.62959	1.04728
3652.70103	1.05047
3650.77246	1.05930
3648.84390	1.07947
3646.91534	1.08826
3644.98677	1.08824
3643.05821	1.09000
3641.12964	1.09619
3639.20108	1.10438
3637.27251	1.11154
3635.34395	1.11852
3633.41538	1.12584
3631.48682	1.13293
3629.55826	1.14495
3627.62969	1.15780
3625.70113	1.16304
3623.77256	1.16589
3621.84400	1.16730
3619.91543	1.17346
3617.98687	1.18673
3616.05830	1.19592
3614.12974	1.20626
3612.20118	1.21930
3610.27261	1.22559
3608.34405	1.23171
3606.41548	1.24238
3604.48692	1.25067
3602.55835	1.25861
3600.62979	1.26773
3598.70123	1.27668
3596.77266	1.28945
3594.84410	1.30286
3592.91553	1.30621
3590.98697	1.30263
3589.05840	1.30488
3587.12984	1.32084
3585.20127	1.33522
3583.27271	1.34145
3581.34415	1.34849
3579.41558	1.35653
3577.48702	1.36359
3575.55845	1.37475
3573.62989	1.38657
3571.70132	1.38967
3569.77276	1.38715
3567.84419	1.39350
3565.91563	1.41281
3563.98707	1.42746
3562.05850	1.43686
3560.12994	1.44323
3558.20137	1.44740
3556.27281	1.45317
3554.34424	1.46260
3552.41568	1.47479
3550.48711	1.48494
3548.55855	1.49382
3546.62999	1.50730
3544.70142	1.52217
3542.77286	1.52852
3540.84429	1.52785
3538.91573	1.52833
3536.98716	1.53374
3535.05860	1.54122
3533.13003	1.54853
3531.20147	1.55785
3529.27291	1.56669
3527.34434	1.57093
3525.41578	1.57768
3523.48721	1.58983
3521.55865	1.59461
3519.63008	1.59068
3517.70152	1.59091
3515.77295	1.59694
3513.84439	1.60373
3511.91583	1.61182
3509.98726	1.62393
3508.05870	1.63681
3506.13013	1.64185
3504.20157	1.64179
3502.27300	1.64836
3500.34444	1.66203
3498.41587	1.67196
3496.48731	1.67233
3494.55875	1.67118
3492.63018	1.67674
3490.70162	1.68502
3488.77305	1.68979
3486.84449	1.69057
3484.91592	1.69085
3482.98736	1.69733
3481.05879	1.70846
3479.13023	1.71121
3477.20167	1.70854
3475.27310	1.71134
3473.34454	1.72020
3471.41597	1.72996
3469.48741	1.73401
3467.55884	1.73098
3465.63028	1.72639
3463.70171	1.72565
3461.77315	1.72947
3459.84459	1.73411
3457.91602	1.73430
3455.98746	1.72874
3454.05889	1.72483
3452.13033	1.73128
3450.20176	1.74668
3448.27320	1.75371
3446.34464	1.74367
3444.41607	1.73941
3442.48751	1.74715
3440.55894	1.75060
3438.63038	1.74950
3436.70181	1.74878
3434.77325	1.74642
3432.84468	1.74695
3430.91612	1.75080
3428.98756	1.75238
3427.05899	1.75341
3425.13043	1.75347
3423.20186	1.74787
3421.27330	1.73968
3419.34473	1.73971
3417.41617	1.75018
3415.48760	1.75418
3413.55904	1.74323
3411.63048	1.73605
3409.70191	1.74185
3407.77335	1.74672
3405.84478	1.74805
3403.91622	1.75956
3401.98765	1.77568
3400.05909	1.77711
3398.13052	1.76626
3396.20196	1.75724
3394.27340	1.75537
3392.34483	1.75581
3390.41627	1.75173
3388.48770	1.74660
3386.55914	1.74457
3384.63057	1.74205
3382.70201	1.74282
3380.77344	1.75416
3378.84488	1.76247
3376.91632	1.75365
3374.98775	1.74098
3373.05919	1.73548
3371.13062	1.73722
3369.20206	1.74465
3367.27349	1.74928
3365.34493	1.74998
3363.41636	1.75264
3361.48780	1.75874
3359.55924	1.76747
3357.63067	1.76936
3355.70211	1.76121
3353.77354	1.75359
3351.84498	1.74890
3349.91641	1.74109
3347.98785	1.72986
3346.05928	1.72630
3344.13072	1.73609
3342.20216	1.74701
3340.27359	1.74999
3338.34503	1.75039
3336.41646	1.75473
3334.48790	1.76217
3332.55933	1.76280
3330.63077	1.75135
3328.70220	1.73787
3326.77364	1.73646
3324.84508	1.75080
3322.91651	1.76516
3320.98795	1.76398
3319.05938	1.75964
3317.13082	1.76278
3315.20225	1.76369
3313.27369	1.75910
3311.34513	1.75404
3309.41656	1.75123
3307.48800	1.75129
3305.55943	1.74911
3303.63087	1.74206
3301.70230	1.73940
3299.77374	1.74855
3297.84517	1.76048
3295.91661	1.76176
3293.98805	1.75089
3292.05948	1.73607
3290.13092	1.72899
3288.20235	1.73358
3286.27379	1.74039
3284.34522	1.74264
3282.41666	1.74568
3280.48809	1.74746
3278.55953	1.74012
3276.63097	1.73090
3274.70240	1.72461
3272.77384	1.71621
3270.84527	1.71222
3268.91671	1.71627
3266.98814	1.71709
3265.05958	1.71463
3263.13101	1.72045
3261.20245	1.72976
3259.27389	1.72705
3257.34532	1.71269
3255.41676	1.69885
3253.48819	1.69043
3251.55963	1.68455
3249.63106	1.68102
3247.70250	1.68177
3245.77393	1.68135
3243.84537	1.67505
3241.91681	1.66707
3239.98824	1.66166
3238.05968	1.65885
3236.13111	1.65524
3234.20255	1.64988
3232.27398	1.64661
3230.34542	1.64975
3228.41685	1.65776
3226.48829	1.66125
3224.55973	1.65755
3222.63116	1.65274
3220.70260	1.65034
3218.77403	1.65081
3216.84547	1.65257
3214.91690	1.65272
3212.98834	1.64716
3211.05977	1.63595
3209.13121	1.62604
3207.20265	1.62437
3205.27408	1.63030
3203.34552	1.63336
3201.41695	1.62679
3199.48839	1.61815
3197.55982	1.61626
3195.63126	1.61926
3193.70269	1.61924
3191.77413	1.61410
3189.84557	1.60971
3187.91700	1.60970
3185.98844	1.61017
3184.05987	1.60806
3182.13131	1.60442
3180.20274	1.59967
3178.27418	1.59407
3176.34562	1.58861
3174.41705	1.58530
3172.48849	1.58434
3170.55992	1.58376
3168.63136	1.58391
3166.70279	1.58282
3164.77423	1.57816
3162.84566	1.57504
3160.91710	1.57499
3158.98854	1.57365
3157.05997	1.57060
3155.13141	1.56716
3153.20284	1.56383
3151.27428	1.55885
3149.34571	1.55302
3147.41715	1.55287
3145.48858	1.55685
3143.56002	1.55731
3141.63146	1.55366
3139.70289	1.54969
3137.77433	1.54762
3135.84576	1.54512
3133.91720	1.53892
3131.98863	1.53209
3130.06007	1.53148
3128.13150	1.53642
3126.20294	1.53779
3124.27438	1.53377
3122.34581	1.53236
3120.41725	1.53598
3118.48868	1.54019
3116.56012	1.54125
3114.63155	1.53901
3112.70299	1.53815
3110.77442	1.54014
3108.84586	1.53904
3106.91730	1.53328
3104.98873	1.52890
3103.06017	1.52919
3101.13160	1.53070
3099.20304	1.52998
3097.27447	1.52957
3095.34591	1.52897
3093.41734	1.52336
3091.48878	1.51555
3089.56022	1.51213
3087.63165	1.51358
3085.70309	1.51542
3083.77452	1.51546
3081.84596	1.51650
3079.91739	1.51862
3077.98883	1.51861
3076.06026	1.51770
3074.13170	1.51622
3072.20314	1.51179
3070.27457	1.50641
3068.34601	1.50314
3066.41744	1.50370
3064.48888	1.50674
3062.56031	1.50384
3060.63175	1.49237
3058.70318	1.48275
3056.77462	1.47990
3054.84606	1.47706
3052.91749	1.47252
3050.98893	1.47034
3049.06036	1.46836
3047.13180	1.46353
3045.20323	1.46008
3043.27467	1.46014
3041.34610	1.45992
3039.41754	1.45820
3037.48898	1.45429
3035.56041	1.44711
3033.63185	1.43992
3031.70328	1.43505
3029.77472	1.43276
3027.84615	1.43275
3025.91759	1.43242
3023.98903	1.43099
3022.06046	1.42972
3020.13190	1.42831
3018.20333	1.42713
3016.27477	1.42630
3014.34620	1.42430
3012.41764	1.42324
3010.48907	1.42472
3008.56051	1.42415
3006.63195	1.41933
3004.70338	1.41363
3002.77482	1.41126
3000.84625	1.41319
2998.91769	1.41529
2996.98912	1.41558
2995.06056	1.41738
2993.13199	1.42080
2991.20343	1.42336
2989.27487	1.42589
2987.34630	1.42922
2985.41774	1.43186
2983.48917	1.43434
2981.56061	1.44008
2979.63204	1.44887
2977.70348	1.45522
2975.77491	1.45815
2973.84635	1.46374
2971.91779	1.47283
2969.98922	1.47979
2968.06066	1.48438
2966.13209	1.48894
2964.20353	1.49171
2962.27496	1.49133
2960.34640	1.48783
2958.41783	1.48407
2956.48927	1.48397
2954.56071	1.48499
2952.63214	1.48300
2950.70358	1.47889
2948.77501	1.47556
2946.84645	1.47634
2944.91788	1.48186
2942.98932	1.48776
2941.06075	1.49142
2939.13219	1.49659
2937.20363	1.50546
2935.27506	1.51390
2933.34650	1.51918
2931.41793	1.52299
2929.48937	1.52682
2927.56080	1.52991
2925.63224	1.53147
2923.70367	1.53347
2921.77511	1.53538
2919.84655	1.53315
2917.91798	1.52679
2915.98942	1.51710
2914.06085	1.50273
2912.13229	1.48577
2910.20372	1.47088
2908.27516	1.45960
2906.34659	1.44952
2904.41803	1.44095
2902.48947	1.43684
2900.56090	1.43568
2898.63234	1.43373
2896.70377	1.43071
2894.77521	1.42780
2892.84664	1.42372
2890.91808	1.41806
2888.98952	1.41319
2887.06095	1.41017
2885.13239	1.40912
2883.20382	1.40962
2881.27526	1.41000
2879.34669	1.40990
2877.41813	1.40980
2875.48956	1.40949
2873.56100	1.40706
2871.63244	1.40117
2869.70387	1.39496
2867.77531	1.39104
2865.84674	1.38847
2863.91818	1.38717
2861.98961	1.38735
2860.06105	1.38831
2858.13248	1.39058
2856.20392	1.39399
2854.27536	1.39768
2852.34679	1.40159
2850.41823	1.40317
2848.48966	1.39602
2846.56110	1.37706
2844.63253	1.35338
2842.70397	1.33354
2840.77540	1.31870
2838.84684	1.30777
2836.91828	1.30029
2834.98971	1.29502
2833.06115	1.29125
2831.13258	1.28761
2829.20402	1.28237
2827.27545	1.27633
2825.34689	1.27124
2823.41832	1.26700
2821.48976	1.26340
2819.56120	1.26151
2817.63263	1.26086
2815.70407	1.25886
2813.77550	1.25441
2811.84694	1.24952
2809.91837	1.24663
2807.98981	1.24476
2806.06124	1.24124
2804.13268	1.23608
2802.20412	1.23152
2800.27555	1.22835
2798.34699	1.22470
2796.41842	1.22043
2794.48986	1.21746
2792.56129	1.21511
2790.63273	1.21208
2788.70416	1.20933
2786.77560	1.20730
2784.84704	1.20551
2782.91847	1.20412
2780.98991	1.20274
2779.06134	1.20117
2777.13278	1.20050
2775.20421	1.20067
2773.27565	1.19929
2771.34708	1.19533
2769.41852	1.19146
2767.48996	1.18979
2765.56139	1.18894
2763.63283	1.18782
2761.70426	1.18594
2759.77570	1.18217
2757.84713	1.17810
2755.91857	1.17585
2753.99001	1.17399
2752.06144	1.17137
2750.13288	1.16932
2748.20431	1.16753
2746.27575	1.16444
2744.34718	1.16101
2742.41862	1.15922
2740.49005	1.15835
2738.56149	1.15629
2736.63293	1.15348
2734.70436	1.15131
2732.77580	1.14941
2730.84723	1.14744
2728.91867	1.14562
2726.99010	1.14446
2725.06154	1.14404
2723.13297	1.14278
2721.20441	1.14001
2719.27585	1.13712
2717.34728	1.13530
2715.41872	1.13371
2713.49015	1.13128
2711.56159	1.12927
2709.63302	1.12789
2707.70446	1.12525
2705.77589	1.12174
2703.84733	1.11831
2701.91877	1.11488
2699.99020	1.11193
2698.06164	1.10907
2696.13307	1.10615
2694.20451	1.10425
2692.27594	1.10282
2690.34738	1.10067
2688.41881	1.09827
2686.49025	1.09643
2684.56169	1.09555
2682.63312	1.09512
2680.70456	1.09414
2678.77599	1.09286
2676.84743	1.09181
2674.91886	1.09053
2672.99030	1.08943
2671.06173	1.08954
2669.13317	1.08996
2667.20461	1.08908
2665.27604	1.08693
2663.34748	1.08514
2661.41891	1.08412
2659.49035	1.08180
2657.56178	1.07834
2655.63322	1.07620
2653.70465	1.07506
2651.77609	1.07307
2649.84753	1.06960
2647.91896	1.06515
2645.99040	1.06112
2644.06183	1.05825
2642.13327	1.05570
2640.20470	1.05293
2638.27614	1.05024
2636.34757	1.04774
2634.41901	1.04547
2632.49045	1.04384
2630.56188	1.04332
2628.63332	1.04321
2626.70475	1.04226
2624.77619	1.04054
2622.84762	1.03902
2620.91906	1.03829
2618.99049	1.03805
2617.06193	1.03764
2615.13337	1.03712
2613.20480	1.03565
2611.27624	1.03252
2609.34767	1.02993
2607.41911	1.02898
2605.49054	1.02756
2603.56198	1.02533
2601.63342	1.02396
2599.70485	1.02276
2597.77629	1.01998
2595.84772	1.01692
2593.91916	1.01488
2591.99059	1.01299
2590.06203	1.01136
2588.13346	1.01066
2586.20490	1.01037
2584.27634	1.00981
2582.34777	1.00875
2580.41921	1.00701
2578.49064	1.00515
2576.56208	1.00410
2574.63351	1.00338
2572.70495	1.00254
2570.77638	1.00217
2568.84782	1.00202
2566.91926	1.00166
2564.99069	1.00152
2563.06213	1.00106
2561.13356	0.99904
2559.20500	0.99592
2557.27643	0.99295
2555.34787	0.99057
2553.41930	0.98876
2551.49074	0.98723
2549.56218	0.98562
2547.63361	0.98375
2545.70505	0.98174
2543.77648	0.97992
2541.84792	0.97840
2539.91935	0.97676
2537.99079	0.97441
2536.06222	0.97184
2534.13366	0.96998
2532.20510	0.96846
2530.27653	0.96688
2528.34797	0.96605
2526.41940	0.96600
2524.49084	0.96556
2522.56227	0.96407
2520.63371	0.96228
2518.70514	0.96131
2516.77658	0.96063
2514.84802	0.95920
2512.91945	0.95709
2510.99089	0.95487
2509.06232	0.95307
2507.13376	0.95150
2505.20519	0.94979
2503.27663	0.94794
2501.34806	0.94624
2499.41950	0.94537
2497.49094	0.94522
2495.56237	0.94479
2493.63381	0.94380
2491.70524	0.94295
2489.77668	0.94245
2487.84811	0.94179
2485.91955	0.94083
2483.99098	0.94002
2482.06242	0.93915
2480.13386	0.93766
2478.20529	0.93593
2476.27673	0.93442
2474.34816	0.93294
2472.41960	0.93102
2470.49103	0.92853
2468.56247	0.92618
2466.63391	0.92408
2464.70534	0.92169
2462.77678	0.91901
2460.84821	0.91653
2458.91965	0.91447
2456.99108	0.91253
2455.06252	0.91063
2453.13395	0.90889
2451.20539	0.90706
2449.27683	0.90516
2447.34826	0.90364
2445.41970	0.90272
2443.49113	0.90231
2441.56257	0.90196
2439.63400	0.90135
2437.70544	0.90075
2435.77687	0.90013
2433.84831	0.89916
2431.91975	0.89815
2429.99118	0.89751
2428.06262	0.89697
2426.13405	0.89593
2424.20549	0.89439
2422.27692	0.89271
2420.34836	0.89060
2418.41979	0.88760
2416.49123	0.88422
2414.56267	0.88104
2412.63410	0.87816
2410.70554	0.87574
2408.77697	0.87348
2406.84841	0.87104
2404.91984	0.86871
2402.99128	0.86695
2401.06271	0.86555
2399.13415	0.86392
2397.20559	0.86236
2395.27702	0.86153
2393.34846	0.86166
2391.41989	0.86249
2389.49133	0.86312
2387.56276	0.86308
2385.63420	0.86286
2383.70563	0.86308
2381.77707	0.86386
2379.84851	0.86418
2377.91994	0.86346
2375.99138	0.86318
2374.06281	0.86372
2372.13425	0.86300
2370.20568	0.86080
2368.27712	0.85824
2366.34855	0.85727
2364.41999	0.86112
2362.49143	0.86307
2360.56286	0.85830
2358.63430	0.85494
2356.70573	0.85212
2354.77717	0.84692
2352.84860	0.84290
2350.92004	0.83988
2348.99147	0.83674
2347.06291	0.83475
2345.13435	0.83524
2343.20578	0.83656
2341.27722	0.83552
2339.34865	0.83169
2337.42009	0.82772
2335.49152	0.82797
2333.56296	0.83404
2331.63440	0.84144
2329.70583	0.84320
2327.77727	0.84028
2325.84870	0.83787
2323.92014	0.83622
2321.99157	0.83431
2320.06301	0.83294
2318.13444	0.83103
2316.20588	0.82713
2314.27732	0.82357
2312.34875	0.82200
2310.42019	0.82039
2308.49162	0.81802
2306.56306	0.81583
2304.63449	0.81374
2302.70593	0.81195
2300.77736	0.81095
2298.84880	0.81035
2296.92024	0.80980
2294.99167	0.80950
2293.06311	0.80930
2291.13454	0.80889
2289.20598	0.80852
2287.27741	0.80853
2285.34885	0.80877
2283.42028	0.80886
2281.49172	0.80873
2279.56316	0.80870
2277.63459	0.80888
2275.70603	0.80910
2273.77746	0.80899
2271.84890	0.80816
2269.92033	0.80648
2267.99177	0.80434
2266.06320	0.80245
2264.13464	0.80088
2262.20608	0.79935
2260.27751	0.79798
2258.34895	0.79670
2256.42038	0.79532
2254.49182	0.79377
2252.56325	0.79199
2250.63469	0.79049
2248.70612	0.78964
2246.77756	0.78899
2244.84900	0.78812
2242.92043	0.78717
2240.99187	0.78634
2239.06330	0.78559
2237.13474	0.78499
2235.20617	0.78471
2233.27761	0.78491
2231.34904	0.78547
2229.42048	0.78584
2227.49192	0.78561
2225.56335	0.78484
2223.63479	0.78389
2221.70622	0.78292
2219.77766	0.78167
2217.84909	0.78034
2215.92053	0.77972
2213.99196	0.77974
2212.06340	0.77943
2210.13484	0.77867
2208.20627	0.77809
2206.27771	0.77766
2204.34914	0.77702
2202.42058	0.77603
2200.49201	0.77494
2198.56345	0.77405
2196.63488	0.77349
2194.70632	0.77333
2192.77776	0.77321
2190.84919	0.77254
2188.92063	0.77163
2186.99206	0.77116
2185.06350	0.77102
2183.13493	0.77077
2181.20637	0.77029
2179.27781	0.76971
2177.34924	0.76930
2175.42068	0.76918
2173.49211	0.76900
2171.56355	0.76859
2169.63498	0.76817
2167.70642	0.76788
2165.77785	0.76760
2163.84929	0.76731
2161.92073	0.76698
2159.99216	0.76636
2158.06360	0.76564
2156.13503	0.76527
2154.20647	0.76494
2152.27790	0.76411
2150.34934	0.76292
2148.42077	0.76191
2146.49221	0.76110
2144.56365	0.75983
2142.63508	0.75808
2140.70652	0.75650
2138.77795	0.75529
2136.84939	0.75438
2134.92082	0.75357
2132.99226	0.75253
2131.06369	0.75134
2129.13513	0.75022
2127.20657	0.74928
2125.27800	0.74848
2123.34944	0.74779
2121.42087	0.74728
2119.49231	0.74690
2117.56374	0.74650
2115.63518	0.74602
2113.70661	0.74567
2111.77805	0.74568
2109.84949	0.74601
2107.92092	0.74627
2105.99236	0.74595
2104.06379	0.74510
2102.13523	0.74412
2100.20666	0.74306
2098.27810	0.74185
2096.34953	0.74055
2094.42097	0.73909
2092.49241	0.73733
2090.56384	0.73547
2088.63528	0.73380
2086.70671	0.73226
2084.77815	0.73055
2082.84958	0.72881
2080.92102	0.72736
2078.99245	0.72601
2077.06389	0.72466
2075.13533	0.72353
2073.20676	0.72251
2071.27820	0.72150
2069.34963	0.72050
2067.42107	0.71958
2065.49250	0.71914
2063.56394	0.71912
2061.63537	0.71878
2059.70681	0.71791
2057.77825	0.71708
2055.84968	0.71657
2053.92112	0.71602
2051.99255	0.71510
2050.06399	0.71396
2048.13542	0.71268
2046.20686	0.71113
2044.27830	0.70932
2042.34973	0.70742
2040.42117	0.70574
2038.49260	0.70426
2036.56404	0.70277
2034.63547	0.70125
2032.70691	0.69968
2030.77834	0.69803
2028.84978	0.69633
2026.92122	0.69493
2024.99265	0.69411
2023.06409	0.69355
2021.13552	0.69286
2019.20696	0.69239
2017.27839	0.69240
2015.34983	0.69234
2013.42126	0.69189
2011.49270	0.69130
2009.56414	0.69082
2007.63557	0.69015
2005.70701	0.68898
2003.77844	0.68769
2001.84988	0.68649
1999.92131	0.68506
1997.99275	0.68325
1996.06418	0.68101
1994.13562	0.67884
1992.20706	0.67738
1990.27849	0.67602
1988.34993	0.67397
1986.42136	0.67166
1984.49280	0.66979
1982.56423	0.66836
1980.63567	0.66692
1978.70710	0.66540
1976.77854	0.66409
1974.84998	0.66317
1972.92141	0.66240
1970.99285	0.66147
1969.06428	0.66069
1967.13572	0.66055
1965.20715	0.66057
1963.27859	0.66016
1961.35002	0.65963
1959.42146	0.65918
1957.49290	0.65869
1955.56433	0.65816
1953.63577	0.65744
1951.70720	0.65650
1949.77864	0.65536
1947.85007	0.65389
1945.92151	0.65212
1943.99294	0.65036
1942.06438	0.64888
1940.13582	0.64742
1938.20725	0.64585
1936.27869	0.64437
1934.35012	0.64307
1932.42156	0.64186
1930.49299	0.64058
1928.56443	0.63943
1926.63586	0.63866
1924.70730	0.63844
1922.77874	0.63860
1920.85017	0.63817
1918.92161	0.63762
1916.99304	0.63771
1915.06448	0.63732
1913.13591	0.63628
1911.20735	0.63553
1909.27878	0.63519
1907.35022	0.63460
1905.42166	0.63345
1903.49309	0.63203
1901.56453	0.63046
1899.63596	0.62876
1897.70740	0.62705
1895.77883	0.62550
1893.85027	0.62391
1891.92171	0.62212
1889.99314	0.62076
1888.06458	0.61973
1886.13601	0.61821
1884.20745	0.61655
1882.27888	0.61527
1880.35032	0.61417
1878.42175	0.61289
1876.49319	0.61151
1874.56463	0.61021
1872.63606	0.60882
1870.70750	0.60756
1868.77893	0.60752
1866.85037	0.60804
1864.92180	0.60732
1862.99324	0.60611
1861.06467	0.60537
1859.13611	0.60516
1857.20755	0.60494
1855.27898	0.60446
1853.35042	0.60392
1851.42185	0.60330
1849.49329	0.60256
1847.56472	0.60179
1845.63616	0.60167
1843.70759	0.60254
1841.77903	0.60240
1839.85047	0.60112
1837.92190	0.59994
1835.99334	0.59911
1834.06477	0.59813
1832.13621	0.59725
1830.20764	0.59741
1828.27908	0.59769
1826.35051	0.59719
1824.42195	0.59685
1822.49339	0.59633
1820.56482	0.59525
1818.63626	0.59424
1816.70769	0.59350
1814.77913	0.59291
1812.85056	0.59258
1810.92200	0.59276
1808.99343	0.59286
1807.06487	0.59232
1805.13631	0.59144
1803.20774	0.59070
1801.27918	0.59079
1799.35061	0.59136
1797.42205	0.59136
1795.49348	0.59099
1793.56492	0.59153
1791.63635	0.59363
1789.70779	0.59464
1787.77923	0.59444
1785.85066	0.59485
1783.92210	0.59582
1781.99353	0.59680
1780.06497	0.59799
1778.13640	0.59870
1776.20784	0.59828
1774.27927	0.59795
1772.35071	0.60015
1770.42215	0.60320
1768.49358	0.60431
1766.56502	0.60470
1764.63645	0.60517
1762.70789	0.60683
1760.77932	0.60944
1758.85076	0.61128
1756.92220	0.61387
1754.99363	0.61677
1753.06507	0.61880
1751.13650	0.62294
1749.20794	0.63113
1747.27937	0.63915
1745.35081	0.64550
1743.42224	0.65155
1741.49368	0.65800
1739.56512	0.66466
1737.63655	0.66863
1735.70799	0.67150
1733.77942	0.68065
1731.85086	0.69099
1729.92229	0.69758
1727.99373	0.70400
1726.06516	0.71052
1724.13660	0.71841
1722.20804	0.72623
1720.27947	0.73291
1718.35091	0.74546
1716.42234	0.77017
1714.49378	0.79028
1712.56521	0.80418
1710.63665	0.81835
1708.70808	0.83460
1706.77952	0.85878
1704.85096	0.89163
1702.92239	0.92093
1700.99383	0.96134
1699.06526	1.02789
1697.13670	1.09185
1695.20813	1.15524
1693.27957	1.20117
1691.35100	1.23499
1689.42244	1.27608
1687.49388	1.31479
1685.56531	1.35101
1683.63675	1.40490
1681.70818	1.44257
1679.77962	1.45988
1677.85105	1.47380
1675.92249	1.49100
1673.99392	1.50858
1672.06536	1.51980
1670.13680	1.52971
1668.20823	1.53875
1666.27967	1.54021
1664.35110	1.54047
1662.42254	1.54263
1660.49397	1.54211
1658.56541	1.53951
1656.63684	1.53681
1654.70828	1.53693
1652.77972	1.53600
1650.85115	1.52871
1648.92259	1.52364
1646.99402	1.52057
1645.06546	1.51603
1643.13689	1.51046
1641.20833	1.50665
1639.27976	1.50305
1637.35120	1.49949
1635.42264	1.49844
1633.49407	1.49534
1631.56551	1.48927
1629.63694	1.48167
1627.70838	1.47410
1625.77981	1.46618
1623.85125	1.45687
1621.92269	1.44583
1619.99412	1.43344
1618.06556	1.41745
1616.13699	1.39404
1614.20843	1.37324
1612.27986	1.35748
1610.35130	1.34176
1608.42273	1.32386
1606.49417	1.30717
1604.56561	1.29539
1602.63704	1.28737
1600.70848	1.28122
1598.77991	1.27656
1596.85135	1.27395
1594.92278	1.27294
1592.99422	1.27335
1591.06565	1.27632
1589.13709	1.28115
1587.20853	1.28669
1585.27996	1.29408
1583.35140	1.30432
1581.42283	1.31487
1579.49427	1.32323
1577.56570	1.33384
1575.63714	1.35093
1573.70857	1.36153
1571.78001	1.36740
1569.85145	1.37861
1567.92288	1.39175
1565.99432	1.40075
1564.06575	1.40815
1562.13719	1.41157
1560.20862	1.41509
1558.28006	1.43162
1556.35149	1.43753
1554.42293	1.43519
1552.49437	1.43373
1550.56580	1.43340
1548.63724	1.43116
1546.70867	1.42529
1544.78011	1.41847
1542.85154	1.41655
1540.92298	1.41921
1538.99441	1.41062
1537.06585	1.40038
1535.13729	1.39267
1533.20872	1.38633
1531.28016	1.38101
1529.35159	1.37538
1527.42303	1.36859
1525.49446	1.36164
1523.56590	1.35667
1521.63733	1.35309
1519.70877	1.34939
1517.78021	1.34425
1515.85164	1.33609
1513.92308	1.32500
1511.99451	1.31249
1510.06595	1.29973
1508.13738	1.28061
1506.20882	1.24601
1504.28025	1.22428
1502.35169	1.20994
1500.42313	1.19506
1498.49456	1.17775
1496.56600	1.15859
1494.63743	1.14297
1492.70887	1.13104
1490.78030	1.11910
1488.85174	1.10662
1486.92317	1.09766
1484.99461	1.09229
1483.06605	1.08965
1481.13748	1.08975
1479.20892	1.09228
1477.28035	1.09769
1475.35179	1.10753
1473.42322	1.12539
1471.49466	1.14621
1469.56610	1.15630
1467.63753	1.16063
1465.70897	1.16741
1463.78040	1.17669
1461.85184	1.18052
1459.92327	1.18121
1457.99471	1.18930
1456.06614	1.20232
1454.13758	1.20338
1452.20902	1.20047
1450.28045	1.19718
1448.35189	1.19425
1446.42332	1.19155
1444.49476	1.18770
1442.56619	1.18242
1440.63763	1.17657
1438.70906	1.17115
1436.78050	1.16661
1434.85194	1.16173
1432.92337	1.15613
1430.99481	1.15092
1429.06624	1.14719
1427.13768	1.14560
1425.20911	1.14653
1423.28055	1.14914
1421.35198	1.15141
1419.42342	1.15623
1417.49486	1.16429
1415.56629	1.16842
1413.63773	1.16968
1411.70916	1.17096
1409.78060	1.17238
1407.85203	1.17299
1405.92347	1.17308
1403.99490	1.17273
1402.06634	1.17171
1400.13778	1.17068
1398.20921	1.16961
1396.28065	1.16860
1394.35208	1.16735
1392.42352	1.16497
1390.49495	1.16332
1388.56639	1.16573
1386.63782	1.17264
1384.70926	1.17903
1382.78070	1.18295
1380.85213	1.18414
1378.92357	1.18156
1376.99500	1.17589
1375.06644	1.16823
1373.13787	1.15881
1371.20931	1.14812
1369.28074	1.13600
1367.35218	1.12354
1365.42362	1.11259
1363.49505	1.10258
1361.56649	1.09431
1359.63792	1.08973
1357.70936	1.08757
1355.78079	1.08657
1353.85223	1.08651
1351.92366	1.08684
1349.99510	1.08728
1348.06654	1.08783
1346.13797	1.08842
1344.20941	1.08915
1342.28084	1.08988
1340.35228	1.09130
1338.42371	1.09424
1336.49515	1.09786
1334.56659	1.10255
1332.63802	1.10862
1330.70946	1.11467
1328.78089	1.11943
1326.85233	1.12264
1324.92376	1.12467
1322.99520	1.12652
1321.06663	1.12895
1319.13807	1.13204
1317.20951	1.13520
1315.28094	1.13773
1313.35238	1.13987
1311.42381	1.14177
1309.49525	1.14295
1307.56668	1.14353
1305.63812	1.14383
1303.70955	1.14378
1301.78099	1.14279
1299.85243	1.14030
1297.92386	1.13696
1295.99530	1.13361
1294.06673	1.13051
1292.13817	1.12833
1290.20960	1.12754
1288.28104	1.12743
1286.35247	1.12718
1284.42391	1.12662
1282.49535	1.12582
1280.56678	1.12473
1278.63822	1.12380
1276.70965	1.12382
1274.78109	1.12476
1272.85252	1.12627
1270.92396	1.12899
1268.99539	1.13309
1267.06683	1.13699
1265.13827	1.13953
1263.20970	1.14090
1261.28114	1.14139
1259.35257	1.14129
1257.42401	1.14114
1255.49544	1.14162
1253.56688	1.14328
1251.63831	1.14554
1249.70975	1.14755
1247.78119	1.14911
1245.85262	1.15040
1243.92406	1.15168
1241.99549	1.15262
1240.06693	1.15212
1238.13836	1.15019
1236.20980	1.14806
1234.28123	1.14625
1232.35267	1.14393
1230.42411	1.13995
1228.49554	1.13455
1226.56698	1.12890
1224.63841	1.12310
1222.70985	1.11713
1220.78128	1.11118
1218.85272	1.10488
1216.92415	1.09943
1214.99559	1.09727
1213.06703	1.09790
1211.13846	1.09939
1209.20990	1.10149
1207.28133	1.10359
1205.35277	1.10358
1203.42420	1.09992
1201.49564	1.09356
1199.56708	1.08643
1197.63851	1.07879
1195.70995	1.07019
1193.78138	1.06152
1191.85282	1.05451
1189.92425	1.04962
1187.99569	1.04591
1186.06712	1.04266
1184.13856	1.04053
1182.21000	1.04115
1180.28143	1.04472
1178.35287	1.05002
1176.42430	1.05632
1174.49574	1.06340
1172.56717	1.07117
1170.63861	1.07987
1168.71004	1.09083
1166.78148	1.10543
1164.85292	1.12283
1162.92435	1.14034
1160.99579	1.15532
1159.06722	1.16532
1157.13866	1.16874
1155.21009	1.16681
1153.28153	1.16121
1151.35296	1.15186
1149.42440	1.14038
1147.49584	1.13013
1145.56727	1.12243
1143.63871	1.11749
1141.71014	1.11644
1139.78158	1.11977
1137.85301	1.12648
1135.92445	1.13624
1133.99588	1.14880
1132.06732	1.16307
1130.13876	1.17910
1128.21019	1.19706
1126.28163	1.21488
1124.35306	1.23021
1122.42450	1.24307
1120.49593	1.25418
1118.56737	1.26261
1116.63880	1.26811
1114.71024	1.27092
1112.78168	1.27095
1110.85311	1.27056
1108.92455	1.27107
1106.99598	1.26961
1105.06742	1.26593
1103.13885	1.26351
1101.21029	1.26315
1099.28172	1.26327
1097.35316	1.26423
1095.42460	1.26796
1093.49603	1.27562
1091.56747	1.28637
1089.63890	1.29794
1087.71034	1.30948
1085.78177	1.32146
1083.85321	1.33277
1081.92464	1.34068
1079.99608	1.34218
1078.06752	1.33792
1076.13895	1.33125
1074.21039	1.32253
1072.28182	1.31196
1070.35326	1.30113
1068.42469	1.28953
1066.49613	1.27791
1064.56756	1.26985
1062.63900	1.26597
1060.71044	1.26268
1058.78187	1.25821
1056.85331	1.25461
1054.92474	1.25271
1052.99618	1.25074
1051.06761	1.24774
1049.13905	1.24544
1047.21049	1.24648
1045.28192	1.24996
1043.35336	1.25289
1041.42479	1.25516
1039.49623	1.25729
1037.56766	1.25799
1035.63910	1.25661
1033.71053	1.25395
1031.78197	1.24992
1029.85341	1.24325
1027.92484	1.23426
1025.99628	1.22485
1024.06771	1.21541
1022.13915	1.20530
1020.21058	1.19605
1018.28202	1.18933
1016.35345	1.18309
1014.42489	1.17370
1012.49633	1.16055
1010.56776	1.14580
1008.63920	1.13053
1006.71063	1.11491
1004.78207	1.10038
1002.85350	1.08825
1000.92494	1.07918
998.99637	1.07391
997.06781	1.07187
995.13925	1.07117
993.21068	1.07001
991.28212	1.06616
989.35355	1.05827
987.42499	1.04740
985.49642	1.03492
983.56786	1.02242
981.63929	1.01123
979.71073	1.00090
977.78217	0.99074
975.85360	0.98054
973.92504	0.96970
971.99647	0.95718
970.06791	0.94277
968.13934	0.92785
966.21078	0.91445
964.28221	0.90451
962.35365	0.89941
960.42509	0.89993
958.49652	0.90564
956.56796	0.91249
954.63939	0.91515
952.71083	0.91239
950.78226	0.90694
948.85370	0.90171
946.92513	0.89854
944.99657	0.89785
943.06801	0.89850
941.13944	0.89977
939.21088	0.90210
937.28231	0.90519
935.35375	0.90756
933.42518	0.90846
931.49662	0.90871
929.56805	0.90917
927.63949	0.90968
925.71093	0.90963
923.78236	0.90865
921.85380	0.90665
919.92523	0.90355
917.99667	0.89916
916.06810	0.89381
914.13954	0.88875
912.21098	0.88494
910.28241	0.88232
908.35385	0.88135
906.42528	0.88319
904.49672	0.88731
902.56815	0.89223
900.63959	0.89752
898.71102	0.90286
896.78246	0.90714
894.85390	0.90944
892.92533	0.91014
890.99677	0.91062
889.06820	0.91159
887.13964	0.91260
885.21107	0.91344
883.28251	0.91457
881.35394	0.91562
879.42538	0.91599
877.49682	0.91611
875.56825	0.91601
873.63969	0.91489
871.71112	0.91229
869.78256	0.90907
867.85399	0.90658
865.92543	0.90510
863.99686	0.90376
862.06830	0.90185
860.13974	0.90000
858.21117	0.89969
856.28261	0.90094
854.35404	0.90273
852.42548	0.90508
850.49691	0.90857
848.56835	0.91329
846.63978	0.91899
844.71122	0.92465
842.78266	0.92961
840.85409	0.93493
838.92553	0.94076
836.99696	0.94560
835.06840	0.94994
833.13983	0.95534
831.21127	0.96093
829.28270	0.96586
827.35414	0.97077
825.42558	0.97477
823.49701	0.97667
821.56845	0.97711
819.63988	0.97742
817.71132	0.97783
815.78275	0.97688
813.85419	0.97431
811.92562	0.97225
809.99706	0.97113
808.06850	0.96954
806.13993	0.96766
804.21137	0.96667
802.28280	0.96732
800.35424	0.96954
798.42567	0.97204
796.49711	0.97416
794.56854	0.97707
792.63998	0.98123
790.71142	0.98614
788.78285	0.99202
786.85429	0.99884
784.92572	1.00680
782.99716	1.01657
781.06859	1.02616
779.14003	1.03333
777.21147	1.03959
775.28290	1.04580
773.35434	1.05010
771.42577	1.05172
769.49721	1.05129
767.56864	1.04923
765.64008	1.04564
763.71151	1.04091
761.78295	1.03562
759.85439	1.03010
757.92582	1.02520
755.99726	1.02159
754.06869	1.01887
752.14013	1.01736
750.21156	1.01749
748.28300	1.01838
746.35443	1.01898
744.42587	1.01940
742.49731	1.02112
740.56874	1.02524
738.64018	1.03104
736.71161	1.03728
734.78305	1.04335
732.85448	1.04935
730.92592	1.05609
728.99735	1.06425
727.06879	1.07349
725.14023	1.08269
723.21166	1.09085
721.28310	1.09884
719.35453	1.10758
717.42597	1.11433
715.49740	1.11677
713.56884	1.11770
711.64027	1.12070
709.71171	1.12460
707.78315	1.12757
705.85458	1.13040
703.92602	1.13297
701.99745	1.13415
700.06889	1.13420
698.14032	1.13402
696.21176	1.13364
694.28319	1.13327
692.35463	1.13374
690.42607	1.13453
688.49750	1.13401
686.56894	1.13233
684.64037	1.13177
682.71181	1.13192
680.78324	1.13157
678.85468	1.13267
676.92611	1.13387
674.99755	1.13167
673.06899	1.12669
671.14042	1.12224
669.21186	1.12255
667.28329	1.12546
665.35473	1.12292
663.42616	1.11899
661.49760	1.11581
659.56903	1.11250
657.64047	1.10984
655.71191	1.11031
653.78334	1.11204
651.85478	1.11055
649.92621	1.10682
647.99765	1.10524
646.06908	1.10662
644.14052	1.10993
642.21195	1.11479
640.28339	1.11998
638.35483	1.12653
636.42626	1.13525
634.49770	1.13940
632.56913	1.13669
630.64057	1.13589
628.71200	1.13898
626.78344	1.14132
624.85488	1.14179
622.92631	1.14217
620.99775	1.14474
619.06918	1.14740
617.14062	1.14724
615.21205	1.14697
613.28349	1.14857
611.35492	1.15118
609.42636	1.15326
607.49780	1.15396
605.56923	1.15498
603.64067	1.15762
601.71210	1.16006
599.78354	1.15895
