3997.91406	1.19856
3995.98550	1.19587
3994.05693	1.19311
3992.12837	1.19244
3990.19980	1.19336
3988.27124	1.19524
3986.34268	1.19681
3984.41411	1.19672
3982.48555	1.19691
3980.55698	1.19760
3978.62842	1.19497
3976.69985	1.18833
3974.77129	1.18296
3972.84272	1.18327
3970.91416	1.18554
3968.98560	1.18460
3967.05703	1.18195
3965.12847	1.18143
3963.19990	1.18475
3961.27134	1.18810
3959.34277	1.18635
3957.41421	1.18256
3955.48564	1.18198
3953.55708	1.18525
3951.62852	1.18843
3949.69995	1.18617
3947.77139	1.18129
3945.84282	1.18084
3943.91426	1.18376
3941.98569	1.18476
3940.05713	1.18167
3938.12856	1.17616
3936.20000	1.17226
3934.27144	1.17458
3932.34287	1.17972
3930.41431	1.17820
3928.48574	1.17296
3926.55718	1.17173
3924.62861	1.17679
3922.70005	1.18354
3920.77148	1.18496
3918.84292	1.18098
3916.91436	1.17570
3914.98579	1.17070
3913.05723	1.16697
3911.12866	1.16697
3909.20010	1.16991
3907.27153	1.17080
3905.34297	1.16734
3903.41440	1.16556
3901.48584	1.16791
3899.55728	1.16894
3897.62871	1.17142
3895.70015	1.17490
3893.77158	1.17332
3891.84302	1.16567
3889.91445	1.16094
3887.98589	1.16341
3886.05733	1.17022
3884.12876	1.17219
3882.20020	1.16776
3880.27163	1.16590
3878.34307	1.16839
3876.41450	1.17079
3874.48594	1.17079
3872.55737	1.16885
3870.62881	1.16768
3868.70025	1.16671
3866.77168	1.16563
3864.84312	1.16583
3862.91455	1.16647
3860.98599	1.16523
3859.05742	1.16179
3857.12886	1.15788
3855.20029	1.15854
3853.27173	1.16282
3851.34317	1.15905
3849.41460	1.15648
3847.48604	1.15698
3845.55747	1.15799
3843.62891	1.15815
3841.70034	1.15621
3839.77178	1.15422
3837.84321	1.15514
3835.91465	1.15491
3833.98609	1.15091
3832.05752	1.14573
3830.12896	1.14310
3828.20039	1.14285
3826.27183	1.14365
3824.34326	1.14637
3822.41470	1.14973
3820.48613	1.14745
3818.55757	1.14233
3816.62901	1.13893
3814.70044	1.13548
3812.77188	1.13301
3810.84331	1.13128
3808.91475	1.12877
3806.98618	1.12888
3805.05762	1.13513
3803.12905	1.13979
3801.20049	1.13616
3799.27193	1.13303
3797.34336	1.13319
3795.41480	1.13193
3793.48623	1.13123
3791.55767	1.13254
3789.62910	1.13371
3787.70054	1.13278
3785.77197	1.13024
3783.84341	1.12890
3781.91485	1.12911
3779.98628	1.12804
3778.05772	1.12637
3776.12915	1.12750
3774.20059	1.12908
3772.27202	1.12653
3770.34346	1.12122
3768.41489	1.12058
3766.48633	1.12489
3764.55777	1.12954
3762.62920	1.13228
3760.70064	1.13295
3758.77207	1.13001
3756.84351	1.12595
3754.91494	1.12486
3752.98638	1.12523
3751.05781	1.12790
3749.12925	1.13489
3747.20069	1.13873
3745.27212	1.13543
3743.34356	1.12929
3741.41499	1.12726
3739.48643	1.12717
3737.55786	1.12976
3735.62930	1.13541
3733.70074	1.13374
3731.77217	1.12917
3729.84361	1.12814
3727.91504	1.12738
3725.98648	1.12667
3724.05791	1.12877
3722.12935	1.13058
3720.20078	1.12999
3718.27222	1.12905
3716.34366	1.12780
3714.41509	1.12795
3712.48653	1.13255
3710.55796	1.13580
3708.62940	1.13303
3706.70083	1.13151
3704.77227	1.13321
3702.84370	1.13665
3700.91514	1.13818
3698.98658	1.13780
3697.05801	1.13971
3695.12945	1.14231
3693.20088	1.14014
3691.27232	1.13542
3689.34375	1.13813
3687.41519	1.14299
3685.48662	1.14402
3683.55806	1.14604
3681.62950	1.14948
3679.70093	1.15261
3677.77237	1.15655
3675.84380	1.16161
3673.91524	1.16248
3671.98667	1.16251
3670.05811	1.17135
3668.12954	1.18496
3666.20098	1.19256
3664.27242	1.19810
3662.34385	1.20499
3660.41529	1.21158
3658.48672	1.21553
3656.55816	1.22046
3654.62959	1.22988
3652.70103	1.23932
3650.77246	1.24660
3648.84390	1.25604
3646.91534	1.26897
3644.98677	1.27918
3643.05821	1.28803
3641.12964	1.29874
3639.20108	1.31079
3637.27251	1.32051
3635.34395	1.32805
3633.41538	1.33436
3631.48682	1.33668
3629.55826	1.34314
3627.62969	1.36430
3625.70113	1.37855
3623.77256	1.38397
3621.84400	1.38829
3619.91543	1.39423
3617.98687	1.40666
3616.05830	1.42709
3614.12974	1.44646
3612.20118	1.45611
3610.27261	1.46268
3608.34405	1.47797
3606.41548	1.49690
3604.48692	1.50661
3602.55835	1.50959
3600.62979	1.51326
3598.70123	1.52017
3596.77266	1.53116
3594.84410	1.54781
3592.91553	1.56524
3590.98697	1.58320
3589.05840	1.60611
3587.12984	1.62353
3585.20127	1.63005
3583.27271	1.63419
3581.34415	1.63506
3579.41558	1.63722
3577.48702	1.64691
3575.55845	1.66087
3573.62989	1.67236
3571.70132	1.68324
3569.77276	1.69429
3567.84419	1.69768
3565.91563	1.70547
3563.98707	1.72606
3562.05850	1.73676
3560.12994	1.73571
3558.20137	1.74025
3556.27281	1.75051
3554.34424	1.76071
3552.41568	1.77369
3550.48711	1.78330
3548.55855	1.78606
3546.62999	1.78880
3544.70142	1.79401
3542.77286	1.80243
3540.84429	1.81556
3538.91573	1.82550
3536.98716	1.82139
3535.05860	1.81394
3533.13003	1.82190
3531.20147	1.84457
3529.27291	1.86884
3527.34434	1.88202
3525.41578	1.88984
3523.48721	1.90031
3521.55865	1.89990
3519.63008	1.89226
3517.70152	1.89229
3515.77295	1.89371
3513.84439	1.90060
3511.91583	1.92169
3509.98726	1.94115
3508.05870	1.94591
3506.13013	1.93857
3504.20157	1.92886
3502.27300	1.93250
3500.34444	1.94959
3498.41587	1.96713
3496.48731	1.97429
3494.55875	1.97479
3492.63018	1.97801
3490.70162	1.97473
3488.77305	1.96245
3486.84449	1.96080
3484.91592	1.97717
3482.98736	2.00016
3481.05879	2.02014
3479.13023	2.03208
3477.20167	2.03354
3475.27310	2.02879
3473.34454	2.02921
3471.41597	2.04077
3469.48741	2.04747
3467.55884	2.03437
3465.63028	2.01897
3463.70171	2.01277
3461.77315	2.00608
3459.84459	2.00313
3457.91602	2.01931
3455.98746	2.04822
3454.05889	2.05984
3452.13033	2.05116
3450.20176	2.04496
3448.27320	2.03230
3446.34464	2.00313
3444.41607	1.98963
3442.48751	2.00553
3440.55894	2.02742
3438.63038	2.03751
3436.70181	2.03648
3434.77325	2.02930
3432.84468	2.02442
3430.91612	2.02699
3428.98756	2.03439
3427.05899	2.04178
3425.13043	2.04455
3423.20186	2.03841
3421.27330	2.03085
3419.34473	2.03111
3417.41617	2.03952
3415.48760	2.05688
3413.55904	2.07036
3411.63048	2.06611
3409.70191	2.05418
3407.77335	2.04243
3405.84478	2.03296
3403.91622	2.03843
3401.98765	2.05863
3400.05909	2.06229
3398.13052	2.03684
3396.20196	2.01183
3394.27340	2.00626
3392.34483	2.01268
3390.41627	2.02314
3388.48770	2.04010
3386.55914	2.06129
3384.63057	2.07996
3382.70201	2.08997
3380.77344	2.08014
3378.84488	2.05709
3376.91632	2.04414
3374.98775	2.03849
3373.05919	2.02709
3371.13062	2.02785
3369.20206	2.04746
3367.27349	2.05863
3365.34493	2.06153
3363.41636	2.07245
3361.48780	2.06911
3359.55924	2.04035
3357.63067	2.01397
3355.70211	2.00653
3353.77354	2.01581
3351.84498	2.03390
3349.91641	2.04439
3347.98785	2.03661
3346.05928	2.02902
3344.13072	2.03788
3342.20216	2.05288
3340.27359	2.06576
3338.34503	2.07425
3336.41646	2.07472
3334.48790	2.07162
3332.55933	2.06160
3330.63077	2.04238
3328.70220	2.03424
3326.77364	2.06112
3324.84508	2.11042
3322.91651	2.13096
3320.98795	2.11324
3319.05938	2.09181
3317.13082	2.07886
3315.20225	2.07270
3313.27369	2.06567
3311.34513	2.04903
3309.41656	2.03670
3307.48800	2.03958
3305.55943	2.03907
3303.63087	2.03034
3301.70230	2.02619
3299.77374	2.02004
3297.84517	2.01617
3295.91661	2.02747
3293.98805	2.03588
3292.05948	2.03501
3290.13092	2.04832
3288.20235	2.06686
3286.27379	2.05939
3284.34522	2.03523
3282.41666	2.01848
3280.48809	2.01534
3278.55953	2.03229
3276.63097	2.05925
3274.70240	2.06222
3272.77384	2.04260
3270.84527	2.02838
3268.91671	2.02148
3266.98814	2.01161
3265.05958	1.99361
3263.13101	1.97203
3261.20245	1.96650
3259.27389	1.98768
3257.34532	2.01093
3255.41676	2.00700
3253.48819	1.99473
3251.55963	1.99833
3249.63106	2.00005
3247.70250	1.98547
3245.77393	1.97232
3243.84537	1.97552
3241.91681	1.98995
3239.98824	1.99532
3238.05968	1.98559
3236.13111	1.98094
3234.20255	1.98955
3232.27398	1.99603
3230.34542	1.98921
3228.41685	1.98363
3226.48829	1.99353
3224.55973	2.00430
3222.63116	1.99992
3220.70260	1.98692
3218.77403	1.97013
3216.84547	1.95376
3214.91690	1.95340
3212.98834	1.96566
3211.05977	1.96685
3209.13121	1.95824
3207.20265	1.95563
3205.27408	1.96260
3203.34552	1.97836
3201.41695	1.98789
3199.48839	1.97391
3197.55982	1.95398
3195.63126	1.94875
3193.70269	1.95002
3191.77413	1.95099
3189.84557	1.95780
3187.91700	1.96656
3185.98844	1.96885
3184.05987	1.96552
3182.13131	1.95811
3180.20274	1.94654
3178.27418	1.93362
3176.34562	1.92477
3174.41705	1.92060
3172.48849	1.91931
3170.55992	1.92160
3168.63136	1.91822
3166.70279	1.90704
3164.77423	1.90606
3162.84566	1.91547
3160.91710	1.91609
3158.98854	1.90783
3157.05997	1.90467
3155.13141	1.90733
3153.20284	1.91202
3151.27428	1.91726
3149.34571	1.91672
3147.41715	1.91159
3145.48858	1.90499
3143.56002	1.89640
3141.63146	1.89207
3139.70289	1.89584
3137.77433	1.90688
3135.84576	1.91792
3133.91720	1.91913
3131.98863	1.91600
3130.06007	1.91013
3128.13150	1.89122
3126.20294	1.87179
3124.27438	1.87432
3122.34581	1.89213
3120.41725	1.90306
3118.48868	1.90236
3116.56012	1.89583
3114.63155	1.88647
3112.70299	1.87661
3110.77442	1.87168
3108.84586	1.87816
3106.91730	1.89050
3104.98873	1.89265
3103.06017	1.88480
3101.13160	1.87781
3099.20304	1.86672
3097.27447	1.85118
3095.34591	1.84951
3093.41734	1.86785
3091.48878	1.88836
3089.56022	1.89670
3087.63165	1.89710
3085.70309	1.88911
3083.77452	1.86884
3081.84596	1.84971
3079.91739	1.84522
3077.98883	1.85136
3076.06026	1.85657
3074.13170	1.85747
3072.20314	1.85632
3070.27457	1.85255
3068.34601	1.84526
3066.41744	1.83475
3064.48888	1.82389
3062.56031	1.81602
3060.63175	1.81221
3058.70318	1.81556
3056.77462	1.82347
3054.84606	1.82476
3052.91749	1.81476
3050.98893	1.79965
3049.06036	1.79018
3047.13180	1.79126
3045.20323	1.79422
3043.27467	1.78997
3041.34610	1.78258
3039.41754	1.77945
3037.48898	1.77836
3035.56041	1.77309
3033.63185	1.76665
3031.70328	1.76488
3029.77472	1.76326
3027.84615	1.75623
3025.91759	1.74726
3023.98903	1.74150
3022.06046	1.73957
3020.13190	1.73717
3018.20333	1.73008
3016.27477	1.72362
3014.34620	1.72512
3012.41764	1.72633
3010.48907	1.71776
3008.56051	1.70902
3006.63195	1.70812
3004.70338	1.70838
3002.77482	1.70491
3000.84625	1.70189
2998.91769	1.70297
2996.98912	1.70605
2995.06056	1.70743
2993.13199	1.70943
2991.20343	1.71609
2989.27487	1.72369
2987.34630	1.72875
2985.41774	1.73316
2983.48917	1.73622
2981.56061	1.73665
2979.63204	1.73933
2977.70348	1.74890
2975.77491	1.75910
2973.84635	1.76316
2971.91779	1.76561
2969.98922	1.77230
2968.06066	1.78576
2966.13209	1.80391
2964.20353	1.81515
2962.27496	1.80947
2960.34640	1.79439
2958.41783	1.78575
2956.48927	1.78671
2954.56071	1.78554
2952.63214	1.77814
2950.70358	1.77784
2948.77501	1.78858
2946.84645	1.79953
2944.91788	1.80641
2942.98932	1.80631
2941.06075	1.79884
2939.13219	1.79749
2937.20363	1.81017
2935.27506	1.82952
2933.34650	1.84656
2931.41793	1.85629
2929.48937	1.85937
2927.56080	1.86310
2925.63224	1.86953
2923.70367	1.87243
2921.77511	1.86620
2919.84655	1.85421
2917.91798	1.84329
2915.98942	1.83084
2914.06085	1.81721
2912.13229	1.80624
2910.20372	1.79263
2908.27516	1.77639
2906.34659	1.76403
2904.41803	1.75447
2902.48947	1.74568
2900.56090	1.74267
2898.63234	1.74325
2896.70377	1.73631
2894.77521	1.72486
2892.84664	1.71942
2890.91808	1.71927
2888.98952	1.71758
2887.06095	1.71276
2885.13239	1.70949
2883.20382	1.70881
2881.27526	1.70751
2879.34669	1.70343
2877.41813	1.69892
2875.48956	1.69705
2873.56100	1.69261
2871.63244	1.68463
2869.70387	1.67979
2867.77531	1.67646
2865.84674	1.67095
2863.91818	1.66617
2861.98961	1.66341
2860.06105	1.66227
2858.13248	1.66562
2856.20392	1.67391
2854.27536	1.68334
2852.34679	1.69112
2850.41823	1.69389
2848.48966	1.68468
2846.56110	1.66052
2844.63253	1.63107
2842.70397	1.60696
2840.77540	1.59100
2838.84684	1.58174
2836.91828	1.57446
2834.98971	1.56786
2833.06115	1.56468
2831.13258	1.56154
2829.20402	1.55393
2827.27545	1.54570
2825.34689	1.54056
2823.41832	1.53512
2821.48976	1.52764
2819.56120	1.52105
2817.63263	1.51665
2815.70407	1.51384
2813.77550	1.51198
2811.84694	1.50978
2809.91837	1.50552
2807.98981	1.50014
2806.06124	1.49707
2804.13268	1.49585
2802.20412	1.49318
2800.27555	1.48856
2798.34699	1.48287
2796.41842	1.47777
2794.48986	1.47505
2792.56129	1.47344
2790.63273	1.47129
2788.70416	1.46831
2786.77560	1.46401
2784.84704	1.46011
2782.91847	1.45784
2780.98991	1.45415
2779.06134	1.44836
2777.13278	1.44361
2775.20421	1.43971
2773.27565	1.43603
2771.34708	1.43384
2769.41852	1.43187
2767.48996	1.42870
2765.56139	1.42554
2763.63283	1.42331
2761.70426	1.42125
2759.77570	1.41833
2757.84713	1.41583
2755.91857	1.41515
2753.99001	1.41355
2752.06144	1.40860
2750.13288	1.40233
2748.20431	1.39799
2746.27575	1.39687
2744.34718	1.39670
2742.41862	1.39513
2740.49005	1.39319
2738.56149	1.39124
2736.63293	1.38813
2734.70436	1.38440
2732.77580	1.38108
2730.84723	1.37832
2728.91867	1.37625
2726.99010	1.37645
2725.06154	1.37835
2723.13297	1.37647
2721.20441	1.37031
2719.27585	1.36662
2717.34728	1.36689
2715.41872	1.36732
2713.49015	1.36627
2711.56159	1.36351
2709.63302	1.35972
2707.70446	1.35650
2705.77589	1.35414
2703.84733	1.35205
2701.91877	1.35003
2699.99020	1.34801
2698.06164	1.34537
2696.13307	1.34170
2694.20451	1.33805
2692.27594	1.33549
2690.34738	1.33381
2688.41881	1.33297
2686.49025	1.33312
2684.56169	1.33271
2682.63312	1.33002
2680.70456	1.32621
2678.77599	1.32270
2676.84743	1.31894
2674.91886	1.31513
2672.99030	1.31184
2671.06173	1.30959
2669.13317	1.30917
2667.20461	1.30898
2665.27604	1.30751
2663.34748	1.30597
2661.41891	1.30348
2659.49035	1.29843
2657.56178	1.29309
2655.63322	1.28984
2653.70465	1.28820
2651.77609	1.28656
2649.84753	1.28304
2647.91896	1.27789
2645.99040	1.27398
2644.06183	1.27222
2642.13327	1.27010
2640.20470	1.26625
2638.27614	1.26154
2636.34757	1.25677
2634.41901	1.25333
2632.49045	1.25251
2630.56188	1.25297
2628.63332	1.25245
2626.70475	1.25010
2624.77619	1.24666
2622.84762	1.24360
2620.91906	1.24166
2618.99049	1.24049
2617.06193	1.23960
2615.13337	1.23822
2613.20480	1.23530
2611.27624	1.23154
2609.34767	1.22856
2607.41911	1.22627
2605.49054	1.22412
2603.56198	1.22243
2601.63342	1.22083
2599.70485	1.21867
2597.77629	1.21633
2595.84772	1.21400
2593.91916	1.21094
2591.99059	1.20750
2590.06203	1.20423
2588.13346	1.20099
2586.20490	1.19856
2584.27634	1.19695
2582.34777	1.19493
2580.41921	1.19287
2578.49064	1.19179
2576.56208	1.19104
2574.63351	1.18938
2572.70495	1.18748
2570.77638	1.18667
2568.84782	1.18678
2566.91926	1.18693
2564.99069	1.18635
2563.06213	1.18526
2561.13356	1.18476
2559.20500	1.18468
2557.27643	1.18453
2555.34787	1.18455
2553.41930	1.18418
2551.49074	1.18260
2549.56218	1.18018
2547.63361	1.17740
2545.70505	1.17481
2543.77648	1.17279
2541.84792	1.17024
2539.91935	1.16692
2537.99079	1.16471
2536.06222	1.16392
2534.13366	1.16224
2532.20510	1.15911
2530.27653	1.15649
2528.34797	1.15463
2526.41940	1.15292
2524.49084	1.15161
2522.56227	1.14998
2520.63371	1.14731
2518.70514	1.14448
2516.77658	1.14343
2514.84802	1.14417
2512.91945	1.14369
2510.99089	1.14095
2509.06232	1.13791
2507.13376	1.13580
2505.20519	1.13408
2503.27663	1.13149
2501.34806	1.12868
2499.41950	1.12714
2497.49094	1.12588
2495.56237	1.12335
2493.63381	1.11968
2491.70524	1.11600
2489.77668	1.11329
2487.84811	1.11136
2485.91955	1.10926
2483.99098	1.10659
2482.06242	1.10356
2480.13386	1.10066
2478.20529	1.09814
2476.27673	1.09552
2474.34816	1.09247
2472.41960	1.08939
2470.49103	1.08688
2468.56247	1.08560
2466.63391	1.08537
2464.70534	1.08484
2462.77678	1.08352
2460.84821	1.08199
2458.91965	1.08062
2456.99108	1.07917
2455.06252	1.07723
2453.13395	1.07494
2451.20539	1.07280
2449.27683	1.07142
2447.34826	1.07049
2445.41970	1.06896
2443.49113	1.06717
2441.56257	1.06552
2439.63400	1.06313
2437.70544	1.05978
2435.77687	1.05588
2433.84831	1.05231
2431.91975	1.05005
2429.99118	1.04893
2428.06262	1.04799
2426.13405	1.04665
2424.20549	1.04503
2422.27692	1.04328
2420.34836	1.04117
2418.41979	1.03931
2416.49123	1.03875
2414.56267	1.03899
2412.63410	1.03881
2410.70554	1.03850
2408.77697	1.03832
2406.84841	1.03748
2404.91984	1.03616
2402.99128	1.03556
2401.06271	1.03575
2399.13415	1.03517
2397.20559	1.03344
2395.27702	1.03211
2393.34846	1.03166
2391.41989	1.03101
2389.49133	1.02928
2387.56276	1.02720
2385.63420	1.02600
2383.70563	1.02501
2381.77707	1.02303
2379.84851	1.02133
2377.91994	1.02209
2375.99138	1.02405
2374.06281	1.02329
2372.13425	1.01995
2370.20568	1.01949
2368.27712	1.02379
2366.34855	1.02972
2364.41999	1.03454
2362.49143	1.03433
2360.56286	1.03237
2358.63430	1.03383
2356.70573	1.03072
2354.77717	1.02097
2352.84860	1.01503
2350.92004	1.01473
2348.99147	1.01492
2347.06291	1.01434
2345.13435	1.01365
2343.20578	1.01176
2341.27722	1.00836
2339.34865	1.00572
2337.42009	1.00504
2335.49152	1.00477
2333.56296	1.00273
2331.63440	0.99909
2329.70583	0.99648
2327.77727	0.99540
2325.84870	0.99313
2323.92014	0.99033
2321.99157	0.98901
2320.06301	0.98792
2318.13444	0.98556
2316.20588	0.98268
2314.27732	0.98057
2312.34875	0.97904
2310.42019	0.97712
2308.49162	0.97490
2306.56306	0.97317
2304.63449	0.97194
2302.70593	0.97084
2300.77736	0.97025
2298.84880	0.97033
2296.92024	0.97065
2294.99167	0.97082
2293.06311	0.97042
2291.13454	0.96923
2289.20598	0.96784
2287.27741	0.96718
2285.34885	0.96664
2283.42028	0.96536
2281.49172	0.96419
2279.56316	0.96355
2277.63459	0.96271
2275.70603	0.96200
2273.77746	0.96178
2271.84890	0.96126
2269.92033	0.96025
2267.99177	0.95951
2266.06320	0.95929
2264.13464	0.95922
2262.20608	0.95941
2260.27751	0.96011
2258.34895	0.96058
2256.42038	0.96038
2254.49182	0.95999
2252.56325	0.95944
2250.63469	0.95865
2248.70612	0.95810
2246.77756	0.95810
2244.84900	0.95850
2242.92043	0.95904
2240.99187	0.95925
2239.06330	0.95906
2237.13474	0.95905
2235.20617	0.95926
2233.27761	0.95932
2231.34904	0.95900
2229.42048	0.95807
2227.49192	0.95684
2225.56335	0.95617
2223.63479	0.95616
2221.70622	0.95589
2219.77766	0.95516
2217.84909	0.95463
2215.92053	0.95412
2213.99196	0.95310
2212.06340	0.95161
2210.13484	0.95027
2208.20627	0.94967
2206.27771	0.94913
2204.34914	0.94807
2202.42058	0.94716
2200.49201	0.94659
2198.56345	0.94600
2196.63488	0.94552
2194.70632	0.94540
2192.77776	0.94559
2190.84919	0.94566
2188.92063	0.94545
2186.99206	0.94536
2185.06350	0.94559
2183.13493	0.94562
2181.20637	0.94507
2179.27781	0.94435
2177.34924	0.94389
2175.42068	0.94344
2173.49211	0.94271
2171.56355	0.94191
2169.63498	0.94132
2167.70642	0.94097
2165.77785	0.94034
2163.84929	0.93905
2161.92073	0.93787
2159.99216	0.93764
2158.06360	0.93810
2156.13503	0.93854
2154.20647	0.93839
2152.27790	0.93767
2150.34934	0.93706
2148.42077	0.93695
2146.49221	0.93707
2144.56365	0.93730
2142.63508	0.93755
2140.70652	0.93785
2138.77795	0.93844
2136.84939	0.93895
2134.92082	0.93861
2132.99226	0.93763
2131.06369	0.93684
2129.13513	0.93627
2127.20657	0.93557
2125.27800	0.93466
2123.34944	0.93346
2121.42087	0.93247
2119.49231	0.93204
2117.56374	0.93177
2115.63518	0.93139
2113.70661	0.93069
2111.77805	0.92962
2109.84949	0.92871
2107.92092	0.92816
2105.99236	0.92776
2104.06379	0.92748
2102.13523	0.92688
2100.20666	0.92585
2098.27810	0.92520
2096.34953	0.92498
2094.42097	0.92444
2092.49241	0.92335
2090.56384	0.92240
2088.63528	0.92209
2086.70671	0.92186
2084.77815	0.92130
2082.84958	0.92068
2080.92102	0.92001
2078.99245	0.91904
2077.06389	0.91813
2075.13533	0.91771
2073.20676	0.91774
2071.27820	0.91763
2069.34963	0.91685
2067.42107	0.91583
2065.49250	0.91512
2063.56394	0.91409
2061.63537	0.91236
2059.70681	0.91086
2057.77825	0.91020
2055.84968	0.90963
2053.92112	0.90830
2051.99255	0.90643
2050.06399	0.90485
2048.13542	0.90345
2046.20686	0.90167
2044.27830	0.89979
2042.34973	0.89784
2040.42117	0.89561
2038.49260	0.89371
2036.56404	0.89239
2034.63547	0.89129
2032.70691	0.89039
2030.77834	0.88955
2028.84978	0.88836
2026.92122	0.88681
2024.99265	0.88543
2023.06409	0.88457
2021.13552	0.88386
2019.20696	0.88305
2017.27839	0.88222
2015.34983	0.88113
2013.42126	0.87972
2011.49270	0.87864
2009.56414	0.87832
2007.63557	0.87803
2005.70701	0.87713
2003.77844	0.87583
2001.84988	0.87431
1999.92131	0.87291
1997.99275	0.87185
1996.06418	0.87083
1994.13562	0.86959
1992.20706	0.86823
1990.27849	0.86705
1988.34993	0.86602
1986.42136	0.86480
1984.49280	0.86333
1982.56423	0.86214
1980.63567	0.86157
1978.70710	0.86110
1976.77854	0.86029
1974.84998	0.85921
1972.92141	0.85812
1970.99285	0.85743
1969.06428	0.85722
1967.13572	0.85692
1965.20715	0.85620
1963.27859	0.85548
1961.35002	0.85522
1959.42146	0.85524
1957.49290	0.85480
1955.56433	0.85371
1953.63577	0.85262
1951.70720	0.85193
1949.77864	0.85143
1947.85007	0.85063
1945.92151	0.84932
1943.99294	0.84823
1942.06438	0.84782
1940.13582	0.84722
1938.20725	0.84628
1936.27869	0.84557
1934.35012	0.84492
1932.42156	0.84389
1930.49299	0.84248
1928.56443	0.84120
1926.63586	0.84045
1924.70730	0.84004
1922.77874	0.83970
1920.85017	0.83933
1918.92161	0.83891
1916.99304	0.83833
1915.06448	0.83754
1913.13591	0.83673
1911.20735	0.83595
1909.27878	0.83548
1907.35022	0.83535
1905.42166	0.83516
1903.49309	0.83494
1901.56453	0.83479
1899.63596	0.83457
1897.70740	0.83443
1895.77883	0.83464
1893.85027	0.83484
1891.92171	0.83458
1889.99314	0.83416
1888.06458	0.83383
1886.13601	0.83323
1884.20745	0.83224
1882.27888	0.83122
1880.35032	0.83035
1878.42175	0.82932
1876.49319	0.82805
1874.56463	0.82650
1872.63606	0.82447
1870.70750	0.82245
1868.77893	0.82154
1866.85037	0.82115
1864.92180	0.81995
1862.99324	0.81832
1861.06467	0.81720
1859.13611	0.81707
1857.20755	0.81737
1855.27898	0.81746
1853.35042	0.81745
1851.42185	0.81740
1849.49329	0.81717
1847.56472	0.81711
1845.63616	0.81794
1843.70759	0.81938
1841.77903	0.81992
1839.85047	0.81973
1837.92190	0.81969
1835.99334	0.81983
1834.06477	0.81944
1832.13621	0.81870
1830.20764	0.81848
1828.27908	0.81837
1826.35051	0.81789
1824.42195	0.81797
1822.49339	0.81817
1820.56482	0.81773
1818.63626	0.81737
1816.70769	0.81764
1814.77913	0.81821
1812.85056	0.81877
1810.92200	0.81935
1808.99343	0.81990
1807.06487	0.82048
1805.13631	0.82117
1803.20774	0.82203
1801.27918	0.82321
1799.35061	0.82446
1797.42205	0.82572
1795.49348	0.82709
1793.56492	0.82892
1791.63635	0.83139
1789.70779	0.83258
1787.77923	0.83280
1785.85066	0.83358
1783.92210	0.83494
1781.99353	0.83638
1780.06497	0.83790
1778.13640	0.83894
1776.20784	0.83898
1774.27927	0.83895
1772.35071	0.84081
1770.42215	0.84353
1768.49358	0.84508
1766.56502	0.84594
1764.63645	0.84644
1762.70789	0.84797
1760.77932	0.85075
1758.85076	0.85304
1756.92220	0.85591
1754.99363	0.85918
1753.06507	0.86186
1751.13650	0.86562
1749.20794	0.87176
1747.27937	0.87843
1745.35081	0.88456
1743.42224	0.89052
1741.49368	0.89668
1739.56512	0.90307
1737.63655	0.90769
1735.70799	0.91211
1733.77942	0.92177
1731.85086	0.93086
1729.92229	0.93698
1727.99373	0.94438
1726.06516	0.95295
1724.13660	0.96343
1722.20804	0.97409
1720.27947	0.98331
1718.35091	0.99760
1716.42234	1.02378
1714.49378	1.04541
1712.56521	1.06014
1710.63665	1.07452
1708.70808	1.09041
1706.77952	1.11321
1704.85096	1.14426
1702.92239	1.17299
1700.99383	1.21316
1699.06526	1.27894
1697.13670	1.34174
1695.20813	1.40291
1693.27957	1.44856
1691.35100	1.48410
1689.42244	1.52536
1687.49388	1.56154
1685.56531	1.59550
1683.63675	1.64656
1681.70818	1.68146
1679.77962	1.70041
1677.85105	1.71749
1675.92249	1.73265
1673.99392	1.74352
1672.06536	1.75416
1670.13680	1.77118
1668.20823	1.78662
1666.27967	1.78808
1664.35110	1.78643
1662.42254	1.79114
1660.49397	1.79702
1658.56541	1.79749
1656.63684	1.79439
1654.70828	1.79364
1652.77972	1.79514
1650.85115	1.78950
1648.92259	1.78208
1646.99402	1.77574
1645.06546	1.77385
1643.13689	1.77055
1641.20833	1.76492
1639.27976	1.75775
1637.35120	1.75088
1635.42264	1.74767
1633.49407	1.74602
1631.56551	1.74240
1629.63694	1.73484
1627.70838	1.72508
1625.77981	1.71821
1623.85125	1.71422
1621.92269	1.70909
1619.99412	1.70368
1618.06556	1.69771
1616.13699	1.68572
1614.20843	1.67258
1612.27986	1.66002
1610.35130	1.64535
1608.42273	1.63062
1606.49417	1.61914
1604.56561	1.61102
1602.63704	1.60469
1600.70848	1.60043
1598.77991	1.59660
1596.85135	1.59111
1594.92278	1.58689
1592.99422	1.58669
1591.06565	1.58770
1589.13709	1.58895
1587.20853	1.59353
1585.27996	1.60170
1583.35140	1.61099
1581.42283	1.61861
1579.49427	1.62498
1577.56570	1.63620
1575.63714	1.65130
1573.70857	1.65568
1571.78001	1.65532
1569.85145	1.66035
1567.92288	1.67150
1565.99432	1.68237
1564.06575	1.69160
1562.13719	1.69561
1560.20862	1.69980
1558.28006	1.71477
1556.35149	1.71431
1554.42293	1.71067
1552.49437	1.71242
1550.56580	1.71423
1548.63724	1.71229
1546.70867	1.70870
1544.78011	1.70518
1542.85154	1.69881
1540.92298	1.68778
1538.99441	1.68914
1537.06585	1.69398
1535.13729	1.69334
1533.20872	1.68665
1531.28016	1.67572
1529.35159	1.66811
1527.42303	1.66553
1525.49446	1.66101
1523.56590	1.65030
1521.63733	1.63927
1519.70877	1.63304
1517.78021	1.62552
1515.85164	1.61677
1513.92308	1.60914
1511.99451	1.59949
1510.06595	1.58901
1508.13738	1.57637
1506.20882	1.55202
1504.28025	1.53465
1502.35169	1.52265
1500.42313	1.50955
1498.49456	1.49282
1496.56600	1.47256
1494.63743	1.45507
1492.70887	1.44023
1490.78030	1.42217
1488.85174	1.40419
1486.92317	1.39693
1484.99461	1.39411
1483.06605	1.39265
1481.13748	1.39423
1479.20892	1.39800
1477.28035	1.40284
1475.35179	1.41033
1473.42322	1.42666
1471.49466	1.45013
1469.56610	1.46481
1467.63753	1.47373
1465.70897	1.48288
1463.78040	1.48980
1461.85184	1.49134
1459.92327	1.49172
1457.99471	1.49861
1456.06614	1.51134
1454.13758	1.51434
1452.20902	1.51290
1450.28045	1.51040
1448.35189	1.50681
1446.42332	1.50266
1444.49476	1.49861
1442.56619	1.49543
1440.63763	1.49259
1438.70906	1.48685
1436.78050	1.47728
1434.85194	1.46969
1432.92337	1.46550
1430.99481	1.46162
1429.06624	1.45706
1427.13768	1.45355
1425.20911	1.45269
1423.28055	1.45341
1421.35198	1.45460
1419.42342	1.45876
1417.49486	1.46315
1415.56629	1.46245
1413.63773	1.46054
1411.70916	1.46019
1409.78060	1.46053
1407.85203	1.45950
1405.92347	1.45697
1403.99490	1.45368
1402.06634	1.45084
1400.13778	1.44988
1398.20921	1.45013
1396.28065	1.44909
1394.35208	1.44790
1392.42352	1.44787
1390.49495	1.44798
1388.56639	1.45070
1386.63782	1.45925
1384.70926	1.46839
1382.78070	1.47381
1380.85213	1.47793
1378.92357	1.48272
1376.99500	1.48541
1375.06644	1.48224
1373.13787	1.47415
1371.20931	1.46544
1369.28074	1.45555
1367.35218	1.44345
1365.42362	1.43242
1363.49505	1.42376
1361.56649	1.41616
1359.63792	1.40888
1357.70936	1.40211
1355.78079	1.39700
1353.85223	1.39408
1351.92366	1.39240
1349.99510	1.39136
1348.06654	1.39016
1346.13797	1.38780
1344.20941	1.38484
1342.28084	1.38224
1340.35228	1.38025
1338.42371	1.37892
1336.49515	1.37855
1334.56659	1.37992
1332.63802	1.38306
1330.70946	1.38623
1328.78089	1.38719
1326.85233	1.38583
1324.92376	1.38450
1322.99520	1.38485
1321.06663	1.38604
1319.13807	1.38743
1317.20951	1.38908
1315.28094	1.38997
1313.35238	1.38978
1311.42381	1.38970
1309.49525	1.39005
1307.56668	1.38977
1305.63812	1.38816
1303.70955	1.38581
1301.78099	1.38385
1299.85243	1.38233
1297.92386	1.37939
1295.99530	1.37457
1294.06673	1.37054
1292.13817	1.36872
1290.20960	1.36805
1288.28104	1.36765
1286.35247	1.36721
1284.42391	1.36654
1282.49535	1.36621
1280.56678	1.36729
1278.63822	1.36916
1276.70965	1.37026
1274.78109	1.37125
1272.85252	1.37400
1270.92396	1.37823
1268.99539	1.38194
1267.06683	1.38490
1265.13827	1.38821
1263.20970	1.39074
1261.28114	1.39128
1259.35257	1.39101
1257.42401	1.39114
1255.49544	1.39127
1253.56688	1.39063
1251.63831	1.38957
1249.70975	1.38885
1247.78119	1.38785
1245.85262	1.38628
1243.92406	1.38478
1241.99549	1.38358
1240.06693	1.38175
1238.13836	1.37700
1236.20980	1.36922
1234.28123	1.36185
1232.35267	1.35625
1230.42411	1.35064
1228.49554	1.34406
1226.56698	1.33652
1224.63841	1.32863
1222.70985	1.32126
1220.78128	1.31371
1218.85272	1.30509
1216.92415	1.29730
1214.99559	1.29303
1213.06703	1.29171
1211.13846	1.29188
1209.20990	1.29314
1207.28133	1.29390
1205.35277	1.29291
1203.42420	1.29016
1201.49564	1.28487
1199.56708	1.27674
1197.63851	1.26730
1195.70995	1.25838
1193.78138	1.25012
1191.85282	1.24129
1189.92425	1.23232
1187.99569	1.22559
1186.06712	1.22190
1184.13856	1.22014
1182.21000	1.22004
1180.28143	1.22197
1178.35287	1.22626
1176.42430	1.23334
1174.49574	1.24261
1172.56717	1.25262
1170.63861	1.26288
1168.71004	1.27582
1166.78148	1.29454
1164.85292	1.31795
1162.92435	1.34174
1160.99579	1.36205
1159.06722	1.37580
1157.13866	1.38334
1155.21009	1.38707
1153.28153	1.38615
1151.35296	1.37999
1149.42440	1.37045
1147.49584	1.35917
1145.56727	1.34875
1143.63871	1.34063
1141.71014	1.33384
1139.78158	1.32831
1137.85301	1.32498
1135.92445	1.32479
1133.99588	1.32883
1132.06732	1.33805
1130.13876	1.35148
1128.21019	1.36430
1126.28163	1.37349
1124.35306	1.38127
1122.42450	1.38915
1120.49593	1.39680
1118.56737	1.40323
1116.63880	1.40744
1114.71024	1.41042
1112.78168	1.41156
1110.85311	1.41036
1108.92455	1.41029
1106.99598	1.41212
1105.06742	1.41204
1103.13885	1.40895
1101.21029	1.40735
1099.28172	1.41094
1097.35316	1.41717
1095.42460	1.42264
1093.49603	1.42731
1091.56747	1.43282
1089.63890	1.44211
1087.71034	1.45502
1085.78177	1.46801
1083.85321	1.48058
1081.92464	1.49272
1079.99608	1.50181
1078.06752	1.50560
1076.13895	1.50297
1074.21039	1.49579
1072.28182	1.48847
1070.35326	1.48283
1068.42469	1.47658
1066.49613	1.46847
1064.56756	1.46015
1062.63900	1.45134
1060.71044	1.44221
1058.78187	1.43603
1056.85331	1.43362
1054.92474	1.43243
1052.99618	1.43177
1051.06761	1.43340
1049.13905	1.43763
1047.21049	1.44207
1045.28192	1.44502
1043.35336	1.44941
1041.42479	1.45791
1039.49623	1.46526
1037.56766	1.46559
1035.63910	1.46384
1033.71053	1.46604
1031.78197	1.46879
1029.85341	1.46913
1027.92484	1.46846
1025.99628	1.46628
1024.06771	1.46198
1022.13915	1.45563
1020.21058	1.44752
1018.28202	1.43962
1016.35345	1.43231
1014.42489	1.42194
1012.49633	1.40674
1010.56776	1.39040
1008.63920	1.37553
1006.71063	1.36110
1004.78207	1.34598
1002.85350	1.33113
1000.92494	1.31822
998.99637	1.30712
997.06781	1.29783
995.13925	1.29085
993.21068	1.28463
991.28212	1.27763
989.35355	1.26959
987.42499	1.25934
985.49642	1.24669
983.56786	1.23379
981.63929	1.22230
979.71073	1.21260
977.78217	1.20399
975.85360	1.19553
973.92504	1.18637
971.99647	1.17567
970.06791	1.16362
968.13934	1.15108
966.21078	1.13980
964.28221	1.13160
962.35365	1.12655
960.42509	1.12516
958.49652	1.12798
956.56796	1.13221
954.63939	1.13271
952.71083	1.12712
950.78226	1.11797
948.85370	1.10909
946.92513	1.10215
944.99657	1.09648
943.06801	1.09135
941.13944	1.08736
939.21088	1.08510
937.28231	1.08402
935.35375	1.08326
933.42518	1.08275
931.49662	1.08319
929.56805	1.08519
927.63949	1.08785
925.71093	1.08951
923.78236	1.09067
921.85380	1.09258
919.92523	1.09436
917.99667	1.09438
916.06810	1.09267
914.13954	1.09005
912.21098	1.08672
910.28241	1.08376
908.35385	1.08310
906.42528	1.08472
904.49672	1.08671
902.56815	1.08767
900.63959	1.08733
898.71102	1.08618
896.78246	1.08430
894.85390	1.08120
892.92533	1.07733
890.99677	1.07326
889.06820	1.06954
887.13964	1.06753
885.21107	1.06756
883.28251	1.06877
881.35394	1.07109
879.42538	1.07449
877.49682	1.07872
875.56825	1.08413
873.63969	1.09051
871.71112	1.09659
869.78256	1.10179
867.85399	1.10706
865.92543	1.11308
863.99686	1.11915
862.06830	1.12435
860.13974	1.12826
858.21117	1.13080
856.28261	1.13194
854.35404	1.13182
852.42548	1.13177
850.49691	1.13228
848.56835	1.13184
846.63978	1.13007
844.71122	1.12750
842.78266	1.12407
840.85409	1.12098
838.92553	1.11913
836.99696	1.11736
835.06840	1.11555
833.13983	1.11414
831.21127	1.11241
829.28270	1.11101
827.35414	1.11109
825.42558	1.11177
823.49701	1.11231
821.56845	1.11329
819.63988	1.11454
817.71132	1.11554
815.78275	1.11700
813.85419	1.11995
811.92562	1.12415
809.99706	1.12832
808.06850	1.13136
806.13993	1.13334
804.21137	1.13598
802.28280	1.13955
800.35424	1.14191
798.42567	1.14378
796.49711	1.14756
794.56854	1.15225
792.63998	1.15662
790.71142	1.16126
788.78285	1.16564
786.85429	1.17013
784.92572	1.17649
782.99716	1.18385
781.06859	1.19036
779.14003	1.19584
777.21147	1.20123
775.28290	1.20838
773.35434	1.21761
771.42577	1.22607
769.49721	1.23138
767.56864	1.23494
765.64008	1.23936
763.71151	1.24483
761.78295	1.25004
759.85439	1.25424
757.92582	1.25798
755.99726	1.26218
754.06869	1.26551
752.14013	1.26668
750.21156	1.26822
748.28300	1.27228
746.35443	1.27677
744.42587	1.27890
742.49731	1.27800
740.56874	1.27575
738.64018	1.27503
736.71161	1.27550
734.78305	1.27409
732.85448	1.27138
730.92592	1.27081
728.99735	1.27313
727.06879	1.27626
725.14023	1.27846
723.21166	1.28014
721.28310	1.28323
719.35453	1.28659
717.42597	1.28736
715.49740	1.28736
713.56884	1.28864
711.64027	1.29020
709.71171	1.29196
707.78315	1.29446
705.85458	1.29762
703.92602	1.30013
701.99745	1.29902
700.06889	1.29440
698.14032	1.29051
696.21176	1.28992
694.28319	1.29128
692.35463	1.29216
690.42607	1.29226
688.49750	1.29466
686.56894	1.30147
684.64037	1.30771
682.71181	1.30786
680.78324	1.30576
678.85468	1.30739
676.92611	1.31232
674.99755	1.32038
673.06899	1.32992
671.14042	1.33351
669.21186	1.33081
667.28329	1.33321
665.35473	1.33565
663.42616	1.33414
661.49760	1.33538
659.56903	1.33999
657.64047	1.34321
655.71191	1.34466
653.78334	1.34427
651.85478	1.34278
649.92621	1.34157
647.99765	1.33887
646.06908	1.33520
644.14052	1.33205
642.21195	1.32974
640.28339	1.33054
638.35483	1.33303
636.42626	1.33161
634.49770	1.32742
632.56913	1.32546
630.64057	1.32524
628.71200	1.32382
626.78344	1.32023
624.85488	1.31805
622.92631	1.32001
620.99775	1.32189
619.06918	1.32274
617.14062	1.32567
615.21205	1.32659
613.28349	1.32444
611.35492	1.32727
609.42636	1.33524
607.49780	1.34030
605.56923	1.34040
603.64067	1.33861
601.71210	1.33868
599.78354	1.34083
