3997.91406	0.89995
3995.98550	0.90012
3994.05693	0.90098
3992.12837	0.90218
3990.19980	0.90130
3988.27124	0.89956
3986.34268	0.89873
3984.41411	0.89824
3982.48555	0.89739
3980.55698	0.89602
3978.62842	0.89518
3976.69985	0.89638
3974.77129	0.89783
3972.84272	0.89590
3970.91416	0.89185
3968.98560	0.89008
3967.05703	0.89089
3965.12847	0.89188
3963.19990	0.89234
3961.27134	0.89136
3959.34277	0.88846
3957.41421	0.88669
3955.48564	0.88829
3953.55708	0.89031
3951.62852	0.89018
3949.69995	0.88964
3947.77139	0.89002
3945.84282	0.89048
3943.91426	0.89063
3941.98569	0.89083
3940.05713	0.89132
3938.12856	0.89179
3936.20000	0.89134
3934.27144	0.88937
3932.34287	0.88783
3930.41431	0.88754
3928.48574	0.88572
3926.55718	0.88253
3924.62861	0.88029
3922.70005	0.87992
3920.77148	0.88026
3918.84292	0.88027
3916.91436	0.88062
3914.98579	0.88228
3913.05723	0.88383
3911.12866	0.88360
3909.20010	0.88221
3907.27153	0.88063
3905.34297	0.87827
3903.41440	0.87727
3901.48584	0.87931
3899.55728	0.87924
3897.62871	0.87669
3895.70015	0.87531
3893.77158	0.87487
3891.84302	0.87249
3889.91445	0.86876
3887.98589	0.86791
3886.05733	0.87042
3884.12876	0.87151
3882.20020	0.86916
3880.27163	0.86860
3878.34307	0.87059
3876.41450	0.87118
3874.48594	0.87070
3872.55737	0.87233
3870.62881	0.87509
3868.70025	0.87368
3866.77168	0.87001
3864.84312	0.86680
3862.91455	0.86421
3860.98599	0.86347
3859.05742	0.86470
3857.12886	0.86647
3855.20029	0.86524
3853.27173	0.86024
3851.34317	0.86231
3849.41460	0.86586
3847.48604	0.86574
3845.55747	0.86278
3843.62891	0.85955
3841.70034	0.85865
3839.77178	0.86105
3837.84321	0.86435
3835.91465	0.86359
3833.98609	0.86058
3832.05752	0.85959
3830.12896	0.86119
3828.20039	0.86264
3826.27183	0.86221
3824.34326	0.86130
3822.41470	0.86199
3820.48613	0.86246
3818.55757	0.86005
3816.62901	0.85744
3814.70044	0.85582
3812.77188	0.85417
3810.84331	0.85311
3808.91475	0.85334
3806.98618	0.85287
3805.05762	0.85097
3803.12905	0.85028
3801.20049	0.85135
3799.27193	0.85266
3797.34336	0.85403
3795.41480	0.85455
3793.48623	0.85311
3791.55767	0.85147
3789.62910	0.85134
3787.70054	0.85158
3785.77197	0.85091
3783.84341	0.85016
3781.91485	0.85044
3779.98628	0.85179
3778.05772	0.85204
3776.12915	0.85044
3774.20059	0.84875
3772.27202	0.84776
3770.34346	0.84772
3768.41489	0.84703
3766.48633	0.84475
3764.55777	0.84321
3762.62920	0.84282
3760.70064	0.84301
3758.77207	0.84410
3756.84351	0.84382
3754.91494	0.84171
3752.98638	0.84123
3751.05781	0.84457
3749.12925	0.84534
3747.20069	0.84480
3745.27212	0.84663
3743.34356	0.84433
3741.41499	0.83866
3739.48643	0.83518
3737.55786	0.83538
3735.62930	0.84153
3733.70074	0.84685
3731.77217	0.84342
3729.84361	0.83923
3727.91504	0.83865
3725.98648	0.83951
3724.05791	0.83878
3722.12935	0.83661
3720.20078	0.83460
3718.27222	0.83384
3716.34366	0.83362
3714.41509	0.83363
3712.48653	0.83363
3710.55796	0.83190
3708.62940	0.83078
3706.70083	0.83130
3704.77227	0.83213
3702.84370	0.83316
3700.91514	0.83374
3698.98658	0.83383
3697.05801	0.83479
3695.12945	0.83633
3693.20088	0.83676
3691.27232	0.83665
3689.34375	0.83888
3687.41519	0.83919
3685.48662	0.83634
3683.55806	0.83440
3681.62950	0.83450
3679.70093	0.83584
3677.77237	0.83729
3675.84380	0.84043
3673.91524	0.84527
3671.98667	0.84846
3670.05811	0.85281
3668.12954	0.85636
3666.20098	0.85763
3664.27242	0.85963
3662.34385	0.86207
3660.41529	0.86341
3658.48672	0.86501
3656.55816	0.86965
3654.62959	0.87480
3652.70103	0.87706
3650.77246	0.87905
3648.84390	0.88702
3646.91534	0.89589
3644.98677	0.90028
3643.05821	0.90378
3641.12964	0.90779
3639.20108	0.91201
3637.27251	0.91631
3635.34395	0.92049
3633.41538	0.92508
3631.48682	0.93086
3629.55826	0.93647
3627.62969	0.93881
3625.70113	0.94136
3623.77256	0.94623
3621.84400	0.95280
3619.91543	0.95999
3617.98687	0.96631
3616.05830	0.97389
3614.12974	0.98266
3612.20118	0.98771
3610.27261	0.99005
3608.34405	0.99430
3606.41548	0.99822
3604.48692	0.99922
3602.55835	1.00123
3600.62979	1.00721
3598.70123	1.01364
3596.77266	1.01818
3594.84410	1.02407
3592.91553	1.03142
3590.98697	1.03592
3589.05840	1.03675
3587.12984	1.03827
3585.20127	1.04361
3583.27271	1.04881
3581.34415	1.05366
3579.41558	1.06110
3577.48702	1.07039
3575.55845	1.07838
3573.62989	1.08370
3571.70132	1.08764
3569.77276	1.09258
3567.84419	1.09928
3565.91563	1.10747
3563.98707	1.11585
3562.05850	1.12248
3560.12994	1.12811
3558.20137	1.13347
3556.27281	1.13673
3554.34424	1.14035
3552.41568	1.14856
3550.48711	1.15605
3548.55855	1.15820
3546.62999	1.16109
3544.70142	1.16817
3542.77286	1.17374
3540.84429	1.17777
3538.91573	1.18364
3536.98716	1.19039
3535.05860	1.19674
3533.13003	1.20321
3531.20147	1.20884
3529.27291	1.21233
3527.34434	1.21673
3525.41578	1.22488
3523.48721	1.23217
3521.55865	1.23416
3519.63008	1.23460
3517.70152	1.23765
3515.77295	1.24343
3513.84439	1.25150
3511.91583	1.26051
3509.98726	1.26970
3508.05870	1.28025
3506.13013	1.29226
3504.20157	1.30527
3502.27300	1.31498
3500.34444	1.31830
3498.41587	1.32153
3496.48731	1.32949
3494.55875	1.33919
3492.63018	1.34550
3490.70162	1.34709
3488.77305	1.34525
3486.84449	1.34347
3484.91592	1.34588
3482.98736	1.35208
3481.05879	1.35711
3479.13023	1.35906
3477.20167	1.35938
3475.27310	1.35959
3473.34454	1.36325
3471.41597	1.37070
3469.48741	1.37790
3467.55884	1.38231
3465.63028	1.38491
3463.70171	1.38634
3461.77315	1.38634
3459.84459	1.38826
3457.91602	1.39436
3455.98746	1.39962
3454.05889	1.39897
3452.13033	1.39621
3450.20176	1.39461
3448.27320	1.39311
3446.34464	1.39722
3444.41607	1.40885
3442.48751	1.41966
3440.55894	1.42363
3438.63038	1.42169
3436.70181	1.41862
3434.77325	1.41640
3432.84468	1.41364
3430.91612	1.41149
3428.98756	1.41462
3427.05899	1.42229
3425.13043	1.42770
3423.20186	1.42791
3421.27330	1.42403
3419.34473	1.42134
3417.41617	1.42303
3415.48760	1.42365
3413.55904	1.42076
3411.63048	1.41787
3409.70191	1.41799
3407.77335	1.42133
3405.84478	1.42451
3403.91622	1.42791
3401.98765	1.43415
3400.05909	1.43780
3398.13052	1.43397
3396.20196	1.42764
3394.27340	1.42325
3392.34483	1.42052
3390.41627	1.42065
3388.48770	1.42309
3386.55914	1.42519
3384.63057	1.42707
3382.70201	1.42741
3380.77344	1.42631
3378.84488	1.42848
3376.91632	1.43384
3374.98775	1.43766
3373.05919	1.43907
3371.13062	1.44004
3369.20206	1.43868
3367.27349	1.43346
3365.34493	1.42845
3363.41636	1.42630
3361.48780	1.42597
3359.55924	1.42632
3357.63067	1.42943
3355.70211	1.43491
3353.77354	1.43520
3351.84498	1.43289
3349.91641	1.43728
3347.98785	1.44336
3346.05928	1.44433
3344.13072	1.44545
3342.20216	1.44716
3340.27359	1.44541
3338.34503	1.44901
3336.41646	1.45859
3334.48790	1.45756
3332.55933	1.44861
3330.63077	1.44687
3328.70220	1.45220
3326.77364	1.45510
3324.84508	1.45143
3322.91651	1.45119
3320.98795	1.46255
3319.05938	1.47596
3317.13082	1.48018
3315.20225	1.47809
3313.27369	1.47888
3311.34513	1.48585
3309.41656	1.49171
3307.48800	1.49138
3305.55943	1.49234
3303.63087	1.49635
3301.70230	1.49742
3299.77374	1.49815
3297.84517	1.50085
3295.91661	1.50142
3293.98805	1.49863
3292.05948	1.49634
3290.13092	1.49856
3288.20235	1.50212
3286.27379	1.50270
3284.34522	1.50146
3282.41666	1.49848
3280.48809	1.49439
3278.55953	1.49198
3276.63097	1.49018
3274.70240	1.48807
3272.77384	1.48868
3270.84527	1.49109
3268.91671	1.49144
3266.98814	1.48947
3265.05958	1.48652
3263.13101	1.48364
3261.20245	1.48202
3259.27389	1.48213
3257.34532	1.48252
3255.41676	1.48014
3253.48819	1.47324
3251.55963	1.46406
3249.63106	1.45579
3247.70250	1.44870
3245.77393	1.44239
3243.84537	1.43511
3241.91681	1.42430
3239.98824	1.41375
3238.05968	1.40900
3236.13111	1.40872
3234.20255	1.40628
3232.27398	1.39857
3230.34542	1.39098
3228.41685	1.38798
3226.48829	1.38766
3224.55973	1.38708
3222.63116	1.38361
3220.70260	1.37881
3218.77403	1.37778
3216.84547	1.37701
3214.91690	1.37219
3212.98834	1.36909
3211.05977	1.36870
3209.13121	1.36546
3207.20265	1.35855
3205.27408	1.34998
3203.34552	1.34214
3201.41695	1.33745
3199.48839	1.33628
3197.55982	1.33600
3195.63126	1.33468
3193.70269	1.33292
3191.77413	1.32799
3189.84557	1.31716
3187.91700	1.30455
3185.98844	1.29560
3184.05987	1.29103
3182.13131	1.28874
3180.20274	1.28687
3178.27418	1.28360
3176.34562	1.27848
3174.41705	1.27334
3172.48849	1.26994
3170.55992	1.26700
3168.63136	1.26316
3166.70279	1.26036
3164.77423	1.25772
3162.84566	1.25284
3160.91710	1.24799
3158.98854	1.24426
3157.05997	1.23950
3155.13141	1.23411
3153.20284	1.23019
3151.27428	1.22777
3149.34571	1.22629
3147.41715	1.22458
3145.48858	1.22016
3143.56002	1.21506
3141.63146	1.21406
3139.70289	1.21561
3137.77433	1.21535
3135.84576	1.21335
3133.91720	1.21110
3131.98863	1.20873
3130.06007	1.20780
3128.13150	1.20881
3126.20294	1.20885
3124.27438	1.20672
3122.34581	1.20436
3120.41725	1.20357
3118.48868	1.20415
3116.56012	1.20361
3114.63155	1.20107
3112.70299	1.19936
3110.77442	1.20016
3108.84586	1.20120
3106.91730	1.20052
3104.98873	1.19857
3103.06017	1.19685
3101.13160	1.19774
3099.20304	1.20059
3097.27447	1.20123
3095.34591	1.19927
3093.41734	1.19781
3091.48878	1.19698
3089.56022	1.19504
3087.63165	1.19258
3085.70309	1.19075
3083.77452	1.18859
3081.84596	1.18449
3079.91739	1.17930
3077.98883	1.17536
3076.06026	1.17320
3074.13170	1.17159
3072.20314	1.16883
3070.27457	1.16421
3068.34601	1.15844
3066.41744	1.15310
3064.48888	1.15001
3062.56031	1.14787
3060.63175	1.14355
3058.70318	1.13725
3056.77462	1.13172
3054.84606	1.12827
3052.91749	1.12531
3050.98893	1.12120
3049.06036	1.11723
3047.13180	1.11487
3045.20323	1.11222
3043.27467	1.10844
3041.34610	1.10590
3039.41754	1.10427
3037.48898	1.10082
3035.56041	1.09586
3033.63185	1.09107
3031.70328	1.08674
3029.77472	1.08328
3027.84615	1.08084
3025.91759	1.07874
3023.98903	1.07685
3022.06046	1.07502
3020.13190	1.07251
3018.20333	1.06900
3016.27477	1.06560
3014.34620	1.06270
3012.41764	1.05911
3010.48907	1.05487
3008.56051	1.05116
3006.63195	1.04867
3004.70338	1.04711
3002.77482	1.04576
3000.84625	1.04473
2998.91769	1.04371
2996.98912	1.04245
2995.06056	1.04268
2993.13199	1.04542
2991.20343	1.04886
2989.27487	1.05186
2987.34630	1.05481
2985.41774	1.05782
2983.48917	1.06220
2981.56061	1.06888
2979.63204	1.07549
2977.70348	1.08062
2975.77491	1.08640
2973.84635	1.09370
2971.91779	1.10089
2969.98922	1.10784
2968.06066	1.11559
2966.13209	1.12317
2964.20353	1.12881
2962.27496	1.13263
2960.34640	1.13537
2958.41783	1.13573
2956.48927	1.13168
2954.56071	1.12443
2952.63214	1.11741
2950.70358	1.11265
2948.77501	1.11072
2946.84645	1.11144
2944.91788	1.11460
2942.98932	1.12133
2941.06075	1.13174
2939.13219	1.14374
2937.20363	1.15616
2935.27506	1.16909
2933.34650	1.18244
2931.41793	1.19561
2929.48937	1.20758
2927.56080	1.21852
2925.63224	1.22951
2923.70367	1.24052
2921.77511	1.24915
2919.84655	1.25345
2917.91798	1.25329
2915.98942	1.24459
2914.06085	1.22331
2912.13229	1.19423
2910.20372	1.16667
2908.27516	1.14604
2906.34659	1.13169
2904.41803	1.12224
2902.48947	1.11663
2900.56090	1.11200
2898.63234	1.10770
2896.70377	1.10430
2894.77521	1.10002
2892.84664	1.09408
2890.91808	1.08751
2888.98952	1.08015
2887.06095	1.07273
2885.13239	1.06791
2883.20382	1.06590
2881.27526	1.06514
2879.34669	1.06476
2877.41813	1.06282
2875.48956	1.05884
2873.56100	1.05567
2871.63244	1.05361
2869.70387	1.05018
2867.77531	1.04612
2865.84674	1.04364
2863.91818	1.04296
2861.98961	1.04460
2860.06105	1.04989
2858.13248	1.05894
2856.20392	1.07054
2854.27536	1.08371
2852.34679	1.09672
2850.41823	1.10350
2848.48966	1.09517
2846.56110	1.07034
2844.63253	1.03959
2842.70397	1.01376
2840.77540	0.99518
2838.84684	0.98223
2836.91828	0.97307
2834.98971	0.96486
2833.06115	0.95678
2831.13258	0.95043
2829.20402	0.94559
2827.27545	0.94111
2825.34689	0.93710
2823.41832	0.93380
2821.48976	0.93030
2819.56120	0.92556
2817.63263	0.92090
2815.70407	0.91798
2813.77550	0.91613
2811.84694	0.91420
2809.91837	0.91182
2807.98981	0.90878
2806.06124	0.90535
2804.13268	0.90221
2802.20412	0.89992
2800.27555	0.89831
2798.34699	0.89624
2796.41842	0.89322
2794.48986	0.89042
2792.56129	0.88836
2790.63273	0.88657
2788.70416	0.88522
2786.77560	0.88413
2784.84704	0.88239
2782.91847	0.88020
2780.98991	0.87845
2779.06134	0.87727
2777.13278	0.87628
2775.20421	0.87479
2773.27565	0.87296
2771.34708	0.87152
2769.41852	0.87025
2767.48996	0.86904
2765.56139	0.86825
2763.63283	0.86730
2761.70426	0.86525
2759.77570	0.86266
2757.84713	0.86112
2755.91857	0.86107
2753.99001	0.86171
2752.06144	0.86135
2750.13288	0.85927
2748.20431	0.85733
2746.27575	0.85657
2744.34718	0.85589
2742.41862	0.85489
2740.49005	0.85392
2738.56149	0.85254
2736.63293	0.85066
2734.70436	0.84906
2732.77580	0.84783
2730.84723	0.84651
2728.91867	0.84462
2726.99010	0.84204
2725.06154	0.83957
2723.13297	0.83790
2721.20441	0.83677
2719.27585	0.83555
2717.34728	0.83402
2715.41872	0.83256
2713.49015	0.83133
2711.56159	0.83007
2709.63302	0.82878
2707.70446	0.82767
2705.77589	0.82679
2703.84733	0.82613
2701.91877	0.82599
2699.99020	0.82593
2698.06164	0.82527
2696.13307	0.82448
2694.20451	0.82385
2692.27594	0.82302
2690.34738	0.82195
2688.41881	0.82087
2686.49025	0.82015
2684.56169	0.82002
2682.63312	0.82002
2680.70456	0.81910
2678.77599	0.81726
2676.84743	0.81567
2674.91886	0.81474
2672.99030	0.81371
2671.06173	0.81192
2669.13317	0.80992
2667.20461	0.80892
2665.27604	0.80891
2663.34748	0.80839
2661.41891	0.80644
2659.49035	0.80396
2657.56178	0.80220
2655.63322	0.80116
2653.70465	0.80031
2651.77609	0.79985
2649.84753	0.79973
2647.91896	0.79956
2645.99040	0.79929
2644.06183	0.79879
2642.13327	0.79821
2640.20470	0.79766
2638.27614	0.79694
2636.34757	0.79609
2634.41901	0.79541
2632.49045	0.79542
2630.56188	0.79579
2628.63332	0.79545
2626.70475	0.79458
2624.77619	0.79395
2622.84762	0.79335
2620.91906	0.79266
2618.99049	0.79216
2617.06193	0.79172
2615.13337	0.79147
2613.20480	0.79110
2611.27624	0.78987
2609.34767	0.78832
2607.41911	0.78720
2605.49054	0.78645
2603.56198	0.78620
2601.63342	0.78622
2599.70485	0.78565
2597.77629	0.78448
2595.84772	0.78340
2593.91916	0.78292
2591.99059	0.78309
2590.06203	0.78324
2588.13346	0.78291
2586.20490	0.78219
2584.27634	0.78076
2582.34777	0.77876
2580.41921	0.77709
2578.49064	0.77593
2576.56208	0.77475
2574.63351	0.77344
2572.70495	0.77212
2570.77638	0.77076
2568.84782	0.76932
2566.91926	0.76785
2564.99069	0.76666
2563.06213	0.76581
2561.13356	0.76510
2559.20500	0.76412
2557.27643	0.76262
2555.34787	0.76110
2553.41930	0.75992
2551.49074	0.75894
2549.56218	0.75823
2547.63361	0.75776
2545.70505	0.75728
2543.77648	0.75697
2541.84792	0.75723
2539.91935	0.75792
2537.99079	0.75847
2536.06222	0.75848
2534.13366	0.75825
2532.20510	0.75821
2530.27653	0.75790
2528.34797	0.75706
2526.41940	0.75661
2524.49084	0.75692
2522.56227	0.75731
2520.63371	0.75733
2518.70514	0.75690
2516.77658	0.75599
2514.84802	0.75492
2512.91945	0.75402
2510.99089	0.75324
2509.06232	0.75266
2507.13376	0.75235
2505.20519	0.75206
2503.27663	0.75135
2501.34806	0.74995
2499.41950	0.74833
2497.49094	0.74744
2495.56237	0.74734
2493.63381	0.74712
2491.70524	0.74622
2489.77668	0.74498
2487.84811	0.74388
2485.91955	0.74301
2483.99098	0.74228
2482.06242	0.74154
2480.13386	0.74061
2478.20529	0.73934
2476.27673	0.73786
2474.34816	0.73684
2472.41960	0.73666
2470.49103	0.73690
2468.56247	0.73662
2466.63391	0.73561
2464.70534	0.73464
2462.77678	0.73408
2460.84821	0.73359
2458.91965	0.73286
2456.99108	0.73230
2455.06252	0.73213
2453.13395	0.73163
2451.20539	0.73075
2449.27683	0.72978
2447.34826	0.72862
2445.41970	0.72779
2443.49113	0.72749
2441.56257	0.72700
2439.63400	0.72642
2437.70544	0.72609
2435.77687	0.72550
2433.84831	0.72444
2431.91975	0.72344
2429.99118	0.72271
2428.06262	0.72209
2426.13405	0.72159
2424.20549	0.72112
2422.27692	0.72048
2420.34836	0.71979
2418.41979	0.71903
2416.49123	0.71813
2414.56267	0.71708
2412.63410	0.71606
2410.70554	0.71537
2408.77697	0.71466
2406.84841	0.71366
2404.91984	0.71285
2402.99128	0.71225
2401.06271	0.71158
2399.13415	0.71086
2397.20559	0.71014
2395.27702	0.70937
2393.34846	0.70841
2391.41989	0.70761
2389.49133	0.70738
2387.56276	0.70718
2385.63420	0.70631
2383.70563	0.70501
2381.77707	0.70364
2379.84851	0.70207
2377.91994	0.70068
2375.99138	0.69985
2374.06281	0.69918
2372.13425	0.69913
2370.20568	0.69825
2368.27712	0.69164
2366.34855	0.68275
2364.41999	0.68114
2362.49143	0.68436
2360.56286	0.68466
2358.63430	0.68537
2356.70573	0.69058
2354.77717	0.69472
2352.84860	0.69543
2350.92004	0.69473
2348.99147	0.69347
2347.06291	0.69215
2345.13435	0.69222
2343.20578	0.69501
2341.27722	0.69754
2339.34865	0.69674
2337.42009	0.69455
2335.49152	0.69361
2333.56296	0.69321
2331.63440	0.69174
2329.70583	0.69037
2327.77727	0.68986
2325.84870	0.68962
2323.92014	0.69002
2321.99157	0.69018
2320.06301	0.68900
2318.13444	0.68767
2316.20588	0.68715
2314.27732	0.68668
2312.34875	0.68557
2310.42019	0.68475
2308.49162	0.68491
2306.56306	0.68475
2304.63449	0.68347
2302.70593	0.68195
2300.77736	0.68085
2298.84880	0.68020
2296.92024	0.67995
2294.99167	0.67974
2293.06311	0.67922
2291.13454	0.67852
2289.20598	0.67782
2287.27741	0.67710
2285.34885	0.67640
2283.42028	0.67571
2281.49172	0.67518
2279.56316	0.67490
2277.63459	0.67453
2275.70603	0.67377
2273.77746	0.67276
2271.84890	0.67180
2269.92033	0.67107
2267.99177	0.67069
2266.06320	0.67063
2264.13464	0.67056
2262.20608	0.67017
2260.27751	0.66967
2258.34895	0.66942
2256.42038	0.66928
2254.49182	0.66900
2252.56325	0.66852
2250.63469	0.66774
2248.70612	0.66703
2246.77756	0.66683
2244.84900	0.66651
2242.92043	0.66551
2240.99187	0.66438
2239.06330	0.66368
2237.13474	0.66317
2235.20617	0.66274
2233.27761	0.66245
2231.34904	0.66202
2229.42048	0.66128
2227.49192	0.66036
2225.56335	0.65967
2223.63479	0.65955
2221.70622	0.65959
2219.77766	0.65916
2217.84909	0.65827
2215.92053	0.65759
2213.99196	0.65749
2212.06340	0.65740
2210.13484	0.65676
2208.20627	0.65598
2206.27771	0.65547
2204.34914	0.65517
2202.42058	0.65480
2200.49201	0.65425
2198.56345	0.65378
2196.63488	0.65334
2194.70632	0.65260
2192.77776	0.65178
2190.84919	0.65115
2188.92063	0.65043
2186.99206	0.64947
2185.06350	0.64857
2183.13493	0.64773
2181.20637	0.64683
2179.27781	0.64600
2177.34924	0.64527
2175.42068	0.64443
2173.49211	0.64330
2171.56355	0.64227
2169.63498	0.64174
2167.70642	0.64124
2165.77785	0.64027
2163.84929	0.63917
2161.92073	0.63852
2159.99216	0.63814
2158.06360	0.63740
2156.13503	0.63634
2154.20647	0.63552
2152.27790	0.63491
2150.34934	0.63404
2148.42077	0.63312
2146.49221	0.63267
2144.56365	0.63249
2142.63508	0.63208
2140.70652	0.63137
2138.77795	0.63041
2136.84939	0.62940
2134.92082	0.62873
2132.99226	0.62821
2131.06369	0.62730
2129.13513	0.62611
2127.20657	0.62505
2125.27800	0.62422
2123.34944	0.62334
2121.42087	0.62207
2119.49231	0.62064
2117.56374	0.61968
2115.63518	0.61898
2113.70661	0.61793
2111.77805	0.61671
2109.84949	0.61586
2107.92092	0.61534
2105.99236	0.61461
2104.06379	0.61338
2102.13523	0.61220
2100.20666	0.61152
2098.27810	0.61104
2096.34953	0.61054
2094.42097	0.61009
2092.49241	0.60962
2090.56384	0.60918
2088.63528	0.60873
2086.70671	0.60793
2084.77815	0.60674
2082.84958	0.60558
2080.92102	0.60469
2078.99245	0.60387
2077.06389	0.60305
2075.13533	0.60232
2073.20676	0.60145
2071.27820	0.60044
2069.34963	0.59950
2067.42107	0.59868
2065.49250	0.59802
2063.56394	0.59744
2061.63537	0.59647
2059.70681	0.59503
2057.77825	0.59376
2055.84968	0.59293
2053.92112	0.59233
2051.99255	0.59181
2050.06399	0.59117
2048.13542	0.59017
2046.20686	0.58896
2044.27830	0.58772
2042.34973	0.58626
2040.42117	0.58464
2038.49260	0.58337
2036.56404	0.58264
2034.63547	0.58196
2032.70691	0.58101
2030.77834	0.57999
2028.84978	0.57891
2026.92122	0.57762
2024.99265	0.57615
2023.06409	0.57458
2021.13552	0.57303
2019.20696	0.57172
2017.27839	0.57055
2015.34983	0.56926
2013.42126	0.56811
2011.49270	0.56718
2009.56414	0.56600
2007.63557	0.56444
2005.70701	0.56287
2003.77844	0.56171
2001.84988	0.56085
1999.92131	0.55996
1997.99275	0.55910
1996.06418	0.55837
1994.13562	0.55767
1992.20706	0.55695
1990.27849	0.55619
1988.34993	0.55537
1986.42136	0.55458
1984.49280	0.55403
1982.56423	0.55374
1980.63567	0.55339
1978.70710	0.55291
1976.77854	0.55247
1974.84998	0.55194
1972.92141	0.55125
1970.99285	0.55050
1969.06428	0.54969
1967.13572	0.54893
1965.20715	0.54835
1963.27859	0.54777
1961.35002	0.54706
1959.42146	0.54624
1957.49290	0.54526
1955.56433	0.54408
1953.63577	0.54282
1951.70720	0.54164
1949.77864	0.54059
1947.85007	0.53964
1945.92151	0.53883
1943.99294	0.53829
1942.06438	0.53800
1940.13582	0.53769
1938.20725	0.53712
1936.27869	0.53649
1934.35012	0.53617
1932.42156	0.53611
1930.49299	0.53603
1928.56443	0.53603
1926.63586	0.53614
1924.70730	0.53636
1922.77874	0.53653
1920.85017	0.53615
1918.92161	0.53561
1916.99304	0.53523
1915.06448	0.53445
1913.13591	0.53332
1911.20735	0.53242
1909.27878	0.53181
1907.35022	0.53103
1905.42166	0.52986
1903.49309	0.52861
1901.56453	0.52749
1899.63596	0.52647
1897.70740	0.52543
1895.77883	0.52434
1893.85027	0.52322
1891.92171	0.52200
1889.99314	0.52071
1888.06458	0.51957
1886.13601	0.51858
1884.20745	0.51762
1882.27888	0.51680
1880.35032	0.51629
1878.42175	0.51600
1876.49319	0.51564
1874.56463	0.51508
1872.63606	0.51451
1870.70750	0.51425
1868.77893	0.51449
1866.85037	0.51470
1864.92180	0.51461
1862.99324	0.51458
1861.06467	0.51466
1859.13611	0.51484
1857.20755	0.51507
1855.27898	0.51521
1853.35042	0.51542
1851.42185	0.51565
1849.49329	0.51570
1847.56472	0.51553
1845.63616	0.51555
1843.70759	0.51583
1841.77903	0.51577
1839.85047	0.51554
1837.92190	0.51551
1835.99334	0.51545
1834.06477	0.51507
1832.13621	0.51457
1830.20764	0.51421
1828.27908	0.51380
1826.35051	0.51326
1824.42195	0.51287
1822.49339	0.51250
1820.56482	0.51199
1818.63626	0.51156
1816.70769	0.51129
1814.77913	0.51112
1812.85056	0.51102
1810.92200	0.51108
1808.99343	0.51140
1807.06487	0.51193
1805.13631	0.51248
1803.20774	0.51296
1801.27918	0.51372
1799.35061	0.51488
1797.42205	0.51590
1795.49348	0.51660
1793.56492	0.51732
1791.63635	0.51836
1789.70779	0.51897
1787.77923	0.51922
1785.85066	0.51982
1783.92210	0.52095
1781.99353	0.52218
1780.06497	0.52305
1778.13640	0.52343
1776.20784	0.52357
1774.27927	0.52403
1772.35071	0.52547
1770.42215	0.52722
1768.49358	0.52848
1766.56502	0.52955
1764.63645	0.53056
1762.70789	0.53243
1760.77932	0.53548
1758.85076	0.53838
1756.92220	0.54167
1754.99363	0.54520
1753.06507	0.54855
1751.13650	0.55360
1749.20794	0.56089
1747.27937	0.56755
1745.35081	0.57296
1743.42224	0.57775
1741.49368	0.58221
1739.56512	0.58659
1737.63655	0.58990
1735.70799	0.59271
1733.77942	0.59739
1731.85086	0.60132
1729.92229	0.60399
1727.99373	0.60715
1726.06516	0.61099
1724.13660	0.61644
1722.20804	0.62227
1720.27947	0.62728
1718.35091	0.63509
1716.42234	0.64901
1714.49378	0.66013
1712.56521	0.66819
1710.63665	0.67698
1708.70808	0.68717
1706.77952	0.70212
1704.85096	0.72225
1702.92239	0.74047
1700.99383	0.76573
1699.06526	0.80518
1697.13670	0.84157
1695.20813	0.87724
1693.27957	0.90375
1691.35100	0.92521
1689.42244	0.95109
1687.49388	0.97433
1685.56531	0.99902
1683.63675	1.04193
1681.70818	1.07296
1679.77962	1.09035
1677.85105	1.10754
1675.92249	1.12953
1673.99392	1.15376
1672.06536	1.17189
1670.13680	1.19185
1668.20823	1.21459
1666.27967	1.22774
1664.35110	1.23929
1662.42254	1.25658
1660.49397	1.27112
1658.56541	1.27797
1656.63684	1.28099
1654.70828	1.28502
1652.77972	1.29277
1650.85115	1.29316
1648.92259	1.29015
1646.99402	1.28809
1645.06546	1.28732
1643.13689	1.28636
1641.20833	1.28564
1639.27976	1.28415
1637.35120	1.28210
1635.42264	1.28155
1633.49407	1.28077
1631.56551	1.27869
1629.63694	1.27485
1627.70838	1.26903
1625.77981	1.26215
1623.85125	1.25260
1621.92269	1.23901
1619.99412	1.22536
1618.06556	1.20719
1616.13699	1.17950
1614.20843	1.15689
1612.27986	1.13860
1610.35130	1.11863
1608.42273	1.09921
1606.49417	1.08348
1604.56561	1.07100
1602.63704	1.06079
1600.70848	1.05331
1598.77991	1.04871
1596.85135	1.04637
1594.92278	1.04532
1592.99422	1.04487
1591.06565	1.04576
1589.13709	1.04967
1587.20853	1.05735
1585.27996	1.06733
1583.35140	1.07778
1581.42283	1.08750
1579.49427	1.09628
1577.56570	1.10844
1575.63714	1.12799
1573.70857	1.14102
1571.78001	1.14801
1569.85145	1.15893
1567.92288	1.17226
1565.99432	1.18238
1564.06575	1.19090
1562.13719	1.19622
1560.20862	1.20226
1558.28006	1.22089
1556.35149	1.23024
1554.42293	1.23178
1552.49437	1.23330
1550.56580	1.23516
1548.63724	1.23618
1546.70867	1.23529
1544.78011	1.23240
1542.85154	1.22869
1540.92298	1.22348
1538.99441	1.21434
1537.06585	1.20903
1535.13729	1.20419
1533.20872	1.19656
1531.28016	1.18970
1529.35159	1.18553
1527.42303	1.18098
1525.49446	1.17501
1523.56590	1.16977
1521.63733	1.16571
1519.70877	1.16394
1517.78021	1.16071
1515.85164	1.15279
1513.92308	1.14251
1511.99451	1.13116
1510.06595	1.11890
1508.13738	1.09908
1506.20882	1.06714
1504.28025	1.05097
1502.35169	1.04022
1500.42313	1.02757
1498.49456	1.01195
1496.56600	0.99369
1494.63743	0.97888
1492.70887	0.96788
1490.78030	0.95498
1488.85174	0.93960
1486.92317	0.92911
1484.99461	0.92207
1483.06605	0.91650
1481.13748	0.91306
1479.20892	0.91225
1477.28035	0.91429
1475.35179	0.92020
1473.42322	0.93259
1471.49466	0.94733
1469.56610	0.95572
1467.63753	0.96130
1465.70897	0.96865
1463.78040	0.97650
1461.85184	0.97994
1459.92327	0.98115
1457.99471	0.98578
1456.06614	0.99333
1454.13758	0.99502
1452.20902	0.99379
1450.28045	0.99185
1448.35189	0.98999
1446.42332	0.98760
1444.49476	0.98442
1442.56619	0.98106
1440.63763	0.97751
1438.70906	0.97298
1436.78050	0.96589
1434.85194	0.95768
1432.92337	0.95096
1430.99481	0.94411
1429.06624	0.93690
1427.13768	0.93143
1425.20911	0.92827
1423.28055	0.92727
1421.35198	0.92771
1419.42342	0.92980
1417.49486	0.93325
1415.56629	0.93497
1413.63773	0.93517
1411.70916	0.93463
1409.78060	0.93356
1407.85203	0.93253
1405.92347	0.93242
1403.99490	0.93312
1402.06634	0.93360
1400.13778	0.93429
1398.20921	0.93592
1396.28065	0.93785
1394.35208	0.93972
1392.42352	0.94223
1390.49495	0.94661
1388.56639	0.95543
1386.63782	0.96951
1384.70926	0.98332
1382.78070	0.99425
1380.85213	1.00200
1378.92357	1.00474
1376.99500	1.00212
1375.06644	0.99445
1373.13787	0.98286
1371.20931	0.97036
1369.28074	0.95661
1367.35218	0.94181
1365.42362	0.92834
1363.49505	0.91560
1361.56649	0.90471
1359.63792	0.89821
1357.70936	0.89433
1355.78079	0.89165
1353.85223	0.89006
1351.92366	0.88910
1349.99510	0.88851
1348.06654	0.88836
1346.13797	0.88857
1344.20941	0.88926
1342.28084	0.89069
1340.35228	0.89348
1338.42371	0.89777
1336.49515	0.90279
1334.56659	0.90873
1332.63802	0.91619
1330.70946	0.92431
1328.78089	0.93096
1326.85233	0.93531
1324.92376	0.93821
1322.99520	0.94051
1321.06663	0.94267
1319.13807	0.94498
1317.20951	0.94712
1315.28094	0.94869
1313.35238	0.95034
1311.42381	0.95214
1309.49525	0.95289
1307.56668	0.95202
1305.63812	0.95026
1303.70955	0.94872
1301.78099	0.94764
1299.85243	0.94617
1297.92386	0.94350
1295.99530	0.94016
1294.06673	0.93758
1292.13817	0.93654
1290.20960	0.93669
1288.28104	0.93734
1286.35247	0.93824
1284.42391	0.93912
1282.49535	0.93955
1280.56678	0.93973
1278.63822	0.94048
1276.70965	0.94215
1274.78109	0.94463
1272.85252	0.94809
1270.92396	0.95262
1268.99539	0.95773
1267.06683	0.96270
1265.13827	0.96702
1263.20970	0.96996
1261.28114	0.97098
1259.35257	0.97070
1257.42401	0.97018
1255.49544	0.96982
1253.56688	0.96991
1251.63831	0.97037
1249.70975	0.97055
1247.78119	0.97021
1245.85262	0.96959
1243.92406	0.96858
1241.99549	0.96720
1240.06693	0.96564
1238.13836	0.96352
1236.20980	0.96039
1234.28123	0.95638
1232.35267	0.95136
1230.42411	0.94488
1228.49554	0.93753
1226.56698	0.93009
1224.63841	0.92269
1222.70985	0.91581
1220.78128	0.90985
1218.85272	0.90477
1216.92415	0.90092
1214.99559	0.89899
1213.06703	0.89942
1211.13846	0.90228
1209.20990	0.90641
1207.28133	0.90965
1205.35277	0.91046
1203.42420	0.90820
1201.49564	0.90350
1199.56708	0.89768
1197.63851	0.89147
1195.70995	0.88535
1193.78138	0.88010
1191.85282	0.87653
1189.92425	0.87463
1187.99569	0.87378
1186.06712	0.87371
1184.13856	0.87450
1182.21000	0.87657
1180.28143	0.88004
1178.35287	0.88459
1176.42430	0.89018
1174.49574	0.89648
1172.56717	0.90310
1170.63861	0.91080
1168.71004	0.92086
1166.78148	0.93341
1164.85292	0.94733
1162.92435	0.96120
1160.99579	0.97293
1159.06722	0.97960
1157.13866	0.97959
1155.21009	0.97318
1153.28153	0.96144
1151.35296	0.94643
1149.42440	0.93045
1147.49584	0.91496
1145.56727	0.90163
1143.63871	0.89255
1141.71014	0.88828
1139.78158	0.88757
1137.85301	0.88966
1135.92445	0.89463
1133.99588	0.90236
1132.06732	0.91291
1130.13876	0.92623
1128.21019	0.94145
1126.28163	0.95704
1124.35306	0.97093
1122.42450	0.98216
1120.49593	0.99127
1118.56737	0.99807
1116.63880	1.00155
1114.71024	1.00103
1112.78168	0.99679
1110.85311	0.99011
1108.92455	0.98237
1106.99598	0.97514
1105.06742	0.96951
1103.13885	0.96519
1101.21029	0.96214
1099.28172	0.96160
1097.35316	0.96441
1095.42460	0.97053
1093.49603	0.97934
1091.56747	0.98939
1089.63890	0.99990
1087.71034	1.01222
1085.78177	1.02716
1083.85321	1.04233
1081.92464	1.05496
1079.99608	1.06433
1078.06752	1.06987
1076.13895	1.07103
1074.21039	1.06827
1072.28182	1.06208
1070.35326	1.05286
1068.42469	1.04171
1066.49613	1.02993
1064.56756	1.01889
1062.63900	1.00918
1060.71044	0.99922
1058.78187	0.98837
1056.85331	0.97860
1054.92474	0.97116
1052.99618	0.96598
1051.06761	0.96246
1049.13905	0.96041
1047.21049	0.96149
1045.28192	0.96709
1043.35336	0.97558
1041.42479	0.98455
1039.49623	0.99284
1037.56766	0.99932
1035.63910	1.00270
1033.71053	1.00347
1031.78197	1.00334
1029.85341	1.00201
1027.92484	0.99746
1025.99628	0.98985
1024.06771	0.98135
1022.13915	0.97318
1020.21058	0.96574
1018.28202	0.95922
1016.35345	0.95233
1014.42489	0.94261
1012.49633	0.92863
1010.56776	0.91167
1008.63920	0.89443
1006.71063	0.87762
1004.78207	0.86073
1002.85350	0.84513
1000.92494	0.83266
998.99637	0.82334
997.06781	0.81637
995.13925	0.81092
993.21068	0.80582
991.28212	0.80049
989.35355	0.79538
987.42499	0.79113
985.49642	0.78818
983.56786	0.78686
981.63929	0.78749
979.71073	0.78967
977.78217	0.79204
975.85360	0.79339
973.92504	0.79288
971.99647	0.78979
970.06791	0.78417
968.13934	0.77734
966.21078	0.77114
964.28221	0.76716
962.35365	0.76705
960.42509	0.77236
958.49652	0.78221
956.56796	0.79153
954.63939	0.79428
952.71083	0.78936
950.78226	0.78009
948.85370	0.76960
946.92513	0.75977
944.99657	0.75178
943.06801	0.74587
941.13944	0.74145
939.21088	0.73799
937.28231	0.73546
935.35375	0.73375
933.42518	0.73262
931.49662	0.73208
929.56805	0.73223
927.63949	0.73321
925.71093	0.73503
923.78236	0.73720
921.85380	0.73870
919.92523	0.73931
917.99667	0.73969
916.06810	0.73991
914.13954	0.74003
912.21098	0.74084
910.28241	0.74312
908.35385	0.74686
906.42528	0.75111
904.49672	0.75546
902.56815	0.76054
900.63959	0.76589
898.71102	0.77003
896.78246	0.77270
894.85390	0.77478
892.92533	0.77650
890.99677	0.77715
889.06820	0.77686
887.13964	0.77687
885.21107	0.77798
883.28251	0.77962
881.35394	0.78083
879.42538	0.78193
877.49682	0.78355
875.56825	0.78515
873.63969	0.78618
871.71112	0.78678
869.78256	0.78669
867.85399	0.78576
865.92543	0.78477
863.99686	0.78432
862.06830	0.78402
860.13974	0.78320
858.21117	0.78173
856.28261	0.78041
854.35404	0.77976
852.42548	0.77932
850.49691	0.77842
848.56835	0.77694
846.63978	0.77532
844.71122	0.77408
842.78266	0.77356
840.85409	0.77396
838.92553	0.77505
836.99696	0.77669
835.06840	0.77897
833.13983	0.78182
831.21127	0.78515
829.28270	0.78909
827.35414	0.79344
825.42558	0.79721
823.49701	0.80017
821.56845	0.80336
819.63988	0.80711
817.71132	0.81086
815.78275	0.81382
813.85419	0.81543
811.92562	0.81651
809.99706	0.81812
808.06850	0.81955
806.13993	0.81946
804.21137	0.81787
802.28280	0.81597
800.35424	0.81468
798.42567	0.81390
796.49711	0.81325
794.56854	0.81297
792.63998	0.81347
790.71142	0.81411
788.78285	0.81404
786.85429	0.81375
784.92572	0.81387
782.99716	0.81466
781.06859	0.81658
779.14003	0.81946
777.21147	0.82267
775.28290	0.82583
773.35434	0.82879
771.42577	0.83135
769.49721	0.83371
767.56864	0.83666
765.64008	0.83984
763.71151	0.84225
761.78295	0.84388
759.85439	0.84491
757.92582	0.84549
755.99726	0.84621
754.06869	0.84709
752.14013	0.84736
750.21156	0.84717
748.28300	0.84733
746.35443	0.84739
744.42587	0.84622
742.49731	0.84407
740.56874	0.84236
738.64018	0.84127
736.71161	0.84035
734.78305	0.83999
732.85448	0.84072
730.92592	0.84235
728.99735	0.84393
727.06879	0.84500
725.14023	0.84640
723.21166	0.84862
721.28310	0.85155
719.35453	0.85441
717.42597	0.85602
715.49740	0.85704
713.56884	0.85895
711.64027	0.86143
709.71171	0.86349
707.78315	0.86504
705.85458	0.86624
703.92602	0.86780
701.99745	0.87009
700.06889	0.87198
698.14032	0.87250
696.21176	0.87123
694.28319	0.86883
692.35463	0.86724
690.42607	0.86639
688.49750	0.86445
686.56894	0.86160
684.64037	0.85849
682.71181	0.85440
680.78324	0.84925
678.85468	0.84388
676.92611	0.83849
674.99755	0.83317
673.06899	0.82922
671.14042	0.82698
669.21186	0.82408
667.28329	0.82021
665.35473	0.81754
663.42616	0.81392
661.49760	0.81014
659.56903	0.80891
657.64047	0.80956
655.71191	0.80970
653.78334	0.80854
651.85478	0.80705
649.92621	0.80718
647.99765	0.80918
646.06908	0.81132
644.14052	0.81412
642.21195	0.81891
640.28339	0.82460
638.35483	0.83038
636.42626	0.83550
634.49770	0.83902
632.56913	0.84195
630.64057	0.84489
628.71200	0.84727
626.78344	0.84921
624.85488	0.85174
622.92631	0.85424
620.99775	0.85376
619.06918	0.85059
617.14062	0.84770
615.21205	0.84619
613.28349	0.84460
611.35492	0.84011
609.42636	0.83362
607.49780	0.82820
605.56923	0.82252
603.64067	0.81540
601.71210	0.80882
599.78354	0.80415
