3997.91406	0.92496
3995.98550	0.92457
3994.05693	0.92425
3992.12837	0.92329
3990.19980	0.92395
3988.27124	0.92611
3986.34268	0.92630
3984.41411	0.92431
3982.48555	0.92127
3980.55698	0.91822
3978.62842	0.91719
3976.69985	0.91934
3974.77129	0.92241
3972.84272	0.92328
3970.91416	0.92300
3968.98560	0.92258
3967.05703	0.92221
3965.12847	0.92350
3963.19990	0.92530
3961.27134	0.92582
3959.34277	0.92639
3957.41421	0.92727
3955.48564	0.92616
3953.55708	0.92327
3951.62852	0.92220
3949.69995	0.92432
3947.77139	0.92448
3945.84282	0.92066
3943.91426	0.91968
3941.98569	0.92163
3940.05713	0.92001
3938.12856	0.91734
3936.20000	0.91672
3934.27144	0.91751
3932.34287	0.91987
3930.41431	0.92122
3928.48574	0.91877
3926.55718	0.91690
3924.62861	0.91841
3922.70005	0.91807
3920.77148	0.91607
3918.84292	0.91704
3916.91436	0.91943
3914.98579	0.91948
3913.05723	0.91755
3911.12866	0.91496
3909.20010	0.91087
3907.27153	0.90638
3905.34297	0.90587
3903.41440	0.91092
3901.48584	0.91654
3899.55728	0.91723
3897.62871	0.91185
3895.70015	0.90474
3893.77158	0.90165
3891.84302	0.90653
3889.91445	0.90976
3887.98589	0.90699
3886.05733	0.90894
3884.12876	0.91500
3882.20020	0.91688
3880.27163	0.91778
3878.34307	0.91378
3876.41450	0.90678
3874.48594	0.90494
3872.55737	0.90871
3870.62881	0.91557
3868.70025	0.91676
3866.77168	0.90900
3864.84312	0.90609
3862.91455	0.91094
3860.98599	0.91113
3859.05742	0.90652
3857.12886	0.90159
3855.20029	0.90044
3853.27173	0.90990
3851.34317	0.91577
3849.41460	0.91303
3847.48604	0.90790
3845.55747	0.90306
3843.62891	0.90199
3841.70034	0.90451
3839.77178	0.91073
3837.84321	0.91876
3835.91465	0.91774
3833.98609	0.91182
3832.05752	0.90605
3830.12896	0.90014
3828.20039	0.89792
3826.27183	0.89956
3824.34326	0.89863
3822.41470	0.89969
3820.48613	0.90467
3818.55757	0.89984
3816.62901	0.89663
3814.70044	0.90001
3812.77188	0.89959
3810.84331	0.89497
3808.91475	0.89104
3806.98618	0.89383
3805.05762	0.89642
3803.12905	0.89713
3801.20049	0.90442
3799.27193	0.90536
3797.34336	0.90017
3795.41480	0.89665
3793.48623	0.89232
3791.55767	0.88820
3789.62910	0.88690
3787.70054	0.88683
3785.77197	0.88775
3783.84341	0.88901
3781.91485	0.88886
3779.98628	0.89148
3778.05772	0.89522
3776.12915	0.89346
3774.20059	0.88910
3772.27202	0.88738
3770.34346	0.89072
3768.41489	0.89227
3766.48633	0.89000
3764.55777	0.88920
3762.62920	0.88838
3760.70064	0.88917
3758.77207	0.89223
3756.84351	0.89074
3754.91494	0.88718
3752.98638	0.88683
3751.05781	0.89064
3749.12925	0.89069
3747.20069	0.88740
3745.27212	0.89115
3743.34356	0.89495
3741.41499	0.88587
3739.48643	0.87381
3737.55786	0.86868
3735.62930	0.87504
3733.70074	0.88545
3731.77217	0.88897
3729.84361	0.88622
3727.91504	0.88359
3725.98648	0.88601
3724.05791	0.88927
3722.12935	0.88799
3720.20078	0.88473
3718.27222	0.88166
3716.34366	0.87836
3714.41509	0.87558
3712.48653	0.87972
3710.55796	0.89209
3708.62940	0.89256
3706.70083	0.88277
3704.77227	0.87578
3702.84370	0.87960
3700.91514	0.88751
3698.98658	0.88728
3697.05801	0.88318
3695.12945	0.87909
3693.20088	0.87502
3691.27232	0.87658
3689.34375	0.89146
3687.41519	0.90139
3685.48662	0.89885
3683.55806	0.89522
3681.62950	0.89442
3679.70093	0.89350
3677.77237	0.89349
3675.84380	0.90452
3673.91524	0.91137
3671.98667	0.90907
3670.05811	0.91816
3668.12954	0.92627
3666.20098	0.92293
3664.27242	0.91997
3662.34385	0.92025
3660.41529	0.92133
3658.48672	0.92344
3656.55816	0.93001
3654.62959	0.93478
3652.70103	0.93361
3650.77246	0.93958
3648.84390	0.96558
3646.91534	0.97784
3644.98677	0.97388
3643.05821	0.97122
3641.12964	0.97349
3639.20108	0.97683
3637.27251	0.97946
3635.34395	0.98399
3633.41538	0.98999
3631.48682	0.99579
3629.55826	1.00998
3627.62969	1.02779
3625.70113	1.03007
3623.77256	1.02736
3621.84400	1.02783
3619.91543	1.03719
3617.98687	1.04808
3616.05830	1.04982
3614.12974	1.05408
3612.20118	1.06319
3610.27261	1.06964
3608.34405	1.07810
3606.41548	1.08705
3604.48692	1.09063
3602.55835	1.09442
3600.62979	1.10162
3598.70123	1.10886
3596.77266	1.11658
3594.84410	1.12839
3592.91553	1.13798
3590.98697	1.13881
3589.05840	1.14137
3587.12984	1.15593
3585.20127	1.16575
3583.27271	1.16742
3581.34415	1.17216
3579.41558	1.18093
3577.48702	1.18992
3575.55845	1.19792
3573.62989	1.20406
3571.70132	1.20750
3569.77276	1.21011
3567.84419	1.22152
3565.91563	1.24480
3563.98707	1.25970
3562.05850	1.26695
3560.12994	1.27257
3558.20137	1.27549
3556.27281	1.27874
3554.34424	1.28810
3552.41568	1.30328
3550.48711	1.31449
3548.55855	1.32056
3546.62999	1.33181
3544.70142	1.34733
3542.77286	1.35374
3540.84429	1.35352
3538.91573	1.35734
3536.98716	1.36737
3535.05860	1.37667
3533.13003	1.38069
3531.20147	1.38691
3529.27291	1.40233
3527.34434	1.41853
3525.41578	1.42532
3523.48721	1.42954
3521.55865	1.44003
3519.63008	1.45128
3517.70152	1.45872
3515.77295	1.46673
3513.84439	1.47666
3511.91583	1.48920
3509.98726	1.50918
3508.05870	1.53268
3506.13013	1.54703
3504.20157	1.55147
3502.27300	1.55605
3500.34444	1.56317
3498.41587	1.57012
3496.48731	1.58103
3494.55875	1.59753
3492.63018	1.61414
3490.70162	1.62757
3488.77305	1.63664
3486.84449	1.64160
3484.91592	1.64794
3482.98736	1.66358
3481.05879	1.68454
3479.13023	1.69075
3477.20167	1.68276
3475.27310	1.68321
3473.34454	1.69835
3471.41597	1.71651
3469.48741	1.73178
3467.55884	1.73946
3465.63028	1.73533
3463.70171	1.72619
3461.77315	1.72135
3459.84459	1.72733
3457.91602	1.74216
3455.98746	1.75900
3454.05889	1.77716
3452.13033	1.79202
3450.20176	1.79513
3448.27320	1.79437
3446.34464	1.79959
3444.41607	1.80253
3442.48751	1.80263
3440.55894	1.80859
3438.63038	1.81982
3436.70181	1.82817
3434.77325	1.82385
3432.84468	1.81687
3430.91612	1.82273
3428.98756	1.83595
3427.05899	1.84742
3425.13043	1.84877
3423.20186	1.84169
3421.27330	1.84548
3419.34473	1.85950
3417.41617	1.87036
3415.48760	1.88235
3413.55904	1.89493
3411.63048	1.90017
3409.70191	1.89783
3407.77335	1.89678
3405.84478	1.90173
3403.91622	1.89518
3401.98765	1.87458
3400.05909	1.87382
3398.13052	1.90530
3396.20196	1.93607
3394.27340	1.93481
3392.34483	1.91168
3390.41627	1.89625
3388.48770	1.90515
3386.55914	1.92562
3384.63057	1.93204
3382.70201	1.92184
3380.77344	1.90960
3378.84488	1.90403
3376.91632	1.90658
3374.98775	1.91397
3373.05919	1.92201
3371.13062	1.92133
3369.20206	1.90830
3367.27349	1.90716
3365.34493	1.92859
3363.41636	1.94388
3361.48780	1.94401
3359.55924	1.94859
3357.63067	1.96004
3355.70211	1.97323
3353.77354	1.99110
3351.84498	2.00490
3349.91641	2.00540
3347.98785	2.00774
3346.05928	2.00956
3344.13072	1.99545
3342.20216	1.98637
3340.27359	2.00007
3338.34503	2.01977
3336.41646	2.03163
3334.48790	2.04988
3332.55933	2.07717
3330.63077	2.08112
3328.70220	2.05926
3326.77364	2.04583
3324.84508	2.03734
3322.91651	2.02710
3320.98795	2.03725
3319.05938	2.05909
3317.13082	2.06465
3315.20225	2.05804
3313.27369	2.06343
3311.34513	2.09322
3309.41656	2.12430
3307.48800	2.13315
3305.55943	2.13614
3303.63087	2.14215
3301.70230	2.13697
3299.77374	2.12692
3297.84517	2.12650
3295.91661	2.12242
3293.98805	2.11137
3292.05948	2.11891
3290.13092	2.14560
3288.20235	2.16610
3286.27379	2.16797
3284.34522	2.16385
3282.41666	2.16835
3280.48809	2.17998
3278.55953	2.19015
3276.63097	2.18376
3274.70240	2.15346
3272.77384	2.12231
3270.84527	2.11341
3268.91671	2.12349
3266.98814	2.13451
3265.05958	2.13142
3263.13101	2.10289
3261.20245	2.05885
3259.27389	2.03385
3257.34532	2.04023
3255.41676	2.05320
3253.48819	2.05413
3251.55963	2.04781
3249.63106	2.03632
3247.70250	2.02263
3245.77393	2.01185
3243.84537	1.99934
3241.91681	1.98638
3239.98824	1.98053
3238.05968	1.96835
3236.13111	1.93815
3234.20255	1.91356
3232.27398	1.91140
3230.34542	1.91381
3228.41685	1.90639
3226.48829	1.89648
3224.55973	1.88722
3222.63116	1.88236
3220.70260	1.88523
3218.77403	1.88410
3216.84547	1.87184
3214.91690	1.85429
3212.98834	1.84126
3211.05977	1.83627
3209.13121	1.82625
3207.20265	1.80526
3205.27408	1.78783
3203.34552	1.78552
3201.41695	1.79306
3199.48839	1.79291
3197.55982	1.77790
3195.63126	1.76045
3193.70269	1.75376
3191.77413	1.75527
3189.84557	1.75194
3187.91700	1.74154
3185.98844	1.73148
3184.05987	1.72358
3182.13131	1.71304
3180.20274	1.69551
3178.27418	1.67703
3176.34562	1.66736
3174.41705	1.66666
3172.48849	1.66858
3170.55992	1.66635
3168.63136	1.65953
3166.70279	1.65267
3164.77423	1.64385
3162.84566	1.63007
3160.91710	1.61755
3158.98854	1.61193
3157.05997	1.60783
3155.13141	1.59965
3153.20284	1.59109
3151.27428	1.58468
3149.34571	1.57767
3147.41715	1.56891
3145.48858	1.56181
3143.56002	1.55904
3141.63146	1.55682
3139.70289	1.55161
3137.77433	1.54590
3135.84576	1.54336
3133.91720	1.54463
3131.98863	1.54584
3130.06007	1.54297
3128.13150	1.53975
3126.20294	1.54303
3124.27438	1.54759
3122.34581	1.54406
3120.41725	1.53733
3118.48868	1.53398
3116.56012	1.53395
3114.63155	1.53575
3112.70299	1.53461
3110.77442	1.52765
3108.84586	1.51890
3106.91730	1.51501
3104.98873	1.51821
3103.06017	1.52365
3101.13160	1.52767
3099.20304	1.53132
3097.27447	1.53338
3095.34591	1.53076
3093.41734	1.52374
3091.48878	1.51760
3089.56022	1.51669
3087.63165	1.51824
3085.70309	1.52005
3083.77452	1.52185
3081.84596	1.52060
3079.91739	1.51719
3077.98883	1.51185
3076.06026	1.50465
3074.13170	1.50241
3072.20314	1.50346
3070.27457	1.49855
3068.34601	1.48989
3066.41744	1.48397
3064.48888	1.47866
3062.56031	1.47200
3060.63175	1.46769
3058.70318	1.46564
3056.77462	1.46103
3054.84606	1.45361
3052.91749	1.44677
3050.98893	1.44124
3049.06036	1.43712
3047.13180	1.43455
3045.20323	1.43126
3043.27467	1.42510
3041.34610	1.41683
3039.41754	1.40830
3037.48898	1.39956
3035.56041	1.38980
3033.63185	1.38105
3031.70328	1.37592
3029.77472	1.37319
3027.84615	1.37088
3025.91759	1.36956
3023.98903	1.36794
3022.06046	1.36358
3020.13190	1.35840
3018.20333	1.35370
3016.27477	1.34852
3014.34620	1.34460
3012.41764	1.34298
3010.48907	1.34368
3008.56051	1.34568
3006.63195	1.34472
3004.70338	1.34142
3002.77482	1.34006
3000.84625	1.33890
2998.91769	1.33616
2996.98912	1.33537
2995.06056	1.33807
2993.13199	1.34113
2991.20343	1.34322
2989.27487	1.34729
2987.34630	1.35545
2985.41774	1.36393
2983.48917	1.36743
2981.56061	1.36935
2979.63204	1.37638
2977.70348	1.38753
2975.77491	1.40001
2973.84635	1.41408
2971.91779	1.42859
2969.98922	1.44112
2968.06066	1.44965
2966.13209	1.45508
2964.20353	1.46173
2962.27496	1.46942
2960.34640	1.47226
2958.41783	1.46849
2956.48927	1.46242
2954.56071	1.45766
2952.63214	1.45183
2950.70358	1.44254
2948.77501	1.43524
2946.84645	1.43290
2944.91788	1.43316
2942.98932	1.43755
2941.06075	1.44833
2939.13219	1.46429
2937.20363	1.48195
2935.27506	1.49709
2933.34650	1.50743
2931.41793	1.51306
2929.48937	1.51775
2927.56080	1.52668
2925.63224	1.53867
2923.70367	1.54679
2921.77511	1.54649
2919.84655	1.53631
2917.91798	1.51731
2915.98942	1.49494
2914.06085	1.47350
2912.13229	1.45372
2910.20372	1.43527
2908.27516	1.41760
2906.34659	1.40249
2904.41803	1.39251
2902.48947	1.38534
2900.56090	1.37685
2898.63234	1.36833
2896.70377	1.36336
2894.77521	1.36122
2892.84664	1.35783
2890.91808	1.35209
2888.98952	1.34659
2887.06095	1.34121
2885.13239	1.33551
2883.20382	1.33268
2881.27526	1.33402
2879.34669	1.33702
2877.41813	1.33884
2875.48956	1.33882
2873.56100	1.33734
2871.63244	1.33219
2869.70387	1.32148
2867.77531	1.30973
2865.84674	1.30317
2863.91818	1.30222
2861.98961	1.30335
2860.06105	1.30532
2858.13248	1.31028
2856.20392	1.31809
2854.27536	1.32486
2852.34679	1.32734
2850.41823	1.32346
2848.48966	1.31136
2846.56110	1.29086
2844.63253	1.26569
2842.70397	1.24201
2840.77540	1.22416
2838.84684	1.21293
2836.91828	1.20530
2834.98971	1.19780
2833.06115	1.19014
2831.13258	1.18360
2829.20402	1.17811
2827.27545	1.17268
2825.34689	1.16805
2823.41832	1.16520
2821.48976	1.16237
2819.56120	1.15784
2817.63263	1.15235
2815.70407	1.14712
2813.77550	1.14336
2811.84694	1.14187
2809.91837	1.14086
2807.98981	1.13862
2806.06124	1.13599
2804.13268	1.13330
2802.20412	1.12924
2800.27555	1.12416
2798.34699	1.12058
2796.41842	1.11898
2794.48986	1.11754
2792.56129	1.11479
2790.63273	1.11043
2788.70416	1.10618
2786.77560	1.10384
2784.84704	1.10223
2782.91847	1.09914
2780.98991	1.09536
2779.06134	1.09304
2777.13278	1.09149
2775.20421	1.08963
2773.27565	1.08807
2771.34708	1.08639
2769.41852	1.08394
2767.48996	1.08134
2765.56139	1.07898
2763.63283	1.07664
2761.70426	1.07435
2759.77570	1.07230
2757.84713	1.07026
2755.91857	1.06794
2753.99001	1.06545
2752.06144	1.06315
2750.13288	1.06138
2748.20431	1.06036
2746.27575	1.06017
2744.34718	1.06004
2742.41862	1.05864
2740.49005	1.05587
2738.56149	1.05282
2736.63293	1.05031
2734.70436	1.04844
2732.77580	1.04654
2730.84723	1.04430
2728.91867	1.04202
2726.99010	1.04015
2725.06154	1.03929
2723.13297	1.03901
2721.20441	1.03813
2719.27585	1.03624
2717.34728	1.03421
2715.41872	1.03312
2713.49015	1.03211
2711.56159	1.03011
2709.63302	1.02808
2707.70446	1.02693
2705.77589	1.02611
2703.84733	1.02485
2701.91877	1.02322
2699.99020	1.02146
2698.06164	1.01982
2696.13307	1.01858
2694.20451	1.01735
2692.27594	1.01551
2690.34738	1.01297
2688.41881	1.01059
2686.49025	1.00924
2684.56169	1.00777
2682.63312	1.00573
2680.70456	1.00466
2678.77599	1.00423
2676.84743	1.00341
2674.91886	1.00294
2672.99030	1.00270
2671.06173	1.00177
2669.13317	1.00011
2667.20461	0.99786
2665.27604	0.99584
2663.34748	0.99473
2661.41891	0.99360
2659.49035	0.99163
2657.56178	0.98942
2655.63322	0.98773
2653.70465	0.98664
2651.77609	0.98586
2649.84753	0.98460
2647.91896	0.98282
2645.99040	0.98145
2644.06183	0.98040
2642.13327	0.97923
2640.20470	0.97794
2638.27614	0.97656
2636.34757	0.97565
2634.41901	0.97531
2632.49045	0.97497
2630.56188	0.97454
2628.63332	0.97366
2626.70475	0.97202
2624.77619	0.97066
2622.84762	0.97022
2620.91906	0.96993
2618.99049	0.96931
2617.06193	0.96817
2615.13337	0.96648
2613.20480	0.96507
2611.27624	0.96441
2609.34767	0.96370
2607.41911	0.96238
2605.49054	0.96044
2603.56198	0.95804
2601.63342	0.95600
2599.70485	0.95509
2597.77629	0.95474
2595.84772	0.95435
2593.91916	0.95417
2591.99059	0.95348
2590.06203	0.95162
2588.13346	0.94958
2586.20490	0.94795
2584.27634	0.94652
2582.34777	0.94522
2580.41921	0.94397
2578.49064	0.94294
2576.56208	0.94208
2574.63351	0.94098
2572.70495	0.93961
2570.77638	0.93824
2568.84782	0.93690
2566.91926	0.93550
2564.99069	0.93396
2563.06213	0.93243
2561.13356	0.93152
2559.20500	0.93099
2557.27643	0.92976
2555.34787	0.92800
2553.41930	0.92630
2551.49074	0.92430
2549.56218	0.92191
2547.63361	0.91970
2545.70505	0.91778
2543.77648	0.91635
2541.84792	0.91552
2539.91935	0.91420
2537.99079	0.91151
2536.06222	0.90876
2534.13366	0.90749
2532.20510	0.90742
2530.27653	0.90760
2528.34797	0.90745
2526.41940	0.90705
2524.49084	0.90655
2522.56227	0.90584
2520.63371	0.90524
2518.70514	0.90484
2516.77658	0.90430
2514.84802	0.90383
2512.91945	0.90327
2510.99089	0.90219
2509.06232	0.90073
2507.13376	0.89913
2505.20519	0.89782
2503.27663	0.89694
2501.34806	0.89541
2499.41950	0.89284
2497.49094	0.89084
2495.56237	0.89000
2493.63381	0.88887
2491.70524	0.88700
2489.77668	0.88569
2487.84811	0.88519
2485.91955	0.88445
2483.99098	0.88343
2482.06242	0.88260
2480.13386	0.88169
2478.20529	0.88061
2476.27673	0.87955
2474.34816	0.87849
2472.41960	0.87714
2470.49103	0.87550
2468.56247	0.87435
2466.63391	0.87394
2464.70534	0.87333
2462.77678	0.87191
2460.84821	0.86997
2458.91965	0.86774
2456.99108	0.86535
2455.06252	0.86341
2453.13395	0.86199
2451.20539	0.86038
2449.27683	0.85873
2447.34826	0.85747
2445.41970	0.85668
2443.49113	0.85589
2441.56257	0.85436
2439.63400	0.85262
2437.70544	0.85145
2435.77687	0.85057
2433.84831	0.84962
2431.91975	0.84874
2429.99118	0.84783
2428.06262	0.84652
2426.13405	0.84511
2424.20549	0.84433
2422.27692	0.84407
2420.34836	0.84351
2418.41979	0.84229
2416.49123	0.84096
2414.56267	0.83974
2412.63410	0.83825
2410.70554	0.83672
2408.77697	0.83579
2406.84841	0.83532
2404.91984	0.83441
2402.99128	0.83323
2401.06271	0.83276
2399.13415	0.83281
2397.20559	0.83275
2395.27702	0.83241
2393.34846	0.83156
2391.41989	0.83020
2389.49133	0.82890
2387.56276	0.82775
2385.63420	0.82617
2383.70563	0.82396
2381.77707	0.82144
2379.84851	0.81886
2377.91994	0.81655
2375.99138	0.81474
2374.06281	0.81335
2372.13425	0.81225
2370.20568	0.80979
2368.27712	0.80500
2366.34855	0.80221
2364.41999	0.80480
2362.49143	0.80987
2360.56286	0.81426
2358.63430	0.81484
2356.70573	0.81042
2354.77717	0.80623
2352.84860	0.80545
2350.92004	0.80553
2348.99147	0.80413
2347.06291	0.80096
2345.13435	0.79773
2343.20578	0.79832
2341.27722	0.80143
2339.34865	0.80241
2337.42009	0.80080
2335.49152	0.79821
2333.56296	0.79700
2331.63440	0.79789
2329.70583	0.79954
2327.77727	0.80053
2325.84870	0.80059
2323.92014	0.80093
2321.99157	0.80085
2320.06301	0.79932
2318.13444	0.79835
2316.20588	0.79800
2314.27732	0.79626
2312.34875	0.79383
2310.42019	0.79245
2308.49162	0.79185
2306.56306	0.79150
2304.63449	0.79134
2302.70593	0.79077
2300.77736	0.78953
2298.84880	0.78824
2296.92024	0.78744
2294.99167	0.78674
2293.06311	0.78575
2291.13454	0.78482
2289.20598	0.78430
2287.27741	0.78418
2285.34885	0.78407
2283.42028	0.78356
2281.49172	0.78285
2279.56316	0.78240
2277.63459	0.78196
2275.70603	0.78094
2273.77746	0.77943
2271.84890	0.77791
2269.92033	0.77654
2267.99177	0.77532
2266.06320	0.77459
2264.13464	0.77422
2262.20608	0.77363
2260.27751	0.77299
2258.34895	0.77279
2256.42038	0.77264
2254.49182	0.77204
2252.56325	0.77127
2250.63469	0.77075
2248.70612	0.77042
2246.77756	0.76990
2244.84900	0.76923
2242.92043	0.76901
2240.99187	0.76926
2239.06330	0.76932
2237.13474	0.76897
2235.20617	0.76850
2233.27761	0.76801
2231.34904	0.76747
2229.42048	0.76697
2227.49192	0.76661
2225.56335	0.76624
2223.63479	0.76603
2221.70622	0.76606
2219.77766	0.76614
2217.84909	0.76619
2215.92053	0.76599
2213.99196	0.76548
2212.06340	0.76523
2210.13484	0.76535
2208.20627	0.76522
2206.27771	0.76466
2204.34914	0.76411
2202.42058	0.76358
2200.49201	0.76261
2198.56345	0.76149
2196.63488	0.76084
2194.70632	0.76040
2192.77776	0.75961
2190.84919	0.75848
2188.92063	0.75716
2186.99206	0.75571
2185.06350	0.75435
2183.13493	0.75335
2181.20637	0.75281
2179.27781	0.75248
2177.34924	0.75186
2175.42068	0.75078
2173.49211	0.74973
2171.56355	0.74905
2169.63498	0.74845
2167.70642	0.74785
2165.77785	0.74751
2163.84929	0.74715
2161.92073	0.74645
2159.99216	0.74579
2158.06360	0.74551
2156.13503	0.74537
2154.20647	0.74496
2152.27790	0.74420
2150.34934	0.74345
2148.42077	0.74315
2146.49221	0.74319
2144.56365	0.74299
2142.63508	0.74250
2140.70652	0.74208
2138.77795	0.74171
2136.84939	0.74118
2134.92082	0.74062
2132.99226	0.74012
2131.06369	0.73977
2129.13513	0.73971
2127.20657	0.73973
2125.27800	0.73948
2123.34944	0.73911
2121.42087	0.73886
2119.49231	0.73855
2117.56374	0.73774
2115.63518	0.73626
2113.70661	0.73440
2111.77805	0.73251
2109.84949	0.73060
2107.92092	0.72879
2105.99236	0.72731
2104.06379	0.72603
2102.13523	0.72451
2100.20666	0.72284
2098.27810	0.72176
2096.34953	0.72140
2094.42097	0.72094
2092.49241	0.72005
2090.56384	0.71923
2088.63528	0.71874
2086.70671	0.71831
2084.77815	0.71750
2082.84958	0.71642
2080.92102	0.71570
2078.99245	0.71508
2077.06389	0.71407
2075.13533	0.71312
2073.20676	0.71232
2071.27820	0.71123
2069.34963	0.70992
2067.42107	0.70875
2065.49250	0.70803
2063.56394	0.70761
2061.63537	0.70696
2059.70681	0.70610
2057.77825	0.70545
2055.84968	0.70525
2053.92112	0.70551
2051.99255	0.70570
2050.06399	0.70524
2048.13542	0.70441
2046.20686	0.70391
2044.27830	0.70366
2042.34973	0.70316
2040.42117	0.70229
2038.49260	0.70109
2036.56404	0.69955
2034.63547	0.69782
2032.70691	0.69604
2030.77834	0.69452
2028.84978	0.69342
2026.92122	0.69231
2024.99265	0.69091
2023.06409	0.68945
2021.13552	0.68816
2019.20696	0.68714
2017.27839	0.68632
2015.34983	0.68545
2013.42126	0.68448
2011.49270	0.68371
2009.56414	0.68321
2007.63557	0.68266
2005.70701	0.68202
2003.77844	0.68159
2001.84988	0.68123
1999.92131	0.68053
1997.99275	0.67933
1996.06418	0.67774
1994.13562	0.67594
1992.20706	0.67453
1990.27849	0.67373
1988.34993	0.67286
1986.42136	0.67160
1984.49280	0.67050
1982.56423	0.67016
1980.63567	0.67034
1978.70710	0.67044
1976.77854	0.67025
1974.84998	0.66987
1972.92141	0.66936
1970.99285	0.66885
1969.06428	0.66862
1967.13572	0.66871
1965.20715	0.66835
1963.27859	0.66732
1961.35002	0.66622
1959.42146	0.66496
1957.49290	0.66316
1955.56433	0.66120
1953.63577	0.65972
1951.70720	0.65881
1949.77864	0.65790
1947.85007	0.65662
1945.92151	0.65540
1943.99294	0.65477
1942.06438	0.65461
1940.13582	0.65396
1938.20725	0.65266
1936.27869	0.65140
1934.35012	0.65043
1932.42156	0.64965
1930.49299	0.64885
1928.56443	0.64790
1926.63586	0.64687
1924.70730	0.64601
1922.77874	0.64530
1920.85017	0.64420
1918.92161	0.64316
1916.99304	0.64267
1915.06448	0.64186
1913.13591	0.64079
1911.20735	0.64040
1909.27878	0.64073
1907.35022	0.64090
1905.42166	0.64063
1903.49309	0.64037
1901.56453	0.64024
1899.63596	0.64016
1897.70740	0.64006
1895.77883	0.63994
1893.85027	0.63960
1891.92171	0.63905
1889.99314	0.63901
1888.06458	0.63911
1886.13601	0.63834
1884.20745	0.63703
1882.27888	0.63558
1880.35032	0.63397
1878.42175	0.63231
1876.49319	0.63072
1874.56463	0.62917
1872.63606	0.62766
1870.70750	0.62676
1868.77893	0.62739
1866.85037	0.62827
1864.92180	0.62755
1862.99324	0.62615
1861.06467	0.62506
1859.13611	0.62451
1857.20755	0.62412
1855.27898	0.62348
1853.35042	0.62250
1851.42185	0.62139
1849.49329	0.62032
1847.56472	0.61912
1845.63616	0.61837
1843.70759	0.61883
1841.77903	0.61881
1839.85047	0.61795
1837.92190	0.61741
1835.99334	0.61710
1834.06477	0.61623
1832.13621	0.61525
1830.20764	0.61532
1828.27908	0.61580
1826.35051	0.61576
1824.42195	0.61626
1822.49339	0.61677
1820.56482	0.61635
1818.63626	0.61552
1816.70769	0.61457
1814.77913	0.61344
1812.85056	0.61238
1810.92200	0.61190
1808.99343	0.61163
1807.06487	0.61080
1805.13631	0.60966
1803.20774	0.60883
1801.27918	0.60890
1799.35061	0.60910
1797.42205	0.60833
1795.49348	0.60708
1793.56492	0.60674
1791.63635	0.60806
1789.70779	0.60836
1787.77923	0.60753
1785.85066	0.60734
1783.92210	0.60768
1781.99353	0.60814
1780.06497	0.60895
1778.13640	0.60934
1776.20784	0.60884
1774.27927	0.60886
1772.35071	0.61113
1770.42215	0.61313
1768.49358	0.61322
1766.56502	0.61301
1764.63645	0.61317
1762.70789	0.61500
1760.77932	0.61828
1758.85076	0.62070
1756.92220	0.62363
1754.99363	0.62684
1753.06507	0.62958
1751.13650	0.63514
1749.20794	0.64452
1747.27937	0.65235
1745.35081	0.65752
1743.42224	0.66193
1741.49368	0.66674
1739.56512	0.67173
1737.63655	0.67423
1735.70799	0.67543
1733.77942	0.68119
1731.85086	0.68793
1729.92229	0.69208
1727.99373	0.69630
1726.06516	0.70096
1724.13660	0.70752
1722.20804	0.71438
1720.27947	0.71981
1718.35091	0.72962
1716.42234	0.75011
1714.49378	0.76710
1712.56521	0.77844
1710.63665	0.79028
1708.70808	0.80449
1706.77952	0.82668
1704.85096	0.85760
1702.92239	0.88558
1700.99383	0.92553
1699.06526	0.99190
1697.13670	1.05627
1695.20813	1.12292
1693.27957	1.17348
1691.35100	1.21292
1689.42244	1.26305
1687.49388	1.31152
1685.56531	1.35993
1683.63675	1.44385
1681.70818	1.51000
1679.77962	1.54504
1677.85105	1.57678
1675.92249	1.61480
1673.99392	1.65611
1672.06536	1.69179
1670.13680	1.73465
1668.20823	1.77855
1666.27967	1.80042
1664.35110	1.82107
1662.42254	1.85304
1660.49397	1.87873
1658.56541	1.89276
1656.63684	1.90124
1654.70828	1.90392
1652.77972	1.89834
1650.85115	1.90258
1648.92259	1.90980
1646.99402	1.90716
1645.06546	1.89784
1643.13689	1.89216
1641.20833	1.88864
1639.27976	1.88406
1637.35120	1.87896
1635.42264	1.86758
1633.49407	1.85497
1631.56551	1.84839
1629.63694	1.83989
1627.70838	1.82722
1625.77981	1.81321
1623.85125	1.79570
1621.92269	1.77287
1619.99412	1.75243
1618.06556	1.72713
1616.13699	1.68269
1614.20843	1.64092
1612.27986	1.60702
1610.35130	1.57273
1608.42273	1.53843
1606.49417	1.50874
1604.56561	1.48566
1602.63704	1.46596
1600.70848	1.44879
1598.77991	1.43568
1596.85135	1.42605
1594.92278	1.41828
1592.99422	1.41289
1591.06565	1.41165
1589.13709	1.41488
1587.20853	1.42189
1585.27996	1.43232
1583.35140	1.44642
1581.42283	1.46165
1579.49427	1.47476
1577.56570	1.49097
1575.63714	1.51708
1573.70857	1.53475
1571.78001	1.54457
1569.85145	1.56374
1567.92288	1.58958
1565.99432	1.60973
1564.06575	1.62731
1562.13719	1.63724
1560.20862	1.64237
1558.28006	1.67170
1556.35149	1.70513
1554.42293	1.72359
1552.49437	1.73163
1550.56580	1.73191
1548.63724	1.73089
1546.70867	1.73243
1544.78011	1.73591
1542.85154	1.73723
1540.92298	1.72355
1538.99441	1.69914
1537.06585	1.68929
1535.13729	1.68276
1533.20872	1.67358
1531.28016	1.66266
1529.35159	1.65386
1527.42303	1.64790
1525.49446	1.64177
1523.56590	1.63312
1521.63733	1.62152
1519.70877	1.61157
1517.78021	1.59825
1515.85164	1.57705
1513.92308	1.55526
1511.99451	1.53370
1510.06595	1.51185
1508.13738	1.48056
1506.20882	1.42372
1504.28025	1.38797
1502.35169	1.36515
1500.42313	1.34222
1498.49456	1.31539
1496.56600	1.28449
1494.63743	1.25987
1492.70887	1.24237
1490.78030	1.22304
1488.85174	1.19887
1486.92317	1.18023
1484.99461	1.16777
1483.06605	1.15850
1481.13748	1.15211
1479.20892	1.14958
1477.28035	1.15218
1475.35179	1.16154
1473.42322	1.18291
1471.49466	1.20993
1469.56610	1.22465
1467.63753	1.23363
1465.70897	1.24591
1463.78040	1.25936
1461.85184	1.26598
1459.92327	1.26963
1457.99471	1.28035
1456.06614	1.29596
1454.13758	1.29857
1452.20902	1.29519
1450.28045	1.29099
1448.35189	1.28697
1446.42332	1.28165
1444.49476	1.27535
1442.56619	1.26872
1440.63763	1.26084
1438.70906	1.25088
1436.78050	1.23768
1434.85194	1.22370
1432.92337	1.21244
1430.99481	1.20285
1429.06624	1.19466
1427.13768	1.18873
1425.20911	1.18588
1423.28055	1.18617
1421.35198	1.18830
1419.42342	1.19374
1417.49486	1.20144
1415.56629	1.20585
1413.63773	1.20820
1411.70916	1.20950
1409.78060	1.21017
1407.85203	1.21129
1405.92347	1.21429
1403.99490	1.21874
1402.06634	1.22160
1400.13778	1.22306
1398.20921	1.22458
1396.28065	1.22601
1394.35208	1.22674
1392.42352	1.22739
1390.49495	1.22941
1388.56639	1.23480
1386.63782	1.24431
1384.70926	1.25437
1382.78070	1.26285
1380.85213	1.26845
1378.92357	1.26905
1376.99500	1.26459
1375.06644	1.25487
1373.13787	1.23954
1371.20931	1.22180
1369.28074	1.20211
1367.35218	1.18114
1365.42362	1.16219
1363.49505	1.14442
1361.56649	1.12817
1359.63792	1.11661
1357.70936	1.10880
1355.78079	1.10336
1353.85223	1.09984
1351.92366	1.09766
1349.99510	1.09653
1348.06654	1.09607
1346.13797	1.09581
1344.20941	1.09598
1342.28084	1.09665
1340.35228	1.09804
1338.42371	1.10101
1336.49515	1.10514
1334.56659	1.10974
1332.63802	1.11556
1330.70946	1.12244
1328.78089	1.12809
1326.85233	1.13096
1324.92376	1.13153
1322.99520	1.13144
1321.06663	1.13252
1319.13807	1.13499
1317.20951	1.13801
1315.28094	1.14089
1313.35238	1.14324
1311.42381	1.14468
1309.49525	1.14500
1307.56668	1.14480
1305.63812	1.14511
1303.70955	1.14607
1301.78099	1.14643
1299.85243	1.14500
1297.92386	1.14176
1295.99530	1.13795
1294.06673	1.13451
1292.13817	1.13130
1290.20960	1.12835
1288.28104	1.12616
1286.35247	1.12451
1284.42391	1.12277
1282.49535	1.12079
1280.56678	1.11880
1278.63822	1.11724
1276.70965	1.11667
1274.78109	1.11765
1272.85252	1.12086
1270.92396	1.12610
1268.99539	1.13255
1267.06683	1.13983
1265.13827	1.14712
1263.20970	1.15308
1261.28114	1.15730
1259.35257	1.16039
1257.42401	1.16296
1255.49544	1.16582
1253.56688	1.16956
1251.63831	1.17336
1249.70975	1.17615
1247.78119	1.17805
1245.85262	1.17922
1243.92406	1.17933
1241.99549	1.17824
1240.06693	1.17616
1238.13836	1.17328
1236.20980	1.16927
1234.28123	1.16353
1232.35267	1.15628
1230.42411	1.14835
1228.49554	1.13989
1226.56698	1.13085
1224.63841	1.12143
1222.70985	1.11135
1220.78128	1.10070
1218.85272	1.09081
1216.92415	1.08347
1214.99559	1.07900
1213.06703	1.07626
1211.13846	1.07521
1209.20990	1.07583
1207.28133	1.07560
1205.35277	1.07188
1203.42420	1.06434
1201.49564	1.05402
1199.56708	1.04266
1197.63851	1.03134
1195.70995	1.01984
1193.78138	1.00871
1191.85282	0.99977
1189.92425	0.99380
1187.99569	0.98981
1186.06712	0.98661
1184.13856	0.98450
1182.21000	0.98512
1180.28143	0.98946
1178.35287	0.99685
1176.42430	1.00571
1174.49574	1.01483
1172.56717	1.02413
1170.63861	1.03454
1168.71004	1.04724
1166.78148	1.06298
1164.85292	1.08167
1162.92435	1.10116
1160.99579	1.11705
1159.06722	1.12514
1157.13866	1.12406
1155.21009	1.11519
1153.28153	1.10057
1151.35296	1.08173
1149.42440	1.06081
1147.49584	1.04101
1145.56727	1.02508
1143.63871	1.01400
1141.71014	1.00731
1139.78158	1.00465
1137.85301	1.00628
1135.92445	1.01229
1133.99588	1.02243
1132.06732	1.03580
1130.13876	1.05139
1128.21019	1.06849
1126.28163	1.08579
1124.35306	1.10176
1122.42450	1.11626
1120.49593	1.12913
1118.56737	1.13845
1116.63880	1.14223
1114.71024	1.14078
1112.78168	1.13617
1110.85311	1.12982
1108.92455	1.12250
1106.99598	1.11522
1105.06742	1.10820
1103.13885	1.10128
1101.21029	1.09561
1099.28172	1.09380
1097.35316	1.09806
1095.42460	1.10802
1093.49603	1.12217
1091.56747	1.14021
1089.63890	1.16134
1087.71034	1.18479
1085.78177	1.21200
1083.85321	1.24170
1081.92464	1.26792
1079.99608	1.28666
1078.06752	1.29766
1076.13895	1.29953
1074.21039	1.29007
1072.28182	1.27221
1070.35326	1.25281
1068.42469	1.23429
1066.49613	1.21536
1064.56756	1.19786
1062.63900	1.18381
1060.71044	1.17134
1058.78187	1.15977
1056.85331	1.15084
1054.92474	1.14428
1052.99618	1.13842
1051.06761	1.13291
1049.13905	1.12958
1047.21049	1.13081
1045.28192	1.13742
1043.35336	1.14784
1041.42479	1.15887
1039.49623	1.16834
1037.56766	1.17606
1035.63910	1.18191
1033.71053	1.18470
1031.78197	1.18358
1029.85341	1.17921
1027.92484	1.17210
1025.99628	1.16213
1024.06771	1.15010
1022.13915	1.13800
1020.21058	1.12761
1018.28202	1.11887
1016.35345	1.10955
1014.42489	1.09752
1012.49633	1.08227
1010.56776	1.06446
1008.63920	1.04538
1006.71063	1.02673
1004.78207	1.01058
1002.85350	0.99823
1000.92494	0.98912
998.99637	0.98265
997.06781	0.97866
995.13925	0.97595
993.21068	0.97261
991.28212	0.96688
989.35355	0.95829
987.42499	0.94820
985.49642	0.93813
983.56786	0.92906
981.63929	0.92168
979.71073	0.91635
977.78217	0.91264
975.85360	0.90875
973.92504	0.90251
971.99647	0.89344
970.06791	0.88324
968.13934	0.87378
966.21078	0.86530
964.28221	0.85810
962.35365	0.85466
960.42509	0.85783
958.49652	0.86696
956.56796	0.87708
954.63939	0.88271
952.71083	0.88184
950.78226	0.87589
948.85370	0.86811
946.92513	0.86146
944.99657	0.85702
943.06801	0.85425
941.13944	0.85206
939.21088	0.84981
937.28231	0.84777
935.35375	0.84620
933.42518	0.84517
931.49662	0.84464
929.56805	0.84418
927.63949	0.84359
925.71093	0.84352
923.78236	0.84448
921.85380	0.84560
919.92523	0.84577
917.99667	0.84550
916.06810	0.84592
914.13954	0.84693
912.21098	0.84811
910.28241	0.85006
908.35385	0.85325
906.42528	0.85749
904.49672	0.86338
902.56815	0.87074
900.63959	0.87743
898.71102	0.88203
896.78246	0.88450
894.85390	0.88486
892.92533	0.88304
890.99677	0.87956
889.06820	0.87585
887.13964	0.87268
885.21107	0.86965
883.28251	0.86692
881.35394	0.86541
879.42538	0.86489
877.49682	0.86446
875.56825	0.86414
873.63969	0.86428
871.71112	0.86525
869.78256	0.86773
867.85399	0.87165
865.92543	0.87682
863.99686	0.88331
862.06830	0.89086
860.13974	0.89924
858.21117	0.90789
856.28261	0.91591
854.35404	0.92385
852.42548	0.93202
850.49691	0.93854
848.56835	0.94215
846.63978	0.94331
844.71122	0.94308
842.78266	0.94302
840.85409	0.94363
838.92553	0.94416
836.99696	0.94440
835.06840	0.94461
833.13983	0.94527
831.21127	0.94708
829.28270	0.95042
827.35414	0.95457
825.42558	0.95833
823.49701	0.96209
821.56845	0.96694
819.63988	0.97290
817.71132	0.97936
815.78275	0.98516
813.85419	0.98998
811.92562	0.99441
809.99706	0.99801
808.06850	1.00020
806.13993	1.00078
804.21137	0.99918
802.28280	0.99582
800.35424	0.99233
798.42567	0.98995
796.49711	0.98869
794.56854	0.98884
792.63998	0.99118
790.71142	0.99521
788.78285	1.00028
786.85429	1.00649
784.92572	1.01438
782.99716	1.02451
781.06859	1.03600
779.14003	1.04785
777.21147	1.05964
775.28290	1.07009
773.35434	1.07829
771.42577	1.08441
769.49721	1.08869
767.56864	1.09135
765.64008	1.09244
763.71151	1.09172
761.78295	1.08964
759.85439	1.08677
757.92582	1.08418
755.99726	1.08340
754.06869	1.08396
752.14013	1.08421
750.21156	1.08484
748.28300	1.08795
746.35443	1.09301
744.42587	1.09754
742.49731	1.10152
740.56874	1.10674
738.64018	1.11377
736.71161	1.12133
734.78305	1.12768
732.85448	1.13354
730.92592	1.14080
728.99735	1.14826
727.06879	1.15346
725.14023	1.15609
723.21166	1.15766
721.28310	1.15875
719.35453	1.15724
717.42597	1.15331
715.49740	1.15106
713.56884	1.15121
711.64027	1.15081
709.71171	1.15017
707.78315	1.15275
705.85458	1.15865
703.92602	1.16487
701.99745	1.17001
700.06889	1.17596
698.14032	1.18485
696.21176	1.19463
694.28319	1.20225
692.35463	1.20749
690.42607	1.21075
688.49750	1.21332
686.56894	1.21542
684.64037	1.21529
682.71181	1.21268
680.78324	1.20726
678.85468	1.19929
676.92611	1.19252
674.99755	1.18883
673.06899	1.18519
671.14042	1.17878
669.21186	1.16859
667.28329	1.16297
665.35473	1.16527
663.42616	1.16661
661.49760	1.16651
659.56903	1.16907
657.64047	1.17578
655.71191	1.18364
653.78334	1.19080
651.85478	1.19816
649.92621	1.20598
647.99765	1.21300
646.06908	1.21885
644.14052	1.22286
642.21195	1.22465
640.28339	1.22761
638.35483	1.23140
636.42626	1.23060
634.49770	1.22618
632.56913	1.22124
630.64057	1.21472
628.71200	1.20772
626.78344	1.20089
624.85488	1.19410
622.92631	1.19040
620.99775	1.18930
619.06918	1.18803
617.14062	1.18805
615.21205	1.19107
613.28349	1.19462
611.35492	1.19590
609.42636	1.19860
607.49780	1.20670
605.56923	1.21444
603.64067	1.21658
601.71210	1.21822
599.78354	1.22275
