3997.91406	0.91966
3995.98550	0.91353
3994.05693	0.91023
3992.12837	0.91012
3990.19980	0.91041
3988.27124	0.91000
3986.34268	0.91026
3984.41411	0.91120
3982.48555	0.91085
3980.55698	0.90862
3978.62842	0.90643
3976.69985	0.90678
3974.77129	0.90923
3972.84272	0.90987
3970.91416	0.90712
3968.98560	0.90351
3967.05703	0.90209
3965.12847	0.90264
3963.19990	0.90321
3961.27134	0.90400
3959.34277	0.90457
3957.41421	0.90409
3955.48564	0.90390
3953.55708	0.90380
3951.62852	0.90283
3949.69995	0.90257
3947.77139	0.90361
3945.84282	0.90307
3943.91426	0.89909
3941.98569	0.89488
3940.05713	0.89470
3938.12856	0.89642
3936.20000	0.89635
3934.27144	0.89390
3932.34287	0.89047
3930.41431	0.88890
3928.48574	0.89098
3926.55718	0.89460
3924.62861	0.89537
3922.70005	0.89205
3920.77148	0.88899
3918.84292	0.88922
3916.91436	0.89205
3914.98579	0.89329
3913.05723	0.88964
3911.12866	0.88375
3909.20010	0.88176
3907.27153	0.88300
3905.34297	0.88114
3903.41440	0.87753
3901.48584	0.87832
3899.55728	0.87878
3897.62871	0.87589
3895.70015	0.87400
3893.77158	0.87362
3891.84302	0.86959
3889.91445	0.86502
3887.98589	0.86652
3886.05733	0.87029
3884.12876	0.87028
3882.20020	0.86768
3880.27163	0.86656
3878.34307	0.86759
3876.41450	0.86944
3874.48594	0.87042
3872.55737	0.86753
3870.62881	0.86297
3868.70025	0.86308
3866.77168	0.86527
3864.84312	0.86382
3862.91455	0.86004
3860.98599	0.85957
3859.05742	0.86162
3857.12886	0.86415
3855.20029	0.86584
3853.27173	0.86281
3851.34317	0.85993
3849.41460	0.86119
3847.48604	0.86189
3845.55747	0.85972
3843.62891	0.85626
3841.70034	0.85459
3839.77178	0.85418
3837.84321	0.85277
3835.91465	0.85177
3833.98609	0.85250
3832.05752	0.85361
3830.12896	0.85301
3828.20039	0.85096
3826.27183	0.85027
3824.34326	0.85149
3822.41470	0.85173
3820.48613	0.84880
3818.55757	0.84560
3816.62901	0.84457
3814.70044	0.84599
3812.77188	0.84651
3810.84331	0.84367
3808.91475	0.83883
3806.98618	0.83714
3805.05762	0.84001
3803.12905	0.84114
3801.20049	0.83761
3799.27193	0.83522
3797.34336	0.83550
3795.41480	0.83636
3793.48623	0.83821
3791.55767	0.84042
3789.62910	0.84123
3787.70054	0.84040
3785.77197	0.83838
3783.84341	0.83656
3781.91485	0.83679
3779.98628	0.83734
3778.05772	0.83551
3776.12915	0.83310
3774.20059	0.83196
3772.27202	0.83254
3770.34346	0.83528
3768.41489	0.83838
3766.48633	0.83889
3764.55777	0.83725
3762.62920	0.83529
3760.70064	0.83346
3758.77207	0.83302
3756.84351	0.83460
3754.91494	0.83636
3752.98638	0.83841
3751.05781	0.83948
3749.12925	0.83539
3747.20069	0.83291
3745.27212	0.83502
3743.34356	0.83518
3741.41499	0.83254
3739.48643	0.83086
3737.55786	0.83111
3735.62930	0.83324
3733.70074	0.83368
3731.77217	0.83231
3729.84361	0.83026
3727.91504	0.82911
3725.98648	0.83087
3724.05791	0.83268
3722.12935	0.83208
3720.20078	0.83147
3718.27222	0.83196
3716.34366	0.83272
3714.41509	0.83309
3712.48653	0.83247
3710.55796	0.83118
3708.62940	0.83232
3706.70083	0.83540
3704.77227	0.83882
3702.84370	0.84091
3700.91514	0.83927
3698.98658	0.83633
3697.05801	0.83606
3695.12945	0.83842
3693.20088	0.84116
3691.27232	0.84347
3689.34375	0.84650
3687.41519	0.84975
3685.48662	0.85208
3683.55806	0.85478
3681.62950	0.85910
3679.70093	0.86485
3677.77237	0.87079
3675.84380	0.87541
3673.91524	0.87716
3671.98667	0.87879
3670.05811	0.88556
3668.12954	0.89682
3666.20098	0.90618
3664.27242	0.91361
3662.34385	0.92053
3660.41529	0.92780
3658.48672	0.93494
3656.55816	0.94219
3654.62959	0.94796
3652.70103	0.95110
3650.77246	0.95480
3648.84390	0.96880
3646.91534	0.98595
3644.98677	0.99368
3643.05821	0.99783
3641.12964	1.00395
3639.20108	1.01350
3637.27251	1.02368
3635.34395	1.03223
3633.41538	1.03901
3631.48682	1.04241
3629.55826	1.04722
3627.62969	1.06294
3625.70113	1.07749
3623.77256	1.08682
3621.84400	1.09441
3619.91543	1.10353
3617.98687	1.11363
3616.05830	1.12152
3614.12974	1.12692
3612.20118	1.12921
3610.27261	1.13170
3608.34405	1.13976
3606.41548	1.15109
3604.48692	1.15943
3602.55835	1.16596
3600.62979	1.17220
3598.70123	1.17757
3596.77266	1.18368
3594.84410	1.19309
3592.91553	1.20404
3590.98697	1.21064
3589.05840	1.21274
3587.12984	1.22039
3585.20127	1.23557
3583.27271	1.24605
3581.34415	1.25210
3579.41558	1.25943
3577.48702	1.26925
3575.55845	1.27823
3573.62989	1.28044
3571.70132	1.27596
3569.77276	1.27289
3567.84419	1.27961
3565.91563	1.29231
3563.98707	1.29742
3562.05850	1.29907
3560.12994	1.30229
3558.20137	1.30998
3556.27281	1.32268
3554.34424	1.33671
3552.41568	1.34913
3550.48711	1.35512
3548.55855	1.35369
3546.62999	1.35262
3544.70142	1.35718
3542.77286	1.36233
3540.84429	1.36558
3538.91573	1.37071
3536.98716	1.37776
3535.05860	1.38278
3533.13003	1.38636
3531.20147	1.39051
3529.27291	1.39467
3527.34434	1.39979
3525.41578	1.40747
3523.48721	1.41597
3521.55865	1.42129
3519.63008	1.42321
3517.70152	1.42795
3515.77295	1.43679
3513.84439	1.43945
3511.91583	1.43431
3509.98726	1.43542
3508.05870	1.44619
3506.13013	1.45643
3504.20157	1.46118
3502.27300	1.46015
3500.34444	1.46125
3498.41587	1.47092
3496.48731	1.48206
3494.55875	1.48539
3492.63018	1.48565
3490.70162	1.49017
3488.77305	1.49689
3486.84449	1.50260
3484.91592	1.50735
3482.98736	1.51069
3481.05879	1.50910
3479.13023	1.50374
3477.20167	1.49979
3475.27310	1.49690
3473.34454	1.50017
3471.41597	1.51147
3469.48741	1.51774
3467.55884	1.51754
3465.63028	1.51887
3463.70171	1.51605
3461.77315	1.50708
3459.84459	1.50303
3457.91602	1.50792
3455.98746	1.51575
3454.05889	1.52138
3452.13033	1.52400
3450.20176	1.52589
3448.27320	1.52765
3446.34464	1.52562
3444.41607	1.52127
3442.48751	1.52058
3440.55894	1.52353
3438.63038	1.52739
3436.70181	1.53183
3434.77325	1.53642
3432.84468	1.53932
3430.91612	1.53857
3428.98756	1.53616
3427.05899	1.53709
3425.13043	1.54019
3423.20186	1.53871
3421.27330	1.53308
3419.34473	1.52889
3417.41617	1.52641
3415.48760	1.52734
3413.55904	1.53152
3411.63048	1.53008
3409.70191	1.52175
3407.77335	1.51514
3405.84478	1.51337
3403.91622	1.51538
3401.98765	1.51743
3400.05909	1.51753
3398.13052	1.52488
3396.20196	1.53845
3394.27340	1.54164
3392.34483	1.53425
3390.41627	1.52731
3388.48770	1.52356
3386.55914	1.52348
3384.63057	1.52624
3382.70201	1.52753
3380.77344	1.52773
3378.84488	1.53180
3376.91632	1.53707
3374.98775	1.53930
3373.05919	1.54044
3371.13062	1.53862
3369.20206	1.53401
3367.27349	1.53150
3365.34493	1.52978
3363.41636	1.52814
3361.48780	1.52765
3359.55924	1.52398
3357.63067	1.51826
3355.70211	1.51942
3353.77354	1.52870
3351.84498	1.53594
3349.91641	1.53504
3347.98785	1.53108
3346.05928	1.52673
3344.13072	1.52099
3342.20216	1.51752
3340.27359	1.51955
3338.34503	1.52470
3336.41646	1.52725
3334.48790	1.52628
3332.55933	1.52651
3330.63077	1.52615
3328.70220	1.52127
3326.77364	1.51928
3324.84508	1.52674
3322.91651	1.53760
3320.98795	1.54577
3319.05938	1.54891
3317.13082	1.54205
3315.20225	1.52941
3313.27369	1.52303
3311.34513	1.52483
3309.41656	1.52970
3307.48800	1.53382
3305.55943	1.53430
3303.63087	1.53072
3301.70230	1.52430
3299.77374	1.51929
3297.84517	1.51949
3295.91661	1.52116
3293.98805	1.52139
3292.05948	1.52259
3290.13092	1.52323
3288.20235	1.52144
3286.27379	1.52185
3284.34522	1.52476
3282.41666	1.52347
3280.48809	1.51770
3278.55953	1.51021
3276.63097	1.50064
3274.70240	1.49230
3272.77384	1.48879
3270.84527	1.49078
3268.91671	1.49697
3266.98814	1.50095
3265.05958	1.49841
3263.13101	1.49323
3261.20245	1.48907
3259.27389	1.48482
3257.34532	1.48085
3255.41676	1.47787
3253.48819	1.47375
3251.55963	1.46967
3249.63106	1.46701
3247.70250	1.46388
3245.77393	1.46029
3243.84537	1.45689
3241.91681	1.45288
3239.98824	1.44806
3238.05968	1.44364
3236.13111	1.43968
3234.20255	1.43722
3232.27398	1.44032
3230.34542	1.44730
3228.41685	1.45088
3226.48829	1.44693
3224.55973	1.43771
3222.63116	1.42938
3220.70260	1.42483
3218.77403	1.42354
3216.84547	1.42400
3214.91690	1.42345
3212.98834	1.42105
3211.05977	1.41854
3209.13121	1.41726
3207.20265	1.41656
3205.27408	1.41528
3203.34552	1.41264
3201.41695	1.40987
3199.48839	1.40989
3197.55982	1.40998
3195.63126	1.40621
3193.70269	1.40270
3191.77413	1.40243
3189.84557	1.40117
3187.91700	1.39598
3185.98844	1.38949
3184.05987	1.38306
3182.13131	1.37612
3180.20274	1.37267
3178.27418	1.37584
3176.34562	1.37941
3174.41705	1.37706
3172.48849	1.37168
3170.55992	1.36741
3168.63136	1.36414
3166.70279	1.36031
3164.77423	1.35633
3162.84566	1.35328
3160.91710	1.34868
3158.98854	1.34364
3157.05997	1.34373
3155.13141	1.34701
3153.20284	1.34765
3151.27428	1.34438
3149.34571	1.33819
3147.41715	1.33262
3145.48858	1.33118
3143.56002	1.33234
3141.63146	1.33371
3139.70289	1.33557
3137.77433	1.33667
3135.84576	1.33433
3133.91720	1.32871
3131.98863	1.32322
3130.06007	1.32086
3128.13150	1.32132
3126.20294	1.32275
3124.27438	1.32367
3122.34581	1.32374
3120.41725	1.32437
3118.48868	1.32573
3116.56012	1.32486
3114.63155	1.32176
3112.70299	1.32028
3110.77442	1.31925
3108.84586	1.31605
3106.91730	1.31393
3104.98873	1.31405
3103.06017	1.31347
3101.13160	1.31210
3099.20304	1.31173
3097.27447	1.31228
3095.34591	1.31215
3093.41734	1.31028
3091.48878	1.30675
3089.56022	1.30347
3087.63165	1.30237
3085.70309	1.30184
3083.77452	1.30010
3081.84596	1.29737
3079.91739	1.29432
3077.98883	1.29344
3076.06026	1.29433
3074.13170	1.29378
3072.20314	1.29285
3070.27457	1.29161
3068.34601	1.28771
3066.41744	1.28390
3064.48888	1.28293
3062.56031	1.28184
3060.63175	1.27977
3058.70318	1.27938
3056.77462	1.27883
3054.84606	1.27591
3052.91749	1.27300
3050.98893	1.27000
3049.06036	1.26562
3047.13180	1.26128
3045.20323	1.25786
3043.27467	1.25567
3041.34610	1.25400
3039.41754	1.25072
3037.48898	1.24770
3035.56041	1.24789
3033.63185	1.24727
3031.70328	1.24297
3029.77472	1.23939
3027.84615	1.23790
3025.91759	1.23634
3023.98903	1.23449
3022.06046	1.23225
3020.13190	1.22958
3018.20333	1.22707
3016.27477	1.22518
3014.34620	1.22514
3012.41764	1.22612
3010.48907	1.22515
3008.56051	1.22332
3006.63195	1.22387
3004.70338	1.22625
3002.77482	1.22811
3000.84625	1.22764
2998.91769	1.22426
2996.98912	1.22115
2995.06056	1.22148
2993.13199	1.22274
2991.20343	1.22222
2989.27487	1.22204
2987.34630	1.22355
2985.41774	1.22605
2983.48917	1.23113
2981.56061	1.23839
2979.63204	1.24414
2977.70348	1.24841
2975.77491	1.25202
2973.84635	1.25476
2971.91779	1.25929
2969.98922	1.26616
2968.06066	1.27260
2966.13209	1.27771
2964.20353	1.28196
2962.27496	1.28494
2960.34640	1.28637
2958.41783	1.28617
2956.48927	1.28374
2954.56071	1.28012
2952.63214	1.27675
2950.70358	1.27282
2948.77501	1.26926
2946.84645	1.26920
2944.91788	1.27317
2942.98932	1.27954
2941.06075	1.28638
2939.13219	1.29174
2937.20363	1.29647
2935.27506	1.30214
2933.34650	1.30728
2931.41793	1.31108
2929.48937	1.31556
2927.56080	1.32068
2925.63224	1.32400
2923.70367	1.32684
2921.77511	1.33069
2919.84655	1.33076
2917.91798	1.32349
2915.98942	1.31109
2914.06085	1.29555
2912.13229	1.27922
2910.20372	1.26650
2908.27516	1.25740
2906.34659	1.24955
2904.41803	1.24335
2902.48947	1.23812
2900.56090	1.23255
2898.63234	1.22753
2896.70377	1.22417
2894.77521	1.22216
2892.84664	1.21943
2890.91808	1.21455
2888.98952	1.20959
2887.06095	1.20762
2885.13239	1.20759
2883.20382	1.20736
2881.27526	1.20784
2879.34669	1.20885
2877.41813	1.20866
2875.48956	1.20827
2873.56100	1.20881
2871.63244	1.20751
2869.70387	1.20239
2867.77531	1.19644
2865.84674	1.19276
2863.91818	1.19111
2861.98961	1.19136
2860.06105	1.19490
2858.13248	1.20117
2856.20392	1.20804
2854.27536	1.21451
2852.34679	1.21976
2850.41823	1.22015
2848.48966	1.21010
2846.56110	1.19103
2844.63253	1.17069
2842.70397	1.15362
2840.77540	1.14167
2838.84684	1.13502
2836.91828	1.13091
2834.98971	1.12673
2833.06115	1.12231
2831.13258	1.11828
2829.20402	1.11504
2827.27545	1.11270
2825.34689	1.11039
2823.41832	1.10725
2821.48976	1.10276
2819.56120	1.09720
2817.63263	1.09276
2815.70407	1.09019
2813.77550	1.08774
2811.84694	1.08489
2809.91837	1.08243
2807.98981	1.08081
2806.06124	1.07999
2804.13268	1.07917
2802.20412	1.07777
2800.27555	1.07581
2798.34699	1.07331
2796.41842	1.07080
2794.48986	1.06873
2792.56129	1.06658
2790.63273	1.06409
2788.70416	1.06174
2786.77560	1.05982
2784.84704	1.05759
2782.91847	1.05541
2780.98991	1.05412
2779.06134	1.05279
2777.13278	1.05145
2775.20421	1.05081
2773.27565	1.04957
2771.34708	1.04701
2769.41852	1.04412
2767.48996	1.04197
2765.56139	1.04050
2763.63283	1.03879
2761.70426	1.03728
2759.77570	1.03693
2757.84713	1.03707
2755.91857	1.03751
2753.99001	1.03786
2752.06144	1.03670
2750.13288	1.03465
2748.20431	1.03257
2746.27575	1.03036
2744.34718	1.02870
2742.41862	1.02769
2740.49005	1.02656
2738.56149	1.02461
2736.63293	1.02189
2734.70436	1.01951
2732.77580	1.01797
2730.84723	1.01606
2728.91867	1.01337
2726.99010	1.01134
2725.06154	1.01019
2723.13297	1.00902
2721.20441	1.00778
2719.27585	1.00639
2717.34728	1.00483
2715.41872	1.00376
2713.49015	1.00354
2711.56159	1.00361
2709.63302	1.00286
2707.70446	1.00134
2705.77589	1.00042
2703.84733	1.00025
2701.91877	0.99958
2699.99020	0.99767
2698.06164	0.99476
2696.13307	0.99197
2694.20451	0.99025
2692.27594	0.98872
2690.34738	0.98631
2688.41881	0.98348
2686.49025	0.98122
2684.56169	0.98016
2682.63312	0.98012
2680.70456	0.98007
2678.77599	0.97990
2676.84743	0.98003
2674.91886	0.98000
2672.99030	0.97961
2671.06173	0.97975
2669.13317	0.98044
2667.20461	0.97987
2665.27604	0.97740
2663.34748	0.97470
2661.41891	0.97259
2659.49035	0.97019
2657.56178	0.96710
2655.63322	0.96445
2653.70465	0.96295
2651.77609	0.96146
2649.84753	0.95881
2647.91896	0.95558
2645.99040	0.95321
2644.06183	0.95196
2642.13327	0.95111
2640.20470	0.95077
2638.27614	0.95131
2636.34757	0.95225
2634.41901	0.95292
2632.49045	0.95283
2630.56188	0.95185
2628.63332	0.95078
2626.70475	0.95029
2624.77619	0.94956
2622.84762	0.94744
2620.91906	0.94429
2618.99049	0.94159
2617.06193	0.94000
2615.13337	0.93881
2613.20480	0.93706
2611.27624	0.93466
2609.34767	0.93245
2607.41911	0.93103
2605.49054	0.93002
2603.56198	0.92902
2601.63342	0.92842
2599.70485	0.92806
2597.77629	0.92713
2595.84772	0.92600
2593.91916	0.92537
2591.99059	0.92522
2590.06203	0.92521
2588.13346	0.92435
2586.20490	0.92219
2584.27634	0.92001
2582.34777	0.91863
2580.41921	0.91706
2578.49064	0.91427
2576.56208	0.91076
2574.63351	0.90747
2572.70495	0.90446
2570.77638	0.90173
2568.84782	0.89992
2566.91926	0.89891
2564.99069	0.89788
2563.06213	0.89694
2561.13356	0.89641
2559.20500	0.89598
2557.27643	0.89559
2555.34787	0.89537
2553.41930	0.89491
2551.49074	0.89384
2549.56218	0.89274
2547.63361	0.89214
2545.70505	0.89131
2543.77648	0.88938
2541.84792	0.88656
2539.91935	0.88359
2537.99079	0.88101
2536.06222	0.87920
2534.13366	0.87801
2532.20510	0.87674
2530.27653	0.87520
2528.34797	0.87390
2526.41940	0.87309
2524.49084	0.87258
2522.56227	0.87207
2520.63371	0.87099
2518.70514	0.86921
2516.77658	0.86757
2514.84802	0.86651
2512.91945	0.86579
2510.99089	0.86516
2509.06232	0.86400
2507.13376	0.86208
2505.20519	0.86006
2503.27663	0.85844
2501.34806	0.85672
2499.41950	0.85461
2497.49094	0.85284
2495.56237	0.85155
2493.63381	0.84972
2491.70524	0.84733
2489.77668	0.84556
2487.84811	0.84443
2485.91955	0.84301
2483.99098	0.84132
2482.06242	0.83962
2480.13386	0.83816
2478.20529	0.83697
2476.27673	0.83539
2474.34816	0.83345
2472.41960	0.83158
2470.49103	0.82984
2468.56247	0.82840
2466.63391	0.82699
2464.70534	0.82493
2462.77678	0.82216
2460.84821	0.81933
2458.91965	0.81696
2456.99108	0.81508
2455.06252	0.81347
2453.13395	0.81181
2451.20539	0.81006
2449.27683	0.80827
2447.34826	0.80629
2445.41970	0.80408
2443.49113	0.80188
2441.56257	0.79973
2439.63400	0.79750
2437.70544	0.79509
2435.77687	0.79282
2433.84831	0.79111
2431.91975	0.78955
2429.99118	0.78746
2428.06262	0.78520
2426.13405	0.78366
2424.20549	0.78264
2422.27692	0.78109
2420.34836	0.77913
2418.41979	0.77751
2416.49123	0.77606
2414.56267	0.77438
2412.63410	0.77241
2410.70554	0.77039
2408.77697	0.76837
2406.84841	0.76606
2404.91984	0.76364
2402.99128	0.76151
2401.06271	0.75951
2399.13415	0.75752
2397.20559	0.75561
2395.27702	0.75352
2393.34846	0.75104
2391.41989	0.74861
2389.49133	0.74685
2387.56276	0.74565
2385.63420	0.74450
2383.70563	0.74326
2381.77707	0.74212
2379.84851	0.74135
2377.91994	0.74066
2375.99138	0.73938
2374.06281	0.73745
2372.13425	0.73498
2370.20568	0.73193
2368.27712	0.72956
2366.34855	0.72985
2364.41999	0.73160
2362.49143	0.73107
2360.56286	0.72772
2358.63430	0.72168
2356.70573	0.71617
2354.77717	0.71673
2352.84860	0.72043
2350.92004	0.72125
2348.99147	0.71886
2347.06291	0.71555
2345.13435	0.71497
2343.20578	0.71923
2341.27722	0.72153
2339.34865	0.71970
2337.42009	0.71865
2335.49152	0.71832
2333.56296	0.71689
2331.63440	0.71448
2329.70583	0.71189
2327.77727	0.71060
2325.84870	0.71023
2323.92014	0.70940
2321.99157	0.70853
2320.06301	0.70811
2318.13444	0.70761
2316.20588	0.70699
2314.27732	0.70617
2312.34875	0.70474
2310.42019	0.70317
2308.49162	0.70212
2306.56306	0.70142
2304.63449	0.70112
2302.70593	0.70158
2300.77736	0.70231
2298.84880	0.70239
2296.92024	0.70182
2294.99167	0.70104
2293.06311	0.69999
2291.13454	0.69873
2289.20598	0.69769
2287.27741	0.69680
2285.34885	0.69553
2283.42028	0.69389
2281.49172	0.69222
2279.56316	0.69057
2277.63459	0.68919
2275.70603	0.68823
2273.77746	0.68729
2271.84890	0.68648
2269.92033	0.68601
2267.99177	0.68572
2266.06320	0.68553
2264.13464	0.68526
2262.20608	0.68474
2260.27751	0.68407
2258.34895	0.68345
2256.42038	0.68286
2254.49182	0.68186
2252.56325	0.68036
2250.63469	0.67863
2248.70612	0.67683
2246.77756	0.67515
2244.84900	0.67372
2242.92043	0.67254
2240.99187	0.67173
2239.06330	0.67123
2237.13474	0.67062
2235.20617	0.67003
2233.27761	0.66996
2231.34904	0.67044
2229.42048	0.67103
2227.49192	0.67140
2225.56335	0.67173
2223.63479	0.67246
2221.70622	0.67327
2219.77766	0.67356
2217.84909	0.67339
2215.92053	0.67305
2213.99196	0.67247
2212.06340	0.67173
2210.13484	0.67099
2208.20627	0.67012
2206.27771	0.66923
2204.34914	0.66864
2202.42058	0.66813
2200.49201	0.66760
2198.56345	0.66741
2196.63488	0.66747
2194.70632	0.66770
2192.77776	0.66835
2190.84919	0.66913
2188.92063	0.66982
2186.99206	0.67032
2185.06350	0.67016
2183.13493	0.66947
2181.20637	0.66897
2179.27781	0.66859
2177.34924	0.66802
2175.42068	0.66712
2173.49211	0.66577
2171.56355	0.66432
2169.63498	0.66318
2167.70642	0.66236
2165.77785	0.66147
2163.84929	0.66039
2161.92073	0.65975
2159.99216	0.65974
2158.06360	0.65988
2156.13503	0.66017
2154.20647	0.66083
2152.27790	0.66166
2150.34934	0.66221
2148.42077	0.66243
2146.49221	0.66249
2144.56365	0.66241
2142.63508	0.66204
2140.70652	0.66131
2138.77795	0.66018
2136.84939	0.65876
2134.92082	0.65735
2132.99226	0.65588
2131.06369	0.65443
2129.13513	0.65350
2127.20657	0.65300
2125.27800	0.65247
2123.34944	0.65183
2121.42087	0.65131
2119.49231	0.65104
2117.56374	0.65100
2115.63518	0.65109
2113.70661	0.65097
2111.77805	0.65061
2109.84949	0.65022
2107.92092	0.64975
2105.99236	0.64910
2104.06379	0.64831
2102.13523	0.64710
2100.20666	0.64536
2098.27810	0.64344
2096.34953	0.64158
2094.42097	0.64008
2092.49241	0.63900
2090.56384	0.63802
2088.63528	0.63713
2086.70671	0.63654
2084.77815	0.63630
2082.84958	0.63630
2080.92102	0.63634
2078.99245	0.63644
2077.06389	0.63654
2075.13533	0.63654
2073.20676	0.63651
2071.27820	0.63645
2069.34963	0.63612
2067.42107	0.63542
2065.49250	0.63445
2063.56394	0.63336
2061.63537	0.63214
2059.70681	0.63064
2057.77825	0.62889
2055.84968	0.62722
2053.92112	0.62589
2051.99255	0.62489
2050.06399	0.62393
2048.13542	0.62272
2046.20686	0.62144
2044.27830	0.62031
2042.34973	0.61927
2040.42117	0.61817
2038.49260	0.61706
2036.56404	0.61602
2034.63547	0.61499
2032.70691	0.61389
2030.77834	0.61271
2028.84978	0.61136
2026.92122	0.60962
2024.99265	0.60763
2023.06409	0.60574
2021.13552	0.60371
2019.20696	0.60135
2017.27839	0.59923
2015.34983	0.59765
2013.42126	0.59640
2011.49270	0.59538
2009.56414	0.59451
2007.63557	0.59364
2005.70701	0.59284
2003.77844	0.59217
2001.84988	0.59148
1999.92131	0.59064
1997.99275	0.58977
1996.06418	0.58884
1994.13562	0.58775
1992.20706	0.58676
1990.27849	0.58596
1988.34993	0.58497
1986.42136	0.58376
1984.49280	0.58274
1982.56423	0.58202
1980.63567	0.58117
1978.70710	0.58010
1976.77854	0.57922
1974.84998	0.57865
1972.92141	0.57820
1970.99285	0.57764
1969.06428	0.57690
1967.13572	0.57610
1965.20715	0.57522
1963.27859	0.57402
1961.35002	0.57239
1959.42146	0.57064
1957.49290	0.56900
1955.56433	0.56736
1953.63577	0.56563
1951.70720	0.56405
1949.77864	0.56273
1947.85007	0.56129
1945.92151	0.55967
1943.99294	0.55836
1942.06438	0.55744
1940.13582	0.55645
1938.20725	0.55529
1936.27869	0.55417
1934.35012	0.55319
1932.42156	0.55233
1930.49299	0.55166
1928.56443	0.55103
1926.63586	0.55011
1924.70730	0.54888
1922.77874	0.54761
1920.85017	0.54663
1918.92161	0.54606
1916.99304	0.54564
1915.06448	0.54491
1913.13591	0.54414
1911.20735	0.54374
1909.27878	0.54367
1907.35022	0.54357
1905.42166	0.54337
1903.49309	0.54323
1901.56453	0.54330
1899.63596	0.54351
1897.70740	0.54364
1895.77883	0.54369
1893.85027	0.54346
1891.92171	0.54267
1889.99314	0.54156
1888.06458	0.54035
1886.13601	0.53906
1884.20745	0.53771
1882.27888	0.53627
1880.35032	0.53480
1878.42175	0.53360
1876.49319	0.53266
1874.56463	0.53153
1872.63606	0.53015
1870.70750	0.52902
1868.77893	0.52857
1866.85037	0.52839
1864.92180	0.52790
1862.99324	0.52732
1861.06467	0.52693
1859.13611	0.52700
1857.20755	0.52717
1855.27898	0.52706
1853.35042	0.52672
1851.42185	0.52627
1849.49329	0.52573
1847.56472	0.52513
1845.63616	0.52485
1843.70759	0.52540
1841.77903	0.52608
1839.85047	0.52649
1837.92190	0.52725
1835.99334	0.52851
1834.06477	0.52963
1832.13621	0.53058
1830.20764	0.53220
1828.27908	0.53422
1826.35051	0.53580
1824.42195	0.53726
1822.49339	0.53819
1820.56482	0.53846
1818.63626	0.53867
1816.70769	0.53882
1814.77913	0.53858
1812.85056	0.53801
1810.92200	0.53756
1808.99343	0.53748
1807.06487	0.53767
1805.13631	0.53803
1803.20774	0.53860
1801.27918	0.53980
1799.35061	0.54152
1797.42205	0.54308
1795.49348	0.54435
1793.56492	0.54594
1791.63635	0.54859
1789.70779	0.55074
1787.77923	0.55175
1785.85066	0.55253
1783.92210	0.55340
1781.99353	0.55430
1780.06497	0.55541
1778.13640	0.55660
1776.20784	0.55755
1774.27927	0.55880
1772.35071	0.56166
1770.42215	0.56553
1768.49358	0.56928
1766.56502	0.57314
1764.63645	0.57689
1762.70789	0.58190
1760.77932	0.58852
1758.85076	0.59478
1756.92220	0.60178
1754.99363	0.60863
1753.06507	0.61438
1751.13650	0.62219
1749.20794	0.63326
1747.27937	0.64309
1745.35081	0.65092
1743.42224	0.65847
1741.49368	0.66648
1739.56512	0.67497
1737.63655	0.68157
1735.70799	0.68768
1733.77942	0.69932
1731.85086	0.71125
1729.92229	0.72066
1727.99373	0.73111
1726.06516	0.74207
1724.13660	0.75503
1722.20804	0.76855
1720.27947	0.78063
1718.35091	0.79827
1716.42234	0.82862
1714.49378	0.85432
1712.56521	0.87356
1710.63665	0.89272
1708.70808	0.91329
1706.77952	0.94101
1704.85096	0.97658
1702.92239	1.00750
1700.99383	1.04716
1699.06526	1.10950
1697.13670	1.16786
1695.20813	1.22525
1693.27957	1.26700
1691.35100	1.29865
1689.42244	1.33757
1687.49388	1.37385
1685.56531	1.41071
1683.63675	1.46787
1681.70818	1.50713
1679.77962	1.52936
1677.85105	1.55057
1675.92249	1.57537
1673.99392	1.60132
1672.06536	1.61987
1670.13680	1.63778
1668.20823	1.65818
1666.27967	1.66714
1664.35110	1.67163
1662.42254	1.67873
1660.49397	1.68372
1658.56541	1.68645
1656.63684	1.68912
1654.70828	1.69529
1652.77972	1.69184
1650.85115	1.67632
1648.92259	1.66922
1646.99402	1.66706
1645.06546	1.66548
1643.13689	1.66187
1641.20833	1.65796
1639.27976	1.65411
1637.35120	1.65244
1635.42264	1.65139
1633.49407	1.64627
1631.56551	1.64182
1629.63694	1.63679
1627.70838	1.62935
1625.77981	1.61971
1623.85125	1.61003
1621.92269	1.60037
1619.99412	1.58917
1618.06556	1.57300
1616.13699	1.54817
1614.20843	1.52614
1612.27986	1.50684
1610.35130	1.48529
1608.42273	1.46257
1606.49417	1.44226
1604.56561	1.42587
1602.63704	1.41281
1600.70848	1.40316
1598.77991	1.39622
1596.85135	1.39225
1594.92278	1.39213
1592.99422	1.39465
1591.06565	1.39848
1589.13709	1.40402
1587.20853	1.41156
1585.27996	1.41987
1583.35140	1.42848
1581.42283	1.43772
1579.49427	1.44748
1577.56570	1.45913
1575.63714	1.47232
1573.70857	1.48053
1571.78001	1.48670
1569.85145	1.49696
1567.92288	1.50865
1565.99432	1.51736
1564.06575	1.52495
1562.13719	1.52870
1560.20862	1.53146
1558.28006	1.55071
1556.35149	1.56824
1554.42293	1.57490
1552.49437	1.57833
1550.56580	1.58065
1548.63724	1.58001
1546.70867	1.57618
1544.78011	1.57241
1542.85154	1.56997
1540.92298	1.56288
1538.99441	1.55380
1537.06585	1.55096
1535.13729	1.54685
1533.20872	1.53811
1531.28016	1.52871
1529.35159	1.52167
1527.42303	1.51279
1525.49446	1.50156
1523.56590	1.49595
1521.63733	1.49579
1519.70877	1.49172
1517.78021	1.48044
1515.85164	1.46543
1513.92308	1.45226
1511.99451	1.44060
1510.06595	1.42935
1508.13738	1.41000
1506.20882	1.37341
1504.28025	1.35275
1502.35169	1.33919
1500.42313	1.32453
1498.49456	1.30654
1496.56600	1.28404
1494.63743	1.26564
1492.70887	1.25272
1490.78030	1.23812
1488.85174	1.22053
1486.92317	1.20866
1484.99461	1.20145
1483.06605	1.19651
1481.13748	1.19487
1479.20892	1.19697
1477.28035	1.20219
1475.35179	1.21170
1473.42322	1.23120
1471.49466	1.25512
1469.56610	1.26772
1467.63753	1.27499
1465.70897	1.28440
1463.78040	1.29454
1461.85184	1.29908
1459.92327	1.30030
1457.99471	1.30416
1456.06614	1.31057
1454.13758	1.31072
1452.20902	1.30686
1450.28045	1.30083
1448.35189	1.29355
1446.42332	1.28692
1444.49476	1.28133
1442.56619	1.27507
1440.63763	1.26811
1438.70906	1.26130
1436.78050	1.25425
1434.85194	1.24727
1432.92337	1.24176
1430.99481	1.23822
1429.06624	1.23671
1427.13768	1.23641
1425.20911	1.23758
1423.28055	1.24077
1421.35198	1.24465
1419.42342	1.25011
1417.49486	1.25627
1415.56629	1.25861
1413.63773	1.25829
1411.70916	1.25703
1409.78060	1.25591
1407.85203	1.25544
1405.92347	1.25590
1403.99490	1.25650
1402.06634	1.25615
1400.13778	1.25557
1398.20921	1.25494
1396.28065	1.25498
1394.35208	1.25680
1392.42352	1.25894
1390.49495	1.26057
1388.56639	1.26342
1386.63782	1.26976
1384.70926	1.27745
1382.78070	1.28331
1380.85213	1.28643
1378.92357	1.28633
1376.99500	1.28233
1375.06644	1.27286
1373.13787	1.25923
1371.20931	1.24575
1369.28074	1.23140
1367.35218	1.21586
1365.42362	1.20183
1363.49505	1.18839
1361.56649	1.17594
1359.63792	1.16758
1357.70936	1.16226
1355.78079	1.15888
1353.85223	1.15792
1351.92366	1.15912
1349.99510	1.16172
1348.06654	1.16527
1346.13797	1.16860
1344.20941	1.17097
1342.28084	1.17324
1340.35228	1.17702
1338.42371	1.18231
1336.49515	1.18684
1334.56659	1.18989
1332.63802	1.19223
1330.70946	1.19429
1328.78089	1.19609
1326.85233	1.19742
1324.92376	1.19780
1322.99520	1.19736
1321.06663	1.19720
1319.13807	1.19815
1317.20951	1.19967
1315.28094	1.20047
1313.35238	1.20042
1311.42381	1.20049
1309.49525	1.20101
1307.56668	1.20117
1305.63812	1.20038
1303.70955	1.19902
1301.78099	1.19714
1299.85243	1.19455
1297.92386	1.19137
1295.99530	1.18772
1294.06673	1.18351
1292.13817	1.17925
1290.20960	1.17560
1288.28104	1.17218
1286.35247	1.16918
1284.42391	1.16702
1282.49535	1.16517
1280.56678	1.16352
1278.63822	1.16300
1276.70965	1.16391
1274.78109	1.16578
1272.85252	1.16884
1270.92396	1.17328
1268.99539	1.17887
1267.06683	1.18577
1265.13827	1.19301
1263.20970	1.19886
1261.28114	1.20320
1259.35257	1.20677
1257.42401	1.20976
1255.49544	1.21168
1253.56688	1.21254
1251.63831	1.21282
1249.70975	1.21196
1247.78119	1.20980
1245.85262	1.20770
1243.92406	1.20613
1241.99549	1.20439
1240.06693	1.20124
1238.13836	1.19561
1236.20980	1.18893
1234.28123	1.18296
1232.35267	1.17699
1230.42411	1.16981
1228.49554	1.16174
1226.56698	1.15385
1224.63841	1.14623
1222.70985	1.13830
1220.78128	1.12999
1218.85272	1.12162
1216.92415	1.11413
1214.99559	1.10837
1213.06703	1.10410
1211.13846	1.10119
1209.20990	1.09995
1207.28133	1.09925
1205.35277	1.09668
1203.42420	1.09135
1201.49564	1.08512
1199.56708	1.08017
1197.63851	1.07616
1195.70995	1.07174
1193.78138	1.06713
1191.85282	1.06360
1189.92425	1.06177
1187.99569	1.06124
1186.06712	1.06173
1184.13856	1.06319
1182.21000	1.06517
1180.28143	1.06815
1178.35287	1.07269
1176.42430	1.07844
1174.49574	1.08532
1172.56717	1.09249
1170.63861	1.09984
1168.71004	1.10979
1166.78148	1.12349
1164.85292	1.13878
1162.92435	1.15212
1160.99579	1.16093
1159.06722	1.16409
1157.13866	1.16076
1155.21009	1.15165
1153.28153	1.13914
1151.35296	1.12432
1149.42440	1.10768
1147.49584	1.09118
1145.56727	1.07669
1143.63871	1.06492
1141.71014	1.05654
1139.78158	1.05251
1137.85301	1.05266
1135.92445	1.05600
1133.99588	1.06280
1132.06732	1.07378
1130.13876	1.08796
1128.21019	1.10341
1126.28163	1.11943
1124.35306	1.13539
1122.42450	1.14954
1120.49593	1.16115
1118.56737	1.17048
1116.63880	1.17665
1114.71024	1.17948
1112.78168	1.18093
1110.85311	1.18113
1108.92455	1.17855
1106.99598	1.17405
1105.06742	1.16981
1103.13885	1.16678
1101.21029	1.16368
1099.28172	1.16002
1097.35316	1.15908
1095.42460	1.16254
1093.49603	1.16862
1091.56747	1.17734
1089.63890	1.18958
1087.71034	1.20277
1085.78177	1.21427
1083.85321	1.22507
1081.92464	1.23439
1079.99608	1.23814
1078.06752	1.23464
1076.13895	1.22578
1074.21039	1.21446
1072.28182	1.20190
1070.35326	1.18752
1068.42469	1.17294
1066.49613	1.16035
1064.56756	1.14899
1062.63900	1.13823
1060.71044	1.12834
1058.78187	1.11916
1056.85331	1.11156
1054.92474	1.10646
1052.99618	1.10413
1051.06761	1.10522
1049.13905	1.10956
1047.21049	1.11540
1045.28192	1.12185
1043.35336	1.13072
1041.42479	1.14292
1039.49623	1.15523
1037.56766	1.16515
1035.63910	1.17330
1033.71053	1.17982
1031.78197	1.18413
1029.85341	1.18575
1027.92484	1.18421
1025.99628	1.18015
1024.06771	1.17395
1022.13915	1.16553
1020.21058	1.15592
1018.28202	1.14588
1016.35345	1.13482
1014.42489	1.12149
1012.49633	1.10459
1010.56776	1.08419
1008.63920	1.06190
1006.71063	1.03930
1004.78207	1.01825
1002.85350	1.00102
1000.92494	0.98854
998.99637	0.98017
997.06781	0.97511
995.13925	0.97279
993.21068	0.97210
991.28212	0.97103
989.35355	0.96798
987.42499	0.96266
985.49642	0.95587
983.56786	0.94849
981.63929	0.94020
979.71073	0.93024
977.78217	0.91899
975.85360	0.90754
973.92504	0.89580
971.99647	0.88295
970.06791	0.86969
968.13934	0.85846
966.21078	0.85115
964.28221	0.84849
962.35365	0.85194
960.42509	0.86320
958.49652	0.88127
956.56796	0.90125
954.63939	0.91724
952.71083	0.92641
950.78226	0.92843
948.85370	0.92427
946.92513	0.91606
944.99657	0.90569
943.06801	0.89422
941.13944	0.88164
939.21088	0.86815
937.28231	0.85526
935.35375	0.84425
933.42518	0.83541
931.49662	0.82885
929.56805	0.82503
927.63949	0.82438
925.71093	0.82662
923.78236	0.83067
921.85380	0.83515
919.92523	0.83946
917.99667	0.84335
916.06810	0.84626
914.13954	0.84802
912.21098	0.84844
910.28241	0.84718
908.35385	0.84487
906.42528	0.84228
904.49672	0.83914
902.56815	0.83541
900.63959	0.83202
898.71102	0.82893
896.78246	0.82564
894.85390	0.82296
892.92533	0.82170
890.99677	0.82183
889.06820	0.82340
887.13964	0.82690
885.21107	0.83299
883.28251	0.84172
881.35394	0.85224
879.42538	0.86301
877.49682	0.87288
875.56825	0.88058
873.63969	0.88478
871.71112	0.88582
869.78256	0.88486
867.85399	0.88280
865.92543	0.88030
863.99686	0.87713
862.06830	0.87372
860.13974	0.87149
858.21117	0.87054
856.28261	0.87041
854.35404	0.87140
852.42548	0.87301
850.49691	0.87409
848.56835	0.87449
846.63978	0.87506
844.71122	0.87613
842.78266	0.87702
840.85409	0.87728
838.92553	0.87732
836.99696	0.87762
835.06840	0.87798
833.13983	0.87828
831.21127	0.87878
829.28270	0.87939
827.35414	0.88027
825.42558	0.88180
823.49701	0.88425
821.56845	0.88881
819.63988	0.89575
817.71132	0.90368
815.78275	0.91245
813.85419	0.92283
811.92562	0.93340
809.99706	0.94216
808.06850	0.94995
806.13993	0.95828
804.21137	0.96700
802.28280	0.97462
800.35424	0.97951
798.42567	0.98145
796.49711	0.98165
794.56854	0.98145
792.63998	0.98147
790.71142	0.98167
788.78285	0.98205
786.85429	0.98280
784.92572	0.98406
782.99716	0.98551
781.06859	0.98697
779.14003	0.98902
777.21147	0.99168
775.28290	0.99311
773.35434	0.99185
771.42577	0.98879
769.49721	0.98450
767.56864	0.97936
765.64008	0.97467
763.71151	0.97049
761.78295	0.96667
759.85439	0.96401
757.92582	0.96310
755.99726	0.96407
754.06869	0.96673
752.14013	0.97148
750.21156	0.97906
748.28300	0.98891
746.35443	0.99960
744.42587	1.01092
742.49731	1.02433
740.56874	1.04008
738.64018	1.05561
736.71161	1.06851
734.78305	1.07896
732.85448	1.08802
730.92592	1.09571
728.99735	1.10080
727.06879	1.10217
725.14023	1.10079
723.21166	1.09808
721.28310	1.09394
719.35453	1.08930
717.42597	1.08578
715.49740	1.08366
713.56884	1.08338
711.64027	1.08445
709.71171	1.08550
707.78315	1.08651
705.85458	1.08825
703.92602	1.09117
701.99745	1.09371
700.06889	1.09342
698.14032	1.09079
696.21176	1.08817
694.28319	1.08530
692.35463	1.08016
690.42607	1.07372
688.49750	1.06692
686.56894	1.05718
684.64037	1.04481
682.71181	1.03377
680.78324	1.02633
678.85468	1.02153
676.92611	1.01798
674.99755	1.01766
673.06899	1.02174
671.14042	1.02759
669.21186	1.03882
667.28329	1.05851
665.35473	1.07300
663.42616	1.08742
661.49760	1.10755
659.56903	1.13049
657.64047	1.15261
655.71191	1.17295
653.78334	1.19122
651.85478	1.20397
649.92621	1.20974
647.99765	1.21103
646.06908	1.20721
644.14052	1.19869
642.21195	1.18832
640.28339	1.17528
638.35483	1.15853
636.42626	1.14156
634.49770	1.12694
632.56913	1.11344
630.64057	1.10187
628.71200	1.09357
626.78344	1.08556
624.85488	1.07849
622.92631	1.07726
620.99775	1.08058
619.06918	1.08420
617.14062	1.08700
615.21205	1.08886
613.28349	1.09147
611.35492	1.09593
609.42636	1.09795
607.49780	1.09501
605.56923	1.09174
603.64067	1.09058
601.71210	1.08788
599.78354	1.08316
