3997.91406	1.16292
3995.98550	1.16164
3994.05693	1.16448
3992.12837	1.16718
3990.19980	1.16403
3988.27124	1.16003
3986.34268	1.16090
3984.41411	1.16323
3982.48555	1.16322
3980.55698	1.16509
3978.62842	1.16969
3976.69985	1.17233
3974.77129	1.17160
3972.84272	1.16693
3970.91416	1.16122
3968.98560	1.15990
3967.05703	1.16187
3965.12847	1.16255
3963.19990	1.16131
3961.27134	1.16223
3959.34277	1.16730
3957.41421	1.17135
3955.48564	1.17076
3953.55708	1.16817
3951.62852	1.16633
3949.69995	1.16800
3947.77139	1.17140
3945.84282	1.16964
3943.91426	1.16561
3941.98569	1.16641
3940.05713	1.16948
3938.12856	1.16946
3936.20000	1.16733
3934.27144	1.16837
3932.34287	1.17180
3930.41431	1.17033
3928.48574	1.16770
3926.55718	1.16951
3924.62861	1.17247
3922.70005	1.17368
3920.77148	1.17668
3918.84292	1.17999
3916.91436	1.17594
3914.98579	1.17015
3913.05723	1.17030
3911.12866	1.17073
3909.20010	1.16684
3907.27153	1.16144
3905.34297	1.15665
3903.41440	1.15327
3901.48584	1.15267
3899.55728	1.15303
3897.62871	1.15388
3895.70015	1.15561
3893.77158	1.15523
3891.84302	1.15277
3889.91445	1.15508
3887.98589	1.16210
3886.05733	1.16682
3884.12876	1.16066
3882.20020	1.14967
3880.27163	1.14490
3878.34307	1.14608
3876.41450	1.14629
3874.48594	1.14446
3872.55737	1.14394
3870.62881	1.14593
3868.70025	1.14781
3866.77168	1.15022
3864.84312	1.15196
3862.91455	1.14769
3860.98599	1.14283
3859.05742	1.14529
3857.12886	1.15405
3855.20029	1.15914
3853.27173	1.14794
3851.34317	1.14169
3849.41460	1.14400
3847.48604	1.14597
3845.55747	1.14648
3843.62891	1.14455
3841.70034	1.14268
3839.77178	1.14485
3837.84321	1.14507
3835.91465	1.14079
3833.98609	1.13720
3832.05752	1.13360
3830.12896	1.13251
3828.20039	1.13728
3826.27183	1.14374
3824.34326	1.14587
3822.41470	1.14491
3820.48613	1.14438
3818.55757	1.14500
3816.62901	1.14434
3814.70044	1.14054
3812.77188	1.13701
3810.84331	1.13676
3808.91475	1.13989
3806.98618	1.14218
3805.05762	1.14100
3803.12905	1.14000
3801.20049	1.13755
3799.27193	1.13386
3797.34336	1.13287
3795.41480	1.13520
3793.48623	1.13861
3791.55767	1.13972
3789.62910	1.13866
3787.70054	1.13903
3785.77197	1.14054
3783.84341	1.13935
3781.91485	1.13670
3779.98628	1.13517
3778.05772	1.13419
3776.12915	1.13338
3774.20059	1.13344
3772.27202	1.13515
3770.34346	1.13807
3768.41489	1.13756
3766.48633	1.13321
3764.55777	1.13169
3762.62920	1.13427
3760.70064	1.13551
3758.77207	1.13229
3756.84351	1.13010
3754.91494	1.13338
3752.98638	1.14045
3751.05781	1.14526
3749.12925	1.14382
3747.20069	1.14134
3745.27212	1.13298
3743.34356	1.12181
3741.41499	1.12226
3739.48643	1.13339
3737.55786	1.14980
3735.62930	1.15706
3733.70074	1.14666
3731.77217	1.13925
3729.84361	1.14044
3727.91504	1.14370
3725.98648	1.14136
3724.05791	1.13514
3722.12935	1.13345
3720.20078	1.13526
3718.27222	1.13839
3716.34366	1.14264
3714.41509	1.14603
3712.48653	1.14592
3710.55796	1.14061
3708.62940	1.13389
3706.70083	1.13152
3704.77227	1.13598
3702.84370	1.14416
3700.91514	1.14702
3698.98658	1.14324
3697.05801	1.14132
3695.12945	1.14479
3693.20088	1.15053
3691.27232	1.15502
3689.34375	1.15270
3687.41519	1.14828
3685.48662	1.15014
3683.55806	1.15384
3681.62950	1.15633
3679.70093	1.16094
3677.77237	1.17141
3675.84380	1.18124
3673.91524	1.18061
3671.98667	1.18293
3670.05811	1.19469
3668.12954	1.20308
3666.20098	1.20451
3664.27242	1.20617
3662.34385	1.20944
3660.41529	1.21283
3658.48672	1.21566
3656.55816	1.22121
3654.62959	1.23057
3652.70103	1.23800
3650.77246	1.24026
3648.84390	1.24768
3646.91534	1.26607
3644.98677	1.27786
3643.05821	1.28548
3641.12964	1.29286
3639.20108	1.29824
3637.27251	1.30447
3635.34395	1.31708
3633.41538	1.33128
3631.48682	1.33812
3629.55826	1.33974
3627.62969	1.34710
3625.70113	1.36175
3623.77256	1.37996
3621.84400	1.39852
3619.91543	1.41211
3617.98687	1.41769
3616.05830	1.42004
3614.12974	1.41919
3612.20118	1.41923
3610.27261	1.42962
3608.34405	1.44935
3606.41548	1.46907
3604.48692	1.47900
3602.55835	1.48061
3600.62979	1.48894
3598.70123	1.50714
3596.77266	1.51483
3594.84410	1.51141
3592.91553	1.51301
3590.98697	1.51909
3589.05840	1.52626
3587.12984	1.54228
3585.20127	1.56224
3583.27271	1.56984
3581.34415	1.56988
3579.41558	1.57780
3577.48702	1.59518
3575.55845	1.61066
3573.62989	1.61926
3571.70132	1.62340
3569.77276	1.62852
3567.84419	1.63485
3565.91563	1.63101
3563.98707	1.63237
3562.05850	1.64990
3560.12994	1.66430
3558.20137	1.66418
3556.27281	1.66681
3554.34424	1.68288
3552.41568	1.69532
3550.48711	1.69189
3548.55855	1.69300
3546.62999	1.71331
3544.70142	1.73624
3542.77286	1.73772
3540.84429	1.73105
3538.91573	1.73295
3536.98716	1.74038
3535.05860	1.74834
3533.13003	1.75921
3531.20147	1.77440
3529.27291	1.79072
3527.34434	1.80114
3525.41578	1.80711
3523.48721	1.82047
3521.55865	1.83770
3519.63008	1.84383
3517.70152	1.83633
3515.77295	1.82503
3513.84439	1.82377
3511.91583	1.83103
3509.98726	1.84133
3508.05870	1.85782
3506.13013	1.87257
3504.20157	1.88344
3502.27300	1.89733
3500.34444	1.90896
3498.41587	1.91479
3496.48731	1.91534
3494.55875	1.90670
3492.63018	1.90025
3490.70162	1.91396
3488.77305	1.93872
3486.84449	1.95847
3484.91592	1.97123
3482.98736	1.96707
3481.05879	1.94968
3479.13023	1.95129
3477.20167	1.97988
3475.27310	1.99708
3473.34454	1.98302
3471.41597	1.97658
3469.48741	1.99008
3467.55884	1.99070
3465.63028	1.97232
3463.70171	1.96577
3461.77315	1.98009
3459.84459	1.99835
3457.91602	2.00443
3455.98746	1.99626
3454.05889	1.98954
3452.13033	2.00046
3450.20176	2.02060
3448.27320	2.02432
3446.34464	2.00948
3444.41607	2.00737
3442.48751	2.03349
3440.55894	2.06023
3438.63038	2.05760
3436.70181	2.03979
3434.77325	2.02458
3432.84468	2.01686
3430.91612	2.01605
3428.98756	2.01970
3427.05899	2.02391
3425.13043	2.01637
3423.20186	2.00482
3421.27330	2.00599
3419.34473	2.00447
3417.41617	1.99635
3415.48760	2.01325
3413.55904	2.05246
3411.63048	2.07387
3409.70191	2.07489
3407.77335	2.06525
3405.84478	2.04350
3403.91622	2.03473
3401.98765	2.04609
3400.05909	2.04870
3398.13052	2.04493
3396.20196	2.05146
3394.27340	2.04690
3392.34483	2.03606
3390.41627	2.04760
3388.48770	2.05682
3386.55914	2.02533
3384.63057	1.98002
3382.70201	1.97473
3380.77344	2.01104
3378.84488	2.05315
3376.91632	2.08596
3374.98775	2.08785
3373.05919	2.04723
3371.13062	2.01432
3369.20206	2.01829
3367.27349	2.03606
3365.34493	2.04271
3363.41636	2.05876
3361.48780	2.10715
3359.55924	2.13624
3357.63067	2.09871
3355.70211	2.05663
3353.77354	2.05209
3351.84498	2.06835
3349.91641	2.07845
3347.98785	2.06317
3346.05928	2.04066
3344.13072	2.04219
3342.20216	2.05667
3340.27359	2.06142
3338.34503	2.06399
3336.41646	2.06887
3334.48790	2.06740
3332.55933	2.06544
3330.63077	2.07482
3328.70220	2.08526
3326.77364	2.08077
3324.84508	2.07395
3322.91651	2.06602
3320.98795	2.04524
3319.05938	2.03684
3317.13082	2.05507
3315.20225	2.06648
3313.27369	2.05120
3311.34513	2.03416
3309.41656	2.03922
3307.48800	2.07357
3305.55943	2.11691
3303.63087	2.12752
3301.70230	2.11028
3299.77374	2.09705
3297.84517	2.09079
3295.91661	2.09269
3293.98805	2.10222
3292.05948	2.10433
3290.13092	2.09713
3288.20235	2.09196
3286.27379	2.08436
3284.34522	2.06517
3282.41666	2.05216
3280.48809	2.06259
3278.55953	2.07090
3276.63097	2.05847
3274.70240	2.05658
3272.77384	2.07008
3270.84527	2.07406
3268.91671	2.07185
3266.98814	2.06743
3265.05958	2.05391
3263.13101	2.03716
3261.20245	2.03072
3259.27389	2.03407
3257.34532	2.03228
3255.41676	2.02710
3253.48819	2.02639
3251.55963	2.02527
3249.63106	2.02036
3247.70250	2.00765
3245.77393	1.98434
3243.84537	1.95773
3241.91681	1.93566
3239.98824	1.92016
3238.05968	1.91329
3236.13111	1.91884
3234.20255	1.93844
3232.27398	1.96031
3230.34542	1.96841
3228.41685	1.96418
3226.48829	1.94619
3224.55973	1.92185
3222.63116	1.91124
3220.70260	1.90697
3218.77403	1.90236
3216.84547	1.90840
3214.91690	1.91778
3212.98834	1.92116
3211.05977	1.92254
3209.13121	1.91734
3207.20265	1.90389
3205.27408	1.89627
3203.34552	1.89850
3201.41695	1.90045
3199.48839	1.89674
3197.55982	1.88793
3195.63126	1.87790
3193.70269	1.86467
3191.77413	1.84612
3189.84557	1.84001
3187.91700	1.85115
3185.98844	1.85267
3184.05987	1.84283
3182.13131	1.84726
3180.20274	1.85842
3178.27418	1.85307
3176.34562	1.83779
3174.41705	1.82630
3172.48849	1.81798
3170.55992	1.81138
3168.63136	1.80690
3166.70279	1.80318
3164.77423	1.79619
3162.84566	1.78545
3160.91710	1.78121
3158.98854	1.78702
3157.05997	1.79186
3155.13141	1.78861
3153.20284	1.77985
3151.27428	1.77397
3149.34571	1.77548
3147.41715	1.77501
3145.48858	1.76588
3143.56002	1.75912
3141.63146	1.76032
3139.70289	1.75648
3137.77433	1.74400
3135.84576	1.73362
3133.91720	1.73245
3131.98863	1.73967
3130.06007	1.74299
3128.13150	1.73768
3126.20294	1.73283
3124.27438	1.73227
3122.34581	1.73339
3120.41725	1.72712
3118.48868	1.71260
3116.56012	1.70570
3114.63155	1.71249
3112.70299	1.72367
3110.77442	1.72856
3108.84586	1.72453
3106.91730	1.71939
3104.98873	1.71559
3103.06017	1.70796
3101.13160	1.70327
3099.20304	1.71161
3097.27447	1.72184
3095.34591	1.71923
3093.41734	1.71279
3091.48878	1.71419
3089.56022	1.71959
3087.63165	1.72007
3085.70309	1.71220
3083.77452	1.70235
3081.84596	1.69477
3079.91739	1.68629
3077.98883	1.67982
3076.06026	1.67860
3074.13170	1.67842
3072.20314	1.67857
3070.27457	1.67923
3068.34601	1.67539
3066.41744	1.66614
3064.48888	1.65826
3062.56031	1.65665
3060.63175	1.65797
3058.70318	1.65860
3056.77462	1.65815
3054.84606	1.65353
3052.91749	1.64227
3050.98893	1.62845
3049.06036	1.62085
3047.13180	1.62202
3045.20323	1.62474
3043.27467	1.62254
3041.34610	1.61395
3039.41754	1.60630
3037.48898	1.60814
3035.56041	1.61351
3033.63185	1.61170
3031.70328	1.60428
3029.77472	1.59852
3027.84615	1.59301
3025.91759	1.58442
3023.98903	1.57754
3022.06046	1.57526
3020.13190	1.57455
3018.20333	1.57027
3016.27477	1.55961
3014.34620	1.54981
3012.41764	1.54674
3010.48907	1.54592
3008.56051	1.54437
3006.63195	1.54324
3004.70338	1.54259
3002.77482	1.54399
3000.84625	1.54811
2998.91769	1.54966
2996.98912	1.54558
2995.06056	1.54103
2993.13199	1.53882
2991.20343	1.53745
2989.27487	1.53950
2987.34630	1.54812
2985.41774	1.55981
2983.48917	1.56856
2981.56061	1.57260
2979.63204	1.57402
2977.70348	1.57754
2975.77491	1.58603
2973.84635	1.59469
2971.91779	1.60034
2969.98922	1.60909
2968.06066	1.62088
2966.13209	1.62781
2964.20353	1.63254
2962.27496	1.63957
2960.34640	1.64397
2958.41783	1.64249
2956.48927	1.63593
2954.56071	1.62679
2952.63214	1.61715
2950.70358	1.60803
2948.77501	1.60240
2946.84645	1.60072
2944.91788	1.60221
2942.98932	1.60870
2941.06075	1.61874
2939.13219	1.62810
2937.20363	1.63598
2935.27506	1.64498
2933.34650	1.65700
2931.41793	1.66653
2929.48937	1.66659
2927.56080	1.66465
2925.63224	1.67239
2923.70367	1.68714
2921.77511	1.69733
2919.84655	1.69552
2917.91798	1.68337
2915.98942	1.66813
2914.06085	1.65594
2912.13229	1.64714
2910.20372	1.63504
2908.27516	1.61626
2906.34659	1.59856
2904.41803	1.58772
2902.48947	1.58052
2900.56090	1.57297
2898.63234	1.56519
2896.70377	1.56050
2894.77521	1.55816
2892.84664	1.55218
2890.91808	1.54302
2888.98952	1.53619
2887.06095	1.53300
2885.13239	1.53318
2883.20382	1.53591
2881.27526	1.53550
2879.34669	1.52812
2877.41813	1.52080
2875.48956	1.52033
2873.56100	1.52275
2871.63244	1.52246
2869.70387	1.51771
2867.77531	1.50826
2865.84674	1.49874
2863.91818	1.49555
2861.98961	1.49996
2860.06105	1.50859
2858.13248	1.51715
2856.20392	1.52534
2854.27536	1.53380
2852.34679	1.53933
2850.41823	1.53773
2848.48966	1.52371
2846.56110	1.49875
2844.63253	1.47329
2842.70397	1.45285
2840.77540	1.43616
2838.84684	1.42138
2836.91828	1.40889
2834.98971	1.40026
2833.06115	1.39432
2831.13258	1.38936
2829.20402	1.38526
2827.27545	1.38062
2825.34689	1.37528
2823.41832	1.37165
2821.48976	1.36932
2819.56120	1.36612
2817.63263	1.36233
2815.70407	1.35895
2813.77550	1.35593
2811.84694	1.35230
2809.91837	1.34751
2807.98981	1.34342
2806.06124	1.34075
2804.13268	1.33758
2802.20412	1.33385
2800.27555	1.33111
2798.34699	1.32985
2796.41842	1.33004
2794.48986	1.33002
2792.56129	1.32710
2790.63273	1.32189
2788.70416	1.31720
2786.77560	1.31327
2784.84704	1.30903
2782.91847	1.30567
2780.98991	1.30379
2779.06134	1.30054
2777.13278	1.29488
2775.20421	1.29028
2773.27565	1.28808
2771.34708	1.28586
2769.41852	1.28309
2767.48996	1.28167
2765.56139	1.28154
2763.63283	1.28034
2761.70426	1.27793
2759.77570	1.27633
2757.84713	1.27513
2755.91857	1.27263
2753.99001	1.26940
2752.06144	1.26596
2750.13288	1.26225
2748.20431	1.25958
2746.27575	1.25801
2744.34718	1.25583
2742.41862	1.25349
2740.49005	1.25171
2738.56149	1.24973
2736.63293	1.24771
2734.70436	1.24590
2732.77580	1.24418
2730.84723	1.24242
2728.91867	1.23957
2726.99010	1.23609
2725.06154	1.23441
2723.13297	1.23437
2721.20441	1.23257
2719.27585	1.22817
2717.34728	1.22449
2715.41872	1.22300
2713.49015	1.22224
2711.56159	1.22115
2709.63302	1.21950
2707.70446	1.21737
2705.77589	1.21531
2703.84733	1.21436
2701.91877	1.21393
2699.99020	1.21215
2698.06164	1.20921
2696.13307	1.20693
2694.20451	1.20638
2692.27594	1.20649
2690.34738	1.20566
2688.41881	1.20429
2686.49025	1.20284
2684.56169	1.20103
2682.63312	1.19955
2680.70456	1.19892
2678.77599	1.19785
2676.84743	1.19520
2674.91886	1.19180
2672.99030	1.18860
2671.06173	1.18627
2669.13317	1.18536
2667.20461	1.18366
2665.27604	1.17973
2663.34748	1.17644
2661.41891	1.17537
2659.49035	1.17426
2657.56178	1.17178
2655.63322	1.16944
2653.70465	1.16786
2651.77609	1.16591
2649.84753	1.16443
2647.91896	1.16465
2645.99040	1.16439
2644.06183	1.16216
2642.13327	1.15993
2640.20470	1.15878
2638.27614	1.15726
2636.34757	1.15505
2634.41901	1.15373
2632.49045	1.15400
2630.56188	1.15389
2628.63332	1.15153
2626.70475	1.14906
2624.77619	1.14912
2622.84762	1.14983
2620.91906	1.14910
2618.99049	1.14766
2617.06193	1.14565
2615.13337	1.14295
2613.20480	1.14110
2611.27624	1.14114
2609.34767	1.14136
2607.41911	1.13964
2605.49054	1.13640
2603.56198	1.13305
2601.63342	1.13091
2599.70485	1.13003
2597.77629	1.12872
2595.84772	1.12740
2593.91916	1.12706
2591.99059	1.12580
2590.06203	1.12279
2588.13346	1.11992
2586.20490	1.11869
2584.27634	1.11829
2582.34777	1.11693
2580.41921	1.11524
2578.49064	1.11485
2576.56208	1.11478
2574.63351	1.11392
2572.70495	1.11279
2570.77638	1.11125
2568.84782	1.10929
2566.91926	1.10806
2564.99069	1.10717
2563.06213	1.10551
2561.13356	1.10420
2559.20500	1.10391
2557.27643	1.10342
2555.34787	1.10227
2553.41930	1.10036
2551.49074	1.09790
2549.56218	1.09570
2547.63361	1.09360
2545.70505	1.09154
2543.77648	1.09040
2541.84792	1.09028
2539.91935	1.08965
2537.99079	1.08734
2536.06222	1.08410
2534.13366	1.08150
2532.20510	1.08056
2530.27653	1.08038
2528.34797	1.07958
2526.41940	1.07897
2524.49084	1.07915
2522.56227	1.07886
2520.63371	1.07750
2518.70514	1.07589
2516.77658	1.07474
2514.84802	1.07351
2512.91945	1.07143
2510.99089	1.06900
2509.06232	1.06687
2507.13376	1.06529
2505.20519	1.06418
2503.27663	1.06285
2501.34806	1.06136
2499.41950	1.05987
2497.49094	1.05773
2495.56237	1.05568
2493.63381	1.05438
2491.70524	1.05243
2489.77668	1.04919
2487.84811	1.04641
2485.91955	1.04533
2483.99098	1.04493
2482.06242	1.04409
2480.13386	1.04282
2478.20529	1.04060
2476.27673	1.03740
2474.34816	1.03492
2472.41960	1.03382
2470.49103	1.03325
2468.56247	1.03287
2466.63391	1.03210
2464.70534	1.03018
2462.77678	1.02748
2460.84821	1.02512
2458.91965	1.02382
2456.99108	1.02299
2455.06252	1.02176
2453.13395	1.02003
2451.20539	1.01805
2449.27683	1.01603
2447.34826	1.01390
2445.41970	1.01182
2443.49113	1.01011
2441.56257	1.00873
2439.63400	1.00736
2437.70544	1.00567
2435.77687	1.00409
2433.84831	1.00359
2431.91975	1.00397
2429.99118	1.00371
2428.06262	1.00213
2426.13405	1.00003
2424.20549	0.99815
2422.27692	0.99653
2420.34836	0.99486
2418.41979	0.99306
2416.49123	0.99126
2414.56267	0.98956
2412.63410	0.98822
2410.70554	0.98716
2408.77697	0.98614
2406.84841	0.98486
2404.91984	0.98262
2402.99128	0.97964
2401.06271	0.97751
2399.13415	0.97664
2397.20559	0.97561
2395.27702	0.97394
2393.34846	0.97247
2391.41989	0.97140
2389.49133	0.97009
2387.56276	0.96823
2385.63420	0.96637
2383.70563	0.96508
2381.77707	0.96414
2379.84851	0.96268
2377.91994	0.96043
2375.99138	0.95799
2374.06281	0.95528
2372.13425	0.95327
2370.20568	0.95371
2368.27712	0.95245
2366.34855	0.94548
2364.41999	0.93908
2362.49143	0.93906
2360.56286	0.94252
2358.63430	0.94097
2356.70573	0.93578
2354.77717	0.93876
2352.84860	0.94517
2350.92004	0.94566
2348.99147	0.94323
2347.06291	0.94122
2345.13435	0.94065
2343.20578	0.94284
2341.27722	0.94392
2339.34865	0.94001
2337.42009	0.93434
2335.49152	0.93069
2333.56296	0.93200
2331.63440	0.93580
2329.70583	0.93484
2327.77727	0.93071
2325.84870	0.92900
2323.92014	0.92834
2321.99157	0.92601
2320.06301	0.92347
2318.13444	0.92325
2316.20588	0.92485
2314.27732	0.92621
2312.34875	0.92597
2310.42019	0.92408
2308.49162	0.92235
2306.56306	0.92175
2304.63449	0.92137
2302.70593	0.92090
2300.77736	0.92064
2298.84880	0.92051
2296.92024	0.92036
2294.99167	0.92006
2293.06311	0.91949
2291.13454	0.91853
2289.20598	0.91733
2287.27741	0.91637
2285.34885	0.91577
2283.42028	0.91504
2281.49172	0.91396
2279.56316	0.91305
2277.63459	0.91272
2275.70603	0.91256
2273.77746	0.91196
2271.84890	0.91093
2269.92033	0.90998
2267.99177	0.90946
2266.06320	0.90904
2264.13464	0.90821
2262.20608	0.90695
2260.27751	0.90588
2258.34895	0.90566
2256.42038	0.90587
2254.49182	0.90562
2252.56325	0.90497
2250.63469	0.90421
2248.70612	0.90333
2246.77756	0.90257
2244.84900	0.90187
2242.92043	0.90086
2240.99187	0.89984
2239.06330	0.89909
2237.13474	0.89822
2235.20617	0.89697
2233.27761	0.89552
2231.34904	0.89448
2229.42048	0.89417
2227.49192	0.89362
2225.56335	0.89200
2223.63479	0.89004
2221.70622	0.88859
2219.77766	0.88752
2217.84909	0.88653
2215.92053	0.88552
2213.99196	0.88457
2212.06340	0.88390
2210.13484	0.88350
2208.20627	0.88311
2206.27771	0.88275
2204.34914	0.88217
2202.42058	0.88077
2200.49201	0.87933
2198.56345	0.87865
2196.63488	0.87777
2194.70632	0.87628
2192.77776	0.87505
2190.84919	0.87442
2188.92063	0.87396
2186.99206	0.87323
2185.06350	0.87242
2183.13493	0.87195
2181.20637	0.87142
2179.27781	0.87006
2177.34924	0.86838
2175.42068	0.86720
2173.49211	0.86613
2171.56355	0.86472
2169.63498	0.86332
2167.70642	0.86204
2165.77785	0.86071
2163.84929	0.85956
2161.92073	0.85902
2159.99216	0.85896
2158.06360	0.85850
2156.13503	0.85737
2154.20647	0.85612
2152.27790	0.85520
2150.34934	0.85467
2148.42077	0.85422
2146.49221	0.85366
2144.56365	0.85309
2142.63508	0.85230
2140.70652	0.85126
2138.77795	0.85056
2136.84939	0.85029
2134.92082	0.84985
2132.99226	0.84903
2131.06369	0.84807
2129.13513	0.84725
2127.20657	0.84658
2125.27800	0.84612
2123.34944	0.84575
2121.42087	0.84473
2119.49231	0.84328
2117.56374	0.84256
2115.63518	0.84243
2113.70661	0.84197
2111.77805	0.84112
2109.84949	0.84044
2107.92092	0.84009
2105.99236	0.83958
2104.06379	0.83847
2102.13523	0.83702
2100.20666	0.83580
2098.27810	0.83515
2096.34953	0.83498
2094.42097	0.83478
2092.49241	0.83443
2090.56384	0.83414
2088.63528	0.83344
2086.70671	0.83233
2084.77815	0.83137
2082.84958	0.83027
2080.92102	0.82838
2078.99245	0.82623
2077.06389	0.82490
2075.13533	0.82418
2073.20676	0.82329
2071.27820	0.82244
2069.34963	0.82188
2067.42107	0.82134
2065.49250	0.82072
2063.56394	0.82007
2061.63537	0.81915
2059.70681	0.81789
2057.77825	0.81673
2055.84968	0.81596
2053.92112	0.81534
2051.99255	0.81451
2050.06399	0.81340
2048.13542	0.81213
2046.20686	0.81085
2044.27830	0.80980
2042.34973	0.80913
2040.42117	0.80842
2038.49260	0.80712
2036.56404	0.80527
2034.63547	0.80353
2032.70691	0.80213
2030.77834	0.80057
2028.84978	0.79882
2026.92122	0.79720
2024.99265	0.79566
2023.06409	0.79415
2021.13552	0.79275
2019.20696	0.79135
2017.27839	0.78982
2015.34983	0.78831
2013.42126	0.78695
2011.49270	0.78577
2009.56414	0.78480
2007.63557	0.78359
2005.70701	0.78177
2003.77844	0.77983
2001.84988	0.77825
1999.92131	0.77679
1997.99275	0.77544
1996.06418	0.77435
1994.13562	0.77317
1992.20706	0.77151
1990.27849	0.76952
1988.34993	0.76768
1986.42136	0.76595
1984.49280	0.76423
1982.56423	0.76272
1980.63567	0.76133
1978.70710	0.75997
1976.77854	0.75856
1974.84998	0.75695
1972.92141	0.75525
1970.99285	0.75367
1969.06428	0.75210
1967.13572	0.75057
1965.20715	0.74955
1963.27859	0.74893
1961.35002	0.74804
1959.42146	0.74682
1957.49290	0.74548
1955.56433	0.74380
1953.63577	0.74189
1951.70720	0.74030
1949.77864	0.73906
1947.85007	0.73779
1945.92151	0.73639
1943.99294	0.73492
1942.06438	0.73359
1940.13582	0.73243
1938.20725	0.73142
1936.27869	0.73038
1934.35012	0.72909
1932.42156	0.72779
1930.49299	0.72675
1928.56443	0.72601
1926.63586	0.72569
1924.70730	0.72539
1922.77874	0.72461
1920.85017	0.72381
1918.92161	0.72348
1916.99304	0.72345
1915.06448	0.72319
1913.13591	0.72259
1911.20735	0.72211
1909.27878	0.72201
1907.35022	0.72183
1905.42166	0.72124
1903.49309	0.72052
1901.56453	0.71983
1899.63596	0.71936
1897.70740	0.71915
1895.77883	0.71903
1893.85027	0.71883
1891.92171	0.71853
1889.99314	0.71824
1888.06458	0.71793
1886.13601	0.71743
1884.20745	0.71671
1882.27888	0.71598
1880.35032	0.71547
1878.42175	0.71499
1876.49319	0.71431
1874.56463	0.71349
1872.63606	0.71262
1870.70750	0.71156
1868.77893	0.71041
1866.85037	0.70974
1864.92180	0.70917
1862.99324	0.70826
1861.06467	0.70715
1859.13611	0.70599
1857.20755	0.70478
1855.27898	0.70365
1853.35042	0.70254
1851.42185	0.70117
1849.49329	0.69962
1847.56472	0.69816
1845.63616	0.69699
1843.70759	0.69568
1841.77903	0.69386
1839.85047	0.69205
1837.92190	0.69067
1835.99334	0.68954
1834.06477	0.68835
1832.13621	0.68723
1830.20764	0.68642
1828.27908	0.68560
1826.35051	0.68430
1824.42195	0.68293
1822.49339	0.68204
1820.56482	0.68120
1818.63626	0.68018
1816.70769	0.67940
1814.77913	0.67917
1812.85056	0.67922
1810.92200	0.67903
1808.99343	0.67860
1807.06487	0.67806
1805.13631	0.67731
1803.20774	0.67671
1801.27918	0.67679
1799.35061	0.67721
1797.42205	0.67739
1795.49348	0.67729
1793.56492	0.67689
1791.63635	0.67645
1789.70779	0.67614
1787.77923	0.67589
1785.85066	0.67569
1783.92210	0.67579
1781.99353	0.67639
1780.06497	0.67703
1778.13640	0.67744
1776.20784	0.67785
1774.27927	0.67864
1772.35071	0.68009
1770.42215	0.68153
1768.49358	0.68276
1766.56502	0.68389
1764.63645	0.68486
1762.70789	0.68653
1760.77932	0.68926
1758.85076	0.69190
1756.92220	0.69517
1754.99363	0.69892
1753.06507	0.70225
1751.13650	0.70665
1749.20794	0.71339
1747.27937	0.72048
1745.35081	0.72671
1743.42224	0.73250
1741.49368	0.73812
1739.56512	0.74345
1737.63655	0.74759
1735.70799	0.75153
1733.77942	0.75864
1731.85086	0.76632
1729.92229	0.77274
1727.99373	0.77945
1726.06516	0.78667
1724.13660	0.79596
1722.20804	0.80601
1720.27947	0.81504
1718.35091	0.82770
1716.42234	0.84928
1714.49378	0.86800
1712.56521	0.88222
1710.63665	0.89745
1708.70808	0.91524
1706.77952	0.94067
1704.85096	0.97518
1702.92239	1.00752
1700.99383	1.05116
1699.06526	1.12064
1697.13670	1.18727
1695.20813	1.25183
1693.27957	1.29837
1691.35100	1.33386
1689.42244	1.37713
1687.49388	1.41752
1685.56531	1.45881
1683.63675	1.52442
1681.70818	1.56637
1679.77962	1.58307
1677.85105	1.59716
1675.92249	1.61641
1673.99392	1.63815
1672.06536	1.65343
1670.13680	1.67055
1668.20823	1.69290
1666.27967	1.70431
1664.35110	1.70897
1662.42254	1.71418
1660.49397	1.72033
1658.56541	1.72617
1656.63684	1.73156
1654.70828	1.74057
1652.77972	1.74492
1650.85115	1.73656
1648.92259	1.72959
1646.99402	1.72288
1645.06546	1.71987
1643.13689	1.71673
1641.20833	1.71313
1639.27976	1.71081
1637.35120	1.71008
1635.42264	1.71097
1633.49407	1.71069
1631.56551	1.70739
1629.63694	1.70030
1627.70838	1.69179
1625.77981	1.68626
1623.85125	1.68573
1621.92269	1.68563
1619.99412	1.68255
1618.06556	1.67575
1616.13699	1.65799
1614.20843	1.63897
1612.27986	1.62329
1610.35130	1.60475
1608.42273	1.58370
1606.49417	1.56545
1604.56561	1.55098
1602.63704	1.53824
1600.70848	1.52898
1598.77991	1.52426
1596.85135	1.52124
1594.92278	1.51749
1592.99422	1.51477
1591.06565	1.51530
1589.13709	1.51709
1587.20853	1.51941
1585.27996	1.52582
1583.35140	1.53742
1581.42283	1.54839
1579.49427	1.55467
1577.56570	1.56142
1575.63714	1.57506
1573.70857	1.58590
1571.78001	1.59162
1569.85145	1.59838
1567.92288	1.60625
1565.99432	1.61366
1564.06575	1.62232
1562.13719	1.62986
1560.20862	1.63741
1558.28006	1.64898
1556.35149	1.65196
1554.42293	1.65237
1552.49437	1.65428
1550.56580	1.65559
1548.63724	1.65315
1546.70867	1.64927
1544.78011	1.64788
1542.85154	1.64556
1540.92298	1.63329
1538.99441	1.62965
1537.06585	1.63425
1535.13729	1.63357
1533.20872	1.62668
1531.28016	1.62044
1529.35159	1.61730
1527.42303	1.61321
1525.49446	1.60658
1523.56590	1.59942
1521.63733	1.59418
1519.70877	1.59348
1517.78021	1.59159
1515.85164	1.58558
1513.92308	1.57729
1511.99451	1.56694
1510.06595	1.55387
1508.13738	1.52861
1506.20882	1.49120
1504.28025	1.47631
1502.35169	1.46522
1500.42313	1.44976
1498.49456	1.43134
1496.56600	1.40994
1494.63743	1.39096
1492.70887	1.37716
1490.78030	1.36111
1488.85174	1.33834
1486.92317	1.32083
1484.99461	1.31076
1483.06605	1.30383
1481.13748	1.29933
1479.20892	1.29864
1477.28035	1.30250
1475.35179	1.31044
1473.42322	1.32442
1471.49466	1.34186
1469.56610	1.35294
1467.63753	1.36071
1465.70897	1.37019
1463.78040	1.38076
1461.85184	1.38782
1459.92327	1.39293
1457.99471	1.40107
1456.06614	1.41021
1454.13758	1.41339
1452.20902	1.41404
1450.28045	1.41308
1448.35189	1.41110
1446.42332	1.40926
1444.49476	1.40653
1442.56619	1.40194
1440.63763	1.39694
1438.70906	1.39124
1436.78050	1.38254
1434.85194	1.37240
1432.92337	1.36239
1430.99481	1.35137
1429.06624	1.34096
1427.13768	1.33338
1425.20911	1.32860
1423.28055	1.32649
1421.35198	1.32646
1419.42342	1.32844
1417.49486	1.33063
1415.56629	1.33066
1413.63773	1.33028
1411.70916	1.33016
1409.78060	1.33041
1407.85203	1.33134
1405.92347	1.33303
1403.99490	1.33524
1402.06634	1.33717
1400.13778	1.33920
1398.20921	1.34128
1396.28065	1.34213
1394.35208	1.34224
1392.42352	1.34283
1390.49495	1.34473
1388.56639	1.35017
1386.63782	1.35956
1384.70926	1.36849
1382.78070	1.37690
1380.85213	1.38518
1378.92357	1.38920
1376.99500	1.38648
1375.06644	1.37754
1373.13787	1.36482
1371.20931	1.35136
1369.28074	1.33526
1367.35218	1.31715
1365.42362	1.30014
1363.49505	1.28197
1361.56649	1.26358
1359.63792	1.25091
1357.70936	1.24331
1355.78079	1.23765
1353.85223	1.23175
1351.92366	1.22577
1349.99510	1.22138
1348.06654	1.21861
1346.13797	1.21629
1344.20941	1.21475
1342.28084	1.21473
1340.35228	1.21635
1338.42371	1.21907
1336.49515	1.22200
1334.56659	1.22592
1332.63802	1.23214
1330.70946	1.24024
1328.78089	1.24777
1326.85233	1.25288
1324.92376	1.25632
1322.99520	1.25932
1321.06663	1.26155
1319.13807	1.26270
1317.20951	1.26400
1315.28094	1.26605
1313.35238	1.26801
1311.42381	1.26858
1309.49525	1.26730
1307.56668	1.26504
1305.63812	1.26268
1303.70955	1.26008
1301.78099	1.25663
1299.85243	1.25221
1297.92386	1.24708
1295.99530	1.24178
1294.06673	1.23700
1292.13817	1.23295
1290.20960	1.22996
1288.28104	1.22848
1286.35247	1.22816
1284.42391	1.22810
1282.49535	1.22784
1280.56678	1.22759
1278.63822	1.22802
1276.70965	1.22996
1274.78109	1.23347
1272.85252	1.23784
1270.92396	1.24272
1268.99539	1.24802
1267.06683	1.25390
1265.13827	1.26009
1263.20970	1.26497
1261.28114	1.26774
1259.35257	1.26907
1257.42401	1.26978
1255.49544	1.27026
1253.56688	1.27013
1251.63831	1.26969
1249.70975	1.27029
1247.78119	1.27124
1245.85262	1.27060
1243.92406	1.26835
1241.99549	1.26553
1240.06693	1.26246
1238.13836	1.25858
1236.20980	1.25305
1234.28123	1.24623
1232.35267	1.23898
1230.42411	1.23072
1228.49554	1.22043
1226.56698	1.20885
1224.63841	1.19774
1222.70985	1.18754
1220.78128	1.17799
1218.85272	1.16952
1216.92415	1.16285
1214.99559	1.15872
1213.06703	1.15730
1211.13846	1.15803
1209.20990	1.16072
1207.28133	1.16442
1205.35277	1.16536
1203.42420	1.16122
1201.49564	1.15483
1199.56708	1.14779
1197.63851	1.13822
1195.70995	1.12694
1193.78138	1.11721
1191.85282	1.10975
1189.92425	1.10290
1187.99569	1.09583
1186.06712	1.08934
1184.13856	1.08450
1182.21000	1.08168
1180.28143	1.08095
1178.35287	1.08296
1176.42430	1.08804
1174.49574	1.09508
1172.56717	1.10241
1170.63861	1.10991
1168.71004	1.11949
1166.78148	1.13283
1164.85292	1.15035
1162.92435	1.17002
1160.99579	1.18669
1159.06722	1.19657
1157.13866	1.19990
1155.21009	1.19757
1153.28153	1.18925
1151.35296	1.17628
1149.42440	1.16191
1147.49584	1.14817
1145.56727	1.13621
1143.63871	1.12812
1141.71014	1.12498
1139.78158	1.12556
1137.85301	1.12884
1135.92445	1.13450
1133.99588	1.14172
1132.06732	1.15007
1130.13876	1.15999
1128.21019	1.17137
1126.28163	1.18312
1124.35306	1.19414
1122.42450	1.20376
1120.49593	1.21205
1118.56737	1.21925
1116.63880	1.22402
1114.71024	1.22423
1112.78168	1.21944
1110.85311	1.21235
1108.92455	1.20563
1106.99598	1.19905
1105.06742	1.19377
1103.13885	1.19195
1101.21029	1.19234
1099.28172	1.19314
1097.35316	1.19570
1095.42460	1.20200
1093.49603	1.21201
1091.56747	1.22584
1089.63890	1.24343
1087.71034	1.26329
1085.78177	1.28475
1083.85321	1.30650
1081.92464	1.32432
1079.99608	1.33447
1078.06752	1.33767
1076.13895	1.33588
1074.21039	1.32848
1072.28182	1.31621
1070.35326	1.30109
1068.42469	1.28473
1066.49613	1.26853
1064.56756	1.25245
1062.63900	1.23754
1060.71044	1.22579
1058.78187	1.21623
1056.85331	1.20650
1054.92474	1.19642
1052.99618	1.18675
1051.06761	1.17802
1049.13905	1.17280
1047.21049	1.17340
1045.28192	1.17866
1043.35336	1.18686
1041.42479	1.19703
1039.49623	1.20716
1037.56766	1.21503
1035.63910	1.22020
1033.71053	1.22316
1031.78197	1.22409
1029.85341	1.22309
1027.92484	1.21997
1025.99628	1.21479
1024.06771	1.20825
1022.13915	1.20135
1020.21058	1.19578
1018.28202	1.19156
1016.35345	1.18646
1014.42489	1.17878
1012.49633	1.16702
1010.56776	1.15045
1008.63920	1.13091
1006.71063	1.11102
1004.78207	1.09222
1002.85350	1.07564
1000.92494	1.06289
998.99637	1.05379
997.06781	1.04563
995.13925	1.03673
993.21068	1.02721
991.28212	1.01665
989.35355	1.00438
987.42499	0.99085
985.49642	0.97725
983.56786	0.96489
981.63929	0.95513
979.71073	0.94854
977.78217	0.94368
975.85360	0.93880
973.92504	0.93334
971.99647	0.92679
970.06791	0.91930
968.13934	0.91234
966.21078	0.90751
964.28221	0.90626
962.35365	0.91017
960.42509	0.92053
958.49652	0.93663
956.56796	0.95379
954.63939	0.96538
952.71083	0.96920
950.78226	0.96783
948.85370	0.96342
946.92513	0.95760
944.99657	0.95281
943.06801	0.94969
941.13944	0.94654
939.21088	0.94197
937.28231	0.93629
935.35375	0.93000
933.42518	0.92310
931.49662	0.91588
929.56805	0.90869
927.63949	0.90176
925.71093	0.89596
923.78236	0.89215
921.85380	0.88953
919.92523	0.88652
917.99667	0.88352
916.06810	0.88237
914.13954	0.88332
912.21098	0.88578
910.28241	0.89024
908.35385	0.89754
906.42528	0.90775
904.49672	0.92025
902.56815	0.93373
900.63959	0.94664
898.71102	0.95831
896.78246	0.96846
894.85390	0.97603
892.92533	0.98032
890.99677	0.98151
889.06820	0.97988
887.13964	0.97587
885.21107	0.97002
883.28251	0.96227
881.35394	0.95296
879.42538	0.94344
877.49682	0.93372
875.56825	0.92234
873.63969	0.90959
871.71112	0.89772
869.78256	0.88783
867.85399	0.87948
865.92543	0.87317
863.99686	0.86953
862.06830	0.86835
860.13974	0.86983
858.21117	0.87425
856.28261	0.88134
854.35404	0.89081
852.42548	0.90233
850.49691	0.91490
848.56835	0.92753
846.63978	0.94039
844.71122	0.95439
842.78266	0.97002
840.85409	0.98634
838.92553	1.00163
836.99696	1.01516
835.06840	1.02759
833.13983	1.03924
831.21127	1.04876
829.28270	1.05511
827.35414	1.05826
825.42558	1.05803
823.49701	1.05503
821.56845	1.05046
819.63988	1.04450
817.71132	1.03731
815.78275	1.02906
813.85419	1.01983
811.92562	1.01140
809.99706	1.00478
808.06850	0.99893
806.13993	0.99338
804.21137	0.98827
802.28280	0.98459
800.35424	0.98395
798.42567	0.98607
796.49711	0.98954
794.56854	0.99482
792.63998	1.00323
790.71142	1.01450
788.78285	1.02734
786.85429	1.04087
784.92572	1.05483
782.99716	1.06964
781.06859	1.08526
779.14003	1.10039
777.21147	1.11379
775.28290	1.12458
773.35434	1.13278
771.42577	1.13980
769.49721	1.14459
767.56864	1.14459
765.64008	1.14114
763.71151	1.13644
761.78295	1.12983
759.85439	1.12062
757.92582	1.10980
755.99726	1.09852
754.06869	1.08782
752.14013	1.07790
750.21156	1.06806
748.28300	1.05968
746.35443	1.05385
744.42587	1.04901
742.49731	1.04483
740.56874	1.04243
738.64018	1.04186
736.71161	1.04313
734.78305	1.04748
732.85448	1.05476
730.92592	1.06386
728.99735	1.07536
727.06879	1.08921
725.14023	1.10336
723.21166	1.11726
721.28310	1.13274
719.35453	1.14845
717.42597	1.16021
715.49740	1.16958
713.56884	1.17992
711.64027	1.18940
709.71171	1.19599
707.78315	1.20046
705.85458	1.20268
703.92602	1.20218
701.99745	1.19959
700.06889	1.19504
698.14032	1.18857
696.21176	1.18043
694.28319	1.17071
692.35463	1.16007
690.42607	1.14897
688.49750	1.13785
686.56894	1.12749
684.64037	1.11825
682.71181	1.11153
680.78324	1.10829
678.85468	1.10641
676.92611	1.10521
674.99755	1.10485
673.06899	1.10377
671.14042	1.10294
669.21186	1.10732
667.28329	1.11935
665.35473	1.12956
663.42616	1.13932
661.49760	1.14920
659.56903	1.15575
657.64047	1.16240
655.71191	1.17308
653.78334	1.18505
651.85478	1.19526
649.92621	1.20473
647.99765	1.21455
646.06908	1.22166
644.14052	1.22390
642.21195	1.22101
640.28339	1.21289
638.35483	1.20287
636.42626	1.19437
634.49770	1.18677
632.56913	1.17825
630.64057	1.16796
628.71200	1.15490
626.78344	1.13860
624.85488	1.12240
622.92631	1.11049
620.99775	1.10218
619.06918	1.09503
617.14062	1.08809
615.21205	1.08118
613.28349	1.07638
611.35492	1.07554
609.42636	1.07729
607.49780	1.08180
605.56923	1.09051
603.64067	1.10100
601.71210	1.11067
599.78354	1.12283
