3997.91406	0.92167
3995.98550	0.91928
3994.05693	0.91622
3992.12837	0.91360
3990.19980	0.91294
3988.27124	0.91379
3986.34268	0.91397
3984.41411	0.91189
3982.48555	0.90891
3980.55698	0.90791
3978.62842	0.90849
3976.69985	0.90877
3974.77129	0.90895
3972.84272	0.90867
3970.91416	0.90725
3968.98560	0.90569
3967.05703	0.90467
3965.12847	0.90462
3963.19990	0.90585
3961.27134	0.90690
3959.34277	0.90745
3957.41421	0.90881
3955.48564	0.91000
3953.55708	0.91061
3951.62852	0.91145
3949.69995	0.91118
3947.77139	0.90996
3945.84282	0.90868
3943.91426	0.90682
3941.98569	0.90641
3940.05713	0.90763
3938.12856	0.90871
3936.20000	0.90975
3934.27144	0.90946
3932.34287	0.90664
3930.41431	0.90350
3928.48574	0.90242
3926.55718	0.90299
3924.62861	0.90274
3922.70005	0.90069
3920.77148	0.89995
3918.84292	0.90208
3916.91436	0.90509
3914.98579	0.90650
3913.05723	0.90537
3911.12866	0.90179
3909.20010	0.89756
3907.27153	0.89507
3905.34297	0.89463
3903.41440	0.89348
3901.48584	0.89149
3899.55728	0.89329
3897.62871	0.89823
3895.70015	0.90169
3893.77158	0.90223
3891.84302	0.90137
3889.91445	0.90124
3887.98589	0.90233
3886.05733	0.90432
3884.12876	0.90442
3882.20020	0.90131
3880.27163	0.89681
3878.34307	0.89467
3876.41450	0.89643
3874.48594	0.89928
3872.55737	0.89875
3870.62881	0.89581
3868.70025	0.89263
3866.77168	0.88925
3864.84312	0.88844
3862.91455	0.88971
3860.98599	0.88948
3859.05742	0.89108
3857.12886	0.89677
3855.20029	0.90439
3853.27173	0.90400
3851.34317	0.89508
3849.41460	0.89045
3847.48604	0.88816
3845.55747	0.88655
3843.62891	0.88707
3841.70034	0.88954
3839.77178	0.89216
3837.84321	0.89489
3835.91465	0.89457
3833.98609	0.89075
3832.05752	0.88731
3830.12896	0.88625
3828.20039	0.88579
3826.27183	0.88351
3824.34326	0.88047
3822.41470	0.88077
3820.48613	0.88449
3818.55757	0.88521
3816.62901	0.88472
3814.70044	0.88553
3812.77188	0.88600
3810.84331	0.88584
3808.91475	0.88525
3806.98618	0.88313
3805.05762	0.88043
3803.12905	0.87919
3801.20049	0.87921
3799.27193	0.88099
3797.34336	0.88346
3795.41480	0.88365
3793.48623	0.88172
3791.55767	0.87945
3789.62910	0.87720
3787.70054	0.87574
3785.77197	0.87542
3783.84341	0.87543
3781.91485	0.87552
3779.98628	0.87557
3778.05772	0.87524
3776.12915	0.87561
3774.20059	0.87703
3772.27202	0.87892
3770.34346	0.88047
3768.41489	0.87986
3766.48633	0.87706
3764.55777	0.87410
3762.62920	0.87276
3760.70064	0.87343
3758.77207	0.87538
3756.84351	0.87689
3754.91494	0.87731
3752.98638	0.87645
3751.05781	0.87473
3749.12925	0.87447
3747.20069	0.87551
3745.27212	0.87257
3743.34356	0.86478
3741.41499	0.86248
3739.48643	0.86561
3737.55786	0.87147
3735.62930	0.87743
3733.70074	0.87531
3731.77217	0.87006
3729.84361	0.86844
3727.91504	0.86798
3725.98648	0.86723
3724.05791	0.86764
3722.12935	0.86727
3720.20078	0.86412
3718.27222	0.86116
3716.34366	0.86033
3714.41509	0.86066
3712.48653	0.86041
3710.55796	0.86019
3708.62940	0.86142
3706.70083	0.86329
3704.77227	0.86670
3702.84370	0.87036
3700.91514	0.86924
3698.98658	0.86484
3697.05801	0.86264
3695.12945	0.86351
3693.20088	0.86607
3691.27232	0.86935
3689.34375	0.87109
3687.41519	0.87042
3685.48662	0.87034
3683.55806	0.87132
3681.62950	0.87277
3679.70093	0.87522
3677.77237	0.87924
3675.84380	0.88282
3673.91524	0.88412
3671.98667	0.88605
3670.05811	0.89232
3668.12954	0.90104
3666.20098	0.90796
3664.27242	0.91414
3662.34385	0.91934
3660.41529	0.92311
3658.48672	0.92644
3656.55816	0.93095
3654.62959	0.93573
3652.70103	0.93966
3650.77246	0.94440
3648.84390	0.95079
3646.91534	0.95636
3644.98677	0.96150
3643.05821	0.96769
3641.12964	0.97470
3639.20108	0.98144
3637.27251	0.98714
3635.34395	0.99230
3633.41538	0.99861
3631.48682	1.00409
3629.55826	1.00644
3627.62969	1.01191
3625.70113	1.02075
3623.77256	1.02744
3621.84400	1.03110
3619.91543	1.03615
3617.98687	1.04441
3616.05830	1.04885
3614.12974	1.05081
3612.20118	1.05411
3610.27261	1.05701
3608.34405	1.06224
3606.41548	1.07220
3604.48692	1.07969
3602.55835	1.08318
3600.62979	1.08772
3598.70123	1.09461
3596.77266	1.10039
3594.84410	1.10642
3592.91553	1.11385
3590.98697	1.11800
3589.05840	1.11748
3587.12984	1.11953
3585.20127	1.12996
3583.27271	1.14007
3581.34415	1.14642
3579.41558	1.15157
3577.48702	1.15582
3575.55845	1.15960
3573.62989	1.16577
3571.70132	1.17465
3569.77276	1.18249
3567.84419	1.18592
3565.91563	1.19026
3563.98707	1.19805
3562.05850	1.20568
3560.12994	1.21317
3558.20137	1.21822
3556.27281	1.21906
3554.34424	1.22011
3552.41568	1.22556
3550.48711	1.23276
3548.55855	1.23895
3546.62999	1.24337
3544.70142	1.24446
3542.77286	1.24456
3540.84429	1.24685
3538.91573	1.25193
3536.98716	1.26029
3535.05860	1.26943
3533.13003	1.27544
3531.20147	1.27998
3529.27291	1.28388
3527.34434	1.28756
3525.41578	1.29392
3523.48721	1.29755
3521.55865	1.29645
3519.63008	1.29838
3517.70152	1.30653
3515.77295	1.31855
3513.84439	1.32641
3511.91583	1.32652
3509.98726	1.32996
3508.05870	1.34043
3506.13013	1.34918
3504.20157	1.35586
3502.27300	1.36064
3500.34444	1.36378
3498.41587	1.36863
3496.48731	1.37284
3494.55875	1.37642
3492.63018	1.38119
3490.70162	1.38400
3488.77305	1.38517
3486.84449	1.38887
3484.91592	1.39108
3482.98736	1.38744
3481.05879	1.38745
3479.13023	1.39429
3477.20167	1.39791
3475.27310	1.39748
3473.34454	1.39937
3471.41597	1.40510
3469.48741	1.41205
3467.55884	1.41678
3465.63028	1.41610
3463.70171	1.41085
3461.77315	1.40677
3459.84459	1.40753
3457.91602	1.41162
3455.98746	1.41575
3454.05889	1.41701
3452.13033	1.41596
3450.20176	1.41768
3448.27320	1.42134
3446.34464	1.41886
3444.41607	1.41486
3442.48751	1.41777
3440.55894	1.42401
3438.63038	1.43029
3436.70181	1.43482
3434.77325	1.43537
3432.84468	1.43459
3430.91612	1.43364
3428.98756	1.43360
3427.05899	1.43421
3425.13043	1.43286
3423.20186	1.43379
3421.27330	1.43764
3419.34473	1.43858
3417.41617	1.43788
3415.48760	1.43694
3413.55904	1.43496
3411.63048	1.43535
3409.70191	1.43963
3407.77335	1.44149
3405.84478	1.43748
3403.91622	1.43455
3401.98765	1.43628
3400.05909	1.43804
3398.13052	1.43658
3396.20196	1.43310
3394.27340	1.43071
3392.34483	1.43114
3390.41627	1.43361
3388.48770	1.43563
3386.55914	1.43507
3384.63057	1.43445
3382.70201	1.43788
3380.77344	1.44219
3378.84488	1.44320
3376.91632	1.44266
3374.98775	1.44019
3373.05919	1.43411
3371.13062	1.42865
3369.20206	1.42971
3367.27349	1.43622
3365.34493	1.44133
3363.41636	1.44487
3361.48780	1.45063
3359.55924	1.45485
3357.63067	1.45206
3355.70211	1.44671
3353.77354	1.44804
3351.84498	1.45310
3349.91641	1.45374
3347.98785	1.45238
3346.05928	1.45123
3344.13072	1.44852
3342.20216	1.44614
3340.27359	1.44433
3338.34503	1.44078
3336.41646	1.43805
3334.48790	1.43975
3332.55933	1.44298
3330.63077	1.44655
3328.70220	1.45366
3326.77364	1.46230
3324.84508	1.46821
3322.91651	1.47082
3320.98795	1.47022
3319.05938	1.46663
3317.13082	1.46486
3315.20225	1.47085
3313.27369	1.47851
3311.34513	1.47728
3309.41656	1.47088
3307.48800	1.46798
3305.55943	1.46996
3303.63087	1.47498
3301.70230	1.48003
3299.77374	1.48208
3297.84517	1.48227
3295.91661	1.48073
3293.98805	1.47415
3292.05948	1.46743
3290.13092	1.46867
3288.20235	1.47552
3286.27379	1.48318
3284.34522	1.48931
3282.41666	1.49056
3280.48809	1.48840
3278.55953	1.48698
3276.63097	1.48503
3274.70240	1.48154
3272.77384	1.47823
3270.84527	1.47289
3268.91671	1.46490
3266.98814	1.45855
3265.05958	1.45529
3263.13101	1.45340
3261.20245	1.45219
3259.27389	1.45230
3257.34532	1.45286
3255.41676	1.45000
3253.48819	1.44221
3251.55963	1.43629
3249.63106	1.43873
3247.70250	1.44168
3245.77393	1.43299
3243.84537	1.41671
3241.91681	1.40599
3239.98824	1.40621
3238.05968	1.41169
3236.13111	1.41298
3234.20255	1.40859
3232.27398	1.40453
3230.34542	1.40281
3228.41685	1.39815
3226.48829	1.39204
3224.55973	1.39296
3222.63116	1.39747
3220.70260	1.39475
3218.77403	1.38626
3216.84547	1.38229
3214.91690	1.38388
3212.98834	1.38196
3211.05977	1.37536
3209.13121	1.37196
3207.20265	1.37138
3205.27408	1.36763
3203.34552	1.36112
3201.41695	1.35573
3199.48839	1.35239
3197.55982	1.34819
3195.63126	1.34135
3193.70269	1.33547
3191.77413	1.33222
3189.84557	1.32888
3187.91700	1.32630
3185.98844	1.32563
3184.05987	1.32253
3182.13131	1.31633
3180.20274	1.31175
3178.27418	1.31004
3176.34562	1.30886
3174.41705	1.30609
3172.48849	1.30026
3170.55992	1.29246
3168.63136	1.28787
3166.70279	1.28724
3164.77423	1.28525
3162.84566	1.28160
3160.91710	1.27894
3158.98854	1.27614
3157.05997	1.27372
3155.13141	1.27393
3153.20284	1.27349
3151.27428	1.26874
3149.34571	1.26361
3147.41715	1.26207
3145.48858	1.26256
3143.56002	1.26167
3141.63146	1.25772
3139.70289	1.25300
3137.77433	1.25098
3135.84576	1.25231
3133.91720	1.25483
3131.98863	1.25635
3130.06007	1.25619
3128.13150	1.25456
3126.20294	1.25371
3124.27438	1.25627
3122.34581	1.25986
3120.41725	1.25975
3118.48868	1.25677
3116.56012	1.25530
3114.63155	1.25626
3112.70299	1.25745
3110.77442	1.25668
3108.84586	1.25390
3106.91730	1.25323
3104.98873	1.25715
3103.06017	1.25979
3101.13160	1.25573
3099.20304	1.25019
3097.27447	1.24923
3095.34591	1.25056
3093.41734	1.25062
3091.48878	1.25013
3089.56022	1.25041
3087.63165	1.24922
3085.70309	1.24401
3083.77452	1.23834
3081.84596	1.23611
3079.91739	1.23550
3077.98883	1.23495
3076.06026	1.23407
3074.13170	1.23154
3072.20314	1.22796
3070.27457	1.22314
3068.34601	1.21588
3066.41744	1.20920
3064.48888	1.20668
3062.56031	1.20632
3060.63175	1.20492
3058.70318	1.20189
3056.77462	1.19765
3054.84606	1.19298
3052.91749	1.18875
3050.98893	1.18515
3049.06036	1.18225
3047.13180	1.18016
3045.20323	1.17784
3043.27467	1.17331
3041.34610	1.16658
3039.41754	1.16018
3037.48898	1.15614
3035.56041	1.15553
3033.63185	1.15763
3031.70328	1.15828
3029.77472	1.15533
3027.84615	1.15107
3025.91759	1.14658
3023.98903	1.14153
3022.06046	1.13698
3020.13190	1.13449
3018.20333	1.13304
3016.27477	1.12980
3014.34620	1.12541
3012.41764	1.12264
3010.48907	1.12197
3008.56051	1.12174
3006.63195	1.12006
3004.70338	1.11700
3002.77482	1.11504
3000.84625	1.11498
2998.91769	1.11436
2996.98912	1.11347
2995.06056	1.11532
2993.13199	1.11885
2991.20343	1.12148
2989.27487	1.12350
2987.34630	1.12638
2985.41774	1.13109
2983.48917	1.13761
2981.56061	1.14530
2979.63204	1.15226
2977.70348	1.15729
2975.77491	1.16216
2973.84635	1.16775
2971.91779	1.17264
2969.98922	1.17660
2968.06066	1.18157
2966.13209	1.18873
2964.20353	1.19593
2962.27496	1.20028
2960.34640	1.20126
2958.41783	1.19946
2956.48927	1.19585
2954.56071	1.19151
2952.63214	1.18651
2950.70358	1.18121
2948.77501	1.17723
2946.84645	1.17616
2944.91788	1.17873
2942.98932	1.18457
2941.06075	1.19293
2939.13219	1.20223
2937.20363	1.21068
2935.27506	1.21946
2933.34650	1.23051
2931.41793	1.24192
2929.48937	1.25058
2927.56080	1.25600
2925.63224	1.26049
2923.70367	1.26675
2921.77511	1.27261
2919.84655	1.27415
2917.91798	1.27205
2915.98942	1.26456
2914.06085	1.24837
2912.13229	1.22827
2910.20372	1.21008
2908.27516	1.19440
2906.34659	1.18225
2904.41803	1.17556
2902.48947	1.17271
2900.56090	1.17041
2898.63234	1.16822
2896.70377	1.16662
2894.77521	1.16458
2892.84664	1.16166
2890.91808	1.15812
2888.98952	1.15384
2887.06095	1.15032
2885.13239	1.14889
2883.20382	1.14716
2881.27526	1.14412
2879.34669	1.14250
2877.41813	1.14301
2875.48956	1.14325
2873.56100	1.14057
2871.63244	1.13419
2869.70387	1.12673
2867.77531	1.12073
2865.84674	1.11604
2863.91818	1.11351
2861.98961	1.11447
2860.06105	1.11755
2858.13248	1.12175
2856.20392	1.12811
2854.27536	1.13637
2852.34679	1.14384
2850.41823	1.14625
2848.48966	1.13842
2846.56110	1.11867
2844.63253	1.09301
2842.70397	1.07001
2840.77540	1.05384
2838.84684	1.04340
2836.91828	1.03523
2834.98971	1.02716
2833.06115	1.01966
2831.13258	1.01419
2829.20402	1.01074
2827.27545	1.00785
2825.34689	1.00455
2823.41832	1.00065
2821.48976	0.99629
2819.56120	0.99165
2817.63263	0.98757
2815.70407	0.98481
2813.77550	0.98241
2811.84694	0.98004
2809.91837	0.97830
2807.98981	0.97629
2806.06124	0.97320
2804.13268	0.96981
2802.20412	0.96720
2800.27555	0.96510
2798.34699	0.96259
2796.41842	0.96032
2794.48986	0.95893
2792.56129	0.95722
2790.63273	0.95448
2788.70416	0.95188
2786.77560	0.94982
2784.84704	0.94718
2782.91847	0.94444
2780.98991	0.94320
2779.06134	0.94276
2777.13278	0.94133
2775.20421	0.93884
2773.27565	0.93595
2771.34708	0.93290
2769.41852	0.93015
2767.48996	0.92804
2765.56139	0.92629
2763.63283	0.92486
2761.70426	0.92363
2759.77570	0.92217
2757.84713	0.92073
2755.91857	0.91971
2753.99001	0.91887
2752.06144	0.91840
2750.13288	0.91808
2748.20431	0.91726
2746.27575	0.91655
2744.34718	0.91607
2742.41862	0.91469
2740.49005	0.91231
2738.56149	0.91004
2736.63293	0.90852
2734.70436	0.90744
2732.77580	0.90639
2730.84723	0.90515
2728.91867	0.90386
2726.99010	0.90287
2725.06154	0.90132
2723.13297	0.89853
2721.20441	0.89572
2719.27585	0.89372
2717.34728	0.89173
2715.41872	0.88946
2713.49015	0.88702
2711.56159	0.88388
2709.63302	0.88086
2707.70446	0.87933
2705.77589	0.87825
2703.84733	0.87677
2701.91877	0.87568
2699.99020	0.87419
2698.06164	0.87106
2696.13307	0.86739
2694.20451	0.86527
2692.27594	0.86530
2690.34738	0.86565
2688.41881	0.86495
2686.49025	0.86395
2684.56169	0.86284
2682.63312	0.86093
2680.70456	0.85865
2678.77599	0.85731
2676.84743	0.85692
2674.91886	0.85619
2672.99030	0.85496
2671.06173	0.85418
2669.13317	0.85354
2667.20461	0.85202
2665.27604	0.84970
2663.34748	0.84769
2661.41891	0.84660
2659.49035	0.84584
2657.56178	0.84483
2655.63322	0.84387
2653.70465	0.84263
2651.77609	0.84076
2649.84753	0.83935
2647.91896	0.83869
2645.99040	0.83805
2644.06183	0.83745
2642.13327	0.83684
2640.20470	0.83602
2638.27614	0.83531
2636.34757	0.83469
2634.41901	0.83354
2632.49045	0.83216
2630.56188	0.83132
2628.63332	0.83067
2626.70475	0.82949
2624.77619	0.82833
2622.84762	0.82767
2620.91906	0.82659
2618.99049	0.82486
2617.06193	0.82345
2615.13337	0.82222
2613.20480	0.82089
2611.27624	0.81975
2609.34767	0.81864
2607.41911	0.81739
2605.49054	0.81587
2603.56198	0.81404
2601.63342	0.81251
2599.70485	0.81119
2597.77629	0.80941
2595.84772	0.80759
2593.91916	0.80618
2591.99059	0.80466
2590.06203	0.80312
2588.13346	0.80212
2586.20490	0.80106
2584.27634	0.79960
2582.34777	0.79851
2580.41921	0.79759
2578.49064	0.79592
2576.56208	0.79393
2574.63351	0.79235
2572.70495	0.79127
2570.77638	0.79067
2568.84782	0.79001
2566.91926	0.78858
2564.99069	0.78684
2563.06213	0.78521
2561.13356	0.78325
2559.20500	0.78146
2557.27643	0.78047
2555.34787	0.77951
2553.41930	0.77771
2551.49074	0.77555
2549.56218	0.77381
2547.63361	0.77251
2545.70505	0.77151
2543.77648	0.77084
2541.84792	0.77060
2539.91935	0.77086
2537.99079	0.77101
2536.06222	0.77037
2534.13366	0.76896
2532.20510	0.76745
2530.27653	0.76680
2528.34797	0.76713
2526.41940	0.76743
2524.49084	0.76697
2522.56227	0.76626
2520.63371	0.76604
2518.70514	0.76599
2516.77658	0.76531
2514.84802	0.76413
2512.91945	0.76313
2510.99089	0.76245
2509.06232	0.76182
2507.13376	0.76068
2505.20519	0.75882
2503.27663	0.75692
2501.34806	0.75524
2499.41950	0.75325
2497.49094	0.75090
2495.56237	0.74871
2493.63381	0.74679
2491.70524	0.74503
2489.77668	0.74303
2487.84811	0.74054
2485.91955	0.73821
2483.99098	0.73662
2482.06242	0.73549
2480.13386	0.73438
2478.20529	0.73308
2476.27673	0.73173
2474.34816	0.73068
2472.41960	0.72979
2470.49103	0.72855
2468.56247	0.72742
2466.63391	0.72704
2464.70534	0.72688
2462.77678	0.72641
2460.84821	0.72578
2458.91965	0.72503
2456.99108	0.72407
2455.06252	0.72313
2453.13395	0.72267
2451.20539	0.72244
2449.27683	0.72159
2447.34826	0.72022
2445.41970	0.71891
2443.49113	0.71791
2441.56257	0.71738
2439.63400	0.71678
2437.70544	0.71535
2435.77687	0.71366
2433.84831	0.71254
2431.91975	0.71151
2429.99118	0.70988
2428.06262	0.70815
2426.13405	0.70704
2424.20549	0.70657
2422.27692	0.70631
2420.34836	0.70606
2418.41979	0.70582
2416.49123	0.70546
2414.56267	0.70501
2412.63410	0.70479
2410.70554	0.70478
2408.77697	0.70477
2406.84841	0.70473
2404.91984	0.70506
2402.99128	0.70604
2401.06271	0.70709
2399.13415	0.70749
2397.20559	0.70735
2395.27702	0.70685
2393.34846	0.70619
2391.41989	0.70605
2389.49133	0.70626
2387.56276	0.70604
2385.63420	0.70546
2383.70563	0.70493
2381.77707	0.70438
2379.84851	0.70368
2377.91994	0.70291
2375.99138	0.70225
2374.06281	0.70184
2372.13425	0.70173
2370.20568	0.70127
2368.27712	0.70031
2366.34855	0.70009
2364.41999	0.70064
2362.49143	0.70212
2360.56286	0.70479
2358.63430	0.70305
2356.70573	0.69546
2354.77717	0.68887
2352.84860	0.68516
2350.92004	0.68349
2348.99147	0.68254
2347.06291	0.68084
2345.13435	0.67907
2343.20578	0.67951
2341.27722	0.68003
2339.34865	0.67953
2337.42009	0.68026
2335.49152	0.68063
2333.56296	0.67866
2331.63440	0.67595
2329.70583	0.67383
2327.77727	0.67249
2325.84870	0.67210
2323.92014	0.67210
2321.99157	0.67231
2320.06301	0.67259
2318.13444	0.67251
2316.20588	0.67221
2314.27732	0.67166
2312.34875	0.67045
2310.42019	0.66900
2308.49162	0.66785
2306.56306	0.66663
2304.63449	0.66528
2302.70593	0.66419
2300.77736	0.66342
2298.84880	0.66287
2296.92024	0.66231
2294.99167	0.66178
2293.06311	0.66141
2291.13454	0.66095
2289.20598	0.66058
2287.27741	0.66050
2285.34885	0.66019
2283.42028	0.65950
2281.49172	0.65907
2279.56316	0.65898
2277.63459	0.65878
2275.70603	0.65850
2273.77746	0.65847
2271.84890	0.65882
2269.92033	0.65926
2267.99177	0.65963
2266.06320	0.66000
2264.13464	0.66039
2262.20608	0.66067
2260.27751	0.66079
2258.34895	0.66105
2256.42038	0.66123
2254.49182	0.66106
2252.56325	0.66099
2250.63469	0.66108
2248.70612	0.66083
2246.77756	0.66022
2244.84900	0.65970
2242.92043	0.65944
2240.99187	0.65925
2239.06330	0.65912
2237.13474	0.65923
2235.20617	0.65935
2233.27761	0.65927
2231.34904	0.65912
2229.42048	0.65890
2227.49192	0.65854
2225.56335	0.65841
2223.63479	0.65865
2221.70622	0.65863
2219.77766	0.65792
2217.84909	0.65687
2215.92053	0.65594
2213.99196	0.65544
2212.06340	0.65508
2210.13484	0.65419
2208.20627	0.65283
2206.27771	0.65163
2204.34914	0.65077
2202.42058	0.64988
2200.49201	0.64882
2198.56345	0.64774
2196.63488	0.64634
2194.70632	0.64476
2192.77776	0.64398
2190.84919	0.64398
2188.92063	0.64359
2186.99206	0.64249
2185.06350	0.64133
2183.13493	0.64055
2181.20637	0.63993
2179.27781	0.63912
2177.34924	0.63836
2175.42068	0.63808
2173.49211	0.63816
2171.56355	0.63821
2169.63498	0.63799
2167.70642	0.63780
2165.77785	0.63784
2163.84929	0.63770
2161.92073	0.63736
2159.99216	0.63722
2158.06360	0.63703
2156.13503	0.63649
2154.20647	0.63599
2152.27790	0.63576
2150.34934	0.63540
2148.42077	0.63470
2146.49221	0.63404
2144.56365	0.63373
2142.63508	0.63357
2140.70652	0.63323
2138.77795	0.63261
2136.84939	0.63185
2134.92082	0.63112
2132.99226	0.63029
2131.06369	0.62931
2129.13513	0.62854
2127.20657	0.62803
2125.27800	0.62735
2123.34944	0.62639
2121.42087	0.62544
2119.49231	0.62483
2117.56374	0.62467
2115.63518	0.62455
2113.70661	0.62410
2111.77805	0.62352
2109.84949	0.62298
2107.92092	0.62242
2105.99236	0.62183
2104.06379	0.62133
2102.13523	0.62096
2100.20666	0.62054
2098.27810	0.62012
2096.34953	0.61996
2094.42097	0.61994
2092.49241	0.61982
2090.56384	0.61942
2088.63528	0.61877
2086.70671	0.61823
2084.77815	0.61792
2082.84958	0.61752
2080.92102	0.61683
2078.99245	0.61606
2077.06389	0.61565
2075.13533	0.61549
2073.20676	0.61505
2071.27820	0.61432
2069.34963	0.61359
2067.42107	0.61289
2065.49250	0.61226
2063.56394	0.61180
2061.63537	0.61112
2059.70681	0.60998
2057.77825	0.60875
2055.84968	0.60760
2053.92112	0.60676
2051.99255	0.60648
2050.06399	0.60615
2048.13542	0.60524
2046.20686	0.60413
2044.27830	0.60316
2042.34973	0.60210
2040.42117	0.60076
2038.49260	0.59934
2036.56404	0.59804
2034.63547	0.59684
2032.70691	0.59579
2030.77834	0.59478
2028.84978	0.59352
2026.92122	0.59196
2024.99265	0.59027
2023.06409	0.58871
2021.13552	0.58732
2019.20696	0.58605
2017.27839	0.58488
2015.34983	0.58378
2013.42126	0.58280
2011.49270	0.58197
2009.56414	0.58119
2007.63557	0.58028
2005.70701	0.57933
2003.77844	0.57857
2001.84988	0.57800
1999.92131	0.57759
1997.99275	0.57731
1996.06418	0.57688
1994.13562	0.57623
1992.20706	0.57582
1990.27849	0.57575
1988.34993	0.57565
1986.42136	0.57549
1984.49280	0.57533
1982.56423	0.57509
1980.63567	0.57475
1978.70710	0.57443
1976.77854	0.57397
1974.84998	0.57319
1972.92141	0.57231
1970.99285	0.57168
1969.06428	0.57134
1967.13572	0.57093
1965.20715	0.57031
1963.27859	0.56952
1961.35002	0.56858
1959.42146	0.56759
1957.49290	0.56663
1955.56433	0.56560
1953.63577	0.56456
1951.70720	0.56381
1949.77864	0.56318
1947.85007	0.56230
1945.92151	0.56124
1943.99294	0.56034
1942.06438	0.55983
1940.13582	0.55949
1938.20725	0.55891
1936.27869	0.55817
1934.35012	0.55749
1932.42156	0.55684
1930.49299	0.55631
1928.56443	0.55602
1926.63586	0.55586
1924.70730	0.55564
1922.77874	0.55533
1920.85017	0.55491
1918.92161	0.55442
1916.99304	0.55402
1915.06448	0.55364
1913.13591	0.55318
1911.20735	0.55274
1909.27878	0.55236
1907.35022	0.55177
1905.42166	0.55082
1903.49309	0.54974
1901.56453	0.54865
1899.63596	0.54763
1897.70740	0.54671
1895.77883	0.54567
1893.85027	0.54436
1891.92171	0.54297
1889.99314	0.54169
1888.06458	0.54060
1886.13601	0.53966
1884.20745	0.53886
1882.27888	0.53816
1880.35032	0.53725
1878.42175	0.53619
1876.49319	0.53527
1874.56463	0.53457
1872.63606	0.53417
1870.70750	0.53406
1868.77893	0.53424
1866.85037	0.53480
1864.92180	0.53520
1862.99324	0.53521
1861.06467	0.53515
1859.13611	0.53543
1857.20755	0.53586
1855.27898	0.53614
1853.35042	0.53634
1851.42185	0.53647
1849.49329	0.53638
1847.56472	0.53585
1845.63616	0.53507
1843.70759	0.53458
1841.77903	0.53427
1839.85047	0.53367
1837.92190	0.53285
1835.99334	0.53200
1834.06477	0.53103
1832.13621	0.53005
1830.20764	0.52943
1828.27908	0.52918
1826.35051	0.52865
1824.42195	0.52785
1822.49339	0.52748
1820.56482	0.52755
1818.63626	0.52758
1816.70769	0.52757
1814.77913	0.52785
1812.85056	0.52833
1810.92200	0.52884
1808.99343	0.52949
1807.06487	0.53020
1805.13631	0.53081
1803.20774	0.53143
1801.27918	0.53249
1799.35061	0.53391
1797.42205	0.53506
1795.49348	0.53581
1793.56492	0.53653
1791.63635	0.53771
1789.70779	0.53887
1787.77923	0.53975
1785.85066	0.54051
1783.92210	0.54110
1781.99353	0.54154
1780.06497	0.54191
1778.13640	0.54209
1776.20784	0.54185
1774.27927	0.54144
1772.35071	0.54154
1770.42215	0.54228
1768.49358	0.54298
1766.56502	0.54367
1764.63645	0.54450
1762.70789	0.54560
1760.77932	0.54716
1758.85076	0.54916
1756.92220	0.55214
1754.99363	0.55552
1753.06507	0.55887
1751.13650	0.56408
1749.20794	0.57212
1747.27937	0.57989
1745.35081	0.58641
1743.42224	0.59285
1741.49368	0.59953
1739.56512	0.60613
1737.63655	0.61126
1735.70799	0.61581
1733.77942	0.62283
1731.85086	0.62855
1729.92229	0.63202
1727.99373	0.63588
1726.06516	0.64026
1724.13660	0.64549
1722.20804	0.65063
1720.27947	0.65520
1718.35091	0.66213
1716.42234	0.67420
1714.49378	0.68481
1712.56521	0.69350
1710.63665	0.70326
1708.70808	0.71516
1706.77952	0.73291
1704.85096	0.75588
1702.92239	0.77569
1700.99383	0.80329
1699.06526	0.84938
1697.13670	0.89400
1695.20813	0.93550
1693.27957	0.96453
1691.35100	0.98682
1689.42244	1.01372
1687.49388	1.03904
1685.56531	1.06516
1683.63675	1.10672
1681.70818	1.13659
1679.77962	1.15196
1677.85105	1.16505
1675.92249	1.18163
1673.99392	1.19989
1672.06536	1.21218
1670.13680	1.22573
1668.20823	1.24356
1666.27967	1.25424
1664.35110	1.26208
1662.42254	1.27213
1660.49397	1.27988
1658.56541	1.28324
1656.63684	1.28505
1654.70828	1.29007
1652.77972	1.29649
1650.85115	1.29347
1648.92259	1.29005
1646.99402	1.28932
1645.06546	1.28943
1643.13689	1.28769
1641.20833	1.28554
1639.27976	1.28327
1637.35120	1.28147
1635.42264	1.28064
1633.49407	1.27920
1631.56551	1.27723
1629.63694	1.27448
1627.70838	1.27120
1625.77981	1.26664
1623.85125	1.25888
1621.92269	1.24853
1619.99412	1.23822
1618.06556	1.22373
1616.13699	1.20155
1614.20843	1.18340
1612.27986	1.16822
1610.35130	1.15069
1608.42273	1.13247
1606.49417	1.11778
1604.56561	1.10734
1602.63704	1.09973
1600.70848	1.09484
1598.77991	1.09244
1596.85135	1.09145
1594.92278	1.09077
1592.99422	1.09045
1591.06565	1.09225
1589.13709	1.09733
1587.20853	1.10492
1585.27996	1.11376
1583.35140	1.12334
1581.42283	1.13259
1579.49427	1.14060
1577.56570	1.15104
1575.63714	1.16767
1573.70857	1.17925
1571.78001	1.18596
1569.85145	1.19523
1567.92288	1.20490
1565.99432	1.21146
1564.06575	1.21738
1562.13719	1.22185
1560.20862	1.22670
1558.28006	1.23728
1556.35149	1.24196
1554.42293	1.24344
1552.49437	1.24519
1550.56580	1.24622
1548.63724	1.24593
1546.70867	1.24562
1544.78011	1.24516
1542.85154	1.24163
1540.92298	1.23324
1538.99441	1.22724
1537.06585	1.22497
1535.13729	1.22203
1533.20872	1.21856
1531.28016	1.21505
1529.35159	1.21097
1527.42303	1.20584
1525.49446	1.20140
1523.56590	1.19972
1521.63733	1.19786
1519.70877	1.19422
1517.78021	1.18954
1515.85164	1.18264
1513.92308	1.17352
1511.99451	1.16303
1510.06595	1.15218
1508.13738	1.13346
1506.20882	1.10088
1504.28025	1.08494
1502.35169	1.07467
1500.42313	1.06137
1498.49456	1.04314
1496.56600	1.02186
1494.63743	1.00610
1492.70887	0.99532
1490.78030	0.98231
1488.85174	0.96550
1486.92317	0.95366
1484.99461	0.94654
1483.06605	0.94178
1481.13748	0.93949
1479.20892	0.93990
1477.28035	0.94299
1475.35179	0.94948
1473.42322	0.96231
1471.49466	0.97807
1469.56610	0.98766
1467.63753	0.99444
1465.70897	1.00238
1463.78040	1.01021
1461.85184	1.01472
1459.92327	1.01786
1457.99471	1.02405
1456.06614	1.03190
1454.13758	1.03427
1452.20902	1.03446
1450.28045	1.03359
1448.35189	1.03146
1446.42332	1.02876
1444.49476	1.02600
1442.56619	1.02249
1440.63763	1.01812
1438.70906	1.01246
1436.78050	1.00344
1434.85194	0.99324
1432.92337	0.98460
1430.99481	0.97505
1429.06624	0.96529
1427.13768	0.95817
1425.20911	0.95282
1423.28055	0.94890
1421.35198	0.94700
1419.42342	0.94654
1417.49486	0.94710
1415.56629	0.94700
1413.63773	0.94560
1411.70916	0.94356
1409.78060	0.94217
1407.85203	0.94224
1405.92347	0.94375
1403.99490	0.94613
1402.06634	0.94855
1400.13778	0.95152
1398.20921	0.95539
1396.28065	0.95955
1394.35208	0.96435
1392.42352	0.96939
1390.49495	0.97471
1388.56639	0.98349
1386.63782	0.99816
1384.70926	1.01370
1382.78070	1.02661
1380.85213	1.03610
1378.92357	1.03965
1376.99500	1.03617
1375.06644	1.02572
1373.13787	1.01135
1371.20931	0.99779
1369.28074	0.98284
1367.35218	0.96564
1365.42362	0.94961
1363.49505	0.93451
1361.56649	0.92068
1359.63792	0.91066
1357.70936	0.90347
1355.78079	0.89795
1353.85223	0.89402
1351.92366	0.89126
1349.99510	0.88949
1348.06654	0.88906
1346.13797	0.88980
1344.20941	0.89116
1342.28084	0.89312
1340.35228	0.89668
1338.42371	0.90251
1336.49515	0.90977
1334.56659	0.91852
1332.63802	0.92906
1330.70946	0.94001
1328.78089	0.94910
1326.85233	0.95537
1324.92376	0.95963
1322.99520	0.96302
1321.06663	0.96603
1319.13807	0.96853
1317.20951	0.97020
1315.28094	0.97118
1313.35238	0.97232
1311.42381	0.97344
1309.49525	0.97300
1307.56668	0.97028
1305.63812	0.96618
1303.70955	0.96225
1301.78099	0.95887
1299.85243	0.95499
1297.92386	0.94961
1295.99530	0.94346
1294.06673	0.93856
1292.13817	0.93596
1290.20960	0.93513
1288.28104	0.93501
1286.35247	0.93454
1284.42391	0.93331
1282.49535	0.93203
1280.56678	0.93163
1278.63822	0.93226
1276.70965	0.93367
1274.78109	0.93592
1272.85252	0.93972
1270.92396	0.94543
1268.99539	0.95180
1267.06683	0.95720
1265.13827	0.96125
1263.20970	0.96384
1261.28114	0.96473
1259.35257	0.96417
1257.42401	0.96271
1255.49544	0.96108
1253.56688	0.95964
1251.63831	0.95825
1249.70975	0.95689
1247.78119	0.95542
1245.85262	0.95390
1243.92406	0.95252
1241.99549	0.95063
1240.06693	0.94764
1238.13836	0.94407
1236.20980	0.94023
1234.28123	0.93538
1232.35267	0.92891
1230.42411	0.92105
1228.49554	0.91252
1226.56698	0.90405
1224.63841	0.89597
1222.70985	0.88816
1220.78128	0.88062
1218.85272	0.87405
1216.92415	0.86932
1214.99559	0.86682
1213.06703	0.86711
1211.13846	0.87053
1209.20990	0.87564
1207.28133	0.87969
1205.35277	0.88069
1203.42420	0.87816
1201.49564	0.87280
1199.56708	0.86594
1197.63851	0.85877
1195.70995	0.85200
1193.78138	0.84651
1191.85282	0.84316
1189.92425	0.84192
1187.99569	0.84229
1186.06712	0.84410
1184.13856	0.84723
1182.21000	0.85117
1180.28143	0.85565
1178.35287	0.86126
1176.42430	0.86847
1174.49574	0.87663
1172.56717	0.88485
1170.63861	0.89369
1168.71004	0.90459
1166.78148	0.91755
1164.85292	0.93064
1162.92435	0.94210
1160.99579	0.95053
1159.06722	0.95389
1157.13866	0.95119
1155.21009	0.94314
1153.28153	0.93084
1151.35296	0.91548
1149.42440	0.89850
1147.49584	0.88228
1145.56727	0.86898
1143.63871	0.85957
1141.71014	0.85469
1139.78158	0.85430
1137.85301	0.85727
1135.92445	0.86309
1133.99588	0.87209
1132.06732	0.88428
1130.13876	0.89915
1128.21019	0.91562
1126.28163	0.93202
1124.35306	0.94653
1122.42450	0.95747
1120.49593	0.96446
1118.56737	0.96811
1116.63880	0.96796
1114.71024	0.96318
1112.78168	0.95469
1110.85311	0.94484
1108.92455	0.93526
1106.99598	0.92661
1105.06742	0.91937
1103.13885	0.91375
1101.21029	0.91007
1099.28172	0.90884
1097.35316	0.91064
1095.42460	0.91663
1093.49603	0.92690
1091.56747	0.93954
1089.63890	0.95313
1087.71034	0.96787
1085.78177	0.98391
1083.85321	0.99983
1081.92464	1.01269
1079.99608	1.01968
1078.06752	1.02075
1076.13895	1.01835
1074.21039	1.01400
1072.28182	1.00784
1070.35326	0.99998
1068.42469	0.99180
1066.49613	0.98462
1064.56756	0.97751
1062.63900	0.96977
1060.71044	0.96179
1058.78187	0.95327
1056.85331	0.94473
1054.92474	0.93786
1052.99618	0.93311
1051.06761	0.93057
1049.13905	0.93097
1047.21049	0.93422
1045.28192	0.94017
1043.35336	0.94898
1041.42479	0.95888
1039.49623	0.96742
1037.56766	0.97343
1035.63910	0.97651
1033.71053	0.97676
1031.78197	0.97415
1029.85341	0.96823
1027.92484	0.95957
1025.99628	0.94978
1024.06771	0.94037
1022.13915	0.93229
1020.21058	0.92544
1018.28202	0.91909
1016.35345	0.91231
1014.42489	0.90317
1012.49633	0.89003
1010.56776	0.87293
1008.63920	0.85320
1006.71063	0.83281
1004.78207	0.81344
1002.85350	0.79643
1000.92494	0.78268
998.99637	0.77239
997.06781	0.76509
995.13925	0.75912
993.21068	0.75261
991.28212	0.74535
989.35355	0.73789
987.42499	0.73084
985.49642	0.72488
983.56786	0.72065
981.63929	0.71851
979.71073	0.71820
977.78217	0.71849
975.85360	0.71757
973.92504	0.71391
971.99647	0.70691
970.06791	0.69731
968.13934	0.68727
966.21078	0.67907
964.28221	0.67411
962.35365	0.67414
960.42509	0.68116
958.49652	0.69421
956.56796	0.70732
954.63939	0.71350
952.71083	0.71071
950.78226	0.70188
948.85370	0.69105
946.92513	0.68168
944.99657	0.67555
943.06801	0.67235
941.13944	0.67091
939.21088	0.67027
937.28231	0.67022
935.35375	0.67089
933.42518	0.67214
931.49662	0.67403
929.56805	0.67647
927.63949	0.67877
925.71093	0.68098
923.78236	0.68333
921.85380	0.68487
919.92523	0.68473
917.99667	0.68328
916.06810	0.68141
914.13954	0.67967
912.21098	0.67833
910.28241	0.67797
908.35385	0.67915
906.42528	0.68185
904.49672	0.68553
902.56815	0.68945
900.63959	0.69264
898.71102	0.69411
896.78246	0.69398
894.85390	0.69352
892.92533	0.69302
890.99677	0.69194
889.06820	0.69076
887.13964	0.69049
885.21107	0.69137
883.28251	0.69301
881.35394	0.69514
879.42538	0.69799
877.49682	0.70190
875.56825	0.70660
873.63969	0.71143
871.71112	0.71592
869.78256	0.71982
867.85399	0.72321
865.92543	0.72635
863.99686	0.72946
862.06830	0.73279
860.13974	0.73618
858.21117	0.73921
856.28261	0.74184
854.35404	0.74435
852.42548	0.74646
850.49691	0.74772
848.56835	0.74834
846.63978	0.74856
844.71122	0.74856
842.78266	0.74930
840.85409	0.75105
838.92553	0.75290
836.99696	0.75493
835.06840	0.75793
833.13983	0.76122
831.21127	0.76421
829.28270	0.76804
827.35414	0.77321
825.42558	0.77853
823.49701	0.78294
821.56845	0.78691
819.63988	0.79130
817.71132	0.79606
815.78275	0.80097
813.85419	0.80613
811.92562	0.81110
809.99706	0.81503
808.06850	0.81790
806.13993	0.82045
804.21137	0.82295
802.28280	0.82498
800.35424	0.82612
798.42567	0.82626
796.49711	0.82546
794.56854	0.82421
792.63998	0.82302
790.71142	0.82185
788.78285	0.82065
786.85429	0.81974
784.92572	0.81927
782.99716	0.81913
781.06859	0.81945
779.14003	0.81986
777.21147	0.81989
775.28290	0.82015
773.35434	0.82115
771.42577	0.82302
769.49721	0.82567
767.56864	0.82856
765.64008	0.83216
763.71151	0.83689
761.78295	0.84185
759.85439	0.84649
757.92582	0.85167
755.99726	0.85825
754.06869	0.86534
752.14013	0.87163
750.21156	0.87768
748.28300	0.88375
746.35443	0.88828
744.42587	0.89086
742.49731	0.89310
740.56874	0.89543
738.64018	0.89636
736.71161	0.89553
734.78305	0.89444
732.85448	0.89418
730.92592	0.89441
728.99735	0.89351
727.06879	0.89078
725.14023	0.88762
723.21166	0.88511
721.28310	0.88255
719.35453	0.87934
717.42597	0.87595
715.49740	0.87277
713.56884	0.87001
711.64027	0.86814
709.71171	0.86782
707.78315	0.86936
705.85458	0.87237
703.92602	0.87585
701.99745	0.87828
700.06889	0.87967
698.14032	0.88174
696.21176	0.88478
694.28319	0.88789
692.35463	0.89135
690.42607	0.89616
688.49750	0.90198
686.56894	0.90707
684.64037	0.91083
682.71181	0.91414
680.78324	0.91785
678.85468	0.92184
676.92611	0.92524
674.99755	0.92755
673.06899	0.92902
671.14042	0.93028
669.21186	0.93236
667.28329	0.93518
665.35473	0.93536
663.42616	0.93251
661.49760	0.92800
659.56903	0.92405
657.64047	0.92112
655.71191	0.91853
653.78334	0.91600
651.85478	0.91443
649.92621	0.91414
647.99765	0.91218
646.06908	0.90778
644.14052	0.90530
642.21195	0.90749
640.28339	0.91184
638.35483	0.91463
636.42626	0.91472
634.49770	0.91326
632.56913	0.91249
630.64057	0.91328
628.71200	0.91447
626.78344	0.91591
624.85488	0.91882
622.92631	0.92258
620.99775	0.92409
619.06918	0.92382
617.14062	0.92617
615.21205	0.93000
613.28349	0.93109
611.35492	0.93007
609.42636	0.92910
607.49780	0.92957
605.56923	0.93071
603.64067	0.92958
601.71210	0.92640
599.78354	0.92493
