3997.91406	0.95814
3995.98550	0.95571
3994.05693	0.95380
3992.12837	0.95302
3990.19980	0.95157
3988.27124	0.94915
3986.34268	0.94864
3984.41411	0.95146
3982.48555	0.95490
3980.55698	0.95613
3978.62842	0.95552
3976.69985	0.95480
3974.77129	0.95407
3972.84272	0.95314
3970.91416	0.95207
3968.98560	0.94967
3967.05703	0.94613
3965.12847	0.94383
3963.19990	0.94289
3961.27134	0.94221
3959.34277	0.94282
3957.41421	0.94399
3955.48564	0.94396
3953.55708	0.94375
3951.62852	0.94448
3949.69995	0.94486
3947.77139	0.94288
3945.84282	0.93899
3943.91426	0.93504
3941.98569	0.93320
3940.05713	0.93348
3938.12856	0.93322
3936.20000	0.93292
3934.27144	0.93383
3932.34287	0.93301
3930.41431	0.93001
3928.48574	0.92888
3926.55718	0.92909
3924.62861	0.92880
3922.70005	0.92860
3920.77148	0.92808
3918.84292	0.92642
3916.91436	0.92482
3914.98579	0.92404
3913.05723	0.92326
3911.12866	0.92273
3909.20010	0.92294
3907.27153	0.92266
3905.34297	0.92106
3903.41440	0.92015
3901.48584	0.92094
3899.55728	0.92118
3897.62871	0.92045
3895.70015	0.92000
3893.77158	0.91903
3891.84302	0.91571
3889.91445	0.91325
3887.98589	0.91408
3886.05733	0.91508
3884.12876	0.91327
3882.20020	0.91027
3880.27163	0.90974
3878.34307	0.91213
3876.41450	0.91254
3874.48594	0.90935
3872.55737	0.90769
3870.62881	0.91125
3868.70025	0.91627
3866.77168	0.91956
3864.84312	0.91982
3862.91455	0.91506
3860.98599	0.90935
3859.05742	0.90547
3857.12886	0.90318
3855.20029	0.90121
3853.27173	0.89578
3851.34317	0.89438
3849.41460	0.89811
3847.48604	0.90015
3845.55747	0.89864
3843.62891	0.89636
3841.70034	0.89654
3839.77178	0.89706
3837.84321	0.89561
3835.91465	0.89434
3833.98609	0.89279
3832.05752	0.89131
3830.12896	0.89184
3828.20039	0.89300
3826.27183	0.89319
3824.34326	0.89452
3822.41470	0.89714
3820.48613	0.89427
3818.55757	0.88642
3816.62901	0.87971
3814.70044	0.87818
3812.77188	0.88074
3810.84331	0.88319
3808.91475	0.88384
3806.98618	0.88204
3805.05762	0.88000
3803.12905	0.87823
3801.20049	0.87681
3799.27193	0.87913
3797.34336	0.88120
3795.41480	0.87971
3793.48623	0.87755
3791.55767	0.87625
3789.62910	0.87462
3787.70054	0.87267
3785.77197	0.87264
3783.84341	0.87548
3781.91485	0.87807
3779.98628	0.87824
3778.05772	0.87709
3776.12915	0.87623
3774.20059	0.87551
3772.27202	0.87446
3770.34346	0.87316
3768.41489	0.87302
3766.48633	0.87350
3764.55777	0.87341
3762.62920	0.87337
3760.70064	0.87310
3758.77207	0.87284
3756.84351	0.87339
3754.91494	0.87330
3752.98638	0.87170
3751.05781	0.86899
3749.12925	0.86821
3747.20069	0.86999
3745.27212	0.87072
3743.34356	0.86706
3741.41499	0.86386
3739.48643	0.86447
3737.55786	0.86790
3735.62930	0.87057
3733.70074	0.86970
3731.77217	0.86706
3729.84361	0.86501
3727.91504	0.86511
3725.98648	0.86664
3724.05791	0.86593
3722.12935	0.86249
3720.20078	0.86079
3718.27222	0.86237
3716.34366	0.86491
3714.41509	0.86715
3712.48653	0.86780
3710.55796	0.86362
3708.62940	0.85843
3706.70083	0.85679
3704.77227	0.85850
3702.84370	0.86183
3700.91514	0.86327
3698.98658	0.86201
3697.05801	0.86138
3695.12945	0.86345
3693.20088	0.86834
3691.27232	0.87494
3689.34375	0.87746
3687.41519	0.87465
3685.48662	0.87391
3683.55806	0.87567
3681.62950	0.87844
3679.70093	0.88203
3677.77237	0.88669
3675.84380	0.89015
3673.91524	0.89086
3671.98667	0.89128
3670.05811	0.89170
3668.12954	0.89477
3666.20098	0.90220
3664.27242	0.91279
3662.34385	0.92286
3660.41529	0.92897
3658.48672	0.93315
3656.55816	0.93881
3654.62959	0.94468
3652.70103	0.94965
3650.77246	0.95740
3648.84390	0.97136
3646.91534	0.98085
3644.98677	0.98714
3643.05821	0.99549
3641.12964	1.00441
3639.20108	1.01254
3637.27251	1.02009
3635.34395	1.02487
3633.41538	1.02611
3631.48682	1.02834
3629.55826	1.04116
3627.62969	1.06149
3625.70113	1.07251
3623.77256	1.07967
3621.84400	1.08549
3619.91543	1.08592
3617.98687	1.08221
3616.05830	1.08345
3614.12974	1.09164
3612.20118	1.10277
3610.27261	1.10973
3608.34405	1.11535
3606.41548	1.12674
3604.48692	1.13891
3602.55835	1.14751
3600.62979	1.15487
3598.70123	1.16366
3596.77266	1.17232
3594.84410	1.18122
3592.91553	1.19161
3590.98697	1.19963
3589.05840	1.20458
3587.12984	1.21173
3585.20127	1.22140
3583.27271	1.22750
3581.34415	1.23186
3579.41558	1.23874
3577.48702	1.24721
3575.55845	1.25559
3573.62989	1.26221
3571.70132	1.26462
3569.77276	1.26156
3567.84419	1.25675
3565.91563	1.26601
3563.98707	1.28500
3562.05850	1.29787
3560.12994	1.30348
3558.20137	1.30687
3556.27281	1.31280
3554.34424	1.32213
3552.41568	1.33112
3550.48711	1.33840
3548.55855	1.34697
3546.62999	1.35601
3544.70142	1.36097
3542.77286	1.36035
3540.84429	1.36055
3538.91573	1.36553
3536.98716	1.37116
3535.05860	1.37590
3533.13003	1.38388
3531.20147	1.39565
3529.27291	1.40442
3527.34434	1.40528
3525.41578	1.40492
3523.48721	1.40898
3521.55865	1.41659
3519.63008	1.42200
3517.70152	1.42319
3515.77295	1.42794
3513.84439	1.43793
3511.91583	1.44554
3509.98726	1.45069
3508.05870	1.45738
3506.13013	1.46535
3504.20157	1.47550
3502.27300	1.48537
3500.34444	1.49205
3498.41587	1.49634
3496.48731	1.49523
3494.55875	1.49116
3492.63018	1.49379
3490.70162	1.50469
3488.77305	1.51348
3486.84449	1.51160
3484.91592	1.50720
3482.98736	1.51084
3481.05879	1.51815
3479.13023	1.51807
3477.20167	1.50979
3475.27310	1.50029
3473.34454	1.49883
3471.41597	1.51060
3469.48741	1.52904
3467.55884	1.53753
3465.63028	1.53091
3463.70171	1.52911
3461.77315	1.54229
3459.84459	1.55187
3457.91602	1.54883
3455.98746	1.54692
3454.05889	1.55005
3452.13033	1.55078
3450.20176	1.54974
3448.27320	1.55164
3446.34464	1.55284
3444.41607	1.54718
3442.48751	1.53783
3440.55894	1.53378
3438.63038	1.53762
3436.70181	1.54458
3434.77325	1.55126
3432.84468	1.55409
3430.91612	1.55159
3428.98756	1.54913
3427.05899	1.54964
3425.13043	1.54932
3423.20186	1.54645
3421.27330	1.54631
3419.34473	1.55081
3417.41617	1.55481
3415.48760	1.55720
3413.55904	1.56060
3411.63048	1.56699
3409.70191	1.57191
3407.77335	1.56565
3405.84478	1.55301
3403.91622	1.55054
3401.98765	1.55827
3400.05909	1.56122
3398.13052	1.55665
3396.20196	1.55217
3394.27340	1.55384
3392.34483	1.56340
3390.41627	1.57231
3388.48770	1.57369
3386.55914	1.57062
3384.63057	1.56967
3382.70201	1.57506
3380.77344	1.57907
3378.84488	1.57391
3376.91632	1.56441
3374.98775	1.55413
3373.05919	1.54545
3371.13062	1.54531
3369.20206	1.55336
3367.27349	1.56304
3365.34493	1.57151
3363.41636	1.57556
3361.48780	1.57104
3359.55924	1.56273
3357.63067	1.56497
3355.70211	1.58048
3353.77354	1.59064
3351.84498	1.58754
3349.91641	1.58326
3347.98785	1.58002
3346.05928	1.57457
3344.13072	1.57370
3342.20216	1.58085
3340.27359	1.58727
3338.34503	1.58648
3336.41646	1.58335
3334.48790	1.58523
3332.55933	1.58956
3330.63077	1.58564
3328.70220	1.57742
3326.77364	1.57689
3324.84508	1.57788
3322.91651	1.57364
3320.98795	1.57343
3319.05938	1.58294
3317.13082	1.59293
3315.20225	1.59283
3313.27369	1.58813
3311.34513	1.58811
3309.41656	1.59073
3307.48800	1.59248
3305.55943	1.59559
3303.63087	1.59794
3301.70230	1.59191
3299.77374	1.58301
3297.84517	1.58399
3295.91661	1.58912
3293.98805	1.58740
3292.05948	1.58663
3290.13092	1.59393
3288.20235	1.59833
3286.27379	1.59056
3284.34522	1.58058
3282.41666	1.58057
3280.48809	1.58431
3278.55953	1.58065
3276.63097	1.57284
3274.70240	1.56889
3272.77384	1.56684
3270.84527	1.55925
3268.91671	1.54997
3266.98814	1.54721
3265.05958	1.55058
3263.13101	1.55517
3261.20245	1.55274
3259.27389	1.54299
3257.34532	1.53688
3255.41676	1.53550
3253.48819	1.53271
3251.55963	1.53042
3249.63106	1.52837
3247.70250	1.52081
3245.77393	1.51197
3243.84537	1.50848
3241.91681	1.50776
3239.98824	1.50710
3238.05968	1.50302
3236.13111	1.49367
3234.20255	1.48606
3232.27398	1.48496
3230.34542	1.48679
3228.41685	1.48470
3226.48829	1.47823
3224.55973	1.47588
3222.63116	1.47913
3220.70260	1.47991
3218.77403	1.47613
3216.84547	1.47257
3214.91690	1.47017
3212.98834	1.46373
3211.05977	1.45224
3209.13121	1.44275
3207.20265	1.43891
3205.27408	1.43932
3203.34552	1.44216
3201.41695	1.44414
3199.48839	1.44461
3197.55982	1.44591
3195.63126	1.44571
3193.70269	1.44023
3191.77413	1.43156
3189.84557	1.42515
3187.91700	1.42379
3185.98844	1.42311
3184.05987	1.41791
3182.13131	1.41205
3180.20274	1.41109
3178.27418	1.41243
3176.34562	1.40922
3174.41705	1.40212
3172.48849	1.39863
3170.55992	1.39883
3168.63136	1.39664
3166.70279	1.39271
3164.77423	1.39157
3162.84566	1.39072
3160.91710	1.38568
3158.98854	1.38059
3157.05997	1.38096
3155.13141	1.38519
3153.20284	1.38822
3151.27428	1.38749
3149.34571	1.38397
3147.41715	1.37755
3145.48858	1.36947
3143.56002	1.36403
3141.63146	1.36205
3139.70289	1.36251
3137.77433	1.36379
3135.84576	1.36249
3133.91720	1.35956
3131.98863	1.35818
3130.06007	1.35678
3128.13150	1.35309
3126.20294	1.35079
3124.27438	1.35277
3122.34581	1.35351
3120.41725	1.34941
3118.48868	1.34384
3116.56012	1.34035
3114.63155	1.34122
3112.70299	1.34478
3110.77442	1.34860
3108.84586	1.35354
3106.91730	1.35832
3104.98873	1.36001
3103.06017	1.35856
3101.13160	1.35510
3099.20304	1.35053
3097.27447	1.34688
3095.34591	1.34573
3093.41734	1.34470
3091.48878	1.34200
3089.56022	1.33956
3087.63165	1.33799
3085.70309	1.33735
3083.77452	1.33753
3081.84596	1.33583
3079.91739	1.33339
3077.98883	1.33425
3076.06026	1.33625
3074.13170	1.33519
3072.20314	1.33176
3070.27457	1.32825
3068.34601	1.32432
3066.41744	1.32001
3064.48888	1.31729
3062.56031	1.31540
3060.63175	1.31333
3058.70318	1.31109
3056.77462	1.30733
3054.84606	1.30395
3052.91749	1.30315
3050.98893	1.30310
3049.06036	1.30240
3047.13180	1.29929
3045.20323	1.29269
3043.27467	1.28606
3041.34610	1.28330
3039.41754	1.28346
3037.48898	1.28239
3035.56041	1.27885
3033.63185	1.27399
3031.70328	1.26816
3029.77472	1.26328
3027.84615	1.26119
3025.91759	1.26012
3023.98903	1.25703
3022.06046	1.25190
3020.13190	1.24761
3018.20333	1.24620
3016.27477	1.24664
3014.34620	1.24671
3012.41764	1.24620
3010.48907	1.24687
3008.56051	1.24862
3006.63195	1.24782
3004.70338	1.24422
3002.77482	1.24126
3000.84625	1.23893
2998.91769	1.23868
2996.98912	1.24274
2995.06056	1.24728
2993.13199	1.24948
2991.20343	1.25208
2989.27487	1.25784
2987.34630	1.26512
2985.41774	1.26985
2983.48917	1.27191
2981.56061	1.27560
2979.63204	1.28362
2977.70348	1.29447
2975.77491	1.30509
2973.84635	1.31309
2971.91779	1.31894
2969.98922	1.32490
2968.06066	1.32943
2966.13209	1.33062
2964.20353	1.33267
2962.27496	1.33845
2960.34640	1.34287
2958.41783	1.34129
2956.48927	1.33709
2954.56071	1.33437
2952.63214	1.33144
2950.70358	1.32704
2948.77501	1.32491
2946.84645	1.32570
2944.91788	1.32693
2942.98932	1.33182
2941.06075	1.34135
2939.13219	1.34964
2937.20363	1.35580
2935.27506	1.36391
2933.34650	1.37518
2931.41793	1.38642
2929.48937	1.39216
2927.56080	1.39367
2925.63224	1.39731
2923.70367	1.40227
2921.77511	1.40430
2919.84655	1.40299
2917.91798	1.39628
2915.98942	1.38006
2914.06085	1.35676
2912.13229	1.33446
2910.20372	1.31663
2908.27516	1.30103
2906.34659	1.28770
2904.41803	1.27959
2902.48947	1.27647
2900.56090	1.27452
2898.63234	1.27047
2896.70377	1.26406
2894.77521	1.25793
2892.84664	1.25362
2890.91808	1.25072
2888.98952	1.24891
2887.06095	1.24637
2885.13239	1.24307
2883.20382	1.24195
2881.27526	1.24297
2879.34669	1.24433
2877.41813	1.24526
2875.48956	1.24407
2873.56100	1.23964
2871.63244	1.23494
2869.70387	1.23340
2867.77531	1.23319
2865.84674	1.23164
2863.91818	1.23093
2861.98961	1.23344
2860.06105	1.23805
2858.13248	1.24364
2856.20392	1.25072
2854.27536	1.25986
2852.34679	1.26878
2850.41823	1.26986
2848.48966	1.25529
2846.56110	1.22746
2844.63253	1.19811
2842.70397	1.17543
2840.77540	1.15868
2838.84684	1.14489
2836.91828	1.13324
2834.98971	1.12441
2833.06115	1.11911
2831.13258	1.11683
2829.20402	1.11572
2827.27545	1.11348
2825.34689	1.10996
2823.41832	1.10645
2821.48976	1.10306
2819.56120	1.10028
2817.63263	1.09838
2815.70407	1.09574
2813.77550	1.09234
2811.84694	1.08990
2809.91837	1.08798
2807.98981	1.08597
2806.06124	1.08476
2804.13268	1.08346
2802.20412	1.08030
2800.27555	1.07542
2798.34699	1.07003
2796.41842	1.06563
2794.48986	1.06248
2792.56129	1.05901
2790.63273	1.05561
2788.70416	1.05400
2786.77560	1.05334
2784.84704	1.05176
2782.91847	1.04897
2780.98991	1.04643
2779.06134	1.04484
2777.13278	1.04276
2775.20421	1.04057
2773.27565	1.04040
2771.34708	1.04149
2769.41852	1.04188
2767.48996	1.04117
2765.56139	1.03920
2763.63283	1.03625
2761.70426	1.03356
2759.77570	1.03144
2757.84713	1.02937
2755.91857	1.02747
2753.99001	1.02613
2752.06144	1.02455
2750.13288	1.02130
2748.20431	1.01700
2746.27575	1.01339
2744.34718	1.01047
2742.41862	1.00786
2740.49005	1.00577
2738.56149	1.00363
2736.63293	1.00171
2734.70436	1.00107
2732.77580	1.00094
2730.84723	0.99976
2728.91867	0.99715
2726.99010	0.99482
2725.06154	0.99456
2723.13297	0.99518
2721.20441	0.99458
2719.27585	0.99274
2717.34728	0.99035
2715.41872	0.98782
2713.49015	0.98582
2711.56159	0.98498
2709.63302	0.98457
2707.70446	0.98275
2705.77589	0.97937
2703.84733	0.97631
2701.91877	0.97480
2699.99020	0.97347
2698.06164	0.97024
2696.13307	0.96635
2694.20451	0.96434
2692.27594	0.96306
2690.34738	0.96082
2688.41881	0.95905
2686.49025	0.95865
2684.56169	0.95828
2682.63312	0.95700
2680.70456	0.95581
2678.77599	0.95571
2676.84743	0.95536
2674.91886	0.95361
2672.99030	0.95154
2671.06173	0.94976
2669.13317	0.94784
2667.20461	0.94558
2665.27604	0.94297
2663.34748	0.94057
2661.41891	0.93906
2659.49035	0.93812
2657.56178	0.93708
2655.63322	0.93573
2653.70465	0.93425
2651.77609	0.93337
2649.84753	0.93325
2647.91896	0.93273
2645.99040	0.93154
2644.06183	0.93099
2642.13327	0.93090
2640.20470	0.92982
2638.27614	0.92851
2636.34757	0.92809
2634.41901	0.92770
2632.49045	0.92689
2630.56188	0.92543
2628.63332	0.92305
2626.70475	0.92116
2624.77619	0.92054
2622.84762	0.91977
2620.91906	0.91791
2618.99049	0.91554
2617.06193	0.91340
2615.13337	0.91163
2613.20480	0.90986
2611.27624	0.90798
2609.34767	0.90658
2607.41911	0.90565
2605.49054	0.90447
2603.56198	0.90304
2601.63342	0.90158
2599.70485	0.89974
2597.77629	0.89785
2595.84772	0.89622
2593.91916	0.89399
2591.99059	0.89129
2590.06203	0.88971
2588.13346	0.88927
2586.20490	0.88828
2584.27634	0.88653
2582.34777	0.88545
2580.41921	0.88480
2578.49064	0.88301
2576.56208	0.88024
2574.63351	0.87776
2572.70495	0.87582
2570.77638	0.87430
2568.84782	0.87324
2566.91926	0.87192
2564.99069	0.86971
2563.06213	0.86764
2561.13356	0.86676
2559.20500	0.86629
2557.27643	0.86524
2555.34787	0.86401
2553.41930	0.86260
2551.49074	0.86077
2549.56218	0.85940
2547.63361	0.85890
2545.70505	0.85836
2543.77648	0.85682
2541.84792	0.85457
2539.91935	0.85251
2537.99079	0.85084
2536.06222	0.84961
2534.13366	0.84876
2532.20510	0.84774
2530.27653	0.84626
2528.34797	0.84434
2526.41940	0.84253
2524.49084	0.84138
2522.56227	0.84042
2520.63371	0.83910
2518.70514	0.83735
2516.77658	0.83565
2514.84802	0.83455
2512.91945	0.83371
2510.99089	0.83271
2509.06232	0.83174
2507.13376	0.83079
2505.20519	0.82944
2503.27663	0.82790
2501.34806	0.82686
2499.41950	0.82604
2497.49094	0.82522
2495.56237	0.82441
2493.63381	0.82308
2491.70524	0.82110
2489.77668	0.81911
2487.84811	0.81756
2485.91955	0.81633
2483.99098	0.81481
2482.06242	0.81295
2480.13386	0.81115
2478.20529	0.80917
2476.27673	0.80690
2474.34816	0.80512
2472.41960	0.80401
2470.49103	0.80304
2468.56247	0.80212
2466.63391	0.80110
2464.70534	0.79974
2462.77678	0.79827
2460.84821	0.79704
2458.91965	0.79580
2456.99108	0.79388
2455.06252	0.79182
2453.13395	0.79064
2451.20539	0.79005
2449.27683	0.78928
2447.34826	0.78818
2445.41970	0.78682
2443.49113	0.78513
2441.56257	0.78361
2439.63400	0.78262
2437.70544	0.78143
2435.77687	0.77968
2433.84831	0.77778
2431.91975	0.77623
2429.99118	0.77525
2428.06262	0.77430
2426.13405	0.77275
2424.20549	0.77096
2422.27692	0.76942
2420.34836	0.76806
2418.41979	0.76689
2416.49123	0.76609
2414.56267	0.76542
2412.63410	0.76469
2410.70554	0.76396
2408.77697	0.76324
2406.84841	0.76241
2404.91984	0.76152
2402.99128	0.76067
2401.06271	0.75992
2399.13415	0.75919
2397.20559	0.75804
2395.27702	0.75644
2393.34846	0.75497
2391.41989	0.75396
2389.49133	0.75345
2387.56276	0.75302
2385.63420	0.75187
2383.70563	0.75022
2381.77707	0.74894
2379.84851	0.74834
2377.91994	0.74828
2375.99138	0.74750
2374.06281	0.74436
2372.13425	0.74057
2370.20568	0.73910
2368.27712	0.73986
2366.34855	0.74275
2364.41999	0.74989
2362.49143	0.75860
2360.56286	0.75959
2358.63430	0.75307
2356.70573	0.74635
2354.77717	0.74298
2352.84860	0.74312
2350.92004	0.74350
2348.99147	0.74266
2347.06291	0.74091
2345.13435	0.73920
2343.20578	0.73893
2341.27722	0.73929
2339.34865	0.73874
2337.42009	0.73622
2335.49152	0.73378
2333.56296	0.73430
2331.63440	0.73589
2329.70583	0.73608
2327.77727	0.73452
2325.84870	0.73181
2323.92014	0.72947
2321.99157	0.72800
2320.06301	0.72703
2318.13444	0.72660
2316.20588	0.72649
2314.27732	0.72623
2312.34875	0.72567
2310.42019	0.72516
2308.49162	0.72511
2306.56306	0.72508
2304.63449	0.72463
2302.70593	0.72403
2300.77736	0.72309
2298.84880	0.72179
2296.92024	0.72066
2294.99167	0.71976
2293.06311	0.71848
2291.13454	0.71685
2289.20598	0.71577
2287.27741	0.71538
2285.34885	0.71489
2283.42028	0.71424
2281.49172	0.71377
2279.56316	0.71300
2277.63459	0.71162
2275.70603	0.71065
2273.77746	0.71061
2271.84890	0.71060
2269.92033	0.70998
2267.99177	0.70907
2266.06320	0.70842
2264.13464	0.70800
2262.20608	0.70757
2260.27751	0.70725
2258.34895	0.70716
2256.42038	0.70713
2254.49182	0.70697
2252.56325	0.70653
2250.63469	0.70565
2248.70612	0.70456
2246.77756	0.70377
2244.84900	0.70351
2242.92043	0.70378
2240.99187	0.70430
2239.06330	0.70446
2237.13474	0.70412
2235.20617	0.70382
2233.27761	0.70362
2231.34904	0.70308
2229.42048	0.70243
2227.49192	0.70199
2225.56335	0.70164
2223.63479	0.70147
2221.70622	0.70133
2219.77766	0.70083
2217.84909	0.70017
2215.92053	0.69956
2213.99196	0.69886
2212.06340	0.69842
2210.13484	0.69825
2208.20627	0.69785
2206.27771	0.69728
2204.34914	0.69687
2202.42058	0.69648
2200.49201	0.69598
2198.56345	0.69596
2196.63488	0.69647
2194.70632	0.69671
2192.77776	0.69649
2190.84919	0.69609
2188.92063	0.69556
2186.99206	0.69497
2185.06350	0.69443
2183.13493	0.69378
2181.20637	0.69298
2179.27781	0.69222
2177.34924	0.69172
2175.42068	0.69151
2173.49211	0.69108
2171.56355	0.69016
2169.63498	0.68939
2167.70642	0.68915
2165.77785	0.68908
2163.84929	0.68883
2161.92073	0.68845
2159.99216	0.68804
2158.06360	0.68771
2156.13503	0.68741
2154.20647	0.68707
2152.27790	0.68688
2150.34934	0.68682
2148.42077	0.68654
2146.49221	0.68594
2144.56365	0.68534
2142.63508	0.68499
2140.70652	0.68459
2138.77795	0.68385
2136.84939	0.68263
2134.92082	0.68118
2132.99226	0.67983
2131.06369	0.67845
2129.13513	0.67708
2127.20657	0.67598
2125.27800	0.67508
2123.34944	0.67403
2121.42087	0.67272
2119.49231	0.67158
2117.56374	0.67097
2115.63518	0.67070
2113.70661	0.67040
2111.77805	0.67002
2109.84949	0.66983
2107.92092	0.67001
2105.99236	0.67044
2104.06379	0.67079
2102.13523	0.67058
2100.20666	0.66969
2098.27810	0.66879
2096.34953	0.66848
2094.42097	0.66834
2092.49241	0.66758
2090.56384	0.66635
2088.63528	0.66522
2086.70671	0.66403
2084.77815	0.66242
2082.84958	0.66071
2080.92102	0.65901
2078.99245	0.65702
2077.06389	0.65532
2075.13533	0.65450
2073.20676	0.65386
2071.27820	0.65289
2069.34963	0.65200
2067.42107	0.65136
2065.49250	0.65079
2063.56394	0.65023
2061.63537	0.64970
2059.70681	0.64912
2057.77825	0.64843
2055.84968	0.64762
2053.92112	0.64671
2051.99255	0.64562
2050.06399	0.64406
2048.13542	0.64204
2046.20686	0.64002
2044.27830	0.63815
2042.34973	0.63631
2040.42117	0.63443
2038.49260	0.63273
2036.56404	0.63133
2034.63547	0.62996
2032.70691	0.62852
2030.77834	0.62730
2028.84978	0.62637
2026.92122	0.62578
2024.99265	0.62535
2023.06409	0.62472
2021.13552	0.62381
2019.20696	0.62297
2017.27839	0.62245
2015.34983	0.62203
2013.42126	0.62144
2011.49270	0.62051
2009.56414	0.61923
2007.63557	0.61785
2005.70701	0.61648
2003.77844	0.61505
2001.84988	0.61322
1999.92131	0.61102
1997.99275	0.60908
1996.06418	0.60761
1994.13562	0.60623
1992.20706	0.60483
1990.27849	0.60367
1988.34993	0.60277
1986.42136	0.60196
1984.49280	0.60129
1982.56423	0.60082
1980.63567	0.60049
1978.70710	0.60026
1976.77854	0.60011
1974.84998	0.59996
1972.92141	0.59974
1970.99285	0.59942
1969.06428	0.59884
1967.13572	0.59808
1965.20715	0.59724
1963.27859	0.59609
1961.35002	0.59448
1959.42146	0.59265
1957.49290	0.59075
1955.56433	0.58880
1953.63577	0.58674
1951.70720	0.58474
1949.77864	0.58302
1947.85007	0.58153
1945.92151	0.58028
1943.99294	0.57928
1942.06438	0.57829
1940.13582	0.57738
1938.20725	0.57667
1936.27869	0.57606
1934.35012	0.57559
1932.42156	0.57524
1930.49299	0.57493
1928.56443	0.57471
1926.63586	0.57457
1924.70730	0.57433
1922.77874	0.57379
1920.85017	0.57285
1918.92161	0.57164
1916.99304	0.57027
1915.06448	0.56877
1913.13591	0.56713
1911.20735	0.56548
1909.27878	0.56398
1907.35022	0.56251
1905.42166	0.56090
1903.49309	0.55938
1901.56453	0.55844
1899.63596	0.55809
1897.70740	0.55795
1895.77883	0.55809
1893.85027	0.55855
1891.92171	0.55899
1889.99314	0.55945
1888.06458	0.55998
1886.13601	0.56048
1884.20745	0.56097
1882.27888	0.56136
1880.35032	0.56164
1878.42175	0.56178
1876.49319	0.56168
1874.56463	0.56123
1872.63606	0.56041
1870.70750	0.55927
1868.77893	0.55795
1866.85037	0.55668
1864.92180	0.55541
1862.99324	0.55412
1861.06467	0.55287
1859.13611	0.55167
1857.20755	0.55060
1855.27898	0.54967
1853.35042	0.54885
1851.42185	0.54831
1849.49329	0.54805
1847.56472	0.54773
1845.63616	0.54743
1843.70759	0.54762
1841.77903	0.54783
1839.85047	0.54788
1837.92190	0.54817
1835.99334	0.54860
1834.06477	0.54885
1832.13621	0.54896
1830.20764	0.54899
1828.27908	0.54903
1826.35051	0.54919
1824.42195	0.54939
1822.49339	0.54941
1820.56482	0.54917
1818.63626	0.54900
1816.70769	0.54908
1814.77913	0.54915
1812.85056	0.54898
1810.92200	0.54902
1808.99343	0.54956
1807.06487	0.55002
1805.13631	0.55021
1803.20774	0.55037
1801.27918	0.55078
1799.35061	0.55164
1797.42205	0.55280
1795.49348	0.55397
1793.56492	0.55529
1791.63635	0.55718
1789.70779	0.55889
1787.77923	0.56037
1785.85066	0.56198
1783.92210	0.56362
1781.99353	0.56517
1780.06497	0.56669
1778.13640	0.56813
1776.20784	0.56927
1774.27927	0.57030
1772.35071	0.57177
1770.42215	0.57355
1768.49358	0.57504
1766.56502	0.57626
1764.63645	0.57733
1762.70789	0.57900
1760.77932	0.58177
1758.85076	0.58501
1756.92220	0.58956
1754.99363	0.59486
1753.06507	0.60011
1751.13650	0.60776
1749.20794	0.61901
1747.27937	0.62985
1745.35081	0.63904
1743.42224	0.64799
1741.49368	0.65703
1739.56512	0.66561
1737.63655	0.67160
1735.70799	0.67595
1733.77942	0.68322
1731.85086	0.69068
1729.92229	0.69599
1727.99373	0.70161
1726.06516	0.70780
1724.13660	0.71516
1722.20804	0.72251
1720.27947	0.72917
1718.35091	0.73960
1716.42234	0.75855
1714.49378	0.77575
1712.56521	0.78983
1710.63665	0.80587
1708.70808	0.82569
1706.77952	0.85466
1704.85096	0.89332
1702.92239	0.92904
1700.99383	0.97838
1699.06526	1.05944
1697.13670	1.13839
1695.20813	1.21556
1693.27957	1.27286
1691.35100	1.31752
1689.42244	1.37091
1687.49388	1.41871
1685.56531	1.46130
1683.63675	1.52619
1681.70818	1.57631
1679.77962	1.60475
1677.85105	1.63042
1675.92249	1.65787
1673.99392	1.68217
1672.06536	1.69831
1670.13680	1.71119
1668.20823	1.72593
1666.27967	1.73555
1664.35110	1.74155
1662.42254	1.74752
1660.49397	1.75286
1658.56541	1.75646
1656.63684	1.75885
1654.70828	1.76758
1652.77972	1.76756
1650.85115	1.74987
1648.92259	1.73913
1646.99402	1.72952
1645.06546	1.72089
1643.13689	1.71375
1641.20833	1.70949
1639.27976	1.70665
1637.35120	1.69863
1635.42264	1.68267
1633.49407	1.67580
1631.56551	1.67540
1629.63694	1.67227
1627.70838	1.66448
1625.77981	1.65230
1623.85125	1.63387
1621.92269	1.61128
1619.99412	1.59406
1618.06556	1.57698
1616.13699	1.54952
1614.20843	1.52563
1612.27986	1.50739
1610.35130	1.48690
1608.42273	1.46462
1606.49417	1.44706
1604.56561	1.43557
1602.63704	1.42665
1600.70848	1.42060
1598.77991	1.41817
1596.85135	1.41783
1594.92278	1.41774
1592.99422	1.41810
1591.06565	1.42254
1589.13709	1.43263
1587.20853	1.44604
1585.27996	1.46048
1583.35140	1.47476
1581.42283	1.48716
1579.49427	1.49815
1577.56570	1.51338
1575.63714	1.53504
1573.70857	1.54898
1571.78001	1.55763
1569.85145	1.56976
1567.92288	1.58150
1565.99432	1.58940
1564.06575	1.59930
1562.13719	1.61133
1560.20862	1.62703
1558.28006	1.64144
1556.35149	1.63984
1554.42293	1.63676
1552.49437	1.63351
1550.56580	1.63146
1548.63724	1.62955
1546.70867	1.62587
1544.78011	1.61976
1542.85154	1.61343
1540.92298	1.60974
1538.99441	1.60121
1537.06585	1.59401
1535.13729	1.58787
1533.20872	1.57847
1531.28016	1.57008
1529.35159	1.56792
1527.42303	1.56668
1525.49446	1.55870
1523.56590	1.54771
1521.63733	1.54018
1519.70877	1.53599
1517.78021	1.52701
1515.85164	1.51240
1513.92308	1.49791
1511.99451	1.48303
1510.06595	1.46677
1508.13738	1.44087
1506.20882	1.39943
1504.28025	1.37764
1502.35169	1.36284
1500.42313	1.34558
1498.49456	1.32385
1496.56600	1.29675
1494.63743	1.27352
1492.70887	1.25763
1490.78030	1.24238
1488.85174	1.22451
1486.92317	1.21208
1484.99461	1.20567
1483.06605	1.20252
1481.13748	1.20225
1479.20892	1.20508
1477.28035	1.21219
1475.35179	1.22494
1473.42322	1.24532
1471.49466	1.26707
1469.56610	1.27884
1467.63753	1.28608
1465.70897	1.29477
1463.78040	1.30364
1461.85184	1.30766
1459.92327	1.30928
1457.99471	1.31648
1456.06614	1.32977
1454.13758	1.33377
1452.20902	1.33314
1450.28045	1.33215
1448.35189	1.33161
1446.42332	1.32997
1444.49476	1.32596
1442.56619	1.32106
1440.63763	1.31685
1438.70906	1.31154
1436.78050	1.30019
1434.85194	1.28537
1432.92337	1.27398
1430.99481	1.26439
1429.06624	1.25578
1427.13768	1.24979
1425.20911	1.24665
1423.28055	1.24599
1421.35198	1.24726
1419.42342	1.25054
1417.49486	1.25332
1415.56629	1.25346
1413.63773	1.25365
1411.70916	1.25513
1409.78060	1.25835
1407.85203	1.26343
1405.92347	1.27014
1403.99490	1.27697
1402.06634	1.28187
1400.13778	1.28543
1398.20921	1.28780
1396.28065	1.28953
1394.35208	1.29232
1392.42352	1.29530
1390.49495	1.29821
1388.56639	1.30415
1386.63782	1.31453
1384.70926	1.32333
1382.78070	1.32857
1380.85213	1.33212
1378.92357	1.33206
1376.99500	1.32575
1375.06644	1.31302
1373.13787	1.29691
1371.20931	1.28150
1369.28074	1.26365
1367.35218	1.24246
1365.42362	1.22248
1363.49505	1.20315
1361.56649	1.18561
1359.63792	1.17467
1357.70936	1.16848
1355.78079	1.16390
1353.85223	1.16043
1351.92366	1.15855
1349.99510	1.15819
1348.06654	1.15940
1346.13797	1.16175
1344.20941	1.16425
1342.28084	1.16624
1340.35228	1.16805
1338.42371	1.17100
1336.49515	1.17555
1334.56659	1.18135
1332.63802	1.18878
1330.70946	1.19735
1328.78089	1.20487
1326.85233	1.21018
1324.92376	1.21391
1322.99520	1.21681
1321.06663	1.21989
1319.13807	1.22386
1317.20951	1.22823
1315.28094	1.23241
1313.35238	1.23592
1311.42381	1.23854
1309.49525	1.24058
1307.56668	1.24165
1305.63812	1.24172
1303.70955	1.24156
1301.78099	1.24109
1299.85243	1.23962
1297.92386	1.23640
1295.99530	1.23194
1294.06673	1.22843
1292.13817	1.22670
1290.20960	1.22588
1288.28104	1.22506
1286.35247	1.22362
1284.42391	1.22165
1282.49535	1.21953
1280.56678	1.21740
1278.63822	1.21610
1276.70965	1.21680
1274.78109	1.21930
1272.85252	1.22264
1270.92396	1.22702
1268.99539	1.23285
1267.06683	1.23896
1265.13827	1.24426
1263.20970	1.24875
1261.28114	1.25217
1259.35257	1.25373
1257.42401	1.25341
1255.49544	1.25304
1253.56688	1.25445
1251.63831	1.25680
1249.70975	1.25810
1247.78119	1.25777
1245.85262	1.25625
1243.92406	1.25469
1241.99549	1.25362
1240.06693	1.25138
1238.13836	1.24621
1236.20980	1.23905
1234.28123	1.23148
1232.35267	1.22303
1230.42411	1.21347
1228.49554	1.20400
1226.56698	1.19421
1224.63841	1.18250
1222.70985	1.16989
1220.78128	1.15894
1218.85272	1.14985
1216.92415	1.14199
1214.99559	1.13603
1213.06703	1.13255
1211.13846	1.13139
1209.20990	1.13163
1207.28133	1.13116
1205.35277	1.12757
1203.42420	1.12019
1201.49564	1.11007
1199.56708	1.09796
1197.63851	1.08398
1195.70995	1.06942
1193.78138	1.05682
1191.85282	1.04718
1189.92425	1.03976
1187.99569	1.03432
1186.06712	1.03075
1184.13856	1.02878
1182.21000	1.02863
1180.28143	1.03088
1178.35287	1.03619
1176.42430	1.04477
1174.49574	1.05541
1172.56717	1.06581
1170.63861	1.07555
1168.71004	1.08695
1166.78148	1.10180
1164.85292	1.11969
1162.92435	1.13826
1160.99579	1.15292
1159.06722	1.15910
1157.13866	1.15628
1155.21009	1.14630
1153.28153	1.12973
1151.35296	1.10772
1149.42440	1.08367
1147.49584	1.06129
1145.56727	1.04232
1143.63871	1.02705
1141.71014	1.01666
1139.78158	1.01265
1137.85301	1.01428
1135.92445	1.01969
1133.99588	1.02844
1132.06732	1.04094
1130.13876	1.05679
1128.21019	1.07499
1126.28163	1.09399
1124.35306	1.11164
1122.42450	1.12672
1120.49593	1.13974
1118.56737	1.15056
1116.63880	1.15687
1114.71024	1.15624
1112.78168	1.14948
1110.85311	1.14004
1108.92455	1.13046
1106.99598	1.12192
1105.06742	1.11431
1103.13885	1.10695
1101.21029	1.10057
1099.28172	1.09684
1097.35316	1.09726
1095.42460	1.10270
1093.49603	1.11316
1091.56747	1.12795
1089.63890	1.14613
1087.71034	1.16682
1085.78177	1.18994
1083.85321	1.21495
1081.92464	1.23751
1079.99608	1.25320
1078.06752	1.26302
1076.13895	1.26740
1074.21039	1.26367
1072.28182	1.25342
1070.35326	1.24093
1068.42469	1.22660
1066.49613	1.21069
1064.56756	1.19540
1062.63900	1.18064
1060.71044	1.16526
1058.78187	1.15025
1056.85331	1.13747
1054.92474	1.12692
1052.99618	1.11730
1051.06761	1.10811
1049.13905	1.10107
1047.21049	1.09885
1045.28192	1.10186
1043.35336	1.10881
1041.42479	1.11862
1039.49623	1.12921
1037.56766	1.13824
1035.63910	1.14416
1033.71053	1.14668
1031.78197	1.14698
1029.85341	1.14516
1027.92484	1.14004
1025.99628	1.13150
1024.06771	1.12028
1022.13915	1.10823
1020.21058	1.09808
1018.28202	1.09011
1016.35345	1.08207
1014.42489	1.07210
1012.49633	1.05797
1010.56776	1.03799
1008.63920	1.01432
1006.71063	0.99035
1004.78207	0.96757
1002.85350	0.94677
1000.92494	0.92853
998.99637	0.91351
997.06781	0.90215
995.13925	0.89339
993.21068	0.88523
991.28212	0.87663
989.35355	0.86788
987.42499	0.85987
985.49642	0.85354
983.56786	0.84974
981.63929	0.84896
979.71073	0.85078
977.78217	0.85415
975.85360	0.85713
973.92504	0.85712
971.99647	0.85275
970.06791	0.84450
968.13934	0.83395
966.21078	0.82322
964.28221	0.81390
962.35365	0.80770
960.42509	0.80716
958.49652	0.81242
956.56796	0.81856
954.63939	0.81937
952.71083	0.81279
950.78226	0.80111
948.85370	0.78768
946.92513	0.77514
944.99657	0.76560
943.06801	0.75974
941.13944	0.75652
939.21088	0.75508
937.28231	0.75513
935.35375	0.75629
933.42518	0.75799
931.49662	0.75952
929.56805	0.76039
927.63949	0.76087
925.71093	0.76116
923.78236	0.76091
921.85380	0.75974
919.92523	0.75683
917.99667	0.75193
916.06810	0.74616
914.13954	0.74080
912.21098	0.73662
910.28241	0.73376
908.35385	0.73241
906.42528	0.73344
904.49672	0.73665
902.56815	0.74088
900.63959	0.74544
898.71102	0.74996
896.78246	0.75430
894.85390	0.75855
892.92533	0.76243
890.99677	0.76561
889.06820	0.76886
887.13964	0.77293
885.21107	0.77741
883.28251	0.78215
881.35394	0.78727
879.42538	0.79194
877.49682	0.79509
875.56825	0.79645
873.63969	0.79599
871.71112	0.79412
869.78256	0.79120
867.85399	0.78716
865.92543	0.78268
863.99686	0.77911
862.06830	0.77702
860.13974	0.77615
858.21117	0.77660
856.28261	0.77874
854.35404	0.78258
852.42548	0.78805
850.49691	0.79488
848.56835	0.80214
846.63978	0.80975
844.71122	0.81846
842.78266	0.82825
840.85409	0.83790
838.92553	0.84620
836.99696	0.85280
835.06840	0.85761
833.13983	0.86077
831.21127	0.86287
829.28270	0.86378
827.35414	0.86315
825.42558	0.86168
823.49701	0.86018
821.56845	0.85867
819.63988	0.85687
817.71132	0.85546
815.78275	0.85561
813.85419	0.85752
811.92562	0.86049
809.99706	0.86313
808.06850	0.86524
806.13993	0.86870
804.21137	0.87389
802.28280	0.87923
800.35424	0.88468
798.42567	0.89141
796.49711	0.89997
794.56854	0.90994
792.63998	0.92024
790.71142	0.93062
788.78285	0.94114
786.85429	0.95046
784.92572	0.95763
782.99716	0.96312
781.06859	0.96771
779.14003	0.97105
777.21147	0.97224
775.28290	0.97202
773.35434	0.97146
771.42577	0.97095
769.49721	0.97001
767.56864	0.96781
765.64008	0.96561
763.71151	0.96516
761.78295	0.96639
759.85439	0.96929
757.92582	0.97480
755.99726	0.98238
754.06869	0.98992
752.14013	0.99699
750.21156	1.00496
748.28300	1.01399
746.35443	1.02255
744.42587	1.02921
742.49731	1.03348
740.56874	1.03561
738.64018	1.03584
736.71161	1.03447
734.78305	1.03303
732.85448	1.03270
730.92592	1.03303
728.99735	1.03326
727.06879	1.03325
725.14023	1.03300
723.21166	1.03226
721.28310	1.03161
719.35453	1.03217
717.42597	1.03380
715.49740	1.03579
713.56884	1.03803
711.64027	1.04138
709.71171	1.04609
707.78315	1.05137
705.85458	1.05811
703.92602	1.06638
701.99745	1.07337
700.06889	1.07880
698.14032	1.08501
696.21176	1.09209
694.28319	1.09780
692.35463	1.10176
690.42607	1.10571
688.49750	1.11012
686.56894	1.11405
684.64037	1.11513
682.71181	1.11241
680.78324	1.10881
678.85468	1.10581
676.92611	1.10295
674.99755	1.09929
673.06899	1.09466
671.14042	1.09098
669.21186	1.08792
667.28329	1.08468
665.35473	1.08363
663.42616	1.08281
661.49760	1.08086
659.56903	1.08063
657.64047	1.08432
655.71191	1.08895
653.78334	1.09310
651.85478	1.09838
649.92621	1.10443
647.99765	1.11099
646.06908	1.11890
644.14052	1.12628
642.21195	1.13116
640.28339	1.13521
638.35483	1.13824
636.42626	1.13757
634.49770	1.13352
632.56913	1.12778
630.64057	1.11981
628.71200	1.10901
626.78344	1.09849
624.85488	1.09207
622.92631	1.08825
620.99775	1.08329
619.06918	1.07764
617.14062	1.07328
615.21205	1.07204
613.28349	1.07582
611.35492	1.08232
609.42636	1.08822
607.49780	1.09439
605.56923	1.10201
603.64067	1.10985
601.71210	1.11600
599.78354	1.12020
