3997.91406	0.87653
3995.98550	0.87556
3994.05693	0.87520
3992.12837	0.87630
3990.19980	0.87775
3988.27124	0.87919
3986.34268	0.88085
3984.41411	0.88018
3982.48555	0.87672
3980.55698	0.87385
3978.62842	0.87182
3976.69985	0.87024
3974.77129	0.87070
3972.84272	0.87109
3970.91416	0.86879
3968.98560	0.86699
3967.05703	0.86791
3965.12847	0.86751
3963.19990	0.86474
3961.27134	0.86432
3959.34277	0.86551
3957.41421	0.86339
3955.48564	0.85983
3953.55708	0.85924
3951.62852	0.86051
3949.69995	0.86079
3947.77139	0.86021
3945.84282	0.85969
3943.91426	0.85905
3941.98569	0.85928
3940.05713	0.86022
3938.12856	0.85950
3936.20000	0.85790
3934.27144	0.85698
3932.34287	0.85565
3930.41431	0.85483
3928.48574	0.85673
3926.55718	0.85969
3924.62861	0.86040
3922.70005	0.85858
3920.77148	0.85690
3918.84292	0.85556
3916.91436	0.85356
3914.98579	0.85203
3913.05723	0.85101
3911.12866	0.84904
3909.20010	0.84783
3907.27153	0.84844
3905.34297	0.84682
3903.41440	0.84197
3901.48584	0.84002
3899.55728	0.84125
3897.62871	0.84346
3895.70015	0.84629
3893.77158	0.84841
3891.84302	0.84713
3889.91445	0.84633
3887.98589	0.85012
3886.05733	0.85401
3884.12876	0.85491
3882.20020	0.85503
3880.27163	0.85165
3878.34307	0.84679
3876.41450	0.84476
3874.48594	0.84319
3872.55737	0.84003
3870.62881	0.83672
3868.70025	0.83787
3866.77168	0.84087
3864.84312	0.83881
3862.91455	0.83528
3860.98599	0.83750
3859.05742	0.84169
3857.12886	0.84444
3855.20029	0.84424
3853.27173	0.83828
3851.34317	0.83396
3849.41460	0.83432
3847.48604	0.83574
3845.55747	0.83641
3843.62891	0.83510
3841.70034	0.83227
3839.77178	0.83008
3837.84321	0.82929
3835.91465	0.82868
3833.98609	0.82905
3832.05752	0.83103
3830.12896	0.83242
3828.20039	0.83116
3826.27183	0.82824
3824.34326	0.82690
3822.41470	0.82695
3820.48613	0.82642
3818.55757	0.82596
3816.62901	0.82377
3814.70044	0.82191
3812.77188	0.82355
3810.84331	0.82621
3808.91475	0.82754
3806.98618	0.82649
3805.05762	0.82633
3803.12905	0.82759
3801.20049	0.82500
3799.27193	0.82172
3797.34336	0.82106
3795.41480	0.82045
3793.48623	0.82024
3791.55767	0.82117
3789.62910	0.82202
3787.70054	0.82140
3785.77197	0.81899
3783.84341	0.81678
3781.91485	0.81658
3779.98628	0.81624
3778.05772	0.81498
3776.12915	0.81467
3774.20059	0.81493
3772.27202	0.81513
3770.34346	0.81495
3768.41489	0.81555
3766.48633	0.81692
3764.55777	0.81678
3762.62920	0.81621
3760.70064	0.81638
3758.77207	0.81571
3756.84351	0.81386
3754.91494	0.81169
3752.98638	0.80859
3751.05781	0.80675
3749.12925	0.81096
3747.20069	0.81514
3745.27212	0.81647
3743.34356	0.81728
3741.41499	0.81773
3739.48643	0.81713
3737.55786	0.81740
3735.62930	0.81871
3733.70074	0.81843
3731.77217	0.81806
3729.84361	0.81772
3727.91504	0.81838
3725.98648	0.82081
3724.05791	0.82140
3722.12935	0.81827
3720.20078	0.81503
3718.27222	0.81447
3716.34366	0.81551
3714.41509	0.81665
3712.48653	0.81713
3710.55796	0.81519
3708.62940	0.81338
3706.70083	0.81424
3704.77227	0.81625
3702.84370	0.81852
3700.91514	0.82150
3698.98658	0.82469
3697.05801	0.82734
3695.12945	0.82876
3693.20088	0.82905
3691.27232	0.82861
3689.34375	0.82827
3687.41519	0.83101
3685.48662	0.83588
3683.55806	0.84098
3681.62950	0.84612
3679.70093	0.85244
3677.77237	0.85959
3675.84380	0.86318
3673.91524	0.86144
3671.98667	0.85952
3670.05811	0.86169
3668.12954	0.87004
3666.20098	0.87896
3664.27242	0.88696
3662.34385	0.89380
3660.41529	0.89831
3658.48672	0.90023
3656.55816	0.90255
3654.62959	0.90814
3652.70103	0.91565
3650.77246	0.92557
3648.84390	0.93628
3646.91534	0.94316
3644.98677	0.94812
3643.05821	0.95217
3641.12964	0.95839
3639.20108	0.96837
3637.27251	0.97804
3635.34395	0.98539
3633.41538	0.99399
3631.48682	1.00460
3629.55826	1.01190
3627.62969	1.01446
3625.70113	1.02068
3623.77256	1.02933
3621.84400	1.03772
3619.91543	1.04533
3617.98687	1.05290
3616.05830	1.06286
3614.12974	1.07353
3612.20118	1.08085
3610.27261	1.08605
3608.34405	1.09238
3606.41548	1.10018
3604.48692	1.10695
3602.55835	1.11167
3600.62979	1.11630
3598.70123	1.12181
3596.77266	1.12736
3594.84410	1.13603
3592.91553	1.14563
3590.98697	1.15045
3589.05840	1.15371
3587.12984	1.16106
3585.20127	1.17209
3583.27271	1.18217
3581.34415	1.18961
3579.41558	1.19619
3577.48702	1.20407
3575.55845	1.21332
3573.62989	1.22370
3571.70132	1.23447
3569.77276	1.24319
3567.84419	1.24907
3565.91563	1.25487
3563.98707	1.26128
3562.05850	1.26871
3560.12994	1.27705
3558.20137	1.28433
3556.27281	1.29013
3554.34424	1.29849
3552.41568	1.31078
3550.48711	1.31937
3548.55855	1.32369
3546.62999	1.32808
3544.70142	1.33239
3542.77286	1.33817
3540.84429	1.34574
3538.91573	1.35146
3536.98716	1.35261
3535.05860	1.35277
3533.13003	1.35783
3531.20147	1.36619
3529.27291	1.37175
3527.34434	1.37564
3525.41578	1.38334
3523.48721	1.39409
3521.55865	1.40470
3519.63008	1.41082
3517.70152	1.41267
3515.77295	1.41830
3513.84439	1.42908
3511.91583	1.43895
3509.98726	1.44676
3508.05870	1.45401
3506.13013	1.46298
3504.20157	1.47529
3502.27300	1.48579
3500.34444	1.49261
3498.41587	1.49924
3496.48731	1.50468
3494.55875	1.50801
3492.63018	1.51012
3490.70162	1.51255
3488.77305	1.51749
3486.84449	1.52051
3484.91592	1.51776
3482.98736	1.51619
3481.05879	1.51660
3479.13023	1.51623
3477.20167	1.52051
3475.27310	1.52760
3473.34454	1.53501
3471.41597	1.54904
3469.48741	1.56298
3467.55884	1.56233
3465.63028	1.55527
3463.70171	1.55529
3461.77315	1.55865
3459.84459	1.56093
3457.91602	1.56305
3455.98746	1.56469
3454.05889	1.56323
3452.13033	1.55743
3450.20176	1.55602
3448.27320	1.56745
3446.34464	1.58119
3444.41607	1.58323
3442.48751	1.58115
3440.55894	1.58266
3438.63038	1.58511
3436.70181	1.58711
3434.77325	1.59009
3432.84468	1.59344
3430.91612	1.59320
3428.98756	1.58992
3427.05899	1.58673
3425.13043	1.58476
3423.20186	1.58538
3421.27330	1.58537
3419.34473	1.58257
3417.41617	1.58138
3415.48760	1.58459
3413.55904	1.59185
3411.63048	1.60135
3409.70191	1.61039
3407.77335	1.61661
3405.84478	1.61681
3403.91622	1.60675
3401.98765	1.59384
3400.05909	1.59173
3398.13052	1.59755
3396.20196	1.59937
3394.27340	1.59612
3392.34483	1.59592
3390.41627	1.60207
3388.48770	1.60738
3386.55914	1.60677
3384.63057	1.60476
3382.70201	1.60553
3380.77344	1.60703
3378.84488	1.60684
3376.91632	1.60828
3374.98775	1.61649
3373.05919	1.62543
3371.13062	1.62349
3369.20206	1.61511
3367.27349	1.61528
3365.34493	1.62703
3363.41636	1.63788
3361.48780	1.63898
3359.55924	1.63422
3357.63067	1.62733
3355.70211	1.62068
3353.77354	1.62030
3351.84498	1.62767
3349.91641	1.63508
3347.98785	1.63760
3346.05928	1.63903
3344.13072	1.63958
3342.20216	1.63503
3340.27359	1.62937
3338.34503	1.63235
3336.41646	1.64233
3334.48790	1.64486
3332.55933	1.63897
3330.63077	1.63816
3328.70220	1.64624
3326.77364	1.65747
3324.84508	1.66437
3322.91651	1.66527
3320.98795	1.66675
3319.05938	1.66658
3317.13082	1.65834
3315.20225	1.64860
3313.27369	1.64525
3311.34513	1.65058
3309.41656	1.66526
3307.48800	1.68026
3305.55943	1.68258
3303.63087	1.67570
3301.70230	1.66960
3299.77374	1.66485
3297.84517	1.66209
3295.91661	1.66441
3293.98805	1.66815
3292.05948	1.66729
3290.13092	1.66425
3288.20235	1.66682
3286.27379	1.67295
3284.34522	1.67048
3282.41666	1.65649
3280.48809	1.64378
3278.55953	1.64272
3276.63097	1.64646
3274.70240	1.64517
3272.77384	1.64371
3270.84527	1.64483
3268.91671	1.64001
3266.98814	1.62791
3265.05958	1.61853
3263.13101	1.61872
3261.20245	1.62376
3259.27389	1.62497
3257.34532	1.62312
3255.41676	1.62189
3253.48819	1.61776
3251.55963	1.61060
3249.63106	1.60536
3247.70250	1.60291
3245.77393	1.60252
3243.84537	1.60116
3241.91681	1.59469
3239.98824	1.58793
3238.05968	1.58672
3236.13111	1.58533
3234.20255	1.57854
3232.27398	1.57168
3230.34542	1.56854
3228.41685	1.56942
3226.48829	1.57394
3224.55973	1.57531
3222.63116	1.56963
3220.70260	1.56206
3218.77403	1.55733
3216.84547	1.55665
3214.91690	1.55499
3212.98834	1.54748
3211.05977	1.54116
3209.13121	1.54012
3207.20265	1.53620
3205.27408	1.52731
3203.34552	1.52007
3201.41695	1.51745
3199.48839	1.51759
3197.55982	1.51609
3195.63126	1.51197
3193.70269	1.50852
3191.77413	1.50689
3189.84557	1.50759
3187.91700	1.50783
3185.98844	1.50371
3184.05987	1.49671
3182.13131	1.48758
3180.20274	1.47852
3178.27418	1.47434
3176.34562	1.47263
3174.41705	1.46912
3172.48849	1.46702
3170.55992	1.46720
3168.63136	1.46374
3166.70279	1.45802
3164.77423	1.45664
3162.84566	1.45809
3160.91710	1.45821
3158.98854	1.45841
3157.05997	1.46035
3155.13141	1.46040
3153.20284	1.45483
3151.27428	1.44480
3149.34571	1.43565
3147.41715	1.43238
3145.48858	1.43196
3143.56002	1.43010
3141.63146	1.42955
3139.70289	1.43087
3137.77433	1.43027
3135.84576	1.42895
3133.91720	1.43061
3131.98863	1.43146
3130.06007	1.42839
3128.13150	1.42563
3126.20294	1.42213
3124.27438	1.41767
3122.34581	1.41838
3120.41725	1.42157
3118.48868	1.42173
3116.56012	1.42190
3114.63155	1.42221
3112.70299	1.41849
3110.77442	1.41349
3108.84586	1.41234
3106.91730	1.41398
3104.98873	1.41580
3103.06017	1.41747
3101.13160	1.41696
3099.20304	1.41300
3097.27447	1.40858
3095.34591	1.40592
3093.41734	1.40573
3091.48878	1.40761
3089.56022	1.40757
3087.63165	1.40442
3085.70309	1.40057
3083.77452	1.39618
3081.84596	1.39232
3079.91739	1.39038
3077.98883	1.38969
3076.06026	1.38900
3074.13170	1.38639
3072.20314	1.38321
3070.27457	1.38245
3068.34601	1.38094
3066.41744	1.37491
3064.48888	1.36789
3062.56031	1.36289
3060.63175	1.35900
3058.70318	1.35668
3056.77462	1.35487
3054.84606	1.35076
3052.91749	1.34515
3050.98893	1.33973
3049.06036	1.33518
3047.13180	1.33171
3045.20323	1.32770
3043.27467	1.32225
3041.34610	1.31640
3039.41754	1.31150
3037.48898	1.30928
3035.56041	1.30937
3033.63185	1.30823
3031.70328	1.30467
3029.77472	1.30126
3027.84615	1.29945
3025.91759	1.29795
3023.98903	1.29473
3022.06046	1.29077
3020.13190	1.28933
3018.20333	1.28875
3016.27477	1.28514
3014.34620	1.27993
3012.41764	1.27508
3010.48907	1.27136
3008.56051	1.26955
3006.63195	1.26680
3004.70338	1.26270
3002.77482	1.26057
3000.84625	1.25929
2998.91769	1.25780
2996.98912	1.25817
2995.06056	1.25899
2993.13199	1.25856
2991.20343	1.25975
2989.27487	1.26390
2987.34630	1.26895
2985.41774	1.27469
2983.48917	1.28122
2981.56061	1.28745
2979.63204	1.29328
2977.70348	1.29937
2975.77491	1.30598
2973.84635	1.31288
2971.91779	1.32097
2969.98922	1.33106
2968.06066	1.34177
2966.13209	1.35094
2964.20353	1.35698
2962.27496	1.35907
2960.34640	1.35667
2958.41783	1.35094
2956.48927	1.34478
2954.56071	1.33913
2952.63214	1.33418
2950.70358	1.33069
2948.77501	1.32819
2946.84645	1.32577
2944.91788	1.32355
2942.98932	1.32333
2941.06075	1.32877
2939.13219	1.34067
2937.20363	1.35393
2935.27506	1.36411
2933.34650	1.37090
2931.41793	1.37619
2929.48937	1.38251
2927.56080	1.38989
2925.63224	1.39625
2923.70367	1.39866
2921.77511	1.39619
2919.84655	1.39294
2917.91798	1.39001
2915.98942	1.38017
2914.06085	1.36055
2912.13229	1.33838
2910.20372	1.31950
2908.27516	1.30486
2906.34659	1.29372
2904.41803	1.28488
2902.48947	1.27914
2900.56090	1.27621
2898.63234	1.27260
2896.70377	1.26792
2894.77521	1.26451
2892.84664	1.26039
2890.91808	1.25341
2888.98952	1.24659
2887.06095	1.24159
2885.13239	1.23740
2883.20382	1.23479
2881.27526	1.23398
2879.34669	1.23405
2877.41813	1.23487
2875.48956	1.23483
2873.56100	1.23127
2871.63244	1.22416
2869.70387	1.21650
2867.77531	1.21055
2865.84674	1.20607
2863.91818	1.20319
2861.98961	1.20369
2860.06105	1.20853
2858.13248	1.21618
2856.20392	1.22501
2854.27536	1.23516
2852.34679	1.24522
2850.41823	1.24899
2848.48966	1.23931
2846.56110	1.21575
2844.63253	1.18625
2842.70397	1.16063
2840.77540	1.14336
2838.84684	1.13262
2836.91828	1.12432
2834.98971	1.11615
2833.06115	1.10895
2831.13258	1.10312
2829.20402	1.09713
2827.27545	1.09163
2825.34689	1.08731
2823.41832	1.08195
2821.48976	1.07505
2819.56120	1.06891
2817.63263	1.06430
2815.70407	1.05975
2813.77550	1.05510
2811.84694	1.05200
2809.91837	1.05001
2807.98981	1.04676
2806.06124	1.04261
2804.13268	1.04000
2802.20412	1.03916
2800.27555	1.03887
2798.34699	1.03833
2796.41842	1.03732
2794.48986	1.03589
2792.56129	1.03389
2790.63273	1.03128
2788.70416	1.02893
2786.77560	1.02826
2784.84704	1.02879
2782.91847	1.02775
2780.98991	1.02447
2779.06134	1.02115
2777.13278	1.01886
2775.20421	1.01696
2773.27565	1.01450
2771.34708	1.01091
2769.41852	1.00629
2767.48996	1.00131
2765.56139	0.99719
2763.63283	0.99462
2761.70426	0.99234
2759.77570	0.98852
2757.84713	0.98349
2755.91857	0.97890
2753.99001	0.97546
2752.06144	0.97314
2750.13288	0.97155
2748.20431	0.96984
2746.27575	0.96823
2744.34718	0.96766
2742.41862	0.96760
2740.49005	0.96680
2738.56149	0.96559
2736.63293	0.96483
2734.70436	0.96437
2732.77580	0.96423
2730.84723	0.96457
2728.91867	0.96505
2726.99010	0.96507
2725.06154	0.96421
2723.13297	0.96312
2721.20441	0.96251
2719.27585	0.96217
2717.34728	0.96145
2715.41872	0.95937
2713.49015	0.95591
2711.56159	0.95275
2709.63302	0.95075
2707.70446	0.94870
2705.77589	0.94606
2703.84733	0.94340
2701.91877	0.94025
2699.99020	0.93611
2698.06164	0.93205
2696.13307	0.92910
2694.20451	0.92679
2692.27594	0.92455
2690.34738	0.92234
2688.41881	0.92034
2686.49025	0.91891
2684.56169	0.91788
2682.63312	0.91690
2680.70456	0.91634
2678.77599	0.91618
2676.84743	0.91598
2674.91886	0.91587
2672.99030	0.91601
2671.06173	0.91615
2669.13317	0.91658
2667.20461	0.91762
2665.27604	0.91820
2663.34748	0.91726
2661.41891	0.91497
2659.49035	0.91177
2657.56178	0.90844
2655.63322	0.90600
2653.70465	0.90443
2651.77609	0.90263
2649.84753	0.89981
2647.91896	0.89684
2645.99040	0.89428
2644.06183	0.89144
2642.13327	0.88799
2640.20470	0.88405
2638.27614	0.88020
2636.34757	0.87708
2634.41901	0.87436
2632.49045	0.87191
2630.56188	0.86998
2628.63332	0.86823
2626.70475	0.86659
2624.77619	0.86567
2622.84762	0.86536
2620.91906	0.86547
2618.99049	0.86627
2617.06193	0.86705
2615.13337	0.86724
2613.20480	0.86783
2611.27624	0.86927
2609.34767	0.87043
2607.41911	0.87032
2605.49054	0.86932
2603.56198	0.86851
2601.63342	0.86838
2599.70485	0.86834
2597.77629	0.86774
2595.84772	0.86666
2593.91916	0.86520
2591.99059	0.86328
2590.06203	0.86100
2588.13346	0.85890
2586.20490	0.85677
2584.27634	0.85363
2582.34777	0.84992
2580.41921	0.84676
2578.49064	0.84424
2576.56208	0.84192
2574.63351	0.83947
2572.70495	0.83700
2570.77638	0.83475
2568.84782	0.83272
2566.91926	0.83077
2564.99069	0.82893
2563.06213	0.82742
2561.13356	0.82638
2559.20500	0.82584
2557.27643	0.82544
2555.34787	0.82464
2553.41930	0.82340
2551.49074	0.82225
2549.56218	0.82192
2547.63361	0.82248
2545.70505	0.82306
2543.77648	0.82299
2541.84792	0.82236
2539.91935	0.82151
2537.99079	0.82090
2536.06222	0.82039
2534.13366	0.81948
2532.20510	0.81830
2530.27653	0.81680
2528.34797	0.81484
2526.41940	0.81310
2524.49084	0.81163
2522.56227	0.80971
2520.63371	0.80735
2518.70514	0.80509
2516.77658	0.80320
2514.84802	0.80145
2512.91945	0.79938
2510.99089	0.79709
2509.06232	0.79532
2507.13376	0.79411
2505.20519	0.79291
2503.27663	0.79162
2501.34806	0.79039
2499.41950	0.78924
2497.49094	0.78805
2495.56237	0.78693
2493.63381	0.78584
2491.70524	0.78444
2489.77668	0.78335
2487.84811	0.78322
2485.91955	0.78300
2483.99098	0.78168
2482.06242	0.77971
2480.13386	0.77805
2478.20529	0.77695
2476.27673	0.77581
2474.34816	0.77429
2472.41960	0.77254
2470.49103	0.77061
2468.56247	0.76860
2466.63391	0.76669
2464.70534	0.76471
2462.77678	0.76275
2460.84821	0.76133
2458.91965	0.75996
2456.99108	0.75808
2455.06252	0.75625
2453.13395	0.75512
2451.20539	0.75442
2449.27683	0.75339
2447.34826	0.75230
2445.41970	0.75156
2443.49113	0.75080
2441.56257	0.74997
2439.63400	0.74930
2437.70544	0.74867
2435.77687	0.74772
2433.84831	0.74655
2431.91975	0.74579
2429.99118	0.74552
2428.06262	0.74487
2426.13405	0.74369
2424.20549	0.74274
2422.27692	0.74176
2420.34836	0.74008
2418.41979	0.73828
2416.49123	0.73679
2414.56267	0.73509
2412.63410	0.73330
2410.70554	0.73200
2408.77697	0.73071
2406.84841	0.72902
2404.91984	0.72727
2402.99128	0.72573
2401.06271	0.72445
2399.13415	0.72318
2397.20559	0.72163
2395.27702	0.72003
2393.34846	0.71892
2391.41989	0.71846
2389.49133	0.71825
2387.56276	0.71798
2385.63420	0.71761
2383.70563	0.71718
2381.77707	0.71678
2379.84851	0.71652
2377.91994	0.71642
2375.99138	0.71656
2374.06281	0.71706
2372.13425	0.71735
2370.20568	0.71686
2368.27712	0.71636
2366.34855	0.71652
2364.41999	0.71836
2362.49143	0.72243
2360.56286	0.72543
2358.63430	0.72520
2356.70573	0.72182
2354.77717	0.71725
2352.84860	0.71387
2350.92004	0.71171
2348.99147	0.71111
2347.06291	0.71200
2345.13435	0.71322
2343.20578	0.71338
2341.27722	0.71160
2339.34865	0.70857
2337.42009	0.70635
2335.49152	0.70562
2333.56296	0.70692
2331.63440	0.70937
2329.70583	0.71037
2327.77727	0.70926
2325.84870	0.70808
2323.92014	0.70863
2321.99157	0.70956
2320.06301	0.70922
2318.13444	0.70834
2316.20588	0.70739
2314.27732	0.70608
2312.34875	0.70445
2310.42019	0.70329
2308.49162	0.70318
2306.56306	0.70311
2304.63449	0.70226
2302.70593	0.70119
2300.77736	0.69980
2298.84880	0.69781
2296.92024	0.69611
2294.99167	0.69495
2293.06311	0.69364
2291.13454	0.69215
2289.20598	0.69081
2287.27741	0.68977
2285.34885	0.68915
2283.42028	0.68878
2281.49172	0.68838
2279.56316	0.68787
2277.63459	0.68731
2275.70603	0.68712
2273.77746	0.68758
2271.84890	0.68809
2269.92033	0.68817
2267.99177	0.68834
2266.06320	0.68895
2264.13464	0.68989
2262.20608	0.69081
2260.27751	0.69123
2258.34895	0.69140
2256.42038	0.69177
2254.49182	0.69225
2252.56325	0.69267
2250.63469	0.69268
2248.70612	0.69221
2246.77756	0.69173
2244.84900	0.69135
2242.92043	0.69083
2240.99187	0.69020
2239.06330	0.68957
2237.13474	0.68883
2235.20617	0.68784
2233.27761	0.68695
2231.34904	0.68633
2229.42048	0.68574
2227.49192	0.68487
2225.56335	0.68345
2223.63479	0.68173
2221.70622	0.68048
2219.77766	0.67968
2217.84909	0.67882
2215.92053	0.67805
2213.99196	0.67785
2212.06340	0.67808
2210.13484	0.67826
2208.20627	0.67826
2206.27771	0.67810
2204.34914	0.67780
2202.42058	0.67768
2200.49201	0.67797
2198.56345	0.67841
2196.63488	0.67894
2194.70632	0.67968
2192.77776	0.68022
2190.84919	0.68019
2188.92063	0.67994
2186.99206	0.67988
2185.06350	0.67990
2183.13493	0.67985
2181.20637	0.67980
2179.27781	0.67978
2177.34924	0.67978
2175.42068	0.67971
2173.49211	0.67911
2171.56355	0.67802
2169.63498	0.67721
2167.70642	0.67693
2165.77785	0.67649
2163.84929	0.67550
2161.92073	0.67437
2159.99216	0.67366
2158.06360	0.67335
2156.13503	0.67287
2154.20647	0.67217
2152.27790	0.67184
2150.34934	0.67197
2148.42077	0.67219
2146.49221	0.67249
2144.56365	0.67319
2142.63508	0.67406
2140.70652	0.67460
2138.77795	0.67494
2136.84939	0.67552
2134.92082	0.67623
2132.99226	0.67662
2131.06369	0.67679
2129.13513	0.67707
2127.20657	0.67733
2125.27800	0.67759
2123.34944	0.67791
2121.42087	0.67770
2119.49231	0.67680
2117.56374	0.67578
2115.63518	0.67451
2113.70661	0.67249
2111.77805	0.67045
2109.84949	0.66917
2107.92092	0.66807
2105.99236	0.66655
2104.06379	0.66502
2102.13523	0.66377
2100.20666	0.66252
2098.27810	0.66127
2096.34953	0.66032
2094.42097	0.65958
2092.49241	0.65879
2090.56384	0.65793
2088.63528	0.65720
2086.70671	0.65682
2084.77815	0.65660
2082.84958	0.65600
2080.92102	0.65516
2078.99245	0.65457
2077.06389	0.65432
2075.13533	0.65425
2073.20676	0.65407
2071.27820	0.65355
2069.34963	0.65289
2067.42107	0.65255
2065.49250	0.65259
2063.56394	0.65258
2061.63537	0.65207
2059.70681	0.65100
2057.77825	0.64975
2055.84968	0.64855
2053.92112	0.64743
2051.99255	0.64621
2050.06399	0.64463
2048.13542	0.64293
2046.20686	0.64137
2044.27830	0.63971
2042.34973	0.63782
2040.42117	0.63602
2038.49260	0.63459
2036.56404	0.63334
2034.63547	0.63188
2032.70691	0.63046
2030.77834	0.62954
2028.84978	0.62892
2026.92122	0.62820
2024.99265	0.62758
2023.06409	0.62738
2021.13552	0.62736
2019.20696	0.62745
2017.27839	0.62786
2015.34983	0.62821
2013.42126	0.62793
2011.49270	0.62710
2009.56414	0.62621
2007.63557	0.62568
2005.70701	0.62529
2003.77844	0.62477
2001.84988	0.62401
1999.92131	0.62276
1997.99275	0.62118
1996.06418	0.61983
1994.13562	0.61860
1992.20706	0.61698
1990.27849	0.61497
1988.34993	0.61288
1986.42136	0.61084
1984.49280	0.60887
1982.56423	0.60679
1980.63567	0.60457
1978.70710	0.60243
1976.77854	0.60055
1974.84998	0.59904
1972.92141	0.59777
1970.99285	0.59653
1969.06428	0.59532
1967.13572	0.59450
1965.20715	0.59417
1963.27859	0.59385
1961.35002	0.59355
1959.42146	0.59367
1957.49290	0.59391
1955.56433	0.59380
1953.63577	0.59346
1951.70720	0.59326
1949.77864	0.59315
1947.85007	0.59285
1945.92151	0.59240
1943.99294	0.59188
1942.06438	0.59113
1940.13582	0.59004
1938.20725	0.58861
1936.27869	0.58691
1934.35012	0.58517
1932.42156	0.58348
1930.49299	0.58174
1928.56443	0.57998
1926.63586	0.57841
1924.70730	0.57708
1922.77874	0.57586
1920.85017	0.57456
1918.92161	0.57322
1916.99304	0.57210
1915.06448	0.57110
1913.13591	0.57012
1911.20735	0.56931
1909.27878	0.56880
1907.35022	0.56865
1905.42166	0.56861
1903.49309	0.56844
1901.56453	0.56829
1899.63596	0.56837
1897.70740	0.56859
1895.77883	0.56899
1893.85027	0.56949
1891.92171	0.56975
1889.99314	0.56978
1888.06458	0.56960
1886.13601	0.56918
1884.20745	0.56859
1882.27888	0.56783
1880.35032	0.56709
1878.42175	0.56642
1876.49319	0.56550
1874.56463	0.56421
1872.63606	0.56273
1870.70750	0.56116
1868.77893	0.55978
1866.85037	0.55875
1864.92180	0.55748
1862.99324	0.55589
1861.06467	0.55452
1859.13611	0.55379
1857.20755	0.55334
1855.27898	0.55294
1853.35042	0.55270
1851.42185	0.55261
1849.49329	0.55257
1847.56472	0.55250
1845.63616	0.55269
1843.70759	0.55336
1841.77903	0.55374
1839.85047	0.55378
1837.92190	0.55419
1835.99334	0.55499
1834.06477	0.55544
1832.13621	0.55549
1830.20764	0.55576
1828.27908	0.55624
1826.35051	0.55650
1824.42195	0.55696
1822.49339	0.55758
1820.56482	0.55793
1818.63626	0.55822
1816.70769	0.55878
1814.77913	0.55940
1812.85056	0.55979
1810.92200	0.56022
1808.99343	0.56097
1807.06487	0.56181
1805.13631	0.56255
1803.20774	0.56329
1801.27918	0.56453
1799.35061	0.56618
1797.42205	0.56771
1795.49348	0.56894
1793.56492	0.57038
1791.63635	0.57267
1789.70779	0.57447
1787.77923	0.57559
1785.85066	0.57691
1783.92210	0.57857
1781.99353	0.58046
1780.06497	0.58264
1778.13640	0.58466
1776.20784	0.58619
1774.27927	0.58785
1772.35071	0.59072
1770.42215	0.59413
1768.49358	0.59687
1766.56502	0.59915
1764.63645	0.60122
1762.70789	0.60419
1760.77932	0.60848
1758.85076	0.61305
1756.92220	0.61865
1754.99363	0.62421
1753.06507	0.62903
1751.13650	0.63611
1749.20794	0.64710
1747.27937	0.65805
1745.35081	0.66701
1743.42224	0.67482
1741.49368	0.68207
1739.56512	0.68917
1737.63655	0.69441
1735.70799	0.69835
1733.77942	0.70526
1731.85086	0.71227
1729.92229	0.71694
1727.99373	0.72175
1726.06516	0.72708
1724.13660	0.73362
1722.20804	0.74042
1720.27947	0.74674
1718.35091	0.75646
1716.42234	0.77289
1714.49378	0.78631
1712.56521	0.79681
1710.63665	0.80862
1708.70808	0.82285
1706.77952	0.84434
1704.85096	0.87399
1702.92239	0.90144
1700.99383	0.94008
1699.06526	1.00375
1697.13670	1.06494
1695.20813	1.12299
1693.27957	1.16355
1691.35100	1.19374
1689.42244	1.23100
1687.49388	1.26640
1685.56531	1.30059
1683.63675	1.35170
1681.70818	1.38782
1679.77962	1.40682
1677.85105	1.42354
1675.92249	1.44304
1673.99392	1.46299
1672.06536	1.47754
1670.13680	1.49448
1668.20823	1.51327
1666.27967	1.52041
1664.35110	1.52515
1662.42254	1.53638
1660.49397	1.54657
1658.56541	1.55094
1656.63684	1.55403
1654.70828	1.56191
1652.77972	1.56772
1650.85115	1.56138
1648.92259	1.55593
1646.99402	1.55070
1645.06546	1.54886
1643.13689	1.54835
1641.20833	1.54658
1639.27976	1.54370
1637.35120	1.54302
1635.42264	1.54367
1633.49407	1.53856
1631.56551	1.53195
1629.63694	1.52506
1627.70838	1.51854
1625.77981	1.51142
1623.85125	1.50065
1621.92269	1.48714
1619.99412	1.47567
1618.06556	1.46364
1616.13699	1.44591
1614.20843	1.42814
1612.27986	1.41089
1610.35130	1.39223
1608.42273	1.37444
1606.49417	1.35978
1604.56561	1.34785
1602.63704	1.33801
1600.70848	1.33092
1598.77991	1.32546
1596.85135	1.32143
1594.92278	1.31989
1592.99422	1.31987
1591.06565	1.32111
1589.13709	1.32480
1587.20853	1.33077
1585.27996	1.33823
1583.35140	1.34724
1581.42283	1.35618
1579.49427	1.36333
1577.56570	1.37244
1575.63714	1.38784
1573.70857	1.39908
1571.78001	1.40552
1569.85145	1.41472
1567.92288	1.42588
1565.99432	1.43536
1564.06575	1.44498
1562.13719	1.45190
1560.20862	1.45683
1558.28006	1.46955
1556.35149	1.47860
1554.42293	1.48108
1552.49437	1.48213
1550.56580	1.48412
1548.63724	1.48524
1546.70867	1.48300
1544.78011	1.48033
1542.85154	1.48244
1540.92298	1.48654
1538.99441	1.48231
1537.06585	1.47821
1535.13729	1.47523
1533.20872	1.47045
1531.28016	1.46308
1529.35159	1.45660
1527.42303	1.45216
1525.49446	1.44661
1523.56590	1.43749
1521.63733	1.42881
1519.70877	1.42508
1517.78021	1.42166
1515.85164	1.41503
1513.92308	1.40382
1511.99451	1.39015
1510.06595	1.37761
1508.13738	1.35859
1506.20882	1.31830
1504.28025	1.29315
1502.35169	1.27779
1500.42313	1.26140
1498.49456	1.23980
1496.56600	1.21337
1494.63743	1.19215
1492.70887	1.17677
1490.78030	1.16074
1488.85174	1.14237
1486.92317	1.12869
1484.99461	1.12068
1483.06605	1.11691
1481.13748	1.11704
1479.20892	1.12005
1477.28035	1.12622
1475.35179	1.13839
1473.42322	1.16006
1471.49466	1.18190
1469.56610	1.19180
1467.63753	1.19704
1465.70897	1.20395
1463.78040	1.21242
1461.85184	1.21704
1459.92327	1.21850
1457.99471	1.22421
1456.06614	1.23436
1454.13758	1.23507
1452.20902	1.23148
1450.28045	1.22729
1448.35189	1.22288
1446.42332	1.21785
1444.49476	1.21223
1442.56619	1.20606
1440.63763	1.19964
1438.70906	1.19236
1436.78050	1.18198
1434.85194	1.17075
1432.92337	1.16194
1430.99481	1.15439
1429.06624	1.14844
1427.13768	1.14477
1425.20911	1.14365
1423.28055	1.14532
1421.35198	1.14843
1419.42342	1.15419
1417.49486	1.16252
1415.56629	1.16795
1413.63773	1.17108
1411.70916	1.17360
1409.78060	1.17594
1407.85203	1.17804
1405.92347	1.17978
1403.99490	1.18051
1402.06634	1.17998
1400.13778	1.17913
1398.20921	1.17878
1396.28065	1.17873
1394.35208	1.17845
1392.42352	1.17833
1390.49495	1.17881
1388.56639	1.18133
1386.63782	1.18702
1384.70926	1.19375
1382.78070	1.20030
1380.85213	1.20568
1378.92357	1.20770
1376.99500	1.20493
1375.06644	1.19659
1373.13787	1.18491
1371.20931	1.17347
1369.28074	1.16035
1367.35218	1.14542
1365.42362	1.13235
1363.49505	1.12087
1361.56649	1.11078
1359.63792	1.10441
1357.70936	1.10109
1355.78079	1.09932
1353.85223	1.09822
1351.92366	1.09718
1349.99510	1.09609
1348.06654	1.09519
1346.13797	1.09435
1344.20941	1.09307
1342.28084	1.09161
1340.35228	1.09125
1338.42371	1.09201
1336.49515	1.09240
1334.56659	1.09300
1332.63802	1.09535
1330.70946	1.09966
1328.78089	1.10406
1326.85233	1.10672
1324.92376	1.10803
1322.99520	1.10915
1321.06663	1.11001
1319.13807	1.11074
1317.20951	1.11252
1315.28094	1.11501
1313.35238	1.11702
1311.42381	1.11848
1309.49525	1.11959
1307.56668	1.12019
1305.63812	1.12044
1303.70955	1.12077
1301.78099	1.12091
1299.85243	1.12001
1297.92386	1.11787
1295.99530	1.11570
1294.06673	1.11439
1292.13817	1.11337
1290.20960	1.11251
1288.28104	1.11236
1286.35247	1.11290
1284.42391	1.11319
1282.49535	1.11232
1280.56678	1.11064
1278.63822	1.10928
1276.70965	1.10895
1274.78109	1.11010
1272.85252	1.11264
1270.92396	1.11587
1268.99539	1.11969
1267.06683	1.12446
1265.13827	1.12968
1263.20970	1.13386
1261.28114	1.13616
1259.35257	1.13702
1257.42401	1.13747
1255.49544	1.13857
1253.56688	1.14063
1251.63831	1.14298
1249.70975	1.14504
1247.78119	1.14645
1245.85262	1.14732
1243.92406	1.14825
1241.99549	1.14929
1240.06693	1.14940
1238.13836	1.14720
1236.20980	1.14307
1234.28123	1.13889
1232.35267	1.13466
1230.42411	1.12862
1228.49554	1.12097
1226.56698	1.11316
1224.63841	1.10491
1222.70985	1.09515
1220.78128	1.08397
1218.85272	1.07266
1216.92415	1.06303
1214.99559	1.05634
1213.06703	1.05266
1211.13846	1.05093
1209.20990	1.04999
1207.28133	1.04891
1205.35277	1.04623
1203.42420	1.04118
1201.49564	1.03454
1199.56708	1.02715
1197.63851	1.01965
1195.70995	1.01289
1193.78138	1.00726
1191.85282	1.00292
1189.92425	1.00041
1187.99569	0.99901
1186.06712	0.99763
1184.13856	0.99694
1182.21000	0.99764
1180.28143	0.99966
1178.35287	1.00344
1176.42430	1.00843
1174.49574	1.01283
1172.56717	1.01630
1170.63861	1.02052
1168.71004	1.02663
1166.78148	1.03468
1164.85292	1.04514
1162.92435	1.05718
1160.99579	1.06733
1159.06722	1.07209
1157.13866	1.07013
1155.21009	1.06228
1153.28153	1.04992
1151.35296	1.03413
1149.42440	1.01717
1147.49584	1.00235
1145.56727	0.99158
1143.63871	0.98479
1141.71014	0.98169
1139.78158	0.98231
1137.85301	0.98628
1135.92445	0.99315
1133.99588	1.00251
1132.06732	1.01376
1130.13876	1.02654
1128.21019	1.04065
1126.28163	1.05512
1124.35306	1.06778
1122.42450	1.07733
1120.49593	1.08451
1118.56737	1.08923
1116.63880	1.08964
1114.71024	1.08528
1112.78168	1.07784
1110.85311	1.06917
1108.92455	1.06051
1106.99598	1.05228
1105.06742	1.04482
1103.13885	1.03904
1101.21029	1.03534
1099.28172	1.03342
1097.35316	1.03398
1095.42460	1.03907
1093.49603	1.04941
1091.56747	1.06361
1089.63890	1.08033
1087.71034	1.09826
1085.78177	1.11653
1083.85321	1.13478
1081.92464	1.15068
1079.99608	1.16156
1078.06752	1.16704
1076.13895	1.16744
1074.21039	1.16347
1072.28182	1.15740
1070.35326	1.15054
1068.42469	1.14222
1066.49613	1.13350
1064.56756	1.12630
1062.63900	1.12001
1060.71044	1.11296
1058.78187	1.10436
1056.85331	1.09479
1054.92474	1.08564
1052.99618	1.07734
1051.06761	1.06988
1049.13905	1.06358
1047.21049	1.05796
1045.28192	1.05290
1043.35336	1.05002
1041.42479	1.04994
1039.49623	1.05160
1037.56766	1.05357
1035.63910	1.05433
1033.71053	1.05313
1031.78197	1.05042
1029.85341	1.04667
1027.92484	1.04128
1025.99628	1.03354
1024.06771	1.02460
1022.13915	1.01660
1020.21058	1.01066
1018.28202	1.00620
1016.35345	1.00195
1014.42489	0.99652
1012.49633	0.98889
1010.56776	0.97957
1008.63920	0.96955
1006.71063	0.95906
1004.78207	0.94844
1002.85350	0.93849
1000.92494	0.92974
998.99637	0.92226
997.06781	0.91594
995.13925	0.90988
993.21068	0.90291
991.28212	0.89466
989.35355	0.88486
987.42499	0.87377
985.49642	0.86282
983.56786	0.85332
981.63929	0.84549
979.71073	0.83893
977.78217	0.83319
975.85360	0.82754
973.92504	0.82125
971.99647	0.81392
970.06791	0.80577
968.13934	0.79827
966.21078	0.79321
964.28221	0.79098
962.35365	0.79209
960.42509	0.79843
958.49652	0.80975
956.56796	0.82153
954.63939	0.82956
952.71083	0.83321
950.78226	0.83385
948.85370	0.83329
946.92513	0.83332
944.99657	0.83487
943.06801	0.83776
941.13944	0.84065
939.21088	0.84222
937.28231	0.84220
935.35375	0.84047
933.42518	0.83674
931.49662	0.83119
929.56805	0.82419
927.63949	0.81634
925.71093	0.80861
923.78236	0.80149
921.85380	0.79486
919.92523	0.78850
917.99667	0.78252
916.06810	0.77737
914.13954	0.77369
912.21098	0.77195
910.28241	0.77220
908.35385	0.77462
906.42528	0.77939
904.49672	0.78595
902.56815	0.79356
900.63959	0.80172
898.71102	0.80978
896.78246	0.81696
894.85390	0.82299
892.92533	0.82819
890.99677	0.83317
889.06820	0.83832
887.13964	0.84361
885.21107	0.84869
883.28251	0.85291
881.35394	0.85570
879.42538	0.85687
877.49682	0.85659
875.56825	0.85502
873.63969	0.85175
871.71112	0.84684
869.78256	0.84102
867.85399	0.83433
865.92543	0.82705
863.99686	0.82049
862.06830	0.81567
860.13974	0.81275
858.21117	0.81179
856.28261	0.81311
854.35404	0.81650
852.42548	0.82135
850.49691	0.82733
848.56835	0.83415
846.63978	0.84171
844.71122	0.85029
842.78266	0.86058
840.85409	0.87303
838.92553	0.88664
836.99696	0.90010
835.06840	0.91363
833.13983	0.92742
831.21127	0.94011
829.28270	0.95009
827.35414	0.95743
825.42558	0.96322
823.49701	0.96691
821.56845	0.96779
819.63988	0.96633
817.71132	0.96148
815.78275	0.95266
813.85419	0.94158
811.92562	0.92931
809.99706	0.91638
808.06850	0.90376
806.13993	0.89218
804.21137	0.88227
802.28280	0.87395
800.35424	0.86676
798.42567	0.86161
796.49711	0.85983
794.56854	0.86157
792.63998	0.86648
790.71142	0.87396
788.78285	0.88296
786.85429	0.89326
784.92572	0.90577
782.99716	0.91997
781.06859	0.93415
779.14003	0.94809
777.21147	0.96244
775.28290	0.97686
773.35434	0.99080
771.42577	1.00408
769.49721	1.01603
767.56864	1.02489
765.64008	1.02963
763.71151	1.03155
761.78295	1.03229
759.85439	1.03119
757.92582	1.02691
755.99726	1.02042
754.06869	1.01356
752.14013	1.00590
750.21156	0.99691
748.28300	0.98818
746.35443	0.98017
744.42587	0.97226
742.49731	0.96553
740.56874	0.96112
738.64018	0.95881
736.71161	0.95846
734.78305	0.96070
732.85448	0.96671
730.92592	0.97677
728.99735	0.98874
727.06879	1.00117
725.14023	1.01463
723.21166	1.02873
721.28310	1.04331
719.35453	1.05705
717.42597	1.06794
715.49740	1.07820
713.56884	1.08931
711.64027	1.09873
709.71171	1.10478
707.78315	1.10802
705.85458	1.10755
703.92602	1.10209
701.99745	1.09412
700.06889	1.08548
698.14032	1.07629
696.21176	1.06731
694.28319	1.05760
692.35463	1.04623
690.42607	1.03467
688.49750	1.02339
686.56894	1.01140
684.64037	1.00020
682.71181	0.99258
680.78324	0.98802
678.85468	0.98484
676.92611	0.98398
674.99755	0.98630
673.06899	0.99021
671.14042	0.99408
669.21186	0.99934
667.28329	1.00901
665.35473	1.01948
663.42616	1.03003
661.49760	1.04064
659.56903	1.05018
657.64047	1.06052
655.71191	1.07361
653.78334	1.08811
651.85478	1.10039
649.92621	1.10799
647.99765	1.11146
646.06908	1.11350
644.14052	1.11499
642.21195	1.11503
640.28339	1.11355
638.35483	1.10845
636.42626	1.09828
634.49770	1.08636
632.56913	1.07586
630.64057	1.06635
628.71200	1.05651
626.78344	1.04534
624.85488	1.03466
622.92631	1.02830
620.99775	1.02517
619.06918	1.02110
617.14062	1.01603
615.21205	1.01478
613.28349	1.01986
611.35492	1.02722
609.42636	1.03367
607.49780	1.04114
605.56923	1.05071
603.64067	1.06108
601.71210	1.06995
599.78354	1.07690
