3997.91406	0.91578
3995.98550	0.91429
3994.05693	0.91313
3992.12837	0.91300
3990.19980	0.91405
3988.27124	0.91664
3986.34268	0.91912
3984.41411	0.91902
3982.48555	0.91617
3980.55698	0.91363
3978.62842	0.91365
3976.69985	0.91373
3974.77129	0.91101
3972.84272	0.90732
3970.91416	0.90583
3968.98560	0.90661
3967.05703	0.90851
3965.12847	0.91045
3963.19990	0.91034
3961.27134	0.90887
3959.34277	0.90907
3957.41421	0.91020
3955.48564	0.91048
3953.55708	0.91009
3951.62852	0.90910
3949.69995	0.90775
3947.77139	0.90760
3945.84282	0.90880
3943.91426	0.90847
3941.98569	0.90573
3940.05713	0.90437
3938.12856	0.90604
3936.20000	0.90846
3934.27144	0.90975
3932.34287	0.90928
3930.41431	0.90675
3928.48574	0.90614
3926.55718	0.90953
3924.62861	0.91204
3922.70005	0.90995
3920.77148	0.90586
3918.84292	0.90328
3916.91436	0.90432
3914.98579	0.90623
3913.05723	0.90652
3911.12866	0.90685
3909.20010	0.90896
3907.27153	0.91198
3905.34297	0.91349
3903.41440	0.91231
3901.48584	0.91039
3899.55728	0.90799
3897.62871	0.90538
3895.70015	0.90365
3893.77158	0.90159
3891.84302	0.89936
3889.91445	0.90118
3887.98589	0.90573
3886.05733	0.90805
3884.12876	0.90740
3882.20020	0.90689
3880.27163	0.90393
3878.34307	0.89880
3876.41450	0.89499
3874.48594	0.89304
3872.55737	0.89382
3870.62881	0.89579
3868.70025	0.89823
3866.77168	0.90120
3864.84312	0.90241
3862.91455	0.90036
3860.98599	0.89732
3859.05742	0.89655
3857.12886	0.90015
3855.20029	0.90366
3853.27173	0.89261
3851.34317	0.88241
3849.41460	0.88340
3847.48604	0.88694
3845.55747	0.89066
3843.62891	0.89424
3841.70034	0.89671
3839.77178	0.89465
3837.84321	0.88784
3835.91465	0.88494
3833.98609	0.88587
3832.05752	0.88686
3830.12896	0.88709
3828.20039	0.88591
3826.27183	0.88524
3824.34326	0.88741
3822.41470	0.88647
3820.48613	0.87757
3818.55757	0.87266
3816.62901	0.87208
3814.70044	0.87413
3812.77188	0.87890
3810.84331	0.88208
3808.91475	0.88228
3806.98618	0.88184
3805.05762	0.88184
3803.12905	0.88041
3801.20049	0.87813
3799.27193	0.87729
3797.34336	0.87599
3795.41480	0.87451
3793.48623	0.87505
3791.55767	0.87685
3789.62910	0.87820
3787.70054	0.87843
3785.77197	0.87774
3783.84341	0.87754
3781.91485	0.87880
3779.98628	0.87979
3778.05772	0.87924
3776.12915	0.87806
3774.20059	0.87724
3772.27202	0.87634
3770.34346	0.87409
3768.41489	0.87335
3766.48633	0.87539
3764.55777	0.87725
3762.62920	0.87739
3760.70064	0.87487
3758.77207	0.87202
3756.84351	0.87251
3754.91494	0.87328
3752.98638	0.87109
3751.05781	0.86746
3749.12925	0.86722
3747.20069	0.86587
3745.27212	0.86090
3743.34356	0.85828
3741.41499	0.85977
3739.48643	0.86147
3737.55786	0.86185
3735.62930	0.86127
3733.70074	0.86208
3731.77217	0.86234
3729.84361	0.86100
3727.91504	0.86040
3725.98648	0.86237
3724.05791	0.86548
3722.12935	0.86631
3720.20078	0.86603
3718.27222	0.86781
3716.34366	0.87071
3714.41509	0.87124
3712.48653	0.86628
3710.55796	0.86178
3708.62940	0.86527
3706.70083	0.86994
3704.77227	0.87271
3702.84370	0.87355
3700.91514	0.87342
3698.98658	0.87370
3697.05801	0.87494
3695.12945	0.87719
3693.20088	0.87924
3691.27232	0.88113
3689.34375	0.88570
3687.41519	0.89045
3685.48662	0.89341
3683.55806	0.89683
3681.62950	0.89980
3679.70093	0.89996
3677.77237	0.89826
3675.84380	0.90111
3673.91524	0.91018
3671.98667	0.91683
3670.05811	0.92154
3668.12954	0.92693
3666.20098	0.93289
3664.27242	0.93957
3662.34385	0.94704
3660.41529	0.95358
3658.48672	0.95721
3656.55816	0.95993
3654.62959	0.96619
3652.70103	0.97658
3650.77246	0.98927
3648.84390	0.99610
3646.91534	0.99753
3644.98677	0.99982
3643.05821	1.00400
3641.12964	1.01334
3639.20108	1.02546
3637.27251	1.03344
3635.34395	1.03706
3633.41538	1.04133
3631.48682	1.04743
3629.55826	1.05592
3627.62969	1.06656
3625.70113	1.07476
3623.77256	1.08188
3621.84400	1.08772
3619.91543	1.08989
3617.98687	1.09222
3616.05830	1.10109
3614.12974	1.11317
3612.20118	1.12157
3610.27261	1.12686
3608.34405	1.13571
3606.41548	1.14990
3604.48692	1.16507
3602.55835	1.17623
3600.62979	1.18007
3598.70123	1.18246
3596.77266	1.18843
3594.84410	1.19629
3592.91553	1.20429
3590.98697	1.21030
3589.05840	1.21501
3587.12984	1.22433
3585.20127	1.23889
3583.27271	1.24846
3581.34415	1.25054
3579.41558	1.25321
3577.48702	1.26218
3575.55845	1.27192
3573.62989	1.27613
3571.70132	1.27728
3569.77276	1.28064
3567.84419	1.28645
3565.91563	1.28833
3563.98707	1.28911
3562.05850	1.29486
3560.12994	1.30254
3558.20137	1.30781
3556.27281	1.31149
3554.34424	1.31731
3552.41568	1.32649
3550.48711	1.33794
3548.55855	1.35129
3546.62999	1.36070
3544.70142	1.36062
3542.77286	1.35950
3540.84429	1.36410
3538.91573	1.37086
3536.98716	1.37515
3535.05860	1.37958
3533.13003	1.38478
3531.20147	1.38476
3529.27291	1.37983
3527.34434	1.37850
3525.41578	1.38489
3523.48721	1.39651
3521.55865	1.40771
3519.63008	1.41297
3517.70152	1.41422
3515.77295	1.41835
3513.84439	1.42539
3511.91583	1.42775
3509.98726	1.42567
3508.05870	1.42827
3506.13013	1.43751
3504.20157	1.44763
3502.27300	1.45498
3500.34444	1.46326
3498.41587	1.47132
3496.48731	1.47606
3494.55875	1.48033
3492.63018	1.48160
3490.70162	1.47669
3488.77305	1.47099
3486.84449	1.46993
3484.91592	1.47228
3482.98736	1.47767
3481.05879	1.48574
3479.13023	1.49116
3477.20167	1.49437
3475.27310	1.49690
3473.34454	1.49858
3471.41597	1.50332
3469.48741	1.51030
3467.55884	1.51380
3465.63028	1.51350
3463.70171	1.51618
3461.77315	1.52569
3459.84459	1.53476
3457.91602	1.53456
3455.98746	1.52632
3454.05889	1.51792
3452.13033	1.51568
3450.20176	1.51633
3448.27320	1.51155
3446.34464	1.50946
3444.41607	1.51972
3442.48751	1.52889
3440.55894	1.53208
3438.63038	1.53833
3436.70181	1.53988
3434.77325	1.53033
3432.84468	1.52602
3430.91612	1.53568
3428.98756	1.54378
3427.05899	1.54125
3425.13043	1.53801
3423.20186	1.53452
3421.27330	1.52734
3419.34473	1.52762
3417.41617	1.53656
3415.48760	1.53931
3413.55904	1.53403
3411.63048	1.53055
3409.70191	1.53006
3407.77335	1.52840
3405.84478	1.52416
3403.91622	1.52015
3401.98765	1.52090
3400.05909	1.52572
3398.13052	1.53045
3396.20196	1.53364
3394.27340	1.53545
3392.34483	1.53520
3390.41627	1.53493
3388.48770	1.53695
3386.55914	1.53605
3384.63057	1.53127
3382.70201	1.53277
3380.77344	1.53831
3378.84488	1.53704
3376.91632	1.53670
3374.98775	1.54404
3373.05919	1.54613
3371.13062	1.53883
3369.20206	1.53388
3367.27349	1.53502
3365.34493	1.53646
3363.41636	1.53624
3361.48780	1.53585
3359.55924	1.53597
3357.63067	1.53899
3355.70211	1.54487
3353.77354	1.54951
3351.84498	1.55123
3349.91641	1.55043
3347.98785	1.54539
3346.05928	1.53563
3344.13072	1.52632
3342.20216	1.52224
3340.27359	1.52218
3338.34503	1.52326
3336.41646	1.52623
3334.48790	1.53234
3332.55933	1.54135
3330.63077	1.55267
3328.70220	1.56123
3326.77364	1.56085
3324.84508	1.55227
3322.91651	1.54323
3320.98795	1.54166
3319.05938	1.54569
3317.13082	1.54947
3315.20225	1.55123
3313.27369	1.54994
3311.34513	1.54921
3309.41656	1.55080
3307.48800	1.54776
3305.55943	1.54072
3303.63087	1.53997
3301.70230	1.54752
3299.77374	1.55281
3297.84517	1.54994
3295.91661	1.54767
3293.98805	1.55371
3292.05948	1.56358
3290.13092	1.56904
3288.20235	1.56822
3286.27379	1.56135
3284.34522	1.55072
3282.41666	1.54642
3280.48809	1.55295
3278.55953	1.55768
3276.63097	1.55229
3274.70240	1.54856
3272.77384	1.55004
3270.84527	1.54647
3268.91671	1.53896
3266.98814	1.53255
3265.05958	1.52934
3263.13101	1.53344
3261.20245	1.54069
3259.27389	1.54113
3257.34532	1.53343
3255.41676	1.52220
3253.48819	1.51156
3251.55963	1.50609
3249.63106	1.50705
3247.70250	1.50963
3245.77393	1.50856
3243.84537	1.50491
3241.91681	1.50407
3239.98824	1.50335
3238.05968	1.49717
3236.13111	1.48958
3234.20255	1.48284
3232.27398	1.47576
3230.34542	1.47230
3228.41685	1.47142
3226.48829	1.46940
3224.55973	1.46956
3222.63116	1.47156
3220.70260	1.47119
3218.77403	1.46896
3216.84547	1.46505
3214.91690	1.45980
3212.98834	1.45665
3211.05977	1.45576
3209.13121	1.45360
3207.20265	1.44796
3205.27408	1.44008
3203.34552	1.43295
3201.41695	1.42764
3199.48839	1.42403
3197.55982	1.42289
3195.63126	1.42461
3193.70269	1.42703
3191.77413	1.42545
3189.84557	1.41982
3187.91700	1.41492
3185.98844	1.41059
3184.05987	1.40528
3182.13131	1.40193
3180.20274	1.40043
3178.27418	1.39656
3176.34562	1.39224
3174.41705	1.39115
3172.48849	1.38932
3170.55992	1.38619
3168.63136	1.38642
3166.70279	1.38612
3164.77423	1.38030
3162.84566	1.37530
3160.91710	1.37662
3158.98854	1.37764
3157.05997	1.37215
3155.13141	1.36433
3153.20284	1.35992
3151.27428	1.35895
3149.34571	1.35814
3147.41715	1.35653
3145.48858	1.35557
3143.56002	1.35587
3141.63146	1.35695
3139.70289	1.35597
3137.77433	1.35122
3135.84576	1.34739
3133.91720	1.34773
3131.98863	1.34842
3130.06007	1.34650
3128.13150	1.34294
3126.20294	1.33899
3124.27438	1.33688
3122.34581	1.33741
3120.41725	1.33830
3118.48868	1.33842
3116.56012	1.33988
3114.63155	1.34405
3112.70299	1.34846
3110.77442	1.35068
3108.84586	1.34979
3106.91730	1.34495
3104.98873	1.33859
3103.06017	1.33550
3101.13160	1.33689
3099.20304	1.33926
3097.27447	1.33978
3095.34591	1.33771
3093.41734	1.33274
3091.48878	1.32737
3089.56022	1.32536
3087.63165	1.32600
3085.70309	1.32533
3083.77452	1.32374
3081.84596	1.32469
3079.91739	1.32609
3077.98883	1.32429
3076.06026	1.32023
3074.13170	1.31537
3072.20314	1.31183
3070.27457	1.31135
3068.34601	1.31054
3066.41744	1.30599
3064.48888	1.30003
3062.56031	1.29541
3060.63175	1.29112
3058.70318	1.28664
3056.77462	1.28353
3054.84606	1.28089
3052.91749	1.27638
3050.98893	1.27064
3049.06036	1.26522
3047.13180	1.26038
3045.20323	1.25680
3043.27467	1.25497
3041.34610	1.25271
3039.41754	1.24798
3037.48898	1.24336
3035.56041	1.24197
3033.63185	1.24189
3031.70328	1.23973
3029.77472	1.23576
3027.84615	1.23226
3025.91759	1.23084
3023.98903	1.23098
3022.06046	1.22978
3020.13190	1.22604
3018.20333	1.22300
3016.27477	1.22394
3014.34620	1.22653
3012.41764	1.22655
3010.48907	1.22469
3008.56051	1.22410
3006.63195	1.22398
3004.70338	1.22089
3002.77482	1.21612
3000.84625	1.21357
2998.91769	1.21330
2996.98912	1.21376
2995.06056	1.21460
2993.13199	1.21679
2991.20343	1.22061
2989.27487	1.22397
2987.34630	1.22599
2985.41774	1.22786
2983.48917	1.23039
2981.56061	1.23445
2979.63204	1.24018
2977.70348	1.24684
2975.77491	1.25405
2973.84635	1.26067
2971.91779	1.26592
2969.98922	1.27052
2968.06066	1.27543
2966.13209	1.28140
2964.20353	1.28726
2962.27496	1.29030
2960.34640	1.28903
2958.41783	1.28457
2956.48927	1.28043
2954.56071	1.27904
2952.63214	1.27835
2950.70358	1.27637
2948.77501	1.27570
2946.84645	1.27660
2944.91788	1.27692
2942.98932	1.27987
2941.06075	1.28685
2939.13219	1.29405
2937.20363	1.30245
2935.27506	1.31343
2933.34650	1.32104
2931.41793	1.32398
2929.48937	1.32922
2927.56080	1.33851
2925.63224	1.34627
2923.70367	1.34867
2921.77511	1.34893
2919.84655	1.35053
2917.91798	1.35003
2915.98942	1.34294
2914.06085	1.32798
2912.13229	1.30623
2910.20372	1.28328
2908.27516	1.26580
2906.34659	1.25479
2904.41803	1.24738
2902.48947	1.24233
2900.56090	1.23907
2898.63234	1.23678
2896.70377	1.23503
2894.77521	1.23314
2892.84664	1.22951
2890.91808	1.22274
2888.98952	1.21501
2887.06095	1.21052
2885.13239	1.21003
2883.20382	1.21073
2881.27526	1.21080
2879.34669	1.21079
2877.41813	1.21139
2875.48956	1.21148
2873.56100	1.20947
2871.63244	1.20623
2869.70387	1.20246
2867.77531	1.19782
2865.84674	1.19320
2863.91818	1.18995
2861.98961	1.19006
2860.06105	1.19460
2858.13248	1.20122
2856.20392	1.20735
2854.27536	1.21481
2852.34679	1.22554
2850.41823	1.23224
2848.48966	1.22335
2846.56110	1.19856
2844.63253	1.16913
2842.70397	1.14548
2840.77540	1.12998
2838.84684	1.11990
2836.91828	1.11194
2834.98971	1.10377
2833.06115	1.09563
2831.13258	1.08897
2829.20402	1.08437
2827.27545	1.08164
2825.34689	1.07885
2823.41832	1.07434
2821.48976	1.06991
2819.56120	1.06695
2817.63263	1.06431
2815.70407	1.06184
2813.77550	1.05999
2811.84694	1.05738
2809.91837	1.05321
2807.98981	1.04948
2806.06124	1.04736
2804.13268	1.04579
2802.20412	1.04407
2800.27555	1.04205
2798.34699	1.04005
2796.41842	1.03857
2794.48986	1.03659
2792.56129	1.03319
2790.63273	1.02917
2788.70416	1.02512
2786.77560	1.02145
2784.84704	1.01893
2782.91847	1.01676
2780.98991	1.01430
2779.06134	1.01213
2777.13278	1.01040
2775.20421	1.00893
2773.27565	1.00714
2771.34708	1.00516
2769.41852	1.00355
2767.48996	1.00121
2765.56139	0.99742
2763.63283	0.99302
2761.70426	0.98935
2759.77570	0.98635
2757.84713	0.98288
2755.91857	0.98015
2753.99001	0.97909
2752.06144	0.97820
2750.13288	0.97696
2748.20431	0.97509
2746.27575	0.97202
2744.34718	0.96883
2742.41862	0.96673
2740.49005	0.96559
2738.56149	0.96390
2736.63293	0.96046
2734.70436	0.95723
2732.77580	0.95654
2730.84723	0.95666
2728.91867	0.95549
2726.99010	0.95360
2725.06154	0.95149
2723.13297	0.94901
2721.20441	0.94640
2719.27585	0.94413
2717.34728	0.94244
2715.41872	0.94156
2713.49015	0.94124
2711.56159	0.94002
2709.63302	0.93753
2707.70446	0.93539
2705.77589	0.93410
2703.84733	0.93260
2701.91877	0.93034
2699.99020	0.92757
2698.06164	0.92483
2696.13307	0.92305
2694.20451	0.92199
2692.27594	0.92010
2690.34738	0.91737
2688.41881	0.91483
2686.49025	0.91233
2684.56169	0.91019
2682.63312	0.90911
2680.70456	0.90800
2678.77599	0.90614
2676.84743	0.90452
2674.91886	0.90333
2672.99030	0.90206
2671.06173	0.90116
2669.13317	0.90066
2667.20461	0.89962
2665.27604	0.89827
2663.34748	0.89731
2661.41891	0.89651
2659.49035	0.89559
2657.56178	0.89434
2655.63322	0.89297
2653.70465	0.89243
2651.77609	0.89272
2649.84753	0.89272
2647.91896	0.89198
2645.99040	0.89116
2644.06183	0.89064
2642.13327	0.89009
2640.20470	0.88947
2638.27614	0.88882
2636.34757	0.88745
2634.41901	0.88545
2632.49045	0.88393
2630.56188	0.88317
2628.63332	0.88225
2626.70475	0.88009
2624.77619	0.87712
2622.84762	0.87491
2620.91906	0.87339
2618.99049	0.87154
2617.06193	0.86925
2615.13337	0.86695
2613.20480	0.86473
2611.27624	0.86242
2609.34767	0.85998
2607.41911	0.85786
2605.49054	0.85622
2603.56198	0.85454
2601.63342	0.85273
2599.70485	0.85114
2597.77629	0.84950
2595.84772	0.84769
2593.91916	0.84656
2591.99059	0.84661
2590.06203	0.84681
2588.13346	0.84607
2586.20490	0.84454
2584.27634	0.84313
2582.34777	0.84305
2580.41921	0.84393
2578.49064	0.84389
2576.56208	0.84261
2574.63351	0.84134
2572.70495	0.84083
2570.77638	0.84112
2568.84782	0.84149
2566.91926	0.84095
2564.99069	0.83940
2563.06213	0.83754
2561.13356	0.83580
2559.20500	0.83429
2557.27643	0.83306
2555.34787	0.83182
2553.41930	0.83037
2551.49074	0.82909
2549.56218	0.82812
2547.63361	0.82677
2545.70505	0.82468
2543.77648	0.82233
2541.84792	0.82014
2539.91935	0.81840
2537.99079	0.81724
2536.06222	0.81627
2534.13366	0.81514
2532.20510	0.81404
2530.27653	0.81338
2528.34797	0.81307
2526.41940	0.81245
2524.49084	0.81131
2522.56227	0.80972
2520.63371	0.80815
2518.70514	0.80704
2516.77658	0.80616
2514.84802	0.80561
2512.91945	0.80537
2510.99089	0.80472
2509.06232	0.80381
2507.13376	0.80310
2505.20519	0.80250
2503.27663	0.80182
2501.34806	0.80075
2499.41950	0.79980
2497.49094	0.79960
2495.56237	0.79936
2493.63381	0.79811
2491.70524	0.79625
2489.77668	0.79489
2487.84811	0.79439
2485.91955	0.79423
2483.99098	0.79389
2482.06242	0.79312
2480.13386	0.79234
2478.20529	0.79172
2476.27673	0.79078
2474.34816	0.78967
2472.41960	0.78898
2470.49103	0.78857
2468.56247	0.78778
2466.63391	0.78636
2464.70534	0.78484
2462.77678	0.78362
2460.84821	0.78260
2458.91965	0.78160
2456.99108	0.78048
2455.06252	0.77955
2453.13395	0.77920
2451.20539	0.77896
2449.27683	0.77813
2447.34826	0.77687
2445.41970	0.77555
2443.49113	0.77413
2441.56257	0.77278
2439.63400	0.77171
2437.70544	0.77094
2435.77687	0.77049
2433.84831	0.77005
2431.91975	0.76911
2429.99118	0.76779
2428.06262	0.76656
2426.13405	0.76590
2424.20549	0.76581
2422.27692	0.76541
2420.34836	0.76421
2418.41979	0.76303
2416.49123	0.76246
2414.56267	0.76231
2412.63410	0.76224
2410.70554	0.76204
2408.77697	0.76164
2406.84841	0.76110
2404.91984	0.76039
2402.99128	0.75955
2401.06271	0.75906
2399.13415	0.75888
2397.20559	0.75830
2395.27702	0.75749
2393.34846	0.75711
2391.41989	0.75709
2389.49133	0.75717
2387.56276	0.75694
2385.63420	0.75605
2383.70563	0.75499
2381.77707	0.75451
2379.84851	0.75436
2377.91994	0.75320
2375.99138	0.75085
2374.06281	0.74921
2372.13425	0.74898
2370.20568	0.74937
2368.27712	0.74890
2366.34855	0.74292
2364.41999	0.73323
2362.49143	0.73045
2360.56286	0.73140
2358.63430	0.73022
2356.70573	0.73195
2354.77717	0.73539
2352.84860	0.73706
2350.92004	0.73693
2348.99147	0.73636
2347.06291	0.73631
2345.13435	0.73684
2343.20578	0.73742
2341.27722	0.73839
2339.34865	0.74058
2337.42009	0.74225
2335.49152	0.74154
2333.56296	0.73884
2331.63440	0.73583
2329.70583	0.73531
2327.77727	0.73718
2325.84870	0.73871
2323.92014	0.73836
2321.99157	0.73680
2320.06301	0.73629
2318.13444	0.73679
2316.20588	0.73698
2314.27732	0.73670
2312.34875	0.73583
2310.42019	0.73487
2308.49162	0.73441
2306.56306	0.73364
2304.63449	0.73230
2302.70593	0.73103
2300.77736	0.72997
2298.84880	0.72912
2296.92024	0.72840
2294.99167	0.72745
2293.06311	0.72615
2291.13454	0.72502
2289.20598	0.72447
2287.27741	0.72411
2285.34885	0.72375
2283.42028	0.72365
2281.49172	0.72367
2279.56316	0.72366
2277.63459	0.72380
2275.70603	0.72387
2273.77746	0.72378
2271.84890	0.72386
2269.92033	0.72419
2267.99177	0.72482
2266.06320	0.72560
2264.13464	0.72586
2262.20608	0.72550
2260.27751	0.72527
2258.34895	0.72550
2256.42038	0.72553
2254.49182	0.72499
2252.56325	0.72430
2250.63469	0.72357
2248.70612	0.72261
2246.77756	0.72170
2244.84900	0.72101
2242.92043	0.72018
2240.99187	0.71904
2239.06330	0.71796
2237.13474	0.71708
2235.20617	0.71595
2233.27761	0.71442
2231.34904	0.71281
2229.42048	0.71138
2227.49192	0.71043
2225.56335	0.70990
2223.63479	0.70920
2221.70622	0.70804
2219.77766	0.70660
2217.84909	0.70510
2215.92053	0.70398
2213.99196	0.70373
2212.06340	0.70410
2210.13484	0.70442
2208.20627	0.70440
2206.27771	0.70432
2204.34914	0.70469
2202.42058	0.70554
2200.49201	0.70633
2198.56345	0.70706
2196.63488	0.70809
2194.70632	0.70934
2192.77776	0.71040
2190.84919	0.71100
2188.92063	0.71135
2186.99206	0.71210
2185.06350	0.71325
2183.13493	0.71412
2181.20637	0.71453
2179.27781	0.71487
2177.34924	0.71510
2175.42068	0.71486
2173.49211	0.71429
2171.56355	0.71383
2169.63498	0.71368
2167.70642	0.71350
2165.77785	0.71265
2163.84929	0.71112
2161.92073	0.70964
2159.99216	0.70865
2158.06360	0.70809
2156.13503	0.70749
2154.20647	0.70663
2152.27790	0.70587
2150.34934	0.70541
2148.42077	0.70508
2146.49221	0.70497
2144.56365	0.70542
2142.63508	0.70614
2140.70652	0.70637
2138.77795	0.70634
2136.84939	0.70675
2134.92082	0.70754
2132.99226	0.70846
2131.06369	0.70935
2129.13513	0.71009
2127.20657	0.71082
2125.27800	0.71162
2123.34944	0.71229
2121.42087	0.71281
2119.49231	0.71350
2117.56374	0.71440
2115.63518	0.71504
2113.70661	0.71513
2111.77805	0.71526
2109.84949	0.71596
2107.92092	0.71676
2105.99236	0.71725
2104.06379	0.71760
2102.13523	0.71758
2100.20666	0.71698
2098.27810	0.71631
2096.34953	0.71611
2094.42097	0.71649
2092.49241	0.71694
2090.56384	0.71670
2088.63528	0.71585
2086.70671	0.71533
2084.77815	0.71526
2082.84958	0.71472
2080.92102	0.71339
2078.99245	0.71196
2077.06389	0.71098
2075.13533	0.71032
2073.20676	0.70972
2071.27820	0.70894
2069.34963	0.70771
2067.42107	0.70629
2065.49250	0.70529
2063.56394	0.70481
2061.63537	0.70434
2059.70681	0.70347
2057.77825	0.70233
2055.84968	0.70149
2053.92112	0.70117
2051.99255	0.70083
2050.06399	0.69997
2048.13542	0.69887
2046.20686	0.69787
2044.27830	0.69684
2042.34973	0.69585
2040.42117	0.69507
2038.49260	0.69441
2036.56404	0.69377
2034.63547	0.69306
2032.70691	0.69221
2030.77834	0.69128
2028.84978	0.69020
2026.92122	0.68890
2024.99265	0.68747
2023.06409	0.68600
2021.13552	0.68460
2019.20696	0.68341
2017.27839	0.68236
2015.34983	0.68125
2013.42126	0.68010
2011.49270	0.67896
2009.56414	0.67804
2007.63557	0.67741
2005.70701	0.67691
2003.77844	0.67649
2001.84988	0.67610
1999.92131	0.67572
1997.99275	0.67568
1996.06418	0.67600
1994.13562	0.67615
1992.20706	0.67620
1990.27849	0.67657
1988.34993	0.67711
1986.42136	0.67759
1984.49280	0.67802
1982.56423	0.67833
1980.63567	0.67848
1978.70710	0.67860
1976.77854	0.67863
1974.84998	0.67844
1972.92141	0.67809
1970.99285	0.67767
1969.06428	0.67709
1967.13572	0.67636
1965.20715	0.67573
1963.27859	0.67525
1961.35002	0.67476
1959.42146	0.67399
1957.49290	0.67273
1955.56433	0.67113
1953.63577	0.66973
1951.70720	0.66880
1949.77864	0.66787
1947.85007	0.66657
1945.92151	0.66499
1943.99294	0.66334
1942.06438	0.66177
1940.13582	0.66061
1938.20725	0.65969
1936.27869	0.65858
1934.35012	0.65721
1932.42156	0.65563
1930.49299	0.65394
1928.56443	0.65244
1926.63586	0.65139
1924.70730	0.65048
1922.77874	0.64934
1920.85017	0.64822
1918.92161	0.64729
1916.99304	0.64639
1915.06448	0.64530
1913.13591	0.64401
1911.20735	0.64284
1909.27878	0.64199
1907.35022	0.64134
1905.42166	0.64059
1903.49309	0.63948
1901.56453	0.63806
1899.63596	0.63658
1897.70740	0.63511
1895.77883	0.63356
1893.85027	0.63185
1891.92171	0.62978
1889.99314	0.62752
1888.06458	0.62569
1886.13601	0.62406
1884.20745	0.62199
1882.27888	0.61981
1880.35032	0.61787
1878.42175	0.61589
1876.49319	0.61383
1874.56463	0.61180
1872.63606	0.61000
1870.70750	0.60825
1868.77893	0.60634
1866.85037	0.60512
1864.92180	0.60455
1862.99324	0.60394
1861.06467	0.60330
1859.13611	0.60289
1857.20755	0.60277
1855.27898	0.60284
1853.35042	0.60293
1851.42185	0.60298
1849.49329	0.60317
1847.56472	0.60335
1845.63616	0.60317
1843.70759	0.60273
1841.77903	0.60244
1839.85047	0.60201
1837.92190	0.60123
1835.99334	0.60059
1834.06477	0.60035
1832.13621	0.59999
1830.20764	0.59861
1828.27908	0.59679
1826.35051	0.59562
1824.42195	0.59462
1822.49339	0.59370
1820.56482	0.59289
1818.63626	0.59185
1816.70769	0.59046
1814.77913	0.58900
1812.85056	0.58751
1810.92200	0.58601
1808.99343	0.58492
1807.06487	0.58395
1805.13631	0.58277
1803.20774	0.58142
1801.27918	0.57993
1799.35061	0.57857
1797.42205	0.57751
1795.49348	0.57648
1793.56492	0.57479
1791.63635	0.57238
1789.70779	0.57055
1787.77923	0.56913
1785.85066	0.56728
1783.92210	0.56531
1781.99353	0.56362
1780.06497	0.56182
1778.13640	0.56033
1776.20784	0.55954
1774.27927	0.55910
1772.35071	0.55868
1770.42215	0.55872
1768.49358	0.55934
1766.56502	0.56007
1764.63645	0.56081
1762.70789	0.56191
1760.77932	0.56362
1758.85076	0.56557
1756.92220	0.56794
1754.99363	0.57050
1753.06507	0.57297
1751.13650	0.57629
1749.20794	0.58100
1747.27937	0.58616
1745.35081	0.59119
1743.42224	0.59612
1741.49368	0.60080
1739.56512	0.60526
1737.63655	0.60885
1735.70799	0.61164
1733.77942	0.61602
1731.85086	0.62104
1729.92229	0.62522
1727.99373	0.62946
1726.06516	0.63390
1724.13660	0.63953
1722.20804	0.64561
1720.27947	0.65111
1718.35091	0.65835
1716.42234	0.67042
1714.49378	0.68187
1712.56521	0.69128
1710.63665	0.70099
1708.70808	0.71183
1706.77952	0.72775
1704.85096	0.74999
1702.92239	0.77100
1700.99383	0.79980
1699.06526	0.84506
1697.13670	0.88816
1695.20813	0.92954
1693.27957	0.95951
1691.35100	0.98311
1689.42244	1.01142
1687.49388	1.03757
1685.56531	1.06306
1683.63675	1.10239
1681.70818	1.13095
1679.77962	1.14688
1677.85105	1.16183
1675.92249	1.17892
1673.99392	1.19485
1672.06536	1.20607
1670.13680	1.21989
1668.20823	1.23544
1666.27967	1.24319
1664.35110	1.24933
1662.42254	1.25927
1660.49397	1.26892
1658.56541	1.27482
1656.63684	1.27810
1654.70828	1.28135
1652.77972	1.28627
1650.85115	1.28702
1648.92259	1.28573
1646.99402	1.28698
1645.06546	1.29086
1643.13689	1.29237
1641.20833	1.29321
1639.27976	1.29388
1637.35120	1.29366
1635.42264	1.29233
1633.49407	1.29193
1631.56551	1.29226
1629.63694	1.29160
1627.70838	1.28999
1625.77981	1.28756
1623.85125	1.28380
1621.92269	1.27877
1619.99412	1.27304
1618.06556	1.26438
1616.13699	1.25097
1614.20843	1.23931
1612.27986	1.22851
1610.35130	1.21505
1608.42273	1.19917
1606.49417	1.18365
1604.56561	1.16996
1602.63704	1.15798
1600.70848	1.14839
1598.77991	1.14097
1596.85135	1.13473
1594.92278	1.12871
1592.99422	1.12382
1591.06565	1.12216
1589.13709	1.12339
1587.20853	1.12666
1585.27996	1.13212
1583.35140	1.13964
1581.42283	1.14755
1579.49427	1.15457
1577.56570	1.16296
1575.63714	1.17529
1573.70857	1.18488
1571.78001	1.19176
1569.85145	1.20075
1567.92288	1.20991
1565.99432	1.21691
1564.06575	1.22362
1562.13719	1.22822
1560.20862	1.23199
1558.28006	1.24341
1556.35149	1.25188
1554.42293	1.25557
1552.49437	1.25888
1550.56580	1.26211
1548.63724	1.26442
1546.70867	1.26566
1544.78011	1.26511
1542.85154	1.26123
1540.92298	1.25689
1538.99441	1.25462
1537.06585	1.25239
1535.13729	1.24921
1533.20872	1.24494
1531.28016	1.24110
1529.35159	1.23763
1527.42303	1.23297
1525.49446	1.22769
1523.56590	1.22354
1521.63733	1.22004
1519.70877	1.21928
1517.78021	1.21880
1515.85164	1.21462
1513.92308	1.20751
1511.99451	1.19872
1510.06595	1.18829
1508.13738	1.17234
1506.20882	1.15042
1504.28025	1.13926
1502.35169	1.13054
1500.42313	1.11879
1498.49456	1.10174
1496.56600	1.08000
1494.63743	1.06287
1492.70887	1.05147
1490.78030	1.03854
1488.85174	1.02087
1486.92317	1.00630
1484.99461	0.99636
1483.06605	0.98927
1481.13748	0.98485
1479.20892	0.98286
1477.28035	0.98285
1475.35179	0.98580
1473.42322	0.99473
1471.49466	1.00578
1469.56610	1.01166
1467.63753	1.01556
1465.70897	1.02091
1463.78040	1.02725
1461.85184	1.03092
1459.92327	1.03204
1457.99471	1.03468
1456.06614	1.04182
1454.13758	1.04490
1452.20902	1.04511
1450.28045	1.04498
1448.35189	1.04438
1446.42332	1.04240
1444.49476	1.03903
1442.56619	1.03472
1440.63763	1.03031
1438.70906	1.02551
1436.78050	1.01787
1434.85194	1.00873
1432.92337	1.00100
1430.99481	0.99294
1429.06624	0.98481
1427.13768	0.97843
1425.20911	0.97319
1423.28055	0.96888
1421.35198	0.96622
1419.42342	0.96544
1417.49486	0.96599
1415.56629	0.96606
1413.63773	0.96529
1411.70916	0.96419
1409.78060	0.96329
1407.85203	0.96257
1405.92347	0.96238
1403.99490	0.96336
1402.06634	0.96453
1400.13778	0.96485
1398.20921	0.96479
1396.28065	0.96621
1394.35208	0.96945
1392.42352	0.97278
1390.49495	0.97673
1388.56639	0.98444
1386.63782	0.99786
1384.70926	1.01256
1382.78070	1.02529
1380.85213	1.03505
1378.92357	1.03989
1376.99500	1.03952
1375.06644	1.03338
1373.13787	1.02192
1371.20931	1.00926
1369.28074	0.99527
1367.35218	0.97951
1365.42362	0.96421
1363.49505	0.94806
1361.56649	0.93163
1359.63792	0.91906
1357.70936	0.90937
1355.78079	0.90109
1353.85223	0.89438
1351.92366	0.88904
1349.99510	0.88473
1348.06654	0.88142
1346.13797	0.87880
1344.20941	0.87691
1342.28084	0.87619
1340.35228	0.87686
1338.42371	0.87909
1336.49515	0.88343
1334.56659	0.89033
1332.63802	0.89928
1330.70946	0.90886
1328.78089	0.91717
1326.85233	0.92309
1324.92376	0.92694
1322.99520	0.92972
1321.06663	0.93257
1319.13807	0.93624
1317.20951	0.93995
1315.28094	0.94253
1313.35238	0.94422
1311.42381	0.94542
1309.49525	0.94577
1307.56668	0.94459
1305.63812	0.94189
1303.70955	0.93845
1301.78099	0.93480
1299.85243	0.93117
1297.92386	0.92723
1295.99530	0.92274
1294.06673	0.91833
1292.13817	0.91480
1290.20960	0.91258
1288.28104	0.91145
1286.35247	0.91042
1284.42391	0.90849
1282.49535	0.90573
1280.56678	0.90314
1278.63822	0.90156
1276.70965	0.90113
1274.78109	0.90173
1272.85252	0.90346
1270.92396	0.90626
1268.99539	0.90972
1267.06683	0.91340
1265.13827	0.91661
1263.20970	0.91830
1261.28114	0.91809
1259.35257	0.91669
1257.42401	0.91501
1255.49544	0.91374
1253.56688	0.91306
1251.63831	0.91258
1249.70975	0.91227
1247.78119	0.91259
1245.85262	0.91360
1243.92406	0.91469
1241.99549	0.91529
1240.06693	0.91551
1238.13836	0.91540
1236.20980	0.91446
1234.28123	0.91244
1232.35267	0.90966
1230.42411	0.90617
1228.49554	0.90200
1226.56698	0.89739
1224.63841	0.89232
1222.70985	0.88653
1220.78128	0.88021
1218.85272	0.87401
1216.92415	0.86898
1214.99559	0.86633
1213.06703	0.86653
1211.13846	0.86882
1209.20990	0.87139
1207.28133	0.87242
1205.35277	0.87049
1203.42420	0.86488
1201.49564	0.85659
1199.56708	0.84674
1197.63851	0.83543
1195.70995	0.82312
1193.78138	0.81127
1191.85282	0.80156
1189.92425	0.79471
1187.99569	0.79055
1186.06712	0.78878
1184.13856	0.78905
1182.21000	0.79122
1180.28143	0.79550
1178.35287	0.80194
1176.42430	0.81035
1174.49574	0.82033
1172.56717	0.83133
1170.63861	0.84318
1168.71004	0.85623
1166.78148	0.87052
1164.85292	0.88526
1162.92435	0.89880
1160.99579	0.90882
1159.06722	0.91405
1157.13866	0.91511
1155.21009	0.91265
1153.28153	0.90668
1151.35296	0.89755
1149.42440	0.88646
1147.49584	0.87500
1145.56727	0.86465
1143.63871	0.85643
1141.71014	0.85090
1139.78158	0.84845
1137.85301	0.84878
1135.92445	0.85140
1133.99588	0.85658
1132.06732	0.86469
1130.13876	0.87552
1128.21019	0.88719
1126.28163	0.89704
1124.35306	0.90420
1122.42450	0.90932
1120.49593	0.91252
1118.56737	0.91304
1116.63880	0.91011
1114.71024	0.90406
1112.78168	0.89612
1110.85311	0.88707
1108.92455	0.87764
1106.99598	0.86925
1105.06742	0.86267
1103.13885	0.85848
1101.21029	0.85787
1099.28172	0.86101
1097.35316	0.86744
1095.42460	0.87769
1093.49603	0.89183
1091.56747	0.90849
1089.63890	0.92609
1087.71034	0.94369
1085.78177	0.96030
1083.85321	0.97470
1081.92464	0.98617
1079.99608	0.99334
1078.06752	0.99500
1076.13895	0.99289
1074.21039	0.98949
1072.28182	0.98582
1070.35326	0.98220
1068.42469	0.97826
1066.49613	0.97397
1064.56756	0.97015
1062.63900	0.96622
1060.71044	0.96034
1058.78187	0.95286
1056.85331	0.94583
1054.92474	0.94018
1052.99618	0.93580
1051.06761	0.93273
1049.13905	0.93148
1047.21049	0.93260
1045.28192	0.93628
1043.35336	0.94150
1041.42479	0.94654
1039.49623	0.95016
1037.56766	0.95110
1035.63910	0.94891
1033.71053	0.94391
1031.78197	0.93662
1029.85341	0.92856
1027.92484	0.92000
1025.99628	0.91004
1024.06771	0.89942
1022.13915	0.88997
1020.21058	0.88348
1018.28202	0.87984
1016.35345	0.87554
1014.42489	0.86673
1012.49633	0.85278
1010.56776	0.83560
1008.63920	0.81726
1006.71063	0.79952
1004.78207	0.78360
1002.85350	0.77042
1000.92494	0.76087
998.99637	0.75523
997.06781	0.75251
995.13925	0.75064
993.21068	0.74806
991.28212	0.74467
989.35355	0.74091
987.42499	0.73742
985.49642	0.73534
983.56786	0.73529
981.63929	0.73673
979.71073	0.73897
977.78217	0.74097
975.85360	0.74106
973.92504	0.73809
971.99647	0.73175
970.06791	0.72251
968.13934	0.71180
966.21078	0.70142
964.28221	0.69320
962.35365	0.68941
960.42509	0.69210
958.49652	0.70031
956.56796	0.70843
954.63939	0.70980
952.71083	0.70218
950.78226	0.68832
948.85370	0.67294
946.92513	0.66004
944.99657	0.65138
943.06801	0.64634
941.13944	0.64364
939.21088	0.64288
937.28231	0.64398
935.35375	0.64695
933.42518	0.65190
931.49662	0.65857
929.56805	0.66626
927.63949	0.67443
925.71093	0.68311
923.78236	0.69231
921.85380	0.70149
919.92523	0.70988
917.99667	0.71694
916.06810	0.72306
914.13954	0.72922
912.21098	0.73620
910.28241	0.74410
908.35385	0.75244
906.42528	0.76118
904.49672	0.77040
902.56815	0.77891
900.63959	0.78486
898.71102	0.78755
896.78246	0.78749
894.85390	0.78507
892.92533	0.78057
890.99677	0.77533
889.06820	0.77099
887.13964	0.76748
885.21107	0.76422
883.28251	0.76183
881.35394	0.76078
879.42538	0.76087
877.49682	0.76208
875.56825	0.76432
873.63969	0.76719
871.71112	0.77071
869.78256	0.77497
867.85399	0.77952
865.92543	0.78432
863.99686	0.78963
862.06830	0.79523
860.13974	0.80143
858.21117	0.80925
856.28261	0.81795
854.35404	0.82559
852.42548	0.83234
850.49691	0.83947
848.56835	0.84683
846.63978	0.85338
844.71122	0.85891
842.78266	0.86444
840.85409	0.86999
838.92553	0.87452
836.99696	0.87805
835.06840	0.88156
833.13983	0.88542
831.21127	0.88901
829.28270	0.89153
827.35414	0.89267
825.42558	0.89303
823.49701	0.89309
821.56845	0.89280
819.63988	0.89262
817.71132	0.89240
815.78275	0.89180
813.85419	0.89179
811.92562	0.89268
809.99706	0.89337
808.06850	0.89351
806.13993	0.89420
804.21137	0.89606
802.28280	0.89863
800.35424	0.90118
798.42567	0.90408
796.49711	0.90852
794.56854	0.91405
792.63998	0.91950
790.71142	0.92512
788.78285	0.93108
786.85429	0.93656
784.92572	0.94148
782.99716	0.94643
781.06859	0.95144
779.14003	0.95621
777.21147	0.96064
775.28290	0.96509
773.35434	0.96975
771.42577	0.97410
769.49721	0.97797
767.56864	0.98147
765.64008	0.98423
763.71151	0.98665
761.78295	0.98898
759.85439	0.99048
757.92582	0.99200
755.99726	0.99501
754.06869	0.99875
752.14013	1.00131
750.21156	1.00206
748.28300	1.00170
746.35443	1.00081
744.42587	0.99980
742.49731	0.99920
740.56874	0.99902
738.64018	0.99946
736.71161	1.00010
734.78305	0.99937
732.85448	0.99794
730.92592	0.99761
728.99735	0.99781
727.06879	0.99819
725.14023	0.99959
723.21166	1.00183
721.28310	1.00407
719.35453	1.00521
717.42597	1.00528
715.49740	1.00659
713.56884	1.01029
711.64027	1.01430
709.71171	1.01759
707.78315	1.02224
705.85458	1.02813
703.92602	1.03301
701.99745	1.03774
700.06889	1.04400
698.14032	1.05026
696.21176	1.05528
694.28319	1.06046
692.35463	1.06673
690.42607	1.07354
688.49750	1.08034
686.56894	1.08597
684.64037	1.08955
682.71181	1.09240
680.78324	1.09559
678.85468	1.09859
676.92611	1.10130
674.99755	1.10363
673.06899	1.10494
671.14042	1.10454
669.21186	1.10153
667.28329	1.09853
665.35473	1.09785
663.42616	1.09597
661.49760	1.09247
659.56903	1.08864
657.64047	1.08349
655.71191	1.07726
653.78334	1.07272
651.85478	1.06925
649.92621	1.06419
647.99765	1.05669
646.06908	1.04928
644.14052	1.04610
642.21195	1.04670
640.28339	1.04720
638.35483	1.04681
636.42626	1.04686
634.49770	1.04696
632.56913	1.04627
630.64057	1.04609
628.71200	1.04804
626.78344	1.05086
624.85488	1.05258
622.92631	1.05454
620.99775	1.05679
619.06918	1.05644
617.14062	1.05490
615.21205	1.05535
613.28349	1.05759
611.35492	1.06008
609.42636	1.06135
607.49780	1.06164
605.56923	1.06102
603.64067	1.05924
601.71210	1.05812
599.78354	1.05770
