3997.91406	1.26212
3995.98550	1.26306
3994.05693	1.26536
3992.12837	1.26416
3990.19980	1.25943
3988.27124	1.25817
3986.34268	1.26218
3984.41411	1.26656
3982.48555	1.26640
3980.55698	1.26140
3978.62842	1.25517
3976.69985	1.24855
3974.77129	1.24273
3972.84272	1.24411
3970.91416	1.25171
3968.98560	1.25567
3967.05703	1.25567
3965.12847	1.25725
3963.19990	1.25703
3961.27134	1.25137
3959.34277	1.24546
3957.41421	1.24320
3955.48564	1.24319
3953.55708	1.24410
3951.62852	1.24638
3949.69995	1.24845
3947.77139	1.24693
3945.84282	1.24425
3943.91426	1.24425
3941.98569	1.24775
3940.05713	1.25046
3938.12856	1.24614
3936.20000	1.24170
3934.27144	1.24838
3932.34287	1.25761
3930.41431	1.25432
3928.48574	1.24736
3926.55718	1.24532
3924.62861	1.24458
3922.70005	1.24253
3920.77148	1.24136
3918.84292	1.24232
3916.91436	1.24222
3914.98579	1.23694
3913.05723	1.23001
3911.12866	1.22370
3909.20010	1.21856
3907.27153	1.22173
3905.34297	1.23490
3903.41440	1.23713
3901.48584	1.22525
3899.55728	1.22187
3897.62871	1.22307
3895.70015	1.22323
3893.77158	1.22703
3891.84302	1.23324
3889.91445	1.23208
3887.98589	1.22351
3886.05733	1.21258
3884.12876	1.20826
3882.20020	1.21103
3880.27163	1.21348
3878.34307	1.21574
3876.41450	1.22153
3874.48594	1.23153
3872.55737	1.23656
3870.62881	1.22438
3868.70025	1.20774
3866.77168	1.20315
3864.84312	1.20543
3862.91455	1.21017
3860.98599	1.21441
3859.05742	1.21512
3857.12886	1.21421
3855.20029	1.21479
3853.27173	1.21366
3851.34317	1.21307
3849.41460	1.21364
3847.48604	1.21195
3845.55747	1.21162
3843.62891	1.21583
3841.70034	1.22111
3839.77178	1.22192
3837.84321	1.21288
3835.91465	1.20248
3833.98609	1.19822
3832.05752	1.19531
3830.12896	1.19352
3828.20039	1.19545
3826.27183	1.20043
3824.34326	1.20737
3822.41470	1.21449
3820.48613	1.21611
3818.55757	1.21235
3816.62901	1.20450
3814.70044	1.19515
3812.77188	1.19105
3810.84331	1.19013
3808.91475	1.19082
3806.98618	1.19234
3805.05762	1.19097
3803.12905	1.18711
3801.20049	1.18312
3799.27193	1.18045
3797.34336	1.18040
3795.41480	1.18353
3793.48623	1.18709
3791.55767	1.18931
3789.62910	1.19012
3787.70054	1.19053
3785.77197	1.19299
3783.84341	1.19681
3781.91485	1.19596
3779.98628	1.18860
3778.05772	1.18306
3776.12915	1.18504
3774.20059	1.18961
3772.27202	1.19092
3770.34346	1.18966
3768.41489	1.19188
3766.48633	1.19104
3764.55777	1.18178
3762.62920	1.17383
3760.70064	1.17476
3758.77207	1.18513
3756.84351	1.19395
3754.91494	1.19242
3752.98638	1.18550
3751.05781	1.18231
3749.12925	1.17742
3747.20069	1.17019
3745.27212	1.17081
3743.34356	1.17568
3741.41499	1.17625
3739.48643	1.17653
3737.55786	1.17934
3735.62930	1.18244
3733.70074	1.18122
3731.77217	1.17934
3729.84361	1.18074
3727.91504	1.18416
3725.98648	1.18485
3724.05791	1.17861
3722.12935	1.16782
3720.20078	1.16010
3718.27222	1.16188
3716.34366	1.17088
3714.41509	1.17930
3712.48653	1.17790
3710.55796	1.16881
3708.62940	1.16898
3706.70083	1.17489
3704.77227	1.18140
3702.84370	1.18644
3700.91514	1.18641
3698.98658	1.18384
3697.05801	1.18529
3695.12945	1.19082
3693.20088	1.19369
3691.27232	1.19015
3689.34375	1.18771
3687.41519	1.19284
3685.48662	1.19688
3683.55806	1.19709
3681.62950	1.19640
3679.70093	1.19801
3677.77237	1.20077
3675.84380	1.20206
3673.91524	1.20499
3671.98667	1.21051
3670.05811	1.22055
3668.12954	1.23330
3666.20098	1.24255
3664.27242	1.24985
3662.34385	1.25874
3660.41529	1.26919
3658.48672	1.27892
3656.55816	1.28659
3654.62959	1.29040
3652.70103	1.29399
3650.77246	1.30143
3648.84390	1.31540
3646.91534	1.33195
3644.98677	1.34417
3643.05821	1.35246
3641.12964	1.35842
3639.20108	1.36562
3637.27251	1.37710
3635.34395	1.39139
3633.41538	1.40199
3631.48682	1.40666
3629.55826	1.41825
3627.62969	1.43844
3625.70113	1.44760
3623.77256	1.45346
3621.84400	1.46500
3619.91543	1.48035
3617.98687	1.48575
3616.05830	1.48435
3614.12974	1.48745
3612.20118	1.49373
3610.27261	1.49465
3608.34405	1.49678
3606.41548	1.51113
3604.48692	1.52476
3602.55835	1.53165
3600.62979	1.54126
3598.70123	1.55392
3596.77266	1.56251
3594.84410	1.57695
3592.91553	1.59795
3590.98697	1.60242
3589.05840	1.58673
3587.12984	1.57898
3585.20127	1.59478
3583.27271	1.60897
3581.34415	1.61243
3579.41558	1.60940
3577.48702	1.60717
3575.55845	1.61161
3573.62989	1.61659
3571.70132	1.61702
3569.77276	1.61542
3567.84419	1.61230
3565.91563	1.61601
3563.98707	1.62678
3562.05850	1.63398
3560.12994	1.63441
3558.20137	1.62704
3556.27281	1.61778
3554.34424	1.61834
3552.41568	1.62644
3550.48711	1.62928
3548.55855	1.63403
3546.62999	1.65059
3544.70142	1.66269
3542.77286	1.65738
3540.84429	1.65218
3538.91573	1.65496
3536.98716	1.65343
3535.05860	1.64551
3533.13003	1.64170
3531.20147	1.64359
3529.27291	1.64994
3527.34434	1.65990
3525.41578	1.66790
3523.48721	1.66908
3521.55865	1.66750
3519.63008	1.66921
3517.70152	1.67668
3515.77295	1.68794
3513.84439	1.69688
3511.91583	1.70282
3509.98726	1.70168
3508.05870	1.69299
3506.13013	1.69147
3504.20157	1.69273
3502.27300	1.68500
3500.34444	1.68399
3498.41587	1.69663
3496.48731	1.70710
3494.55875	1.70219
3492.63018	1.69177
3490.70162	1.68968
3488.77305	1.68840
3486.84449	1.68125
3484.91592	1.67915
3482.98736	1.68593
3481.05879	1.69394
3479.13023	1.69452
3477.20167	1.68919
3475.27310	1.68793
3473.34454	1.69447
3471.41597	1.70412
3469.48741	1.71128
3467.55884	1.71185
3465.63028	1.70975
3463.70171	1.71508
3461.77315	1.72549
3459.84459	1.72948
3457.91602	1.72805
3455.98746	1.72248
3454.05889	1.70927
3452.13033	1.69787
3450.20176	1.70051
3448.27320	1.71527
3446.34464	1.72846
3444.41607	1.73219
3442.48751	1.72698
3440.55894	1.71686
3438.63038	1.71237
3436.70181	1.71368
3434.77325	1.71281
3432.84468	1.70807
3430.91612	1.70335
3428.98756	1.70651
3427.05899	1.71315
3425.13043	1.70961
3423.20186	1.70207
3421.27330	1.70459
3419.34473	1.71534
3417.41617	1.72161
3415.48760	1.71867
3413.55904	1.71625
3411.63048	1.71703
3409.70191	1.71319
3407.77335	1.71028
3405.84478	1.71649
3403.91622	1.72549
3401.98765	1.72935
3400.05909	1.72843
3398.13052	1.72558
3396.20196	1.72158
3394.27340	1.71433
3392.34483	1.70332
3390.41627	1.69696
3388.48770	1.70134
3386.55914	1.71100
3384.63057	1.71893
3382.70201	1.72171
3380.77344	1.72034
3378.84488	1.71944
3376.91632	1.71858
3374.98775	1.71450
3373.05919	1.71445
3371.13062	1.72482
3369.20206	1.73185
3367.27349	1.72792
3365.34493	1.73127
3363.41636	1.74626
3361.48780	1.75090
3359.55924	1.73527
3357.63067	1.71594
3355.70211	1.70969
3353.77354	1.71146
3351.84498	1.70386
3349.91641	1.69477
3347.98785	1.70319
3346.05928	1.71820
3344.13072	1.72517
3342.20216	1.72862
3340.27359	1.72786
3338.34503	1.72520
3336.41646	1.72622
3334.48790	1.72300
3332.55933	1.71436
3330.63077	1.71067
3328.70220	1.71436
3326.77364	1.72186
3324.84508	1.72959
3322.91651	1.73539
3320.98795	1.73899
3319.05938	1.73796
3317.13082	1.73589
3315.20225	1.74231
3313.27369	1.75590
3311.34513	1.76470
3309.41656	1.76161
3307.48800	1.75576
3305.55943	1.75712
3303.63087	1.75501
3301.70230	1.73819
3299.77374	1.71982
3297.84517	1.71658
3295.91661	1.72595
3293.98805	1.73617
3292.05948	1.74343
3290.13092	1.74891
3288.20235	1.75182
3286.27379	1.75298
3284.34522	1.75273
3282.41666	1.74703
3280.48809	1.73847
3278.55953	1.73585
3276.63097	1.73625
3274.70240	1.73134
3272.77384	1.72632
3270.84527	1.72692
3268.91671	1.72686
3266.98814	1.72255
3265.05958	1.71819
3263.13101	1.71586
3261.20245	1.71310
3259.27389	1.70588
3257.34532	1.69428
3255.41676	1.68371
3253.48819	1.67746
3251.55963	1.67472
3249.63106	1.67368
3247.70250	1.67109
3245.77393	1.66349
3243.84537	1.65237
3241.91681	1.64664
3239.98824	1.65302
3238.05968	1.66253
3236.13111	1.66212
3234.20255	1.65684
3232.27398	1.65765
3230.34542	1.66410
3228.41685	1.66814
3226.48829	1.66410
3224.55973	1.65322
3222.63116	1.64227
3220.70260	1.63856
3218.77403	1.63932
3216.84547	1.63548
3214.91690	1.62839
3212.98834	1.62413
3211.05977	1.62064
3209.13121	1.61358
3207.20265	1.60888
3205.27408	1.61323
3203.34552	1.61745
3201.41695	1.61211
3199.48839	1.60271
3197.55982	1.59654
3195.63126	1.59646
3193.70269	1.60031
3191.77413	1.60172
3189.84557	1.59914
3187.91700	1.59776
3185.98844	1.59802
3184.05987	1.59391
3182.13131	1.58809
3180.20274	1.58775
3178.27418	1.59005
3176.34562	1.58764
3174.41705	1.57732
3172.48849	1.56276
3170.55992	1.55308
3168.63136	1.55276
3166.70279	1.55639
3164.77423	1.55854
3162.84566	1.56148
3160.91710	1.56473
3158.98854	1.56319
3157.05997	1.56001
3155.13141	1.56077
3153.20284	1.56265
3151.27428	1.55980
3149.34571	1.54990
3147.41715	1.53883
3145.48858	1.53520
3143.56002	1.53754
3141.63146	1.54093
3139.70289	1.54541
3137.77433	1.54711
3135.84576	1.54258
3133.91720	1.53704
3131.98863	1.53304
3130.06007	1.52800
3128.13150	1.52375
3126.20294	1.52376
3124.27438	1.52607
3122.34581	1.52809
3120.41725	1.53154
3118.48868	1.53578
3116.56012	1.53706
3114.63155	1.53805
3112.70299	1.54303
3110.77442	1.54756
3108.84586	1.54417
3106.91730	1.53377
3104.98873	1.52515
3103.06017	1.52525
3101.13160	1.53129
3099.20304	1.53239
3097.27447	1.52526
3095.34591	1.51818
3093.41734	1.51520
3091.48878	1.51483
3089.56022	1.51691
3087.63165	1.51880
3085.70309	1.51886
3083.77452	1.51916
3081.84596	1.51836
3079.91739	1.51510
3077.98883	1.51001
3076.06026	1.50289
3074.13170	1.49796
3072.20314	1.49918
3070.27457	1.50135
3068.34601	1.49939
3066.41744	1.49733
3064.48888	1.49661
3062.56031	1.49183
3060.63175	1.48536
3058.70318	1.48476
3056.77462	1.48828
3054.84606	1.48797
3052.91749	1.48459
3050.98893	1.48264
3049.06036	1.47815
3047.13180	1.47151
3045.20323	1.46992
3043.27467	1.47084
3041.34610	1.46843
3039.41754	1.46465
3037.48898	1.46185
3035.56041	1.45907
3033.63185	1.45772
3031.70328	1.45892
3029.77472	1.45989
3027.84615	1.46083
3025.91759	1.46318
3023.98903	1.46457
3022.06046	1.46259
3020.13190	1.45791
3018.20333	1.45378
3016.27477	1.45111
3014.34620	1.44854
3012.41764	1.44704
3010.48907	1.44519
3008.56051	1.44083
3006.63195	1.43778
3004.70338	1.43717
3002.77482	1.43378
3000.84625	1.42748
2998.91769	1.42404
2996.98912	1.42619
2995.06056	1.43095
2993.13199	1.43273
2991.20343	1.43103
2989.27487	1.43272
2987.34630	1.44032
2985.41774	1.44727
2983.48917	1.45006
2981.56061	1.45232
2979.63204	1.45548
2977.70348	1.45788
2975.77491	1.46067
2973.84635	1.46613
2971.91779	1.47319
2969.98922	1.47880
2968.06066	1.48205
2966.13209	1.48387
2964.20353	1.48378
2962.27496	1.48269
2960.34640	1.48223
2958.41783	1.47918
2956.48927	1.47308
2954.56071	1.46906
2952.63214	1.46806
2950.70358	1.46750
2948.77501	1.46623
2946.84645	1.46508
2944.91788	1.46623
2942.98932	1.47090
2941.06075	1.47782
2939.13219	1.48396
2937.20363	1.48671
2935.27506	1.48762
2933.34650	1.49052
2931.41793	1.49557
2929.48937	1.50089
2927.56080	1.50485
2925.63224	1.50551
2923.70367	1.50386
2921.77511	1.50234
2919.84655	1.50038
2917.91798	1.49415
2915.98942	1.48093
2914.06085	1.46361
2912.13229	1.44823
2910.20372	1.43851
2908.27516	1.43328
2906.34659	1.42963
2904.41803	1.42611
2902.48947	1.42211
2900.56090	1.41762
2898.63234	1.41486
2896.70377	1.41737
2894.77521	1.42308
2892.84664	1.42498
2890.91808	1.42201
2888.98952	1.41808
2887.06095	1.41528
2885.13239	1.41379
2883.20382	1.41205
2881.27526	1.40931
2879.34669	1.40673
2877.41813	1.40352
2875.48956	1.39989
2873.56100	1.39774
2871.63244	1.39567
2869.70387	1.39253
2867.77531	1.39000
2865.84674	1.38975
2863.91818	1.39140
2861.98961	1.39325
2860.06105	1.39556
2858.13248	1.39881
2856.20392	1.40344
2854.27536	1.40857
2852.34679	1.40895
2850.41823	1.40402
2848.48966	1.39643
2846.56110	1.38370
2844.63253	1.36672
2842.70397	1.35230
2840.77540	1.34432
2838.84684	1.33985
2836.91828	1.33372
2834.98971	1.32560
2833.06115	1.31799
2831.13258	1.31268
2829.20402	1.31005
2827.27545	1.30757
2825.34689	1.30427
2823.41832	1.30210
2821.48976	1.30001
2819.56120	1.29599
2817.63263	1.29216
2815.70407	1.29146
2813.77550	1.29242
2811.84694	1.29207
2809.91837	1.29053
2807.98981	1.28834
2806.06124	1.28597
2804.13268	1.28534
2802.20412	1.28519
2800.27555	1.28271
2798.34699	1.27949
2796.41842	1.27761
2794.48986	1.27609
2792.56129	1.27430
2790.63273	1.27242
2788.70416	1.26982
2786.77560	1.26685
2784.84704	1.26456
2782.91847	1.26259
2780.98991	1.26067
2779.06134	1.25864
2777.13278	1.25592
2775.20421	1.25245
2773.27565	1.24872
2771.34708	1.24633
2769.41852	1.24557
2767.48996	1.24421
2765.56139	1.24240
2763.63283	1.24139
2761.70426	1.23941
2759.77570	1.23631
2757.84713	1.23486
2755.91857	1.23478
2753.99001	1.23410
2752.06144	1.23250
2750.13288	1.23015
2748.20431	1.22775
2746.27575	1.22533
2744.34718	1.22300
2742.41862	1.22204
2740.49005	1.22117
2738.56149	1.21887
2736.63293	1.21722
2734.70436	1.21689
2732.77580	1.21622
2730.84723	1.21598
2728.91867	1.21640
2726.99010	1.21521
2725.06154	1.21257
2723.13297	1.21079
2721.20441	1.21100
2719.27585	1.21218
2717.34728	1.21204
2715.41872	1.21089
2713.49015	1.21018
2711.56159	1.20830
2709.63302	1.20383
2707.70446	1.19830
2705.77589	1.19338
2703.84733	1.18922
2701.91877	1.18600
2699.99020	1.18426
2698.06164	1.18340
2696.13307	1.18222
2694.20451	1.18044
2692.27594	1.17806
2690.34738	1.17505
2688.41881	1.17277
2686.49025	1.17253
2684.56169	1.17344
2682.63312	1.17418
2680.70456	1.17492
2678.77599	1.17640
2676.84743	1.17739
2674.91886	1.17628
2672.99030	1.17398
2671.06173	1.17148
2669.13317	1.16902
2667.20461	1.16713
2665.27604	1.16515
2663.34748	1.16157
2661.41891	1.15711
2659.49035	1.15424
2657.56178	1.15383
2655.63322	1.15407
2653.70465	1.15268
2651.77609	1.15085
2649.84753	1.15058
2647.91896	1.15055
2645.99040	1.15015
2644.06183	1.15065
2642.13327	1.15174
2640.20470	1.15159
2638.27614	1.14996
2636.34757	1.14864
2634.41901	1.14750
2632.49045	1.14485
2630.56188	1.14073
2628.63332	1.13632
2626.70475	1.13253
2624.77619	1.12978
2622.84762	1.12754
2620.91906	1.12512
2618.99049	1.12210
2617.06193	1.11850
2615.13337	1.11591
2613.20480	1.11563
2611.27624	1.11716
2609.34767	1.11878
2607.41911	1.11847
2605.49054	1.11668
2603.56198	1.11535
2601.63342	1.11529
2599.70485	1.11646
2597.77629	1.11744
2595.84772	1.11646
2593.91916	1.11395
2591.99059	1.11161
2590.06203	1.10971
2588.13346	1.10715
2586.20490	1.10369
2584.27634	1.09998
2582.34777	1.09675
2580.41921	1.09492
2578.49064	1.09466
2576.56208	1.09441
2574.63351	1.09336
2572.70495	1.09228
2570.77638	1.09192
2568.84782	1.09223
2566.91926	1.09177
2564.99069	1.09003
2563.06213	1.08873
2561.13356	1.08823
2559.20500	1.08701
2557.27643	1.08462
2555.34787	1.08294
2553.41930	1.08315
2551.49074	1.08326
2549.56218	1.08099
2547.63361	1.07707
2545.70505	1.07329
2543.77648	1.07014
2541.84792	1.06784
2539.91935	1.06672
2537.99079	1.06670
2536.06222	1.06695
2534.13366	1.06616
2532.20510	1.06520
2530.27653	1.06526
2528.34797	1.06499
2526.41940	1.06414
2524.49084	1.06395
2522.56227	1.06446
2520.63371	1.06480
2518.70514	1.06377
2516.77658	1.06096
2514.84802	1.05755
2512.91945	1.05485
2510.99089	1.05318
2509.06232	1.05188
2507.13376	1.05036
2505.20519	1.04896
2503.27663	1.04765
2501.34806	1.04589
2499.41950	1.04422
2497.49094	1.04340
2495.56237	1.04302
2493.63381	1.04243
2491.70524	1.04133
2489.77668	1.03947
2487.84811	1.03727
2485.91955	1.03600
2483.99098	1.03598
2482.06242	1.03543
2480.13386	1.03364
2478.20529	1.03225
2476.27673	1.03091
2474.34816	1.02783
2472.41960	1.02376
2470.49103	1.02060
2468.56247	1.01897
2466.63391	1.01795
2464.70534	1.01614
2462.77678	1.01365
2460.84821	1.01180
2458.91965	1.01108
2456.99108	1.01117
2455.06252	1.01161
2453.13395	1.01176
2451.20539	1.01094
2449.27683	1.00911
2447.34826	1.00742
2445.41970	1.00617
2443.49113	1.00414
2441.56257	1.00137
2439.63400	0.99908
2437.70544	0.99736
2435.77687	0.99532
2433.84831	0.99256
2431.91975	0.98985
2429.99118	0.98818
2428.06262	0.98752
2426.13405	0.98699
2424.20549	0.98595
2422.27692	0.98506
2420.34836	0.98517
2418.41979	0.98556
2416.49123	0.98512
2414.56267	0.98399
2412.63410	0.98287
2410.70554	0.98227
2408.77697	0.98137
2406.84841	0.97872
2404.91984	0.97475
2402.99128	0.97124
2401.06271	0.96901
2399.13415	0.96704
2397.20559	0.96444
2395.27702	0.96209
2393.34846	0.96082
2391.41989	0.96045
2389.49133	0.96023
2387.56276	0.95931
2385.63420	0.95798
2383.70563	0.95739
2381.77707	0.95795
2379.84851	0.95849
2377.91994	0.95818
2375.99138	0.95836
2374.06281	0.95981
2372.13425	0.96029
2370.20568	0.95618
2368.27712	0.94759
2366.34855	0.94005
2364.41999	0.93733
2362.49143	0.94293
2360.56286	0.95233
2358.63430	0.94863
2356.70573	0.93984
2354.77717	0.94224
2352.84860	0.94641
2350.92004	0.94465
2348.99147	0.94173
2347.06291	0.94090
2345.13435	0.94184
2343.20578	0.94185
2341.27722	0.94176
2339.34865	0.94555
2337.42009	0.94875
2335.49152	0.94525
2333.56296	0.93953
2331.63440	0.93678
2329.70583	0.93577
2327.77727	0.93486
2325.84870	0.93376
2323.92014	0.93287
2321.99157	0.93253
2320.06301	0.93194
2318.13444	0.93135
2316.20588	0.93089
2314.27732	0.92878
2312.34875	0.92544
2310.42019	0.92361
2308.49162	0.92344
2306.56306	0.92307
2304.63449	0.92179
2302.70593	0.92036
2300.77736	0.91926
2298.84880	0.91830
2296.92024	0.91802
2294.99167	0.91850
2293.06311	0.91851
2291.13454	0.91778
2289.20598	0.91724
2287.27741	0.91691
2285.34885	0.91604
2283.42028	0.91483
2281.49172	0.91430
2279.56316	0.91425
2277.63459	0.91356
2275.70603	0.91233
2273.77746	0.91114
2271.84890	0.91015
2269.92033	0.90955
2267.99177	0.90886
2266.06320	0.90784
2264.13464	0.90729
2262.20608	0.90707
2260.27751	0.90650
2258.34895	0.90576
2256.42038	0.90521
2254.49182	0.90490
2252.56325	0.90461
2250.63469	0.90392
2248.70612	0.90276
2246.77756	0.90172
2244.84900	0.90160
2242.92043	0.90218
2240.99187	0.90219
2239.06330	0.90130
2237.13474	0.90058
2235.20617	0.90057
2233.27761	0.90066
2231.34904	0.90015
2229.42048	0.89932
2227.49192	0.89885
2225.56335	0.89860
2223.63479	0.89811
2221.70622	0.89738
2219.77766	0.89634
2217.84909	0.89462
2215.92053	0.89250
2213.99196	0.89108
2212.06340	0.89077
2210.13484	0.89080
2208.20627	0.89047
2206.27771	0.88973
2204.34914	0.88878
2202.42058	0.88814
2200.49201	0.88818
2198.56345	0.88875
2196.63488	0.88976
2194.70632	0.89069
2192.77776	0.89084
2190.84919	0.89028
2188.92063	0.88966
2186.99206	0.88921
2185.06350	0.88846
2183.13493	0.88753
2181.20637	0.88704
2179.27781	0.88677
2177.34924	0.88644
2175.42068	0.88625
2173.49211	0.88593
2171.56355	0.88563
2169.63498	0.88606
2167.70642	0.88696
2165.77785	0.88753
2163.84929	0.88799
2161.92073	0.88857
2159.99216	0.88864
2158.06360	0.88826
2156.13503	0.88811
2154.20647	0.88797
2152.27790	0.88733
2150.34934	0.88647
2148.42077	0.88583
2146.49221	0.88491
2144.56365	0.88360
2142.63508	0.88269
2140.70652	0.88177
2138.77795	0.88005
2136.84939	0.87808
2134.92082	0.87667
2132.99226	0.87583
2131.06369	0.87524
2129.13513	0.87476
2127.20657	0.87456
2125.27800	0.87453
2123.34944	0.87428
2121.42087	0.87405
2119.49231	0.87427
2117.56374	0.87455
2115.63518	0.87413
2113.70661	0.87306
2111.77805	0.87229
2109.84949	0.87195
2107.92092	0.87135
2105.99236	0.87077
2104.06379	0.87058
2102.13523	0.87023
2100.20666	0.86945
2098.27810	0.86863
2096.34953	0.86831
2094.42097	0.86845
2092.49241	0.86875
2090.56384	0.86901
2088.63528	0.86902
2086.70671	0.86898
2084.77815	0.86881
2082.84958	0.86831
2080.92102	0.86799
2078.99245	0.86794
2077.06389	0.86768
2075.13533	0.86713
2073.20676	0.86647
2071.27820	0.86585
2069.34963	0.86508
2067.42107	0.86374
2065.49250	0.86210
2063.56394	0.86078
2061.63537	0.85959
2059.70681	0.85800
2057.77825	0.85593
2055.84968	0.85403
2053.92112	0.85281
2051.99255	0.85179
2050.06399	0.85052
2048.13542	0.84916
2046.20686	0.84800
2044.27830	0.84688
2042.34973	0.84562
2040.42117	0.84412
2038.49260	0.84235
2036.56404	0.84076
2034.63547	0.83980
2032.70691	0.83931
2030.77834	0.83871
2028.84978	0.83771
2026.92122	0.83673
2024.99265	0.83582
2023.06409	0.83468
2021.13552	0.83358
2019.20696	0.83304
2017.27839	0.83293
2015.34983	0.83244
2013.42126	0.83128
2011.49270	0.82981
2009.56414	0.82822
2007.63557	0.82669
2005.70701	0.82565
2003.77844	0.82508
2001.84988	0.82451
1999.92131	0.82367
1997.99275	0.82267
1996.06418	0.82163
1994.13562	0.82024
1992.20706	0.81858
1990.27849	0.81749
1988.34993	0.81698
1986.42136	0.81634
1984.49280	0.81546
1982.56423	0.81450
1980.63567	0.81357
1978.70710	0.81296
1976.77854	0.81267
1974.84998	0.81241
1972.92141	0.81212
1970.99285	0.81146
1969.06428	0.81036
1967.13572	0.80924
1965.20715	0.80838
1963.27859	0.80798
1961.35002	0.80785
1959.42146	0.80719
1957.49290	0.80597
1955.56433	0.80507
1953.63577	0.80484
1951.70720	0.80484
1949.77864	0.80470
1947.85007	0.80429
1945.92151	0.80369
1943.99294	0.80326
1942.06438	0.80302
1940.13582	0.80230
1938.20725	0.80110
1936.27869	0.80002
1934.35012	0.79902
1932.42156	0.79769
1930.49299	0.79624
1928.56443	0.79470
1926.63586	0.79270
1924.70730	0.79071
1922.77874	0.78926
1920.85017	0.78760
1918.92161	0.78571
1916.99304	0.78438
1915.06448	0.78336
1913.13591	0.78224
1911.20735	0.78113
1909.27878	0.78025
1907.35022	0.77975
1905.42166	0.77964
1903.49309	0.77970
1901.56453	0.77948
1899.63596	0.77878
1897.70740	0.77801
1895.77883	0.77740
1893.85027	0.77653
1891.92171	0.77527
1889.99314	0.77440
1888.06458	0.77410
1886.13601	0.77371
1884.20745	0.77307
1882.27888	0.77237
1880.35032	0.77183
1878.42175	0.77162
1876.49319	0.77166
1874.56463	0.77167
1872.63606	0.77159
1870.70750	0.77172
1868.77893	0.77260
1866.85037	0.77339
1864.92180	0.77285
1862.99324	0.77163
1861.06467	0.77050
1859.13611	0.76954
1857.20755	0.76857
1855.27898	0.76760
1853.35042	0.76651
1851.42185	0.76520
1849.49329	0.76403
1847.56472	0.76322
1845.63616	0.76292
1843.70759	0.76311
1841.77903	0.76282
1839.85047	0.76231
1837.92190	0.76254
1835.99334	0.76316
1834.06477	0.76287
1832.13621	0.76179
1830.20764	0.76115
1828.27908	0.76102
1826.35051	0.76083
1824.42195	0.76104
1822.49339	0.76110
1820.56482	0.76036
1818.63626	0.75933
1816.70769	0.75840
1814.77913	0.75737
1812.85056	0.75616
1810.92200	0.75540
1808.99343	0.75510
1807.06487	0.75458
1805.13631	0.75408
1803.20774	0.75379
1801.27918	0.75371
1799.35061	0.75372
1797.42205	0.75339
1795.49348	0.75270
1793.56492	0.75234
1791.63635	0.75290
1789.70779	0.75258
1787.77923	0.75107
1785.85066	0.74981
1783.92210	0.74942
1781.99353	0.74940
1780.06497	0.74960
1778.13640	0.74985
1776.20784	0.74969
1774.27927	0.74955
1772.35071	0.75083
1770.42215	0.75325
1768.49358	0.75530
1766.56502	0.75694
1764.63645	0.75838
1762.70789	0.76157
1760.77932	0.76693
1758.85076	0.77146
1756.92220	0.77606
1754.99363	0.78062
1753.06507	0.78461
1751.13650	0.79153
1749.20794	0.80254
1747.27937	0.81171
1745.35081	0.81778
1743.42224	0.82344
1741.49368	0.83051
1739.56512	0.83874
1737.63655	0.84436
1735.70799	0.84861
1733.77942	0.85942
1731.85086	0.87191
1729.92229	0.88005
1727.99373	0.88733
1726.06516	0.89485
1724.13660	0.90430
1722.20804	0.91384
1720.27947	0.92173
1718.35091	0.93413
1716.42234	0.95779
1714.49378	0.97866
1712.56521	0.99408
1710.63665	1.00965
1708.70808	1.02724
1706.77952	1.05232
1704.85096	1.08507
1702.92239	1.11367
1700.99383	1.15350
1699.06526	1.22198
1697.13670	1.29027
1695.20813	1.35589
1693.27957	1.40174
1691.35100	1.43485
1689.42244	1.47393
1687.49388	1.50812
1685.56531	1.53876
1683.63675	1.58997
1681.70818	1.62817
1679.77962	1.64532
1677.85105	1.65804
1675.92249	1.67421
1673.99392	1.69421
1672.06536	1.71062
1670.13680	1.72598
1668.20823	1.73886
1666.27967	1.74126
1664.35110	1.74015
1662.42254	1.74239
1660.49397	1.74772
1658.56541	1.75131
1656.63684	1.74934
1654.70828	1.74142
1652.77972	1.73840
1650.85115	1.74582
1648.92259	1.74826
1646.99402	1.74736
1645.06546	1.74632
1643.13689	1.74245
1641.20833	1.73830
1639.27976	1.73365
1637.35120	1.72873
1635.42264	1.72919
1633.49407	1.72989
1631.56551	1.72621
1629.63694	1.71977
1627.70838	1.71322
1625.77981	1.70791
1623.85125	1.70067
1621.92269	1.68949
1619.99412	1.67905
1618.06556	1.66983
1616.13699	1.65821
1614.20843	1.64615
1612.27986	1.63227
1610.35130	1.61508
1608.42273	1.59802
1606.49417	1.58384
1604.56561	1.57104
1602.63704	1.55839
1600.70848	1.54939
1598.77991	1.54530
1596.85135	1.54196
1594.92278	1.53838
1592.99422	1.53786
1591.06565	1.53938
1589.13709	1.53991
1587.20853	1.54143
1585.27996	1.54550
1583.35140	1.54992
1581.42283	1.55229
1579.49427	1.55186
1577.56570	1.55235
1575.63714	1.56069
1573.70857	1.56766
1571.78001	1.56915
1569.85145	1.57387
1567.92288	1.58316
1565.99432	1.59145
1564.06575	1.59991
1562.13719	1.60591
1560.20862	1.61166
1558.28006	1.62911
1556.35149	1.63606
1554.42293	1.63607
1552.49437	1.63907
1550.56580	1.64242
1548.63724	1.64245
1546.70867	1.64168
1544.78011	1.64278
1542.85154	1.64582
1540.92298	1.64721
1538.99441	1.63671
1537.06585	1.62628
1535.13729	1.61908
1533.20872	1.61500
1531.28016	1.61235
1529.35159	1.60779
1527.42303	1.60098
1525.49446	1.59283
1523.56590	1.58693
1521.63733	1.58642
1519.70877	1.58853
1517.78021	1.58580
1515.85164	1.57716
1513.92308	1.56669
1511.99451	1.55598
1510.06595	1.54350
1508.13738	1.52003
1506.20882	1.48718
1504.28025	1.47518
1502.35169	1.46607
1500.42313	1.45077
1498.49456	1.42803
1496.56600	1.40157
1494.63743	1.38064
1492.70887	1.36440
1490.78030	1.34564
1488.85174	1.32304
1486.92317	1.30514
1484.99461	1.29288
1483.06605	1.28481
1481.13748	1.28082
1479.20892	1.28083
1477.28035	1.28472
1475.35179	1.29435
1473.42322	1.31604
1471.49466	1.34245
1469.56610	1.35584
1467.63753	1.36334
1465.70897	1.37341
1463.78040	1.38635
1461.85184	1.39547
1459.92327	1.40041
1457.99471	1.40493
1456.06614	1.41151
1454.13758	1.41447
1452.20902	1.41301
1450.28045	1.40870
1448.35189	1.40312
1446.42332	1.39769
1444.49476	1.39239
1442.56619	1.38649
1440.63763	1.38048
1438.70906	1.37444
1436.78050	1.36660
1434.85194	1.35853
1432.92337	1.35350
1430.99481	1.35035
1429.06624	1.34805
1427.13768	1.34666
1425.20911	1.34690
1423.28055	1.34902
1421.35198	1.35092
1419.42342	1.35190
1417.49486	1.35274
1415.56629	1.35236
1413.63773	1.34955
1411.70916	1.34384
1409.78060	1.33770
1407.85203	1.33319
1405.92347	1.32886
1403.99490	1.32465
1402.06634	1.32236
1400.13778	1.32167
1398.20921	1.32158
1396.28065	1.32198
1394.35208	1.32370
1392.42352	1.32700
1390.49495	1.33146
1388.56639	1.33778
1386.63782	1.34652
1384.70926	1.35580
1382.78070	1.36438
1380.85213	1.37141
1378.92357	1.37523
1376.99500	1.37451
1375.06644	1.36777
1373.13787	1.35651
1371.20931	1.34496
1369.28074	1.33218
1367.35218	1.31767
1365.42362	1.30361
1363.49505	1.28933
1361.56649	1.27590
1359.63792	1.26661
1357.70936	1.26092
1355.78079	1.25786
1353.85223	1.25586
1351.92366	1.25396
1349.99510	1.25380
1348.06654	1.25543
1346.13797	1.25666
1344.20941	1.25675
1342.28084	1.25605
1340.35228	1.25517
1338.42371	1.25355
1336.49515	1.25074
1334.56659	1.24839
1332.63802	1.24718
1330.70946	1.24622
1328.78089	1.24416
1326.85233	1.24062
1324.92376	1.23683
1322.99520	1.23442
1321.06663	1.23384
1319.13807	1.23470
1317.20951	1.23677
1315.28094	1.23952
1313.35238	1.24269
1311.42381	1.24617
1309.49525	1.25009
1307.56668	1.25491
1305.63812	1.25940
1303.70955	1.26230
1301.78099	1.26442
1299.85243	1.26567
1297.92386	1.26437
1295.99530	1.26026
1294.06673	1.25523
1292.13817	1.25069
1290.20960	1.24578
1288.28104	1.23967
1286.35247	1.23361
1284.42391	1.22883
1282.49535	1.22502
1280.56678	1.22167
1278.63822	1.21905
1276.70965	1.21769
1274.78109	1.21779
1272.85252	1.21926
1270.92396	1.22186
1268.99539	1.22492
1267.06683	1.22746
1265.13827	1.22955
1263.20970	1.23142
1261.28114	1.23229
1259.35257	1.23180
1257.42401	1.23009
1255.49544	1.22709
1253.56688	1.22307
1251.63831	1.21886
1249.70975	1.21470
1247.78119	1.21052
1245.85262	1.20703
1243.92406	1.20446
1241.99549	1.20239
1240.06693	1.19990
1238.13836	1.19667
1236.20980	1.19427
1234.28123	1.19351
1232.35267	1.19313
1230.42411	1.19250
1228.49554	1.19185
1226.56698	1.19100
1224.63841	1.18994
1222.70985	1.18896
1220.78128	1.18776
1218.85272	1.18570
1216.92415	1.18227
1214.99559	1.17733
1213.06703	1.17199
1211.13846	1.16791
1209.20990	1.16522
1207.28133	1.16237
1205.35277	1.15724
1203.42420	1.14868
1201.49564	1.13792
1199.56708	1.12637
1197.63851	1.11480
1195.70995	1.10466
1193.78138	1.09651
1191.85282	1.08927
1189.92425	1.08307
1187.99569	1.07934
1186.06712	1.07741
1184.13856	1.07601
1182.21000	1.07631
1180.28143	1.07939
1178.35287	1.08482
1176.42430	1.09202
1174.49574	1.10028
1172.56717	1.10844
1170.63861	1.11646
1168.71004	1.12639
1166.78148	1.13935
1164.85292	1.15298
1162.92435	1.16422
1160.99579	1.17296
1159.06722	1.17990
1157.13866	1.18311
1155.21009	1.18030
1153.28153	1.17254
1151.35296	1.16356
1149.42440	1.15608
1147.49584	1.14981
1145.56727	1.14381
1143.63871	1.13927
1141.71014	1.13771
1139.78158	1.13872
1137.85301	1.14231
1135.92445	1.14983
1133.99588	1.16022
1132.06732	1.17070
1130.13876	1.18137
1128.21019	1.19259
1126.28163	1.20225
1124.35306	1.20961
1122.42450	1.21509
1120.49593	1.21800
1118.56737	1.21790
1116.63880	1.21535
1114.71024	1.21093
1112.78168	1.20506
1110.85311	1.19939
1108.92455	1.19517
1106.99598	1.19098
1105.06742	1.18664
1103.13885	1.18403
1101.21029	1.18347
1099.28172	1.18434
1097.35316	1.18701
1095.42460	1.19281
1093.49603	1.20179
1091.56747	1.21248
1089.63890	1.22478
1087.71034	1.23825
1085.78177	1.25026
1083.85321	1.25923
1081.92464	1.26388
1079.99608	1.26249
1078.06752	1.25720
1076.13895	1.25158
1074.21039	1.24532
1072.28182	1.23671
1070.35326	1.22660
1068.42469	1.21739
1066.49613	1.21047
1064.56756	1.20612
1062.63900	1.20441
1060.71044	1.20442
1058.78187	1.20509
1056.85331	1.20667
1054.92474	1.20863
1052.99618	1.20997
1051.06761	1.21212
1049.13905	1.21634
1047.21049	1.22024
1045.28192	1.22203
1043.35336	1.22323
1041.42479	1.22418
1039.49623	1.22286
1037.56766	1.21885
1035.63910	1.21405
1033.71053	1.20934
1031.78197	1.20346
1029.85341	1.19545
1027.92484	1.18543
1025.99628	1.17438
1024.06771	1.16413
1022.13915	1.15525
1020.21058	1.14647
1018.28202	1.13724
1016.35345	1.12774
1014.42489	1.11727
1012.49633	1.10504
1010.56776	1.09187
1008.63920	1.07840
1006.71063	1.06401
1004.78207	1.05010
1002.85350	1.03959
1000.92494	1.03310
998.99637	1.02873
997.06781	1.02487
995.13925	1.02214
993.21068	1.02095
991.28212	1.01944
989.35355	1.01575
987.42499	1.01037
985.49642	1.00457
983.56786	0.99782
981.63929	0.99031
979.71073	0.98394
977.78217	0.97844
975.85360	0.97196
973.92504	0.96399
971.99647	0.95490
970.06791	0.94523
968.13934	0.93592
966.21078	0.92767
964.28221	0.92079
962.35365	0.91600
960.42509	0.91481
958.49652	0.91720
956.56796	0.91952
954.63939	0.91782
952.71083	0.91188
950.78226	0.90379
948.85370	0.89511
946.92513	0.88707
944.99657	0.88109
943.06801	0.87754
941.13944	0.87571
939.21088	0.87512
937.28231	0.87615
935.35375	0.87895
933.42518	0.88288
931.49662	0.88778
929.56805	0.89369
927.63949	0.90040
925.71093	0.90793
923.78236	0.91543
921.85380	0.92086
919.92523	0.92322
917.99667	0.92355
916.06810	0.92289
914.13954	0.92147
912.21098	0.91965
910.28241	0.91800
908.35385	0.91707
906.42528	0.91758
904.49672	0.92006
902.56815	0.92377
900.63959	0.92703
898.71102	0.92880
896.78246	0.92926
894.85390	0.92927
892.92533	0.92921
890.99677	0.92899
889.06820	0.92861
887.13964	0.92800
885.21107	0.92723
883.28251	0.92651
881.35394	0.92587
879.42538	0.92537
877.49682	0.92495
875.56825	0.92428
873.63969	0.92360
871.71112	0.92370
869.78256	0.92462
867.85399	0.92570
865.92543	0.92689
863.99686	0.92881
862.06830	0.93171
860.13974	0.93554
858.21117	0.94066
856.28261	0.94684
854.35404	0.95347
852.42548	0.96084
850.49691	0.96854
848.56835	0.97499
846.63978	0.97975
844.71122	0.98318
842.78266	0.98583
840.85409	0.98835
838.92553	0.99050
836.99696	0.99211
835.06840	0.99433
833.13983	0.99796
831.21127	1.00203
829.28270	1.00580
827.35414	1.00951
825.42558	1.01282
823.49701	1.01607
821.56845	1.02040
819.63988	1.02582
817.71132	1.03147
815.78275	1.03631
813.85419	1.03900
811.92562	1.03970
809.99706	1.03975
808.06850	1.03822
806.13993	1.03397
804.21137	1.02825
802.28280	1.02198
800.35424	1.01603
798.42567	1.01210
796.49711	1.01042
794.56854	1.00969
792.63998	1.00950
790.71142	1.01157
788.78285	1.01702
786.85429	1.02415
784.92572	1.03076
782.99716	1.03658
781.06859	1.04310
779.14003	1.05136
777.21147	1.05995
775.28290	1.06764
773.35434	1.07543
771.42577	1.08333
769.49721	1.08906
767.56864	1.09217
765.64008	1.09537
763.71151	1.09879
761.78295	1.10016
759.85439	1.09995
757.92582	1.10005
755.99726	1.10179
754.06869	1.10509
752.14013	1.10851
750.21156	1.11202
748.28300	1.11644
746.35443	1.12076
744.42587	1.12388
742.49731	1.12729
740.56874	1.13293
738.64018	1.14035
736.71161	1.14695
734.78305	1.14995
732.85448	1.15024
730.92592	1.15079
728.99735	1.15145
727.06879	1.15073
725.14023	1.14868
723.21166	1.14670
721.28310	1.14591
719.35453	1.14506
717.42597	1.14254
715.49740	1.13882
713.56884	1.13511
711.64027	1.13235
709.71171	1.13107
707.78315	1.13189
705.85458	1.13473
703.92602	1.13849
701.99745	1.14273
700.06889	1.14761
698.14032	1.15348
696.21176	1.16112
694.28319	1.16965
692.35463	1.17618
690.42607	1.17891
688.49750	1.18053
686.56894	1.18443
684.64037	1.18731
682.71181	1.18546
680.78324	1.18093
678.85468	1.17650
676.92611	1.17451
674.99755	1.17418
673.06899	1.17241
671.14042	1.17055
669.21186	1.16968
667.28329	1.16871
665.35473	1.17107
663.42616	1.17786
661.49760	1.18813
659.56903	1.19977
657.64047	1.21233
655.71191	1.22564
653.78334	1.23546
651.85478	1.23959
649.92621	1.24211
647.99765	1.24413
646.06908	1.24284
644.14052	1.23953
642.21195	1.23501
640.28339	1.22664
638.35483	1.21551
636.42626	1.20421
634.49770	1.19366
632.56913	1.18507
630.64057	1.17577
628.71200	1.16383
626.78344	1.15288
624.85488	1.14639
622.92631	1.14604
620.99775	1.15156
619.06918	1.16070
617.14062	1.17149
615.21205	1.18318
613.28349	1.19497
611.35492	1.20626
609.42636	1.21897
607.49780	1.23061
605.56923	1.23425
603.64067	1.23287
601.71210	1.23449
599.78354	1.23902
