3997.91406	0.62955
3995.98550	0.63053
3994.05693	0.63127
3992.12837	0.63045
3990.19980	0.62876
3988.27124	0.62736
3986.34268	0.62648
3984.41411	0.62585
3982.48555	0.62613
3980.55698	0.62666
3978.62842	0.62540
3976.69985	0.62323
3974.77129	0.62151
3972.84272	0.62025
3970.91416	0.62063
3968.98560	0.62134
3967.05703	0.61903
3965.12847	0.61562
3963.19990	0.61512
3961.27134	0.61602
3959.34277	0.61583
3957.41421	0.61602
3955.48564	0.61686
3953.55708	0.61687
3951.62852	0.61611
3949.69995	0.61561
3947.77139	0.61539
3945.84282	0.61452
3943.91426	0.61327
3941.98569	0.61263
3940.05713	0.61229
3938.12856	0.61155
3936.20000	0.61079
3934.27144	0.61052
3932.34287	0.60980
3930.41431	0.60835
3928.48574	0.60785
3926.55718	0.60881
3924.62861	0.61042
3922.70005	0.61097
3920.77148	0.61004
3918.84292	0.60925
3916.91436	0.60919
3914.98579	0.60862
3913.05723	0.60788
3911.12866	0.60752
3909.20010	0.60655
3907.27153	0.60452
3905.34297	0.60275
3903.41440	0.60311
3901.48584	0.60465
3899.55728	0.60568
3897.62871	0.60564
3895.70015	0.60407
3893.77158	0.60225
3891.84302	0.60190
3889.91445	0.60195
3887.98589	0.60213
3886.05733	0.60464
3884.12876	0.60695
3882.20020	0.60584
3880.27163	0.60442
3878.34307	0.60328
3876.41450	0.60177
3874.48594	0.60247
3872.55737	0.60665
3870.62881	0.61068
3868.70025	0.60973
3866.77168	0.60584
3864.84312	0.60279
3862.91455	0.60073
3860.98599	0.59836
3859.05742	0.59629
3857.12886	0.59608
3855.20029	0.60006
3853.27173	0.60796
3851.34317	0.60860
3849.41460	0.60497
3847.48604	0.60135
3845.55747	0.59843
3843.62891	0.59730
3841.70034	0.59853
3839.77178	0.60077
3837.84321	0.60151
3835.91465	0.60029
3833.98609	0.59947
3832.05752	0.59931
3830.12896	0.59824
3828.20039	0.59635
3826.27183	0.59506
3824.34326	0.59442
3822.41470	0.59546
3820.48613	0.59781
3818.55757	0.59659
3816.62901	0.59451
3814.70044	0.59424
3812.77188	0.59368
3810.84331	0.59189
3808.91475	0.59018
3806.98618	0.58994
3805.05762	0.58925
3803.12905	0.58860
3801.20049	0.58964
3799.27193	0.58901
3797.34336	0.58828
3795.41480	0.58878
3793.48623	0.58824
3791.55767	0.58712
3789.62910	0.58632
3787.70054	0.58514
3785.77197	0.58382
3783.84341	0.58272
3781.91485	0.58146
3779.98628	0.58141
3778.05772	0.58266
3776.12915	0.58292
3774.20059	0.58225
3772.27202	0.58178
3770.34346	0.58202
3768.41489	0.58161
3766.48633	0.58028
3764.55777	0.57919
3762.62920	0.57791
3760.70064	0.57736
3758.77207	0.57828
3756.84351	0.57811
3754.91494	0.57699
3752.98638	0.57703
3751.05781	0.57927
3749.12925	0.57987
3747.20069	0.57846
3745.27212	0.57874
3743.34356	0.57826
3741.41499	0.57458
3739.48643	0.57140
3737.55786	0.57114
3735.62930	0.57363
3733.70074	0.57732
3731.77217	0.57937
3729.84361	0.57833
3727.91504	0.57625
3725.98648	0.57515
3724.05791	0.57510
3722.12935	0.57498
3720.20078	0.57445
3718.27222	0.57359
3716.34366	0.57232
3714.41509	0.57146
3712.48653	0.57232
3710.55796	0.57443
3708.62940	0.57514
3706.70083	0.57493
3704.77227	0.57559
3702.84370	0.57820
3700.91514	0.58002
3698.98658	0.57875
3697.05801	0.57742
3695.12945	0.57749
3693.20088	0.57783
3691.27232	0.57838
3689.34375	0.58076
3687.41519	0.58369
3685.48662	0.58507
3683.55806	0.58560
3681.62950	0.58586
3679.70093	0.58629
3677.77237	0.58914
3675.84380	0.59665
3673.91524	0.60114
3671.98667	0.60272
3670.05811	0.60778
3668.12954	0.61163
3666.20098	0.61256
3664.27242	0.61439
3662.34385	0.61757
3660.41529	0.62055
3658.48672	0.62286
3656.55816	0.62685
3654.62959	0.63148
3652.70103	0.63470
3650.77246	0.64145
3648.84390	0.65460
3646.91534	0.66022
3644.98677	0.66165
3643.05821	0.66490
3641.12964	0.66961
3639.20108	0.67383
3637.27251	0.67783
3635.34395	0.68327
3633.41538	0.68922
3631.48682	0.69359
3629.55826	0.69970
3627.62969	0.70965
3625.70113	0.71609
3623.77256	0.71962
3621.84400	0.72361
3619.91543	0.73114
3617.98687	0.73831
3616.05830	0.74247
3614.12974	0.74874
3612.20118	0.75613
3610.27261	0.76214
3608.34405	0.76995
3606.41548	0.77879
3604.48692	0.78476
3602.55835	0.79016
3600.62979	0.79864
3598.70123	0.80837
3596.77266	0.81576
3594.84410	0.82234
3592.91553	0.82869
3590.98697	0.83291
3589.05840	0.83801
3587.12984	0.84766
3585.20127	0.85637
3583.27271	0.86304
3581.34415	0.87160
3579.41558	0.88153
3577.48702	0.89024
3575.55845	0.89805
3573.62989	0.90580
3571.70132	0.91311
3569.77276	0.92035
3567.84419	0.93001
3565.91563	0.94097
3563.98707	0.94882
3562.05850	0.95652
3560.12994	0.96469
3558.20137	0.97125
3556.27281	0.97704
3554.34424	0.98527
3552.41568	0.99588
3550.48711	1.00422
3548.55855	1.01074
3546.62999	1.01923
3544.70142	1.02860
3542.77286	1.03577
3540.84429	1.04200
3538.91573	1.04943
3536.98716	1.05877
3535.05860	1.06910
3533.13003	1.07742
3531.20147	1.08294
3529.27291	1.08823
3527.34434	1.09406
3525.41578	1.09969
3523.48721	1.10826
3521.55865	1.12017
3519.63008	1.13106
3517.70152	1.14072
3515.77295	1.15042
3513.84439	1.15950
3511.91583	1.16743
3509.98726	1.17574
3508.05870	1.18593
3506.13013	1.19672
3504.20157	1.20698
3502.27300	1.21456
3500.34444	1.21969
3498.41587	1.22576
3496.48731	1.23592
3494.55875	1.25131
3492.63018	1.26546
3490.70162	1.27270
3488.77305	1.27709
3486.84449	1.28429
3484.91592	1.29369
3482.98736	1.30290
3481.05879	1.30962
3479.13023	1.31328
3477.20167	1.31818
3475.27310	1.32505
3473.34454	1.33042
3471.41597	1.33348
3469.48741	1.33688
3467.55884	1.34364
3465.63028	1.35167
3463.70171	1.35616
3461.77315	1.35760
3459.84459	1.35990
3457.91602	1.36371
3455.98746	1.36899
3454.05889	1.37511
3452.13033	1.37969
3450.20176	1.38330
3448.27320	1.38856
3446.34464	1.39664
3444.41607	1.40291
3442.48751	1.40319
3440.55894	1.40146
3438.63038	1.40267
3436.70181	1.40769
3434.77325	1.41511
3432.84468	1.42114
3430.91612	1.42307
3428.98756	1.42441
3427.05899	1.42560
3425.13043	1.42157
3423.20186	1.41632
3421.27330	1.41888
3419.34473	1.42681
3417.41617	1.42994
3415.48760	1.42929
3413.55904	1.42999
3411.63048	1.42855
3409.70191	1.42401
3407.77335	1.42046
3405.84478	1.42042
3403.91622	1.42461
3401.98765	1.42950
3400.05909	1.43110
3398.13052	1.43220
3396.20196	1.43545
3394.27340	1.43738
3392.34483	1.43923
3390.41627	1.44425
3388.48770	1.44789
3386.55914	1.44764
3384.63057	1.44744
3382.70201	1.44753
3380.77344	1.44370
3378.84488	1.43849
3376.91632	1.43779
3374.98775	1.44173
3373.05919	1.44822
3371.13062	1.45465
3369.20206	1.45672
3367.27349	1.45227
3365.34493	1.44654
3363.41636	1.44438
3361.48780	1.44377
3359.55924	1.44852
3357.63067	1.46242
3355.70211	1.47299
3353.77354	1.47023
3351.84498	1.46402
3349.91641	1.46475
3347.98785	1.47374
3346.05928	1.48444
3344.13072	1.48446
3342.20216	1.47759
3340.27359	1.47898
3338.34503	1.48502
3336.41646	1.48709
3334.48790	1.49201
3332.55933	1.50000
3330.63077	1.50400
3328.70220	1.51132
3326.77364	1.52422
3324.84508	1.52800
3322.91651	1.51970
3320.98795	1.51364
3319.05938	1.51947
3317.13082	1.53225
3315.20225	1.54335
3313.27369	1.55066
3311.34513	1.55080
3309.41656	1.54309
3307.48800	1.53661
3305.55943	1.53853
3303.63087	1.54850
3301.70230	1.56128
3299.77374	1.57107
3297.84517	1.57795
3295.91661	1.58186
3293.98805	1.58185
3292.05948	1.58293
3290.13092	1.58529
3288.20235	1.58423
3286.27379	1.58160
3284.34522	1.58133
3282.41666	1.58164
3280.48809	1.57970
3278.55953	1.57846
3276.63097	1.57692
3274.70240	1.57207
3272.77384	1.56682
3270.84527	1.56100
3268.91671	1.55475
3266.98814	1.55276
3265.05958	1.55308
3263.13101	1.54659
3261.20245	1.53371
3259.27389	1.52233
3257.34532	1.51349
3255.41676	1.50701
3253.48819	1.50182
3251.55963	1.49395
3249.63106	1.48534
3247.70250	1.47923
3245.77393	1.47299
3243.84537	1.46494
3241.91681	1.45806
3239.98824	1.45328
3238.05968	1.44704
3236.13111	1.43813
3234.20255	1.43266
3232.27398	1.43220
3230.34542	1.42887
3228.41685	1.41898
3226.48829	1.40554
3224.55973	1.39403
3222.63116	1.38888
3220.70260	1.38813
3218.77403	1.38739
3216.84547	1.38504
3214.91690	1.37976
3212.98834	1.37060
3211.05977	1.35915
3209.13121	1.34917
3207.20265	1.34454
3205.27408	1.34311
3203.34552	1.33999
3201.41695	1.33588
3199.48839	1.33286
3197.55982	1.33059
3195.63126	1.32743
3193.70269	1.32317
3191.77413	1.31970
3189.84557	1.31689
3187.91700	1.31330
3185.98844	1.30751
3184.05987	1.30014
3182.13131	1.29341
3180.20274	1.28712
3178.27418	1.28138
3176.34562	1.27692
3174.41705	1.27345
3172.48849	1.27098
3170.55992	1.26830
3168.63136	1.26444
3166.70279	1.25984
3164.77423	1.25353
3162.84566	1.24639
3160.91710	1.24215
3158.98854	1.23972
3157.05997	1.23560
3155.13141	1.23063
3153.20284	1.22715
3151.27428	1.22468
3149.34571	1.22139
3147.41715	1.21762
3145.48858	1.21348
3143.56002	1.20951
3141.63146	1.20805
3139.70289	1.20739
3137.77433	1.20546
3135.84576	1.20395
3133.91720	1.20293
3131.98863	1.20034
3130.06007	1.19638
3128.13150	1.19436
3126.20294	1.19490
3124.27438	1.19484
3122.34581	1.19352
3120.41725	1.19239
3118.48868	1.19104
3116.56012	1.18839
3114.63155	1.18543
3112.70299	1.18463
3110.77442	1.18631
3108.84586	1.18748
3106.91730	1.18569
3104.98873	1.18298
3103.06017	1.18236
3101.13160	1.18191
3099.20304	1.17962
3097.27447	1.17803
3095.34591	1.17755
3093.41734	1.17575
3091.48878	1.17191
3089.56022	1.16683
3087.63165	1.16209
3085.70309	1.15904
3083.77452	1.15766
3081.84596	1.15688
3079.91739	1.15555
3077.98883	1.15264
3076.06026	1.14922
3074.13170	1.14757
3072.20314	1.14593
3070.27457	1.14156
3068.34601	1.13565
3066.41744	1.13059
3064.48888	1.12664
3062.56031	1.12301
3060.63175	1.11967
3058.70318	1.11584
3056.77462	1.11199
3054.84606	1.10907
3052.91749	1.10560
3050.98893	1.10135
3049.06036	1.09696
3047.13180	1.09262
3045.20323	1.08916
3043.27467	1.08510
3041.34610	1.07876
3039.41754	1.07271
3037.48898	1.07002
3035.56041	1.06880
3033.63185	1.06482
3031.70328	1.05866
3029.77472	1.05439
3027.84615	1.05182
3025.91759	1.04823
3023.98903	1.04307
3022.06046	1.03723
3020.13190	1.03259
3018.20333	1.03007
3016.27477	1.02898
3014.34620	1.02802
3012.41764	1.02515
3010.48907	1.02132
3008.56051	1.01883
3006.63195	1.01734
3004.70338	1.01687
3002.77482	1.01693
3000.84625	1.01631
2998.91769	1.01604
2996.98912	1.01600
2995.06056	1.01518
2993.13199	1.01568
2991.20343	1.01892
2989.27487	1.02268
2987.34630	1.02629
2985.41774	1.03133
2983.48917	1.03685
2981.56061	1.04134
2979.63204	1.04609
2977.70348	1.05215
2975.77491	1.05896
2973.84635	1.06660
2971.91779	1.07508
2969.98922	1.08324
2968.06066	1.09017
2966.13209	1.09552
2964.20353	1.09918
2962.27496	1.10133
2960.34640	1.10166
2958.41783	1.09970
2956.48927	1.09537
2954.56071	1.08965
2952.63214	1.08451
2950.70358	1.08113
2948.77501	1.07929
2946.84645	1.07877
2944.91788	1.08056
2942.98932	1.08530
2941.06075	1.09315
2939.13219	1.10425
2937.20363	1.11510
2935.27506	1.12171
2933.34650	1.12646
2931.41793	1.13273
2929.48937	1.13902
2927.56080	1.14306
2925.63224	1.14592
2923.70367	1.14837
2921.77511	1.14957
2919.84655	1.15021
2917.91798	1.14871
2915.98942	1.14019
2914.06085	1.12386
2912.13229	1.10571
2910.20372	1.09114
2908.27516	1.07956
2906.34659	1.06962
2904.41803	1.06203
2902.48947	1.05710
2900.56090	1.05416
2898.63234	1.05206
2896.70377	1.05054
2894.77521	1.04887
2892.84664	1.04517
2890.91808	1.03976
2888.98952	1.03514
2887.06095	1.03259
2885.13239	1.03161
2883.20382	1.03184
2881.27526	1.03268
2879.34669	1.03262
2877.41813	1.03185
2875.48956	1.03127
2873.56100	1.02944
2871.63244	1.02434
2869.70387	1.01662
2867.77531	1.00933
2865.84674	1.00368
2863.91818	0.99853
2861.98961	0.99486
2860.06105	0.99398
2858.13248	0.99463
2856.20392	0.99621
2854.27536	0.99984
2852.34679	1.00541
2850.41823	1.00803
2848.48966	0.99988
2846.56110	0.98092
2844.63253	0.95986
2842.70397	0.94257
2840.77540	0.92971
2838.84684	0.92074
2836.91828	0.91416
2834.98971	0.90827
2833.06115	0.90235
2831.13258	0.89656
2829.20402	0.89188
2827.27545	0.88848
2825.34689	0.88507
2823.41832	0.88121
2821.48976	0.87733
2819.56120	0.87354
2817.63263	0.87017
2815.70407	0.86724
2813.77550	0.86444
2811.84694	0.86175
2809.91837	0.85885
2807.98981	0.85569
2806.06124	0.85297
2804.13268	0.85059
2802.20412	0.84750
2800.27555	0.84366
2798.34699	0.84008
2796.41842	0.83721
2794.48986	0.83492
2792.56129	0.83286
2790.63273	0.83066
2788.70416	0.82810
2786.77560	0.82551
2784.84704	0.82381
2782.91847	0.82289
2780.98991	0.82149
2779.06134	0.81939
2777.13278	0.81719
2775.20421	0.81487
2773.27565	0.81279
2771.34708	0.81176
2769.41852	0.81117
2767.48996	0.80987
2765.56139	0.80807
2763.63283	0.80626
2761.70426	0.80449
2759.77570	0.80306
2757.84713	0.80189
2755.91857	0.80062
2753.99001	0.79950
2752.06144	0.79885
2750.13288	0.79852
2748.20431	0.79794
2746.27575	0.79681
2744.34718	0.79540
2742.41862	0.79397
2740.49005	0.79261
2738.56149	0.79101
2736.63293	0.78902
2734.70436	0.78722
2732.77580	0.78617
2730.84723	0.78568
2728.91867	0.78508
2726.99010	0.78382
2725.06154	0.78186
2723.13297	0.77992
2721.20441	0.77865
2719.27585	0.77738
2717.34728	0.77559
2715.41872	0.77396
2713.49015	0.77287
2711.56159	0.77130
2709.63302	0.76909
2707.70446	0.76744
2705.77589	0.76591
2703.84733	0.76357
2701.91877	0.76098
2699.99020	0.75856
2698.06164	0.75658
2696.13307	0.75537
2694.20451	0.75416
2692.27594	0.75236
2690.34738	0.75057
2688.41881	0.74882
2686.49025	0.74677
2684.56169	0.74510
2682.63312	0.74416
2680.70456	0.74304
2678.77599	0.74114
2676.84743	0.73915
2674.91886	0.73772
2672.99030	0.73638
2671.06173	0.73507
2669.13317	0.73410
2667.20461	0.73300
2665.27604	0.73164
2663.34748	0.73051
2661.41891	0.73007
2659.49035	0.73051
2657.56178	0.73099
2655.63322	0.73054
2653.70465	0.72947
2651.77609	0.72844
2649.84753	0.72751
2647.91896	0.72674
2645.99040	0.72608
2644.06183	0.72522
2642.13327	0.72447
2640.20470	0.72389
2638.27614	0.72280
2636.34757	0.72128
2634.41901	0.72022
2632.49045	0.71939
2630.56188	0.71779
2628.63332	0.71555
2626.70475	0.71365
2624.77619	0.71208
2622.84762	0.71045
2620.91906	0.70912
2618.99049	0.70820
2617.06193	0.70712
2615.13337	0.70552
2613.20480	0.70334
2611.27624	0.70109
2609.34767	0.69940
2607.41911	0.69788
2605.49054	0.69608
2603.56198	0.69449
2601.63342	0.69361
2599.70485	0.69298
2597.77629	0.69177
2595.84772	0.69014
2593.91916	0.68882
2591.99059	0.68780
2590.06203	0.68679
2588.13346	0.68594
2586.20490	0.68529
2584.27634	0.68438
2582.34777	0.68299
2580.41921	0.68168
2578.49064	0.68081
2576.56208	0.67992
2574.63351	0.67871
2572.70495	0.67761
2570.77638	0.67684
2568.84782	0.67611
2566.91926	0.67531
2564.99069	0.67444
2563.06213	0.67346
2561.13356	0.67232
2559.20500	0.67108
2557.27643	0.66970
2555.34787	0.66832
2553.41930	0.66760
2551.49074	0.66765
2549.56218	0.66734
2547.63361	0.66617
2545.70505	0.66475
2543.77648	0.66354
2541.84792	0.66286
2539.91935	0.66256
2537.99079	0.66210
2536.06222	0.66166
2534.13366	0.66130
2532.20510	0.66076
2530.27653	0.66019
2528.34797	0.66008
2526.41940	0.66060
2524.49084	0.66101
2522.56227	0.66083
2520.63371	0.66050
2518.70514	0.66046
2516.77658	0.66072
2514.84802	0.66088
2512.91945	0.66049
2510.99089	0.65980
2509.06232	0.65934
2507.13376	0.65920
2505.20519	0.65911
2503.27663	0.65894
2501.34806	0.65836
2499.41950	0.65695
2497.49094	0.65520
2495.56237	0.65380
2493.63381	0.65261
2491.70524	0.65120
2489.77668	0.64971
2487.84811	0.64843
2485.91955	0.64698
2483.99098	0.64516
2482.06242	0.64321
2480.13386	0.64119
2478.20529	0.63931
2476.27673	0.63765
2474.34816	0.63588
2472.41960	0.63412
2470.49103	0.63253
2468.56247	0.63093
2466.63391	0.62951
2464.70534	0.62835
2462.77678	0.62715
2460.84821	0.62578
2458.91965	0.62421
2456.99108	0.62255
2455.06252	0.62144
2453.13395	0.62120
2451.20539	0.62119
2449.27683	0.62087
2447.34826	0.62031
2445.41970	0.61951
2443.49113	0.61854
2441.56257	0.61762
2439.63400	0.61683
2437.70544	0.61601
2435.77687	0.61495
2433.84831	0.61378
2431.91975	0.61282
2429.99118	0.61194
2428.06262	0.61089
2426.13405	0.60966
2424.20549	0.60828
2422.27692	0.60676
2420.34836	0.60520
2418.41979	0.60360
2416.49123	0.60201
2414.56267	0.60060
2412.63410	0.59917
2410.70554	0.59756
2408.77697	0.59607
2406.84841	0.59488
2404.91984	0.59380
2402.99128	0.59287
2401.06271	0.59233
2399.13415	0.59198
2397.20559	0.59124
2395.27702	0.59017
2393.34846	0.58924
2391.41989	0.58885
2389.49133	0.58906
2387.56276	0.58933
2385.63420	0.58922
2383.70563	0.58906
2381.77707	0.58893
2379.84851	0.58844
2377.91994	0.58840
2375.99138	0.59040
2374.06281	0.59303
2372.13425	0.59264
2370.20568	0.58949
2368.27712	0.58733
2366.34855	0.58755
2364.41999	0.58987
2362.49143	0.59266
2360.56286	0.59405
2358.63430	0.59422
2356.70573	0.59176
2354.77717	0.58990
2352.84860	0.59015
2350.92004	0.58893
2348.99147	0.58699
2347.06291	0.58617
2345.13435	0.58633
2343.20578	0.58658
2341.27722	0.58602
2339.34865	0.58370
2337.42009	0.58174
2335.49152	0.58228
2333.56296	0.58346
2331.63440	0.58309
2329.70583	0.58178
2327.77727	0.58129
2325.84870	0.58187
2323.92014	0.58231
2321.99157	0.58188
2320.06301	0.58104
2318.13444	0.58045
2316.20588	0.58039
2314.27732	0.58059
2312.34875	0.58025
2310.42019	0.57931
2308.49162	0.57846
2306.56306	0.57778
2304.63449	0.57714
2302.70593	0.57666
2300.77736	0.57635
2298.84880	0.57596
2296.92024	0.57522
2294.99167	0.57424
2293.06311	0.57334
2291.13454	0.57250
2289.20598	0.57154
2287.27741	0.57054
2285.34885	0.56956
2283.42028	0.56824
2281.49172	0.56642
2279.56316	0.56479
2277.63459	0.56371
2275.70603	0.56263
2273.77746	0.56126
2271.84890	0.55981
2269.92033	0.55845
2267.99177	0.55731
2266.06320	0.55635
2264.13464	0.55527
2262.20608	0.55411
2260.27751	0.55319
2258.34895	0.55263
2256.42038	0.55229
2254.49182	0.55205
2252.56325	0.55199
2250.63469	0.55196
2248.70612	0.55183
2246.77756	0.55170
2244.84900	0.55168
2242.92043	0.55185
2240.99187	0.55211
2239.06330	0.55233
2237.13474	0.55242
2235.20617	0.55240
2233.27761	0.55241
2231.34904	0.55259
2229.42048	0.55278
2227.49192	0.55277
2225.56335	0.55260
2223.63479	0.55223
2221.70622	0.55167
2219.77766	0.55119
2217.84909	0.55087
2215.92053	0.55064
2213.99196	0.55030
2212.06340	0.54972
2210.13484	0.54909
2208.20627	0.54845
2206.27771	0.54779
2204.34914	0.54735
2202.42058	0.54710
2200.49201	0.54696
2198.56345	0.54692
2196.63488	0.54660
2194.70632	0.54598
2192.77776	0.54545
2190.84919	0.54516
2188.92063	0.54517
2186.99206	0.54546
2185.06350	0.54559
2183.13493	0.54547
2181.20637	0.54569
2179.27781	0.54632
2177.34924	0.54690
2175.42068	0.54723
2173.49211	0.54749
2171.56355	0.54779
2169.63498	0.54814
2167.70642	0.54865
2165.77785	0.54924
2163.84929	0.54968
2161.92073	0.54991
2159.99216	0.55009
2158.06360	0.55039
2156.13503	0.55060
2154.20647	0.55059
2152.27790	0.55069
2150.34934	0.55091
2148.42077	0.55081
2146.49221	0.55025
2144.56365	0.54969
2142.63508	0.54958
2140.70652	0.54939
2138.77795	0.54852
2136.84939	0.54751
2134.92082	0.54700
2132.99226	0.54645
2131.06369	0.54570
2129.13513	0.54516
2127.20657	0.54464
2125.27800	0.54405
2123.34944	0.54350
2121.42087	0.54276
2119.49231	0.54191
2117.56374	0.54132
2115.63518	0.54094
2113.70661	0.54054
2111.77805	0.54003
2109.84949	0.53938
2107.92092	0.53861
2105.99236	0.53787
2104.06379	0.53732
2102.13523	0.53682
2100.20666	0.53630
2098.27810	0.53599
2096.34953	0.53584
2094.42097	0.53557
2092.49241	0.53522
2090.56384	0.53484
2088.63528	0.53438
2086.70671	0.53408
2084.77815	0.53396
2082.84958	0.53368
2080.92102	0.53309
2078.99245	0.53236
2077.06389	0.53178
2075.13533	0.53141
2073.20676	0.53094
2071.27820	0.53034
2069.34963	0.52971
2067.42107	0.52906
2065.49250	0.52850
2063.56394	0.52806
2061.63537	0.52741
2059.70681	0.52655
2057.77825	0.52588
2055.84968	0.52543
2053.92112	0.52502
2051.99255	0.52468
2050.06399	0.52412
2048.13542	0.52289
2046.20686	0.52141
2044.27830	0.52049
2042.34973	0.51986
2040.42117	0.51889
2038.49260	0.51781
2036.56404	0.51717
2034.63547	0.51678
2032.70691	0.51637
2030.77834	0.51603
2028.84978	0.51567
2026.92122	0.51531
2024.99265	0.51513
2023.06409	0.51512
2021.13552	0.51503
2019.20696	0.51478
2017.27839	0.51470
2015.34983	0.51486
2013.42126	0.51508
2011.49270	0.51535
2009.56414	0.51560
2007.63557	0.51569
2005.70701	0.51574
2003.77844	0.51594
2001.84988	0.51611
1999.92131	0.51592
1997.99275	0.51552
1996.06418	0.51512
1994.13562	0.51483
1992.20706	0.51490
1990.27849	0.51505
1988.34993	0.51472
1986.42136	0.51412
1984.49280	0.51368
1982.56423	0.51337
1980.63567	0.51302
1978.70710	0.51270
1976.77854	0.51238
1974.84998	0.51188
1972.92141	0.51109
1970.99285	0.51001
1969.06428	0.50903
1967.13572	0.50840
1965.20715	0.50770
1963.27859	0.50679
1961.35002	0.50605
1959.42146	0.50559
1957.49290	0.50502
1955.56433	0.50418
1953.63577	0.50344
1951.70720	0.50313
1949.77864	0.50310
1947.85007	0.50298
1945.92151	0.50262
1943.99294	0.50235
1942.06438	0.50251
1940.13582	0.50252
1938.20725	0.50209
1936.27869	0.50171
1934.35012	0.50159
1932.42156	0.50155
1930.49299	0.50147
1928.56443	0.50138
1926.63586	0.50137
1924.70730	0.50136
1922.77874	0.50127
1920.85017	0.50091
1918.92161	0.50047
1916.99304	0.50033
1915.06448	0.50024
1913.13591	0.49993
1911.20735	0.49951
1909.27878	0.49909
1907.35022	0.49874
1905.42166	0.49833
1903.49309	0.49766
1901.56453	0.49687
1899.63596	0.49625
1897.70740	0.49570
1895.77883	0.49513
1893.85027	0.49440
1891.92171	0.49335
1889.99314	0.49240
1888.06458	0.49202
1886.13601	0.49189
1884.20745	0.49146
1882.27888	0.49077
1880.35032	0.49014
1878.42175	0.48974
1876.49319	0.48957
1874.56463	0.48958
1872.63606	0.48951
1870.70750	0.48936
1868.77893	0.48967
1866.85037	0.49033
1864.92180	0.49054
1862.99324	0.49047
1861.06467	0.49050
1859.13611	0.49077
1857.20755	0.49125
1855.27898	0.49192
1853.35042	0.49265
1851.42185	0.49318
1849.49329	0.49341
1847.56472	0.49339
1845.63616	0.49371
1843.70759	0.49478
1841.77903	0.49547
1839.85047	0.49551
1837.92190	0.49560
1835.99334	0.49576
1834.06477	0.49557
1832.13621	0.49505
1830.20764	0.49478
1828.27908	0.49510
1826.35051	0.49544
1824.42195	0.49554
1822.49339	0.49544
1820.56482	0.49523
1818.63626	0.49508
1816.70769	0.49492
1814.77913	0.49468
1812.85056	0.49458
1810.92200	0.49495
1808.99343	0.49558
1807.06487	0.49590
1805.13631	0.49595
1803.20774	0.49622
1801.27918	0.49708
1799.35061	0.49818
1797.42205	0.49906
1795.49348	0.49970
1793.56492	0.50060
1791.63635	0.50269
1789.70779	0.50462
1787.77923	0.50569
1785.85066	0.50694
1783.92210	0.50868
1781.99353	0.51038
1780.06497	0.51198
1778.13640	0.51360
1776.20784	0.51505
1774.27927	0.51643
1772.35071	0.51838
1770.42215	0.52044
1768.49358	0.52194
1766.56502	0.52317
1764.63645	0.52417
1762.70789	0.52556
1760.77932	0.52777
1758.85076	0.53018
1756.92220	0.53341
1754.99363	0.53693
1753.06507	0.54014
1751.13650	0.54509
1749.20794	0.55258
1747.27937	0.55938
1745.35081	0.56443
1743.42224	0.56871
1741.49368	0.57299
1739.56512	0.57754
1737.63655	0.58084
1735.70799	0.58325
1733.77942	0.58830
1731.85086	0.59406
1729.92229	0.59864
1727.99373	0.60363
1726.06516	0.60892
1724.13660	0.61541
1722.20804	0.62209
1720.27947	0.62781
1718.35091	0.63614
1716.42234	0.65097
1714.49378	0.66365
1712.56521	0.67322
1710.63665	0.68338
1708.70808	0.69485
1706.77952	0.71139
1704.85096	0.73348
1702.92239	0.75361
1700.99383	0.78298
1699.06526	0.83206
1697.13670	0.88145
1695.20813	0.93127
1693.27957	0.96725
1691.35100	0.99501
1689.42244	1.02977
1687.49388	1.06368
1685.56531	1.09944
1683.63675	1.15900
1681.70818	1.20500
1679.77962	1.23267
1677.85105	1.25866
1675.92249	1.28806
1673.99392	1.31808
1672.06536	1.34111
1670.13680	1.36767
1668.20823	1.39678
1666.27967	1.41248
1664.35110	1.42636
1662.42254	1.44604
1660.49397	1.46114
1658.56541	1.46864
1656.63684	1.47324
1654.70828	1.47966
1652.77972	1.48569
1650.85115	1.48156
1648.92259	1.47657
1646.99402	1.47611
1645.06546	1.47831
1643.13689	1.47645
1641.20833	1.47355
1639.27976	1.46977
1637.35120	1.46614
1635.42264	1.46615
1633.49407	1.46510
1631.56551	1.46123
1629.63694	1.45407
1627.70838	1.44247
1625.77981	1.42718
1623.85125	1.40787
1621.92269	1.38818
1619.99412	1.37334
1618.06556	1.35348
1616.13699	1.31839
1614.20843	1.28799
1612.27986	1.26464
1610.35130	1.23927
1608.42273	1.21241
1606.49417	1.18938
1604.56561	1.17163
1602.63704	1.15710
1600.70848	1.14530
1598.77991	1.13672
1596.85135	1.13088
1594.92278	1.12652
1592.99422	1.12378
1591.06565	1.12367
1589.13709	1.12618
1587.20853	1.13094
1585.27996	1.13782
1583.35140	1.14730
1581.42283	1.15840
1579.49427	1.16899
1577.56570	1.18281
1575.63714	1.20477
1573.70857	1.22053
1571.78001	1.23030
1569.85145	1.24478
1567.92288	1.26164
1565.99432	1.27520
1564.06575	1.28779
1562.13719	1.29696
1560.20862	1.30747
1558.28006	1.33127
1556.35149	1.34050
1554.42293	1.34140
1552.49437	1.34194
1550.56580	1.34072
1548.63724	1.33762
1546.70867	1.33506
1544.78011	1.33441
1542.85154	1.33498
1540.92298	1.33207
1538.99441	1.32264
1537.06585	1.31623
1535.13729	1.31068
1533.20872	1.30321
1531.28016	1.29537
1529.35159	1.28909
1527.42303	1.28328
1525.49446	1.27813
1523.56590	1.27415
1521.63733	1.26848
1519.70877	1.26243
1517.78021	1.25480
1515.85164	1.24240
1513.92308	1.22760
1511.99451	1.21023
1510.06595	1.19018
1508.13738	1.16214
1506.20882	1.12453
1504.28025	1.10531
1502.35169	1.09134
1500.42313	1.07530
1498.49456	1.05646
1496.56600	1.03565
1494.63743	1.01948
1492.70887	1.00790
1490.78030	0.99559
1488.85174	0.98231
1486.92317	0.97360
1484.99461	0.96852
1483.06605	0.96640
1481.13748	0.96763
1479.20892	0.97127
1477.28035	0.97716
1475.35179	0.98660
1473.42322	1.00333
1471.49466	1.02352
1469.56610	1.03477
1467.63753	1.04116
1465.70897	1.04900
1463.78040	1.05814
1461.85184	1.06368
1459.92327	1.06749
1457.99471	1.07454
1456.06614	1.08025
1454.13758	1.07935
1452.20902	1.07747
1450.28045	1.07543
1448.35189	1.07207
1446.42332	1.06658
1444.49476	1.05993
1442.56619	1.05298
1440.63763	1.04628
1438.70906	1.03893
1436.78050	1.02904
1434.85194	1.01942
1432.92337	1.01203
1430.99481	1.00509
1429.06624	0.99971
1427.13768	0.99745
1425.20911	0.99706
1423.28055	0.99721
1421.35198	0.99782
1419.42342	1.00101
1417.49486	1.00650
1415.56629	1.00952
1413.63773	1.01104
1411.70916	1.01314
1409.78060	1.01567
1407.85203	1.01781
1405.92347	1.02071
1403.99490	1.02483
1402.06634	1.02836
1400.13778	1.03172
1398.20921	1.03538
1396.28065	1.03878
1394.35208	1.04305
1392.42352	1.04748
1390.49495	1.05118
1388.56639	1.05656
1386.63782	1.06599
1384.70926	1.07645
1382.78070	1.08533
1380.85213	1.09141
1378.92357	1.09307
1376.99500	1.09046
1375.06644	1.08298
1373.13787	1.07116
1371.20931	1.05868
1369.28074	1.04506
1367.35218	1.03086
1365.42362	1.01852
1363.49505	1.00622
1361.56649	0.99382
1359.63792	0.98438
1357.70936	0.97741
1355.78079	0.97182
1353.85223	0.96754
1351.92366	0.96434
1349.99510	0.96148
1348.06654	0.95886
1346.13797	0.95686
1344.20941	0.95540
1342.28084	0.95454
1340.35228	0.95508
1338.42371	0.95715
1336.49515	0.95987
1334.56659	0.96373
1332.63802	0.96948
1330.70946	0.97624
1328.78089	0.98223
1326.85233	0.98676
1324.92376	0.98999
1322.99520	0.99217
1321.06663	0.99409
1319.13807	0.99672
1317.20951	0.99977
1315.28094	1.00199
1313.35238	1.00309
1311.42381	1.00365
1309.49525	1.00370
1307.56668	1.00251
1305.63812	1.00027
1303.70955	0.99811
1301.78099	0.99583
1299.85243	0.99218
1297.92386	0.98673
1295.99530	0.98044
1294.06673	0.97486
1292.13817	0.97097
1290.20960	0.96833
1288.28104	0.96598
1286.35247	0.96378
1284.42391	0.96189
1282.49535	0.96008
1280.56678	0.95843
1278.63822	0.95786
1276.70965	0.95861
1274.78109	0.95993
1272.85252	0.96196
1270.92396	0.96581
1268.99539	0.97118
1267.06683	0.97664
1265.13827	0.98194
1263.20970	0.98757
1261.28114	0.99288
1259.35257	0.99673
1257.42401	0.99957
1255.49544	1.00291
1253.56688	1.00699
1251.63831	1.01111
1249.70975	1.01534
1247.78119	1.01991
1245.85262	1.02399
1243.92406	1.02697
1241.99549	1.02960
1240.06693	1.03168
1238.13836	1.03185
1236.20980	1.03022
1234.28123	1.02803
1232.35267	1.02528
1230.42411	1.02094
1228.49554	1.01431
1226.56698	1.00586
1224.63841	0.99701
1222.70985	0.98815
1220.78128	0.97846
1218.85272	0.96847
1216.92415	0.95990
1214.99559	0.95331
1213.06703	0.94817
1211.13846	0.94432
1209.20990	0.94173
1207.28133	0.93914
1205.35277	0.93431
1203.42420	0.92626
1201.49564	0.91630
1199.56708	0.90623
1197.63851	0.89653
1195.70995	0.88716
1193.78138	0.87835
1191.85282	0.87056
1189.92425	0.86400
1187.99569	0.85905
1186.06712	0.85620
1184.13856	0.85536
1182.21000	0.85668
1180.28143	0.86069
1178.35287	0.86715
1176.42430	0.87556
1174.49574	0.88562
1172.56717	0.89654
1170.63861	0.90828
1168.71004	0.92237
1166.78148	0.93953
1164.85292	0.95862
1162.92435	0.97795
1160.99579	0.99575
1159.06722	1.00948
1157.13866	1.01678
1155.21009	1.01705
1153.28153	1.01115
1151.35296	1.00132
1149.42440	0.99041
1147.49584	0.98016
1145.56727	0.97142
1143.63871	0.96466
1141.71014	0.96016
1139.78158	0.95822
1137.85301	0.95881
1135.92445	0.96211
1133.99588	0.96856
1132.06732	0.97813
1130.13876	0.99007
1128.21019	1.00327
1126.28163	1.01724
1124.35306	1.03149
1122.42450	1.04500
1120.49593	1.05757
1118.56737	1.06933
1116.63880	1.07886
1114.71024	1.08464
1112.78168	1.08666
1110.85311	1.08582
1108.92455	1.08406
1106.99598	1.08330
1105.06742	1.08268
1103.13885	1.08073
1101.21029	1.07827
1099.28172	1.07718
1097.35316	1.07913
1095.42460	1.08418
1093.49603	1.09133
1091.56747	1.10149
1089.63890	1.11649
1087.71034	1.13587
1085.78177	1.15693
1083.85321	1.17731
1081.92464	1.19559
1079.99608	1.20891
1078.06752	1.21429
1076.13895	1.21200
1074.21039	1.20391
1072.28182	1.19152
1070.35326	1.17653
1068.42469	1.16156
1066.49613	1.14892
1064.56756	1.13932
1062.63900	1.13208
1060.71044	1.12600
1058.78187	1.12000
1056.85331	1.11381
1054.92474	1.10816
1052.99618	1.10379
1051.06761	1.10096
1049.13905	1.09966
1047.21049	1.09982
1045.28192	1.10194
1043.35336	1.10682
1041.42479	1.11330
1039.49623	1.11874
1037.56766	1.12240
1035.63910	1.12505
1033.71053	1.12668
1031.78197	1.12615
1029.85341	1.12244
1027.92484	1.11651
1025.99628	1.10955
1024.06771	1.10145
1022.13915	1.09347
1020.21058	1.08749
1018.28202	1.08231
1016.35345	1.07564
1014.42489	1.06769
1012.49633	1.05939
1010.56776	1.05009
1008.63920	1.03892
1006.71063	1.02655
1004.78207	1.01464
1002.85350	1.00473
1000.92494	0.99789
998.99637	0.99380
997.06781	0.99141
995.13925	0.98988
993.21068	0.98740
991.28212	0.98212
989.35355	0.97397
987.42499	0.96354
985.49642	0.95143
983.56786	0.93856
981.63929	0.92593
979.71073	0.91419
977.78217	0.90336
975.85360	0.89285
973.92504	0.88174
971.99647	0.86962
970.06791	0.85685
968.13934	0.84376
966.21078	0.83096
964.28221	0.81989
962.35365	0.81202
960.42509	0.80827
958.49652	0.80868
956.56796	0.81095
954.63939	0.81101
952.71083	0.80659
950.78226	0.79827
948.85370	0.78788
946.92513	0.77776
944.99657	0.76945
943.06801	0.76310
941.13944	0.75826
939.21088	0.75437
937.28231	0.75095
935.35375	0.74814
933.42518	0.74640
931.49662	0.74602
929.56805	0.74683
927.63949	0.74812
925.71093	0.74984
923.78236	0.75210
921.85380	0.75426
919.92523	0.75606
917.99667	0.75756
916.06810	0.75832
914.13954	0.75810
912.21098	0.75762
910.28241	0.75781
908.35385	0.75900
906.42528	0.76106
904.49672	0.76351
902.56815	0.76592
900.63959	0.76809
898.71102	0.76922
896.78246	0.76866
894.85390	0.76676
892.92533	0.76396
890.99677	0.76055
889.06820	0.75702
887.13964	0.75375
885.21107	0.75123
883.28251	0.75023
881.35394	0.75068
879.42538	0.75188
877.49682	0.75375
875.56825	0.75619
873.63969	0.75859
871.71112	0.76120
869.78256	0.76506
867.85399	0.76992
865.92543	0.77481
863.99686	0.77997
862.06830	0.78590
860.13974	0.79232
858.21117	0.79870
856.28261	0.80507
854.35404	0.81127
852.42548	0.81628
850.49691	0.81958
848.56835	0.82192
846.63978	0.82362
844.71122	0.82423
842.78266	0.82364
840.85409	0.82184
838.92553	0.81900
836.99696	0.81550
835.06840	0.81152
833.13983	0.80742
831.21127	0.80327
829.28270	0.79881
827.35414	0.79436
825.42558	0.78947
823.49701	0.78367
821.56845	0.77849
819.63988	0.77483
817.71132	0.77162
815.78275	0.76839
813.85419	0.76579
811.92562	0.76429
809.99706	0.76369
808.06850	0.76324
806.13993	0.76259
804.21137	0.76223
802.28280	0.76221
800.35424	0.76257
798.42567	0.76400
796.49711	0.76690
794.56854	0.77066
792.63998	0.77430
790.71142	0.77830
788.78285	0.78412
786.85429	0.79162
784.92572	0.79923
782.99716	0.80681
781.06859	0.81544
779.14003	0.82492
777.21147	0.83417
775.28290	0.84245
773.35434	0.84953
771.42577	0.85585
769.49721	0.86199
767.56864	0.86793
765.64008	0.87314
763.71151	0.87681
761.78295	0.87836
759.85439	0.87860
757.92582	0.87945
755.99726	0.88152
754.06869	0.88390
752.14013	0.88600
750.21156	0.88764
748.28300	0.88810
746.35443	0.88775
744.42587	0.88855
742.49731	0.89083
740.56874	0.89276
738.64018	0.89381
736.71161	0.89536
734.78305	0.89799
732.85448	0.90169
730.92592	0.90620
728.99735	0.91063
727.06879	0.91570
725.14023	0.92291
723.21166	0.93159
721.28310	0.94018
719.35453	0.94799
717.42597	0.95492
715.49740	0.96117
713.56884	0.96723
711.64027	0.97330
709.71171	0.97850
707.78315	0.98288
705.85458	0.98735
703.92602	0.98991
701.99745	0.98855
700.06889	0.98471
698.14032	0.97955
696.21176	0.97331
694.28319	0.96714
692.35463	0.96063
690.42607	0.95201
688.49750	0.94240
686.56894	0.93295
684.64037	0.92249
682.71181	0.91184
680.78324	0.90227
678.85468	0.89338
676.92611	0.88519
674.99755	0.87725
673.06899	0.87008
671.14042	0.86436
669.21186	0.85739
667.28329	0.84947
665.35473	0.84596
663.42616	0.84436
661.49760	0.84354
659.56903	0.84328
657.64047	0.84270
655.71191	0.84294
653.78334	0.84527
651.85478	0.84838
649.92621	0.85205
647.99765	0.85724
646.06908	0.86309
644.14052	0.86911
642.21195	0.87640
640.28339	0.88531
638.35483	0.89443
636.42626	0.90312
634.49770	0.91197
632.56913	0.92047
630.64057	0.92736
628.71200	0.93300
626.78344	0.93897
624.85488	0.94562
622.92631	0.95310
620.99775	0.96079
619.06918	0.96593
617.14062	0.96716
615.21205	0.96667
613.28349	0.96666
611.35492	0.96622
609.42636	0.96300
607.49780	0.95763
605.56923	0.95306
603.64067	0.94885
601.71210	0.94400
599.78354	0.94090
