3997.91406	0.79359
3995.98550	0.79234
3994.05693	0.79220
3992.12837	0.79193
3990.19980	0.79098
3988.27124	0.79055
3986.34268	0.79118
3984.41411	0.79142
3982.48555	0.79053
3980.55698	0.79048
3978.62842	0.79131
3976.69985	0.79041
3974.77129	0.78861
3972.84272	0.78856
3970.91416	0.78949
3968.98560	0.79007
3967.05703	0.78922
3965.12847	0.78671
3963.19990	0.78530
3961.27134	0.78592
3959.34277	0.78583
3957.41421	0.78385
3955.48564	0.78159
3953.55708	0.78055
3951.62852	0.78064
3949.69995	0.78169
3947.77139	0.78268
3945.84282	0.78219
3943.91426	0.78081
3941.98569	0.77947
3940.05713	0.77807
3938.12856	0.77748
3936.20000	0.77952
3934.27144	0.78246
3932.34287	0.78283
3930.41431	0.78179
3928.48574	0.78170
3926.55718	0.78203
3924.62861	0.78139
3922.70005	0.77885
3920.77148	0.77598
3918.84292	0.77470
3916.91436	0.77480
3914.98579	0.77488
3913.05723	0.77474
3911.12866	0.77427
3909.20010	0.77358
3907.27153	0.77240
3905.34297	0.76994
3903.41440	0.76871
3901.48584	0.76937
3899.55728	0.76750
3897.62871	0.76583
3895.70015	0.76797
3893.77158	0.77142
3891.84302	0.77120
3889.91445	0.76853
3887.98589	0.76756
3886.05733	0.76629
3884.12876	0.76472
3882.20020	0.76498
3880.27163	0.76485
3878.34307	0.76357
3876.41450	0.76185
3874.48594	0.76004
3872.55737	0.75980
3870.62881	0.75898
3868.70025	0.75680
3866.77168	0.75617
3864.84312	0.75502
3862.91455	0.75282
3860.98599	0.75269
3859.05742	0.75481
3857.12886	0.75789
3855.20029	0.75894
3853.27173	0.75428
3851.34317	0.75277
3849.41460	0.75484
3847.48604	0.75614
3845.55747	0.75617
3843.62891	0.75470
3841.70034	0.75240
3839.77178	0.75089
3837.84321	0.75009
3835.91465	0.75029
3833.98609	0.75090
3832.05752	0.75052
3830.12896	0.74992
3828.20039	0.74875
3826.27183	0.74626
3824.34326	0.74598
3822.41470	0.74940
3820.48613	0.75110
3818.55757	0.74817
3816.62901	0.74298
3814.70044	0.74032
3812.77188	0.74223
3810.84331	0.74402
3808.91475	0.74309
3806.98618	0.73993
3805.05762	0.73841
3803.12905	0.73909
3801.20049	0.74007
3799.27193	0.74089
3797.34336	0.74051
3795.41480	0.73926
3793.48623	0.73906
3791.55767	0.73973
3789.62910	0.73956
3787.70054	0.73803
3785.77197	0.73686
3783.84341	0.73721
3781.91485	0.73844
3779.98628	0.73920
3778.05772	0.73854
3776.12915	0.73779
3774.20059	0.73785
3772.27202	0.73861
3770.34346	0.73908
3768.41489	0.73852
3766.48633	0.73776
3764.55777	0.73755
3762.62920	0.73797
3760.70064	0.73787
3758.77207	0.73748
3756.84351	0.73861
3754.91494	0.74065
3752.98638	0.74192
3751.05781	0.73771
3749.12925	0.73065
3747.20069	0.72794
3745.27212	0.72626
3743.34356	0.72744
3741.41499	0.73229
3739.48643	0.73620
3737.55786	0.73693
3735.62930	0.73551
3733.70074	0.73552
3731.77217	0.73666
3729.84361	0.73688
3727.91504	0.73496
3725.98648	0.73187
3724.05791	0.73265
3722.12935	0.73727
3720.20078	0.73988
3718.27222	0.73907
3716.34366	0.73763
3714.41509	0.73756
3712.48653	0.73849
3710.55796	0.73843
3708.62940	0.73762
3706.70083	0.73739
3704.77227	0.73743
3702.84370	0.73674
3700.91514	0.73598
3698.98658	0.73618
3697.05801	0.73672
3695.12945	0.73816
3693.20088	0.74190
3691.27232	0.74795
3689.34375	0.75149
3687.41519	0.75001
3685.48662	0.74943
3683.55806	0.75078
3681.62950	0.75224
3679.70093	0.75279
3677.77237	0.75374
3675.84380	0.75718
3673.91524	0.76234
3671.98667	0.76661
3670.05811	0.77102
3668.12954	0.77615
3666.20098	0.78163
3664.27242	0.78779
3662.34385	0.79423
3660.41529	0.80076
3658.48672	0.80768
3656.55816	0.81473
3654.62959	0.82170
3652.70103	0.82915
3650.77246	0.83349
3648.84390	0.83138
3646.91534	0.83790
3644.98677	0.84868
3643.05821	0.85765
3641.12964	0.86572
3639.20108	0.87343
3637.27251	0.88050
3635.34395	0.88767
3633.41538	0.89485
3631.48682	0.90085
3629.55826	0.90920
3627.62969	0.92072
3625.70113	0.92913
3623.77256	0.93652
3621.84400	0.94477
3619.91543	0.95414
3617.98687	0.96309
3616.05830	0.97121
3614.12974	0.97792
3612.20118	0.98231
3610.27261	0.98741
3608.34405	0.99699
3606.41548	1.01090
3604.48692	1.02366
3602.55835	1.03423
3600.62979	1.04569
3598.70123	1.05796
3596.77266	1.06647
3594.84410	1.07100
3592.91553	1.07586
3590.98697	1.08224
3589.05840	1.09241
3587.12984	1.10800
3585.20127	1.11925
3583.27271	1.12576
3581.34415	1.13456
3579.41558	1.14618
3577.48702	1.15653
3575.55845	1.16435
3573.62989	1.17035
3571.70132	1.17456
3569.77276	1.17745
3567.84419	1.18452
3565.91563	1.20195
3563.98707	1.22055
3562.05850	1.23658
3560.12994	1.25141
3558.20137	1.26310
3556.27281	1.27127
3554.34424	1.27964
3552.41568	1.28860
3550.48711	1.29441
3548.55855	1.29974
3546.62999	1.30993
3544.70142	1.32518
3542.77286	1.33781
3540.84429	1.34543
3538.91573	1.35221
3536.98716	1.35954
3535.05860	1.36681
3533.13003	1.37303
3531.20147	1.37720
3529.27291	1.38119
3527.34434	1.39103
3525.41578	1.40651
3523.48721	1.41884
3521.55865	1.42735
3519.63008	1.43887
3517.70152	1.45405
3515.77295	1.46735
3513.84439	1.47660
3511.91583	1.48407
3509.98726	1.49168
3508.05870	1.50239
3506.13013	1.51543
3504.20157	1.52558
3502.27300	1.53411
3500.34444	1.54723
3498.41587	1.56325
3496.48731	1.58177
3494.55875	1.59984
3492.63018	1.60331
3490.70162	1.59420
3488.77305	1.59291
3486.84449	1.60444
3484.91592	1.61453
3482.98736	1.61717
3481.05879	1.61791
3479.13023	1.62390
3477.20167	1.63945
3475.27310	1.66039
3473.34454	1.67672
3471.41597	1.68239
3469.48741	1.68248
3467.55884	1.68320
3465.63028	1.68472
3463.70171	1.69078
3461.77315	1.70095
3459.84459	1.70540
3457.91602	1.69926
3455.98746	1.69019
3454.05889	1.68851
3452.13033	1.69139
3450.20176	1.68999
3448.27320	1.68934
3446.34464	1.69980
3444.41607	1.71367
3442.48751	1.72135
3440.55894	1.72572
3438.63038	1.73179
3436.70181	1.73972
3434.77325	1.74060
3432.84468	1.73531
3430.91612	1.73572
3428.98756	1.74052
3427.05899	1.74485
3425.13043	1.74930
3423.20186	1.74724
3421.27330	1.73436
3419.34473	1.72142
3417.41617	1.71522
3415.48760	1.71416
3413.55904	1.71643
3411.63048	1.72121
3409.70191	1.73197
3407.77335	1.74370
3405.84478	1.74924
3403.91622	1.75497
3401.98765	1.75950
3400.05909	1.75932
3398.13052	1.76338
3396.20196	1.76902
3394.27340	1.76812
3392.34483	1.76749
3390.41627	1.77014
3388.48770	1.76680
3386.55914	1.75469
3384.63057	1.74434
3382.70201	1.74417
3380.77344	1.74730
3378.84488	1.74618
3376.91632	1.74724
3374.98775	1.75453
3373.05919	1.76488
3371.13062	1.77559
3369.20206	1.77766
3367.27349	1.76899
3365.34493	1.75964
3363.41636	1.75427
3361.48780	1.75307
3359.55924	1.75220
3357.63067	1.75431
3355.70211	1.77032
3353.77354	1.79183
3351.84498	1.79736
3349.91641	1.78792
3347.98785	1.78450
3346.05928	1.79432
3344.13072	1.80081
3342.20216	1.79292
3340.27359	1.78263
3338.34503	1.78447
3336.41646	1.79463
3334.48790	1.79753
3332.55933	1.79114
3330.63077	1.78662
3328.70220	1.79205
3326.77364	1.80642
3324.84508	1.82140
3322.91651	1.82760
3320.98795	1.82212
3319.05938	1.81620
3317.13082	1.82136
3315.20225	1.83604
3313.27369	1.85103
3311.34513	1.85710
3309.41656	1.85828
3307.48800	1.86232
3305.55943	1.86322
3303.63087	1.85567
3301.70230	1.84618
3299.77374	1.84409
3297.84517	1.84963
3295.91661	1.85857
3293.98805	1.86837
3292.05948	1.87216
3290.13092	1.87153
3288.20235	1.87656
3286.27379	1.88327
3284.34522	1.88158
3282.41666	1.86857
3280.48809	1.84923
3278.55953	1.83990
3276.63097	1.84761
3274.70240	1.85393
3272.77384	1.84444
3270.84527	1.82970
3268.91671	1.82442
3266.98814	1.82633
3265.05958	1.81858
3263.13101	1.80273
3261.20245	1.79352
3259.27389	1.78526
3257.34532	1.77384
3255.41676	1.77203
3253.48819	1.78080
3251.55963	1.78471
3249.63106	1.77642
3247.70250	1.76248
3245.77393	1.74876
3243.84537	1.73822
3241.91681	1.73338
3239.98824	1.73395
3238.05968	1.73398
3236.13111	1.72506
3234.20255	1.71139
3232.27398	1.70314
3230.34542	1.69917
3228.41685	1.69492
3226.48829	1.69104
3224.55973	1.68500
3222.63116	1.67104
3220.70260	1.65481
3218.77403	1.64558
3216.84547	1.63959
3214.91690	1.63294
3212.98834	1.63019
3211.05977	1.63213
3209.13121	1.63336
3207.20265	1.63087
3205.27408	1.62702
3203.34552	1.62240
3201.41695	1.61339
3199.48839	1.59989
3197.55982	1.58724
3195.63126	1.58096
3193.70269	1.58132
3191.77413	1.58164
3189.84557	1.57607
3187.91700	1.56665
3185.98844	1.55853
3184.05987	1.55250
3182.13131	1.54669
3180.20274	1.54202
3178.27418	1.53964
3176.34562	1.53746
3174.41705	1.53217
3172.48849	1.52382
3170.55992	1.51519
3168.63136	1.50723
3166.70279	1.49843
3164.77423	1.48661
3162.84566	1.47628
3160.91710	1.47382
3158.98854	1.47444
3157.05997	1.47000
3155.13141	1.46190
3153.20284	1.45699
3151.27428	1.45691
3149.34571	1.45695
3147.41715	1.45422
3145.48858	1.44985
3143.56002	1.44437
3141.63146	1.43776
3139.70289	1.43140
3137.77433	1.42570
3135.84576	1.42275
3133.91720	1.42339
3131.98863	1.42276
3130.06007	1.42124
3128.13150	1.42133
3126.20294	1.42003
3124.27438	1.41724
3122.34581	1.41509
3120.41725	1.41394
3118.48868	1.41375
3116.56012	1.41573
3114.63155	1.42087
3112.70299	1.42516
3110.77442	1.42445
3108.84586	1.42174
3106.91730	1.42081
3104.98873	1.41912
3103.06017	1.41476
3101.13160	1.41201
3099.20304	1.41254
3097.27447	1.41151
3095.34591	1.40884
3093.41734	1.40984
3091.48878	1.41170
3089.56022	1.40807
3087.63165	1.40145
3085.70309	1.39632
3083.77452	1.39230
3081.84596	1.38937
3079.91739	1.38810
3077.98883	1.38656
3076.06026	1.38367
3074.13170	1.37942
3072.20314	1.37382
3070.27457	1.36950
3068.34601	1.36643
3066.41744	1.36095
3064.48888	1.35519
3062.56031	1.35317
3060.63175	1.35191
3058.70318	1.34774
3056.77462	1.34081
3054.84606	1.33166
3052.91749	1.32335
3050.98893	1.32015
3049.06036	1.31917
3047.13180	1.31387
3045.20323	1.30585
3043.27467	1.30009
3041.34610	1.29539
3039.41754	1.28908
3037.48898	1.28168
3035.56041	1.27493
3033.63185	1.26984
3031.70328	1.26645
3029.77472	1.26402
3027.84615	1.26035
3025.91759	1.25480
3023.98903	1.24981
3022.06046	1.24639
3020.13190	1.24317
3018.20333	1.23944
3016.27477	1.23621
3014.34620	1.23387
3012.41764	1.23147
3010.48907	1.22862
3008.56051	1.22569
3006.63195	1.22310
3004.70338	1.22049
3002.77482	1.21761
3000.84625	1.21610
2998.91769	1.21765
2996.98912	1.22174
2995.06056	1.22642
2993.13199	1.23058
2991.20343	1.23483
2989.27487	1.23929
2987.34630	1.24264
2985.41774	1.24617
2983.48917	1.25308
2981.56061	1.26233
2979.63204	1.27150
2977.70348	1.28146
2975.77491	1.29212
2973.84635	1.30227
2971.91779	1.31308
2969.98922	1.32442
2968.06066	1.33411
2966.13209	1.34193
2964.20353	1.34755
2962.27496	1.34882
2960.34640	1.34603
2958.41783	1.34220
2956.48927	1.33674
2954.56071	1.32824
2952.63214	1.32001
2950.70358	1.31490
2948.77501	1.31354
2946.84645	1.31496
2944.91788	1.31705
2942.98932	1.32095
2941.06075	1.32870
2939.13219	1.34010
2937.20363	1.35418
2935.27506	1.36865
2933.34650	1.37985
2931.41793	1.38652
2929.48937	1.39210
2927.56080	1.39993
2925.63224	1.40933
2923.70367	1.41696
2921.77511	1.42124
2919.84655	1.42360
2917.91798	1.42104
2915.98942	1.40646
2914.06085	1.37953
2912.13229	1.34970
2910.20372	1.32563
2908.27516	1.30640
2906.34659	1.28843
2904.41803	1.27360
2902.48947	1.26441
2900.56090	1.25902
2898.63234	1.25364
2896.70377	1.24734
2894.77521	1.24274
2892.84664	1.23978
2890.91808	1.23554
2888.98952	1.22985
2887.06095	1.22485
2885.13239	1.22191
2883.20382	1.22135
2881.27526	1.22359
2879.34669	1.22714
2877.41813	1.22837
2875.48956	1.22741
2873.56100	1.22518
2871.63244	1.21918
2869.70387	1.20935
2867.77531	1.19947
2865.84674	1.19183
2863.91818	1.18535
2861.98961	1.18120
2860.06105	1.18293
2858.13248	1.18973
2856.20392	1.19864
2854.27536	1.20993
2852.34679	1.22359
2850.41823	1.23179
2848.48966	1.22184
2846.56110	1.19240
2844.63253	1.15702
2842.70397	1.12805
2840.77540	1.10751
2838.84684	1.09285
2836.91828	1.08261
2834.98971	1.07516
2833.06115	1.06875
2831.13258	1.06294
2829.20402	1.05824
2827.27545	1.05490
2825.34689	1.05103
2823.41832	1.04521
2821.48976	1.03958
2819.56120	1.03561
2817.63263	1.03238
2815.70407	1.02931
2813.77550	1.02606
2811.84694	1.02233
2809.91837	1.01846
2807.98981	1.01514
2806.06124	1.01224
2804.13268	1.00901
2802.20412	1.00512
2800.27555	1.00020
2798.34699	0.99487
2796.41842	0.99068
2794.48986	0.98757
2792.56129	0.98482
2790.63273	0.98236
2788.70416	0.97976
2786.77560	0.97641
2784.84704	0.97285
2782.91847	0.97029
2780.98991	0.96882
2779.06134	0.96748
2777.13278	0.96551
2775.20421	0.96311
2773.27565	0.96080
2771.34708	0.95841
2769.41852	0.95593
2767.48996	0.95413
2765.56139	0.95305
2763.63283	0.95200
2761.70426	0.95045
2759.77570	0.94830
2757.84713	0.94605
2755.91857	0.94377
2753.99001	0.94110
2752.06144	0.93873
2750.13288	0.93723
2748.20431	0.93594
2746.27575	0.93478
2744.34718	0.93402
2742.41862	0.93278
2740.49005	0.93047
2738.56149	0.92776
2736.63293	0.92540
2734.70436	0.92355
2732.77580	0.92176
2730.84723	0.91955
2728.91867	0.91710
2726.99010	0.91449
2725.06154	0.91176
2723.13297	0.90968
2721.20441	0.90856
2719.27585	0.90716
2717.34728	0.90445
2715.41872	0.90114
2713.49015	0.89826
2711.56159	0.89597
2709.63302	0.89389
2707.70446	0.89190
2705.77589	0.89034
2703.84733	0.88909
2701.91877	0.88765
2699.99020	0.88585
2698.06164	0.88373
2696.13307	0.88187
2694.20451	0.88063
2692.27594	0.87958
2690.34738	0.87851
2688.41881	0.87746
2686.49025	0.87619
2684.56169	0.87422
2682.63312	0.87204
2680.70456	0.87088
2678.77599	0.87023
2676.84743	0.86897
2674.91886	0.86735
2672.99030	0.86537
2671.06173	0.86311
2669.13317	0.86120
2667.20461	0.85979
2665.27604	0.85858
2663.34748	0.85712
2661.41891	0.85538
2659.49035	0.85366
2657.56178	0.85197
2655.63322	0.85023
2653.70465	0.84834
2651.77609	0.84663
2649.84753	0.84568
2647.91896	0.84509
2645.99040	0.84438
2644.06183	0.84412
2642.13327	0.84428
2640.20470	0.84424
2638.27614	0.84399
2636.34757	0.84365
2634.41901	0.84356
2632.49045	0.84335
2630.56188	0.84195
2628.63332	0.83988
2626.70475	0.83875
2624.77619	0.83888
2622.84762	0.83921
2620.91906	0.83862
2618.99049	0.83703
2617.06193	0.83543
2615.13337	0.83468
2613.20480	0.83408
2611.27624	0.83260
2609.34767	0.83084
2607.41911	0.82975
2605.49054	0.82912
2603.56198	0.82865
2601.63342	0.82837
2599.70485	0.82791
2597.77629	0.82660
2595.84772	0.82480
2593.91916	0.82350
2591.99059	0.82253
2590.06203	0.82129
2588.13346	0.82007
2586.20490	0.81931
2584.27634	0.81871
2582.34777	0.81767
2580.41921	0.81629
2578.49064	0.81488
2576.56208	0.81373
2574.63351	0.81332
2572.70495	0.81344
2570.77638	0.81305
2568.84782	0.81175
2566.91926	0.81040
2564.99069	0.80952
2563.06213	0.80854
2561.13356	0.80710
2559.20500	0.80565
2557.27643	0.80463
2555.34787	0.80371
2553.41930	0.80236
2551.49074	0.80061
2549.56218	0.79890
2547.63361	0.79742
2545.70505	0.79601
2543.77648	0.79474
2541.84792	0.79361
2539.91935	0.79224
2537.99079	0.79071
2536.06222	0.78964
2534.13366	0.78920
2532.20510	0.78884
2530.27653	0.78810
2528.34797	0.78656
2526.41940	0.78397
2524.49084	0.78137
2522.56227	0.78003
2520.63371	0.77960
2518.70514	0.77909
2516.77658	0.77831
2514.84802	0.77744
2512.91945	0.77629
2510.99089	0.77499
2509.06232	0.77423
2507.13376	0.77370
2505.20519	0.77260
2503.27663	0.77138
2501.34806	0.77049
2499.41950	0.76964
2497.49094	0.76902
2495.56237	0.76862
2493.63381	0.76779
2491.70524	0.76647
2489.77668	0.76514
2487.84811	0.76428
2485.91955	0.76410
2483.99098	0.76404
2482.06242	0.76349
2480.13386	0.76283
2478.20529	0.76220
2476.27673	0.76107
2474.34816	0.75952
2472.41960	0.75804
2470.49103	0.75671
2468.56247	0.75544
2466.63391	0.75460
2464.70534	0.75424
2462.77678	0.75363
2460.84821	0.75277
2458.91965	0.75209
2456.99108	0.75118
2455.06252	0.74977
2453.13395	0.74844
2451.20539	0.74766
2449.27683	0.74700
2447.34826	0.74616
2445.41970	0.74524
2443.49113	0.74431
2441.56257	0.74314
2439.63400	0.74162
2437.70544	0.74015
2435.77687	0.73915
2433.84831	0.73869
2431.91975	0.73839
2429.99118	0.73791
2428.06262	0.73737
2426.13405	0.73672
2424.20549	0.73596
2422.27692	0.73538
2420.34836	0.73496
2418.41979	0.73435
2416.49123	0.73354
2414.56267	0.73285
2412.63410	0.73245
2410.70554	0.73217
2408.77697	0.73193
2406.84841	0.73150
2404.91984	0.73065
2402.99128	0.72973
2401.06271	0.72906
2399.13415	0.72830
2397.20559	0.72686
2395.27702	0.72488
2393.34846	0.72318
2391.41989	0.72184
2389.49133	0.72039
2387.56276	0.71900
2385.63420	0.71795
2383.70563	0.71712
2381.77707	0.71611
2379.84851	0.71447
2377.91994	0.71260
2375.99138	0.71147
2374.06281	0.71088
2372.13425	0.71008
2370.20568	0.70878
2368.27712	0.70645
2366.34855	0.70593
2364.41999	0.70939
2362.49143	0.70913
2360.56286	0.70310
2358.63430	0.70121
2356.70573	0.70288
2354.77717	0.70060
2352.84860	0.69777
2350.92004	0.69811
2348.99147	0.69940
2347.06291	0.69924
2345.13435	0.69589
2343.20578	0.69183
2341.27722	0.69153
2339.34865	0.69186
2337.42009	0.69152
2335.49152	0.69240
2333.56296	0.69231
2331.63440	0.68973
2329.70583	0.68766
2327.77727	0.68793
2325.84870	0.68971
2323.92014	0.69170
2321.99157	0.69231
2320.06301	0.69103
2318.13444	0.68872
2316.20588	0.68671
2314.27732	0.68587
2312.34875	0.68559
2310.42019	0.68486
2308.49162	0.68406
2306.56306	0.68370
2304.63449	0.68322
2302.70593	0.68234
2300.77736	0.68145
2298.84880	0.68073
2296.92024	0.68021
2294.99167	0.67985
2293.06311	0.67946
2291.13454	0.67910
2289.20598	0.67891
2287.27741	0.67878
2285.34885	0.67843
2283.42028	0.67800
2281.49172	0.67779
2279.56316	0.67770
2277.63459	0.67749
2275.70603	0.67729
2273.77746	0.67729
2271.84890	0.67752
2269.92033	0.67787
2267.99177	0.67811
2266.06320	0.67811
2264.13464	0.67801
2262.20608	0.67788
2260.27751	0.67781
2258.34895	0.67789
2256.42038	0.67800
2254.49182	0.67811
2252.56325	0.67819
2250.63469	0.67818
2248.70612	0.67814
2246.77756	0.67801
2244.84900	0.67762
2242.92043	0.67715
2240.99187	0.67701
2239.06330	0.67708
2237.13474	0.67674
2235.20617	0.67599
2233.27761	0.67549
2231.34904	0.67559
2229.42048	0.67605
2227.49192	0.67661
2225.56335	0.67697
2223.63479	0.67667
2221.70622	0.67585
2219.77766	0.67511
2217.84909	0.67454
2215.92053	0.67417
2213.99196	0.67418
2212.06340	0.67424
2210.13484	0.67397
2208.20627	0.67343
2206.27771	0.67287
2204.34914	0.67230
2202.42058	0.67180
2200.49201	0.67150
2198.56345	0.67102
2196.63488	0.67012
2194.70632	0.66930
2192.77776	0.66871
2190.84919	0.66785
2188.92063	0.66661
2186.99206	0.66549
2185.06350	0.66462
2183.13493	0.66358
2181.20637	0.66218
2179.27781	0.66057
2177.34924	0.65904
2175.42068	0.65786
2173.49211	0.65695
2171.56355	0.65597
2169.63498	0.65483
2167.70642	0.65383
2165.77785	0.65319
2163.84929	0.65269
2161.92073	0.65207
2159.99216	0.65155
2158.06360	0.65121
2156.13503	0.65080
2154.20647	0.65045
2152.27790	0.65030
2150.34934	0.64999
2148.42077	0.64959
2146.49221	0.64933
2144.56365	0.64893
2142.63508	0.64846
2140.70652	0.64814
2138.77795	0.64772
2136.84939	0.64713
2134.92082	0.64642
2132.99226	0.64544
2131.06369	0.64434
2129.13513	0.64339
2127.20657	0.64231
2125.27800	0.64079
2123.34944	0.63911
2121.42087	0.63770
2119.49231	0.63652
2117.56374	0.63540
2115.63518	0.63419
2113.70661	0.63298
2111.77805	0.63201
2109.84949	0.63117
2107.92092	0.63026
2105.99236	0.62938
2104.06379	0.62881
2102.13523	0.62839
2100.20666	0.62771
2098.27810	0.62701
2096.34953	0.62671
2094.42097	0.62657
2092.49241	0.62626
2090.56384	0.62601
2088.63528	0.62607
2086.70671	0.62610
2084.77815	0.62578
2082.84958	0.62519
2080.92102	0.62455
2078.99245	0.62400
2077.06389	0.62366
2075.13533	0.62333
2073.20676	0.62288
2071.27820	0.62227
2069.34963	0.62134
2067.42107	0.62031
2065.49250	0.61945
2063.56394	0.61861
2061.63537	0.61763
2059.70681	0.61654
2057.77825	0.61554
2055.84968	0.61452
2053.92112	0.61320
2051.99255	0.61184
2050.06399	0.61064
2048.13542	0.60970
2046.20686	0.60925
2044.27830	0.60895
2042.34973	0.60836
2040.42117	0.60759
2038.49260	0.60707
2036.56404	0.60682
2034.63547	0.60654
2032.70691	0.60624
2030.77834	0.60621
2028.84978	0.60650
2026.92122	0.60677
2024.99265	0.60664
2023.06409	0.60623
2021.13552	0.60581
2019.20696	0.60544
2017.27839	0.60510
2015.34983	0.60465
2013.42126	0.60401
2011.49270	0.60314
2009.56414	0.60200
2007.63557	0.60083
2005.70701	0.59979
2003.77844	0.59873
2001.84988	0.59752
1999.92131	0.59608
1997.99275	0.59445
1996.06418	0.59281
1994.13562	0.59114
1992.20706	0.58928
1990.27849	0.58732
1988.34993	0.58551
1986.42136	0.58387
1984.49280	0.58242
1982.56423	0.58103
1980.63567	0.57948
1978.70710	0.57793
1976.77854	0.57665
1974.84998	0.57560
1972.92141	0.57473
1970.99285	0.57387
1969.06428	0.57287
1967.13572	0.57194
1965.20715	0.57136
1963.27859	0.57102
1961.35002	0.57068
1959.42146	0.57018
1957.49290	0.56932
1955.56433	0.56816
1953.63577	0.56724
1951.70720	0.56673
1949.77864	0.56619
1947.85007	0.56538
1945.92151	0.56449
1943.99294	0.56359
1942.06438	0.56264
1940.13582	0.56177
1938.20725	0.56078
1936.27869	0.55949
1934.35012	0.55817
1932.42156	0.55704
1930.49299	0.55613
1928.56443	0.55524
1926.63586	0.55428
1924.70730	0.55340
1922.77874	0.55266
1920.85017	0.55203
1918.92161	0.55124
1916.99304	0.55040
1915.06448	0.54990
1913.13591	0.54953
1911.20735	0.54889
1909.27878	0.54814
1907.35022	0.54776
1905.42166	0.54761
1903.49309	0.54739
1901.56453	0.54700
1899.63596	0.54645
1897.70740	0.54584
1895.77883	0.54534
1893.85027	0.54497
1891.92171	0.54463
1889.99314	0.54408
1888.06458	0.54321
1886.13601	0.54244
1884.20745	0.54201
1882.27888	0.54171
1880.35032	0.54107
1878.42175	0.54010
1876.49319	0.53916
1874.56463	0.53826
1872.63606	0.53747
1870.70750	0.53675
1868.77893	0.53553
1866.85037	0.53407
1864.92180	0.53333
1862.99324	0.53293
1861.06467	0.53221
1859.13611	0.53135
1857.20755	0.53058
1855.27898	0.52980
1853.35042	0.52899
1851.42185	0.52812
1849.49329	0.52726
1847.56472	0.52656
1845.63616	0.52579
1843.70759	0.52485
1841.77903	0.52451
1839.85047	0.52459
1837.92190	0.52452
1835.99334	0.52430
1834.06477	0.52411
1832.13621	0.52389
1830.20764	0.52352
1828.27908	0.52327
1826.35051	0.52304
1824.42195	0.52256
1822.49339	0.52215
1820.56482	0.52191
1818.63626	0.52166
1816.70769	0.52131
1814.77913	0.52104
1812.85056	0.52097
1810.92200	0.52082
1808.99343	0.52069
1807.06487	0.52071
1805.13631	0.52073
1803.20774	0.52061
1801.27918	0.52036
1799.35061	0.52017
1797.42205	0.52019
1795.49348	0.52025
1793.56492	0.51998
1791.63635	0.51945
1789.70779	0.51927
1787.77923	0.51939
1785.85066	0.51950
1783.92210	0.51972
1781.99353	0.52011
1780.06497	0.52044
1778.13640	0.52087
1776.20784	0.52158
1774.27927	0.52246
1772.35071	0.52339
1770.42215	0.52463
1768.49358	0.52620
1766.56502	0.52779
1764.63645	0.52920
1762.70789	0.53055
1760.77932	0.53239
1758.85076	0.53458
1756.92220	0.53718
1754.99363	0.54022
1753.06507	0.54349
1751.13650	0.54777
1749.20794	0.55355
1747.27937	0.55964
1745.35081	0.56524
1743.42224	0.57063
1741.49368	0.57625
1739.56512	0.58220
1737.63655	0.58697
1735.70799	0.59048
1733.77942	0.59538
1731.85086	0.60095
1729.92229	0.60624
1727.99373	0.61195
1726.06516	0.61776
1724.13660	0.62480
1722.20804	0.63270
1720.27947	0.64037
1718.35091	0.65089
1716.42234	0.66826
1714.49378	0.68405
1712.56521	0.69708
1710.63665	0.71183
1708.70808	0.72986
1706.77952	0.75586
1704.85096	0.79004
1702.92239	0.82202
1700.99383	0.86739
1699.06526	0.94039
1697.13670	1.01088
1695.20813	1.08188
1693.27957	1.13629
1691.35100	1.17941
1689.42244	1.23076
1687.49388	1.27845
1685.56531	1.32574
1683.63675	1.40238
1681.70818	1.46215
1679.77962	1.49555
1677.85105	1.52485
1675.92249	1.55778
1673.99392	1.59220
1672.06536	1.61794
1670.13680	1.63708
1668.20823	1.65391
1666.27967	1.66549
1664.35110	1.67870
1662.42254	1.69518
1660.49397	1.70460
1658.56541	1.70857
1656.63684	1.71085
1654.70828	1.71240
1652.77972	1.70702
1650.85115	1.70191
1648.92259	1.69916
1646.99402	1.69456
1645.06546	1.69334
1643.13689	1.69056
1641.20833	1.68557
1639.27976	1.68024
1637.35120	1.67777
1635.42264	1.67691
1633.49407	1.67126
1631.56551	1.66689
1629.63694	1.66376
1627.70838	1.65845
1625.77981	1.64914
1623.85125	1.63629
1621.92269	1.62033
1619.99412	1.60614
1618.06556	1.58706
1616.13699	1.54899
1614.20843	1.51286
1612.27986	1.48414
1610.35130	1.45169
1608.42273	1.41620
1606.49417	1.38543
1604.56561	1.36079
1602.63704	1.34039
1600.70848	1.32554
1598.77991	1.31606
1596.85135	1.30937
1594.92278	1.30371
1592.99422	1.30039
1591.06565	1.30065
1589.13709	1.30406
1587.20853	1.31134
1585.27996	1.32329
1583.35140	1.33986
1581.42283	1.35792
1579.49427	1.37387
1577.56570	1.39329
1575.63714	1.42220
1573.70857	1.44120
1571.78001	1.45241
1569.85145	1.47048
1567.92288	1.49102
1565.99432	1.50554
1564.06575	1.51932
1562.13719	1.53243
1560.20862	1.55083
1558.28006	1.57975
1556.35149	1.58509
1554.42293	1.58340
1552.49437	1.58313
1550.56580	1.58471
1548.63724	1.58716
1546.70867	1.58842
1544.78011	1.58615
1542.85154	1.58024
1540.92298	1.57215
1538.99441	1.56280
1537.06585	1.55845
1535.13729	1.55268
1533.20872	1.54071
1531.28016	1.52933
1529.35159	1.52148
1527.42303	1.51223
1525.49446	1.50526
1523.56590	1.50482
1521.63733	1.50230
1519.70877	1.49623
1517.78021	1.48875
1515.85164	1.47794
1513.92308	1.46569
1511.99451	1.45165
1510.06595	1.43674
1508.13738	1.41183
1506.20882	1.36023
1504.28025	1.32932
1502.35169	1.31055
1500.42313	1.28928
1498.49456	1.26020
1496.56600	1.22501
1494.63743	1.19936
1492.70887	1.18270
1490.78030	1.16181
1488.85174	1.13292
1486.92317	1.11264
1484.99461	1.10188
1483.06605	1.09484
1481.13748	1.09001
1479.20892	1.08845
1477.28035	1.09156
1475.35179	1.10043
1473.42322	1.11779
1471.49466	1.13834
1469.56610	1.15119
1467.63753	1.16067
1465.70897	1.17164
1463.78040	1.18201
1461.85184	1.18737
1459.92327	1.19068
1457.99471	1.19923
1456.06614	1.21232
1454.13758	1.21571
1452.20902	1.21418
1450.28045	1.21178
1448.35189	1.20939
1446.42332	1.20588
1444.49476	1.20099
1442.56619	1.19549
1440.63763	1.18970
1438.70906	1.18203
1436.78050	1.16835
1434.85194	1.15279
1432.92337	1.14109
1430.99481	1.12957
1429.06624	1.11849
1427.13768	1.11113
1425.20911	1.10687
1423.28055	1.10503
1421.35198	1.10535
1419.42342	1.10770
1417.49486	1.11096
1415.56629	1.11242
1413.63773	1.11251
1411.70916	1.11166
1409.78060	1.11043
1407.85203	1.11038
1405.92347	1.11246
1403.99490	1.11539
1402.06634	1.11741
1400.13778	1.11876
1398.20921	1.11991
1396.28065	1.12180
1394.35208	1.12526
1392.42352	1.12960
1390.49495	1.13487
1388.56639	1.14385
1386.63782	1.15813
1384.70926	1.17288
1382.78070	1.18568
1380.85213	1.19587
1378.92357	1.20103
1376.99500	1.19992
1375.06644	1.19049
1373.13787	1.17383
1371.20931	1.15662
1369.28074	1.13795
1367.35218	1.11720
1365.42362	1.09826
1363.49505	1.07980
1361.56649	1.06285
1359.63792	1.05266
1357.70936	1.04711
1355.78079	1.04287
1353.85223	1.03950
1351.92366	1.03758
1349.99510	1.03690
1348.06654	1.03665
1346.13797	1.03645
1344.20941	1.03649
1342.28084	1.03696
1340.35228	1.03836
1338.42371	1.04121
1336.49515	1.04574
1334.56659	1.05211
1332.63802	1.06024
1330.70946	1.06913
1328.78089	1.07702
1326.85233	1.08283
1324.92376	1.08619
1322.99520	1.08753
1321.06663	1.08853
1319.13807	1.09062
1317.20951	1.09342
1315.28094	1.09589
1313.35238	1.09811
1311.42381	1.09973
1309.49525	1.09993
1307.56668	1.09919
1305.63812	1.09831
1303.70955	1.09725
1301.78099	1.09564
1299.85243	1.09300
1297.92386	1.08865
1295.99530	1.08325
1294.06673	1.07916
1292.13817	1.07756
1290.20960	1.07778
1288.28104	1.07858
1286.35247	1.07890
1284.42391	1.07856
1282.49535	1.07826
1280.56678	1.07813
1278.63822	1.07778
1276.70965	1.07812
1274.78109	1.08053
1272.85252	1.08487
1270.92396	1.09017
1268.99539	1.09607
1267.06683	1.10236
1265.13827	1.10826
1263.20970	1.11242
1261.28114	1.11412
1259.35257	1.11426
1257.42401	1.11461
1255.49544	1.11582
1253.56688	1.11734
1251.63831	1.11888
1249.70975	1.12012
1247.78119	1.12049
1245.85262	1.12053
1243.92406	1.12078
1241.99549	1.12045
1240.06693	1.11908
1238.13836	1.11652
1236.20980	1.11242
1234.28123	1.10680
1232.35267	1.09951
1230.42411	1.09045
1228.49554	1.07996
1226.56698	1.06859
1224.63841	1.05749
1222.70985	1.04725
1220.78128	1.03765
1218.85272	1.02909
1216.92415	1.02226
1214.99559	1.01784
1213.06703	1.01658
1211.13846	1.01802
1209.20990	1.02079
1207.28133	1.02337
1205.35277	1.02274
1203.42420	1.01676
1201.49564	1.00754
1199.56708	0.99800
1197.63851	0.98865
1195.70995	0.97960
1193.78138	0.97175
1191.85282	0.96606
1189.92425	0.96291
1187.99569	0.96148
1186.06712	0.96076
1184.13856	0.96163
1182.21000	0.96535
1180.28143	0.97152
1178.35287	0.97964
1176.42430	0.98988
1174.49574	1.00153
1172.56717	1.01340
1170.63861	1.02628
1168.71004	1.04285
1166.78148	1.06387
1164.85292	1.08720
1162.92435	1.10988
1160.99579	1.12797
1159.06722	1.13677
1157.13866	1.13411
1155.21009	1.12149
1153.28153	1.10251
1151.35296	1.08038
1149.42440	1.05701
1147.49584	1.03468
1145.56727	1.01639
1143.63871	1.00423
1141.71014	0.99823
1139.78158	0.99734
1137.85301	1.00113
1135.92445	1.00901
1133.99588	1.01996
1132.06732	1.03475
1130.13876	1.05417
1128.21019	1.07544
1126.28163	1.09500
1124.35306	1.11254
1122.42450	1.12883
1120.49593	1.14287
1118.56737	1.15304
1116.63880	1.15832
1114.71024	1.15724
1112.78168	1.14959
1110.85311	1.13910
1108.92455	1.12954
1106.99598	1.12077
1105.06742	1.11184
1103.13885	1.10424
1101.21029	1.10075
1099.28172	1.10212
1097.35316	1.10669
1095.42460	1.11462
1093.49603	1.12807
1091.56747	1.14703
1089.63890	1.16950
1087.71034	1.19532
1085.78177	1.22463
1083.85321	1.25382
1081.92464	1.27773
1079.99608	1.29303
1078.06752	1.29916
1076.13895	1.29702
1074.21039	1.28721
1072.28182	1.27174
1070.35326	1.25300
1068.42469	1.23242
1066.49613	1.21302
1064.56756	1.19722
1062.63900	1.18366
1060.71044	1.17034
1058.78187	1.15745
1056.85331	1.14546
1054.92474	1.13498
1052.99618	1.12731
1051.06761	1.12287
1049.13905	1.12191
1047.21049	1.12517
1045.28192	1.13263
1043.35336	1.14377
1041.42479	1.15679
1039.49623	1.16816
1037.56766	1.17626
1035.63910	1.18139
1033.71053	1.18322
1031.78197	1.18182
1029.85341	1.17757
1027.92484	1.17024
1025.99628	1.16064
1024.06771	1.15016
1022.13915	1.13958
1020.21058	1.12980
1018.28202	1.12160
1016.35345	1.11369
1014.42489	1.10350
1012.49633	1.08945
1010.56776	1.07144
1008.63920	1.05063
1006.71063	1.02942
1004.78207	1.01026
1002.85350	0.99407
1000.92494	0.98050
998.99637	0.96987
997.06781	0.96260
995.13925	0.95695
993.21068	0.95090
991.28212	0.94408
989.35355	0.93676
987.42499	0.92927
985.49642	0.92206
983.56786	0.91616
981.63929	0.91305
979.71073	0.91259
977.78217	0.91254
975.85360	0.91124
973.92504	0.90798
971.99647	0.90169
970.06791	0.89262
968.13934	0.88302
966.21078	0.87535
964.28221	0.87118
962.35365	0.87140
960.42509	0.87714
958.49652	0.88798
956.56796	0.89893
954.63939	0.90344
952.71083	0.89948
950.78226	0.88960
948.85370	0.87732
946.92513	0.86541
944.99657	0.85529
943.06801	0.84710
941.13944	0.84016
939.21088	0.83386
937.28231	0.82822
935.35375	0.82306
933.42518	0.81788
931.49662	0.81269
929.56805	0.80793
927.63949	0.80393
925.71093	0.80058
923.78236	0.79787
921.85380	0.79547
919.92523	0.79263
917.99667	0.78941
916.06810	0.78651
914.13954	0.78430
912.21098	0.78331
910.28241	0.78404
908.35385	0.78658
906.42528	0.79081
904.49672	0.79600
902.56815	0.80135
900.63959	0.80647
898.71102	0.81053
896.78246	0.81265
894.85390	0.81289
892.92533	0.81182
890.99677	0.80973
889.06820	0.80670
887.13964	0.80343
885.21107	0.80075
883.28251	0.79886
881.35394	0.79807
879.42538	0.79826
877.49682	0.79799
875.56825	0.79690
873.63969	0.79630
871.71112	0.79661
869.78256	0.79698
867.85399	0.79761
865.92543	0.79948
863.99686	0.80242
862.06830	0.80578
860.13974	0.80991
858.21117	0.81522
856.28261	0.82141
854.35404	0.82791
852.42548	0.83435
850.49691	0.84059
848.56835	0.84616
846.63978	0.85128
844.71122	0.85729
842.78266	0.86432
840.85409	0.87107
838.92553	0.87709
836.99696	0.88255
835.06840	0.88745
833.13983	0.89264
831.21127	0.89835
829.28270	0.90310
827.35414	0.90656
825.42558	0.90919
823.49701	0.91079
821.56845	0.91249
819.63988	0.91590
817.71132	0.92021
815.78275	0.92333
813.85419	0.92501
811.92562	0.92645
809.99706	0.92772
808.06850	0.92795
806.13993	0.92781
804.21137	0.92869
802.28280	0.93043
800.35424	0.93237
798.42567	0.93442
796.49711	0.93631
794.56854	0.93855
792.63998	0.94192
790.71142	0.94589
788.78285	0.94985
786.85429	0.95391
784.92572	0.95823
782.99716	0.96305
781.06859	0.96814
779.14003	0.97247
777.21147	0.97563
775.28290	0.97846
773.35434	0.98181
771.42577	0.98554
769.49721	0.98888
767.56864	0.99132
765.64008	0.99231
763.71151	0.99224
761.78295	0.99208
759.85439	0.99113
757.92582	0.98935
755.99726	0.98801
754.06869	0.98701
752.14013	0.98593
750.21156	0.98480
748.28300	0.98292
746.35443	0.97988
744.42587	0.97643
742.49731	0.97318
740.56874	0.97003
738.64018	0.96734
736.71161	0.96636
734.78305	0.96752
732.85448	0.96991
730.92592	0.97294
728.99735	0.97645
727.06879	0.98008
725.14023	0.98423
723.21166	0.99006
721.28310	0.99686
719.35453	1.00155
717.42597	1.00414
715.49740	1.00715
713.56884	1.01098
711.64027	1.01554
709.71171	1.02017
707.78315	1.02301
705.85458	1.02500
703.92602	1.02862
701.99745	1.03336
700.06889	1.03707
698.14032	1.03913
696.21176	1.04006
694.28319	1.04104
692.35463	1.04323
690.42607	1.04601
688.49750	1.04869
686.56894	1.05113
684.64037	1.05192
682.71181	1.05258
680.78324	1.05703
678.85468	1.06332
676.92611	1.06658
674.99755	1.06848
673.06899	1.07240
671.14042	1.07685
669.21186	1.08096
667.28329	1.08489
665.35473	1.08770
663.42616	1.09038
661.49760	1.09241
659.56903	1.09445
657.64047	1.09807
655.71191	1.10164
653.78334	1.10419
651.85478	1.10624
649.92621	1.10711
647.99765	1.10721
646.06908	1.10906
644.14052	1.11312
642.21195	1.11880
640.28339	1.12584
638.35483	1.13074
636.42626	1.13161
634.49770	1.13113
632.56913	1.13067
630.64057	1.13033
628.71200	1.13063
626.78344	1.13200
624.85488	1.13546
622.92631	1.14166
620.99775	1.14809
619.06918	1.15165
617.14062	1.15271
615.21205	1.15367
613.28349	1.15517
611.35492	1.15715
609.42636	1.16113
607.49780	1.16616
605.56923	1.16793
603.64067	1.16458
601.71210	1.15918
599.78354	1.15551
