3997.91406	0.90256
3995.98550	0.90129
3994.05693	0.89851
3992.12837	0.89804
3990.19980	0.89969
3988.27124	0.89956
3986.34268	0.89774
3984.41411	0.89668
3982.48555	0.89595
3980.55698	0.89549
3978.62842	0.89631
3976.69985	0.89631
3974.77129	0.89469
3972.84272	0.89358
3970.91416	0.89282
3968.98560	0.89203
3967.05703	0.89176
3965.12847	0.89143
3963.19990	0.89104
3961.27134	0.89074
3959.34277	0.88935
3957.41421	0.88689
3955.48564	0.88596
3953.55708	0.88771
3951.62852	0.88948
3949.69995	0.88815
3947.77139	0.88541
3945.84282	0.88526
3943.91426	0.88634
3941.98569	0.88497
3940.05713	0.88215
3938.12856	0.88093
3936.20000	0.88167
3934.27144	0.88222
3932.34287	0.88051
3930.41431	0.87919
3928.48574	0.88071
3926.55718	0.88112
3924.62861	0.87833
3922.70005	0.87638
3920.77148	0.87645
3918.84292	0.87558
3916.91436	0.87325
3914.98579	0.87166
3913.05723	0.87073
3911.12866	0.86935
3909.20010	0.86910
3907.27153	0.87134
3905.34297	0.87372
3903.41440	0.87296
3901.48584	0.86916
3899.55728	0.86332
3897.62871	0.86059
3895.70015	0.86355
3893.77158	0.86777
3891.84302	0.86783
3889.91445	0.86627
3887.98589	0.86758
3886.05733	0.86764
3884.12876	0.86441
3882.20020	0.86166
3880.27163	0.85997
3878.34307	0.86179
3876.41450	0.86568
3874.48594	0.86674
3872.55737	0.86383
3870.62881	0.85938
3868.70025	0.85724
3866.77168	0.85878
3864.84312	0.86013
3862.91455	0.85892
3860.98599	0.85797
3859.05742	0.86017
3857.12886	0.86510
3855.20029	0.86815
3853.27173	0.86203
3851.34317	0.85562
3849.41460	0.85492
3847.48604	0.85788
3845.55747	0.86333
3843.62891	0.86763
3841.70034	0.86729
3839.77178	0.86212
3837.84321	0.85512
3835.91465	0.85162
3833.98609	0.85140
3832.05752	0.85237
3830.12896	0.85223
3828.20039	0.85004
3826.27183	0.84917
3824.34326	0.85236
3822.41470	0.85531
3820.48613	0.85353
3818.55757	0.85266
3816.62901	0.85236
3814.70044	0.85072
3812.77188	0.85079
3810.84331	0.85274
3808.91475	0.85526
3806.98618	0.85464
3805.05762	0.85220
3803.12905	0.85132
3801.20049	0.84706
3799.27193	0.84237
3797.34336	0.84120
3795.41480	0.84077
3793.48623	0.84037
3791.55767	0.84070
3789.62910	0.84166
3787.70054	0.84116
3785.77197	0.83872
3783.84341	0.83823
3781.91485	0.84084
3779.98628	0.84257
3778.05772	0.84119
3776.12915	0.83921
3774.20059	0.83845
3772.27202	0.83946
3770.34346	0.84062
3768.41489	0.83959
3766.48633	0.83839
3764.55777	0.83902
3762.62920	0.84115
3760.70064	0.84235
3758.77207	0.84093
3756.84351	0.84028
3754.91494	0.84236
3752.98638	0.84402
3751.05781	0.84032
3749.12925	0.83554
3747.20069	0.83230
3745.27212	0.82607
3743.34356	0.82518
3741.41499	0.83333
3739.48643	0.84227
3737.55786	0.84596
3735.62930	0.83868
3733.70074	0.82818
3731.77217	0.82771
3729.84361	0.83286
3727.91504	0.83672
3725.98648	0.83672
3724.05791	0.83702
3722.12935	0.83993
3720.20078	0.84097
3718.27222	0.83935
3716.34366	0.83764
3714.41509	0.83727
3712.48653	0.83913
3710.55796	0.84176
3708.62940	0.84126
3706.70083	0.84056
3704.77227	0.84272
3702.84370	0.84587
3700.91514	0.84608
3698.98658	0.84517
3697.05801	0.84494
3695.12945	0.84420
3693.20088	0.84462
3691.27232	0.84889
3689.34375	0.85209
3687.41519	0.85097
3685.48662	0.85172
3683.55806	0.85392
3681.62950	0.85623
3679.70093	0.85872
3677.77237	0.85943
3675.84380	0.85568
3673.91524	0.85696
3671.98667	0.86470
3670.05811	0.87226
3668.12954	0.87730
3666.20098	0.88180
3664.27242	0.88635
3662.34385	0.89205
3660.41529	0.89936
3658.48672	0.90488
3656.55816	0.90743
3654.62959	0.91178
3652.70103	0.91864
3650.77246	0.92463
3648.84390	0.92957
3646.91534	0.93888
3644.98677	0.94791
3643.05821	0.95469
3641.12964	0.96147
3639.20108	0.96908
3637.27251	0.97593
3635.34395	0.98257
3633.41538	0.99015
3631.48682	0.99718
3629.55826	1.00360
3627.62969	1.01036
3625.70113	1.01719
3623.77256	1.02453
3621.84400	1.03077
3619.91543	1.03487
3617.98687	1.04243
3616.05830	1.05414
3614.12974	1.06298
3612.20118	1.06707
3610.27261	1.07131
3608.34405	1.08037
3606.41548	1.09325
3604.48692	1.10622
3602.55835	1.11945
3600.62979	1.13123
3598.70123	1.13869
3596.77266	1.14250
3594.84410	1.14598
3592.91553	1.15398
3590.98697	1.16362
3589.05840	1.17066
3587.12984	1.18114
3585.20127	1.19840
3583.27271	1.21209
3581.34415	1.21999
3579.41558	1.22649
3577.48702	1.23260
3575.55845	1.23824
3573.62989	1.24670
3571.70132	1.25681
3569.77276	1.26233
3567.84419	1.26314
3565.91563	1.26920
3563.98707	1.27926
3562.05850	1.28858
3560.12994	1.30061
3558.20137	1.31463
3556.27281	1.32496
3554.34424	1.33241
3552.41568	1.34081
3550.48711	1.34878
3548.55855	1.35480
3546.62999	1.36124
3544.70142	1.37133
3542.77286	1.38137
3540.84429	1.38803
3538.91573	1.39501
3536.98716	1.40375
3535.05860	1.41198
3533.13003	1.42098
3531.20147	1.43230
3529.27291	1.44299
3527.34434	1.45092
3525.41578	1.45997
3523.48721	1.47415
3521.55865	1.48706
3519.63008	1.49059
3517.70152	1.49369
3515.77295	1.50858
3513.84439	1.52789
3511.91583	1.53673
3509.98726	1.53851
3508.05870	1.54551
3506.13013	1.56061
3504.20157	1.58079
3502.27300	1.59643
3500.34444	1.60218
3498.41587	1.60223
3496.48731	1.60398
3494.55875	1.61753
3492.63018	1.63776
3490.70162	1.65038
3488.77305	1.65629
3486.84449	1.66438
3484.91592	1.67240
3482.98736	1.67553
3481.05879	1.67928
3479.13023	1.68895
3477.20167	1.69742
3475.27310	1.69381
3473.34454	1.68297
3471.41597	1.68306
3469.48741	1.69831
3467.55884	1.71360
3465.63028	1.71983
3463.70171	1.72414
3461.77315	1.72909
3459.84459	1.73108
3457.91602	1.73374
3455.98746	1.74019
3454.05889	1.74625
3452.13033	1.75221
3450.20176	1.76186
3448.27320	1.77454
3446.34464	1.78007
3444.41607	1.77054
3442.48751	1.75791
3440.55894	1.75133
3438.63038	1.75461
3436.70181	1.77034
3434.77325	1.78707
3432.84468	1.79337
3430.91612	1.78734
3428.98756	1.77613
3427.05899	1.77552
3425.13043	1.78521
3423.20186	1.78912
3421.27330	1.78488
3419.34473	1.78238
3417.41617	1.78512
3415.48760	1.78782
3413.55904	1.78430
3411.63048	1.78389
3409.70191	1.79023
3407.77335	1.78922
3405.84478	1.78379
3403.91622	1.78461
3401.98765	1.78910
3400.05909	1.78962
3398.13052	1.78144
3396.20196	1.76871
3394.27340	1.76061
3392.34483	1.76389
3390.41627	1.77463
3388.48770	1.78638
3386.55914	1.79884
3384.63057	1.80333
3382.70201	1.79708
3380.77344	1.79717
3378.84488	1.80771
3376.91632	1.81286
3374.98775	1.80904
3373.05919	1.80782
3371.13062	1.81182
3369.20206	1.80952
3367.27349	1.79868
3365.34493	1.79387
3363.41636	1.79345
3361.48780	1.78970
3359.55924	1.79783
3357.63067	1.82296
3355.70211	1.84103
3353.77354	1.83817
3351.84498	1.82684
3349.91641	1.82123
3347.98785	1.82847
3346.05928	1.83900
3344.13072	1.83949
3342.20216	1.83836
3340.27359	1.84564
3338.34503	1.85805
3336.41646	1.86786
3334.48790	1.86427
3332.55933	1.84601
3330.63077	1.83130
3328.70220	1.83172
3326.77364	1.83890
3324.84508	1.84807
3322.91651	1.85906
3320.98795	1.86306
3319.05938	1.85779
3317.13082	1.85628
3315.20225	1.86531
3313.27369	1.86961
3311.34513	1.86557
3309.41656	1.87261
3307.48800	1.88938
3305.55943	1.89690
3303.63087	1.89557
3301.70230	1.89825
3299.77374	1.90308
3297.84517	1.90482
3295.91661	1.91227
3293.98805	1.92104
3292.05948	1.91399
3290.13092	1.89947
3288.20235	1.89058
3286.27379	1.88437
3284.34522	1.88134
3282.41666	1.87788
3280.48809	1.86862
3278.55953	1.85821
3276.63097	1.84714
3274.70240	1.83988
3272.77384	1.84385
3270.84527	1.85529
3268.91671	1.86512
3266.98814	1.86304
3265.05958	1.85185
3263.13101	1.84731
3261.20245	1.85229
3259.27389	1.85193
3257.34532	1.84070
3255.41676	1.83017
3253.48819	1.82014
3251.55963	1.80825
3249.63106	1.80293
3247.70250	1.79790
3245.77393	1.78197
3243.84537	1.76706
3241.91681	1.76496
3239.98824	1.76518
3238.05968	1.75732
3236.13111	1.74787
3234.20255	1.74420
3232.27398	1.74443
3230.34542	1.74419
3228.41685	1.73809
3226.48829	1.72776
3224.55973	1.72544
3222.63116	1.72842
3220.70260	1.72420
3218.77403	1.71470
3216.84547	1.70283
3214.91690	1.69054
3212.98834	1.68195
3211.05977	1.67611
3209.13121	1.67466
3207.20265	1.67761
3205.27408	1.67702
3203.34552	1.67045
3201.41695	1.66514
3199.48839	1.66321
3197.55982	1.65773
3195.63126	1.64518
3193.70269	1.63117
3191.77413	1.62398
3189.84557	1.62305
3187.91700	1.62018
3185.98844	1.61417
3184.05987	1.60926
3182.13131	1.60272
3180.20274	1.58936
3178.27418	1.57739
3176.34562	1.57697
3174.41705	1.57960
3172.48849	1.57626
3170.55992	1.57238
3168.63136	1.57205
3166.70279	1.57115
3164.77423	1.56363
3162.84566	1.55161
3160.91710	1.54407
3158.98854	1.54062
3157.05997	1.53503
3155.13141	1.52872
3153.20284	1.52412
3151.27428	1.52140
3149.34571	1.52098
3147.41715	1.51878
3145.48858	1.51182
3143.56002	1.50512
3141.63146	1.50221
3139.70289	1.50001
3137.77433	1.49733
3135.84576	1.49507
3133.91720	1.49302
3131.98863	1.49308
3130.06007	1.49377
3128.13150	1.49194
3126.20294	1.49105
3124.27438	1.49296
3122.34581	1.49406
3120.41725	1.49280
3118.48868	1.49113
3116.56012	1.48887
3114.63155	1.48497
3112.70299	1.48280
3110.77442	1.48355
3108.84586	1.48380
3106.91730	1.48283
3104.98873	1.48313
3103.06017	1.48553
3101.13160	1.48692
3099.20304	1.48439
3097.27447	1.47942
3095.34591	1.47397
3093.41734	1.46764
3091.48878	1.46231
3089.56022	1.46023
3087.63165	1.45695
3085.70309	1.45111
3083.77452	1.44984
3081.84596	1.45298
3079.91739	1.45238
3077.98883	1.44840
3076.06026	1.44525
3074.13170	1.43946
3072.20314	1.43224
3070.27457	1.43105
3068.34601	1.43450
3066.41744	1.43571
3064.48888	1.43173
3062.56031	1.42455
3060.63175	1.41805
3058.70318	1.41180
3056.77462	1.40447
3054.84606	1.40011
3052.91749	1.39994
3050.98893	1.39738
3049.06036	1.38967
3047.13180	1.38285
3045.20323	1.37918
3043.27467	1.37328
3041.34610	1.36385
3039.41754	1.35515
3037.48898	1.34793
3035.56041	1.34176
3033.63185	1.33846
3031.70328	1.33685
3029.77472	1.33375
3027.84615	1.32881
3025.91759	1.32279
3023.98903	1.31718
3022.06046	1.31395
3020.13190	1.31041
3018.20333	1.30368
3016.27477	1.29809
3014.34620	1.29749
3012.41764	1.29889
3010.48907	1.29757
3008.56051	1.29379
3006.63195	1.29151
3004.70338	1.29078
3002.77482	1.28925
3000.84625	1.28863
2998.91769	1.29054
2996.98912	1.29223
2995.06056	1.29199
2993.13199	1.29159
2991.20343	1.29251
2989.27487	1.29582
2987.34630	1.30246
2985.41774	1.31209
2983.48917	1.32289
2981.56061	1.33147
2979.63204	1.33663
2977.70348	1.34183
2975.77491	1.34970
2973.84635	1.35920
2971.91779	1.36905
2969.98922	1.37781
2968.06066	1.38537
2966.13209	1.39499
2964.20353	1.40548
2962.27496	1.41095
2960.34640	1.41065
2958.41783	1.40822
2956.48927	1.40392
2954.56071	1.39700
2952.63214	1.39245
2950.70358	1.39384
2948.77501	1.39657
2946.84645	1.39514
2944.91788	1.39187
2942.98932	1.39557
2941.06075	1.40849
2939.13219	1.42183
2937.20363	1.42973
2935.27506	1.43672
2933.34650	1.44844
2931.41793	1.46400
2929.48937	1.47833
2927.56080	1.48820
2925.63224	1.49368
2923.70367	1.49653
2921.77511	1.49984
2919.84655	1.50304
2917.91798	1.49813
2915.98942	1.47988
2914.06085	1.45232
2912.13229	1.42247
2910.20372	1.39592
2908.27516	1.37499
2906.34659	1.35963
2904.41803	1.34984
2902.48947	1.34400
2900.56090	1.33829
2898.63234	1.33199
2896.70377	1.32717
2894.77521	1.32297
2892.84664	1.31748
2890.91808	1.31193
2888.98952	1.30785
2887.06095	1.30396
2885.13239	1.29979
2883.20382	1.29755
2881.27526	1.29829
2879.34669	1.30023
2877.41813	1.30135
2875.48956	1.30024
2873.56100	1.29511
2871.63244	1.28673
2869.70387	1.27895
2867.77531	1.27377
2865.84674	1.27026
2863.91818	1.26714
2861.98961	1.26580
2860.06105	1.26844
2858.13248	1.27452
2856.20392	1.28366
2854.27536	1.29678
2852.34679	1.31109
2850.41823	1.31654
2848.48966	1.30273
2846.56110	1.27221
2844.63253	1.23810
2842.70397	1.20989
2840.77540	1.18957
2838.84684	1.17604
2836.91828	1.16614
2834.98971	1.15651
2833.06115	1.14703
2831.13258	1.13931
2829.20402	1.13414
2827.27545	1.13104
2825.34689	1.12731
2823.41832	1.12068
2821.48976	1.11342
2819.56120	1.10849
2817.63263	1.10462
2815.70407	1.09993
2813.77550	1.09550
2811.84694	1.09254
2809.91837	1.08960
2807.98981	1.08560
2806.06124	1.08208
2804.13268	1.07984
2802.20412	1.07805
2800.27555	1.07582
2798.34699	1.07285
2796.41842	1.06992
2794.48986	1.06723
2792.56129	1.06397
2790.63273	1.06037
2788.70416	1.05766
2786.77560	1.05614
2784.84704	1.05465
2782.91847	1.05227
2780.98991	1.04956
2779.06134	1.04728
2777.13278	1.04537
2775.20421	1.04322
2773.27565	1.04033
2771.34708	1.03722
2769.41852	1.03489
2767.48996	1.03360
2765.56139	1.03280
2763.63283	1.03132
2761.70426	1.02851
2759.77570	1.02507
2757.84713	1.02207
2755.91857	1.01982
2753.99001	1.01813
2752.06144	1.01693
2750.13288	1.01558
2748.20431	1.01359
2746.27575	1.01146
2744.34718	1.00902
2742.41862	1.00648
2740.49005	1.00506
2738.56149	1.00453
2736.63293	1.00382
2734.70436	1.00295
2732.77580	1.00222
2730.84723	1.00087
2728.91867	0.99854
2726.99010	0.99641
2725.06154	0.99528
2723.13297	0.99405
2721.20441	0.99163
2719.27585	0.98888
2717.34728	0.98628
2715.41872	0.98347
2713.49015	0.98149
2711.56159	0.98046
2709.63302	0.97919
2707.70446	0.97788
2705.77589	0.97661
2703.84733	0.97453
2701.91877	0.97154
2699.99020	0.96822
2698.06164	0.96522
2696.13307	0.96344
2694.20451	0.96260
2692.27594	0.96168
2690.34738	0.96109
2688.41881	0.96111
2686.49025	0.96044
2684.56169	0.95822
2682.63312	0.95540
2680.70456	0.95315
2678.77599	0.95148
2676.84743	0.94991
2674.91886	0.94830
2672.99030	0.94657
2671.06173	0.94450
2669.13317	0.94270
2667.20461	0.94147
2665.27604	0.93956
2663.34748	0.93679
2661.41891	0.93459
2659.49035	0.93349
2657.56178	0.93307
2655.63322	0.93220
2653.70465	0.93012
2651.77609	0.92797
2649.84753	0.92672
2647.91896	0.92581
2645.99040	0.92452
2644.06183	0.92251
2642.13327	0.92047
2640.20470	0.91909
2638.27614	0.91817
2636.34757	0.91737
2634.41901	0.91633
2632.49045	0.91540
2630.56188	0.91492
2628.63332	0.91437
2626.70475	0.91380
2624.77619	0.91335
2622.84762	0.91268
2620.91906	0.91178
2618.99049	0.91098
2617.06193	0.91057
2615.13337	0.91023
2613.20480	0.90924
2611.27624	0.90776
2609.34767	0.90668
2607.41911	0.90655
2605.49054	0.90668
2603.56198	0.90597
2601.63342	0.90456
2599.70485	0.90303
2597.77629	0.90153
2595.84772	0.90007
2593.91916	0.89849
2591.99059	0.89671
2590.06203	0.89494
2588.13346	0.89320
2586.20490	0.89136
2584.27634	0.88948
2582.34777	0.88779
2580.41921	0.88633
2578.49064	0.88482
2576.56208	0.88340
2574.63351	0.88234
2572.70495	0.88140
2570.77638	0.88051
2568.84782	0.87934
2566.91926	0.87705
2564.99069	0.87413
2563.06213	0.87190
2561.13356	0.87054
2559.20500	0.86951
2557.27643	0.86853
2555.34787	0.86784
2553.41930	0.86703
2551.49074	0.86546
2549.56218	0.86403
2547.63361	0.86336
2545.70505	0.86241
2543.77648	0.86086
2541.84792	0.85940
2539.91935	0.85814
2537.99079	0.85692
2536.06222	0.85602
2534.13366	0.85556
2532.20510	0.85510
2530.27653	0.85406
2528.34797	0.85256
2526.41940	0.85150
2524.49084	0.85079
2522.56227	0.84971
2520.63371	0.84905
2518.70514	0.84897
2516.77658	0.84827
2514.84802	0.84717
2512.91945	0.84652
2510.99089	0.84610
2509.06232	0.84556
2507.13376	0.84475
2505.20519	0.84371
2503.27663	0.84250
2501.34806	0.84142
2499.41950	0.84101
2497.49094	0.84105
2495.56237	0.84057
2493.63381	0.83967
2491.70524	0.83905
2489.77668	0.83868
2487.84811	0.83814
2485.91955	0.83695
2483.99098	0.83524
2482.06242	0.83385
2480.13386	0.83294
2478.20529	0.83202
2476.27673	0.83073
2474.34816	0.82906
2472.41960	0.82747
2470.49103	0.82612
2468.56247	0.82435
2466.63391	0.82206
2464.70534	0.82007
2462.77678	0.81856
2460.84821	0.81722
2458.91965	0.81605
2456.99108	0.81493
2455.06252	0.81375
2453.13395	0.81236
2451.20539	0.81084
2449.27683	0.80966
2447.34826	0.80890
2445.41970	0.80827
2443.49113	0.80754
2441.56257	0.80677
2439.63400	0.80595
2437.70544	0.80489
2435.77687	0.80353
2433.84831	0.80192
2431.91975	0.80053
2429.99118	0.79998
2428.06262	0.79958
2426.13405	0.79822
2424.20549	0.79630
2422.27692	0.79498
2420.34836	0.79428
2418.41979	0.79338
2416.49123	0.79195
2414.56267	0.79011
2412.63410	0.78822
2410.70554	0.78676
2408.77697	0.78574
2406.84841	0.78477
2404.91984	0.78339
2402.99128	0.78152
2401.06271	0.77972
2399.13415	0.77854
2397.20559	0.77764
2395.27702	0.77655
2393.34846	0.77546
2391.41989	0.77463
2389.49133	0.77420
2387.56276	0.77432
2385.63420	0.77468
2383.70563	0.77472
2381.77707	0.77465
2379.84851	0.77515
2377.91994	0.77613
2375.99138	0.77755
2374.06281	0.77941
2372.13425	0.77969
2370.20568	0.77518
2368.27712	0.76888
2366.34855	0.76866
2364.41999	0.77282
2362.49143	0.77356
2360.56286	0.77154
2358.63430	0.77197
2356.70573	0.77545
2354.77717	0.77554
2352.84860	0.77187
2350.92004	0.77049
2348.99147	0.77212
2347.06291	0.77509
2345.13435	0.77770
2343.20578	0.77686
2341.27722	0.77339
2339.34865	0.77212
2337.42009	0.77313
2335.49152	0.77373
2333.56296	0.77325
2331.63440	0.77149
2329.70583	0.76864
2327.77727	0.76652
2325.84870	0.76580
2323.92014	0.76647
2321.99157	0.76842
2320.06301	0.76936
2318.13444	0.76756
2316.20588	0.76448
2314.27732	0.76225
2312.34875	0.76093
2310.42019	0.75954
2308.49162	0.75819
2306.56306	0.75715
2304.63449	0.75591
2302.70593	0.75406
2300.77736	0.75161
2298.84880	0.74910
2296.92024	0.74710
2294.99167	0.74528
2293.06311	0.74349
2291.13454	0.74221
2289.20598	0.74114
2287.27741	0.73957
2285.34885	0.73763
2283.42028	0.73578
2281.49172	0.73442
2279.56316	0.73362
2277.63459	0.73290
2275.70603	0.73200
2273.77746	0.73120
2271.84890	0.73081
2269.92033	0.73099
2267.99177	0.73158
2266.06320	0.73201
2264.13464	0.73213
2262.20608	0.73220
2260.27751	0.73228
2258.34895	0.73225
2256.42038	0.73200
2254.49182	0.73165
2252.56325	0.73150
2250.63469	0.73161
2248.70612	0.73203
2246.77756	0.73253
2244.84900	0.73244
2242.92043	0.73170
2240.99187	0.73133
2239.06330	0.73177
2237.13474	0.73227
2235.20617	0.73225
2233.27761	0.73191
2231.34904	0.73163
2229.42048	0.73166
2227.49192	0.73191
2225.56335	0.73206
2223.63479	0.73192
2221.70622	0.73167
2219.77766	0.73143
2217.84909	0.73119
2215.92053	0.73118
2213.99196	0.73149
2212.06340	0.73187
2210.13484	0.73221
2208.20627	0.73216
2206.27771	0.73156
2204.34914	0.73108
2202.42058	0.73104
2200.49201	0.73111
2198.56345	0.73093
2196.63488	0.73037
2194.70632	0.72933
2192.77776	0.72779
2190.84919	0.72588
2188.92063	0.72392
2186.99206	0.72228
2185.06350	0.72104
2183.13493	0.71979
2181.20637	0.71809
2179.27781	0.71602
2177.34924	0.71406
2175.42068	0.71259
2173.49211	0.71139
2171.56355	0.71011
2169.63498	0.70888
2167.70642	0.70784
2165.77785	0.70665
2163.84929	0.70527
2161.92073	0.70399
2159.99216	0.70279
2158.06360	0.70162
2156.13503	0.70044
2154.20647	0.69903
2152.27790	0.69768
2150.34934	0.69694
2148.42077	0.69648
2146.49221	0.69568
2144.56365	0.69483
2142.63508	0.69428
2140.70652	0.69378
2138.77795	0.69338
2136.84939	0.69334
2134.92082	0.69340
2132.99226	0.69333
2131.06369	0.69319
2129.13513	0.69301
2127.20657	0.69292
2125.27800	0.69320
2123.34944	0.69374
2121.42087	0.69399
2119.49231	0.69364
2117.56374	0.69304
2115.63518	0.69257
2113.70661	0.69225
2111.77805	0.69199
2109.84949	0.69186
2107.92092	0.69193
2105.99236	0.69211
2104.06379	0.69215
2102.13523	0.69180
2100.20666	0.69133
2098.27810	0.69131
2096.34953	0.69146
2094.42097	0.69107
2092.49241	0.69026
2090.56384	0.68955
2088.63528	0.68920
2086.70671	0.68916
2084.77815	0.68923
2082.84958	0.68908
2080.92102	0.68865
2078.99245	0.68811
2077.06389	0.68751
2075.13533	0.68681
2073.20676	0.68629
2071.27820	0.68595
2069.34963	0.68542
2067.42107	0.68474
2065.49250	0.68418
2063.56394	0.68375
2061.63537	0.68322
2059.70681	0.68253
2057.77825	0.68172
2055.84968	0.68065
2053.92112	0.67922
2051.99255	0.67756
2050.06399	0.67581
2048.13542	0.67401
2046.20686	0.67229
2044.27830	0.67057
2042.34973	0.66843
2040.42117	0.66593
2038.49260	0.66364
2036.56404	0.66169
2034.63547	0.65976
2032.70691	0.65763
2030.77834	0.65531
2028.84978	0.65321
2026.92122	0.65164
2024.99265	0.65024
2023.06409	0.64885
2021.13552	0.64783
2019.20696	0.64688
2017.27839	0.64563
2015.34983	0.64469
2013.42126	0.64448
2011.49270	0.64451
2009.56414	0.64433
2007.63557	0.64394
2005.70701	0.64336
2003.77844	0.64273
2001.84988	0.64233
1999.92131	0.64209
1997.99275	0.64162
1996.06418	0.64096
1994.13562	0.64006
1992.20706	0.63874
1990.27849	0.63728
1988.34993	0.63602
1986.42136	0.63505
1984.49280	0.63425
1982.56423	0.63354
1980.63567	0.63303
1978.70710	0.63242
1976.77854	0.63151
1974.84998	0.63089
1972.92141	0.63096
1970.99285	0.63134
1969.06428	0.63161
1967.13572	0.63175
1965.20715	0.63216
1963.27859	0.63293
1961.35002	0.63374
1959.42146	0.63433
1957.49290	0.63471
1955.56433	0.63503
1953.63577	0.63536
1951.70720	0.63569
1949.77864	0.63600
1947.85007	0.63622
1945.92151	0.63617
1943.99294	0.63553
1942.06438	0.63431
1940.13582	0.63316
1938.20725	0.63205
1936.27869	0.63059
1934.35012	0.62896
1932.42156	0.62726
1930.49299	0.62538
1928.56443	0.62328
1926.63586	0.62109
1924.70730	0.61903
1922.77874	0.61721
1920.85017	0.61584
1918.92161	0.61439
1916.99304	0.61247
1915.06448	0.61080
1913.13591	0.60964
1911.20735	0.60858
1909.27878	0.60757
1907.35022	0.60684
1905.42166	0.60621
1903.49309	0.60560
1901.56453	0.60536
1899.63596	0.60535
1897.70740	0.60509
1895.77883	0.60469
1893.85027	0.60463
1891.92171	0.60461
1889.99314	0.60396
1888.06458	0.60310
1886.13601	0.60256
1884.20745	0.60189
1882.27888	0.60103
1880.35032	0.60019
1878.42175	0.59915
1876.49319	0.59774
1874.56463	0.59616
1872.63606	0.59477
1870.70750	0.59355
1868.77893	0.59194
1866.85037	0.59029
1864.92180	0.58952
1862.99324	0.58918
1861.06467	0.58862
1859.13611	0.58807
1857.20755	0.58787
1855.27898	0.58788
1853.35042	0.58807
1851.42185	0.58860
1849.49329	0.58934
1847.56472	0.58992
1845.63616	0.59027
1843.70759	0.59070
1841.77903	0.59151
1839.85047	0.59243
1837.92190	0.59311
1835.99334	0.59334
1834.06477	0.59336
1832.13621	0.59374
1830.20764	0.59454
1828.27908	0.59521
1826.35051	0.59530
1824.42195	0.59493
1822.49339	0.59465
1820.56482	0.59451
1818.63626	0.59434
1816.70769	0.59428
1814.77913	0.59451
1812.85056	0.59491
1810.92200	0.59509
1808.99343	0.59480
1807.06487	0.59430
1805.13631	0.59388
1803.20774	0.59334
1801.27918	0.59260
1799.35061	0.59210
1797.42205	0.59193
1795.49348	0.59171
1793.56492	0.59061
1791.63635	0.58874
1789.70779	0.58780
1787.77923	0.58764
1785.85066	0.58736
1783.92210	0.58693
1781.99353	0.58640
1780.06497	0.58557
1778.13640	0.58484
1776.20784	0.58440
1774.27927	0.58428
1772.35071	0.58438
1770.42215	0.58462
1768.49358	0.58500
1766.56502	0.58558
1764.63645	0.58666
1762.70789	0.58817
1760.77932	0.59006
1758.85076	0.59235
1756.92220	0.59547
1754.99363	0.59918
1753.06507	0.60303
1751.13650	0.60807
1749.20794	0.61495
1747.27937	0.62202
1745.35081	0.62815
1743.42224	0.63382
1741.49368	0.63944
1739.56512	0.64464
1737.63655	0.64861
1735.70799	0.65199
1733.77942	0.65664
1731.85086	0.66113
1729.92229	0.66504
1727.99373	0.66984
1726.06516	0.67583
1724.13660	0.68359
1722.20804	0.69169
1720.27947	0.69896
1718.35091	0.70880
1716.42234	0.72551
1714.49378	0.74104
1712.56521	0.75345
1710.63665	0.76649
1708.70808	0.78134
1706.77952	0.80237
1704.85096	0.83088
1702.92239	0.85822
1700.99383	0.89581
1699.06526	0.95459
1697.13670	1.01316
1695.20813	1.07375
1693.27957	1.11994
1691.35100	1.15763
1689.42244	1.20331
1687.49388	1.24609
1685.56531	1.29028
1683.63675	1.36333
1681.70818	1.41862
1679.77962	1.44968
1677.85105	1.47887
1675.92249	1.51195
1673.99392	1.54535
1672.06536	1.57140
1670.13680	1.59621
1668.20823	1.62031
1666.27967	1.63384
1664.35110	1.64484
1662.42254	1.65879
1660.49397	1.66956
1658.56541	1.67504
1656.63684	1.67626
1654.70828	1.67527
1652.77972	1.67534
1650.85115	1.67884
1648.92259	1.67978
1646.99402	1.67190
1645.06546	1.66170
1643.13689	1.65687
1641.20833	1.65499
1639.27976	1.65355
1637.35120	1.65121
1635.42264	1.64424
1633.49407	1.63717
1631.56551	1.63421
1629.63694	1.62991
1627.70838	1.61959
1625.77981	1.60352
1623.85125	1.58551
1621.92269	1.56838
1619.99412	1.55447
1618.06556	1.53476
1616.13699	1.49765
1614.20843	1.46459
1612.27986	1.43931
1610.35130	1.41132
1608.42273	1.38057
1606.49417	1.35307
1604.56561	1.33051
1602.63704	1.31241
1600.70848	1.30056
1598.77991	1.29375
1596.85135	1.28921
1594.92278	1.28620
1592.99422	1.28594
1591.06565	1.28920
1589.13709	1.29459
1587.20853	1.30184
1585.27996	1.31228
1583.35140	1.32621
1581.42283	1.34129
1579.49427	1.35529
1577.56570	1.37231
1575.63714	1.39656
1573.70857	1.41405
1571.78001	1.42550
1569.85145	1.44077
1567.92288	1.45689
1565.99432	1.46869
1564.06575	1.47938
1562.13719	1.48727
1560.20862	1.49580
1558.28006	1.52047
1556.35149	1.53787
1554.42293	1.54204
1552.49437	1.54202
1550.56580	1.54076
1548.63724	1.53928
1546.70867	1.54009
1544.78011	1.54338
1542.85154	1.54451
1540.92298	1.53284
1538.99441	1.51528
1537.06585	1.50866
1535.13729	1.50051
1533.20872	1.48556
1531.28016	1.47286
1529.35159	1.46629
1527.42303	1.46111
1525.49446	1.45425
1523.56590	1.44456
1521.63733	1.43275
1519.70877	1.42769
1517.78021	1.42346
1515.85164	1.41129
1513.92308	1.39509
1511.99451	1.37828
1510.06595	1.36137
1508.13738	1.33107
1506.20882	1.27909
1504.28025	1.25494
1502.35169	1.23905
1500.42313	1.21839
1498.49456	1.19236
1496.56600	1.16317
1494.63743	1.14039
1492.70887	1.12446
1490.78030	1.10606
1488.85174	1.08268
1486.92317	1.06699
1484.99461	1.05918
1483.06605	1.05543
1481.13748	1.05542
1479.20892	1.05876
1477.28035	1.06525
1475.35179	1.07613
1473.42322	1.09565
1471.49466	1.11950
1469.56610	1.13435
1467.63753	1.14408
1465.70897	1.15416
1463.78040	1.16423
1461.85184	1.17104
1459.92327	1.17625
1457.99471	1.18310
1456.06614	1.18971
1454.13758	1.19295
1452.20902	1.19453
1450.28045	1.19433
1448.35189	1.19183
1446.42332	1.18700
1444.49476	1.18108
1442.56619	1.17487
1440.63763	1.16901
1438.70906	1.16256
1436.78050	1.15184
1434.85194	1.13938
1432.92337	1.12981
1430.99481	1.12032
1429.06624	1.11127
1427.13768	1.10591
1425.20911	1.10380
1423.28055	1.10404
1421.35198	1.10590
1419.42342	1.10922
1417.49486	1.11325
1415.56629	1.11530
1413.63773	1.11563
1411.70916	1.11515
1409.78060	1.11484
1407.85203	1.11559
1405.92347	1.11707
1403.99490	1.11832
1402.06634	1.11939
1400.13778	1.12076
1398.20921	1.12214
1396.28065	1.12322
1394.35208	1.12420
1392.42352	1.12577
1390.49495	1.12882
1388.56639	1.13532
1386.63782	1.14676
1384.70926	1.15957
1382.78070	1.17047
1380.85213	1.17756
1378.92357	1.17876
1376.99500	1.17399
1375.06644	1.16357
1373.13787	1.14921
1371.20931	1.13377
1369.28074	1.11601
1367.35218	1.09731
1365.42362	1.08102
1363.49505	1.06507
1361.56649	1.05014
1359.63792	1.04054
1357.70936	1.03517
1355.78079	1.03177
1353.85223	1.02909
1351.92366	1.02725
1349.99510	1.02660
1348.06654	1.02658
1346.13797	1.02694
1344.20941	1.02792
1342.28084	1.02934
1340.35228	1.03172
1338.42371	1.03590
1336.49515	1.04117
1334.56659	1.04701
1332.63802	1.05367
1330.70946	1.06092
1328.78089	1.06748
1326.85233	1.07184
1324.92376	1.07414
1322.99520	1.07603
1321.06663	1.07827
1319.13807	1.08030
1317.20951	1.08165
1315.28094	1.08226
1313.35238	1.08217
1311.42381	1.08129
1309.49525	1.07950
1307.56668	1.07709
1305.63812	1.07486
1303.70955	1.07309
1301.78099	1.07112
1299.85243	1.06837
1297.92386	1.06441
1295.99530	1.06014
1294.06673	1.05763
1292.13817	1.05749
1290.20960	1.05888
1288.28104	1.06069
1286.35247	1.06264
1284.42391	1.06497
1282.49535	1.06733
1280.56678	1.06949
1278.63822	1.07199
1276.70965	1.07530
1274.78109	1.07940
1272.85252	1.08433
1270.92396	1.09066
1268.99539	1.09789
1267.06683	1.10389
1265.13827	1.10740
1263.20970	1.10895
1261.28114	1.10902
1259.35257	1.10792
1257.42401	1.10659
1255.49544	1.10521
1253.56688	1.10320
1251.63831	1.10132
1249.70975	1.10071
1247.78119	1.10048
1245.85262	1.09935
1243.92406	1.09748
1241.99549	1.09559
1240.06693	1.09411
1238.13836	1.09276
1236.20980	1.09068
1234.28123	1.08768
1232.35267	1.08438
1230.42411	1.08065
1228.49554	1.07582
1226.56698	1.07041
1224.63841	1.06538
1222.70985	1.06088
1220.78128	1.05681
1218.85272	1.05305
1216.92415	1.04986
1214.99559	1.04831
1213.06703	1.04901
1211.13846	1.05142
1209.20990	1.05451
1207.28133	1.05599
1205.35277	1.05323
1203.42420	1.04609
1201.49564	1.03615
1199.56708	1.02480
1197.63851	1.01296
1195.70995	1.00108
1193.78138	0.98950
1191.85282	0.97920
1189.92425	0.97115
1187.99569	0.96584
1186.06712	0.96317
1184.13856	0.96247
1182.21000	0.96355
1180.28143	0.96742
1178.35287	0.97444
1176.42430	0.98320
1174.49574	0.99300
1172.56717	1.00471
1170.63861	1.01910
1168.71004	1.03660
1166.78148	1.05741
1164.85292	1.08023
1162.92435	1.10204
1160.99579	1.11952
1159.06722	1.12965
1157.13866	1.13024
1155.21009	1.12057
1153.28153	1.10256
1151.35296	1.08074
1149.42440	1.05864
1147.49584	1.03797
1145.56727	1.02001
1143.63871	1.00551
1141.71014	0.99523
1139.78158	0.98938
1137.85301	0.98797
1135.92445	0.99127
1133.99588	0.99843
1132.06732	1.00874
1130.13876	1.02305
1128.21019	1.04149
1126.28163	1.06185
1124.35306	1.08159
1122.42450	1.10032
1120.49593	1.11801
1118.56737	1.13312
1116.63880	1.14456
1114.71024	1.15231
1112.78168	1.15656
1110.85311	1.15773
1108.92455	1.15754
1106.99598	1.15819
1105.06742	1.16021
1103.13885	1.16357
1101.21029	1.16842
1099.28172	1.17451
1097.35316	1.18195
1095.42460	1.19119
1093.49603	1.20248
1091.56747	1.21582
1089.63890	1.23054
1087.71034	1.24635
1085.78177	1.26457
1083.85321	1.28434
1081.92464	1.30004
1079.99608	1.30828
1078.06752	1.31091
1076.13895	1.30744
1074.21039	1.29640
1072.28182	1.28098
1070.35326	1.26435
1068.42469	1.24762
1066.49613	1.23285
1064.56756	1.22174
1062.63900	1.21400
1060.71044	1.20854
1058.78187	1.20491
1056.85331	1.20284
1054.92474	1.20148
1052.99618	1.20101
1051.06761	1.20184
1049.13905	1.20318
1047.21049	1.20550
1045.28192	1.21029
1043.35336	1.21701
1041.42479	1.22359
1039.49623	1.22821
1037.56766	1.22925
1035.63910	1.22569
1033.71053	1.21839
1031.78197	1.20904
1029.85341	1.19809
1027.92484	1.18512
1025.99628	1.16999
1024.06771	1.15337
1022.13915	1.13722
1020.21058	1.12336
1018.28202	1.11126
1016.35345	1.09861
1014.42489	1.08400
1012.49633	1.06755
1010.56776	1.04998
1008.63920	1.03214
1006.71063	1.01611
1004.78207	1.00402
1002.85350	0.99543
1000.92494	0.98918
998.99637	0.98550
997.06781	0.98454
995.13925	0.98523
993.21068	0.98558
991.28212	0.98365
989.35355	0.97907
987.42499	0.97308
985.49642	0.96673
983.56786	0.96014
981.63929	0.95377
979.71073	0.94859
977.78217	0.94413
975.85360	0.93856
973.92504	0.93075
971.99647	0.92094
970.06791	0.90988
968.13934	0.89903
966.21078	0.89047
964.28221	0.88560
962.35365	0.88562
960.42509	0.89215
958.49652	0.90434
956.56796	0.91709
954.63939	0.92511
952.71083	0.92720
950.78226	0.92526
948.85370	0.92206
946.92513	0.92012
944.99657	0.92063
943.06801	0.92293
941.13944	0.92571
939.21088	0.92818
937.28231	0.92962
935.35375	0.92998
933.42518	0.92950
931.49662	0.92767
929.56805	0.92486
927.63949	0.92225
925.71093	0.91974
923.78236	0.91612
921.85380	0.91110
919.92523	0.90489
917.99667	0.89789
916.06810	0.89161
914.13954	0.88669
912.21098	0.88271
910.28241	0.88002
908.35385	0.87882
906.42528	0.87926
904.49672	0.88184
902.56815	0.88597
900.63959	0.89023
898.71102	0.89352
896.78246	0.89484
894.85390	0.89399
892.92533	0.89235
890.99677	0.89059
889.06820	0.88784
887.13964	0.88425
885.21107	0.88090
883.28251	0.87781
881.35394	0.87473
879.42538	0.87195
877.49682	0.86955
875.56825	0.86720
873.63969	0.86494
871.71112	0.86281
869.78256	0.86034
867.85399	0.85782
865.92543	0.85647
863.99686	0.85629
862.06830	0.85635
860.13974	0.85706
858.21117	0.85927
856.28261	0.86278
854.35404	0.86742
852.42548	0.87289
850.49691	0.87786
848.56835	0.88184
846.63978	0.88593
844.71122	0.89148
842.78266	0.89861
840.85409	0.90640
838.92553	0.91385
836.99696	0.92027
835.06840	0.92628
833.13983	0.93306
831.21127	0.93991
829.28270	0.94537
827.35414	0.94943
825.42558	0.95302
823.49701	0.95636
821.56845	0.95932
819.63988	0.96190
817.71132	0.96362
815.78275	0.96448
813.85419	0.96580
811.92562	0.96769
809.99706	0.96882
808.06850	0.96918
806.13993	0.96953
804.21137	0.97027
802.28280	0.97119
800.35424	0.97135
798.42567	0.97011
796.49711	0.96786
794.56854	0.96640
792.63998	0.96695
790.71142	0.96831
788.78285	0.96921
786.85429	0.97022
784.92572	0.97273
782.99716	0.97615
781.06859	0.97841
779.14003	0.97968
777.21147	0.98120
775.28290	0.98324
773.35434	0.98635
771.42577	0.99043
769.49721	0.99411
767.56864	0.99663
765.64008	0.99835
763.71151	1.00004
761.78295	1.00179
759.85439	1.00294
757.92582	1.00348
755.99726	1.00408
754.06869	1.00481
752.14013	1.00488
750.21156	1.00443
748.28300	1.00464
746.35443	1.00455
744.42587	1.00224
742.49731	0.99848
740.56874	0.99490
738.64018	0.99214
736.71161	0.99026
734.78305	0.98896
732.85448	0.98825
730.92592	0.98906
728.99735	0.99247
727.06879	0.99732
725.14023	1.00186
723.21166	1.00699
721.28310	1.01371
719.35453	1.02085
717.42597	1.02750
715.49740	1.03553
713.56884	1.04649
711.64027	1.05848
709.71171	1.06925
707.78315	1.07864
705.85458	1.08679
703.92602	1.09401
701.99745	1.10143
700.06889	1.10868
698.14032	1.11388
696.21176	1.11602
694.28319	1.11486
692.35463	1.11061
690.42607	1.10442
688.49750	1.09747
686.56894	1.09018
684.64037	1.08276
682.71181	1.07464
680.78324	1.06652
678.85468	1.06011
676.92611	1.05299
674.99755	1.04380
673.06899	1.03771
671.14042	1.03736
669.21186	1.03982
667.28329	1.04126
665.35473	1.04304
663.42616	1.04695
661.49760	1.05263
659.56903	1.05962
657.64047	1.06736
655.71191	1.07526
653.78334	1.08367
651.85478	1.09137
649.92621	1.09664
647.99765	1.09991
646.06908	1.10146
644.14052	1.10157
642.21195	1.10022
640.28339	1.09452
638.35483	1.08353
636.42626	1.07037
634.49770	1.05696
632.56913	1.04398
630.64057	1.03172
628.71200	1.01988
626.78344	1.00952
624.85488	1.00084
622.92631	0.99213
620.99775	0.98457
619.06918	0.98002
617.14062	0.97746
615.21205	0.97654
613.28349	0.97867
611.35492	0.98418
609.42636	0.99159
607.49780	0.99960
605.56923	1.00899
603.64067	1.02101
601.71210	1.03530
599.78354	1.04866
