3997.91406	1.00084
3995.98550	0.99935
3994.05693	0.99602
3992.12837	0.99443
3990.19980	0.99512
3988.27124	0.99648
3986.34268	0.99816
3984.41411	0.99855
3982.48555	0.99599
3980.55698	0.99239
3978.62842	0.99006
3976.69985	0.98877
3974.77129	0.98816
3972.84272	0.98840
3970.91416	0.98858
3968.98560	0.98944
3967.05703	0.99236
3965.12847	0.99535
3963.19990	0.99685
3961.27134	0.99689
3959.34277	0.99503
3957.41421	0.99204
3955.48564	0.98949
3953.55708	0.98825
3951.62852	0.98879
3949.69995	0.99010
3947.77139	0.98929
3945.84282	0.98859
3943.91426	0.99093
3941.98569	0.99125
3940.05713	0.98883
3938.12856	0.98938
3936.20000	0.99171
3934.27144	0.99301
3932.34287	0.99499
3930.41431	0.99568
3928.48574	0.99142
3926.55718	0.98715
3924.62861	0.98699
3922.70005	0.98795
3920.77148	0.98806
3918.84292	0.98727
3916.91436	0.98607
3914.98579	0.98613
3913.05723	0.98644
3911.12866	0.98604
3909.20010	0.98557
3907.27153	0.98531
3905.34297	0.98386
3903.41440	0.97934
3901.48584	0.97568
3899.55728	0.97784
3897.62871	0.98233
3895.70015	0.98409
3893.77158	0.98206
3891.84302	0.97711
3889.91445	0.97453
3887.98589	0.97503
3886.05733	0.97410
3884.12876	0.97079
3882.20020	0.96995
3880.27163	0.97446
3878.34307	0.97907
3876.41450	0.97955
3874.48594	0.97725
3872.55737	0.97415
3870.62881	0.97215
3868.70025	0.97403
3866.77168	0.97812
3864.84312	0.97735
3862.91455	0.96956
3860.98599	0.96509
3859.05742	0.96636
3857.12886	0.96918
3855.20029	0.97211
3853.27173	0.97693
3851.34317	0.97656
3849.41460	0.97220
3847.48604	0.96859
3845.55747	0.96622
3843.62891	0.96518
3841.70034	0.96491
3839.77178	0.96461
3837.84321	0.96552
3835.91465	0.96708
3833.98609	0.96634
3832.05752	0.96209
3830.12896	0.95811
3828.20039	0.95807
3826.27183	0.96108
3824.34326	0.96509
3822.41470	0.96944
3820.48613	0.97119
3818.55757	0.97124
3816.62901	0.97281
3814.70044	0.97046
3812.77188	0.96536
3810.84331	0.96282
3808.91475	0.96397
3806.98618	0.96754
3805.05762	0.96882
3803.12905	0.96675
3801.20049	0.96418
3799.27193	0.96329
3797.34336	0.96442
3795.41480	0.96643
3793.48623	0.96663
3791.55767	0.96591
3789.62910	0.96560
3787.70054	0.96424
3785.77197	0.96311
3783.84341	0.96558
3781.91485	0.96883
3779.98628	0.96780
3778.05772	0.96230
3776.12915	0.95802
3774.20059	0.95739
3772.27202	0.95959
3770.34346	0.96204
3768.41489	0.96184
3766.48633	0.96145
3764.55777	0.96148
3762.62920	0.95932
3760.70064	0.95659
3758.77207	0.95573
3756.84351	0.95572
3754.91494	0.95653
3752.98638	0.95823
3751.05781	0.95663
3749.12925	0.95120
3747.20069	0.94689
3745.27212	0.94529
3743.34356	0.95111
3741.41499	0.95626
3739.48643	0.95416
3737.55786	0.94942
3735.62930	0.95194
3733.70074	0.95965
3731.77217	0.96278
3729.84361	0.96352
3727.91504	0.96267
3725.98648	0.96062
3724.05791	0.96058
3722.12935	0.96041
3720.20078	0.95798
3718.27222	0.95643
3716.34366	0.95459
3714.41509	0.95163
3712.48653	0.95145
3710.55796	0.95562
3708.62940	0.95776
3706.70083	0.95813
3704.77227	0.95866
3702.84370	0.95909
3700.91514	0.95868
3698.98658	0.95741
3697.05801	0.95591
3695.12945	0.95504
3693.20088	0.95498
3691.27232	0.95623
3689.34375	0.95935
3687.41519	0.96143
3685.48662	0.96266
3683.55806	0.96399
3681.62950	0.96461
3679.70093	0.96453
3677.77237	0.96387
3675.84380	0.96352
3673.91524	0.96586
3671.98667	0.97013
3670.05811	0.98022
3668.12954	0.98941
3666.20098	0.99096
3664.27242	0.99120
3662.34385	0.99279
3660.41529	0.99457
3658.48672	0.99786
3656.55816	1.00671
3654.62959	1.01582
3652.70103	1.01981
3650.77246	1.02490
3648.84390	1.03398
3646.91534	1.03611
3644.98677	1.03548
3643.05821	1.03749
3641.12964	1.04304
3639.20108	1.05036
3637.27251	1.05766
3635.34395	1.06352
3633.41538	1.06530
3631.48682	1.06339
3629.55826	1.06583
3627.62969	1.07687
3625.70113	1.08493
3623.77256	1.09084
3621.84400	1.09882
3619.91543	1.11201
3617.98687	1.12302
3616.05830	1.12320
3614.12974	1.12023
3612.20118	1.11952
3610.27261	1.12108
3608.34405	1.12733
3606.41548	1.13567
3604.48692	1.13958
3602.55835	1.14254
3600.62979	1.14932
3598.70123	1.15659
3596.77266	1.16153
3594.84410	1.16737
3592.91553	1.17243
3590.98697	1.17431
3589.05840	1.18061
3587.12984	1.19543
3585.20127	1.20299
3583.27271	1.20276
3581.34415	1.20375
3579.41558	1.20724
3577.48702	1.21114
3575.55845	1.21507
3573.62989	1.21965
3571.70132	1.22484
3569.77276	1.23080
3567.84419	1.23720
3565.91563	1.24347
3563.98707	1.24973
3562.05850	1.25384
3560.12994	1.25591
3558.20137	1.26024
3556.27281	1.26650
3554.34424	1.27181
3552.41568	1.27698
3550.48711	1.28185
3548.55855	1.28614
3546.62999	1.29255
3544.70142	1.30079
3542.77286	1.30632
3540.84429	1.30782
3538.91573	1.30867
3536.98716	1.31330
3535.05860	1.32053
3533.13003	1.32688
3531.20147	1.33383
3529.27291	1.34110
3527.34434	1.34454
3525.41578	1.34431
3523.48721	1.34472
3521.55865	1.34681
3519.63008	1.34988
3517.70152	1.35639
3515.77295	1.36639
3513.84439	1.37623
3511.91583	1.38323
3509.98726	1.38761
3508.05870	1.39175
3506.13013	1.39601
3504.20157	1.40438
3502.27300	1.41947
3500.34444	1.43022
3498.41587	1.43245
3496.48731	1.43412
3494.55875	1.43910
3492.63018	1.44473
3490.70162	1.44986
3488.77305	1.45560
3486.84449	1.45935
3484.91592	1.45801
3482.98736	1.45848
3481.05879	1.46589
3479.13023	1.46845
3477.20167	1.46100
3475.27310	1.45506
3473.34454	1.45797
3471.41597	1.46742
3469.48741	1.47696
3467.55884	1.48173
3465.63028	1.48612
3463.70171	1.49492
3461.77315	1.50330
3459.84459	1.50561
3457.91602	1.50124
3455.98746	1.49711
3454.05889	1.50210
3452.13033	1.50936
3450.20176	1.50711
3448.27320	1.49967
3446.34464	1.49787
3444.41607	1.50176
3442.48751	1.50450
3440.55894	1.50586
3438.63038	1.50758
3436.70181	1.50946
3434.77325	1.51431
3432.84468	1.51918
3430.91612	1.51751
3428.98756	1.51381
3427.05899	1.51457
3425.13043	1.51699
3423.20186	1.51630
3421.27330	1.51316
3419.34473	1.51100
3417.41617	1.51285
3415.48760	1.52164
3413.55904	1.53523
3411.63048	1.54038
3409.70191	1.53015
3407.77335	1.51775
3405.84478	1.51292
3403.91622	1.51543
3401.98765	1.52349
3400.05909	1.52840
3398.13052	1.52532
3396.20196	1.52067
3394.27340	1.52240
3392.34483	1.53214
3390.41627	1.53937
3388.48770	1.53708
3386.55914	1.53203
3384.63057	1.53170
3382.70201	1.53618
3380.77344	1.53790
3378.84488	1.53188
3376.91632	1.52356
3374.98775	1.52212
3373.05919	1.52971
3371.13062	1.53660
3369.20206	1.53289
3367.27349	1.52407
3365.34493	1.52024
3363.41636	1.52352
3361.48780	1.53310
3359.55924	1.54247
3357.63067	1.54194
3355.70211	1.53454
3353.77354	1.53088
3351.84498	1.53223
3349.91641	1.53184
3347.98785	1.52902
3346.05928	1.52919
3344.13072	1.53348
3342.20216	1.53816
3340.27359	1.54117
3338.34503	1.54433
3336.41646	1.54665
3334.48790	1.54618
3332.55933	1.54701
3330.63077	1.55056
3328.70220	1.55237
3326.77364	1.55303
3324.84508	1.55847
3322.91651	1.56783
3320.98795	1.57404
3319.05938	1.57531
3317.13082	1.57525
3315.20225	1.57604
3313.27369	1.57909
3311.34513	1.58565
3309.41656	1.59082
3307.48800	1.59057
3305.55943	1.59202
3303.63087	1.59669
3301.70230	1.59658
3299.77374	1.59306
3297.84517	1.59379
3295.91661	1.59858
3293.98805	1.60064
3292.05948	1.59726
3290.13092	1.59325
3288.20235	1.59094
3286.27379	1.58936
3284.34522	1.59081
3282.41666	1.59581
3280.48809	1.59779
3278.55953	1.59329
3276.63097	1.58913
3274.70240	1.58942
3272.77384	1.59089
3270.84527	1.58981
3268.91671	1.58174
3266.98814	1.56745
3265.05958	1.55646
3263.13101	1.55508
3261.20245	1.55773
3259.27389	1.55729
3257.34532	1.55619
3255.41676	1.55576
3253.48819	1.55291
3251.55963	1.54552
3249.63106	1.53349
3247.70250	1.52364
3245.77393	1.52283
3243.84537	1.52809
3241.91681	1.52857
3239.98824	1.51892
3238.05968	1.50756
3236.13111	1.49994
3234.20255	1.49212
3232.27398	1.48519
3230.34542	1.48291
3228.41685	1.48223
3226.48829	1.47859
3224.55973	1.47410
3222.63116	1.47324
3220.70260	1.47388
3218.77403	1.47110
3216.84547	1.46602
3214.91690	1.46090
3212.98834	1.45548
3211.05977	1.45152
3209.13121	1.44921
3207.20265	1.44395
3205.27408	1.43589
3203.34552	1.43235
3201.41695	1.43357
3199.48839	1.43287
3197.55982	1.43065
3195.63126	1.42926
3193.70269	1.42433
3191.77413	1.41624
3189.84557	1.41309
3187.91700	1.41479
3185.98844	1.41355
3184.05987	1.40884
3182.13131	1.40508
3180.20274	1.40296
3178.27418	1.40066
3176.34562	1.39642
3174.41705	1.39055
3172.48849	1.38611
3170.55992	1.38319
3168.63136	1.37834
3166.70279	1.37351
3164.77423	1.37140
3162.84566	1.36965
3160.91710	1.36829
3158.98854	1.36738
3157.05997	1.36364
3155.13141	1.35642
3153.20284	1.34809
3151.27428	1.34167
3149.34571	1.33826
3147.41715	1.33674
3145.48858	1.33741
3143.56002	1.33971
3141.63146	1.33985
3139.70289	1.33692
3137.77433	1.33412
3135.84576	1.33213
3133.91720	1.32951
3131.98863	1.32787
3130.06007	1.32878
3128.13150	1.33019
3126.20294	1.33076
3124.27438	1.33196
3122.34581	1.33427
3120.41725	1.33557
3118.48868	1.33559
3116.56012	1.33607
3114.63155	1.33578
3112.70299	1.33289
3110.77442	1.32876
3108.84586	1.32489
3106.91730	1.32126
3104.98873	1.31948
3103.06017	1.32065
3101.13160	1.32157
3099.20304	1.32073
3097.27447	1.31904
3095.34591	1.31713
3093.41734	1.31732
3091.48878	1.31801
3089.56022	1.31547
3087.63165	1.31165
3085.70309	1.31012
3083.77452	1.31138
3081.84596	1.31269
3079.91739	1.31144
3077.98883	1.30863
3076.06026	1.30507
3074.13170	1.30145
3072.20314	1.29994
3070.27457	1.29947
3068.34601	1.29750
3066.41744	1.29599
3064.48888	1.29677
3062.56031	1.29612
3060.63175	1.29098
3058.70318	1.28441
3056.77462	1.27987
3054.84606	1.27699
3052.91749	1.27426
3050.98893	1.27056
3049.06036	1.26612
3047.13180	1.26182
3045.20323	1.25787
3043.27467	1.25560
3041.34610	1.25465
3039.41754	1.25152
3037.48898	1.24554
3035.56041	1.24010
3033.63185	1.23776
3031.70328	1.23709
3029.77472	1.23482
3027.84615	1.23089
3025.91759	1.22714
3023.98903	1.22344
3022.06046	1.21947
3020.13190	1.21684
3018.20333	1.21673
3016.27477	1.21778
3014.34620	1.21759
3012.41764	1.21572
3010.48907	1.21356
3008.56051	1.21226
3006.63195	1.21198
3004.70338	1.21217
3002.77482	1.21204
3000.84625	1.21105
2998.91769	1.20947
2996.98912	1.20838
2995.06056	1.20868
2993.13199	1.21020
2991.20343	1.21241
2989.27487	1.21536
2987.34630	1.21820
2985.41774	1.22102
2983.48917	1.22569
2981.56061	1.23124
2979.63204	1.23576
2977.70348	1.23961
2975.77491	1.24262
2973.84635	1.24619
2971.91779	1.25360
2969.98922	1.26272
2968.06066	1.26913
2966.13209	1.27388
2964.20353	1.27815
2962.27496	1.28113
2960.34640	1.28404
2958.41783	1.28649
2956.48927	1.28569
2954.56071	1.28153
2952.63214	1.27634
2950.70358	1.27283
2948.77501	1.27277
2946.84645	1.27326
2944.91788	1.27225
2942.98932	1.27523
2941.06075	1.28460
2939.13219	1.29449
2937.20363	1.30133
2935.27506	1.30683
2933.34650	1.31295
2931.41793	1.32118
2929.48937	1.33190
2927.56080	1.34326
2925.63224	1.35320
2923.70367	1.35885
2921.77511	1.35822
2919.84655	1.35439
2917.91798	1.34945
2915.98942	1.34029
2914.06085	1.32513
2912.13229	1.30654
2910.20372	1.28829
2908.27516	1.27358
2906.34659	1.26391
2904.41803	1.25757
2902.48947	1.25231
2900.56090	1.24854
2898.63234	1.24553
2896.70377	1.24209
2894.77521	1.23977
2892.84664	1.23751
2890.91808	1.23317
2888.98952	1.22782
2887.06095	1.22203
2885.13239	1.21654
2883.20382	1.21402
2881.27526	1.21484
2879.34669	1.21621
2877.41813	1.21716
2875.48956	1.21735
2873.56100	1.21485
2871.63244	1.21053
2869.70387	1.20593
2867.77531	1.20106
2865.84674	1.19737
2863.91818	1.19631
2861.98961	1.19735
2860.06105	1.20004
2858.13248	1.20579
2856.20392	1.21483
2854.27536	1.22344
2852.34679	1.22840
2850.41823	1.22925
2848.48966	1.22254
2846.56110	1.20682
2844.63253	1.18788
2842.70397	1.16909
2840.77540	1.15227
2838.84684	1.14102
2836.91828	1.13436
2834.98971	1.12868
2833.06115	1.12306
2831.13258	1.11840
2829.20402	1.11552
2827.27545	1.11371
2825.34689	1.11102
2823.41832	1.10695
2821.48976	1.10301
2819.56120	1.09970
2817.63263	1.09632
2815.70407	1.09331
2813.77550	1.09102
2811.84694	1.08809
2809.91837	1.08423
2807.98981	1.08073
2806.06124	1.07831
2804.13268	1.07727
2802.20412	1.07705
2800.27555	1.07590
2798.34699	1.07332
2796.41842	1.07086
2794.48986	1.06945
2792.56129	1.06879
2790.63273	1.06835
2788.70416	1.06724
2786.77560	1.06509
2784.84704	1.06268
2782.91847	1.06117
2780.98991	1.06003
2779.06134	1.05744
2777.13278	1.05380
2775.20421	1.05033
2773.27565	1.04760
2771.34708	1.04604
2769.41852	1.04469
2767.48996	1.04245
2765.56139	1.04010
2763.63283	1.03861
2761.70426	1.03716
2759.77570	1.03506
2757.84713	1.03271
2755.91857	1.03010
2753.99001	1.02778
2752.06144	1.02686
2750.13288	1.02677
2748.20431	1.02578
2746.27575	1.02421
2744.34718	1.02318
2742.41862	1.02225
2740.49005	1.02112
2738.56149	1.01992
2736.63293	1.01903
2734.70436	1.01835
2732.77580	1.01664
2730.84723	1.01456
2728.91867	1.01342
2726.99010	1.01264
2725.06154	1.01204
2723.13297	1.01172
2721.20441	1.01081
2719.27585	1.00865
2717.34728	1.00593
2715.41872	1.00423
2713.49015	1.00362
2711.56159	1.00244
2709.63302	1.00015
2707.70446	0.99802
2705.77589	0.99697
2703.84733	0.99584
2701.91877	0.99360
2699.99020	0.99100
2698.06164	0.98884
2696.13307	0.98756
2694.20451	0.98698
2692.27594	0.98593
2690.34738	0.98377
2688.41881	0.98115
2686.49025	0.97906
2684.56169	0.97742
2682.63312	0.97564
2680.70456	0.97392
2678.77599	0.97290
2676.84743	0.97286
2674.91886	0.97356
2672.99030	0.97411
2671.06173	0.97398
2669.13317	0.97351
2667.20461	0.97288
2665.27604	0.97166
2663.34748	0.96970
2661.41891	0.96830
2659.49035	0.96827
2657.56178	0.96798
2655.63322	0.96671
2653.70465	0.96513
2651.77609	0.96315
2649.84753	0.96132
2647.91896	0.96039
2645.99040	0.95937
2644.06183	0.95746
2642.13327	0.95560
2640.20470	0.95425
2638.27614	0.95282
2636.34757	0.95178
2634.41901	0.95161
2632.49045	0.95082
2630.56188	0.94834
2628.63332	0.94574
2626.70475	0.94485
2624.77619	0.94513
2622.84762	0.94481
2620.91906	0.94373
2618.99049	0.94279
2617.06193	0.94209
2615.13337	0.94151
2613.20480	0.94092
2611.27624	0.94027
2609.34767	0.93972
2607.41911	0.93927
2605.49054	0.93854
2603.56198	0.93709
2601.63342	0.93503
2599.70485	0.93313
2597.77629	0.93221
2595.84772	0.93152
2593.91916	0.92995
2591.99059	0.92838
2590.06203	0.92732
2588.13346	0.92635
2586.20490	0.92541
2584.27634	0.92406
2582.34777	0.92255
2580.41921	0.92177
2578.49064	0.92110
2576.56208	0.92000
2574.63351	0.91928
2572.70495	0.91902
2570.77638	0.91850
2568.84782	0.91766
2566.91926	0.91696
2564.99069	0.91655
2563.06213	0.91567
2561.13356	0.91402
2559.20500	0.91236
2557.27643	0.91087
2555.34787	0.90902
2553.41930	0.90687
2551.49074	0.90530
2549.56218	0.90451
2547.63361	0.90323
2545.70505	0.90087
2543.77648	0.89816
2541.84792	0.89585
2539.91935	0.89424
2537.99079	0.89323
2536.06222	0.89284
2534.13366	0.89289
2532.20510	0.89261
2530.27653	0.89227
2528.34797	0.89236
2526.41940	0.89180
2524.49084	0.89006
2522.56227	0.88843
2520.63371	0.88811
2518.70514	0.88879
2516.77658	0.88961
2514.84802	0.88988
2512.91945	0.88915
2510.99089	0.88788
2509.06232	0.88682
2507.13376	0.88625
2505.20519	0.88612
2503.27663	0.88612
2501.34806	0.88575
2499.41950	0.88467
2497.49094	0.88303
2495.56237	0.88110
2493.63381	0.87912
2491.70524	0.87726
2489.77668	0.87564
2487.84811	0.87436
2485.91955	0.87303
2483.99098	0.87152
2482.06242	0.87006
2480.13386	0.86854
2478.20529	0.86712
2476.27673	0.86604
2474.34816	0.86500
2472.41960	0.86380
2470.49103	0.86291
2468.56247	0.86239
2466.63391	0.86176
2464.70534	0.86092
2462.77678	0.86021
2460.84821	0.85988
2458.91965	0.85957
2456.99108	0.85892
2455.06252	0.85829
2453.13395	0.85793
2451.20539	0.85773
2449.27683	0.85736
2447.34826	0.85639
2445.41970	0.85499
2443.49113	0.85384
2441.56257	0.85316
2439.63400	0.85243
2437.70544	0.85112
2435.77687	0.84941
2433.84831	0.84748
2431.91975	0.84518
2429.99118	0.84300
2428.06262	0.84136
2426.13405	0.83967
2424.20549	0.83762
2422.27692	0.83548
2420.34836	0.83338
2418.41979	0.83164
2416.49123	0.83053
2414.56267	0.82967
2412.63410	0.82852
2410.70554	0.82691
2408.77697	0.82520
2406.84841	0.82401
2404.91984	0.82342
2402.99128	0.82336
2401.06271	0.82358
2399.13415	0.82317
2397.20559	0.82216
2395.27702	0.82159
2393.34846	0.82178
2391.41989	0.82213
2389.49133	0.82195
2387.56276	0.82147
2385.63420	0.82132
2383.70563	0.82143
2381.77707	0.82158
2379.84851	0.82196
2377.91994	0.82224
2375.99138	0.82178
2374.06281	0.82106
2372.13425	0.82108
2370.20568	0.82215
2368.27712	0.82394
2366.34855	0.82567
2364.41999	0.82618
2362.49143	0.82560
2360.56286	0.82614
2358.63430	0.82580
2356.70573	0.82159
2354.77717	0.81548
2352.84860	0.81009
2350.92004	0.80678
2348.99147	0.80512
2347.06291	0.80481
2345.13435	0.80605
2343.20578	0.80760
2341.27722	0.80768
2339.34865	0.80530
2337.42009	0.80193
2335.49152	0.80037
2333.56296	0.80036
2331.63440	0.80179
2329.70583	0.80313
2327.77727	0.80103
2325.84870	0.79785
2323.92014	0.79679
2321.99157	0.79677
2320.06301	0.79657
2318.13444	0.79537
2316.20588	0.79294
2314.27732	0.79057
2312.34875	0.78876
2310.42019	0.78732
2308.49162	0.78657
2306.56306	0.78604
2304.63449	0.78501
2302.70593	0.78348
2300.77736	0.78159
2298.84880	0.77974
2296.92024	0.77818
2294.99167	0.77644
2293.06311	0.77453
2291.13454	0.77292
2289.20598	0.77142
2287.27741	0.76988
2285.34885	0.76836
2283.42028	0.76649
2281.49172	0.76454
2279.56316	0.76343
2277.63459	0.76278
2275.70603	0.76187
2273.77746	0.76114
2271.84890	0.76094
2269.92033	0.76075
2267.99177	0.76018
2266.06320	0.75973
2264.13464	0.75988
2262.20608	0.76016
2260.27751	0.75987
2258.34895	0.75909
2256.42038	0.75862
2254.49182	0.75896
2252.56325	0.75959
2250.63469	0.75975
2248.70612	0.75934
2246.77756	0.75871
2244.84900	0.75796
2242.92043	0.75707
2240.99187	0.75595
2239.06330	0.75454
2237.13474	0.75309
2235.20617	0.75197
2233.27761	0.75100
2231.34904	0.74956
2229.42048	0.74768
2227.49192	0.74601
2225.56335	0.74466
2223.63479	0.74342
2221.70622	0.74223
2219.77766	0.74101
2217.84909	0.73992
2215.92053	0.73927
2213.99196	0.73907
2212.06340	0.73889
2210.13484	0.73834
2208.20627	0.73780
2206.27771	0.73763
2204.34914	0.73756
2202.42058	0.73749
2200.49201	0.73769
2198.56345	0.73809
2196.63488	0.73848
2194.70632	0.73872
2192.77776	0.73872
2190.84919	0.73853
2188.92063	0.73811
2186.99206	0.73752
2185.06350	0.73711
2183.13493	0.73676
2181.20637	0.73625
2179.27781	0.73594
2177.34924	0.73558
2175.42068	0.73433
2173.49211	0.73265
2171.56355	0.73157
2169.63498	0.73067
2167.70642	0.72922
2165.77785	0.72767
2163.84929	0.72651
2161.92073	0.72560
2159.99216	0.72478
2158.06360	0.72395
2156.13503	0.72324
2154.20647	0.72291
2152.27790	0.72279
2150.34934	0.72235
2148.42077	0.72179
2146.49221	0.72140
2144.56365	0.72094
2142.63508	0.72050
2140.70652	0.72026
2138.77795	0.72004
2136.84939	0.71990
2134.92082	0.71968
2132.99226	0.71908
2131.06369	0.71822
2129.13513	0.71706
2127.20657	0.71555
2125.27800	0.71386
2123.34944	0.71233
2121.42087	0.71126
2119.49231	0.71019
2117.56374	0.70874
2115.63518	0.70715
2113.70661	0.70559
2111.77805	0.70417
2109.84949	0.70293
2107.92092	0.70187
2105.99236	0.70112
2104.06379	0.70036
2102.13523	0.69906
2100.20666	0.69766
2098.27810	0.69690
2096.34953	0.69627
2094.42097	0.69504
2092.49241	0.69342
2090.56384	0.69201
2088.63528	0.69113
2086.70671	0.69071
2084.77815	0.69026
2082.84958	0.68935
2080.92102	0.68814
2078.99245	0.68719
2077.06389	0.68657
2075.13533	0.68587
2073.20676	0.68508
2071.27820	0.68423
2069.34963	0.68317
2067.42107	0.68213
2065.49250	0.68126
2063.56394	0.68046
2061.63537	0.67959
2059.70681	0.67861
2057.77825	0.67731
2055.84968	0.67576
2053.92112	0.67431
2051.99255	0.67302
2050.06399	0.67190
2048.13542	0.67091
2046.20686	0.66984
2044.27830	0.66863
2042.34973	0.66732
2040.42117	0.66623
2038.49260	0.66563
2036.56404	0.66503
2034.63547	0.66396
2032.70691	0.66266
2030.77834	0.66152
2028.84978	0.66051
2026.92122	0.65934
2024.99265	0.65784
2023.06409	0.65620
2021.13552	0.65468
2019.20696	0.65342
2017.27839	0.65232
2015.34983	0.65110
2013.42126	0.64975
2011.49270	0.64852
2009.56414	0.64744
2007.63557	0.64621
2005.70701	0.64467
2003.77844	0.64308
2001.84988	0.64179
1999.92131	0.64074
1997.99275	0.63975
1996.06418	0.63873
1994.13562	0.63769
1992.20706	0.63671
1990.27849	0.63578
1988.34993	0.63481
1986.42136	0.63375
1984.49280	0.63254
1982.56423	0.63129
1980.63567	0.63020
1978.70710	0.62897
1976.77854	0.62723
1974.84998	0.62522
1972.92141	0.62353
1970.99285	0.62234
1969.06428	0.62123
1967.13572	0.61969
1965.20715	0.61780
1963.27859	0.61599
1961.35002	0.61447
1959.42146	0.61321
1957.49290	0.61186
1955.56433	0.61036
1953.63577	0.60909
1951.70720	0.60809
1949.77864	0.60703
1947.85007	0.60585
1945.92151	0.60474
1943.99294	0.60384
1942.06438	0.60326
1940.13582	0.60283
1938.20725	0.60233
1936.27869	0.60181
1934.35012	0.60127
1932.42156	0.60061
1930.49299	0.59995
1928.56443	0.59933
1926.63586	0.59860
1924.70730	0.59779
1922.77874	0.59695
1920.85017	0.59599
1918.92161	0.59497
1916.99304	0.59408
1915.06448	0.59312
1913.13591	0.59180
1911.20735	0.59017
1909.27878	0.58872
1907.35022	0.58785
1905.42166	0.58713
1903.49309	0.58611
1901.56453	0.58488
1899.63596	0.58378
1897.70740	0.58298
1895.77883	0.58238
1893.85027	0.58169
1891.92171	0.58088
1889.99314	0.58013
1888.06458	0.57943
1886.13601	0.57868
1884.20745	0.57810
1882.27888	0.57773
1880.35032	0.57729
1878.42175	0.57685
1876.49319	0.57651
1874.56463	0.57588
1872.63606	0.57494
1870.70750	0.57417
1868.77893	0.57364
1866.85037	0.57302
1864.92180	0.57238
1862.99324	0.57179
1861.06467	0.57096
1859.13611	0.56985
1857.20755	0.56871
1855.27898	0.56774
1853.35042	0.56688
1851.42185	0.56591
1849.49329	0.56470
1847.56472	0.56329
1845.63616	0.56205
1843.70759	0.56118
1841.77903	0.56032
1839.85047	0.55927
1837.92190	0.55828
1835.99334	0.55758
1834.06477	0.55700
1832.13621	0.55645
1830.20764	0.55599
1828.27908	0.55547
1826.35051	0.55475
1824.42195	0.55416
1822.49339	0.55389
1820.56482	0.55366
1818.63626	0.55339
1816.70769	0.55295
1814.77913	0.55239
1812.85056	0.55205
1810.92200	0.55195
1808.99343	0.55173
1807.06487	0.55126
1805.13631	0.55077
1803.20774	0.55013
1801.27918	0.54940
1799.35061	0.54891
1797.42205	0.54864
1795.49348	0.54826
1793.56492	0.54766
1791.63635	0.54710
1789.70779	0.54650
1787.77923	0.54600
1785.85066	0.54572
1783.92210	0.54573
1781.99353	0.54614
1780.06497	0.54685
1778.13640	0.54744
1776.20784	0.54770
1774.27927	0.54825
1772.35071	0.54976
1770.42215	0.55144
1768.49358	0.55288
1766.56502	0.55442
1764.63645	0.55593
1762.70789	0.55788
1760.77932	0.56057
1758.85076	0.56335
1756.92220	0.56702
1754.99363	0.57102
1753.06507	0.57463
1751.13650	0.57991
1749.20794	0.58763
1747.27937	0.59467
1745.35081	0.60050
1743.42224	0.60630
1741.49368	0.61234
1739.56512	0.61832
1737.63655	0.62264
1735.70799	0.62624
1733.77942	0.63324
1731.85086	0.64021
1729.92229	0.64517
1727.99373	0.65077
1726.06516	0.65711
1724.13660	0.66509
1722.20804	0.67324
1720.27947	0.68026
1718.35091	0.69062
1716.42234	0.70832
1714.49378	0.72294
1712.56521	0.73400
1710.63665	0.74551
1708.70808	0.75829
1706.77952	0.77650
1704.85096	0.80086
1702.92239	0.82346
1700.99383	0.85599
1699.06526	0.90818
1697.13670	0.95800
1695.20813	1.00699
1693.27957	1.04233
1691.35100	1.07004
1689.42244	1.10502
1687.49388	1.13886
1685.56531	1.17514
1683.63675	1.23572
1681.70818	1.27898
1679.77962	1.30216
1677.85105	1.32545
1675.92249	1.35573
1673.99392	1.38874
1672.06536	1.41441
1670.13680	1.44507
1668.20823	1.48039
1666.27967	1.49984
1664.35110	1.51479
1662.42254	1.53481
1660.49397	1.55211
1658.56541	1.56315
1656.63684	1.56853
1654.70828	1.56953
1652.77972	1.57490
1650.85115	1.58096
1648.92259	1.58221
1646.99402	1.58536
1645.06546	1.58813
1643.13689	1.58661
1641.20833	1.58678
1639.27976	1.58852
1637.35120	1.58989
1635.42264	1.58847
1633.49407	1.58476
1631.56551	1.58288
1629.63694	1.58060
1627.70838	1.57541
1625.77981	1.56653
1623.85125	1.55542
1621.92269	1.54252
1619.99412	1.52735
1618.06556	1.50339
1616.13699	1.46659
1614.20843	1.43659
1612.27986	1.41184
1610.35130	1.38291
1608.42273	1.35096
1606.49417	1.32402
1604.56561	1.30419
1602.63704	1.28862
1600.70848	1.27685
1598.77991	1.26782
1596.85135	1.26075
1594.92278	1.25671
1592.99422	1.25602
1591.06565	1.25731
1589.13709	1.26007
1587.20853	1.26581
1585.27996	1.27489
1583.35140	1.28640
1581.42283	1.29845
1579.49427	1.30846
1577.56570	1.31949
1575.63714	1.33762
1573.70857	1.35174
1571.78001	1.36036
1569.85145	1.37387
1567.92288	1.39210
1565.99432	1.40760
1564.06575	1.42040
1562.13719	1.42807
1560.20862	1.43529
1558.28006	1.45463
1556.35149	1.46520
1554.42293	1.46836
1552.49437	1.47104
1550.56580	1.47384
1548.63724	1.47557
1546.70867	1.47540
1544.78011	1.47410
1542.85154	1.47163
1540.92298	1.46773
1538.99441	1.46499
1537.06585	1.46173
1535.13729	1.45552
1533.20872	1.44940
1531.28016	1.44791
1529.35159	1.44796
1527.42303	1.44485
1525.49446	1.43701
1523.56590	1.42948
1521.63733	1.42548
1519.70877	1.42568
1517.78021	1.42398
1515.85164	1.41621
1513.92308	1.40353
1511.99451	1.38713
1510.06595	1.36925
1508.13738	1.34423
1506.20882	1.30468
1504.28025	1.28188
1502.35169	1.26545
1500.42313	1.24601
1498.49456	1.22096
1496.56600	1.19136
1494.63743	1.16871
1492.70887	1.15324
1490.78030	1.13534
1488.85174	1.11219
1486.92317	1.09483
1484.99461	1.08396
1483.06605	1.07687
1481.13748	1.07333
1479.20892	1.07292
1477.28035	1.07547
1475.35179	1.08271
1473.42322	1.09952
1471.49466	1.12052
1469.56610	1.13258
1467.63753	1.14078
1465.70897	1.15117
1463.78040	1.16190
1461.85184	1.16730
1459.92327	1.16952
1457.99471	1.17496
1456.06614	1.18475
1454.13758	1.18778
1452.20902	1.18688
1450.28045	1.18525
1448.35189	1.18279
1446.42332	1.17815
1444.49476	1.17175
1442.56619	1.16430
1440.63763	1.15652
1438.70906	1.14788
1436.78050	1.13567
1434.85194	1.12319
1432.92337	1.11430
1430.99481	1.10565
1429.06624	1.09627
1427.13768	1.08902
1425.20911	1.08516
1423.28055	1.08450
1421.35198	1.08603
1419.42342	1.09004
1417.49486	1.09515
1415.56629	1.09721
1413.63773	1.09736
1411.70916	1.09746
1409.78060	1.09868
1407.85203	1.10092
1405.92347	1.10364
1403.99490	1.10624
1402.06634	1.10810
1400.13778	1.11040
1398.20921	1.11342
1396.28065	1.11539
1394.35208	1.11648
1392.42352	1.11842
1390.49495	1.12168
1388.56639	1.12725
1386.63782	1.13577
1384.70926	1.14477
1382.78070	1.15320
1380.85213	1.16037
1378.92357	1.16358
1376.99500	1.16089
1375.06644	1.15212
1373.13787	1.13987
1371.20931	1.12746
1369.28074	1.11342
1367.35218	1.09756
1365.42362	1.08251
1363.49505	1.06881
1361.56649	1.05830
1359.63792	1.05237
1357.70936	1.04859
1355.78079	1.04571
1353.85223	1.04401
1351.92366	1.04337
1349.99510	1.04291
1348.06654	1.04225
1346.13797	1.04209
1344.20941	1.04265
1342.28084	1.04329
1340.35228	1.04427
1338.42371	1.04596
1336.49515	1.04800
1334.56659	1.05093
1332.63802	1.05525
1330.70946	1.06078
1328.78089	1.06631
1326.85233	1.07001
1324.92376	1.07163
1322.99520	1.07260
1321.06663	1.07374
1319.13807	1.07494
1317.20951	1.07603
1315.28094	1.07692
1313.35238	1.07767
1311.42381	1.07824
1309.49525	1.07885
1307.56668	1.07964
1305.63812	1.08013
1303.70955	1.08013
1301.78099	1.07938
1299.85243	1.07738
1297.92386	1.07454
1295.99530	1.07169
1294.06673	1.06964
1292.13817	1.06901
1290.20960	1.06904
1288.28104	1.06878
1286.35247	1.06865
1284.42391	1.06915
1282.49535	1.07000
1280.56678	1.07054
1278.63822	1.07073
1276.70965	1.07157
1274.78109	1.07404
1272.85252	1.07774
1270.92396	1.08173
1268.99539	1.08646
1267.06683	1.09222
1265.13827	1.09741
1263.20970	1.10096
1261.28114	1.10335
1259.35257	1.10499
1257.42401	1.10637
1255.49544	1.10829
1253.56688	1.11085
1251.63831	1.11372
1249.70975	1.11689
1247.78119	1.11990
1245.85262	1.12213
1243.92406	1.12370
1241.99549	1.12492
1240.06693	1.12548
1238.13836	1.12444
1236.20980	1.12157
1234.28123	1.11746
1232.35267	1.11209
1230.42411	1.10538
1228.49554	1.09808
1226.56698	1.09057
1224.63841	1.08231
1222.70985	1.07293
1220.78128	1.06319
1218.85272	1.05422
1216.92415	1.04691
1214.99559	1.04189
1213.06703	1.03900
1211.13846	1.03798
1209.20990	1.03855
1207.28133	1.03919
1205.35277	1.03752
1203.42420	1.03269
1201.49564	1.02565
1199.56708	1.01710
1197.63851	1.00760
1195.70995	0.99858
1193.78138	0.99149
1191.85282	0.98654
1189.92425	0.98272
1187.99569	0.97951
1186.06712	0.97756
1184.13856	0.97749
1182.21000	0.97948
1180.28143	0.98371
1178.35287	0.98992
1176.42430	0.99676
1174.49574	1.00306
1172.56717	1.00952
1170.63861	1.01794
1168.71004	1.02911
1166.78148	1.04232
1164.85292	1.05665
1162.92435	1.07139
1160.99579	1.08426
1159.06722	1.09139
1157.13866	1.09034
1155.21009	1.08120
1153.28153	1.06579
1151.35296	1.04754
1149.42440	1.02952
1147.49584	1.01306
1145.56727	0.99928
1143.63871	0.98942
1141.71014	0.98379
1139.78158	0.98178
1137.85301	0.98272
1135.92445	0.98650
1133.99588	0.99302
1132.06732	1.00177
1130.13876	1.01237
1128.21019	1.02524
1126.28163	1.03984
1124.35306	1.05330
1122.42450	1.06442
1120.49593	1.07489
1118.56737	1.08463
1116.63880	1.09075
1114.71024	1.09122
1112.78168	1.08719
1110.85311	1.08043
1108.92455	1.07250
1106.99598	1.06584
1105.06742	1.06069
1103.13885	1.05576
1101.21029	1.05154
1099.28172	1.04978
1097.35316	1.05188
1095.42460	1.05751
1093.49603	1.06541
1091.56747	1.07505
1089.63890	1.08620
1087.71034	1.09966
1085.78177	1.11586
1083.85321	1.13339
1081.92464	1.15038
1079.99608	1.16413
1078.06752	1.17210
1076.13895	1.17292
1074.21039	1.16651
1072.28182	1.15554
1070.35326	1.14231
1068.42469	1.12744
1066.49613	1.11223
1064.56756	1.09790
1062.63900	1.08549
1060.71044	1.07572
1058.78187	1.06744
1056.85331	1.05910
1054.92474	1.05113
1052.99618	1.04473
1051.06761	1.04044
1049.13905	1.03843
1047.21049	1.03903
1045.28192	1.04314
1043.35336	1.05124
1041.42479	1.06165
1039.49623	1.07123
1037.56766	1.07856
1035.63910	1.08469
1033.71053	1.08973
1031.78197	1.09211
1029.85341	1.09136
1027.92484	1.08753
1025.99628	1.08048
1024.06771	1.07183
1022.13915	1.06401
1020.21058	1.05752
1018.28202	1.05182
1016.35345	1.04601
1014.42489	1.03759
1012.49633	1.02449
1010.56776	1.00792
1008.63920	0.98914
1006.71063	0.96846
1004.78207	0.94802
1002.85350	0.92990
1000.92494	0.91437
998.99637	0.90153
997.06781	0.89145
995.13925	0.88358
993.21068	0.87704
991.28212	0.87098
989.35355	0.86499
987.42499	0.85907
985.49642	0.85428
983.56786	0.85197
981.63929	0.85211
979.71073	0.85381
977.78217	0.85615
975.85360	0.85797
973.92504	0.85826
971.99647	0.85650
970.06791	0.85290
968.13934	0.84823
966.21078	0.84378
964.28221	0.84116
962.35365	0.84177
960.42509	0.84636
958.49652	0.85409
956.56796	0.86109
954.63939	0.86234
952.71083	0.85615
950.78226	0.84473
948.85370	0.83136
946.92513	0.81856
944.99657	0.80744
943.06801	0.79834
941.13944	0.79145
939.21088	0.78667
937.28231	0.78363
935.35375	0.78194
933.42518	0.78121
931.49662	0.78094
929.56805	0.78127
927.63949	0.78298
925.71093	0.78573
923.78236	0.78810
921.85380	0.78961
919.92523	0.79071
917.99667	0.79160
916.06810	0.79239
914.13954	0.79351
912.21098	0.79573
910.28241	0.79899
908.35385	0.80262
906.42528	0.80680
904.49672	0.81125
902.56815	0.81486
900.63959	0.81728
898.71102	0.81832
896.78246	0.81765
894.85390	0.81532
892.92533	0.81078
890.99677	0.80365
889.06820	0.79563
887.13964	0.78869
885.21107	0.78310
883.28251	0.77859
881.35394	0.77541
879.42538	0.77373
877.49682	0.77302
875.56825	0.77308
873.63969	0.77455
871.71112	0.77734
869.78256	0.78056
867.85399	0.78419
865.92543	0.78894
863.99686	0.79417
862.06830	0.79871
860.13974	0.80309
858.21117	0.80866
856.28261	0.81518
854.35404	0.82123
852.42548	0.82663
850.49691	0.83230
848.56835	0.83816
846.63978	0.84340
844.71122	0.84784
842.78266	0.85155
840.85409	0.85461
838.92553	0.85724
836.99696	0.85910
835.06840	0.85919
833.13983	0.85702
831.21127	0.85327
829.28270	0.84876
827.35414	0.84360
825.42558	0.83802
823.49701	0.83288
821.56845	0.82920
819.63988	0.82714
817.71132	0.82609
815.78275	0.82636
813.85419	0.82835
811.92562	0.83093
809.99706	0.83362
808.06850	0.83716
806.13993	0.84151
804.21137	0.84662
802.28280	0.85217
800.35424	0.85675
798.42567	0.86061
796.49711	0.86513
794.56854	0.87033
792.63998	0.87568
790.71142	0.88112
788.78285	0.88659
786.85429	0.89124
784.92572	0.89488
782.99716	0.89835
781.06859	0.90152
779.14003	0.90331
777.21147	0.90270
775.28290	0.89965
773.35434	0.89586
771.42577	0.89206
769.49721	0.88724
767.56864	0.88188
765.64008	0.87741
763.71151	0.87385
761.78295	0.87081
759.85439	0.86867
757.92582	0.86802
755.99726	0.86944
754.06869	0.87334
752.14013	0.87901
750.21156	0.88484
748.28300	0.89064
746.35443	0.89751
744.42587	0.90496
742.49731	0.91122
740.56874	0.91652
738.64018	0.92271
736.71161	0.92951
734.78305	0.93549
732.85448	0.94105
730.92592	0.94683
728.99735	0.95156
727.06879	0.95419
725.14023	0.95629
723.21166	0.95914
721.28310	0.96030
719.35453	0.95780
717.42597	0.95374
715.49740	0.94965
713.56884	0.94472
711.64027	0.93842
709.71171	0.93184
707.78315	0.92548
705.85458	0.91853
703.92602	0.91184
701.99745	0.90672
700.06889	0.90315
698.14032	0.90104
696.21176	0.90036
694.28319	0.90094
692.35463	0.90233
690.42607	0.90364
688.49750	0.90528
686.56894	0.90950
684.64037	0.91752
682.71181	0.92741
680.78324	0.93641
678.85468	0.94424
676.92611	0.95166
674.99755	0.95850
673.06899	0.96461
671.14042	0.96974
669.21186	0.97487
667.28329	0.98041
665.35473	0.98391
663.42616	0.98551
661.49760	0.98487
659.56903	0.98258
657.64047	0.97910
655.71191	0.97318
653.78334	0.96591
651.85478	0.95918
649.92621	0.95141
647.99765	0.94076
646.06908	0.92947
644.14052	0.91994
642.21195	0.91242
640.28339	0.90686
638.35483	0.90327
636.42626	0.90048
634.49770	0.89750
632.56913	0.89612
630.64057	0.89776
628.71200	0.90078
626.78344	0.90456
624.85488	0.91120
622.92631	0.92152
620.99775	0.93348
619.06918	0.94491
617.14062	0.95545
615.21205	0.96522
613.28349	0.97335
611.35492	0.97965
609.42636	0.98582
607.49780	0.99172
605.56923	0.99498
603.64067	0.99617
601.71210	0.99903
599.78354	1.00384
