3997.91406	1.25591
3995.98550	1.25960
3994.05693	1.26204
3992.12837	1.25968
3990.19980	1.25499
3988.27124	1.25198
3986.34268	1.25218
3984.41411	1.25468
3982.48555	1.25638
3980.55698	1.25492
3978.62842	1.25221
3976.69985	1.25055
3974.77129	1.25058
3972.84272	1.25242
3970.91416	1.25098
3968.98560	1.24432
3967.05703	1.24049
3965.12847	1.24166
3963.19990	1.24408
3961.27134	1.24655
3959.34277	1.24534
3957.41421	1.23901
3955.48564	1.23372
3953.55708	1.23469
3951.62852	1.23988
3949.69995	1.24332
3947.77139	1.24402
3945.84282	1.24526
3943.91426	1.24625
3941.98569	1.24498
3940.05713	1.24188
3938.12856	1.23785
3936.20000	1.23306
3934.27144	1.22769
3932.34287	1.22627
3930.41431	1.23269
3928.48574	1.23982
3926.55718	1.24260
3924.62861	1.24231
3922.70005	1.24195
3920.77148	1.24289
3918.84292	1.24259
3916.91436	1.23916
3914.98579	1.23618
3913.05723	1.23699
3911.12866	1.23967
3909.20010	1.23990
3907.27153	1.23639
3905.34297	1.23152
3903.41440	1.23139
3901.48584	1.23577
3899.55728	1.23691
3897.62871	1.23549
3895.70015	1.23460
3893.77158	1.23569
3891.84302	1.23948
3889.91445	1.24035
3887.98589	1.23606
3886.05733	1.23063
3884.12876	1.22834
3882.20020	1.22863
3880.27163	1.22948
3878.34307	1.23152
3876.41450	1.23284
3874.48594	1.22929
3872.55737	1.22479
3870.62881	1.22706
3868.70025	1.22759
3866.77168	1.22298
3864.84312	1.21999
3862.91455	1.21820
3860.98599	1.21683
3859.05742	1.21727
3857.12886	1.21832
3855.20029	1.22070
3853.27173	1.22277
3851.34317	1.21885
3849.41460	1.21579
3847.48604	1.21314
3845.55747	1.20923
3843.62891	1.20626
3841.70034	1.20775
3839.77178	1.21153
3837.84321	1.20787
3835.91465	1.20232
3833.98609	1.20626
3832.05752	1.21308
3830.12896	1.21501
3828.20039	1.21570
3826.27183	1.21673
3824.34326	1.21771
3822.41470	1.22308
3820.48613	1.22318
3818.55757	1.21031
3816.62901	1.20151
3814.70044	1.20083
3812.77188	1.20063
3810.84331	1.19925
3808.91475	1.19787
3806.98618	1.19880
3805.05762	1.20412
3803.12905	1.21077
3801.20049	1.21417
3799.27193	1.21367
3797.34336	1.21097
3795.41480	1.20547
3793.48623	1.20104
3791.55767	1.19823
3789.62910	1.19510
3787.70054	1.19351
3785.77197	1.19336
3783.84341	1.19023
3781.91485	1.18647
3779.98628	1.18698
3778.05772	1.18762
3776.12915	1.18482
3774.20059	1.18320
3772.27202	1.18546
3770.34346	1.19216
3768.41489	1.19893
3766.48633	1.19911
3764.55777	1.19459
3762.62920	1.19120
3760.70064	1.19119
3758.77207	1.19212
3756.84351	1.19238
3754.91494	1.19610
3752.98638	1.20392
3751.05781	1.20493
3749.12925	1.19188
3747.20069	1.18427
3745.27212	1.18784
3743.34356	1.19170
3741.41499	1.18803
3739.48643	1.18342
3737.55786	1.17880
3735.62930	1.17348
3733.70074	1.17772
3731.77217	1.18462
3729.84361	1.18257
3727.91504	1.17840
3725.98648	1.17790
3724.05791	1.17848
3722.12935	1.17878
3720.20078	1.17774
3718.27222	1.17345
3716.34366	1.17030
3714.41509	1.17312
3712.48653	1.18035
3710.55796	1.18294
3708.62940	1.18019
3706.70083	1.17717
3704.77227	1.17563
3702.84370	1.17848
3700.91514	1.18323
3698.98658	1.18553
3697.05801	1.18941
3695.12945	1.19483
3693.20088	1.19581
3691.27232	1.19336
3689.34375	1.19725
3687.41519	1.20048
3685.48662	1.19752
3683.55806	1.19713
3681.62950	1.19960
3679.70093	1.19915
3677.77237	1.19716
3675.84380	1.20187
3673.91524	1.20946
3671.98667	1.21616
3670.05811	1.22834
3668.12954	1.23637
3666.20098	1.23814
3664.27242	1.24150
3662.34385	1.24624
3660.41529	1.24983
3658.48672	1.25461
3656.55816	1.26378
3654.62959	1.26997
3652.70103	1.27041
3650.77246	1.27471
3648.84390	1.29462
3646.91534	1.31287
3644.98677	1.31858
3643.05821	1.32039
3641.12964	1.32327
3639.20108	1.32777
3637.27251	1.33037
3635.34395	1.33009
3633.41538	1.33322
3631.48682	1.34287
3629.55826	1.35875
3627.62969	1.37728
3625.70113	1.39016
3623.77256	1.39834
3621.84400	1.40325
3619.91543	1.41498
3617.98687	1.43563
3616.05830	1.44468
3614.12974	1.44539
3612.20118	1.44868
3610.27261	1.45361
3608.34405	1.46000
3606.41548	1.46501
3604.48692	1.46571
3602.55835	1.46835
3600.62979	1.48166
3598.70123	1.50470
3596.77266	1.52120
3594.84410	1.52417
3592.91553	1.52242
3590.98697	1.51956
3589.05840	1.52079
3587.12984	1.53335
3585.20127	1.54467
3583.27271	1.55200
3581.34415	1.56104
3579.41558	1.56727
3577.48702	1.57227
3575.55845	1.58457
3573.62989	1.59845
3571.70132	1.60334
3569.77276	1.59707
3567.84419	1.58560
3565.91563	1.59569
3563.98707	1.62482
3562.05850	1.64485
3560.12994	1.65478
3558.20137	1.66636
3556.27281	1.67590
3554.34424	1.67702
3552.41568	1.67662
3550.48711	1.67552
3548.55855	1.67309
3546.62999	1.68008
3544.70142	1.69884
3542.77286	1.71447
3540.84429	1.71986
3538.91573	1.72126
3536.98716	1.72619
3535.05860	1.73603
3533.13003	1.74813
3531.20147	1.75822
3529.27291	1.76626
3527.34434	1.77834
3525.41578	1.78658
3523.48721	1.78294
3521.55865	1.78248
3519.63008	1.78645
3517.70152	1.78253
3515.77295	1.77804
3513.84439	1.78090
3511.91583	1.78468
3509.98726	1.78737
3508.05870	1.79541
3506.13013	1.81594
3504.20157	1.84316
3502.27300	1.85106
3500.34444	1.84018
3498.41587	1.83390
3496.48731	1.83396
3494.55875	1.83704
3492.63018	1.84423
3490.70162	1.85134
3488.77305	1.85575
3486.84449	1.85778
3484.91592	1.85702
3482.98736	1.86189
3481.05879	1.87646
3479.13023	1.89104
3477.20167	1.90351
3475.27310	1.90965
3473.34454	1.90393
3471.41597	1.90025
3469.48741	1.90313
3467.55884	1.89732
3465.63028	1.88245
3463.70171	1.87715
3461.77315	1.88928
3459.84459	1.90356
3457.91602	1.90650
3455.98746	1.90826
3454.05889	1.91761
3452.13033	1.93046
3450.20176	1.94139
3448.27320	1.94315
3446.34464	1.94322
3444.41607	1.95652
3442.48751	1.96608
3440.55894	1.95893
3438.63038	1.95177
3436.70181	1.94034
3434.77325	1.91927
3432.84468	1.91458
3430.91612	1.93099
3428.98756	1.93863
3427.05899	1.92429
3425.13043	1.90283
3423.20186	1.88909
3421.27330	1.89386
3419.34473	1.92018
3417.41617	1.94753
3415.48760	1.95453
3413.55904	1.94916
3411.63048	1.94497
3409.70191	1.94286
3407.77335	1.93992
3405.84478	1.93496
3403.91622	1.93308
3401.98765	1.93338
3400.05909	1.92467
3398.13052	1.91019
3396.20196	1.90767
3394.27340	1.92493
3392.34483	1.94921
3390.41627	1.95384
3388.48770	1.93732
3386.55914	1.92727
3384.63057	1.93191
3382.70201	1.93896
3380.77344	1.94556
3378.84488	1.95490
3376.91632	1.96679
3374.98775	1.97329
3373.05919	1.96862
3371.13062	1.96217
3369.20206	1.96148
3367.27349	1.96270
3365.34493	1.95635
3363.41636	1.94502
3361.48780	1.94257
3359.55924	1.94635
3357.63067	1.94872
3355.70211	1.95575
3353.77354	1.96364
3351.84498	1.95873
3349.91641	1.94814
3347.98785	1.95033
3346.05928	1.96285
3344.13072	1.96382
3342.20216	1.95447
3340.27359	1.95685
3338.34503	1.95948
3336.41646	1.94360
3334.48790	1.93754
3332.55933	1.96556
3330.63077	2.00618
3328.70220	2.02668
3326.77364	2.02361
3324.84508	2.01094
3322.91651	2.00176
3320.98795	1.99831
3319.05938	1.98836
3317.13082	1.96639
3315.20225	1.94718
3313.27369	1.95024
3311.34513	1.97429
3309.41656	2.00320
3307.48800	2.02704
3305.55943	2.02752
3303.63087	2.00315
3301.70230	1.98506
3299.77374	1.97649
3297.84517	1.96443
3295.91661	1.95829
3293.98805	1.96170
3292.05948	1.96742
3290.13092	1.97021
3288.20235	1.96895
3286.27379	1.97450
3284.34522	1.98071
3282.41666	1.97400
3280.48809	1.97335
3278.55953	1.98182
3276.63097	1.97921
3274.70240	1.97330
3272.77384	1.97448
3270.84527	1.97524
3268.91671	1.96370
3266.98814	1.93868
3265.05958	1.92378
3263.13101	1.92727
3261.20245	1.93196
3259.27389	1.93580
3257.34532	1.94059
3255.41676	1.93476
3253.48819	1.91739
3251.55963	1.90370
3249.63106	1.90529
3247.70250	1.91134
3245.77393	1.90449
3243.84537	1.89639
3241.91681	1.90011
3239.98824	1.90182
3238.05968	1.89706
3236.13111	1.89570
3234.20255	1.89136
3232.27398	1.87718
3230.34542	1.86553
3228.41685	1.86782
3226.48829	1.87800
3224.55973	1.88436
3222.63116	1.88526
3220.70260	1.88188
3218.77403	1.86666
3216.84547	1.83940
3214.91690	1.81886
3212.98834	1.81408
3211.05977	1.81438
3209.13121	1.81399
3207.20265	1.81474
3205.27408	1.81534
3203.34552	1.81619
3201.41695	1.81886
3199.48839	1.81960
3197.55982	1.81395
3195.63126	1.80455
3193.70269	1.80026
3191.77413	1.80695
3189.84557	1.81937
3187.91700	1.82438
3185.98844	1.81249
3184.05987	1.79122
3182.13131	1.77834
3180.20274	1.77488
3178.27418	1.76849
3176.34562	1.76097
3174.41705	1.76267
3172.48849	1.76851
3170.55992	1.76811
3168.63136	1.76268
3166.70279	1.75530
3164.77423	1.74858
3162.84566	1.74692
3160.91710	1.74820
3158.98854	1.74669
3157.05997	1.74084
3155.13141	1.73339
3153.20284	1.72600
3151.27428	1.71900
3149.34571	1.71641
3147.41715	1.72092
3145.48858	1.72971
3143.56002	1.73476
3141.63146	1.72807
3139.70289	1.71661
3137.77433	1.71166
3135.84576	1.71034
3133.91720	1.70557
3131.98863	1.69854
3130.06007	1.69589
3128.13150	1.69782
3126.20294	1.69698
3124.27438	1.69424
3122.34581	1.69522
3120.41725	1.69698
3118.48868	1.69685
3116.56012	1.69567
3114.63155	1.69288
3112.70299	1.68778
3110.77442	1.68296
3108.84586	1.68564
3106.91730	1.69345
3104.98873	1.69595
3103.06017	1.69546
3101.13160	1.69594
3099.20304	1.69215
3097.27447	1.68473
3095.34591	1.68286
3093.41734	1.68783
3091.48878	1.69043
3089.56022	1.68849
3087.63165	1.68396
3085.70309	1.67744
3083.77452	1.67403
3081.84596	1.67138
3079.91739	1.66402
3077.98883	1.66153
3076.06026	1.66921
3074.13170	1.67409
3072.20314	1.66775
3070.27457	1.65486
3068.34601	1.64380
3066.41744	1.63983
3064.48888	1.63843
3062.56031	1.63879
3060.63175	1.64363
3058.70318	1.64361
3056.77462	1.63469
3054.84606	1.62680
3052.91749	1.62334
3050.98893	1.62115
3049.06036	1.61952
3047.13180	1.61638
3045.20323	1.60992
3043.27467	1.60344
3041.34610	1.60277
3039.41754	1.60717
3037.48898	1.60736
3035.56041	1.60138
3033.63185	1.59404
3031.70328	1.58775
3029.77472	1.58498
3027.84615	1.58154
3025.91759	1.57393
3023.98903	1.56690
3022.06046	1.56181
3020.13190	1.55664
3018.20333	1.55073
3016.27477	1.54604
3014.34620	1.54466
3012.41764	1.54333
3010.48907	1.54087
3008.56051	1.53959
3006.63195	1.53678
3004.70338	1.53279
3002.77482	1.53359
3000.84625	1.53780
2998.91769	1.53972
2996.98912	1.53863
2995.06056	1.53762
2993.13199	1.54051
2991.20343	1.54716
2989.27487	1.55278
2987.34630	1.55519
2985.41774	1.55778
2983.48917	1.56271
2981.56061	1.56761
2979.63204	1.57193
2977.70348	1.57760
2975.77491	1.58439
2973.84635	1.59308
2971.91779	1.60269
2969.98922	1.60741
2968.06066	1.61126
2966.13209	1.62253
2964.20353	1.63474
2962.27496	1.64067
2960.34640	1.64302
2958.41783	1.64156
2956.48927	1.63409
2954.56071	1.62329
2952.63214	1.61413
2950.70358	1.60947
2948.77501	1.60966
2946.84645	1.61414
2944.91788	1.62045
2942.98932	1.62677
2941.06075	1.63437
2939.13219	1.64427
2937.20363	1.65518
2935.27506	1.66525
2933.34650	1.67695
2931.41793	1.69274
2929.48937	1.70541
2927.56080	1.70822
2925.63224	1.70654
2923.70367	1.70680
2921.77511	1.70604
2919.84655	1.70090
2917.91798	1.69371
2915.98942	1.68233
2914.06085	1.66260
2912.13229	1.63873
2910.20372	1.61781
2908.27516	1.60185
2906.34659	1.58884
2904.41803	1.57847
2902.48947	1.57291
2900.56090	1.57065
2898.63234	1.56713
2896.70377	1.56282
2894.77521	1.56001
2892.84664	1.55534
2890.91808	1.54638
2888.98952	1.53725
2887.06095	1.53294
2885.13239	1.53404
2883.20382	1.53750
2881.27526	1.53944
2879.34669	1.53727
2877.41813	1.53475
2875.48956	1.53716
2873.56100	1.53940
2871.63244	1.53507
2869.70387	1.52918
2867.77531	1.52628
2865.84674	1.52294
2863.91818	1.51888
2861.98961	1.51982
2860.06105	1.52804
2858.13248	1.53866
2856.20392	1.54594
2854.27536	1.55111
2852.34679	1.55759
2850.41823	1.55974
2848.48966	1.54743
2846.56110	1.52041
2844.63253	1.49029
2842.70397	1.46715
2840.77540	1.45053
2838.84684	1.43625
2836.91828	1.42394
2834.98971	1.41464
2833.06115	1.40763
2831.13258	1.40237
2829.20402	1.39939
2827.27545	1.39849
2825.34689	1.39864
2823.41832	1.39816
2821.48976	1.39483
2819.56120	1.38880
2817.63263	1.38310
2815.70407	1.37810
2813.77550	1.37148
2811.84694	1.36488
2809.91837	1.36106
2807.98981	1.35873
2806.06124	1.35620
2804.13268	1.35455
2802.20412	1.35440
2800.27555	1.35240
2798.34699	1.34565
2796.41842	1.33783
2794.48986	1.33480
2792.56129	1.33602
2790.63273	1.33654
2788.70416	1.33477
2786.77560	1.33169
2784.84704	1.32869
2782.91847	1.32634
2780.98991	1.32301
2779.06134	1.31960
2777.13278	1.31869
2775.20421	1.31884
2773.27565	1.31773
2771.34708	1.31547
2769.41852	1.31257
2767.48996	1.31008
2765.56139	1.30898
2763.63283	1.30796
2761.70426	1.30565
2759.77570	1.30226
2757.84713	1.29850
2755.91857	1.29605
2753.99001	1.29505
2752.06144	1.29213
2750.13288	1.28716
2748.20431	1.28457
2746.27575	1.28447
2744.34718	1.28371
2742.41862	1.28204
2740.49005	1.28032
2738.56149	1.27893
2736.63293	1.27785
2734.70436	1.27593
2732.77580	1.27328
2730.84723	1.27166
2728.91867	1.27064
2726.99010	1.26833
2725.06154	1.26539
2723.13297	1.26335
2721.20441	1.26199
2719.27585	1.26064
2717.34728	1.25897
2715.41872	1.25686
2713.49015	1.25478
2711.56159	1.25337
2709.63302	1.25280
2707.70446	1.25213
2705.77589	1.25000
2703.84733	1.24659
2701.91877	1.24303
2699.99020	1.24013
2698.06164	1.23861
2696.13307	1.23776
2694.20451	1.23598
2692.27594	1.23411
2690.34738	1.23336
2688.41881	1.23195
2686.49025	1.22863
2684.56169	1.22529
2682.63312	1.22375
2680.70456	1.22310
2678.77599	1.22168
2676.84743	1.21972
2674.91886	1.21779
2672.99030	1.21630
2671.06173	1.21586
2669.13317	1.21532
2667.20461	1.21338
2665.27604	1.21127
2663.34748	1.20998
2661.41891	1.20853
2659.49035	1.20661
2657.56178	1.20454
2655.63322	1.20244
2653.70465	1.20072
2651.77609	1.19935
2649.84753	1.19862
2647.91896	1.19858
2645.99040	1.19746
2644.06183	1.19466
2642.13327	1.19270
2640.20470	1.19249
2638.27614	1.19202
2636.34757	1.19075
2634.41901	1.18917
2632.49045	1.18717
2630.56188	1.18532
2628.63332	1.18380
2626.70475	1.18198
2624.77619	1.18005
2622.84762	1.17851
2620.91906	1.17693
2618.99049	1.17496
2617.06193	1.17331
2615.13337	1.17255
2613.20480	1.17215
2611.27624	1.17149
2609.34767	1.17032
2607.41911	1.16829
2605.49054	1.16554
2603.56198	1.16283
2601.63342	1.16068
2599.70485	1.15971
2597.77629	1.15977
2595.84772	1.15881
2593.91916	1.15612
2591.99059	1.15338
2590.06203	1.15069
2588.13346	1.14763
2586.20490	1.14546
2584.27634	1.14421
2582.34777	1.14321
2580.41921	1.14218
2578.49064	1.14055
2576.56208	1.13886
2574.63351	1.13803
2572.70495	1.13692
2570.77638	1.13431
2568.84782	1.13144
2566.91926	1.12907
2564.99069	1.12684
2563.06213	1.12561
2561.13356	1.12538
2559.20500	1.12430
2557.27643	1.12163
2555.34787	1.11875
2553.41930	1.11703
2551.49074	1.11642
2549.56218	1.11567
2547.63361	1.11414
2545.70505	1.11268
2543.77648	1.11111
2541.84792	1.10874
2539.91935	1.10668
2537.99079	1.10528
2536.06222	1.10356
2534.13366	1.10183
2532.20510	1.10117
2530.27653	1.10110
2528.34797	1.10037
2526.41940	1.09934
2524.49084	1.09856
2522.56227	1.09747
2520.63371	1.09641
2518.70514	1.09581
2516.77658	1.09469
2514.84802	1.09272
2512.91945	1.09095
2510.99089	1.09007
2509.06232	1.08974
2507.13376	1.08880
2505.20519	1.08688
2503.27663	1.08506
2501.34806	1.08328
2499.41950	1.08104
2497.49094	1.07973
2495.56237	1.07952
2493.63381	1.07814
2491.70524	1.07564
2489.77668	1.07352
2487.84811	1.07166
2485.91955	1.06983
2483.99098	1.06822
2482.06242	1.06682
2480.13386	1.06540
2478.20529	1.06361
2476.27673	1.06161
2474.34816	1.05945
2472.41960	1.05695
2470.49103	1.05449
2468.56247	1.05247
2466.63391	1.05090
2464.70534	1.04974
2462.77678	1.04873
2460.84821	1.04788
2458.91965	1.04702
2456.99108	1.04545
2455.06252	1.04351
2453.13395	1.04203
2451.20539	1.04043
2449.27683	1.03841
2447.34826	1.03713
2445.41970	1.03691
2443.49113	1.03688
2441.56257	1.03659
2439.63400	1.03602
2437.70544	1.03507
2435.77687	1.03395
2433.84831	1.03242
2431.91975	1.03003
2429.99118	1.02778
2428.06262	1.02654
2426.13405	1.02556
2424.20549	1.02456
2422.27692	1.02386
2420.34836	1.02294
2418.41979	1.02139
2416.49123	1.01972
2414.56267	1.01799
2412.63410	1.01608
2410.70554	1.01405
2408.77697	1.01183
2406.84841	1.00999
2404.91984	1.00882
2402.99128	1.00791
2401.06271	1.00701
2399.13415	1.00572
2397.20559	1.00404
2395.27702	1.00255
2393.34846	1.00156
2391.41989	1.00097
2389.49133	1.00042
2387.56276	0.99983
2385.63420	0.99917
2383.70563	0.99833
2381.77707	0.99764
2379.84851	0.99725
2377.91994	0.99667
2375.99138	0.99515
2374.06281	0.99278
2372.13425	0.99166
2370.20568	0.99367
2368.27712	0.99694
2366.34855	0.99957
2364.41999	1.00316
2362.49143	1.00437
2360.56286	0.99761
2358.63430	0.98805
2356.70573	0.98389
2354.77717	0.98679
2352.84860	0.99013
2350.92004	0.98714
2348.99147	0.98117
2347.06291	0.97637
2345.13435	0.97277
2343.20578	0.96931
2341.27722	0.96643
2339.34865	0.96426
2337.42009	0.96497
2335.49152	0.97108
2333.56296	0.98097
2331.63440	0.98897
2329.70583	0.98957
2327.77727	0.98377
2325.84870	0.97749
2323.92014	0.97478
2321.99157	0.97561
2320.06301	0.97746
2318.13444	0.97777
2316.20588	0.97589
2314.27732	0.97366
2312.34875	0.97254
2310.42019	0.97174
2308.49162	0.97031
2306.56306	0.96861
2304.63449	0.96683
2302.70593	0.96512
2300.77736	0.96401
2298.84880	0.96347
2296.92024	0.96274
2294.99167	0.96146
2293.06311	0.96027
2291.13454	0.95978
2289.20598	0.95977
2287.27741	0.95979
2285.34885	0.95966
2283.42028	0.95958
2281.49172	0.96006
2279.56316	0.96045
2277.63459	0.95951
2275.70603	0.95767
2273.77746	0.95605
2271.84890	0.95507
2269.92033	0.95427
2267.99177	0.95289
2266.06320	0.95090
2264.13464	0.94896
2262.20608	0.94757
2260.27751	0.94627
2258.34895	0.94435
2256.42038	0.94220
2254.49182	0.94066
2252.56325	0.93969
2250.63469	0.93879
2248.70612	0.93785
2246.77756	0.93686
2244.84900	0.93569
2242.92043	0.93456
2240.99187	0.93394
2239.06330	0.93385
2237.13474	0.93369
2235.20617	0.93343
2233.27761	0.93384
2231.34904	0.93462
2229.42048	0.93496
2227.49192	0.93544
2225.56335	0.93643
2223.63479	0.93654
2221.70622	0.93556
2219.77766	0.93525
2217.84909	0.93537
2215.92053	0.93416
2213.99196	0.93176
2212.06340	0.92930
2210.13484	0.92741
2208.20627	0.92625
2206.27771	0.92495
2204.34914	0.92293
2202.42058	0.92109
2200.49201	0.92011
2198.56345	0.91965
2196.63488	0.91894
2194.70632	0.91752
2192.77776	0.91588
2190.84919	0.91476
2188.92063	0.91426
2186.99206	0.91413
2185.06350	0.91399
2183.13493	0.91364
2181.20637	0.91325
2179.27781	0.91317
2177.34924	0.91355
2175.42068	0.91376
2173.49211	0.91314
2171.56355	0.91200
2169.63498	0.91099
2167.70642	0.90999
2165.77785	0.90832
2163.84929	0.90617
2161.92073	0.90454
2159.99216	0.90352
2158.06360	0.90241
2156.13503	0.90105
2154.20647	0.89966
2152.27790	0.89827
2150.34934	0.89699
2148.42077	0.89598
2146.49221	0.89519
2144.56365	0.89444
2142.63508	0.89376
2140.70652	0.89325
2138.77795	0.89300
2136.84939	0.89305
2134.92082	0.89334
2132.99226	0.89384
2131.06369	0.89452
2129.13513	0.89508
2127.20657	0.89471
2125.27800	0.89340
2123.34944	0.89227
2121.42087	0.89184
2119.49231	0.89130
2117.56374	0.89009
2115.63518	0.88864
2113.70661	0.88717
2111.77805	0.88526
2109.84949	0.88316
2107.92092	0.88139
2105.99236	0.87980
2104.06379	0.87815
2102.13523	0.87637
2100.20666	0.87442
2098.27810	0.87262
2096.34953	0.87126
2094.42097	0.87016
2092.49241	0.86903
2090.56384	0.86811
2088.63528	0.86777
2086.70671	0.86779
2084.77815	0.86769
2082.84958	0.86707
2080.92102	0.86576
2078.99245	0.86410
2077.06389	0.86276
2075.13533	0.86221
2073.20676	0.86205
2071.27820	0.86138
2069.34963	0.85996
2067.42107	0.85815
2065.49250	0.85633
2063.56394	0.85463
2061.63537	0.85296
2059.70681	0.85127
2057.77825	0.84956
2055.84968	0.84791
2053.92112	0.84637
2051.99255	0.84485
2050.06399	0.84326
2048.13542	0.84157
2046.20686	0.83995
2044.27830	0.83833
2042.34973	0.83660
2040.42117	0.83528
2038.49260	0.83460
2036.56404	0.83394
2034.63547	0.83276
2032.70691	0.83123
2030.77834	0.82997
2028.84978	0.82911
2026.92122	0.82824
2024.99265	0.82712
2023.06409	0.82566
2021.13552	0.82395
2019.20696	0.82253
2017.27839	0.82155
2015.34983	0.82060
2013.42126	0.81953
2011.49270	0.81824
2009.56414	0.81671
2007.63557	0.81539
2005.70701	0.81465
2003.77844	0.81414
2001.84988	0.81356
1999.92131	0.81273
1997.99275	0.81136
1996.06418	0.80980
1994.13562	0.80846
1992.20706	0.80719
1990.27849	0.80597
1988.34993	0.80490
1986.42136	0.80373
1984.49280	0.80247
1982.56423	0.80122
1980.63567	0.79969
1978.70710	0.79786
1976.77854	0.79607
1974.84998	0.79469
1972.92141	0.79357
1970.99285	0.79199
1969.06428	0.78986
1967.13572	0.78769
1965.20715	0.78551
1963.27859	0.78320
1961.35002	0.78092
1959.42146	0.77893
1957.49290	0.77726
1955.56433	0.77571
1953.63577	0.77424
1951.70720	0.77296
1949.77864	0.77181
1947.85007	0.77058
1945.92151	0.76929
1943.99294	0.76829
1942.06438	0.76757
1940.13582	0.76657
1938.20725	0.76525
1936.27869	0.76386
1934.35012	0.76257
1932.42156	0.76153
1930.49299	0.76073
1928.56443	0.75984
1926.63586	0.75859
1924.70730	0.75720
1922.77874	0.75589
1920.85017	0.75457
1918.92161	0.75328
1916.99304	0.75218
1915.06448	0.75115
1913.13591	0.74987
1911.20735	0.74821
1909.27878	0.74647
1907.35022	0.74495
1905.42166	0.74339
1903.49309	0.74198
1901.56453	0.74105
1899.63596	0.74012
1897.70740	0.73869
1895.77883	0.73728
1893.85027	0.73644
1891.92171	0.73577
1889.99314	0.73481
1888.06458	0.73347
1886.13601	0.73206
1884.20745	0.73081
1882.27888	0.72942
1880.35032	0.72785
1878.42175	0.72646
1876.49319	0.72524
1874.56463	0.72373
1872.63606	0.72199
1870.70750	0.72038
1868.77893	0.71889
1866.85037	0.71735
1864.92180	0.71583
1862.99324	0.71430
1861.06467	0.71262
1859.13611	0.71112
1857.20755	0.70995
1855.27898	0.70873
1853.35042	0.70743
1851.42185	0.70626
1849.49329	0.70505
1847.56472	0.70389
1845.63616	0.70347
1843.70759	0.70347
1841.77903	0.70247
1839.85047	0.70089
1837.92190	0.69963
1835.99334	0.69866
1834.06477	0.69743
1832.13621	0.69617
1830.20764	0.69550
1828.27908	0.69481
1826.35051	0.69353
1824.42195	0.69229
1822.49339	0.69126
1820.56482	0.69016
1818.63626	0.68901
1816.70769	0.68767
1814.77913	0.68621
1812.85056	0.68513
1810.92200	0.68460
1808.99343	0.68375
1807.06487	0.68216
1805.13631	0.68062
1803.20774	0.67968
1801.27918	0.67946
1799.35061	0.67931
1797.42205	0.67840
1795.49348	0.67708
1793.56492	0.67636
1791.63635	0.67688
1789.70779	0.67734
1787.77923	0.67731
1785.85066	0.67724
1783.92210	0.67722
1781.99353	0.67750
1780.06497	0.67815
1778.13640	0.67851
1776.20784	0.67845
1774.27927	0.67878
1772.35071	0.68020
1770.42215	0.68147
1768.49358	0.68184
1766.56502	0.68186
1764.63645	0.68177
1762.70789	0.68211
1760.77932	0.68312
1758.85076	0.68421
1756.92220	0.68609
1754.99363	0.68859
1753.06507	0.69120
1751.13650	0.69558
1749.20794	0.70235
1747.27937	0.70899
1745.35081	0.71463
1743.42224	0.71995
1741.49368	0.72566
1739.56512	0.73204
1737.63655	0.73683
1735.70799	0.74070
1733.77942	0.74894
1731.85086	0.75741
1729.92229	0.76298
1727.99373	0.76879
1726.06516	0.77497
1724.13660	0.78252
1722.20804	0.79012
1720.27947	0.79668
1718.35091	0.80763
1716.42234	0.82860
1714.49378	0.84592
1712.56521	0.85758
1710.63665	0.86999
1708.70808	0.88556
1706.77952	0.90964
1704.85096	0.94254
1702.92239	0.97231
1700.99383	1.01328
1699.06526	1.08113
1697.13670	1.14847
1695.20813	1.21582
1693.27957	1.26570
1691.35100	1.30449
1689.42244	1.35216
1687.49388	1.39852
1685.56531	1.44699
1683.63675	1.52154
1681.70818	1.57256
1679.77962	1.59769
1677.85105	1.61842
1675.92249	1.64090
1673.99392	1.66396
1672.06536	1.68142
1670.13680	1.70028
1668.20823	1.72372
1666.27967	1.73798
1664.35110	1.74726
1662.42254	1.75626
1660.49397	1.76267
1658.56541	1.76521
1656.63684	1.76227
1654.70828	1.75786
1652.77972	1.75810
1650.85115	1.75639
1648.92259	1.75182
1646.99402	1.75019
1645.06546	1.75111
1643.13689	1.74599
1641.20833	1.73912
1639.27976	1.73313
1637.35120	1.72901
1635.42264	1.72894
1633.49407	1.72834
1631.56551	1.72430
1629.63694	1.71831
1627.70838	1.71404
1625.77981	1.71140
1623.85125	1.70508
1621.92269	1.69093
1619.99412	1.67629
1618.06556	1.66195
1616.13699	1.63961
1614.20843	1.61904
1612.27986	1.60272
1610.35130	1.58420
1608.42273	1.56314
1606.49417	1.54415
1604.56561	1.52918
1602.63704	1.51557
1600.70848	1.50247
1598.77991	1.49138
1596.85135	1.48395
1594.92278	1.47952
1592.99422	1.47646
1591.06565	1.47640
1589.13709	1.47997
1587.20853	1.48494
1585.27996	1.49121
1583.35140	1.50073
1581.42283	1.51237
1579.49427	1.52456
1577.56570	1.54141
1575.63714	1.56109
1573.70857	1.56970
1571.78001	1.57558
1569.85145	1.58786
1567.92288	1.60212
1565.99432	1.61342
1564.06575	1.62272
1562.13719	1.62629
1560.20862	1.62874
1558.28006	1.64749
1556.35149	1.66323
1554.42293	1.67054
1552.49437	1.67493
1550.56580	1.67556
1548.63724	1.67278
1546.70867	1.66851
1544.78011	1.66307
1542.85154	1.65688
1540.92298	1.65396
1538.99441	1.64934
1537.06585	1.64244
1535.13729	1.63591
1533.20872	1.62956
1531.28016	1.62456
1529.35159	1.62126
1527.42303	1.61696
1525.49446	1.61027
1523.56590	1.60538
1521.63733	1.60152
1519.70877	1.59592
1517.78021	1.58937
1515.85164	1.58085
1513.92308	1.56997
1511.99451	1.55600
1510.06595	1.53922
1508.13738	1.51426
1506.20882	1.47789
1504.28025	1.46016
1502.35169	1.44919
1500.42313	1.43417
1498.49456	1.41066
1496.56600	1.38198
1494.63743	1.36074
1492.70887	1.34548
1490.78030	1.32694
1488.85174	1.30402
1486.92317	1.28774
1484.99461	1.27738
1483.06605	1.26991
1481.13748	1.26526
1479.20892	1.26394
1477.28035	1.26643
1475.35179	1.27386
1473.42322	1.29119
1471.49466	1.31383
1469.56610	1.32600
1467.63753	1.33257
1465.70897	1.34011
1463.78040	1.34743
1461.85184	1.35078
1459.92327	1.35225
1457.99471	1.35697
1456.06614	1.36361
1454.13758	1.36413
1452.20902	1.36363
1450.28045	1.36330
1448.35189	1.36074
1446.42332	1.35576
1444.49476	1.35053
1442.56619	1.34441
1440.63763	1.33728
1438.70906	1.33048
1436.78050	1.32242
1434.85194	1.31238
1432.92337	1.30377
1430.99481	1.29672
1429.06624	1.29078
1427.13768	1.28671
1425.20911	1.28603
1423.28055	1.28846
1421.35198	1.29074
1419.42342	1.29435
1417.49486	1.30111
1415.56629	1.30584
1413.63773	1.30892
1411.70916	1.31163
1409.78060	1.31308
1407.85203	1.31381
1405.92347	1.31572
1403.99490	1.31779
1402.06634	1.31737
1400.13778	1.31488
1398.20921	1.31163
1396.28065	1.30856
1394.35208	1.30562
1392.42352	1.30304
1390.49495	1.30125
1388.56639	1.30206
1386.63782	1.30798
1384.70926	1.31639
1382.78070	1.32434
1380.85213	1.33108
1378.92357	1.33463
1376.99500	1.33358
1375.06644	1.32729
1373.13787	1.31652
1371.20931	1.30457
1369.28074	1.29075
1367.35218	1.27436
1365.42362	1.25860
1363.49505	1.24372
1361.56649	1.22975
1359.63792	1.21937
1357.70936	1.21208
1355.78079	1.20615
1353.85223	1.20076
1351.92366	1.19601
1349.99510	1.19255
1348.06654	1.19046
1346.13797	1.18914
1344.20941	1.18786
1342.28084	1.18604
1340.35228	1.18464
1338.42371	1.18570
1336.49515	1.18896
1334.56659	1.19361
1332.63802	1.20000
1330.70946	1.20763
1328.78089	1.21500
1326.85233	1.22089
1324.92376	1.22512
1322.99520	1.22847
1321.06663	1.23194
1319.13807	1.23557
1317.20951	1.23833
1315.28094	1.23983
1313.35238	1.24039
1311.42381	1.24056
1309.49525	1.24125
1307.56668	1.24183
1305.63812	1.24067
1303.70955	1.23792
1301.78099	1.23461
1299.85243	1.23070
1297.92386	1.22548
1295.99530	1.21952
1294.06673	1.21426
1292.13817	1.21017
1290.20960	1.20764
1288.28104	1.20672
1286.35247	1.20654
1284.42391	1.20639
1282.49535	1.20610
1280.56678	1.20565
1278.63822	1.20521
1276.70965	1.20509
1274.78109	1.20561
1272.85252	1.20746
1270.92396	1.21111
1268.99539	1.21593
1267.06683	1.22077
1265.13827	1.22484
1263.20970	1.22784
1261.28114	1.23017
1259.35257	1.23192
1257.42401	1.23298
1255.49544	1.23417
1253.56688	1.23601
1251.63831	1.23823
1249.70975	1.24065
1247.78119	1.24302
1245.85262	1.24544
1243.92406	1.24771
1241.99549	1.24857
1240.06693	1.24774
1238.13836	1.24584
1236.20980	1.24214
1234.28123	1.23667
1232.35267	1.23101
1230.42411	1.22508
1228.49554	1.21756
1226.56698	1.20796
1224.63841	1.19670
1222.70985	1.18488
1220.78128	1.17309
1218.85272	1.16139
1216.92415	1.15093
1214.99559	1.14299
1213.06703	1.13773
1211.13846	1.13526
1209.20990	1.13472
1207.28133	1.13383
1205.35277	1.13147
1203.42420	1.12713
1201.49564	1.11980
1199.56708	1.11047
1197.63851	1.10151
1195.70995	1.09347
1193.78138	1.08625
1191.85282	1.08040
1189.92425	1.07578
1187.99569	1.07231
1186.06712	1.07069
1184.13856	1.07091
1182.21000	1.07272
1180.28143	1.07609
1178.35287	1.08056
1176.42430	1.08556
1174.49574	1.09065
1172.56717	1.09535
1170.63861	1.10034
1168.71004	1.10759
1166.78148	1.11884
1164.85292	1.13421
1162.92435	1.15051
1160.99579	1.16341
1159.06722	1.17160
1157.13866	1.17487
1155.21009	1.17227
1153.28153	1.16460
1151.35296	1.15390
1149.42440	1.14164
1147.49584	1.12961
1145.56727	1.11975
1143.63871	1.11306
1141.71014	1.10992
1139.78158	1.11059
1137.85301	1.11489
1135.92445	1.12159
1133.99588	1.12948
1132.06732	1.13872
1130.13876	1.15009
1128.21019	1.16317
1126.28163	1.17579
1124.35306	1.18595
1122.42450	1.19401
1120.49593	1.20174
1118.56737	1.20909
1116.63880	1.21412
1114.71024	1.21529
1112.78168	1.21247
1110.85311	1.20700
1108.92455	1.20094
1106.99598	1.19595
1105.06742	1.19281
1103.13885	1.19130
1101.21029	1.19119
1099.28172	1.19310
1097.35316	1.19865
1095.42460	1.20824
1093.49603	1.22011
1091.56747	1.23420
1089.63890	1.25178
1087.71034	1.27161
1085.78177	1.29202
1083.85321	1.31302
1081.92464	1.33192
1079.99608	1.34510
1078.06752	1.35248
1076.13895	1.35267
1074.21039	1.34452
1072.28182	1.33142
1070.35326	1.31713
1068.42469	1.30258
1066.49613	1.28742
1064.56756	1.27346
1062.63900	1.26197
1060.71044	1.25103
1058.78187	1.24022
1056.85331	1.23145
1054.92474	1.22490
1052.99618	1.21973
1051.06761	1.21612
1049.13905	1.21420
1047.21049	1.21480
1045.28192	1.21981
1043.35336	1.22881
1041.42479	1.23887
1039.49623	1.24796
1037.56766	1.25573
1035.63910	1.26202
1033.71053	1.26537
1031.78197	1.26398
1029.85341	1.25845
1027.92484	1.25019
1025.99628	1.23907
1024.06771	1.22598
1022.13915	1.21293
1020.21058	1.20097
1018.28202	1.19044
1016.35345	1.18030
1014.42489	1.16833
1012.49633	1.15329
1010.56776	1.13467
1008.63920	1.11307
1006.71063	1.09140
1004.78207	1.07194
1002.85350	1.05522
1000.92494	1.04209
998.99637	1.03317
997.06781	1.02737
995.13925	1.02324
993.21068	1.02046
991.28212	1.01782
989.35355	1.01355
987.42499	1.00801
985.49642	1.00208
983.56786	0.99654
981.63929	0.99219
979.71073	0.98847
977.78217	0.98437
975.85360	0.97963
973.92504	0.97376
971.99647	0.96545
970.06791	0.95406
968.13934	0.94070
966.21078	0.92785
964.28221	0.91779
962.35365	0.91185
960.42509	0.91151
958.49652	0.91685
956.56796	0.92422
954.63939	0.92844
952.71083	0.92675
950.78226	0.92007
948.85370	0.91110
946.92513	0.90224
944.99657	0.89506
943.06801	0.89008
941.13944	0.88698
939.21088	0.88516
937.28231	0.88354
935.35375	0.88142
933.42518	0.87927
931.49662	0.87729
929.56805	0.87562
927.63949	0.87500
925.71093	0.87524
923.78236	0.87530
921.85380	0.87510
919.92523	0.87470
917.99667	0.87367
916.06810	0.87241
914.13954	0.87140
912.21098	0.87062
910.28241	0.87081
908.35385	0.87284
906.42528	0.87677
904.49672	0.88220
902.56815	0.88809
900.63959	0.89281
898.71102	0.89600
896.78246	0.89817
894.85390	0.89829
892.92533	0.89583
890.99677	0.89243
889.06820	0.88885
887.13964	0.88461
885.21107	0.88046
883.28251	0.87783
881.35394	0.87673
879.42538	0.87645
877.49682	0.87641
875.56825	0.87593
873.63969	0.87561
871.71112	0.87681
869.78256	0.87958
867.85399	0.88326
865.92543	0.88740
863.99686	0.89169
862.06830	0.89658
860.13974	0.90276
858.21117	0.91010
856.28261	0.91787
854.35404	0.92480
852.42548	0.92978
850.49691	0.93304
848.56835	0.93538
846.63978	0.93703
844.71122	0.93825
842.78266	0.93911
840.85409	0.93949
838.92553	0.93999
836.99696	0.94056
835.06840	0.94050
833.13983	0.94055
831.21127	0.94138
829.28270	0.94267
827.35414	0.94490
825.42558	0.94822
823.49701	0.95180
821.56845	0.95626
819.63988	0.96190
817.71132	0.96738
815.78275	0.97251
813.85419	0.97796
811.92562	0.98393
809.99706	0.98941
808.06850	0.99366
806.13993	0.99789
804.21137	1.00180
802.28280	1.00361
800.35424	1.00372
798.42567	1.00362
796.49711	1.00327
794.56854	1.00168
792.63998	0.99970
790.71142	0.99908
788.78285	0.99934
786.85429	0.99960
784.92572	1.00087
782.99716	1.00402
781.06859	1.00857
779.14003	1.01392
777.21147	1.01999
775.28290	1.02626
773.35434	1.03162
771.42577	1.03680
769.49721	1.04280
767.56864	1.04912
765.64008	1.05637
763.71151	1.06488
761.78295	1.07278
759.85439	1.07859
757.92582	1.08250
755.99726	1.08579
754.06869	1.08950
752.14013	1.09280
750.21156	1.09381
748.28300	1.09235
746.35443	1.09036
744.42587	1.08948
742.49731	1.08907
740.56874	1.08780
738.64018	1.08553
736.71161	1.08293
734.78305	1.08125
732.85448	1.08125
730.92592	1.08265
728.99735	1.08576
727.06879	1.09100
725.14023	1.09734
723.21166	1.10376
721.28310	1.11060
719.35453	1.11799
717.42597	1.12547
715.49740	1.13245
713.56884	1.13827
711.64027	1.14393
709.71171	1.15092
707.78315	1.15867
705.85458	1.16595
703.92602	1.17234
701.99745	1.17720
700.06889	1.17786
698.14032	1.17269
696.21176	1.16464
694.28319	1.15651
692.35463	1.14950
690.42607	1.14472
688.49750	1.14077
686.56894	1.13560
684.64037	1.13003
682.71181	1.12556
680.78324	1.12176
678.85468	1.11847
676.92611	1.11709
674.99755	1.11767
673.06899	1.11909
671.14042	1.11973
669.21186	1.12088
667.28329	1.12916
665.35473	1.13768
663.42616	1.14285
661.49760	1.14803
659.56903	1.15276
657.64047	1.15484
655.71191	1.15755
653.78334	1.16398
651.85478	1.16942
649.92621	1.16899
647.99765	1.16512
646.06908	1.16047
644.14052	1.15308
642.21195	1.14383
640.28339	1.13649
638.35483	1.13156
636.42626	1.12660
634.49770	1.11975
632.56913	1.11264
630.64057	1.10737
628.71200	1.10352
626.78344	1.10030
624.85488	1.09837
622.92631	1.09935
620.99775	1.10257
619.06918	1.10679
617.14062	1.11226
615.21205	1.11771
613.28349	1.12411
611.35492	1.13638
609.42636	1.15369
607.49780	1.16718
605.56923	1.17181
603.64067	1.17132
601.71210	1.17262
599.78354	1.18006
