3997.91406	1.54844
3995.98550	1.55079
3994.05693	1.55401
3992.12837	1.55675
3990.19980	1.55065
3988.27124	1.53966
3986.34268	1.53464
3984.41411	1.53467
3982.48555	1.53922
3980.55698	1.54586
3978.62842	1.54449
3976.69985	1.54026
3974.77129	1.54430
3972.84272	1.55023
3970.91416	1.54752
3968.98560	1.53727
3967.05703	1.52714
3965.12847	1.52361
3963.19990	1.52530
3961.27134	1.52322
3959.34277	1.51684
3957.41421	1.51734
3955.48564	1.52650
3953.55708	1.53174
3951.62852	1.52666
3949.69995	1.51893
3947.77139	1.51356
3945.84282	1.50957
3943.91426	1.50867
3941.98569	1.50731
3940.05713	1.50379
3938.12856	1.50333
3936.20000	1.49905
3934.27144	1.49154
3932.34287	1.49722
3930.41431	1.50374
3928.48574	1.49713
3926.55718	1.49627
3924.62861	1.50497
3922.70005	1.51006
3920.77148	1.51107
3918.84292	1.51226
3916.91436	1.51362
3914.98579	1.51249
3913.05723	1.50647
3911.12866	1.49774
3909.20010	1.49166
3907.27153	1.49230
3905.34297	1.49873
3903.41440	1.49929
3901.48584	1.49346
3899.55728	1.49624
3897.62871	1.49922
3895.70015	1.49105
3893.77158	1.47984
3891.84302	1.48659
3889.91445	1.50211
3887.98589	1.49700
3886.05733	1.48513
3884.12876	1.48561
3882.20020	1.48710
3880.27163	1.48588
3878.34307	1.48091
3876.41450	1.47367
3874.48594	1.47529
3872.55737	1.48264
3870.62881	1.48167
3868.70025	1.47609
3866.77168	1.47495
3864.84312	1.48162
3862.91455	1.48555
3860.98599	1.47668
3859.05742	1.46674
3857.12886	1.46176
3855.20029	1.46422
3853.27173	1.48455
3851.34317	1.49106
3849.41460	1.47742
3847.48604	1.46437
3845.55747	1.45842
3843.62891	1.45914
3841.70034	1.46222
3839.77178	1.46844
3837.84321	1.47918
3835.91465	1.47886
3833.98609	1.46962
3832.05752	1.46186
3830.12896	1.45207
3828.20039	1.44404
3826.27183	1.44584
3824.34326	1.44585
3822.41470	1.44240
3820.48613	1.45113
3818.55757	1.45776
3816.62901	1.45880
3814.70044	1.45632
3812.77188	1.44850
3810.84331	1.43932
3808.91475	1.43294
3806.98618	1.43955
3805.05762	1.44887
3803.12905	1.44753
3801.20049	1.44732
3799.27193	1.45028
3797.34336	1.45383
3795.41480	1.45595
3793.48623	1.45311
3791.55767	1.44785
3789.62910	1.44075
3787.70054	1.43574
3785.77197	1.43591
3783.84341	1.43423
3781.91485	1.43208
3779.98628	1.43644
3778.05772	1.43627
3776.12915	1.42831
3774.20059	1.42260
3772.27202	1.42084
3770.34346	1.42234
3768.41489	1.42090
3766.48633	1.41551
3764.55777	1.41243
3762.62920	1.40979
3760.70064	1.40984
3758.77207	1.41446
3756.84351	1.41036
3754.91494	1.39528
3752.98638	1.38111
3751.05781	1.38918
3749.12925	1.40717
3747.20069	1.40785
3745.27212	1.41233
3743.34356	1.42403
3741.41499	1.41860
3739.48643	1.40192
3737.55786	1.39251
3735.62930	1.40580
3733.70074	1.43074
3731.77217	1.43915
3729.84361	1.42572
3727.91504	1.40558
3725.98648	1.39964
3724.05791	1.40601
3722.12935	1.40465
3720.20078	1.39743
3718.27222	1.39249
3716.34366	1.38932
3714.41509	1.38822
3712.48653	1.39940
3710.55796	1.41837
3708.62940	1.41513
3706.70083	1.40442
3704.77227	1.39925
3702.84370	1.40068
3700.91514	1.40179
3698.98658	1.39671
3697.05801	1.39286
3695.12945	1.39259
3693.20088	1.39151
3691.27232	1.39306
3689.34375	1.40771
3687.41519	1.42019
3685.48662	1.41899
3683.55806	1.41225
3681.62950	1.40559
3679.70093	1.40238
3677.77237	1.40833
3675.84380	1.43070
3673.91524	1.43820
3671.98667	1.43020
3670.05811	1.44010
3668.12954	1.45102
3666.20098	1.44309
3664.27242	1.43301
3662.34385	1.42973
3660.41529	1.43236
3658.48672	1.43656
3656.55816	1.44183
3654.62959	1.44183
3652.70103	1.43249
3650.77246	1.43277
3648.84390	1.47601
3646.91534	1.50549
3644.98677	1.50111
3643.05821	1.49353
3641.12964	1.49271
3639.20108	1.49677
3637.27251	1.50023
3635.34395	1.50463
3633.41538	1.50938
3631.48682	1.51059
3629.55826	1.52692
3627.62969	1.55452
3625.70113	1.55574
3623.77256	1.55112
3621.84400	1.55279
3619.91543	1.56012
3617.98687	1.56605
3616.05830	1.56791
3614.12974	1.57203
3612.20118	1.57442
3610.27261	1.57283
3608.34405	1.57814
3606.41548	1.59276
3604.48692	1.60640
3602.55835	1.61735
3600.62979	1.62416
3598.70123	1.61985
3596.77266	1.61061
3594.84410	1.61318
3592.91553	1.62446
3590.98697	1.62868
3589.05840	1.63247
3587.12984	1.64514
3585.20127	1.65395
3583.27271	1.65794
3581.34415	1.66323
3579.41558	1.67257
3577.48702	1.68153
3575.55845	1.68330
3573.62989	1.68462
3571.70132	1.68809
3569.77276	1.68782
3567.84419	1.69560
3565.91563	1.72357
3563.98707	1.73878
3562.05850	1.73816
3560.12994	1.74104
3558.20137	1.75060
3556.27281	1.76176
3554.34424	1.77128
3552.41568	1.77469
3550.48711	1.77284
3548.55855	1.77367
3546.62999	1.77992
3544.70142	1.78426
3542.77286	1.78701
3540.84429	1.79689
3538.91573	1.81213
3536.98716	1.82338
3535.05860	1.82405
3533.13003	1.81682
3531.20147	1.81169
3529.27291	1.82063
3527.34434	1.84032
3525.41578	1.84910
3523.48721	1.84816
3521.55865	1.85909
3519.63008	1.87964
3517.70152	1.89529
3515.77295	1.90586
3513.84439	1.91205
3511.91583	1.91003
3509.98726	1.90589
3508.05870	1.91062
3506.13013	1.92421
3504.20157	1.93138
3502.27300	1.92011
3500.34444	1.91439
3498.41587	1.93044
3496.48731	1.94099
3494.55875	1.92619
3492.63018	1.91715
3490.70162	1.93264
3488.77305	1.95162
3486.84449	1.95251
3484.91592	1.94654
3482.98736	1.94940
3481.05879	1.95112
3479.13023	1.94508
3477.20167	1.94871
3475.27310	1.96217
3473.34454	1.96671
3471.41597	1.96628
3469.48741	1.97130
3467.55884	1.97548
3465.63028	1.97773
3463.70171	1.98501
3461.77315	2.00328
3459.84459	2.02707
3457.91602	2.03301
3455.98746	2.01955
3454.05889	2.01242
3452.13033	2.01371
3450.20176	2.00786
3448.27320	2.00508
3446.34464	2.02228
3444.41607	2.04533
3442.48751	2.05922
3440.55894	2.06255
3438.63038	2.05443
3436.70181	2.04726
3434.77325	2.05436
3432.84468	2.07118
3430.91612	2.07957
3428.98756	2.07045
3427.05899	2.06239
3425.13043	2.06662
3423.20186	2.06901
3421.27330	2.06447
3419.34473	2.06519
3417.41617	2.06931
3415.48760	2.06005
3413.55904	2.04057
3411.63048	2.02758
3409.70191	2.02018
3407.77335	2.01894
3405.84478	2.02749
3403.91622	2.03425
3401.98765	2.03485
3400.05909	2.03715
3398.13052	2.04065
3396.20196	2.03440
3394.27340	2.01969
3392.34483	2.01914
3390.41627	2.03980
3388.48770	2.06323
3386.55914	2.07775
3384.63057	2.08549
3382.70201	2.08646
3380.77344	2.07974
3378.84488	2.07228
3376.91632	2.07119
3374.98775	2.07688
3373.05919	2.08217
3371.13062	2.08119
3369.20206	2.07983
3367.27349	2.08066
3365.34493	2.07491
3363.41636	2.06242
3361.48780	2.06181
3359.55924	2.07540
3357.63067	2.07825
3355.70211	2.07305
3353.77354	2.07534
3351.84498	2.07439
3349.91641	2.07440
3347.98785	2.08403
3346.05928	2.08722
3344.13072	2.08088
3342.20216	2.07679
3340.27359	2.07696
3338.34503	2.08128
3336.41646	2.08718
3334.48790	2.08892
3332.55933	2.08969
3330.63077	2.09967
3328.70220	2.11432
3326.77364	2.11395
3324.84508	2.10901
3322.91651	2.12576
3320.98795	2.14751
3319.05938	2.14036
3317.13082	2.11336
3315.20225	2.09340
3313.27369	2.09070
3311.34513	2.10374
3309.41656	2.11336
3307.48800	2.10343
3305.55943	2.09092
3303.63087	2.08782
3301.70230	2.09083
3299.77374	2.10041
3297.84517	2.10750
3295.91661	2.10506
3293.98805	2.10853
3292.05948	2.12191
3290.13092	2.13094
3288.20235	2.13444
3286.27379	2.12800
3284.34522	2.11229
3282.41666	2.10877
3280.48809	2.11734
3278.55953	2.12230
3276.63097	2.12040
3274.70240	2.11985
3272.77384	2.12856
3270.84527	2.13404
3268.91671	2.12751
3266.98814	2.12189
3265.05958	2.12449
3263.13101	2.12373
3261.20245	2.10701
3259.27389	2.08668
3257.34532	2.07263
3255.41676	2.05635
3253.48819	2.04231
3251.55963	2.04205
3249.63106	2.05364
3247.70250	2.06778
3245.77393	2.07010
3243.84537	2.05488
3241.91681	2.04045
3239.98824	2.03536
3238.05968	2.02529
3236.13111	2.00418
3234.20255	1.98265
3232.27398	1.97331
3230.34542	1.97461
3228.41685	1.97541
3226.48829	1.97917
3224.55973	1.98944
3222.63116	1.99547
3220.70260	1.99463
3218.77403	1.98933
3216.84547	1.97250
3214.91690	1.95179
3212.98834	1.95203
3211.05977	1.97235
3209.13121	1.98277
3207.20265	1.97250
3205.27408	1.95925
3203.34552	1.95757
3201.41695	1.96725
3199.48839	1.97010
3197.55982	1.95231
3195.63126	1.92790
3193.70269	1.91062
3191.77413	1.90502
3189.84557	1.91159
3187.91700	1.91641
3185.98844	1.91583
3184.05987	1.92256
3182.13131	1.93044
3180.20274	1.92130
3178.27418	1.89457
3176.34562	1.87026
3174.41705	1.86304
3172.48849	1.86760
3170.55992	1.87346
3168.63136	1.87594
3166.70279	1.87523
3164.77423	1.87120
3162.84566	1.86054
3160.91710	1.84742
3158.98854	1.83949
3157.05997	1.83455
3155.13141	1.83092
3153.20284	1.83134
3151.27428	1.82999
3149.34571	1.82181
3147.41715	1.81687
3145.48858	1.82310
3143.56002	1.83069
3141.63146	1.82712
3139.70289	1.81586
3137.77433	1.80644
3135.84576	1.79893
3133.91720	1.78892
3131.98863	1.77932
3130.06007	1.77860
3128.13150	1.78782
3126.20294	1.79704
3124.27438	1.79915
3122.34581	1.79819
3120.41725	1.79897
3118.48868	1.79934
3116.56012	1.79598
3114.63155	1.79276
3112.70299	1.79374
3110.77442	1.79356
3108.84586	1.78538
3106.91730	1.77608
3104.98873	1.77858
3103.06017	1.78855
3101.13160	1.78992
3099.20304	1.78042
3097.27447	1.77215
3095.34591	1.77235
3093.41734	1.77484
3091.48878	1.77533
3089.56022	1.78132
3087.63165	1.79184
3085.70309	1.79403
3083.77452	1.78747
3081.84596	1.78140
3079.91739	1.77548
3077.98883	1.76959
3076.06026	1.76847
3074.13170	1.76824
3072.20314	1.76408
3070.27457	1.75638
3068.34601	1.74624
3066.41744	1.74079
3064.48888	1.74104
3062.56031	1.73598
3060.63175	1.72723
3058.70318	1.72341
3056.77462	1.72234
3054.84606	1.72134
3052.91749	1.72086
3050.98893	1.72117
3049.06036	1.72113
3047.13180	1.71671
3045.20323	1.71065
3043.27467	1.70639
3041.34610	1.69990
3039.41754	1.69390
3037.48898	1.69466
3035.56041	1.69733
3033.63185	1.69426
3031.70328	1.68624
3029.77472	1.67762
3027.84615	1.67176
3025.91759	1.66873
3023.98903	1.66504
3022.06046	1.65813
3020.13190	1.64705
3018.20333	1.63714
3016.27477	1.63520
3014.34620	1.63713
3012.41764	1.63843
3010.48907	1.63830
3008.56051	1.63382
3006.63195	1.62955
3004.70338	1.62956
3002.77482	1.62743
3000.84625	1.62353
2998.91769	1.62369
2996.98912	1.62415
2995.06056	1.62394
2993.13199	1.62843
2991.20343	1.63466
2989.27487	1.63803
2987.34630	1.64044
2985.41774	1.64345
2983.48917	1.64576
2981.56061	1.64591
2979.63204	1.64556
2977.70348	1.64941
2975.77491	1.65843
2973.84635	1.66932
2971.91779	1.67955
2969.98922	1.68643
2968.06066	1.68916
2966.13209	1.69148
2964.20353	1.69711
2962.27496	1.70502
2960.34640	1.71008
2958.41783	1.70997
2956.48927	1.70659
2954.56071	1.70135
2952.63214	1.69431
2950.70358	1.68690
2948.77501	1.68196
2946.84645	1.67975
2944.91788	1.68062
2942.98932	1.68540
2941.06075	1.69450
2939.13219	1.71014
2937.20363	1.72795
2935.27506	1.73774
2933.34650	1.74188
2931.41793	1.75263
2929.48937	1.76733
2927.56080	1.77451
2925.63224	1.77968
2923.70367	1.79088
2921.77511	1.80461
2919.84655	1.81396
2917.91798	1.81222
2915.98942	1.79790
2914.06085	1.77120
2912.13229	1.73847
2910.20372	1.71276
2908.27516	1.69475
2906.34659	1.67684
2904.41803	1.65943
2902.48947	1.64670
2900.56090	1.63723
2898.63234	1.62831
2896.70377	1.62135
2894.77521	1.61609
2892.84664	1.60852
2890.91808	1.59801
2888.98952	1.59009
2887.06095	1.58855
2885.13239	1.59213
2883.20382	1.59950
2881.27526	1.60473
2879.34669	1.60163
2877.41813	1.59699
2875.48956	1.59743
2873.56100	1.59736
2871.63244	1.59117
2869.70387	1.58335
2867.77531	1.57671
2865.84674	1.56877
2863.91818	1.56469
2861.98961	1.56902
2860.06105	1.57728
2858.13248	1.58566
2856.20392	1.59388
2854.27536	1.60352
2852.34679	1.61423
2850.41823	1.61956
2848.48966	1.61018
2846.56110	1.58353
2844.63253	1.54972
2842.70397	1.52070
2840.77540	1.50013
2838.84684	1.48707
2836.91828	1.47973
2834.98971	1.47428
2833.06115	1.46828
2831.13258	1.46156
2829.20402	1.45367
2827.27545	1.44700
2825.34689	1.44293
2823.41832	1.43742
2821.48976	1.42985
2819.56120	1.42520
2817.63263	1.42344
2815.70407	1.41907
2813.77550	1.41086
2811.84694	1.40420
2809.91837	1.40357
2807.98981	1.40518
2806.06124	1.40374
2804.13268	1.40121
2802.20412	1.39894
2800.27555	1.39444
2798.34699	1.38880
2796.41842	1.38599
2794.48986	1.38476
2792.56129	1.38047
2790.63273	1.37503
2788.70416	1.37210
2786.77560	1.36984
2784.84704	1.36627
2782.91847	1.36164
2780.98991	1.35693
2779.06134	1.35350
2777.13278	1.35155
2775.20421	1.34969
2773.27565	1.34647
2771.34708	1.34214
2769.41852	1.33865
2767.48996	1.33627
2765.56139	1.33306
2763.63283	1.32932
2761.70426	1.32663
2759.77570	1.32475
2757.84713	1.32338
2755.91857	1.32183
2753.99001	1.31950
2752.06144	1.31786
2750.13288	1.31684
2748.20431	1.31499
2746.27575	1.31300
2744.34718	1.31063
2742.41862	1.30579
2740.49005	1.30028
2738.56149	1.29783
2736.63293	1.29696
2734.70436	1.29488
2732.77580	1.29254
2730.84723	1.29098
2728.91867	1.28937
2726.99010	1.28706
2725.06154	1.28550
2723.13297	1.28507
2721.20441	1.28252
2719.27585	1.27777
2717.34728	1.27456
2715.41872	1.27319
2713.49015	1.27163
2711.56159	1.26920
2709.63302	1.26554
2707.70446	1.26189
2705.77589	1.26060
2703.84733	1.26107
2701.91877	1.26061
2699.99020	1.25783
2698.06164	1.25367
2696.13307	1.25024
2694.20451	1.24862
2692.27594	1.24796
2690.34738	1.24596
2688.41881	1.24246
2686.49025	1.24020
2684.56169	1.23950
2682.63312	1.23815
2680.70456	1.23589
2678.77599	1.23356
2676.84743	1.23113
2674.91886	1.22907
2672.99030	1.22750
2671.06173	1.22568
2669.13317	1.22355
2667.20461	1.22117
2665.27604	1.21847
2663.34748	1.21571
2661.41891	1.21320
2659.49035	1.21116
2657.56178	1.20927
2655.63322	1.20705
2653.70465	1.20490
2651.77609	1.20302
2649.84753	1.20040
2647.91896	1.19735
2645.99040	1.19595
2644.06183	1.19628
2642.13327	1.19641
2640.20470	1.19575
2638.27614	1.19439
2636.34757	1.19243
2634.41901	1.19034
2632.49045	1.18753
2630.56188	1.18392
2628.63332	1.18104
2626.70475	1.17943
2624.77619	1.17896
2622.84762	1.17907
2620.91906	1.17824
2618.99049	1.17604
2617.06193	1.17399
2615.13337	1.17322
2613.20480	1.17299
2611.27624	1.17205
2609.34767	1.16984
2607.41911	1.16750
2605.49054	1.16630
2603.56198	1.16481
2601.63342	1.16185
2599.70485	1.15861
2597.77629	1.15570
2595.84772	1.15264
2593.91916	1.15005
2591.99059	1.14950
2590.06203	1.15046
2588.13346	1.15025
2586.20490	1.14821
2584.27634	1.14603
2582.34777	1.14471
2580.41921	1.14382
2578.49064	1.14240
2576.56208	1.14056
2574.63351	1.13919
2572.70495	1.13780
2570.77638	1.13545
2568.84782	1.13299
2566.91926	1.13133
2564.99069	1.12951
2563.06213	1.12748
2561.13356	1.12619
2559.20500	1.12515
2557.27643	1.12434
2555.34787	1.12416
2553.41930	1.12365
2551.49074	1.12157
2549.56218	1.11821
2547.63361	1.11562
2545.70505	1.11442
2543.77648	1.11325
2541.84792	1.11150
2539.91935	1.10945
2537.99079	1.10767
2536.06222	1.10605
2534.13366	1.10427
2532.20510	1.10303
2530.27653	1.10248
2528.34797	1.10174
2526.41940	1.10070
2524.49084	1.09991
2522.56227	1.09882
2520.63371	1.09672
2518.70514	1.09439
2516.77658	1.09250
2514.84802	1.09073
2512.91945	1.08893
2510.99089	1.08668
2509.06232	1.08402
2507.13376	1.08188
2505.20519	1.08069
2503.27663	1.08027
2501.34806	1.07987
2499.41950	1.07855
2497.49094	1.07653
2495.56237	1.07502
2493.63381	1.07458
2491.70524	1.07403
2489.77668	1.07225
2487.84811	1.06936
2485.91955	1.06634
2483.99098	1.06402
2482.06242	1.06220
2480.13386	1.06096
2478.20529	1.06023
2476.27673	1.05879
2474.34816	1.05677
2472.41960	1.05535
2470.49103	1.05453
2468.56247	1.05385
2466.63391	1.05315
2464.70534	1.05229
2462.77678	1.05147
2460.84821	1.05071
2458.91965	1.04917
2456.99108	1.04674
2455.06252	1.04461
2453.13395	1.04346
2451.20539	1.04245
2449.27683	1.04102
2447.34826	1.04000
2445.41970	1.03941
2443.49113	1.03836
2441.56257	1.03667
2439.63400	1.03443
2437.70544	1.03205
2435.77687	1.03033
2433.84831	1.02914
2431.91975	1.02759
2429.99118	1.02575
2428.06262	1.02403
2426.13405	1.02237
2424.20549	1.02079
2422.27692	1.01925
2420.34836	1.01810
2418.41979	1.01736
2416.49123	1.01612
2414.56267	1.01472
2412.63410	1.01414
2410.70554	1.01401
2408.77697	1.01340
2406.84841	1.01195
2404.91984	1.01041
2402.99128	1.00945
2401.06271	1.00831
2399.13415	1.00620
2397.20559	1.00327
2395.27702	1.00007
2393.34846	0.99754
2391.41989	0.99603
2389.49133	0.99489
2387.56276	0.99349
2385.63420	0.99174
2383.70563	0.99004
2381.77707	0.98919
2379.84851	0.98922
2377.91994	0.98833
2375.99138	0.98564
2374.06281	0.98376
2372.13425	0.98435
2370.20568	0.98616
2368.27712	0.98826
2366.34855	0.98732
2364.41999	0.97915
2362.49143	0.96802
2360.56286	0.96696
2358.63430	0.97611
2356.70573	0.97784
2354.77717	0.97233
2352.84860	0.97057
2350.92004	0.97063
2348.99147	0.96878
2347.06291	0.96583
2345.13435	0.96521
2343.20578	0.96923
2341.27722	0.97112
2339.34865	0.96702
2337.42009	0.96231
2335.49152	0.95924
2333.56296	0.95900
2331.63440	0.96296
2329.70583	0.96609
2327.77727	0.96526
2325.84870	0.96382
2323.92014	0.96416
2321.99157	0.96489
2320.06301	0.96387
2318.13444	0.96195
2316.20588	0.96005
2314.27732	0.95759
2312.34875	0.95479
2310.42019	0.95256
2308.49162	0.95096
2306.56306	0.94984
2304.63449	0.94903
2302.70593	0.94777
2300.77736	0.94610
2298.84880	0.94493
2296.92024	0.94442
2294.99167	0.94447
2293.06311	0.94470
2291.13454	0.94451
2289.20598	0.94410
2287.27741	0.94364
2285.34885	0.94247
2283.42028	0.94081
2281.49172	0.93950
2279.56316	0.93826
2277.63459	0.93665
2275.70603	0.93487
2273.77746	0.93296
2271.84890	0.93115
2269.92033	0.92951
2267.99177	0.92823
2266.06320	0.92794
2264.13464	0.92816
2262.20608	0.92775
2260.27751	0.92677
2258.34895	0.92605
2256.42038	0.92541
2254.49182	0.92415
2252.56325	0.92253
2250.63469	0.92141
2248.70612	0.92067
2246.77756	0.91972
2244.84900	0.91858
2242.92043	0.91748
2240.99187	0.91648
2239.06330	0.91541
2237.13474	0.91424
2235.20617	0.91352
2233.27761	0.91325
2231.34904	0.91290
2229.42048	0.91236
2227.49192	0.91152
2225.56335	0.91024
2223.63479	0.90877
2221.70622	0.90728
2219.77766	0.90572
2217.84909	0.90398
2215.92053	0.90215
2213.99196	0.90060
2212.06340	0.89942
2210.13484	0.89827
2208.20627	0.89738
2206.27771	0.89730
2204.34914	0.89769
2202.42058	0.89780
2200.49201	0.89741
2198.56345	0.89680
2196.63488	0.89620
2194.70632	0.89565
2192.77776	0.89496
2190.84919	0.89373
2188.92063	0.89191
2186.99206	0.89005
2185.06350	0.88849
2183.13493	0.88710
2181.20637	0.88570
2179.27781	0.88438
2177.34924	0.88373
2175.42068	0.88366
2173.49211	0.88338
2171.56355	0.88329
2169.63498	0.88387
2167.70642	0.88422
2165.77785	0.88360
2163.84929	0.88253
2161.92073	0.88155
2159.99216	0.88033
2158.06360	0.87864
2156.13503	0.87683
2154.20647	0.87546
2152.27790	0.87473
2150.34934	0.87395
2148.42077	0.87264
2146.49221	0.87127
2144.56365	0.87050
2142.63508	0.87034
2140.70652	0.87016
2138.77795	0.86939
2136.84939	0.86813
2134.92082	0.86678
2132.99226	0.86567
2131.06369	0.86462
2129.13513	0.86316
2127.20657	0.86137
2125.27800	0.85963
2123.34944	0.85813
2121.42087	0.85680
2119.49231	0.85515
2117.56374	0.85337
2115.63518	0.85212
2113.70661	0.85134
2111.77805	0.85052
2109.84949	0.84962
2107.92092	0.84903
2105.99236	0.84842
2104.06379	0.84727
2102.13523	0.84572
2100.20666	0.84423
2098.27810	0.84294
2096.34953	0.84116
2094.42097	0.83870
2092.49241	0.83644
2090.56384	0.83457
2088.63528	0.83266
2086.70671	0.83086
2084.77815	0.82942
2082.84958	0.82818
2080.92102	0.82683
2078.99245	0.82534
2077.06389	0.82399
2075.13533	0.82307
2073.20676	0.82252
2071.27820	0.82157
2069.34963	0.81965
2067.42107	0.81773
2065.49250	0.81681
2063.56394	0.81602
2061.63537	0.81442
2059.70681	0.81243
2057.77825	0.81087
2055.84968	0.81001
2053.92112	0.80923
2051.99255	0.80779
2050.06399	0.80602
2048.13542	0.80446
2046.20686	0.80306
2044.27830	0.80182
2042.34973	0.80077
2040.42117	0.79947
2038.49260	0.79762
2036.56404	0.79574
2034.63547	0.79412
2032.70691	0.79248
2030.77834	0.79094
2028.84978	0.78986
2026.92122	0.78911
2024.99265	0.78808
2023.06409	0.78668
2021.13552	0.78528
2019.20696	0.78426
2017.27839	0.78366
2015.34983	0.78268
2013.42126	0.78088
2011.49270	0.77897
2009.56414	0.77747
2007.63557	0.77604
2005.70701	0.77438
2003.77844	0.77268
2001.84988	0.77093
1999.92131	0.76883
1997.99275	0.76671
1996.06418	0.76512
1994.13562	0.76435
1992.20706	0.76443
1990.27849	0.76424
1988.34993	0.76309
1986.42136	0.76156
1984.49280	0.75982
1982.56423	0.75812
1980.63567	0.75664
1978.70710	0.75511
1976.77854	0.75353
1974.84998	0.75215
1972.92141	0.75086
1970.99285	0.74926
1969.06428	0.74770
1967.13572	0.74702
1965.20715	0.74636
1963.27859	0.74479
1961.35002	0.74333
1959.42146	0.74234
1957.49290	0.74124
1955.56433	0.74033
1953.63577	0.73944
1951.70720	0.73799
1949.77864	0.73634
1947.85007	0.73481
1945.92151	0.73307
1943.99294	0.73171
1942.06438	0.73136
1940.13582	0.73048
1938.20725	0.72875
1936.27869	0.72735
1934.35012	0.72639
1932.42156	0.72540
1930.49299	0.72407
1928.56443	0.72249
1926.63586	0.72069
1924.70730	0.71906
1922.77874	0.71810
1920.85017	0.71698
1918.92161	0.71589
1916.99304	0.71537
1915.06448	0.71419
1913.13591	0.71261
1911.20735	0.71192
1909.27878	0.71212
1907.35022	0.71201
1905.42166	0.71115
1903.49309	0.71020
1901.56453	0.70940
1899.63596	0.70835
1897.70740	0.70722
1895.77883	0.70672
1893.85027	0.70598
1891.92171	0.70442
1889.99314	0.70380
1888.06458	0.70378
1886.13601	0.70272
1884.20745	0.70136
1882.27888	0.70013
1880.35032	0.69900
1878.42175	0.69811
1876.49319	0.69705
1874.56463	0.69539
1872.63606	0.69313
1870.70750	0.69154
1868.77893	0.69267
1866.85037	0.69411
1864.92180	0.69286
1862.99324	0.69082
1861.06467	0.68946
1859.13611	0.68892
1857.20755	0.68876
1855.27898	0.68852
1853.35042	0.68800
1851.42185	0.68691
1849.49329	0.68536
1847.56472	0.68375
1845.63616	0.68330
1843.70759	0.68472
1841.77903	0.68437
1839.85047	0.68200
1837.92190	0.68018
1835.99334	0.67906
1834.06477	0.67703
1832.13621	0.67490
1830.20764	0.67536
1828.27908	0.67650
1826.35051	0.67572
1824.42195	0.67531
1822.49339	0.67508
1820.56482	0.67423
1818.63626	0.67382
1816.70769	0.67366
1814.77913	0.67277
1812.85056	0.67161
1810.92200	0.67140
1808.99343	0.67136
1807.06487	0.67020
1805.13631	0.66836
1803.20774	0.66692
1801.27918	0.66710
1799.35061	0.66774
1797.42205	0.66686
1795.49348	0.66532
1793.56492	0.66560
1791.63635	0.66896
1789.70779	0.67046
1787.77923	0.66929
1785.85066	0.66838
1783.92210	0.66806
1781.99353	0.66761
1780.06497	0.66738
1778.13640	0.66649
1776.20784	0.66428
1774.27927	0.66306
1772.35071	0.66592
1770.42215	0.66919
1768.49358	0.66967
1766.56502	0.66913
1764.63645	0.66828
1762.70789	0.66958
1760.77932	0.67321
1758.85076	0.67551
1756.92220	0.67848
1754.99363	0.68164
1753.06507	0.68350
1751.13650	0.68865
1749.20794	0.69928
1747.27937	0.70823
1745.35081	0.71387
1743.42224	0.71912
1741.49368	0.72498
1739.56512	0.73050
1737.63655	0.73231
1735.70799	0.73252
1733.77942	0.73908
1731.85086	0.74578
1729.92229	0.74776
1727.99373	0.74940
1726.06516	0.75131
1724.13660	0.75512
1722.20804	0.75911
1720.27947	0.76149
1718.35091	0.76844
1716.42234	0.78610
1714.49378	0.79924
1712.56521	0.80647
1710.63665	0.81403
1708.70808	0.82336
1706.77952	0.83971
1704.85096	0.86372
1702.92239	0.88398
1700.99383	0.91470
1699.06526	0.97277
1697.13670	1.03404
1695.20813	1.09576
1693.27957	1.13857
1691.35100	1.17064
1689.42244	1.21257
1687.49388	1.25380
1685.56531	1.29878
1683.63675	1.38000
1681.70818	1.44085
1679.77962	1.47311
1677.85105	1.50413
1675.92249	1.54512
1673.99392	1.59284
1672.06536	1.62868
1670.13680	1.66300
1668.20823	1.69809
1666.27967	1.71729
1664.35110	1.73591
1662.42254	1.76374
1660.49397	1.78697
1658.56541	1.80014
1656.63684	1.80670
1654.70828	1.81569
1652.77972	1.84204
1650.85115	1.85304
1648.92259	1.84883
1646.99402	1.84341
1645.06546	1.83761
1643.13689	1.82816
1641.20833	1.82146
1639.27976	1.81693
1637.35120	1.81097
1635.42264	1.80728
1633.49407	1.80598
1631.56551	1.80131
1629.63694	1.79165
1627.70838	1.78033
1625.77981	1.76813
1623.85125	1.74826
1621.92269	1.72094
1619.99412	1.69554
1618.06556	1.66805
1616.13699	1.63255
1614.20843	1.60036
1612.27986	1.57118
1610.35130	1.54178
1608.42273	1.51209
1606.49417	1.48333
1604.56561	1.45875
1602.63704	1.43950
1600.70848	1.42579
1598.77991	1.41552
1596.85135	1.40667
1594.92278	1.40066
1592.99422	1.39872
1591.06565	1.39963
1589.13709	1.40220
1587.20853	1.40694
1585.27996	1.41465
1583.35140	1.42484
1581.42283	1.43605
1579.49427	1.44657
1577.56570	1.46018
1575.63714	1.48452
1573.70857	1.50270
1571.78001	1.51328
1569.85145	1.53310
1567.92288	1.55794
1565.99432	1.57543
1564.06575	1.59201
1562.13719	1.60614
1560.20862	1.62570
1558.28006	1.66595
1556.35149	1.67743
1554.42293	1.68241
1552.49437	1.69102
1550.56580	1.69587
1548.63724	1.69579
1546.70867	1.69315
1544.78011	1.68730
1542.85154	1.67892
1540.92298	1.67997
1538.99441	1.68340
1537.06585	1.67631
1535.13729	1.66534
1533.20872	1.65066
1531.28016	1.63595
1529.35159	1.62525
1527.42303	1.61613
1525.49446	1.60546
1523.56590	1.59634
1521.63733	1.59181
1519.70877	1.58664
1517.78021	1.57522
1515.85164	1.55985
1513.92308	1.54131
1511.99451	1.51751
1510.06595	1.49055
1508.13738	1.45424
1506.20882	1.40735
1504.28025	1.38319
1502.35169	1.36431
1500.42313	1.34238
1498.49456	1.31665
1496.56600	1.28784
1494.63743	1.26433
1492.70887	1.24696
1490.78030	1.22814
1488.85174	1.20531
1486.92317	1.18804
1484.99461	1.17618
1483.06605	1.16664
1481.13748	1.15967
1479.20892	1.15640
1477.28035	1.15799
1475.35179	1.16591
1473.42322	1.18367
1471.49466	1.20586
1469.56610	1.21832
1467.63753	1.22551
1465.70897	1.23498
1463.78040	1.24588
1461.85184	1.24950
1459.92327	1.24753
1457.99471	1.25173
1456.06614	1.26644
1454.13758	1.26939
1452.20902	1.26545
1450.28045	1.26037
1448.35189	1.25662
1446.42332	1.25373
1444.49476	1.24859
1442.56619	1.24110
1440.63763	1.23275
1438.70906	1.22377
1436.78050	1.21300
1434.85194	1.20086
1432.92337	1.18901
1430.99481	1.17754
1429.06624	1.16739
1427.13768	1.15992
1425.20911	1.15613
1423.28055	1.15577
1421.35198	1.15639
1419.42342	1.15976
1417.49486	1.16586
1415.56629	1.16838
1413.63773	1.16938
1411.70916	1.17154
1409.78060	1.17478
1407.85203	1.17846
1405.92347	1.18352
1403.99490	1.18893
1402.06634	1.19175
1400.13778	1.19382
1398.20921	1.19654
1396.28065	1.19878
1394.35208	1.20023
1392.42352	1.19934
1390.49495	1.19683
1388.56639	1.19689
1386.63782	1.20195
1384.70926	1.20773
1382.78070	1.21192
1380.85213	1.21459
1378.92357	1.21408
1376.99500	1.20951
1375.06644	1.20072
1373.13787	1.18816
1371.20931	1.17408
1369.28074	1.15775
1367.35218	1.13928
1365.42362	1.12206
1363.49505	1.10753
1361.56649	1.09668
1359.63792	1.08935
1357.70936	1.08412
1355.78079	1.08076
1353.85223	1.07923
1351.92366	1.07913
1349.99510	1.07939
1348.06654	1.07903
1346.13797	1.07829
1344.20941	1.07753
1342.28084	1.07676
1340.35228	1.07678
1338.42371	1.07771
1336.49515	1.07882
1334.56659	1.08083
1332.63802	1.08420
1330.70946	1.08862
1328.78089	1.09318
1326.85233	1.09655
1324.92376	1.09858
1322.99520	1.10074
1321.06663	1.10415
1319.13807	1.10874
1317.20951	1.11350
1315.28094	1.11765
1313.35238	1.12111
1311.42381	1.12329
1309.49525	1.12432
1307.56668	1.12494
1305.63812	1.12492
1303.70955	1.12416
1301.78099	1.12244
1299.85243	1.11886
1297.92386	1.11381
1295.99530	1.10900
1294.06673	1.10554
1292.13817	1.10349
1290.20960	1.10221
1288.28104	1.10156
1286.35247	1.10189
1284.42391	1.10286
1282.49535	1.10412
1280.56678	1.10574
1278.63822	1.10757
1276.70965	1.10952
1274.78109	1.11209
1272.85252	1.11582
1270.92396	1.12057
1268.99539	1.12574
1267.06683	1.13102
1265.13827	1.13627
1263.20970	1.14070
1261.28114	1.14358
1259.35257	1.14548
1257.42401	1.14739
1255.49544	1.14974
1253.56688	1.15269
1251.63831	1.15625
1249.70975	1.15994
1247.78119	1.16285
1245.85262	1.16490
1243.92406	1.16664
1241.99549	1.16753
1240.06693	1.16720
1238.13836	1.16598
1236.20980	1.16385
1234.28123	1.16041
1232.35267	1.15498
1230.42411	1.14769
1228.49554	1.13950
1226.56698	1.13022
1224.63841	1.11944
1222.70985	1.10818
1220.78128	1.09736
1218.85272	1.08664
1216.92415	1.07629
1214.99559	1.06742
1213.06703	1.06076
1211.13846	1.05653
1209.20990	1.05416
1207.28133	1.05268
1205.35277	1.05023
1203.42420	1.04479
1201.49564	1.03666
1199.56708	1.02759
1197.63851	1.01881
1195.70995	1.01060
1193.78138	1.00247
1191.85282	0.99482
1189.92425	0.98889
1187.99569	0.98455
1186.06712	0.98061
1184.13856	0.97712
1182.21000	0.97514
1180.28143	0.97493
1178.35287	0.97631
1176.42430	0.97950
1174.49574	0.98417
1172.56717	0.98925
1170.63861	0.99466
1168.71004	1.00177
1166.78148	1.01203
1164.85292	1.02559
1162.92435	1.04021
1160.99579	1.05234
1159.06722	1.05920
1157.13866	1.05954
1155.21009	1.05402
1153.28153	1.04387
1151.35296	1.02993
1149.42440	1.01391
1147.49584	0.99780
1145.56727	0.98346
1143.63871	0.97277
1141.71014	0.96591
1139.78158	0.96176
1137.85301	0.96001
1135.92445	0.96110
1133.99588	0.96530
1132.06732	0.97263
1130.13876	0.98270
1128.21019	0.99473
1126.28163	1.00824
1124.35306	1.02250
1122.42450	1.03604
1120.49593	1.04792
1118.56737	1.05736
1116.63880	1.06356
1114.71024	1.06644
1112.78168	1.06614
1110.85311	1.06293
1108.92455	1.05746
1106.99598	1.05101
1105.06742	1.04528
1103.13885	1.04145
1101.21029	1.03923
1099.28172	1.03833
1097.35316	1.04010
1095.42460	1.04535
1093.49603	1.05366
1091.56747	1.06519
1089.63890	1.07993
1087.71034	1.09708
1085.78177	1.11622
1083.85321	1.13665
1081.92464	1.15663
1079.99608	1.17336
1078.06752	1.18297
1076.13895	1.18402
1074.21039	1.17888
1072.28182	1.16936
1070.35326	1.15661
1068.42469	1.14311
1066.49613	1.12963
1064.56756	1.11522
1062.63900	1.10003
1060.71044	1.08523
1058.78187	1.07245
1056.85331	1.06160
1054.92474	1.05043
1052.99618	1.03879
1051.06761	1.02875
1049.13905	1.02178
1047.21049	1.01883
1045.28192	1.02039
1043.35336	1.02563
1041.42479	1.03308
1039.49623	1.04121
1037.56766	1.04805
1035.63910	1.05253
1033.71053	1.05503
1031.78197	1.05546
1029.85341	1.05302
1027.92484	1.04756
1025.99628	1.03947
1024.06771	1.02916
1022.13915	1.01780
1020.21058	1.00733
1018.28202	0.99813
1016.35345	0.98866
1014.42489	0.97726
1012.49633	0.96304
1010.56776	0.94619
1008.63920	0.92793
1006.71063	0.91013
1004.78207	0.89428
1002.85350	0.88045
1000.92494	0.86873
998.99637	0.85967
997.06781	0.85255
995.13925	0.84606
993.21068	0.83951
991.28212	0.83254
989.35355	0.82542
987.42499	0.81863
985.49642	0.81226
983.56786	0.80701
981.63929	0.80395
979.71073	0.80293
977.78217	0.80252
975.85360	0.80123
973.92504	0.79820
971.99647	0.79356
970.06791	0.78771
968.13934	0.78057
966.21078	0.77281
964.28221	0.76594
962.35365	0.76177
960.42509	0.76207
958.49652	0.76692
956.56796	0.77333
954.63939	0.77699
952.71083	0.77575
950.78226	0.77068
948.85370	0.76419
946.92513	0.75807
944.99657	0.75338
943.06801	0.75071
941.13944	0.74967
939.21088	0.74930
937.28231	0.74897
935.35375	0.74872
933.42518	0.74864
931.49662	0.74851
929.56805	0.74833
927.63949	0.74833
925.71093	0.74835
923.78236	0.74826
921.85380	0.74853
919.92523	0.74879
917.99667	0.74813
916.06810	0.74683
914.13954	0.74563
912.21098	0.74510
910.28241	0.74596
908.35385	0.74803
906.42528	0.75083
904.49672	0.75482
902.56815	0.75977
900.63959	0.76445
898.71102	0.76838
896.78246	0.77149
894.85390	0.77327
892.92533	0.77332
890.99677	0.77172
889.06820	0.76914
887.13964	0.76653
885.21107	0.76418
883.28251	0.76145
881.35394	0.75832
879.42538	0.75558
877.49682	0.75317
875.56825	0.75073
873.63969	0.74854
871.71112	0.74690
869.78256	0.74616
867.85399	0.74669
865.92543	0.74830
863.99686	0.75076
862.06830	0.75441
860.13974	0.75939
858.21117	0.76519
856.28261	0.77115
854.35404	0.77685
852.42548	0.78187
850.49691	0.78542
848.56835	0.78691
846.63978	0.78655
844.71122	0.78505
842.78266	0.78316
840.85409	0.78114
838.92553	0.77887
836.99696	0.77680
835.06840	0.77592
833.13983	0.77692
831.21127	0.77968
829.28270	0.78328
827.35414	0.78700
825.42558	0.79102
823.49701	0.79580
821.56845	0.80131
819.63988	0.80663
817.71132	0.81089
815.78275	0.81477
813.85419	0.81874
811.92562	0.82161
809.99706	0.82229
808.06850	0.82118
806.13993	0.81956
804.21137	0.81776
802.28280	0.81509
800.35424	0.81206
798.42567	0.81024
796.49711	0.81001
794.56854	0.81085
792.63998	0.81224
790.71142	0.81363
788.78285	0.81577
786.85429	0.81956
784.92572	0.82425
782.99716	0.82949
781.06859	0.83524
779.14003	0.84048
777.21147	0.84505
775.28290	0.84953
773.35434	0.85352
771.42577	0.85683
769.49721	0.86024
767.56864	0.86378
765.64008	0.86627
763.71151	0.86739
761.78295	0.86746
759.85439	0.86648
757.92582	0.86514
755.99726	0.86403
754.06869	0.86321
752.14013	0.86259
750.21156	0.86163
748.28300	0.86070
746.35443	0.86093
744.42587	0.86273
742.49731	0.86638
740.56874	0.87165
738.64018	0.87701
736.71161	0.88219
734.78305	0.88814
732.85448	0.89450
730.92592	0.90026
728.99735	0.90468
727.06879	0.90766
725.14023	0.90975
723.21166	0.91073
721.28310	0.91005
719.35453	0.90765
717.42597	0.90364
715.49740	0.89883
713.56884	0.89524
711.64027	0.89446
709.71171	0.89606
707.78315	0.89906
705.85458	0.90336
703.92602	0.90887
701.99745	0.91531
700.06889	0.92242
698.14032	0.92865
696.21176	0.93243
694.28319	0.93469
692.35463	0.93773
690.42607	0.94089
688.49750	0.94044
686.56894	0.93574
684.64037	0.92941
682.71181	0.92260
680.78324	0.91634
678.85468	0.91200
676.92611	0.91004
674.99755	0.91081
673.06899	0.91236
671.14042	0.91230
669.21186	0.91499
667.28329	0.92395
665.35473	0.92712
663.42616	0.92632
661.49760	0.92675
659.56903	0.92889
657.64047	0.93041
655.71191	0.93087
653.78334	0.93205
651.85478	0.93356
649.92621	0.93297
647.99765	0.92926
646.06908	0.92510
644.14052	0.92441
642.21195	0.92716
640.28339	0.92981
638.35483	0.92969
636.42626	0.92838
634.49770	0.92943
632.56913	0.93258
630.64057	0.93494
628.71200	0.93536
626.78344	0.93515
624.85488	0.93563
622.92631	0.93617
620.99775	0.93601
619.06918	0.93523
617.14062	0.93407
615.21205	0.93348
613.28349	0.93328
611.35492	0.93177
609.42636	0.92950
607.49780	0.92799
605.56923	0.92592
603.64067	0.92268
601.71210	0.92079
599.78354	0.92094
