3997.91406	0.86459
3995.98550	0.86305
3994.05693	0.86195
3992.12837	0.86195
3990.19980	0.86155
3988.27124	0.85963
3986.34268	0.85748
3984.41411	0.85595
3982.48555	0.85606
3980.55698	0.85785
3978.62842	0.85791
3976.69985	0.85533
3974.77129	0.85360
3972.84272	0.85367
3970.91416	0.85365
3968.98560	0.85344
3967.05703	0.85377
3965.12847	0.85423
3963.19990	0.85472
3961.27134	0.85439
3959.34277	0.85204
3957.41421	0.84956
3955.48564	0.84806
3953.55708	0.84624
3951.62852	0.84477
3949.69995	0.84554
3947.77139	0.84719
3945.84282	0.84703
3943.91426	0.84746
3941.98569	0.84939
3940.05713	0.84965
3938.12856	0.84830
3936.20000	0.84542
3934.27144	0.84255
3932.34287	0.84404
3930.41431	0.84695
3928.48574	0.84439
3926.55718	0.83961
3924.62861	0.83785
3922.70005	0.83618
3920.77148	0.83319
3918.84292	0.83386
3916.91436	0.83783
3914.98579	0.83833
3913.05723	0.83549
3911.12866	0.83330
3909.20010	0.83155
3907.27153	0.82883
3905.34297	0.82762
3903.41440	0.83127
3901.48584	0.83740
3899.55728	0.84048
3897.62871	0.83698
3895.70015	0.83044
3893.77158	0.82742
3891.84302	0.83042
3889.91445	0.83010
3887.98589	0.82507
3886.05733	0.82451
3884.12876	0.82644
3882.20020	0.82554
3880.27163	0.82693
3878.34307	0.82442
3876.41450	0.81748
3874.48594	0.81426
3872.55737	0.81580
3870.62881	0.82213
3868.70025	0.82807
3866.77168	0.82602
3864.84312	0.82330
3862.91455	0.82359
3860.98599	0.82120
3859.05742	0.81495
3857.12886	0.80690
3855.20029	0.80419
3853.27173	0.81929
3851.34317	0.82747
3849.41460	0.82233
3847.48604	0.81531
3845.55747	0.80950
3843.62891	0.80768
3841.70034	0.80900
3839.77178	0.81172
3837.84321	0.81707
3835.91465	0.81849
3833.98609	0.81564
3832.05752	0.81322
3830.12896	0.81002
3828.20039	0.80583
3826.27183	0.80300
3824.34326	0.79975
3822.41470	0.79939
3820.48613	0.80577
3818.55757	0.80673
3816.62901	0.80820
3814.70044	0.81081
3812.77188	0.80600
3810.84331	0.79823
3808.91475	0.79389
3806.98618	0.79628
3805.05762	0.79624
3803.12905	0.79480
3801.20049	0.80245
3799.27193	0.80508
3797.34336	0.80256
3795.41480	0.80240
3793.48623	0.80037
3791.55767	0.79755
3789.62910	0.79590
3787.70054	0.79411
3785.77197	0.79359
3783.84341	0.79331
3781.91485	0.79122
3779.98628	0.79228
3778.05772	0.79529
3776.12915	0.79322
3774.20059	0.78807
3772.27202	0.78475
3770.34346	0.78719
3768.41489	0.79036
3766.48633	0.78916
3764.55777	0.78606
3762.62920	0.78138
3760.70064	0.77990
3758.77207	0.78558
3756.84351	0.78752
3754.91494	0.78128
3752.98638	0.77472
3751.05781	0.78089
3749.12925	0.78918
3747.20069	0.78514
3745.27212	0.78553
3743.34356	0.79127
3741.41499	0.78668
3739.48643	0.77703
3737.55786	0.77136
3735.62930	0.77686
3733.70074	0.78723
3731.77217	0.78810
3729.84361	0.78316
3727.91504	0.78015
3725.98648	0.78126
3724.05791	0.78118
3722.12935	0.77910
3720.20078	0.77862
3718.27222	0.77737
3716.34366	0.77280
3714.41509	0.76710
3712.48653	0.76916
3710.55796	0.78173
3708.62940	0.78438
3706.70083	0.77764
3704.77227	0.77083
3702.84370	0.77103
3700.91514	0.77690
3698.98658	0.77791
3697.05801	0.77425
3695.12945	0.76944
3693.20088	0.76524
3691.27232	0.76760
3689.34375	0.78173
3687.41519	0.78864
3685.48662	0.78465
3683.55806	0.77969
3681.62950	0.77677
3679.70093	0.77512
3677.77237	0.77610
3675.84380	0.78764
3673.91524	0.79458
3671.98667	0.79193
3670.05811	0.79904
3668.12954	0.80514
3666.20098	0.80029
3664.27242	0.79629
3662.34385	0.79695
3660.41529	0.79846
3658.48672	0.80028
3656.55816	0.80716
3654.62959	0.81077
3652.70103	0.80482
3650.77246	0.80413
3648.84390	0.83028
3646.91534	0.84781
3644.98677	0.84538
3643.05821	0.84227
3641.12964	0.84436
3639.20108	0.84864
3637.27251	0.85155
3635.34395	0.85378
3633.41538	0.85461
3631.48682	0.85328
3629.55826	0.86329
3627.62969	0.88491
3625.70113	0.89013
3623.77256	0.88699
3621.84400	0.88449
3619.91543	0.88914
3617.98687	0.89859
3616.05830	0.90299
3614.12974	0.90973
3612.20118	0.91947
3610.27261	0.92525
3608.34405	0.93259
3606.41548	0.93966
3604.48692	0.93899
3602.55835	0.93668
3600.62979	0.93988
3598.70123	0.94638
3596.77266	0.95291
3594.84410	0.96153
3592.91553	0.96852
3590.98697	0.96973
3589.05840	0.97431
3587.12984	0.99093
3585.20127	1.00227
3583.27271	1.00343
3581.34415	1.00433
3579.41558	1.00769
3577.48702	1.01218
3575.55845	1.01821
3573.62989	1.02464
3571.70132	1.02775
3569.77276	1.03034
3567.84419	1.04285
3565.91563	1.06021
3563.98707	1.06495
3562.05850	1.06571
3560.12994	1.06984
3558.20137	1.07497
3556.27281	1.07855
3554.34424	1.08379
3552.41568	1.09292
3550.48711	1.10042
3548.55855	1.10577
3546.62999	1.11492
3544.70142	1.12607
3542.77286	1.13223
3540.84429	1.13369
3538.91573	1.13594
3536.98716	1.14408
3535.05860	1.15400
3533.13003	1.15762
3531.20147	1.15766
3529.27291	1.16255
3527.34434	1.17353
3525.41578	1.18377
3523.48721	1.19203
3521.55865	1.20030
3519.63008	1.20667
3517.70152	1.21041
3515.77295	1.21341
3513.84439	1.21874
3511.91583	1.22802
3509.98726	1.23972
3508.05870	1.24958
3506.13013	1.25570
3504.20157	1.26317
3502.27300	1.27418
3500.34444	1.28347
3498.41587	1.29019
3496.48731	1.29630
3494.55875	1.30247
3492.63018	1.30908
3490.70162	1.31631
3488.77305	1.32440
3486.84449	1.33110
3484.91592	1.33486
3482.98736	1.34158
3481.05879	1.35101
3479.13023	1.35479
3477.20167	1.35576
3475.27310	1.35888
3473.34454	1.36377
3471.41597	1.36856
3469.48741	1.37151
3467.55884	1.37543
3465.63028	1.38239
3463.70171	1.38967
3461.77315	1.39340
3459.84459	1.39382
3457.91602	1.39542
3455.98746	1.39783
3454.05889	1.39939
3452.13033	1.40407
3450.20176	1.41201
3448.27320	1.41568
3446.34464	1.41361
3444.41607	1.41530
3442.48751	1.42450
3440.55894	1.43420
3438.63038	1.44087
3436.70181	1.44654
3434.77325	1.44766
3432.84468	1.44580
3430.91612	1.44671
3428.98756	1.44549
3427.05899	1.43977
3425.13043	1.43598
3423.20186	1.43773
3421.27330	1.44272
3419.34473	1.44594
3417.41617	1.44746
3415.48760	1.44991
3413.55904	1.45323
3411.63048	1.45791
3409.70191	1.46218
3407.77335	1.46320
3405.84478	1.46316
3403.91622	1.46179
3401.98765	1.45644
3400.05909	1.45239
3398.13052	1.45462
3396.20196	1.45615
3394.27340	1.45231
3392.34483	1.45135
3390.41627	1.45679
3388.48770	1.46415
3386.55914	1.47033
3384.63057	1.47344
3382.70201	1.47635
3380.77344	1.47912
3378.84488	1.47530
3376.91632	1.46725
3374.98775	1.46315
3373.05919	1.46570
3371.13062	1.47334
3369.20206	1.47942
3367.27349	1.47841
3365.34493	1.47592
3363.41636	1.47808
3361.48780	1.48243
3359.55924	1.48562
3357.63067	1.48617
3355.70211	1.48476
3353.77354	1.48696
3351.84498	1.49628
3349.91641	1.50673
3347.98785	1.51083
3346.05928	1.51084
3344.13072	1.51020
3342.20216	1.50645
3340.27359	1.50169
3338.34503	1.50266
3336.41646	1.51044
3334.48790	1.51881
3332.55933	1.52307
3330.63077	1.52511
3328.70220	1.52911
3326.77364	1.53846
3324.84508	1.54768
3322.91651	1.54655
3320.98795	1.54271
3319.05938	1.54820
3317.13082	1.55675
3315.20225	1.56172
3313.27369	1.56766
3311.34513	1.57447
3309.41656	1.58078
3307.48800	1.59073
3305.55943	1.60197
3303.63087	1.60769
3301.70230	1.60503
3299.77374	1.59639
3297.84517	1.59144
3295.91661	1.59714
3293.98805	1.60766
3292.05948	1.61368
3290.13092	1.61645
3288.20235	1.61858
3286.27379	1.61333
3284.34522	1.60480
3282.41666	1.60546
3280.48809	1.60958
3278.55953	1.60641
3276.63097	1.59911
3274.70240	1.59316
3272.77384	1.59117
3270.84527	1.59242
3268.91671	1.59287
3266.98814	1.59132
3265.05958	1.58664
3263.13101	1.57921
3261.20245	1.57103
3259.27389	1.55876
3257.34532	1.54574
3255.41676	1.53993
3253.48819	1.53881
3251.55963	1.53702
3249.63106	1.53034
3247.70250	1.51624
3245.77393	1.50102
3243.84537	1.49171
3241.91681	1.48818
3239.98824	1.48757
3238.05968	1.48437
3236.13111	1.47490
3234.20255	1.46466
3232.27398	1.45744
3230.34542	1.45044
3228.41685	1.44362
3226.48829	1.43798
3224.55973	1.43148
3222.63116	1.42391
3220.70260	1.41828
3218.77403	1.41620
3216.84547	1.41470
3214.91690	1.40815
3212.98834	1.39799
3211.05977	1.39191
3209.13121	1.39088
3207.20265	1.39096
3205.27408	1.38908
3203.34552	1.38311
3201.41695	1.37546
3199.48839	1.36992
3197.55982	1.36587
3195.63126	1.36221
3193.70269	1.36051
3191.77413	1.35911
3189.84557	1.35372
3187.91700	1.34356
3185.98844	1.33109
3184.05987	1.32128
3182.13131	1.31735
3180.20274	1.31623
3178.27418	1.31406
3176.34562	1.31015
3174.41705	1.30338
3172.48849	1.29458
3170.55992	1.28939
3168.63136	1.28903
3166.70279	1.28847
3164.77423	1.28495
3162.84566	1.27921
3160.91710	1.27239
3158.98854	1.26540
3157.05997	1.26053
3155.13141	1.25785
3153.20284	1.25416
3151.27428	1.24960
3149.34571	1.24487
3147.41715	1.23852
3145.48858	1.23283
3143.56002	1.22993
3141.63146	1.22772
3139.70289	1.22501
3137.77433	1.22251
3135.84576	1.22117
3133.91720	1.22068
3131.98863	1.21924
3130.06007	1.21759
3128.13150	1.21741
3126.20294	1.21727
3124.27438	1.21587
3122.34581	1.21423
3120.41725	1.21260
3118.48868	1.21085
3116.56012	1.21049
3114.63155	1.21169
3112.70299	1.21245
3110.77442	1.21198
3108.84586	1.21129
3106.91730	1.21104
3104.98873	1.21020
3103.06017	1.20840
3101.13160	1.20664
3099.20304	1.20590
3097.27447	1.20652
3095.34591	1.20586
3093.41734	1.20175
3091.48878	1.19727
3089.56022	1.19470
3087.63165	1.19365
3085.70309	1.19458
3083.77452	1.19547
3081.84596	1.19331
3079.91739	1.18997
3077.98883	1.18681
3076.06026	1.18223
3074.13170	1.17731
3072.20314	1.17484
3070.27457	1.17439
3068.34601	1.17283
3066.41744	1.16945
3064.48888	1.16581
3062.56031	1.16233
3060.63175	1.15821
3058.70318	1.15283
3056.77462	1.14733
3054.84606	1.14221
3052.91749	1.13664
3050.98893	1.13210
3049.06036	1.12981
3047.13180	1.12684
3045.20323	1.12105
3043.27467	1.11460
3041.34610	1.10929
3039.41754	1.10479
3037.48898	1.10097
3035.56041	1.09780
3033.63185	1.09503
3031.70328	1.09216
3029.77472	1.08852
3027.84615	1.08393
3025.91759	1.07941
3023.98903	1.07649
3022.06046	1.07455
3020.13190	1.07180
3018.20333	1.06918
3016.27477	1.06732
3014.34620	1.06463
3012.41764	1.06193
3010.48907	1.06022
3008.56051	1.05763
3006.63195	1.05358
3004.70338	1.04967
3002.77482	1.04695
3000.84625	1.04547
2998.91769	1.04464
2996.98912	1.04361
2995.06056	1.04307
2993.13199	1.04473
2991.20343	1.04816
2989.27487	1.05234
2987.34630	1.05728
2985.41774	1.06188
2983.48917	1.06578
2981.56061	1.07102
2979.63204	1.07808
2977.70348	1.08492
2975.77491	1.09117
2973.84635	1.09884
2971.91779	1.10764
2969.98922	1.11525
2968.06066	1.12242
2966.13209	1.13048
2964.20353	1.13683
2962.27496	1.13943
2960.34640	1.13905
2958.41783	1.13608
2956.48927	1.13101
2954.56071	1.12511
2952.63214	1.11957
2950.70358	1.11469
2948.77501	1.11008
2946.84645	1.10693
2944.91788	1.10806
2942.98932	1.11462
2941.06075	1.12429
2939.13219	1.13431
2937.20363	1.14469
2935.27506	1.15617
2933.34650	1.16787
2931.41793	1.17940
2929.48937	1.19125
2927.56080	1.20255
2925.63224	1.21249
2923.70367	1.22005
2921.77511	1.22297
2919.84655	1.22165
2917.91798	1.21623
2915.98942	1.20225
2914.06085	1.17914
2912.13229	1.15411
2910.20372	1.13319
2908.27516	1.11643
2906.34659	1.10218
2904.41803	1.08995
2902.48947	1.07902
2900.56090	1.06975
2898.63234	1.06432
2896.70377	1.06263
2894.77521	1.06111
2892.84664	1.05747
2890.91808	1.05220
2888.98952	1.04588
2887.06095	1.03968
2885.13239	1.03585
2883.20382	1.03525
2881.27526	1.03624
2879.34669	1.03712
2877.41813	1.03707
2875.48956	1.03546
2873.56100	1.03289
2871.63244	1.02933
2869.70387	1.02345
2867.77531	1.01633
2865.84674	1.01054
2863.91818	1.00731
2861.98961	1.00725
2860.06105	1.01074
2858.13248	1.01763
2856.20392	1.02705
2854.27536	1.03818
2852.34679	1.04939
2850.41823	1.05430
2848.48966	1.04364
2846.56110	1.01824
2844.63253	0.99006
2842.70397	0.96708
2840.77540	0.95007
2838.84684	0.93813
2836.91828	0.92966
2834.98971	0.92271
2833.06115	0.91671
2831.13258	0.91225
2829.20402	0.90923
2827.27545	0.90637
2825.34689	0.90281
2823.41832	0.89866
2821.48976	0.89455
2819.56120	0.89068
2817.63263	0.88701
2815.70407	0.88400
2813.77550	0.88153
2811.84694	0.87875
2809.91837	0.87553
2807.98981	0.87233
2806.06124	0.86918
2804.13268	0.86595
2802.20412	0.86309
2800.27555	0.86105
2798.34699	0.85868
2796.41842	0.85517
2794.48986	0.85182
2792.56129	0.84939
2790.63273	0.84734
2788.70416	0.84572
2786.77560	0.84466
2784.84704	0.84317
2782.91847	0.84081
2780.98991	0.83867
2779.06134	0.83694
2777.13278	0.83484
2775.20421	0.83314
2773.27565	0.83253
2771.34708	0.83118
2769.41852	0.82805
2767.48996	0.82489
2765.56139	0.82258
2763.63283	0.82077
2761.70426	0.81939
2759.77570	0.81815
2757.84713	0.81675
2755.91857	0.81495
2753.99001	0.81256
2752.06144	0.80981
2750.13288	0.80720
2748.20431	0.80537
2746.27575	0.80451
2744.34718	0.80398
2742.41862	0.80283
2740.49005	0.80096
2738.56149	0.79939
2736.63293	0.79843
2734.70436	0.79744
2732.77580	0.79636
2730.84723	0.79548
2728.91867	0.79454
2726.99010	0.79316
2725.06154	0.79137
2723.13297	0.78980
2721.20441	0.78864
2719.27585	0.78731
2717.34728	0.78555
2715.41872	0.78374
2713.49015	0.78219
2711.56159	0.78105
2709.63302	0.78039
2707.70446	0.77972
2705.77589	0.77823
2703.84733	0.77610
2701.91877	0.77444
2699.99020	0.77341
2698.06164	0.77226
2696.13307	0.77099
2694.20451	0.77028
2692.27594	0.77018
2690.34738	0.76966
2688.41881	0.76810
2686.49025	0.76601
2684.56169	0.76388
2682.63312	0.76237
2680.70456	0.76165
2678.77599	0.76076
2676.84743	0.75941
2674.91886	0.75790
2672.99030	0.75623
2671.06173	0.75469
2669.13317	0.75337
2667.20461	0.75195
2665.27604	0.75079
2663.34748	0.75007
2661.41891	0.74908
2659.49035	0.74769
2657.56178	0.74649
2655.63322	0.74541
2653.70465	0.74400
2651.77609	0.74268
2649.84753	0.74208
2647.91896	0.74194
2645.99040	0.74174
2644.06183	0.74138
2642.13327	0.74099
2640.20470	0.74027
2638.27614	0.73887
2636.34757	0.73722
2634.41901	0.73582
2632.49045	0.73487
2630.56188	0.73444
2628.63332	0.73441
2626.70475	0.73436
2624.77619	0.73362
2622.84762	0.73191
2620.91906	0.73004
2618.99049	0.72923
2617.06193	0.72944
2615.13337	0.72973
2613.20480	0.72950
2611.27624	0.72817
2609.34767	0.72612
2607.41911	0.72452
2605.49054	0.72344
2603.56198	0.72249
2601.63342	0.72178
2599.70485	0.72104
2597.77629	0.71994
2595.84772	0.71885
2593.91916	0.71791
2591.99059	0.71694
2590.06203	0.71611
2588.13346	0.71514
2586.20490	0.71352
2584.27634	0.71160
2582.34777	0.71003
2580.41921	0.70877
2578.49064	0.70767
2576.56208	0.70659
2574.63351	0.70537
2572.70495	0.70410
2570.77638	0.70281
2568.84782	0.70144
2566.91926	0.70026
2564.99069	0.69931
2563.06213	0.69842
2561.13356	0.69749
2559.20500	0.69631
2557.27643	0.69510
2555.34787	0.69437
2553.41930	0.69384
2551.49074	0.69307
2549.56218	0.69199
2547.63361	0.69087
2545.70505	0.68986
2543.77648	0.68868
2541.84792	0.68742
2539.91935	0.68617
2537.99079	0.68474
2536.06222	0.68354
2534.13366	0.68271
2532.20510	0.68166
2530.27653	0.68027
2528.34797	0.67919
2526.41940	0.67871
2524.49084	0.67816
2522.56227	0.67715
2520.63371	0.67632
2518.70514	0.67584
2516.77658	0.67514
2514.84802	0.67442
2512.91945	0.67400
2510.99089	0.67347
2509.06232	0.67251
2507.13376	0.67161
2505.20519	0.67133
2503.27663	0.67111
2501.34806	0.67039
2499.41950	0.66947
2497.49094	0.66855
2495.56237	0.66740
2493.63381	0.66606
2491.70524	0.66492
2489.77668	0.66416
2487.84811	0.66369
2485.91955	0.66340
2483.99098	0.66296
2482.06242	0.66178
2480.13386	0.65990
2478.20529	0.65810
2476.27673	0.65682
2474.34816	0.65579
2472.41960	0.65471
2470.49103	0.65373
2468.56247	0.65276
2466.63391	0.65139
2464.70534	0.64972
2462.77678	0.64807
2460.84821	0.64661
2458.91965	0.64553
2456.99108	0.64489
2455.06252	0.64423
2453.13395	0.64304
2451.20539	0.64154
2449.27683	0.64036
2447.34826	0.63947
2445.41970	0.63854
2443.49113	0.63758
2441.56257	0.63668
2439.63400	0.63588
2437.70544	0.63504
2435.77687	0.63395
2433.84831	0.63272
2431.91975	0.63155
2429.99118	0.63061
2428.06262	0.62995
2426.13405	0.62907
2424.20549	0.62793
2422.27692	0.62713
2420.34836	0.62659
2418.41979	0.62577
2416.49123	0.62487
2414.56267	0.62430
2412.63410	0.62395
2410.70554	0.62341
2408.77697	0.62258
2406.84841	0.62161
2404.91984	0.62077
2402.99128	0.62032
2401.06271	0.61999
2399.13415	0.61964
2397.20559	0.61960
2395.27702	0.61951
2393.34846	0.61884
2391.41989	0.61800
2389.49133	0.61726
2387.56276	0.61647
2385.63420	0.61578
2383.70563	0.61532
2381.77707	0.61489
2379.84851	0.61457
2377.91994	0.61452
2375.99138	0.61488
2374.06281	0.61615
2372.13425	0.61856
2370.20568	0.62122
2368.27712	0.62237
2366.34855	0.62166
2364.41999	0.62156
2362.49143	0.62423
2360.56286	0.62956
2358.63430	0.63249
2356.70573	0.62893
2354.77717	0.62503
2352.84860	0.62334
2350.92004	0.61973
2348.99147	0.61467
2347.06291	0.61135
2345.13435	0.61214
2343.20578	0.61463
2341.27722	0.61422
2339.34865	0.61306
2337.42009	0.61315
2335.49152	0.61300
2333.56296	0.61158
2331.63440	0.61009
2329.70583	0.60917
2327.77727	0.60767
2325.84870	0.60566
2323.92014	0.60448
2321.99157	0.60382
2320.06301	0.60269
2318.13444	0.60150
2316.20588	0.60074
2314.27732	0.60041
2312.34875	0.60033
2310.42019	0.59983
2308.49162	0.59874
2306.56306	0.59772
2304.63449	0.59685
2302.70593	0.59609
2300.77736	0.59562
2298.84880	0.59509
2296.92024	0.59406
2294.99167	0.59282
2293.06311	0.59201
2291.13454	0.59160
2289.20598	0.59093
2287.27741	0.58985
2285.34885	0.58894
2283.42028	0.58828
2281.49172	0.58751
2279.56316	0.58662
2277.63459	0.58584
2275.70603	0.58536
2273.77746	0.58515
2271.84890	0.58503
2269.92033	0.58499
2267.99177	0.58509
2266.06320	0.58513
2264.13464	0.58509
2262.20608	0.58501
2260.27751	0.58477
2258.34895	0.58446
2256.42038	0.58439
2254.49182	0.58468
2252.56325	0.58498
2250.63469	0.58495
2248.70612	0.58457
2246.77756	0.58399
2244.84900	0.58330
2242.92043	0.58272
2240.99187	0.58226
2239.06330	0.58159
2237.13474	0.58065
2235.20617	0.57989
2233.27761	0.57935
2231.34904	0.57867
2229.42048	0.57777
2227.49192	0.57700
2225.56335	0.57655
2223.63479	0.57619
2221.70622	0.57583
2219.77766	0.57544
2217.84909	0.57490
2215.92053	0.57454
2213.99196	0.57455
2212.06340	0.57451
2210.13484	0.57426
2208.20627	0.57411
2206.27771	0.57414
2204.34914	0.57436
2202.42058	0.57465
2200.49201	0.57475
2198.56345	0.57478
2196.63488	0.57486
2194.70632	0.57470
2192.77776	0.57416
2190.84919	0.57354
2188.92063	0.57310
2186.99206	0.57266
2185.06350	0.57194
2183.13493	0.57103
2181.20637	0.57033
2179.27781	0.56980
2177.34924	0.56916
2175.42068	0.56872
2173.49211	0.56886
2171.56355	0.56902
2169.63498	0.56879
2167.70642	0.56859
2165.77785	0.56855
2163.84929	0.56853
2161.92073	0.56895
2159.99216	0.56974
2158.06360	0.57016
2156.13503	0.57019
2154.20647	0.57039
2152.27790	0.57077
2150.34934	0.57097
2148.42077	0.57097
2146.49221	0.57081
2144.56365	0.57055
2142.63508	0.57038
2140.70652	0.57015
2138.77795	0.56967
2136.84939	0.56907
2134.92082	0.56837
2132.99226	0.56740
2131.06369	0.56623
2129.13513	0.56507
2127.20657	0.56399
2125.27800	0.56297
2123.34944	0.56209
2121.42087	0.56143
2119.49231	0.56071
2117.56374	0.55967
2115.63518	0.55879
2113.70661	0.55849
2111.77805	0.55839
2109.84949	0.55815
2107.92092	0.55805
2105.99236	0.55807
2104.06379	0.55801
2102.13523	0.55794
2100.20666	0.55772
2098.27810	0.55730
2096.34953	0.55699
2094.42097	0.55683
2092.49241	0.55646
2090.56384	0.55582
2088.63528	0.55509
2086.70671	0.55426
2084.77815	0.55328
2082.84958	0.55233
2080.92102	0.55153
2078.99245	0.55066
2077.06389	0.54961
2075.13533	0.54848
2073.20676	0.54742
2071.27820	0.54647
2069.34963	0.54553
2067.42107	0.54474
2065.49250	0.54441
2063.56394	0.54425
2061.63537	0.54378
2059.70681	0.54320
2057.77825	0.54284
2055.84968	0.54278
2053.92112	0.54292
2051.99255	0.54306
2050.06399	0.54301
2048.13542	0.54281
2046.20686	0.54273
2044.27830	0.54267
2042.34973	0.54225
2040.42117	0.54158
2038.49260	0.54090
2036.56404	0.54019
2034.63547	0.53935
2032.70691	0.53826
2030.77834	0.53702
2028.84978	0.53591
2026.92122	0.53473
2024.99265	0.53325
2023.06409	0.53185
2021.13552	0.53057
2019.20696	0.52928
2017.27839	0.52828
2015.34983	0.52747
2013.42126	0.52657
2011.49270	0.52568
2009.56414	0.52494
2007.63557	0.52452
2005.70701	0.52431
2003.77844	0.52393
2001.84988	0.52331
1999.92131	0.52254
1997.99275	0.52173
1996.06418	0.52096
1994.13562	0.52037
1992.20706	0.51997
1990.27849	0.51923
1988.34993	0.51814
1986.42136	0.51710
1984.49280	0.51595
1982.56423	0.51461
1980.63567	0.51331
1978.70710	0.51207
1976.77854	0.51087
1974.84998	0.50983
1972.92141	0.50894
1970.99285	0.50782
1969.06428	0.50676
1967.13572	0.50639
1965.20715	0.50603
1963.27859	0.50502
1961.35002	0.50424
1959.42146	0.50407
1957.49290	0.50383
1955.56433	0.50343
1953.63577	0.50312
1951.70720	0.50286
1949.77864	0.50249
1947.85007	0.50193
1945.92151	0.50124
1943.99294	0.50100
1942.06438	0.50124
1940.13582	0.50075
1938.20725	0.49958
1936.27869	0.49858
1934.35012	0.49784
1932.42156	0.49719
1930.49299	0.49630
1928.56443	0.49499
1926.63586	0.49342
1924.70730	0.49202
1922.77874	0.49100
1920.85017	0.48984
1918.92161	0.48894
1916.99304	0.48845
1915.06448	0.48713
1913.13591	0.48532
1911.20735	0.48404
1909.27878	0.48341
1907.35022	0.48292
1905.42166	0.48214
1903.49309	0.48120
1901.56453	0.48025
1899.63596	0.47935
1897.70740	0.47861
1895.77883	0.47827
1893.85027	0.47781
1891.92171	0.47708
1889.99314	0.47731
1888.06458	0.47806
1886.13601	0.47790
1884.20745	0.47741
1882.27888	0.47702
1880.35032	0.47656
1878.42175	0.47606
1876.49319	0.47558
1874.56463	0.47488
1872.63606	0.47366
1870.70750	0.47275
1868.77893	0.47352
1866.85037	0.47396
1864.92180	0.47228
1862.99324	0.47010
1861.06467	0.46849
1859.13611	0.46753
1857.20755	0.46661
1855.27898	0.46532
1853.35042	0.46406
1851.42185	0.46300
1849.49329	0.46195
1847.56472	0.46082
1845.63616	0.46067
1843.70759	0.46201
1841.77903	0.46195
1839.85047	0.46046
1837.92190	0.45957
1835.99334	0.45923
1834.06477	0.45809
1832.13621	0.45688
1830.20764	0.45763
1828.27908	0.45865
1826.35051	0.45781
1824.42195	0.45675
1822.49339	0.45562
1820.56482	0.45419
1818.63626	0.45315
1816.70769	0.45225
1814.77913	0.45097
1812.85056	0.44985
1810.92200	0.44938
1808.99343	0.44879
1807.06487	0.44751
1805.13631	0.44595
1803.20774	0.44465
1801.27918	0.44461
1799.35061	0.44538
1797.42205	0.44518
1795.49348	0.44422
1793.56492	0.44446
1791.63635	0.44715
1789.70779	0.44850
1787.77923	0.44800
1785.85066	0.44798
1783.92210	0.44858
1781.99353	0.44918
1780.06497	0.44988
1778.13640	0.44972
1776.20784	0.44829
1774.27927	0.44757
1772.35071	0.45002
1770.42215	0.45275
1768.49358	0.45305
1766.56502	0.45237
1764.63645	0.45163
1762.70789	0.45266
1760.77932	0.45548
1758.85076	0.45759
1756.92220	0.46075
1754.99363	0.46454
1753.06507	0.46798
1751.13650	0.47514
1749.20794	0.48704
1747.27937	0.49674
1745.35081	0.50337
1743.42224	0.50966
1741.49368	0.51664
1739.56512	0.52336
1737.63655	0.52636
1735.70799	0.52764
1733.77942	0.53401
1731.85086	0.53981
1729.92229	0.54171
1727.99373	0.54392
1726.06516	0.54685
1724.13660	0.55147
1722.20804	0.55625
1720.27947	0.55977
1718.35091	0.56752
1716.42234	0.58505
1714.49378	0.59820
1712.56521	0.60618
1710.63665	0.61521
1708.70808	0.62667
1706.77952	0.64579
1704.85096	0.67328
1702.92239	0.69774
1700.99383	0.73372
1699.06526	0.79689
1697.13670	0.86102
1695.20813	0.92457
1693.27957	0.96914
1691.35100	1.00367
1689.42244	1.04853
1687.49388	1.09139
1685.56531	1.13515
1683.63675	1.21305
1681.70818	1.27394
1679.77962	1.30610
1677.85105	1.33434
1675.92249	1.37016
1673.99392	1.41081
1672.06536	1.44100
1670.13680	1.47705
1668.20823	1.52019
1666.27967	1.54169
1664.35110	1.55911
1662.42254	1.58496
1660.49397	1.60261
1658.56541	1.60935
1656.63684	1.61265
1654.70828	1.62032
1652.77972	1.63206
1650.85115	1.62569
1648.92259	1.61590
1646.99402	1.61660
1645.06546	1.62335
1643.13689	1.61950
1641.20833	1.61305
1639.27976	1.60790
1637.35120	1.60389
1635.42264	1.59974
1633.49407	1.59149
1631.56551	1.58096
1629.63694	1.56956
1627.70838	1.55800
1625.77981	1.54235
1623.85125	1.51973
1621.92269	1.49504
1619.99412	1.47361
1618.06556	1.44635
1616.13699	1.40525
1614.20843	1.36929
1612.27986	1.33895
1610.35130	1.30710
1608.42273	1.27483
1606.49417	1.24670
1604.56561	1.22413
1602.63704	1.20511
1600.70848	1.18932
1598.77991	1.17702
1596.85135	1.16817
1594.92278	1.16256
1592.99422	1.15949
1591.06565	1.15862
1589.13709	1.16042
1587.20853	1.16617
1585.27996	1.17657
1583.35140	1.19118
1581.42283	1.20692
1579.49427	1.22048
1577.56570	1.23859
1575.63714	1.26969
1573.70857	1.28996
1571.78001	1.30027
1569.85145	1.31960
1567.92288	1.34417
1565.99432	1.36235
1564.06575	1.37848
1562.13719	1.38979
1560.20862	1.40412
1558.28006	1.44054
1556.35149	1.45405
1554.42293	1.45683
1552.49437	1.46214
1550.56580	1.46691
1548.63724	1.46711
1546.70867	1.46226
1544.78011	1.45230
1542.85154	1.43607
1540.92298	1.42166
1538.99441	1.41919
1537.06585	1.41661
1535.13729	1.40972
1533.20872	1.39994
1531.28016	1.38948
1529.35159	1.37828
1527.42303	1.36503
1525.49446	1.35262
1523.56590	1.34511
1521.63733	1.34284
1519.70877	1.34308
1517.78021	1.33660
1515.85164	1.32058
1513.92308	1.29992
1511.99451	1.27760
1510.06595	1.25470
1508.13738	1.22144
1506.20882	1.17301
1504.28025	1.14806
1502.35169	1.12991
1500.42313	1.10814
1498.49456	1.08111
1496.56600	1.05202
1494.63743	1.02988
1492.70887	1.01308
1490.78030	0.99446
1488.85174	0.97287
1486.92317	0.95588
1484.99461	0.94384
1483.06605	0.93542
1481.13748	0.93061
1479.20892	0.92937
1477.28035	0.93221
1475.35179	0.94158
1473.42322	0.96362
1471.49466	0.98961
1469.56610	1.00177
1467.63753	1.00851
1465.70897	1.01862
1463.78040	1.03027
1461.85184	1.03546
1459.92327	1.03705
1457.99471	1.04506
1456.06614	1.05851
1454.13758	1.05970
1452.20902	1.05581
1450.28045	1.05188
1448.35189	1.04894
1446.42332	1.04507
1444.49476	1.03862
1442.56619	1.03023
1440.63763	1.02124
1438.70906	1.01208
1436.78050	1.00072
1434.85194	0.98755
1432.92337	0.97580
1430.99481	0.96530
1429.06624	0.95654
1427.13768	0.95066
1425.20911	0.94790
1423.28055	0.94808
1421.35198	0.95051
1419.42342	0.95777
1417.49486	0.96719
1415.56629	0.97060
1413.63773	0.97190
1411.70916	0.97402
1409.78060	0.97629
1407.85203	0.97866
1405.92347	0.98299
1403.99490	0.98849
1402.06634	0.99129
1400.13778	0.99255
1398.20921	0.99448
1396.28065	0.99635
1394.35208	0.99775
1392.42352	0.99867
1390.49495	0.99961
1388.56639	1.00356
1386.63782	1.01274
1384.70926	1.02243
1382.78070	1.02948
1380.85213	1.03382
1378.92357	1.03429
1376.99500	1.03033
1375.06644	1.02056
1373.13787	1.00476
1371.20931	0.98722
1369.28074	0.96847
1367.35218	0.94918
1365.42362	0.93238
1363.49505	0.91798
1361.56649	0.90630
1359.63792	0.89826
1357.70936	0.89317
1355.78079	0.89058
1353.85223	0.88938
1351.92366	0.88834
1349.99510	0.88792
1348.06654	0.88851
1346.13797	0.88925
1344.20941	0.88968
1342.28084	0.89019
1340.35228	0.89198
1338.42371	0.89525
1336.49515	0.89862
1334.56659	0.90230
1332.63802	0.90745
1330.70946	0.91400
1328.78089	0.92017
1326.85233	0.92425
1324.92376	0.92642
1322.99520	0.92796
1321.06663	0.92998
1319.13807	0.93280
1317.20951	0.93549
1315.28094	0.93723
1313.35238	0.93879
1311.42381	0.94058
1309.49525	0.94221
1307.56668	0.94331
1305.63812	0.94369
1303.70955	0.94367
1301.78099	0.94340
1299.85243	0.94232
1297.92386	0.94007
1295.99530	0.93736
1294.06673	0.93540
1292.13817	0.93450
1290.20960	0.93465
1288.28104	0.93574
1286.35247	0.93704
1284.42391	0.93780
1282.49535	0.93799
1280.56678	0.93812
1278.63822	0.93885
1276.70965	0.94047
1274.78109	0.94317
1272.85252	0.94775
1270.92396	0.95432
1268.99539	0.96149
1267.06683	0.96833
1265.13827	0.97488
1263.20970	0.98046
1261.28114	0.98454
1259.35257	0.98797
1257.42401	0.99177
1255.49544	0.99613
1253.56688	1.00081
1251.63831	1.00570
1249.70975	1.01084
1247.78119	1.01587
1245.85262	1.02023
1243.92406	1.02324
1241.99549	1.02446
1240.06693	1.02422
1238.13836	1.02230
1236.20980	1.01815
1234.28123	1.01217
1232.35267	1.00449
1230.42411	0.99454
1228.49554	0.98290
1226.56698	0.97084
1224.63841	0.95893
1222.70985	0.94737
1220.78128	0.93623
1218.85272	0.92547
1216.92415	0.91589
1214.99559	0.90867
1213.06703	0.90440
1211.13846	0.90314
1209.20990	0.90367
1207.28133	0.90359
1205.35277	0.90101
1203.42420	0.89550
1201.49564	0.88792
1199.56708	0.87944
1197.63851	0.87099
1195.70995	0.86331
1193.78138	0.85689
1191.85282	0.85211
1189.92425	0.84918
1187.99569	0.84768
1186.06712	0.84695
1184.13856	0.84740
1182.21000	0.84990
1180.28143	0.85421
1178.35287	0.85964
1176.42430	0.86635
1174.49574	0.87448
1172.56717	0.88344
1170.63861	0.89342
1168.71004	0.90575
1166.78148	0.92123
1164.85292	0.93925
1162.92435	0.95757
1160.99579	0.97246
1159.06722	0.98017
1157.13866	0.97880
1155.21009	0.96892
1153.28153	0.95292
1151.35296	0.93433
1149.42440	0.91634
1147.49584	0.89992
1145.56727	0.88583
1143.63871	0.87620
1141.71014	0.87185
1139.78158	0.87185
1137.85301	0.87546
1135.92445	0.88183
1133.99588	0.89037
1132.06732	0.90193
1130.13876	0.91655
1128.21019	0.93246
1126.28163	0.94783
1124.35306	0.96179
1122.42450	0.97504
1120.49593	0.98755
1118.56737	0.99673
1116.63880	1.00056
1114.71024	0.99931
1112.78168	0.99422
1110.85311	0.98699
1108.92455	0.97957
1106.99598	0.97356
1105.06742	0.96923
1103.13885	0.96666
1101.21029	0.96680
1099.28172	0.97036
1097.35316	0.97780
1095.42460	0.98931
1093.49603	1.00362
1091.56747	1.02009
1089.63890	1.04033
1087.71034	1.06440
1085.78177	1.08981
1083.85321	1.11389
1081.92464	1.13390
1079.99608	1.14749
1078.06752	1.15400
1076.13895	1.15292
1074.21039	1.14370
1072.28182	1.12784
1070.35326	1.10840
1068.42469	1.08846
1066.49613	1.07004
1064.56756	1.05280
1062.63900	1.03594
1060.71044	1.02034
1058.78187	1.00689
1056.85331	0.99505
1054.92474	0.98455
1052.99618	0.97672
1051.06761	0.97296
1049.13905	0.97286
1047.21049	0.97588
1045.28192	0.98300
1043.35336	0.99424
1041.42479	1.00724
1039.49623	1.01962
1037.56766	1.02972
1035.63910	1.03607
1033.71053	1.03875
1031.78197	1.03879
1029.85341	1.03561
1027.92484	1.02823
1025.99628	1.01706
1024.06771	1.00305
1022.13915	0.98791
1020.21058	0.97408
1018.28202	0.96178
1016.35345	0.94861
1014.42489	0.93258
1012.49633	0.91384
1010.56776	0.89361
1008.63920	0.87265
1006.71063	0.85190
1004.78207	0.83285
1002.85350	0.81697
1000.92494	0.80518
998.99637	0.79721
997.06781	0.79236
995.13925	0.79013
993.21068	0.78922
991.28212	0.78786
989.35355	0.78545
987.42499	0.78244
985.49642	0.77950
983.56786	0.77735
981.63929	0.77645
979.71073	0.77658
977.78217	0.77667
975.85360	0.77541
973.92504	0.77155
971.99647	0.76388
970.06791	0.75285
968.13934	0.74051
966.21078	0.72890
964.28221	0.71958
962.35365	0.71379
960.42509	0.71291
958.49652	0.71722
956.56796	0.72336
954.63939	0.72609
952.71083	0.72370
950.78226	0.71803
948.85370	0.71151
946.92513	0.70642
944.99657	0.70396
943.06801	0.70399
941.13944	0.70585
939.21088	0.70831
937.28231	0.71021
935.35375	0.71155
933.42518	0.71282
931.49662	0.71366
929.56805	0.71346
927.63949	0.71240
925.71093	0.71080
923.78236	0.70843
921.85380	0.70488
919.92523	0.69995
917.99667	0.69439
916.06810	0.68905
914.13954	0.68431
912.21098	0.68084
910.28241	0.67912
908.35385	0.67925
906.42528	0.68167
904.49672	0.68650
902.56815	0.69314
900.63959	0.70063
898.71102	0.70808
896.78246	0.71521
894.85390	0.72182
892.92533	0.72753
890.99677	0.73240
889.06820	0.73719
887.13964	0.74236
885.21107	0.74687
883.28251	0.74936
881.35394	0.75004
879.42538	0.74990
877.49682	0.74931
875.56825	0.74771
873.63969	0.74470
871.71112	0.74067
869.78256	0.73597
867.85399	0.73107
865.92543	0.72688
863.99686	0.72388
862.06830	0.72220
860.13974	0.72207
858.21117	0.72387
856.28261	0.72782
854.35404	0.73368
852.42548	0.74114
850.49691	0.74964
848.56835	0.75861
846.63978	0.76804
844.71122	0.77798
842.78266	0.78826
840.85409	0.79829
838.92553	0.80730
836.99696	0.81478
835.06840	0.82069
833.13983	0.82494
831.21127	0.82689
829.28270	0.82606
827.35414	0.82282
825.42558	0.81797
823.49701	0.81170
821.56845	0.80413
819.63988	0.79653
817.71132	0.79020
815.78275	0.78517
813.85419	0.78094
811.92562	0.77755
809.99706	0.77559
808.06850	0.77568
806.13993	0.77798
804.21137	0.78223
802.28280	0.78796
800.35424	0.79483
798.42567	0.80275
796.49711	0.81167
794.56854	0.82120
792.63998	0.83088
790.71142	0.84062
788.78285	0.85016
786.85429	0.85890
784.92572	0.86631
782.99716	0.87190
781.06859	0.87490
779.14003	0.87438
777.21147	0.87118
775.28290	0.86700
773.35434	0.86179
771.42577	0.85563
769.49721	0.84990
767.56864	0.84519
765.64008	0.84090
763.71151	0.83724
761.78295	0.83516
759.85439	0.83498
757.92582	0.83723
755.99726	0.84210
754.06869	0.84884
752.14013	0.85726
750.21156	0.86734
748.28300	0.87806
746.35443	0.88835
744.42587	0.89811
742.49731	0.90789
740.56874	0.91718
738.64018	0.92432
736.71161	0.92862
734.78305	0.93101
732.85448	0.93322
730.92592	0.93532
728.99735	0.93478
727.06879	0.93088
725.14023	0.92595
723.21166	0.92154
721.28310	0.91692
719.35453	0.91111
717.42597	0.90495
715.49740	0.89960
713.56884	0.89614
711.64027	0.89560
709.71171	0.89826
707.78315	0.90410
705.85458	0.91171
703.92602	0.91922
701.99745	0.92712
700.06889	0.93659
698.14032	0.94673
696.21176	0.95605
694.28319	0.96421
692.35463	0.97158
690.42607	0.97787
688.49750	0.98222
686.56894	0.98543
684.64037	0.98888
682.71181	0.99036
680.78324	0.98718
678.85468	0.98118
676.92611	0.97440
674.99755	0.96655
673.06899	0.95869
671.14042	0.95226
669.21186	0.94495
667.28329	0.93530
665.35473	0.92969
663.42616	0.92707
661.49760	0.92501
659.56903	0.92335
657.64047	0.92317
655.71191	0.92540
653.78334	0.92996
651.85478	0.93579
649.92621	0.94320
647.99765	0.95299
646.06908	0.96346
644.14052	0.97348
642.21195	0.98393
640.28339	0.99503
638.35483	1.00407
636.42626	1.00817
634.49770	1.00789
632.56913	1.00463
630.64057	0.99929
628.71200	0.99311
626.78344	0.98624
624.85488	0.97905
622.92631	0.97316
620.99775	0.96822
619.06918	0.96214
617.14062	0.95518
615.21205	0.95023
613.28349	0.94703
611.35492	0.94306
609.42636	0.93934
607.49780	0.93882
605.56923	0.94149
603.64067	0.94539
601.71210	0.95079
599.78354	0.95974
