3997.91406	2.59008
3995.98550	2.57608
3994.05693	2.55555
3992.12837	2.57345
3990.19980	2.64101
3988.27124	2.69767
3986.34268	2.73823
3984.41411	2.73832
3982.48555	2.62538
3980.55698	2.51297
3978.62842	2.49144
3976.69985	2.56128
3974.77129	2.67784
3972.84272	2.68272
3970.91416	2.58113
3968.98560	2.52444
3967.05703	2.48578
3965.12847	2.43275
3963.19990	2.42195
3961.27134	2.44662
3959.34277	2.44180
3957.41421	2.41184
3955.48564	2.38663
3953.55708	2.37306
3951.62852	2.37781
3949.69995	2.39897
3947.77139	2.38383
3945.84282	2.34302
3943.91426	2.37743
3941.98569	2.45668
3940.05713	2.45453
3938.12856	2.44698
3936.20000	2.46691
3934.27144	2.46608
3932.34287	2.47959
3930.41431	2.51154
3928.48574	2.48760
3926.55718	2.41720
3924.62861	2.35785
3922.70005	2.33837
3920.77148	2.33301
3918.84292	2.31483
3916.91436	2.30898
3914.98579	2.32544
3913.05723	2.32804
3911.12866	2.30490
3909.20010	2.26361
3907.27153	2.22875
3905.34297	2.25418
3903.41440	2.35002
3901.48584	2.36853
3899.55728	2.30974
3897.62871	2.26886
3895.70015	2.23503
3893.77158	2.20623
3891.84302	2.19518
3889.91445	2.18540
3887.98589	2.15904
3886.05733	2.12862
3884.12876	2.12519
3882.20020	2.15747
3880.27163	2.18460
3878.34307	2.17041
3876.41450	2.17229
3874.48594	2.20694
3872.55737	2.20611
3870.62881	2.14291
3868.70025	2.08528
3866.77168	2.10373
3864.84312	2.20794
3862.91455	2.25607
3860.98599	2.18131
3859.05742	2.12342
3857.12886	2.10884
3855.20029	2.14385
3853.27173	2.21880
3851.34317	2.18429
3849.41460	2.12020
3847.48604	2.08803
3845.55747	2.08056
3843.62891	2.07875
3841.70034	2.07020
3839.77178	2.09790
3837.84321	2.19231
3835.91465	2.21389
3833.98609	2.16034
3832.05752	2.11661
3830.12896	2.07537
3828.20039	2.04172
3826.27183	2.02290
3824.34326	1.99629
3822.41470	1.98103
3820.48613	2.01563
3818.55757	2.04214
3816.62901	2.05239
3814.70044	2.04834
3812.77188	2.01563
3810.84331	1.98705
3808.91475	1.98984
3806.98618	2.02041
3805.05762	2.02299
3803.12905	2.01349
3801.20049	2.02092
3799.27193	1.99709
3797.34336	1.97818
3795.41480	1.99024
3793.48623	1.99626
3791.55767	1.98661
3789.62910	1.96803
3787.70054	1.95221
3785.77197	1.96492
3783.84341	1.98616
3781.91485	1.97076
3779.98628	1.94847
3778.05772	1.95038
3776.12915	1.94982
3774.20059	1.94075
3772.27202	1.93960
3770.34346	1.94951
3768.41489	1.96063
3766.48633	1.96776
3764.55777	1.94637
3762.62920	1.89005
3760.70064	1.83792
3758.77207	1.81920
3756.84351	1.81994
3754.91494	1.81760
3752.98638	1.81932
3751.05781	1.84085
3749.12925	1.84457
3747.20069	1.82288
3745.27212	1.82113
3743.34356	1.84642
3741.41499	1.86097
3739.48643	1.85845
3737.55786	1.85243
3735.62930	1.86133
3733.70074	1.87047
3731.77217	1.85896
3729.84361	1.83777
3727.91504	1.82422
3725.98648	1.83796
3724.05791	1.87414
3722.12935	1.89833
3720.20078	1.88652
3718.27222	1.85027
3716.34366	1.81267
3714.41509	1.78979
3712.48653	1.79746
3710.55796	1.81858
3708.62940	1.83296
3706.70083	1.85793
3704.77227	1.87323
3702.84370	1.85496
3700.91514	1.81713
3698.98658	1.79717
3697.05801	1.79727
3695.12945	1.80122
3693.20088	1.80226
3691.27232	1.80002
3689.34375	1.80126
3687.41519	1.81607
3685.48662	1.82349
3683.55806	1.81652
3681.62950	1.80642
3679.70093	1.79517
3677.77237	1.77567
3675.84380	1.77318
3673.91524	1.79296
3671.98667	1.80056
3670.05811	1.82110
3668.12954	1.84588
3666.20098	1.85042
3664.27242	1.85112
3662.34385	1.85620
3660.41529	1.86217
3658.48672	1.86507
3656.55816	1.87700
3654.62959	1.90208
3652.70103	1.92552
3650.77246	1.95099
3648.84390	1.96903
3646.91534	1.95606
3644.98677	1.94174
3643.05821	1.93761
3641.12964	1.94248
3639.20108	1.95237
3637.27251	1.96366
3635.34395	1.96692
3633.41538	1.96323
3631.48682	1.96810
3629.55826	1.97833
3627.62969	1.98373
3625.70113	2.00642
3623.77256	2.04639
3621.84400	2.09295
3619.91543	2.14290
3617.98687	2.16664
3616.05830	2.15493
3614.12974	2.15600
3612.20118	2.16018
3610.27261	2.12458
3608.34405	2.08859
3606.41548	2.08092
3604.48692	2.07902
3602.55835	2.10042
3600.62979	2.15928
3598.70123	2.21494
3596.77266	2.24873
3594.84410	2.24786
3592.91553	2.20893
3590.98697	2.18591
3589.05840	2.18949
3587.12984	2.19433
3585.20127	2.19390
3583.27271	2.20012
3581.34415	2.21276
3579.41558	2.21955
3577.48702	2.21556
3575.55845	2.21280
3573.62989	2.22499
3571.70132	2.26266
3569.77276	2.32113
3567.84419	2.36501
3565.91563	2.34908
3563.98707	2.33381
3562.05850	2.34622
3560.12994	2.33383
3558.20137	2.28909
3556.27281	2.27145
3554.34424	2.30379
3552.41568	2.36334
3550.48711	2.41293
3548.55855	2.45703
3546.62999	2.51434
3544.70142	2.57050
3542.77286	2.58295
3540.84429	2.53796
3538.91573	2.48557
3536.98716	2.46557
3535.05860	2.46652
3533.13003	2.44735
3531.20147	2.41104
3529.27291	2.41389
3527.34434	2.45795
3525.41578	2.47197
3523.48721	2.45692
3521.55865	2.44485
3519.63008	2.43189
3517.70152	2.44603
3515.77295	2.51723
3513.84439	2.61186
3511.91583	2.64229
3509.98726	2.59050
3508.05870	2.55477
3506.13013	2.58738
3504.20157	2.63305
3502.27300	2.65119
3500.34444	2.72680
3498.41587	2.82779
3496.48731	2.79380
3494.55875	2.68977
3492.63018	2.60538
3490.70162	2.52793
3488.77305	2.46728
3486.84449	2.44478
3484.91592	2.43864
3482.98736	2.43945
3481.05879	2.50019
3479.13023	2.61949
3477.20167	2.68377
3475.27310	2.64284
3473.34454	2.60882
3471.41597	2.65041
3469.48741	2.74879
3467.55884	2.82846
3465.63028	2.77646
3463.70171	2.70705
3461.77315	2.73479
3459.84459	2.72895
3457.91602	2.63044
3455.98746	2.56696
3454.05889	2.55882
3452.13033	2.55836
3450.20176	2.52899
3448.27320	2.47303
3446.34464	2.44533
3444.41607	2.47816
3442.48751	2.53159
3440.55894	2.58899
3438.63038	2.65114
3436.70181	2.67231
3434.77325	2.65982
3432.84468	2.60536
3430.91612	2.52396
3428.98756	2.49424
3427.05899	2.50067
3425.13043	2.48965
3423.20186	2.48633
3421.27330	2.50552
3419.34473	2.50923
3417.41617	2.49647
3415.48760	2.48760
3413.55904	2.49836
3411.63048	2.53767
3409.70191	2.55801
3407.77335	2.51470
3405.84478	2.47520
3403.91622	2.50409
3401.98765	2.56471
3400.05909	2.59616
3398.13052	2.61431
3396.20196	2.60252
3394.27340	2.52049
3392.34483	2.44985
3390.41627	2.47432
3388.48770	2.55011
3386.55914	2.57576
3384.63057	2.57262
3382.70201	2.58893
3380.77344	2.60515
3378.84488	2.59300
3376.91632	2.53593
3374.98775	2.46387
3373.05919	2.43373
3371.13062	2.44757
3369.20206	2.45966
3367.27349	2.45083
3365.34493	2.41356
3363.41636	2.36426
3361.48780	2.35871
3359.55924	2.42091
3357.63067	2.50718
3355.70211	2.52187
3353.77354	2.47216
3351.84498	2.44568
3349.91641	2.44804
3347.98785	2.44246
3346.05928	2.42519
3344.13072	2.40860
3342.20216	2.41309
3340.27359	2.46897
3338.34503	2.55220
3336.41646	2.57203
3334.48790	2.51530
3332.55933	2.46473
3330.63077	2.46028
3328.70220	2.46687
3326.77364	2.44020
3324.84508	2.41497
3322.91651	2.44613
3320.98795	2.51890
3319.05938	2.56198
3317.13082	2.53252
3315.20225	2.46399
3313.27369	2.44804
3311.34513	2.51573
3309.41656	2.56251
3307.48800	2.51909
3305.55943	2.48934
3303.63087	2.52874
3301.70230	2.57316
3299.77374	2.55043
3297.84517	2.53308
3295.91661	2.55686
3293.98805	2.56233
3292.05948	2.55116
3290.13092	2.53786
3288.20235	2.51131
3286.27379	2.50331
3284.34522	2.51256
3282.41666	2.50232
3280.48809	2.47706
3278.55953	2.45550
3276.63097	2.43848
3274.70240	2.42419
3272.77384	2.43233
3270.84527	2.46733
3268.91671	2.47667
3266.98814	2.44004
3265.05958	2.39973
3263.13101	2.37590
3261.20245	2.37818
3259.27389	2.40549
3257.34532	2.42509
3255.41676	2.41618
3253.48819	2.40845
3251.55963	2.43172
3249.63106	2.45608
3247.70250	2.42928
3245.77393	2.38783
3243.84537	2.39185
3241.91681	2.41881
3239.98824	2.41816
3238.05968	2.40028
3236.13111	2.38748
3234.20255	2.38110
3232.27398	2.38357
3230.34542	2.38794
3228.41685	2.37981
3226.48829	2.34922
3224.55973	2.29207
3222.63116	2.23646
3220.70260	2.22783
3218.77403	2.25510
3216.84547	2.25850
3214.91690	2.24819
3212.98834	2.26827
3211.05977	2.29181
3209.13121	2.27122
3207.20265	2.23865
3205.27408	2.24364
3203.34552	2.27140
3201.41695	2.28056
3199.48839	2.25659
3197.55982	2.21321
3195.63126	2.17776
3193.70269	2.15788
3191.77413	2.15104
3189.84557	2.16707
3187.91700	2.20344
3185.98844	2.22066
3184.05987	2.19073
3182.13131	2.15985
3180.20274	2.16889
3178.27418	2.19427
3176.34562	2.19473
3174.41705	2.17569
3172.48849	2.15789
3170.55992	2.13544
3168.63136	2.10878
3166.70279	2.09448
3164.77423	2.08803
3162.84566	2.07973
3160.91710	2.07168
3158.98854	2.06364
3157.05997	2.06191
3155.13141	2.06683
3153.20284	2.06783
3151.27428	2.06502
3149.34571	2.06022
3147.41715	2.05498
3145.48858	2.04944
3143.56002	2.03320
3141.63146	2.00956
3139.70289	1.99688
3137.77433	1.99824
3135.84576	2.00415
3133.91720	2.00848
3131.98863	2.00089
3130.06007	1.97896
3128.13150	1.96195
3126.20294	1.96051
3124.27438	1.96925
3122.34581	1.98691
3120.41725	2.00616
3118.48868	2.00638
3116.56012	1.98937
3114.63155	1.98048
3112.70299	1.98678
3110.77442	1.99752
3108.84586	2.00387
3106.91730	1.99705
3104.98873	1.97499
3103.06017	1.95222
3101.13160	1.94804
3099.20304	1.96464
3097.27447	1.98072
3095.34591	1.98119
3093.41734	1.97424
3091.48878	1.96410
3089.56022	1.94881
3087.63165	1.93854
3085.70309	1.94045
3083.77452	1.94573
3081.84596	1.94268
3079.91739	1.93095
3077.98883	1.92499
3076.06026	1.92994
3074.13170	1.92778
3072.20314	1.91375
3070.27457	1.90320
3068.34601	1.89776
3066.41744	1.89289
3064.48888	1.88911
3062.56031	1.88367
3060.63175	1.87946
3058.70318	1.87754
3056.77462	1.86916
3054.84606	1.85596
3052.91749	1.84547
3050.98893	1.83672
3049.06036	1.82805
3047.13180	1.82056
3045.20323	1.81422
3043.27467	1.80842
3041.34610	1.80487
3039.41754	1.80654
3037.48898	1.81304
3035.56041	1.81465
3033.63185	1.80467
3031.70328	1.79270
3029.77472	1.78162
3027.84615	1.76725
3025.91759	1.75838
3023.98903	1.75969
3022.06046	1.76146
3020.13190	1.75787
3018.20333	1.75287
3016.27477	1.74894
3014.34620	1.74718
3012.41764	1.75105
3010.48907	1.75639
3008.56051	1.75193
3006.63195	1.73847
3004.70338	1.72930
3002.77482	1.73025
3000.84625	1.73218
2998.91769	1.72662
2996.98912	1.71773
2995.06056	1.71356
2993.13199	1.71615
2991.20343	1.71960
2989.27487	1.72157
2987.34630	1.72848
2985.41774	1.73713
2983.48917	1.74136
2981.56061	1.74513
2979.63204	1.74683
2977.70348	1.74450
2975.77491	1.74330
2973.84635	1.74421
2971.91779	1.74761
2969.98922	1.75745
2968.06066	1.77253
2966.13209	1.78522
2964.20353	1.79334
2962.27496	1.80162
2960.34640	1.80799
2958.41783	1.80105
2956.48927	1.78518
2954.56071	1.77985
2952.63214	1.78382
2950.70358	1.78316
2948.77501	1.77598
2946.84645	1.76792
2944.91788	1.76593
2942.98932	1.77072
2941.06075	1.77821
2939.13219	1.78816
2937.20363	1.80221
2935.27506	1.82012
2933.34650	1.83772
2931.41793	1.85081
2929.48937	1.86181
2927.56080	1.87419
2925.63224	1.88355
2923.70367	1.88885
2921.77511	1.89763
2919.84655	1.90797
2917.91798	1.90862
2915.98942	1.89212
2914.06085	1.86156
2912.13229	1.82828
2910.20372	1.79916
2908.27516	1.77452
2906.34659	1.75391
2904.41803	1.73800
2902.48947	1.72818
2900.56090	1.72062
2898.63234	1.70972
2896.70377	1.70063
2894.77521	1.69589
2892.84664	1.68671
2890.91808	1.67350
2888.98952	1.66507
2887.06095	1.66220
2885.13239	1.65957
2883.20382	1.65507
2881.27526	1.65172
2879.34669	1.65091
2877.41813	1.64996
2875.48956	1.64628
2873.56100	1.64106
2871.63244	1.63783
2869.70387	1.63682
2867.77531	1.63517
2865.84674	1.63225
2863.91818	1.62982
2861.98961	1.62746
2860.06105	1.62481
2858.13248	1.62569
2856.20392	1.63432
2854.27536	1.65171
2852.34679	1.67398
2850.41823	1.68719
2848.48966	1.67463
2846.56110	1.63987
2844.63253	1.60322
2842.70397	1.57559
2840.77540	1.55409
2838.84684	1.53607
2836.91828	1.52390
2834.98971	1.51707
2833.06115	1.51128
2831.13258	1.50416
2829.20402	1.49539
2827.27545	1.48622
2825.34689	1.47893
2823.41832	1.47292
2821.48976	1.46640
2819.56120	1.45987
2817.63263	1.45330
2815.70407	1.44725
2813.77550	1.44341
2811.84694	1.44011
2809.91837	1.43543
2807.98981	1.43103
2806.06124	1.42721
2804.13268	1.42314
2802.20412	1.42048
2800.27555	1.41882
2798.34699	1.41564
2796.41842	1.41119
2794.48986	1.40608
2792.56129	1.40117
2790.63273	1.39831
2788.70416	1.39717
2786.77560	1.39505
2784.84704	1.39010
2782.91847	1.38245
2780.98991	1.37418
2779.06134	1.36901
2777.13278	1.36820
2775.20421	1.36871
2773.27565	1.36753
2771.34708	1.36488
2769.41852	1.36302
2767.48996	1.36153
2765.56139	1.35738
2763.63283	1.35258
2761.70426	1.35156
2759.77570	1.35149
2757.84713	1.34798
2755.91857	1.34387
2753.99001	1.34157
2752.06144	1.33847
2750.13288	1.33465
2748.20431	1.33321
2746.27575	1.33259
2744.34718	1.32983
2742.41862	1.32664
2740.49005	1.32454
2738.56149	1.32295
2736.63293	1.32183
2734.70436	1.32021
2732.77580	1.31651
2730.84723	1.31188
2728.91867	1.30860
2726.99010	1.30704
2725.06154	1.30598
2723.13297	1.30398
2721.20441	1.30177
2719.27585	1.30102
2717.34728	1.30051
2715.41872	1.29846
2713.49015	1.29473
2711.56159	1.29001
2709.63302	1.28662
2707.70446	1.28585
2705.77589	1.28512
2703.84733	1.28276
2701.91877	1.28077
2699.99020	1.27925
2698.06164	1.27643
2696.13307	1.27298
2694.20451	1.27042
2692.27594	1.26809
2690.34738	1.26492
2688.41881	1.26196
2686.49025	1.26041
2684.56169	1.25944
2682.63312	1.25754
2680.70456	1.25408
2678.77599	1.25024
2676.84743	1.24789
2674.91886	1.24711
2672.99030	1.24676
2671.06173	1.24578
2669.13317	1.24347
2667.20461	1.24014
2665.27604	1.23701
2663.34748	1.23472
2661.41891	1.23290
2659.49035	1.23134
2657.56178	1.22967
2655.63322	1.22715
2653.70465	1.22452
2651.77609	1.22259
2649.84753	1.22049
2647.91896	1.21814
2645.99040	1.21618
2644.06183	1.21446
2642.13327	1.21337
2640.20470	1.21311
2638.27614	1.21269
2636.34757	1.21168
2634.41901	1.21095
2632.49045	1.21085
2630.56188	1.21035
2628.63332	1.20941
2626.70475	1.20876
2624.77619	1.20668
2622.84762	1.20142
2620.91906	1.19510
2618.99049	1.19135
2617.06193	1.19070
2615.13337	1.19091
2613.20480	1.19073
2611.27624	1.18969
2609.34767	1.18775
2607.41911	1.18612
2605.49054	1.18490
2603.56198	1.18310
2601.63342	1.18083
2599.70485	1.17929
2597.77629	1.17844
2595.84772	1.17705
2593.91916	1.17473
2591.99059	1.17207
2590.06203	1.17055
2588.13346	1.17003
2586.20490	1.16800
2584.27634	1.16491
2582.34777	1.16342
2580.41921	1.16281
2578.49064	1.16019
2576.56208	1.15569
2574.63351	1.15248
2572.70495	1.15205
2570.77638	1.15237
2568.84782	1.15104
2566.91926	1.14837
2564.99069	1.14565
2563.06213	1.14340
2561.13356	1.14225
2559.20500	1.14168
2557.27643	1.14018
2555.34787	1.13754
2553.41930	1.13470
2551.49074	1.13216
2549.56218	1.13019
2547.63361	1.12864
2545.70505	1.12680
2543.77648	1.12513
2541.84792	1.12414
2539.91935	1.12281
2537.99079	1.12080
2536.06222	1.11952
2534.13366	1.11953
2532.20510	1.11912
2530.27653	1.11718
2528.34797	1.11481
2526.41940	1.11329
2524.49084	1.11255
2522.56227	1.11127
2520.63371	1.10950
2518.70514	1.10792
2516.77658	1.10568
2514.84802	1.10334
2512.91945	1.10200
2510.99089	1.10022
2509.06232	1.09694
2507.13376	1.09366
2505.20519	1.09227
2503.27663	1.09253
2501.34806	1.09237
2499.41950	1.09090
2497.49094	1.08906
2495.56237	1.08707
2493.63381	1.08476
2491.70524	1.08289
2489.77668	1.08122
2487.84811	1.07862
2485.91955	1.07544
2483.99098	1.07317
2482.06242	1.07240
2480.13386	1.07190
2478.20529	1.07007
2476.27673	1.06774
2474.34816	1.06652
2472.41960	1.06543
2470.49103	1.06289
2468.56247	1.05952
2466.63391	1.05655
2464.70534	1.05438
2462.77678	1.05328
2460.84821	1.05303
2458.91965	1.05251
2456.99108	1.05090
2455.06252	1.04822
2453.13395	1.04503
2451.20539	1.04253
2449.27683	1.04155
2447.34826	1.04104
2445.41970	1.03983
2443.49113	1.03856
2441.56257	1.03746
2439.63400	1.03572
2437.70544	1.03364
2435.77687	1.03183
2433.84831	1.03014
2431.91975	1.02856
2429.99118	1.02747
2428.06262	1.02624
2426.13405	1.02415
2424.20549	1.02203
2422.27692	1.02043
2420.34836	1.01913
2418.41979	1.01802
2416.49123	1.01696
2414.56267	1.01612
2412.63410	1.01526
2410.70554	1.01366
2408.77697	1.01171
2406.84841	1.00970
2404.91984	1.00696
2402.99128	1.00428
2401.06271	1.00268
2399.13415	1.00154
2397.20559	1.00054
2395.27702	0.99957
2393.34846	0.99807
2391.41989	0.99654
2389.49133	0.99542
2387.56276	0.99431
2385.63420	0.99312
2383.70563	0.99199
2381.77707	0.99112
2379.84851	0.99098
2377.91994	0.99146
2375.99138	0.99158
2374.06281	0.99050
2372.13425	0.98850
2370.20568	0.98839
2368.27712	0.99258
2366.34855	0.99927
2364.41999	1.00355
2362.49143	1.00257
2360.56286	0.99832
2358.63430	0.98926
2356.70573	0.98017
2354.77717	0.97860
2352.84860	0.98159
2350.92004	0.98295
2348.99147	0.98002
2347.06291	0.97480
2345.13435	0.97273
2343.20578	0.97613
2341.27722	0.97760
2339.34865	0.97566
2337.42009	0.97497
2335.49152	0.97414
2333.56296	0.97056
2331.63440	0.96982
2329.70583	0.97239
2327.77727	0.96875
2325.84870	0.96063
2323.92014	0.95732
2321.99157	0.95857
2320.06301	0.95879
2318.13444	0.95724
2316.20588	0.95565
2314.27732	0.95412
2312.34875	0.95277
2310.42019	0.95200
2308.49162	0.95115
2306.56306	0.94963
2304.63449	0.94767
2302.70593	0.94537
2300.77736	0.94265
2298.84880	0.94025
2296.92024	0.93878
2294.99167	0.93766
2293.06311	0.93634
2291.13454	0.93440
2289.20598	0.93152
2287.27741	0.92866
2285.34885	0.92707
2283.42028	0.92637
2281.49172	0.92548
2279.56316	0.92442
2277.63459	0.92344
2275.70603	0.92247
2273.77746	0.92191
2271.84890	0.92147
2269.92033	0.92010
2267.99177	0.91814
2266.06320	0.91656
2264.13464	0.91557
2262.20608	0.91497
2260.27751	0.91417
2258.34895	0.91270
2256.42038	0.91073
2254.49182	0.90878
2252.56325	0.90738
2250.63469	0.90653
2248.70612	0.90570
2246.77756	0.90447
2244.84900	0.90310
2242.92043	0.90235
2240.99187	0.90205
2239.06330	0.90127
2237.13474	0.90011
2235.20617	0.89923
2233.27761	0.89884
2231.34904	0.89843
2229.42048	0.89737
2227.49192	0.89578
2225.56335	0.89404
2223.63479	0.89258
2221.70622	0.89149
2219.77766	0.89032
2217.84909	0.88916
2215.92053	0.88845
2213.99196	0.88801
2212.06340	0.88746
2210.13484	0.88671
2208.20627	0.88585
2206.27771	0.88502
2204.34914	0.88449
2202.42058	0.88406
2200.49201	0.88333
2198.56345	0.88262
2196.63488	0.88195
2194.70632	0.88071
2192.77776	0.87924
2190.84919	0.87832
2188.92063	0.87761
2186.99206	0.87647
2185.06350	0.87502
2183.13493	0.87366
2181.20637	0.87263
2179.27781	0.87218
2177.34924	0.87220
2175.42068	0.87213
2173.49211	0.87170
2171.56355	0.87090
2169.63498	0.86987
2167.70642	0.86893
2165.77785	0.86778
2163.84929	0.86626
2161.92073	0.86518
2159.99216	0.86479
2158.06360	0.86445
2156.13503	0.86405
2154.20647	0.86351
2152.27790	0.86208
2150.34934	0.85987
2148.42077	0.85808
2146.49221	0.85709
2144.56365	0.85648
2142.63508	0.85555
2140.70652	0.85376
2138.77795	0.85186
2136.84939	0.85086
2134.92082	0.85041
2132.99226	0.84955
2131.06369	0.84830
2129.13513	0.84744
2127.20657	0.84693
2125.27800	0.84619
2123.34944	0.84536
2121.42087	0.84449
2119.49231	0.84309
2117.56374	0.84151
2115.63518	0.84031
2113.70661	0.83900
2111.77805	0.83716
2109.84949	0.83541
2107.92092	0.83399
2105.99236	0.83268
2104.06379	0.83160
2102.13523	0.83050
2100.20666	0.82889
2098.27810	0.82727
2096.34953	0.82637
2094.42097	0.82576
2092.49241	0.82489
2090.56384	0.82411
2088.63528	0.82355
2086.70671	0.82286
2084.77815	0.82212
2082.84958	0.82138
2080.92102	0.82035
2078.99245	0.81887
2077.06389	0.81732
2075.13533	0.81570
2073.20676	0.81392
2071.27820	0.81229
2069.34963	0.81074
2067.42107	0.80926
2065.49250	0.80815
2063.56394	0.80706
2061.63537	0.80567
2059.70681	0.80439
2057.77825	0.80353
2055.84968	0.80271
2053.92112	0.80163
2051.99255	0.80073
2050.06399	0.80050
2048.13542	0.80055
2046.20686	0.80014
2044.27830	0.79884
2042.34973	0.79698
2040.42117	0.79510
2038.49260	0.79330
2036.56404	0.79164
2034.63547	0.79039
2032.70691	0.78934
2030.77834	0.78797
2028.84978	0.78656
2026.92122	0.78578
2024.99265	0.78533
2023.06409	0.78445
2021.13552	0.78303
2019.20696	0.78184
2017.27839	0.78144
2015.34983	0.78102
2013.42126	0.77973
2011.49270	0.77795
2009.56414	0.77629
2007.63557	0.77489
2005.70701	0.77354
2003.77844	0.77216
2001.84988	0.77085
1999.92131	0.76955
1997.99275	0.76828
1996.06418	0.76684
1994.13562	0.76525
1992.20706	0.76420
1990.27849	0.76346
1988.34993	0.76237
1986.42136	0.76128
1984.49280	0.76030
1982.56423	0.75922
1980.63567	0.75807
1978.70710	0.75711
1976.77854	0.75642
1974.84998	0.75564
1972.92141	0.75442
1970.99285	0.75277
1969.06428	0.75129
1967.13572	0.75047
1965.20715	0.74965
1963.27859	0.74827
1961.35002	0.74686
1959.42146	0.74548
1957.49290	0.74380
1955.56433	0.74223
1953.63577	0.74118
1951.70720	0.74042
1949.77864	0.73943
1947.85007	0.73796
1945.92151	0.73639
1943.99294	0.73571
1942.06438	0.73587
1940.13582	0.73514
1938.20725	0.73357
1936.27869	0.73235
1934.35012	0.73154
1932.42156	0.73079
1930.49299	0.72970
1928.56443	0.72809
1926.63586	0.72624
1924.70730	0.72505
1922.77874	0.72494
1920.85017	0.72435
1918.92161	0.72329
1916.99304	0.72265
1915.06448	0.72116
1913.13591	0.71876
1911.20735	0.71701
1909.27878	0.71655
1907.35022	0.71619
1905.42166	0.71512
1903.49309	0.71413
1901.56453	0.71357
1899.63596	0.71300
1897.70740	0.71251
1895.77883	0.71254
1893.85027	0.71221
1891.92171	0.71090
1889.99314	0.71031
1888.06458	0.71022
1886.13601	0.70914
1884.20745	0.70789
1882.27888	0.70678
1880.35032	0.70542
1878.42175	0.70394
1876.49319	0.70252
1874.56463	0.70090
1872.63606	0.69880
1870.70750	0.69767
1868.77893	0.69934
1866.85037	0.70039
1864.92180	0.69845
1862.99324	0.69640
1861.06467	0.69544
1859.13611	0.69496
1857.20755	0.69446
1855.27898	0.69384
1853.35042	0.69313
1851.42185	0.69217
1849.49329	0.69093
1847.56472	0.68949
1845.63616	0.68915
1843.70759	0.69062
1841.77903	0.69011
1839.85047	0.68750
1837.92190	0.68565
1835.99334	0.68477
1834.06477	0.68298
1832.13621	0.68119
1830.20764	0.68227
1828.27908	0.68384
1826.35051	0.68304
1824.42195	0.68232
1822.49339	0.68152
1820.56482	0.67996
1818.63626	0.67887
1816.70769	0.67815
1814.77913	0.67681
1812.85056	0.67556
1810.92200	0.67575
1808.99343	0.67616
1807.06487	0.67527
1805.13631	0.67374
1803.20774	0.67271
1801.27918	0.67346
1799.35061	0.67468
1797.42205	0.67375
1795.49348	0.67169
1793.56492	0.67173
1791.63635	0.67477
1789.70779	0.67490
1787.77923	0.67218
1785.85066	0.67019
1783.92210	0.66937
1781.99353	0.66908
1780.06497	0.66951
1778.13640	0.66927
1776.20784	0.66744
1774.27927	0.66656
1772.35071	0.67015
1770.42215	0.67404
1768.49358	0.67449
1766.56502	0.67367
1764.63645	0.67249
1762.70789	0.67349
1760.77932	0.67674
1758.85076	0.67848
1756.92220	0.68061
1754.99363	0.68293
1753.06507	0.68435
1751.13650	0.68939
1749.20794	0.69957
1747.27937	0.70757
1745.35081	0.71211
1743.42224	0.71610
1741.49368	0.72094
1739.56512	0.72604
1737.63655	0.72778
1735.70799	0.72828
1733.77942	0.73532
1731.85086	0.74187
1729.92229	0.74348
1727.99373	0.74487
1726.06516	0.74662
1724.13660	0.75013
1722.20804	0.75381
1720.27947	0.75609
1718.35091	0.76302
1716.42234	0.78020
1714.49378	0.79103
1712.56521	0.79524
1710.63665	0.80019
1708.70808	0.80745
1706.77952	0.82162
1704.85096	0.84267
1702.92239	0.86054
1700.99383	0.88830
1699.06526	0.93914
1697.13670	0.99164
1695.20813	1.04526
1693.27957	1.08306
1691.35100	1.11258
1689.42244	1.15159
1687.49388	1.18936
1685.56531	1.23098
1683.63675	1.30889
1681.70818	1.36851
1679.77962	1.40144
1677.85105	1.43305
1675.92249	1.47346
1673.99392	1.52190
1672.06536	1.56413
1670.13680	1.61750
1668.20823	1.67565
1666.27967	1.70217
1664.35110	1.72569
1662.42254	1.77040
1660.49397	1.81286
1658.56541	1.83590
1656.63684	1.84982
1654.70828	1.86738
1652.77972	1.89028
1650.85115	1.88803
1648.92259	1.87820
1646.99402	1.87295
1645.06546	1.87127
1643.13689	1.86480
1641.20833	1.85778
1639.27976	1.85195
1637.35120	1.85240
1635.42264	1.85825
1633.49407	1.85341
1631.56551	1.84578
1629.63694	1.83293
1627.70838	1.81084
1625.77981	1.78614
1623.85125	1.75621
1621.92269	1.72027
1619.99412	1.69014
1618.06556	1.65128
1616.13699	1.58930
1614.20843	1.54023
1612.27986	1.50528
1610.35130	1.47046
1608.42273	1.43487
1606.49417	1.40232
1604.56561	1.37518
1602.63704	1.35419
1600.70848	1.33945
1598.77991	1.32864
1596.85135	1.32043
1594.92278	1.31436
1592.99422	1.31012
1591.06565	1.30865
1589.13709	1.31018
1587.20853	1.31469
1585.27996	1.32301
1583.35140	1.33430
1581.42283	1.34509
1579.49427	1.35446
1577.56570	1.37117
1575.63714	1.40316
1573.70857	1.42430
1571.78001	1.43518
1569.85145	1.45440
1567.92288	1.47825
1565.99432	1.49777
1564.06575	1.51824
1562.13719	1.53489
1560.20862	1.55640
1558.28006	1.60553
1556.35149	1.62317
1554.42293	1.62759
1552.49437	1.63371
1550.56580	1.63723
1548.63724	1.63855
1546.70867	1.63794
1544.78011	1.63256
1542.85154	1.62277
1540.92298	1.61811
1538.99441	1.61483
1537.06585	1.60703
1535.13729	1.59567
1533.20872	1.58112
1531.28016	1.56949
1529.35159	1.56040
1527.42303	1.54865
1525.49446	1.53593
1523.56590	1.53173
1521.63733	1.53506
1519.70877	1.53206
1517.78021	1.51865
1515.85164	1.49732
1513.92308	1.47267
1511.99451	1.44706
1510.06595	1.42152
1508.13738	1.38845
1506.20882	1.34122
1504.28025	1.31245
1502.35169	1.29090
1500.42313	1.26933
1498.49456	1.24725
1496.56600	1.22271
1494.63743	1.20047
1492.70887	1.18312
1490.78030	1.16575
1488.85174	1.14635
1486.92317	1.13116
1484.99461	1.12040
1483.06605	1.11193
1481.13748	1.10553
1479.20892	1.10241
1477.28035	1.10365
1475.35179	1.11065
1473.42322	1.12770
1471.49466	1.14780
1469.56610	1.15662
1467.63753	1.16088
1465.70897	1.16779
1463.78040	1.17505
1461.85184	1.17644
1459.92327	1.17586
1457.99471	1.18355
1456.06614	1.19773
1454.13758	1.19928
1452.20902	1.19607
1450.28045	1.19298
1448.35189	1.19066
1446.42332	1.18696
1444.49476	1.18118
1442.56619	1.17436
1440.63763	1.16643
1438.70906	1.15773
1436.78050	1.14835
1434.85194	1.13721
1432.92337	1.12531
1430.99481	1.11450
1429.06624	1.10609
1427.13768	1.09979
1425.20911	1.09552
1423.28055	1.09371
1421.35198	1.09407
1419.42342	1.09846
1417.49486	1.10412
1415.56629	1.10465
1413.63773	1.10389
1411.70916	1.10472
1409.78060	1.10608
1407.85203	1.10710
1405.92347	1.10976
1403.99490	1.11407
1402.06634	1.11657
1400.13778	1.11793
1398.20921	1.11965
1396.28065	1.12110
1394.35208	1.12280
1392.42352	1.12386
1390.49495	1.12419
1388.56639	1.12709
1386.63782	1.13412
1384.70926	1.14106
1382.78070	1.14639
1380.85213	1.15049
1378.92357	1.15127
1376.99500	1.14683
1375.06644	1.13769
1373.13787	1.12597
1371.20931	1.11340
1369.28074	1.09873
1367.35218	1.08226
1365.42362	1.06709
1363.49505	1.05437
1361.56649	1.04468
1359.63792	1.03790
1357.70936	1.03306
1355.78079	1.02974
1353.85223	1.02753
1351.92366	1.02615
1349.99510	1.02528
1348.06654	1.02444
1346.13797	1.02363
1344.20941	1.02283
1342.28084	1.02217
1340.35228	1.02283
1338.42371	1.02467
1336.49515	1.02648
1334.56659	1.02959
1332.63802	1.03482
1330.70946	1.04099
1328.78089	1.04621
1326.85233	1.04980
1324.92376	1.05284
1322.99520	1.05592
1321.06663	1.05875
1319.13807	1.06184
1317.20951	1.06494
1315.28094	1.06719
1313.35238	1.06903
1311.42381	1.07016
1309.49525	1.07019
1307.56668	1.06988
1305.63812	1.06907
1303.70955	1.06755
1301.78099	1.06583
1299.85243	1.06351
1297.92386	1.06005
1295.99530	1.05659
1294.06673	1.05491
1292.13817	1.05511
1290.20960	1.05607
1288.28104	1.05737
1286.35247	1.05901
1284.42391	1.06029
1282.49535	1.06131
1280.56678	1.06277
1278.63822	1.06452
1276.70965	1.06632
1274.78109	1.06838
1272.85252	1.07160
1270.92396	1.07643
1268.99539	1.08195
1267.06683	1.08754
1265.13827	1.09304
1263.20970	1.09802
1261.28114	1.10188
1259.35257	1.10463
1257.42401	1.10738
1255.49544	1.11055
1253.56688	1.11348
1251.63831	1.11601
1249.70975	1.11884
1247.78119	1.12266
1245.85262	1.12645
1243.92406	1.12862
1241.99549	1.12928
1240.06693	1.12922
1238.13836	1.12822
1236.20980	1.12565
1234.28123	1.12135
1232.35267	1.11588
1230.42411	1.10995
1228.49554	1.10343
1226.56698	1.09553
1224.63841	1.08615
1222.70985	1.07603
1220.78128	1.06588
1218.85272	1.05642
1216.92415	1.04837
1214.99559	1.04187
1213.06703	1.03700
1211.13846	1.03422
1209.20990	1.03308
1207.28133	1.03181
1205.35277	1.02913
1203.42420	1.02491
1201.49564	1.01896
1199.56708	1.01152
1197.63851	1.00429
1195.70995	0.99811
1193.78138	0.99241
1191.85282	0.98732
1189.92425	0.98253
1187.99569	0.97760
1186.06712	0.97367
1184.13856	0.97139
1182.21000	0.97018
1180.28143	0.96989
1178.35287	0.97080
1176.42430	0.97312
1174.49574	0.97702
1172.56717	0.98223
1170.63861	0.98837
1168.71004	0.99623
1166.78148	1.00736
1164.85292	1.02155
1162.92435	1.03682
1160.99579	1.05019
1159.06722	1.05781
1157.13866	1.05779
1155.21009	1.05094
1153.28153	1.03887
1151.35296	1.02406
1149.42440	1.00885
1147.49584	0.99393
1145.56727	0.98002
1143.63871	0.96851
1141.71014	0.95999
1139.78158	0.95480
1137.85301	0.95321
1135.92445	0.95408
1133.99588	0.95706
1132.06732	0.96355
1130.13876	0.97344
1128.21019	0.98558
1126.28163	0.99940
1124.35306	1.01372
1122.42450	1.02769
1120.49593	1.04038
1118.56737	1.04987
1116.63880	1.05572
1114.71024	1.05805
1112.78168	1.05593
1110.85311	1.04994
1108.92455	1.04287
1106.99598	1.03670
1105.06742	1.03125
1103.13885	1.02604
1101.21029	1.02126
1099.28172	1.01866
1097.35316	1.02039
1095.42460	1.02611
1093.49603	1.03448
1091.56747	1.04535
1089.63890	1.05891
1087.71034	1.07573
1085.78177	1.09593
1083.85321	1.11770
1081.92464	1.13787
1079.99608	1.15281
1078.06752	1.16128
1076.13895	1.16420
1074.21039	1.16059
1072.28182	1.14995
1070.35326	1.13525
1068.42469	1.11976
1066.49613	1.10407
1064.56756	1.08802
1062.63900	1.07338
1060.71044	1.06096
1058.78187	1.04919
1056.85331	1.03762
1054.92474	1.02722
1052.99618	1.01854
1051.06761	1.01207
1049.13905	1.00848
1047.21049	1.00793
1045.28192	1.01059
1043.35336	1.01666
1041.42479	1.02523
1039.49623	1.03377
1037.56766	1.03949
1035.63910	1.04175
1033.71053	1.04241
1031.78197	1.04265
1029.85341	1.04148
1027.92484	1.03810
1025.99628	1.03213
1024.06771	1.02338
1022.13915	1.01365
1020.21058	1.00500
1018.28202	0.99698
1016.35345	0.98828
1014.42489	0.97803
1012.49633	0.96514
1010.56776	0.94928
1008.63920	0.93176
1006.71063	0.91427
1004.78207	0.89827
1002.85350	0.88478
1000.92494	0.87382
998.99637	0.86498
997.06781	0.85829
995.13925	0.85343
993.21068	0.84933
991.28212	0.84516
989.35355	0.84058
987.42499	0.83556
985.49642	0.83050
983.56786	0.82587
981.63929	0.82225
979.71073	0.81982
977.78217	0.81761
975.85360	0.81454
973.92504	0.81008
971.99647	0.80427
970.06791	0.79752
968.13934	0.78993
966.21078	0.78267
964.28221	0.77816
962.35365	0.77750
960.42509	0.78075
958.49652	0.78771
956.56796	0.79573
954.63939	0.80020
952.71083	0.79939
950.78226	0.79497
948.85370	0.78844
946.92513	0.78099
944.99657	0.77430
943.06801	0.76915
941.13944	0.76500
939.21088	0.76118
937.28231	0.75772
935.35375	0.75488
933.42518	0.75269
931.49662	0.75115
929.56805	0.75034
927.63949	0.75053
925.71093	0.75169
923.78236	0.75333
921.85380	0.75490
919.92523	0.75615
917.99667	0.75733
916.06810	0.75844
914.13954	0.75921
912.21098	0.75997
910.28241	0.76143
908.35385	0.76345
906.42528	0.76531
904.49672	0.76702
902.56815	0.76874
900.63959	0.76994
898.71102	0.77041
896.78246	0.77031
894.85390	0.76957
892.92533	0.76791
890.99677	0.76565
889.06820	0.76374
887.13964	0.76266
885.21107	0.76212
883.28251	0.76174
881.35394	0.76124
879.42538	0.76056
877.49682	0.76021
875.56825	0.76050
873.63969	0.76100
871.71112	0.76176
869.78256	0.76305
867.85399	0.76416
865.92543	0.76483
863.99686	0.76605
862.06830	0.76814
860.13974	0.77057
858.21117	0.77347
856.28261	0.77704
854.35404	0.78058
852.42548	0.78292
850.49691	0.78351
848.56835	0.78286
846.63978	0.78171
844.71122	0.78092
842.78266	0.78138
840.85409	0.78288
838.92553	0.78452
836.99696	0.78633
835.06840	0.78902
833.13983	0.79259
831.21127	0.79669
829.28270	0.80115
827.35414	0.80509
825.42558	0.80776
823.49701	0.80956
821.56845	0.81088
819.63988	0.81207
817.71132	0.81332
815.78275	0.81387
813.85419	0.81323
811.92562	0.81160
809.99706	0.80885
808.06850	0.80547
806.13993	0.80289
804.21137	0.80144
802.28280	0.80057
800.35424	0.80063
798.42567	0.80175
796.49711	0.80329
794.56854	0.80520
792.63998	0.80776
790.71142	0.81104
788.78285	0.81533
786.85429	0.82050
784.92572	0.82556
782.99716	0.83006
781.06859	0.83399
779.14003	0.83666
777.21147	0.83813
775.28290	0.83968
773.35434	0.84119
771.42577	0.84146
769.49721	0.84099
767.56864	0.84096
765.64008	0.84116
763.71151	0.84153
761.78295	0.84244
759.85439	0.84359
757.92582	0.84538
755.99726	0.84866
754.06869	0.85273
752.14013	0.85682
750.21156	0.86127
748.28300	0.86612
746.35443	0.87047
744.42587	0.87341
742.49731	0.87552
740.56874	0.87772
738.64018	0.87928
736.71161	0.87947
734.78305	0.87925
732.85448	0.87954
730.92592	0.88037
728.99735	0.88151
727.06879	0.88263
725.14023	0.88396
723.21166	0.88659
721.28310	0.89141
719.35453	0.89698
717.42597	0.90031
715.49740	0.90170
713.56884	0.90368
711.64027	0.90735
709.71171	0.91170
707.78315	0.91499
705.85458	0.91727
703.92602	0.91913
701.99745	0.91980
700.06889	0.91958
698.14032	0.92002
696.21176	0.92121
694.28319	0.92115
692.35463	0.91960
690.42607	0.91907
688.49750	0.91987
686.56894	0.92035
684.64037	0.92018
682.71181	0.91943
680.78324	0.91936
678.85468	0.92124
676.92611	0.92303
674.99755	0.92263
673.06899	0.92079
671.14042	0.91857
669.21186	0.91724
667.28329	0.91898
665.35473	0.92011
663.42616	0.92011
661.49760	0.92105
659.56903	0.92204
657.64047	0.92124
655.71191	0.92026
653.78334	0.92112
651.85478	0.92258
649.92621	0.92228
647.99765	0.92115
646.06908	0.92144
644.14052	0.92278
642.21195	0.92413
640.28339	0.92425
638.35483	0.92316
636.42626	0.92321
634.49770	0.92378
632.56913	0.92301
630.64057	0.92292
628.71200	0.92488
626.78344	0.92633
624.85488	0.92616
622.92631	0.92635
620.99775	0.92707
619.06918	0.92846
617.14062	0.93154
615.21205	0.93302
613.28349	0.93048
611.35492	0.92682
609.42636	0.92400
607.49780	0.92141
605.56923	0.91937
603.64067	0.91823
601.71210	0.91767
599.78354	0.91846
