3997.91406	0.94312
3995.98550	0.94431
3994.05693	0.94638
3992.12837	0.94849
3990.19980	0.94992
3988.27124	0.94925
3986.34268	0.94766
3984.41411	0.94705
3982.48555	0.94719
3980.55698	0.94692
3978.62842	0.94590
3976.69985	0.94402
3974.77129	0.94180
3972.84272	0.94104
3970.91416	0.94247
3968.98560	0.94400
3967.05703	0.94353
3965.12847	0.94180
3963.19990	0.94039
3961.27134	0.93925
3959.34277	0.93845
3957.41421	0.93931
3955.48564	0.94121
3953.55708	0.94075
3951.62852	0.93708
3949.69995	0.93414
3947.77139	0.93385
3945.84282	0.93322
3943.91426	0.93318
3941.98569	0.93598
3940.05713	0.93737
3938.12856	0.93426
3936.20000	0.92843
3934.27144	0.92337
3932.34287	0.92254
3930.41431	0.92423
3928.48574	0.92312
3926.55718	0.92080
3924.62861	0.92235
3922.70005	0.92551
3920.77148	0.92558
3918.84292	0.92476
3916.91436	0.92556
3914.98579	0.92618
3913.05723	0.92591
3911.12866	0.92532
3909.20010	0.92300
3907.27153	0.91892
3905.34297	0.91845
3903.41440	0.92579
3901.48584	0.93091
3899.55728	0.92967
3897.62871	0.92717
3895.70015	0.92314
3893.77158	0.91910
3891.84302	0.91885
3889.91445	0.91725
3887.98589	0.91267
3886.05733	0.91233
3884.12876	0.91433
3882.20020	0.91431
3880.27163	0.91549
3878.34307	0.91227
3876.41450	0.90580
3874.48594	0.90224
3872.55737	0.90182
3870.62881	0.90639
3868.70025	0.91079
3866.77168	0.90831
3864.84312	0.90770
3862.91455	0.90983
3860.98599	0.90752
3859.05742	0.90358
3857.12886	0.90092
3855.20029	0.90370
3853.27173	0.91892
3851.34317	0.92267
3849.41460	0.91391
3847.48604	0.90471
3845.55747	0.89838
3843.62891	0.89546
3841.70034	0.89441
3839.77178	0.89856
3837.84321	0.90859
3835.91465	0.91051
3833.98609	0.90684
3832.05752	0.90392
3830.12896	0.89901
3828.20039	0.89385
3826.27183	0.89224
3824.34326	0.89090
3822.41470	0.89150
3820.48613	0.89541
3818.55757	0.89298
3816.62901	0.89378
3814.70044	0.89757
3812.77188	0.89378
3810.84331	0.88597
3808.91475	0.88101
3806.98618	0.88528
3805.05762	0.88935
3803.12905	0.88918
3801.20049	0.89491
3799.27193	0.89654
3797.34336	0.89272
3795.41480	0.88979
3793.48623	0.88652
3791.55767	0.88417
3789.62910	0.88312
3787.70054	0.88152
3785.77197	0.88075
3783.84341	0.88066
3781.91485	0.87944
3779.98628	0.88089
3778.05772	0.88352
3776.12915	0.88129
3774.20059	0.87720
3772.27202	0.87514
3770.34346	0.87611
3768.41489	0.87720
3766.48633	0.87683
3764.55777	0.87457
3762.62920	0.86957
3760.70064	0.86683
3758.77207	0.86889
3756.84351	0.86778
3754.91494	0.86194
3752.98638	0.85834
3751.05781	0.86689
3749.12925	0.87344
3747.20069	0.86807
3745.27212	0.86767
3743.34356	0.87409
3741.41499	0.87308
3739.48643	0.86656
3737.55786	0.86235
3735.62930	0.86930
3733.70074	0.88120
3731.77217	0.88139
3729.84361	0.87506
3727.91504	0.87182
3725.98648	0.87451
3724.05791	0.87679
3722.12935	0.87473
3720.20078	0.87036
3718.27222	0.86523
3716.34366	0.86016
3714.41509	0.85660
3712.48653	0.86054
3710.55796	0.87049
3708.62940	0.87050
3706.70083	0.86495
3704.77227	0.86015
3702.84370	0.86040
3700.91514	0.86396
3698.98658	0.86388
3697.05801	0.86270
3695.12945	0.86212
3693.20088	0.86045
3691.27232	0.86132
3689.34375	0.87090
3687.41519	0.87651
3685.48662	0.87334
3683.55806	0.86879
3681.62950	0.86500
3679.70093	0.86112
3677.77237	0.86040
3675.84380	0.87282
3673.91524	0.88151
3671.98667	0.87973
3670.05811	0.88658
3668.12954	0.89116
3666.20098	0.88506
3664.27242	0.88043
3662.34385	0.88167
3660.41529	0.88513
3658.48672	0.88865
3656.55816	0.89569
3654.62959	0.89891
3652.70103	0.89269
3650.77246	0.89104
3648.84390	0.91575
3646.91534	0.93297
3644.98677	0.93225
3643.05821	0.93151
3641.12964	0.93441
3639.20108	0.93875
3637.27251	0.94285
3635.34395	0.94663
3633.41538	0.94869
3631.48682	0.94812
3629.55826	0.95769
3627.62969	0.97802
3625.70113	0.98142
3623.77256	0.97546
3621.84400	0.97198
3619.91543	0.98104
3617.98687	0.99648
3616.05830	1.00206
3614.12974	1.00448
3612.20118	1.00761
3610.27261	1.01123
3608.34405	1.02036
3606.41548	1.02846
3604.48692	1.02921
3602.55835	1.03110
3600.62979	1.03771
3598.70123	1.04247
3596.77266	1.04511
3594.84410	1.05112
3592.91553	1.05766
3590.98697	1.05945
3589.05840	1.06371
3587.12984	1.07777
3585.20127	1.08625
3583.27271	1.08797
3581.34415	1.09188
3579.41558	1.09694
3577.48702	1.10239
3575.55845	1.11005
3573.62989	1.11556
3571.70132	1.11518
3569.77276	1.11557
3567.84419	1.12930
3565.91563	1.14850
3563.98707	1.15320
3562.05850	1.15459
3560.12994	1.15869
3558.20137	1.16183
3556.27281	1.16379
3554.34424	1.16767
3552.41568	1.17397
3550.48711	1.17871
3548.55855	1.18236
3546.62999	1.19035
3544.70142	1.20128
3542.77286	1.20740
3540.84429	1.20969
3538.91573	1.21397
3536.98716	1.22128
3535.05860	1.22781
3533.13003	1.23207
3531.20147	1.23709
3529.27291	1.24587
3527.34434	1.25546
3525.41578	1.26056
3523.48721	1.26378
3521.55865	1.26913
3519.63008	1.27596
3517.70152	1.28309
3515.77295	1.28790
3513.84439	1.29015
3511.91583	1.29518
3509.98726	1.30561
3508.05870	1.31512
3506.13013	1.31975
3504.20157	1.32489
3502.27300	1.33143
3500.34444	1.33573
3498.41587	1.34312
3496.48731	1.35535
3494.55875	1.36298
3492.63018	1.36555
3490.70162	1.37215
3488.77305	1.38218
3486.84449	1.38990
3484.91592	1.39253
3482.98736	1.39172
3481.05879	1.39474
3479.13023	1.40207
3477.20167	1.40811
3475.27310	1.41005
3473.34454	1.40828
3471.41597	1.41005
3469.48741	1.41799
3467.55884	1.42433
3465.63028	1.42756
3463.70171	1.43238
3461.77315	1.43766
3459.84459	1.44177
3457.91602	1.44564
3455.98746	1.44734
3454.05889	1.44704
3452.13033	1.45040
3450.20176	1.45727
3448.27320	1.46327
3446.34464	1.46896
3444.41607	1.47318
3442.48751	1.47511
3440.55894	1.47719
3438.63038	1.47709
3436.70181	1.47357
3434.77325	1.47171
3432.84468	1.47302
3430.91612	1.47354
3428.98756	1.47367
3427.05899	1.47529
3425.13043	1.47488
3423.20186	1.46968
3421.27330	1.46422
3419.34473	1.46454
3417.41617	1.46800
3415.48760	1.47103
3413.55904	1.47456
3411.63048	1.47736
3409.70191	1.47848
3407.77335	1.47920
3405.84478	1.47736
3403.91622	1.47146
3401.98765	1.46995
3400.05909	1.47940
3398.13052	1.49078
3396.20196	1.49358
3394.27340	1.49038
3392.34483	1.48802
3390.41627	1.48618
3388.48770	1.48280
3386.55914	1.48275
3384.63057	1.48892
3382.70201	1.49607
3380.77344	1.49874
3378.84488	1.49578
3376.91632	1.49170
3374.98775	1.49213
3373.05919	1.49607
3371.13062	1.49983
3369.20206	1.50295
3367.27349	1.50482
3365.34493	1.50242
3363.41636	1.49668
3361.48780	1.49250
3359.55924	1.49327
3357.63067	1.49911
3355.70211	1.50387
3353.77354	1.50611
3351.84498	1.51126
3349.91641	1.51396
3347.98785	1.51116
3346.05928	1.51153
3344.13072	1.51725
3342.20216	1.52243
3340.27359	1.52281
3338.34503	1.52316
3336.41646	1.52940
3334.48790	1.53547
3332.55933	1.53594
3330.63077	1.53725
3328.70220	1.54285
3326.77364	1.54803
3324.84508	1.55230
3322.91651	1.55653
3320.98795	1.55656
3319.05938	1.55307
3317.13082	1.55173
3315.20225	1.55358
3313.27369	1.55620
3311.34513	1.55897
3309.41656	1.56080
3307.48800	1.56175
3305.55943	1.56496
3303.63087	1.56991
3301.70230	1.57204
3299.77374	1.56782
3297.84517	1.56060
3295.91661	1.55838
3293.98805	1.56435
3292.05948	1.57500
3290.13092	1.58144
3288.20235	1.58046
3286.27379	1.57849
3284.34522	1.57819
3282.41666	1.57772
3280.48809	1.57803
3278.55953	1.57986
3276.63097	1.57792
3274.70240	1.56892
3272.77384	1.56003
3270.84527	1.55715
3268.91671	1.55438
3266.98814	1.54466
3265.05958	1.53445
3263.13101	1.53122
3261.20245	1.52932
3259.27389	1.52315
3257.34532	1.51775
3255.41676	1.51673
3253.48819	1.51437
3251.55963	1.50699
3249.63106	1.49774
3247.70250	1.48854
3245.77393	1.48016
3243.84537	1.47329
3241.91681	1.46674
3239.98824	1.46113
3238.05968	1.45623
3236.13111	1.44738
3234.20255	1.43551
3232.27398	1.42721
3230.34542	1.42391
3228.41685	1.42453
3226.48829	1.42800
3224.55973	1.42857
3222.63116	1.42315
3220.70260	1.41845
3218.77403	1.41879
3216.84547	1.41970
3214.91690	1.41720
3212.98834	1.41188
3211.05977	1.40633
3209.13121	1.40286
3207.20265	1.40028
3205.27408	1.39580
3203.34552	1.38984
3201.41695	1.38330
3199.48839	1.37653
3197.55982	1.37140
3195.63126	1.36684
3193.70269	1.36148
3191.77413	1.35606
3189.84557	1.34899
3187.91700	1.34132
3185.98844	1.33617
3184.05987	1.33244
3182.13131	1.32936
3180.20274	1.32744
3178.27418	1.32574
3176.34562	1.32421
3174.41705	1.32232
3172.48849	1.31757
3170.55992	1.30953
3168.63136	1.30219
3166.70279	1.29801
3164.77423	1.29479
3162.84566	1.29105
3160.91710	1.28668
3158.98854	1.28107
3157.05997	1.27501
3155.13141	1.26988
3153.20284	1.26741
3151.27428	1.26795
3149.34571	1.26787
3147.41715	1.26423
3145.48858	1.25898
3143.56002	1.25466
3141.63146	1.25091
3139.70289	1.24729
3137.77433	1.24417
3135.84576	1.24225
3133.91720	1.24220
3131.98863	1.24226
3130.06007	1.24036
3128.13150	1.23798
3126.20294	1.23718
3124.27438	1.23713
3122.34581	1.23695
3120.41725	1.23768
3118.48868	1.23845
3116.56012	1.23734
3114.63155	1.23574
3112.70299	1.23551
3110.77442	1.23595
3108.84586	1.23597
3106.91730	1.23579
3104.98873	1.23591
3103.06017	1.23550
3101.13160	1.23357
3099.20304	1.23088
3097.27447	1.22955
3095.34591	1.22981
3093.41734	1.22891
3091.48878	1.22619
3089.56022	1.22391
3087.63165	1.22239
3085.70309	1.22082
3083.77452	1.21878
3081.84596	1.21602
3079.91739	1.21368
3077.98883	1.21197
3076.06026	1.20969
3074.13170	1.20723
3072.20314	1.20482
3070.27457	1.20133
3068.34601	1.19715
3066.41744	1.19379
3064.48888	1.19081
3062.56031	1.18715
3060.63175	1.18331
3058.70318	1.17986
3056.77462	1.17629
3054.84606	1.17149
3052.91749	1.16546
3050.98893	1.16080
3049.06036	1.15921
3047.13180	1.15730
3045.20323	1.15198
3043.27467	1.14659
3041.34610	1.14361
3039.41754	1.14050
3037.48898	1.13624
3035.56041	1.13294
3033.63185	1.13147
3031.70328	1.13008
3029.77472	1.12746
3027.84615	1.12444
3025.91759	1.12160
3023.98903	1.11883
3022.06046	1.11570
3020.13190	1.11206
3018.20333	1.10929
3016.27477	1.10801
3014.34620	1.10696
3012.41764	1.10535
3010.48907	1.10352
3008.56051	1.10154
3006.63195	1.09945
3004.70338	1.09819
3002.77482	1.09746
3000.84625	1.09544
2998.91769	1.09254
2996.98912	1.09105
2995.06056	1.09155
2993.13199	1.09302
2991.20343	1.09519
2989.27487	1.09871
2987.34630	1.10383
2985.41774	1.11004
2983.48917	1.11614
2981.56061	1.12114
2979.63204	1.12568
2977.70348	1.13114
2975.77491	1.13763
2973.84635	1.14437
2971.91779	1.15108
2969.98922	1.15742
2968.06066	1.16268
2966.13209	1.16789
2964.20353	1.17410
2962.27496	1.17875
2960.34640	1.17873
2958.41783	1.17428
2956.48927	1.16784
2954.56071	1.16237
2952.63214	1.15865
2950.70358	1.15500
2948.77501	1.15212
2946.84645	1.15168
2944.91788	1.15226
2942.98932	1.15468
2941.06075	1.16244
2939.13219	1.17371
2937.20363	1.18406
2935.27506	1.19341
2933.34650	1.20341
2931.41793	1.21453
2929.48937	1.22590
2927.56080	1.23623
2925.63224	1.24549
2923.70367	1.25250
2921.77511	1.25538
2919.84655	1.25534
2917.91798	1.25193
2915.98942	1.23953
2914.06085	1.21657
2912.13229	1.19097
2910.20372	1.16999
2908.27516	1.15419
2906.34659	1.14190
2904.41803	1.13227
2902.48947	1.12502
2900.56090	1.11944
2898.63234	1.11467
2896.70377	1.11062
2894.77521	1.10692
2892.84664	1.10319
2890.91808	1.09917
2888.98952	1.09355
2887.06095	1.08682
2885.13239	1.08245
2883.20382	1.08182
2881.27526	1.08210
2879.34669	1.08077
2877.41813	1.07868
2875.48956	1.07712
2873.56100	1.07565
2871.63244	1.07337
2869.70387	1.06949
2867.77531	1.06473
2865.84674	1.06140
2863.91818	1.06036
2861.98961	1.06157
2860.06105	1.06552
2858.13248	1.07235
2856.20392	1.08131
2854.27536	1.09125
2852.34679	1.10161
2850.41823	1.10780
2848.48966	1.09943
2846.56110	1.07469
2844.63253	1.04527
2842.70397	1.02172
2840.77540	1.00603
2838.84684	0.99506
2836.91828	0.98628
2834.98971	0.97991
2833.06115	0.97579
2831.13258	0.97246
2829.20402	0.96919
2827.27545	0.96564
2825.34689	0.96149
2823.41832	0.95716
2821.48976	0.95338
2819.56120	0.95091
2817.63263	0.94968
2815.70407	0.94797
2813.77550	0.94480
2811.84694	0.94147
2809.91837	0.93882
2807.98981	0.93633
2806.06124	0.93426
2804.13268	0.93267
2802.20412	0.93049
2800.27555	0.92726
2798.34699	0.92393
2796.41842	0.92167
2794.48986	0.92101
2792.56129	0.92072
2790.63273	0.91839
2788.70416	0.91458
2786.77560	0.91196
2784.84704	0.91034
2782.91847	0.90801
2780.98991	0.90503
2779.06134	0.90229
2777.13278	0.90022
2775.20421	0.89872
2773.27565	0.89728
2771.34708	0.89539
2769.41852	0.89338
2767.48996	0.89205
2765.56139	0.89080
2763.63283	0.88851
2761.70426	0.88625
2759.77570	0.88541
2757.84713	0.88495
2755.91857	0.88412
2753.99001	0.88298
2752.06144	0.88098
2750.13288	0.87873
2748.20431	0.87703
2746.27575	0.87530
2744.34718	0.87366
2742.41862	0.87280
2740.49005	0.87227
2738.56149	0.87147
2736.63293	0.87031
2734.70436	0.86890
2732.77580	0.86722
2730.84723	0.86543
2728.91867	0.86439
2726.99010	0.86390
2725.06154	0.86263
2723.13297	0.86104
2721.20441	0.86022
2719.27585	0.85990
2717.34728	0.85946
2715.41872	0.85836
2713.49015	0.85656
2711.56159	0.85480
2709.63302	0.85300
2707.70446	0.85073
2705.77589	0.84916
2703.84733	0.84906
2701.91877	0.84896
2699.99020	0.84769
2698.06164	0.84580
2696.13307	0.84407
2694.20451	0.84263
2692.27594	0.84140
2690.34738	0.84039
2688.41881	0.83939
2686.49025	0.83836
2684.56169	0.83755
2682.63312	0.83699
2680.70456	0.83640
2678.77599	0.83546
2676.84743	0.83387
2674.91886	0.83177
2672.99030	0.83001
2671.06173	0.82896
2669.13317	0.82769
2667.20461	0.82576
2665.27604	0.82434
2663.34748	0.82418
2661.41891	0.82410
2659.49035	0.82281
2657.56178	0.82060
2655.63322	0.81919
2653.70465	0.81938
2651.77609	0.81972
2649.84753	0.81914
2647.91896	0.81837
2645.99040	0.81790
2644.06183	0.81741
2642.13327	0.81658
2640.20470	0.81572
2638.27614	0.81535
2636.34757	0.81507
2634.41901	0.81420
2632.49045	0.81326
2630.56188	0.81311
2628.63332	0.81341
2626.70475	0.81336
2624.77619	0.81289
2622.84762	0.81244
2620.91906	0.81248
2618.99049	0.81248
2617.06193	0.81153
2615.13337	0.80993
2613.20480	0.80824
2611.27624	0.80671
2609.34767	0.80587
2607.41911	0.80529
2605.49054	0.80396
2603.56198	0.80248
2601.63342	0.80209
2599.70485	0.80203
2597.77629	0.80099
2595.84772	0.79952
2593.91916	0.79840
2591.99059	0.79740
2590.06203	0.79633
2588.13346	0.79509
2586.20490	0.79377
2584.27634	0.79263
2582.34777	0.79130
2580.41921	0.78971
2578.49064	0.78849
2576.56208	0.78765
2574.63351	0.78694
2572.70495	0.78624
2570.77638	0.78515
2568.84782	0.78362
2566.91926	0.78215
2564.99069	0.78082
2563.06213	0.77936
2561.13356	0.77790
2559.20500	0.77669
2557.27643	0.77570
2555.34787	0.77478
2553.41930	0.77380
2551.49074	0.77270
2549.56218	0.77176
2547.63361	0.77112
2545.70505	0.77032
2543.77648	0.76930
2541.84792	0.76851
2539.91935	0.76802
2537.99079	0.76747
2536.06222	0.76687
2534.13366	0.76686
2532.20510	0.76721
2530.27653	0.76693
2528.34797	0.76615
2526.41940	0.76538
2524.49084	0.76470
2522.56227	0.76418
2520.63371	0.76342
2518.70514	0.76227
2516.77658	0.76143
2514.84802	0.76110
2512.91945	0.76062
2510.99089	0.75955
2509.06232	0.75820
2507.13376	0.75687
2505.20519	0.75561
2503.27663	0.75465
2501.34806	0.75396
2499.41950	0.75336
2497.49094	0.75277
2495.56237	0.75182
2493.63381	0.75032
2491.70524	0.74834
2489.77668	0.74622
2487.84811	0.74458
2485.91955	0.74341
2483.99098	0.74233
2482.06242	0.74149
2480.13386	0.74113
2478.20529	0.74086
2476.27673	0.74042
2474.34816	0.73991
2472.41960	0.73920
2470.49103	0.73832
2468.56247	0.73748
2466.63391	0.73662
2464.70534	0.73592
2462.77678	0.73555
2460.84821	0.73505
2458.91965	0.73397
2456.99108	0.73254
2455.06252	0.73111
2453.13395	0.72981
2451.20539	0.72865
2449.27683	0.72748
2447.34826	0.72613
2445.41970	0.72453
2443.49113	0.72263
2441.56257	0.72078
2439.63400	0.71930
2437.70544	0.71772
2435.77687	0.71606
2433.84831	0.71491
2431.91975	0.71387
2429.99118	0.71263
2428.06262	0.71172
2426.13405	0.71120
2424.20549	0.71041
2422.27692	0.70929
2420.34836	0.70850
2418.41979	0.70808
2416.49123	0.70744
2414.56267	0.70676
2412.63410	0.70655
2410.70554	0.70653
2408.77697	0.70641
2406.84841	0.70624
2404.91984	0.70581
2402.99128	0.70482
2401.06271	0.70350
2399.13415	0.70234
2397.20559	0.70129
2395.27702	0.70003
2393.34846	0.69859
2391.41989	0.69705
2389.49133	0.69567
2387.56276	0.69507
2385.63420	0.69540
2383.70563	0.69612
2381.77707	0.69719
2379.84851	0.69928
2377.91994	0.70299
2375.99138	0.70832
2374.06281	0.71472
2372.13425	0.72174
2370.20568	0.72895
2368.27712	0.73688
2366.34855	0.74690
2364.41999	0.75760
2362.49143	0.76439
2360.56286	0.76532
2358.63430	0.76244
2356.70573	0.75536
2354.77717	0.74617
2352.84860	0.73688
2350.92004	0.72713
2348.99147	0.71984
2347.06291	0.71742
2345.13435	0.72125
2343.20578	0.72970
2341.27722	0.73493
2339.34865	0.73424
2337.42009	0.73245
2335.49152	0.72998
2333.56296	0.72554
2331.63440	0.72162
2329.70583	0.71852
2327.77727	0.71426
2325.84870	0.70878
2323.92014	0.70276
2321.99157	0.69715
2320.06301	0.69322
2318.13444	0.69038
2316.20588	0.68705
2314.27732	0.68367
2312.34875	0.68118
2310.42019	0.67929
2308.49162	0.67781
2306.56306	0.67650
2304.63449	0.67483
2302.70593	0.67319
2300.77736	0.67206
2298.84880	0.67136
2296.92024	0.67080
2294.99167	0.66994
2293.06311	0.66880
2291.13454	0.66759
2289.20598	0.66604
2287.27741	0.66410
2285.34885	0.66208
2283.42028	0.66019
2281.49172	0.65854
2279.56316	0.65733
2277.63459	0.65656
2275.70603	0.65571
2273.77746	0.65433
2271.84890	0.65269
2269.92033	0.65109
2267.99177	0.64948
2266.06320	0.64802
2264.13464	0.64673
2262.20608	0.64543
2260.27751	0.64433
2258.34895	0.64372
2256.42038	0.64333
2254.49182	0.64271
2252.56325	0.64219
2250.63469	0.64230
2248.70612	0.64248
2246.77756	0.64211
2244.84900	0.64172
2242.92043	0.64175
2240.99187	0.64191
2239.06330	0.64182
2237.13474	0.64141
2235.20617	0.64086
2233.27761	0.64049
2231.34904	0.64029
2229.42048	0.63999
2227.49192	0.63955
2225.56335	0.63891
2223.63479	0.63810
2221.70622	0.63742
2219.77766	0.63686
2217.84909	0.63590
2215.92053	0.63459
2213.99196	0.63361
2212.06340	0.63305
2210.13484	0.63256
2208.20627	0.63219
2206.27771	0.63208
2204.34914	0.63209
2202.42058	0.63213
2200.49201	0.63201
2198.56345	0.63196
2196.63488	0.63239
2194.70632	0.63290
2192.77776	0.63296
2190.84919	0.63267
2188.92063	0.63227
2186.99206	0.63199
2185.06350	0.63196
2183.13493	0.63206
2181.20637	0.63194
2179.27781	0.63152
2177.34924	0.63095
2175.42068	0.63044
2173.49211	0.63021
2171.56355	0.63008
2169.63498	0.62956
2167.70642	0.62850
2165.77785	0.62725
2163.84929	0.62616
2161.92073	0.62528
2159.99216	0.62433
2158.06360	0.62310
2156.13503	0.62193
2154.20647	0.62124
2152.27790	0.62100
2150.34934	0.62096
2148.42077	0.62076
2146.49221	0.62057
2144.56365	0.62069
2142.63508	0.62084
2140.70652	0.62069
2138.77795	0.62037
2136.84939	0.62011
2134.92082	0.61982
2132.99226	0.61934
2131.06369	0.61873
2129.13513	0.61822
2127.20657	0.61763
2125.27800	0.61680
2123.34944	0.61607
2121.42087	0.61552
2119.49231	0.61491
2117.56374	0.61442
2115.63518	0.61410
2113.70661	0.61371
2111.77805	0.61321
2109.84949	0.61264
2107.92092	0.61210
2105.99236	0.61178
2104.06379	0.61164
2102.13523	0.61118
2100.20666	0.61052
2098.27810	0.61026
2096.34953	0.61003
2094.42097	0.60918
2092.49241	0.60812
2090.56384	0.60733
2088.63528	0.60657
2086.70671	0.60588
2084.77815	0.60547
2082.84958	0.60497
2080.92102	0.60411
2078.99245	0.60316
2077.06389	0.60240
2075.13533	0.60174
2073.20676	0.60086
2071.27820	0.59969
2069.34963	0.59862
2067.42107	0.59788
2065.49250	0.59711
2063.56394	0.59593
2061.63537	0.59445
2059.70681	0.59308
2057.77825	0.59200
2055.84968	0.59130
2053.92112	0.59084
2051.99255	0.59005
2050.06399	0.58883
2048.13542	0.58776
2046.20686	0.58717
2044.27830	0.58658
2042.34973	0.58574
2040.42117	0.58497
2038.49260	0.58430
2036.56404	0.58357
2034.63547	0.58288
2032.70691	0.58221
2030.77834	0.58138
2028.84978	0.58042
2026.92122	0.57938
2024.99265	0.57814
2023.06409	0.57678
2021.13552	0.57550
2019.20696	0.57438
2017.27839	0.57345
2015.34983	0.57241
2013.42126	0.57112
2011.49270	0.57004
2009.56414	0.56931
2007.63557	0.56861
2005.70701	0.56781
2003.77844	0.56711
2001.84988	0.56670
1999.92131	0.56651
1997.99275	0.56638
1996.06418	0.56617
1994.13562	0.56607
1992.20706	0.56619
1990.27849	0.56602
1988.34993	0.56538
1986.42136	0.56451
1984.49280	0.56350
1982.56423	0.56245
1980.63567	0.56128
1978.70710	0.55996
1976.77854	0.55865
1974.84998	0.55751
1972.92141	0.55640
1970.99285	0.55493
1969.06428	0.55344
1967.13572	0.55237
1965.20715	0.55107
1963.27859	0.54912
1961.35002	0.54728
1959.42146	0.54601
1957.49290	0.54471
1955.56433	0.54293
1953.63577	0.54113
1951.70720	0.53981
1949.77864	0.53859
1947.85007	0.53701
1945.92151	0.53546
1943.99294	0.53478
1942.06438	0.53488
1940.13582	0.53445
1938.20725	0.53357
1936.27869	0.53305
1934.35012	0.53284
1932.42156	0.53258
1930.49299	0.53228
1928.56443	0.53212
1926.63586	0.53186
1924.70730	0.53146
1922.77874	0.53116
1920.85017	0.53057
1918.92161	0.53011
1916.99304	0.52975
1915.06448	0.52835
1913.13591	0.52645
1911.20735	0.52513
1909.27878	0.52439
1907.35022	0.52360
1905.42166	0.52249
1903.49309	0.52152
1901.56453	0.52097
1899.63596	0.52068
1897.70740	0.52038
1895.77883	0.52028
1893.85027	0.52008
1891.92171	0.51950
1889.99314	0.51959
1888.06458	0.52013
1886.13601	0.52005
1884.20745	0.51966
1882.27888	0.51915
1880.35032	0.51873
1878.42175	0.51843
1876.49319	0.51779
1874.56463	0.51675
1872.63606	0.51550
1870.70750	0.51482
1868.77893	0.51545
1866.85037	0.51506
1864.92180	0.51276
1862.99324	0.51051
1861.06467	0.50881
1859.13611	0.50727
1857.20755	0.50562
1855.27898	0.50388
1853.35042	0.50227
1851.42185	0.50075
1849.49329	0.49916
1847.56472	0.49746
1845.63616	0.49654
1843.70759	0.49691
1841.77903	0.49620
1839.85047	0.49461
1837.92190	0.49383
1835.99334	0.49353
1834.06477	0.49262
1832.13621	0.49198
1830.20764	0.49322
1828.27908	0.49448
1826.35051	0.49450
1824.42195	0.49508
1822.49339	0.49533
1820.56482	0.49464
1818.63626	0.49419
1816.70769	0.49400
1814.77913	0.49360
1812.85056	0.49350
1810.92200	0.49411
1808.99343	0.49429
1807.06487	0.49355
1805.13631	0.49258
1803.20774	0.49191
1801.27918	0.49242
1799.35061	0.49340
1797.42205	0.49313
1795.49348	0.49213
1793.56492	0.49235
1791.63635	0.49427
1789.70779	0.49441
1787.77923	0.49323
1785.85066	0.49300
1783.92210	0.49361
1781.99353	0.49442
1780.06497	0.49557
1778.13640	0.49617
1776.20784	0.49598
1774.27927	0.49709
1772.35071	0.50179
1770.42215	0.50573
1768.49358	0.50630
1766.56502	0.50606
1764.63645	0.50598
1762.70789	0.50786
1760.77932	0.51152
1758.85076	0.51416
1756.92220	0.51740
1754.99363	0.52069
1753.06507	0.52326
1751.13650	0.52903
1749.20794	0.53898
1747.27937	0.54706
1745.35081	0.55229
1743.42224	0.55694
1741.49368	0.56218
1739.56512	0.56748
1737.63655	0.56980
1735.70799	0.57108
1733.77942	0.57788
1731.85086	0.58438
1729.92229	0.58673
1727.99373	0.58911
1726.06516	0.59265
1724.13660	0.59884
1722.20804	0.60546
1720.27947	0.61068
1718.35091	0.62129
1716.42234	0.64287
1714.49378	0.65770
1712.56521	0.66594
1710.63665	0.67536
1708.70808	0.68778
1706.77952	0.70802
1704.85096	0.73578
1702.92239	0.75963
1700.99383	0.79415
1699.06526	0.85383
1697.13670	0.91204
1695.20813	0.96865
1693.27957	1.00893
1691.35100	1.04116
1689.42244	1.08363
1687.49388	1.12393
1685.56531	1.16439
1683.63675	1.23834
1681.70818	1.29766
1679.77962	1.32973
1677.85105	1.35855
1675.92249	1.39473
1673.99392	1.43600
1672.06536	1.46842
1670.13680	1.50541
1668.20823	1.54625
1666.27967	1.56668
1664.35110	1.58391
1662.42254	1.60921
1660.49397	1.62772
1658.56541	1.63587
1656.63684	1.63934
1654.70828	1.64323
1652.77972	1.64961
1650.85115	1.64805
1648.92259	1.64148
1646.99402	1.63846
1645.06546	1.64193
1643.13689	1.63971
1641.20833	1.63504
1639.27976	1.63022
1637.35120	1.62510
1635.42264	1.61579
1633.49407	1.60455
1631.56551	1.59638
1629.63694	1.58688
1627.70838	1.57344
1625.77981	1.55740
1623.85125	1.53785
1621.92269	1.51252
1619.99412	1.48827
1618.06556	1.46110
1616.13699	1.42320
1614.20843	1.39008
1612.27986	1.36129
1610.35130	1.33077
1608.42273	1.30135
1606.49417	1.27721
1604.56561	1.25858
1602.63704	1.24416
1600.70848	1.23375
1598.77991	1.22608
1596.85135	1.22048
1594.92278	1.21688
1592.99422	1.21537
1591.06565	1.21658
1589.13709	1.21991
1587.20853	1.22455
1585.27996	1.23138
1583.35140	1.24244
1581.42283	1.25643
1579.49427	1.26939
1577.56570	1.28528
1575.63714	1.30999
1573.70857	1.32587
1571.78001	1.33497
1569.85145	1.35359
1567.92288	1.37733
1565.99432	1.39350
1564.06575	1.40678
1562.13719	1.41560
1560.20862	1.42712
1558.28006	1.46283
1556.35149	1.48075
1554.42293	1.48748
1552.49437	1.49338
1550.56580	1.49468
1548.63724	1.49267
1546.70867	1.48931
1544.78011	1.48427
1542.85154	1.47976
1540.92298	1.47787
1538.99441	1.47050
1537.06585	1.46290
1535.13729	1.45560
1533.20872	1.44601
1531.28016	1.43490
1529.35159	1.42509
1527.42303	1.41684
1525.49446	1.41045
1523.56590	1.40640
1521.63733	1.40087
1519.70877	1.39242
1517.78021	1.38181
1515.85164	1.36619
1513.92308	1.34642
1511.99451	1.32426
1510.06595	1.30213
1508.13738	1.27326
1506.20882	1.22920
1504.28025	1.20420
1502.35169	1.18613
1500.42313	1.16504
1498.49456	1.14031
1496.56600	1.11497
1494.63743	1.09547
1492.70887	1.08089
1490.78030	1.06521
1488.85174	1.04669
1486.92317	1.03222
1484.99461	1.02198
1483.06605	1.01454
1481.13748	1.01016
1479.20892	1.00917
1477.28035	1.01229
1475.35179	1.02167
1473.42322	1.04159
1471.49466	1.06298
1469.56610	1.07198
1467.63753	1.07670
1465.70897	1.08460
1463.78040	1.09378
1461.85184	1.09715
1459.92327	1.09788
1457.99471	1.10524
1456.06614	1.11681
1454.13758	1.11690
1452.20902	1.11314
1450.28045	1.10994
1448.35189	1.10754
1446.42332	1.10358
1444.49476	1.09750
1442.56619	1.09078
1440.63763	1.08356
1438.70906	1.07490
1436.78050	1.06313
1434.85194	1.04997
1432.92337	1.03859
1430.99481	1.02810
1429.06624	1.01876
1427.13768	1.01263
1425.20911	1.01041
1423.28055	1.01068
1421.35198	1.01167
1419.42342	1.01641
1417.49486	1.02395
1415.56629	1.02693
1413.63773	1.02817
1411.70916	1.03063
1409.78060	1.03407
1407.85203	1.03765
1405.92347	1.04240
1403.99490	1.04787
1402.06634	1.05127
1400.13778	1.05394
1398.20921	1.05711
1396.28065	1.05993
1394.35208	1.06260
1392.42352	1.06397
1390.49495	1.06446
1388.56639	1.06773
1386.63782	1.07612
1384.70926	1.08520
1382.78070	1.09208
1380.85213	1.09637
1378.92357	1.09642
1376.99500	1.09210
1375.06644	1.08357
1373.13787	1.07027
1371.20931	1.05469
1369.28074	1.03743
1367.35218	1.01865
1365.42362	1.00130
1363.49505	0.98667
1361.56649	0.97570
1359.63792	0.96818
1357.70936	0.96270
1355.78079	0.95922
1353.85223	0.95756
1351.92366	0.95681
1349.99510	0.95685
1348.06654	0.95750
1346.13797	0.95799
1344.20941	0.95839
1342.28084	0.95912
1340.35228	0.96071
1338.42371	0.96308
1336.49515	0.96605
1334.56659	0.97052
1332.63802	0.97637
1330.70946	0.98216
1328.78089	0.98672
1326.85233	0.98992
1324.92376	0.99185
1322.99520	0.99292
1321.06663	0.99440
1319.13807	0.99695
1317.20951	0.99937
1315.28094	1.00081
1313.35238	1.00233
1311.42381	1.00380
1309.49525	1.00405
1307.56668	1.00369
1305.63812	1.00392
1303.70955	1.00491
1301.78099	1.00604
1299.85243	1.00630
1297.92386	1.00503
1295.99530	1.00283
1294.06673	1.00121
1292.13817	1.00115
1290.20960	1.00255
1288.28104	1.00453
1286.35247	1.00624
1284.42391	1.00719
1282.49535	1.00762
1280.56678	1.00831
1278.63822	1.00960
1276.70965	1.01124
1274.78109	1.01342
1272.85252	1.01687
1270.92396	1.02156
1268.99539	1.02673
1267.06683	1.03230
1265.13827	1.03789
1263.20970	1.04204
1261.28114	1.04457
1259.35257	1.04723
1257.42401	1.05092
1255.49544	1.05533
1253.56688	1.05967
1251.63831	1.06299
1249.70975	1.06571
1247.78119	1.06889
1245.85262	1.07256
1243.92406	1.07582
1241.99549	1.07755
1240.06693	1.07739
1238.13836	1.07610
1236.20980	1.07383
1234.28123	1.06959
1232.35267	1.06286
1230.42411	1.05417
1228.49554	1.04437
1226.56698	1.03388
1224.63841	1.02283
1222.70985	1.01152
1220.78128	1.00001
1218.85272	0.98855
1216.92415	0.97795
1214.99559	0.96921
1213.06703	0.96328
1211.13846	0.95999
1209.20990	0.95815
1207.28133	0.95619
1205.35277	0.95246
1203.42420	0.94644
1201.49564	0.93909
1199.56708	0.93162
1197.63851	0.92460
1195.70995	0.91837
1193.78138	0.91360
1191.85282	0.91065
1189.92425	0.90945
1187.99569	0.90997
1186.06712	0.91197
1184.13856	0.91527
1182.21000	0.91992
1180.28143	0.92605
1178.35287	0.93341
1176.42430	0.94147
1174.49574	0.94985
1172.56717	0.95779
1170.63861	0.96568
1168.71004	0.97545
1166.78148	0.98768
1164.85292	1.00108
1162.92435	1.01370
1160.99579	1.02296
1159.06722	1.02628
1157.13866	1.02230
1155.21009	1.01139
1153.28153	0.99559
1151.35296	0.97775
1149.42440	0.95975
1147.49584	0.94304
1145.56727	0.92965
1143.63871	0.92117
1141.71014	0.91800
1139.78158	0.91935
1137.85301	0.92413
1135.92445	0.93177
1133.99588	0.94223
1132.06732	0.95581
1130.13876	0.97193
1128.21019	0.98921
1126.28163	1.00656
1124.35306	1.02198
1122.42450	1.03386
1120.49593	1.04277
1118.56737	1.04911
1116.63880	1.05191
1114.71024	1.04992
1112.78168	1.04324
1110.85311	1.03333
1108.92455	1.02222
1106.99598	1.01223
1105.06742	1.00436
1103.13885	0.99802
1101.21029	0.99356
1099.28172	0.99272
1097.35316	0.99608
1095.42460	1.00320
1093.49603	1.01449
1091.56747	1.02995
1089.63890	1.04890
1087.71034	1.07107
1085.78177	1.09567
1083.85321	1.12093
1081.92464	1.14370
1079.99608	1.16037
1078.06752	1.17026
1076.13895	1.17466
1074.21039	1.17318
1072.28182	1.16523
1070.35326	1.15297
1068.42469	1.13977
1066.49613	1.12730
1064.56756	1.11478
1062.63900	1.10073
1060.71044	1.08548
1058.78187	1.06995
1056.85331	1.05380
1054.92474	1.03756
1052.99618	1.02281
1051.06761	1.01000
1049.13905	0.99879
1047.21049	0.99080
1045.28192	0.98874
1043.35336	0.99184
1041.42479	0.99665
1039.49623	1.00129
1037.56766	1.00610
1035.63910	1.01128
1033.71053	1.01545
1031.78197	1.01766
1029.85341	1.01876
1027.92484	1.01899
1025.99628	1.01729
1024.06771	1.01351
1022.13915	1.00925
1020.21058	1.00653
1018.28202	1.00551
1016.35345	1.00318
1014.42489	0.99667
1012.49633	0.98556
1010.56776	0.96993
1008.63920	0.95067
1006.71063	0.93005
1004.78207	0.90937
1002.85350	0.88916
1000.92494	0.87035
998.99637	0.85350
997.06781	0.83889
995.13925	0.82651
993.21068	0.81552
991.28212	0.80498
989.35355	0.79476
987.42499	0.78597
985.49642	0.78002
983.56786	0.77728
981.63929	0.77748
979.71073	0.78020
977.78217	0.78441
975.85360	0.78869
973.92504	0.79189
971.99647	0.79379
970.06791	0.79483
968.13934	0.79513
966.21078	0.79485
964.28221	0.79553
962.35365	0.79897
960.42509	0.80591
958.49652	0.81551
956.56796	0.82423
954.63939	0.82744
952.71083	0.82315
950.78226	0.81270
948.85370	0.79883
946.92513	0.78411
944.99657	0.77079
943.06801	0.75981
941.13944	0.75050
939.21088	0.74236
937.28231	0.73570
935.35375	0.73068
933.42518	0.72728
931.49662	0.72558
929.56805	0.72576
927.63949	0.72784
925.71093	0.73135
923.78236	0.73596
921.85380	0.74175
919.92523	0.74826
917.99667	0.75508
916.06810	0.76247
914.13954	0.77015
912.21098	0.77758
910.28241	0.78502
908.35385	0.79275
906.42528	0.80046
904.49672	0.80773
902.56815	0.81359
900.63959	0.81694
898.71102	0.81756
896.78246	0.81518
894.85390	0.80949
892.92533	0.80118
890.99677	0.79185
889.06820	0.78276
887.13964	0.77411
885.21107	0.76572
883.28251	0.75805
881.35394	0.75212
879.42538	0.74832
877.49682	0.74628
875.56825	0.74583
873.63969	0.74680
871.71112	0.74929
869.78256	0.75361
867.85399	0.75934
865.92543	0.76625
863.99686	0.77505
862.06830	0.78605
860.13974	0.79818
858.21117	0.81015
856.28261	0.82183
854.35404	0.83322
852.42548	0.84333
850.49691	0.85094
848.56835	0.85504
846.63978	0.85535
844.71122	0.85344
842.78266	0.85070
840.85409	0.84674
838.92553	0.84132
836.99696	0.83485
835.06840	0.82791
833.13983	0.82141
831.21127	0.81577
829.28270	0.81056
827.35414	0.80588
825.42558	0.80287
823.49701	0.80200
821.56845	0.80299
819.63988	0.80579
817.71132	0.80978
815.78275	0.81430
813.85419	0.82034
811.92562	0.82869
809.99706	0.83807
808.06850	0.84690
806.13993	0.85526
804.21137	0.86429
802.28280	0.87410
800.35424	0.88332
798.42567	0.89068
796.49711	0.89609
794.56854	0.90004
792.63998	0.90226
790.71142	0.90181
788.78285	0.89908
786.85429	0.89495
784.92572	0.88927
782.99716	0.88271
781.06859	0.87698
779.14003	0.87238
777.21147	0.86772
775.28290	0.86312
773.35434	0.86026
771.42577	0.85972
769.49721	0.86105
767.56864	0.86400
765.64008	0.86821
763.71151	0.87388
761.78295	0.88135
759.85439	0.88993
757.92582	0.89921
755.99726	0.90964
754.06869	0.92064
752.14013	0.93121
750.21156	0.94184
748.28300	0.95212
746.35443	0.95974
744.42587	0.96384
742.49731	0.96574
740.56874	0.96607
738.64018	0.96375
736.71161	0.95844
734.78305	0.95229
732.85448	0.94751
730.92592	0.94315
728.99735	0.93705
727.06879	0.92949
725.14023	0.92246
723.21166	0.91824
721.28310	0.91740
719.35453	0.91616
717.42597	0.91247
715.49740	0.90976
713.56884	0.91050
711.64027	0.91457
709.71171	0.92126
707.78315	0.92948
705.85458	0.93841
703.92602	0.94820
701.99745	0.95876
700.06889	0.96914
698.14032	0.97935
696.21176	0.98998
694.28319	1.00012
692.35463	1.00805
690.42607	1.01350
688.49750	1.01770
686.56894	1.02040
684.64037	1.01988
682.71181	1.01601
680.78324	1.01135
678.85468	1.00783
676.92611	1.00363
674.99755	0.99749
673.06899	0.99118
671.14042	0.98606
669.21186	0.98007
667.28329	0.97134
665.35473	0.96544
663.42616	0.96286
661.49760	0.96284
659.56903	0.96390
657.64047	0.96458
655.71191	0.96676
653.78334	0.97194
651.85478	0.97794
649.92621	0.98255
647.99765	0.98725
646.06908	0.99334
644.14052	0.99969
642.21195	1.00657
640.28339	1.01421
638.35483	1.02039
636.42626	1.02385
634.49770	1.02483
632.56913	1.02307
630.64057	1.01857
628.71200	1.01097
626.78344	1.00049
624.85488	0.99006
622.92631	0.98161
620.99775	0.97465
619.06918	0.96918
617.14062	0.96472
615.21205	0.95946
613.28349	0.95271
611.35492	0.94601
609.42636	0.94127
607.49780	0.94046
605.56923	0.94329
603.64067	0.94680
601.71210	0.95096
599.78354	0.95732
