3997.91406	1.10554
3995.98550	1.10229
3994.05693	1.09843
3992.12837	1.09912
3990.19980	1.10090
3988.27124	1.09983
3986.34268	1.09781
3984.41411	1.09875
3982.48555	1.10305
3980.55698	1.10497
3978.62842	1.10070
3976.69985	1.09582
3974.77129	1.09728
3972.84272	1.10215
3970.91416	1.10389
3968.98560	1.10359
3967.05703	1.10361
3965.12847	1.10170
3963.19990	1.09783
3961.27134	1.09590
3959.34277	1.09656
3957.41421	1.09773
3955.48564	1.09928
3953.55708	1.10003
3951.62852	1.09802
3949.69995	1.09522
3947.77139	1.09341
3945.84282	1.09095
3943.91426	1.08816
3941.98569	1.08695
3940.05713	1.08813
3938.12856	1.09044
3936.20000	1.09078
3934.27144	1.08912
3932.34287	1.08795
3930.41431	1.08585
3928.48574	1.08318
3926.55718	1.08112
3924.62861	1.07877
3922.70005	1.08029
3920.77148	1.08479
3918.84292	1.08441
3916.91436	1.08041
3914.98579	1.07745
3913.05723	1.07410
3911.12866	1.07122
3909.20010	1.06967
3907.27153	1.06916
3905.34297	1.07094
3903.41440	1.07262
3901.48584	1.07115
3899.55728	1.07251
3897.62871	1.07608
3895.70015	1.07556
3893.77158	1.07145
3891.84302	1.06867
3889.91445	1.06678
3887.98589	1.06207
3886.05733	1.05829
3884.12876	1.05840
3882.20020	1.05859
3880.27163	1.06021
3878.34307	1.06244
3876.41450	1.06161
3874.48594	1.05767
3872.55737	1.05203
3870.62881	1.04935
3868.70025	1.05147
3866.77168	1.05305
3864.84312	1.05541
3862.91455	1.06049
3860.98599	1.06063
3859.05742	1.05406
3857.12886	1.04484
3855.20029	1.03674
3853.27173	1.04086
3851.34317	1.05207
3849.41460	1.05369
3847.48604	1.04978
3845.55747	1.04489
3843.62891	1.04099
3841.70034	1.03963
3839.77178	1.04355
3837.84321	1.04749
3835.91465	1.04416
3833.98609	1.03985
3832.05752	1.03809
3830.12896	1.03789
3828.20039	1.03907
3826.27183	1.04045
3824.34326	1.03744
3822.41470	1.03093
3820.48613	1.03135
3818.55757	1.03722
3816.62901	1.04120
3814.70044	1.04090
3812.77188	1.03611
3810.84331	1.03115
3808.91475	1.02849
3806.98618	1.02725
3805.05762	1.02410
3803.12905	1.02195
3801.20049	1.02778
3799.27193	1.03281
3797.34336	1.03105
3795.41480	1.02748
3793.48623	1.02478
3791.55767	1.02326
3789.62910	1.02230
3787.70054	1.02202
3785.77197	1.02418
3783.84341	1.02670
3781.91485	1.02566
3779.98628	1.02339
3778.05772	1.02272
3776.12915	1.02141
3774.20059	1.01889
3772.27202	1.01674
3770.34346	1.01602
3768.41489	1.01624
3766.48633	1.01635
3764.55777	1.01608
3762.62920	1.01499
3760.70064	1.01392
3758.77207	1.01364
3756.84351	1.01272
3754.91494	1.01079
3752.98638	1.00907
3751.05781	1.00984
3749.12925	1.01037
3747.20069	1.00910
3745.27212	1.01074
3743.34356	1.01421
3741.41499	1.01454
3739.48643	1.01296
3737.55786	1.01036
3735.62930	1.00664
3733.70074	1.00701
3731.77217	1.01195
3729.84361	1.01399
3727.91504	1.01110
3725.98648	1.00491
3724.05791	0.99917
3722.12935	0.99811
3720.20078	1.00143
3718.27222	1.00339
3716.34366	1.00144
3714.41509	0.99902
3712.48653	1.00170
3710.55796	1.00981
3708.62940	1.01246
3706.70083	1.00895
3704.77227	1.00403
3702.84370	1.00415
3700.91514	1.00991
3698.98658	1.01282
3697.05801	1.01261
3695.12945	1.01176
3693.20088	1.01019
3691.27232	1.00963
3689.34375	1.01350
3687.41519	1.01770
3685.48662	1.01928
3683.55806	1.02051
3681.62950	1.02278
3679.70093	1.02608
3677.77237	1.02921
3675.84380	1.03343
3673.91524	1.03662
3671.98667	1.03830
3670.05811	1.04577
3668.12954	1.05245
3666.20098	1.05403
3664.27242	1.05757
3662.34385	1.06421
3660.41529	1.07035
3658.48672	1.07457
3656.55816	1.07876
3654.62959	1.08027
3652.70103	1.07871
3650.77246	1.08410
3648.84390	1.10670
3646.91534	1.11913
3644.98677	1.12022
3643.05821	1.12271
3641.12964	1.12781
3639.20108	1.13158
3637.27251	1.13339
3635.34395	1.13842
3633.41538	1.14818
3631.48682	1.15801
3629.55826	1.17079
3627.62969	1.18167
3625.70113	1.18228
3623.77256	1.18262
3621.84400	1.18642
3619.91543	1.19485
3617.98687	1.20582
3616.05830	1.21585
3614.12974	1.22747
3612.20118	1.23821
3610.27261	1.24694
3608.34405	1.25743
3606.41548	1.26450
3604.48692	1.26654
3602.55835	1.27054
3600.62979	1.27758
3598.70123	1.28331
3596.77266	1.28925
3594.84410	1.29934
3592.91553	1.31042
3590.98697	1.31751
3589.05840	1.32478
3587.12984	1.33687
3585.20127	1.34385
3583.27271	1.34246
3581.34415	1.34104
3579.41558	1.34707
3577.48702	1.35860
3575.55845	1.36783
3573.62989	1.37239
3571.70132	1.37672
3569.77276	1.38493
3567.84419	1.39773
3565.91563	1.41096
3563.98707	1.42020
3562.05850	1.42648
3560.12994	1.43040
3558.20137	1.43376
3556.27281	1.43877
3554.34424	1.44689
3552.41568	1.45874
3550.48711	1.46902
3548.55855	1.47561
3546.62999	1.48666
3544.70142	1.50195
3542.77286	1.50660
3540.84429	1.50181
3538.91573	1.50156
3536.98716	1.51079
3535.05860	1.52085
3533.13003	1.52626
3531.20147	1.53067
3529.27291	1.53586
3527.34434	1.54343
3525.41578	1.55260
3523.48721	1.55666
3521.55865	1.55529
3519.63008	1.55713
3517.70152	1.56497
3515.77295	1.57196
3513.84439	1.57677
3511.91583	1.58499
3509.98726	1.59676
3508.05870	1.60807
3506.13013	1.61458
3504.20157	1.61604
3502.27300	1.61846
3500.34444	1.62481
3498.41587	1.62996
3496.48731	1.63100
3494.55875	1.63443
3492.63018	1.64618
3490.70162	1.66263
3488.77305	1.67645
3486.84449	1.68243
3484.91592	1.68314
3482.98736	1.68686
3481.05879	1.69384
3479.13023	1.69772
3477.20167	1.69852
3475.27310	1.70102
3473.34454	1.71035
3471.41597	1.72174
3469.48741	1.72549
3467.55884	1.72243
3465.63028	1.71973
3463.70171	1.72336
3461.77315	1.73029
3459.84459	1.73354
3457.91602	1.73454
3455.98746	1.73409
3454.05889	1.73187
3452.13033	1.73239
3450.20176	1.73586
3448.27320	1.73626
3446.34464	1.73084
3444.41607	1.72299
3442.48751	1.72068
3440.55894	1.73184
3438.63038	1.74852
3436.70181	1.75190
3434.77325	1.74376
3432.84468	1.74273
3430.91612	1.75110
3428.98756	1.75899
3427.05899	1.76085
3425.13043	1.75769
3423.20186	1.75720
3421.27330	1.75717
3419.34473	1.75107
3417.41617	1.74842
3415.48760	1.75404
3413.55904	1.76060
3411.63048	1.76295
3409.70191	1.76253
3407.77335	1.76312
3405.84478	1.76619
3403.91622	1.76957
3401.98765	1.76888
3400.05909	1.76544
3398.13052	1.76384
3396.20196	1.76335
3394.27340	1.76305
3392.34483	1.76289
3390.41627	1.76090
3388.48770	1.75745
3386.55914	1.75745
3384.63057	1.76378
3382.70201	1.77557
3380.77344	1.78980
3378.84488	1.79216
3376.91632	1.77744
3374.98775	1.76443
3373.05919	1.76406
3371.13062	1.77524
3369.20206	1.79023
3367.27349	1.78798
3365.34493	1.76581
3363.41636	1.75202
3361.48780	1.75623
3359.55924	1.76257
3357.63067	1.76569
3355.70211	1.76999
3353.77354	1.77348
3351.84498	1.77266
3349.91641	1.76774
3347.98785	1.76442
3346.05928	1.76514
3344.13072	1.76908
3342.20216	1.77823
3340.27359	1.78765
3338.34503	1.78923
3336.41646	1.78883
3334.48790	1.79648
3332.55933	1.80755
3330.63077	1.81443
3328.70220	1.81674
3326.77364	1.81365
3324.84508	1.81023
3322.91651	1.81214
3320.98795	1.81534
3319.05938	1.81808
3317.13082	1.82031
3315.20225	1.81748
3313.27369	1.81183
3311.34513	1.81259
3309.41656	1.81956
3307.48800	1.82276
3305.55943	1.81996
3303.63087	1.81541
3301.70230	1.80704
3299.77374	1.79926
3297.84517	1.80499
3295.91661	1.81867
3293.98805	1.82631
3292.05948	1.83552
3290.13092	1.85141
3288.20235	1.85774
3286.27379	1.84823
3284.34522	1.83722
3282.41666	1.82945
3280.48809	1.81879
3278.55953	1.81200
3276.63097	1.81517
3274.70240	1.81655
3272.77384	1.80795
3270.84527	1.79783
3268.91671	1.79129
3266.98814	1.78249
3265.05958	1.76911
3263.13101	1.75878
3261.20245	1.75631
3259.27389	1.75485
3257.34532	1.75226
3255.41676	1.75416
3253.48819	1.75507
3251.55963	1.74914
3249.63106	1.73958
3247.70250	1.72984
3245.77393	1.72377
3243.84537	1.71949
3241.91681	1.71275
3239.98824	1.70719
3238.05968	1.70665
3236.13111	1.70758
3234.20255	1.70388
3232.27398	1.69616
3230.34542	1.68978
3228.41685	1.68542
3226.48829	1.68028
3224.55973	1.67445
3222.63116	1.66796
3220.70260	1.66054
3218.77403	1.65435
3216.84547	1.64981
3214.91690	1.64839
3212.98834	1.65169
3211.05977	1.65462
3209.13121	1.65289
3207.20265	1.64854
3205.27408	1.64396
3203.34552	1.63671
3201.41695	1.62555
3199.48839	1.61787
3197.55982	1.61679
3195.63126	1.61488
3193.70269	1.60885
3191.77413	1.60031
3189.84557	1.59109
3187.91700	1.58506
3185.98844	1.58339
3184.05987	1.58354
3182.13131	1.58133
3180.20274	1.57452
3178.27418	1.56790
3176.34562	1.56462
3174.41705	1.56088
3172.48849	1.55434
3170.55992	1.54666
3168.63136	1.54206
3166.70279	1.54116
3164.77423	1.53840
3162.84566	1.53383
3160.91710	1.53093
3158.98854	1.52724
3157.05997	1.52233
3155.13141	1.51807
3153.20284	1.51256
3151.27428	1.50509
3149.34571	1.49940
3147.41715	1.49851
3145.48858	1.50029
3143.56002	1.49939
3141.63146	1.49450
3139.70289	1.49211
3137.77433	1.49457
3135.84576	1.49578
3133.91720	1.49418
3131.98863	1.49033
3130.06007	1.48361
3128.13150	1.47829
3126.20294	1.47716
3124.27438	1.47800
3122.34581	1.47816
3120.41725	1.47687
3118.48868	1.47540
3116.56012	1.47400
3114.63155	1.47157
3112.70299	1.46876
3110.77442	1.46798
3108.84586	1.47032
3106.91730	1.47288
3104.98873	1.47162
3103.06017	1.46729
3101.13160	1.46398
3099.20304	1.46419
3097.27447	1.46504
3095.34591	1.46226
3093.41734	1.45889
3091.48878	1.45903
3089.56022	1.46036
3087.63165	1.46063
3085.70309	1.46089
3083.77452	1.46029
3081.84596	1.45679
3079.91739	1.45167
3077.98883	1.44684
3076.06026	1.44384
3074.13170	1.44224
3072.20314	1.43785
3070.27457	1.43042
3068.34601	1.42479
3066.41744	1.42329
3064.48888	1.42227
3062.56031	1.41790
3060.63175	1.41301
3058.70318	1.40951
3056.77462	1.40358
3054.84606	1.39690
3052.91749	1.39607
3050.98893	1.39883
3049.06036	1.39835
3047.13180	1.39289
3045.20323	1.38361
3043.27467	1.37383
3041.34610	1.36739
3039.41754	1.36376
3037.48898	1.36091
3035.56041	1.35943
3033.63185	1.35885
3031.70328	1.35629
3029.77472	1.35087
3027.84615	1.34444
3025.91759	1.33958
3023.98903	1.33720
3022.06046	1.33625
3020.13190	1.33561
3018.20333	1.33525
3016.27477	1.33392
3014.34620	1.32798
3012.41764	1.31917
3010.48907	1.31407
3008.56051	1.31315
3006.63195	1.31299
3004.70338	1.31260
3002.77482	1.31184
3000.84625	1.31011
2998.91769	1.30736
2996.98912	1.30480
2995.06056	1.30444
2993.13199	1.30662
2991.20343	1.31061
2989.27487	1.31658
2987.34630	1.32362
2985.41774	1.33139
2983.48917	1.34028
2981.56061	1.34650
2979.63204	1.34758
2977.70348	1.34847
2975.77491	1.35449
2973.84635	1.36412
2971.91779	1.37289
2969.98922	1.38039
2968.06066	1.38762
2966.13209	1.39360
2964.20353	1.39805
2962.27496	1.40027
2960.34640	1.39832
2958.41783	1.39281
2956.48927	1.38594
2954.56071	1.38014
2952.63214	1.37663
2950.70358	1.37335
2948.77501	1.37048
2946.84645	1.37068
2944.91788	1.37407
2942.98932	1.38064
2941.06075	1.38973
2939.13219	1.39980
2937.20363	1.41071
2935.27506	1.42135
2933.34650	1.43132
2931.41793	1.44243
2929.48937	1.45273
2927.56080	1.45842
2925.63224	1.46154
2923.70367	1.46409
2921.77511	1.46313
2919.84655	1.46014
2917.91798	1.45573
2915.98942	1.44244
2914.06085	1.41898
2912.13229	1.39256
2910.20372	1.36997
2908.27516	1.35411
2906.34659	1.34182
2904.41803	1.33090
2902.48947	1.32338
2900.56090	1.31775
2898.63234	1.31084
2896.70377	1.30456
2894.77521	1.30128
2892.84664	1.29845
2890.91808	1.29426
2888.98952	1.29101
2887.06095	1.28937
2885.13239	1.28673
2883.20382	1.28239
2881.27526	1.27929
2879.34669	1.27930
2877.41813	1.27987
2875.48956	1.27794
2873.56100	1.27450
2871.63244	1.27059
2869.70387	1.26426
2867.77531	1.25618
2865.84674	1.25121
2863.91818	1.25143
2861.98961	1.25370
2860.06105	1.25611
2858.13248	1.26072
2856.20392	1.26854
2854.27536	1.27822
2852.34679	1.28796
2850.41823	1.29267
2848.48966	1.28221
2846.56110	1.25422
2844.63253	1.22208
2842.70397	1.19759
2840.77540	1.18125
2838.84684	1.16999
2836.91828	1.16118
2834.98971	1.15270
2833.06115	1.14432
2831.13258	1.13728
2829.20402	1.13268
2827.27545	1.13003
2825.34689	1.12723
2823.41832	1.12269
2821.48976	1.11736
2819.56120	1.11392
2817.63263	1.11261
2815.70407	1.11025
2813.77550	1.10648
2811.84694	1.10362
2809.91837	1.10129
2807.98981	1.09819
2806.06124	1.09475
2804.13268	1.09173
2802.20412	1.08891
2800.27555	1.08551
2798.34699	1.08152
2796.41842	1.07778
2794.48986	1.07474
2792.56129	1.07202
2790.63273	1.06931
2788.70416	1.06698
2786.77560	1.06537
2784.84704	1.06400
2782.91847	1.06190
2780.98991	1.05888
2779.06134	1.05554
2777.13278	1.05199
2775.20421	1.04875
2773.27565	1.04660
2771.34708	1.04457
2769.41852	1.04129
2767.48996	1.03747
2765.56139	1.03428
2763.63283	1.03195
2761.70426	1.03070
2759.77570	1.02961
2757.84713	1.02697
2755.91857	1.02360
2753.99001	1.02156
2752.06144	1.02069
2750.13288	1.01955
2748.20431	1.01789
2746.27575	1.01646
2744.34718	1.01518
2742.41862	1.01341
2740.49005	1.01092
2738.56149	1.00828
2736.63293	1.00644
2734.70436	1.00504
2732.77580	1.00354
2730.84723	1.00233
2728.91867	1.00141
2726.99010	1.00032
2725.06154	0.99886
2723.13297	0.99717
2721.20441	0.99519
2719.27585	0.99254
2717.34728	0.98975
2715.41872	0.98760
2713.49015	0.98616
2711.56159	0.98510
2709.63302	0.98393
2707.70446	0.98224
2705.77589	0.97994
2703.84733	0.97723
2701.91877	0.97478
2699.99020	0.97328
2698.06164	0.97252
2696.13307	0.97139
2694.20451	0.96976
2692.27594	0.96882
2690.34738	0.96813
2688.41881	0.96617
2686.49025	0.96336
2684.56169	0.96132
2682.63312	0.96071
2680.70456	0.96035
2678.77599	0.95901
2676.84743	0.95692
2674.91886	0.95452
2672.99030	0.95241
2671.06173	0.95124
2669.13317	0.95005
2667.20461	0.94753
2665.27604	0.94473
2663.34748	0.94328
2661.41891	0.94246
2659.49035	0.94127
2657.56178	0.93998
2655.63322	0.93836
2653.70465	0.93625
2651.77609	0.93460
2649.84753	0.93355
2647.91896	0.93220
2645.99040	0.93113
2644.06183	0.93098
2642.13327	0.93086
2640.20470	0.93025
2638.27614	0.92934
2636.34757	0.92828
2634.41901	0.92709
2632.49045	0.92584
2630.56188	0.92500
2628.63332	0.92474
2626.70475	0.92471
2624.77619	0.92466
2622.84762	0.92401
2620.91906	0.92224
2618.99049	0.92049
2617.06193	0.91963
2615.13337	0.91867
2613.20480	0.91740
2611.27624	0.91634
2609.34767	0.91471
2607.41911	0.91235
2605.49054	0.91005
2603.56198	0.90809
2601.63342	0.90691
2599.70485	0.90657
2597.77629	0.90611
2595.84772	0.90507
2593.91916	0.90377
2591.99059	0.90232
2590.06203	0.90084
2588.13346	0.89937
2586.20490	0.89799
2584.27634	0.89680
2582.34777	0.89573
2580.41921	0.89518
2578.49064	0.89496
2576.56208	0.89354
2574.63351	0.89105
2572.70495	0.88917
2570.77638	0.88795
2568.84782	0.88629
2566.91926	0.88394
2564.99069	0.88159
2563.06213	0.87948
2561.13356	0.87727
2559.20500	0.87533
2557.27643	0.87433
2555.34787	0.87364
2553.41930	0.87208
2551.49074	0.86974
2549.56218	0.86794
2547.63361	0.86716
2545.70505	0.86625
2543.77648	0.86480
2541.84792	0.86361
2539.91935	0.86287
2537.99079	0.86225
2536.06222	0.86141
2534.13366	0.86022
2532.20510	0.85915
2530.27653	0.85846
2528.34797	0.85772
2526.41940	0.85677
2524.49084	0.85578
2522.56227	0.85454
2520.63371	0.85309
2518.70514	0.85212
2516.77658	0.85166
2514.84802	0.85097
2512.91945	0.84970
2510.99089	0.84820
2509.06232	0.84690
2507.13376	0.84569
2505.20519	0.84449
2503.27663	0.84327
2501.34806	0.84186
2499.41950	0.84067
2497.49094	0.84017
2495.56237	0.83994
2493.63381	0.83945
2491.70524	0.83839
2489.77668	0.83654
2487.84811	0.83451
2485.91955	0.83302
2483.99098	0.83144
2482.06242	0.82926
2480.13386	0.82724
2478.20529	0.82615
2476.27673	0.82544
2474.34816	0.82393
2472.41960	0.82159
2470.49103	0.81951
2468.56247	0.81809
2466.63391	0.81673
2464.70534	0.81512
2462.77678	0.81347
2460.84821	0.81197
2458.91965	0.81078
2456.99108	0.80972
2455.06252	0.80833
2453.13395	0.80679
2451.20539	0.80566
2449.27683	0.80498
2447.34826	0.80439
2445.41970	0.80368
2443.49113	0.80292
2441.56257	0.80238
2439.63400	0.80206
2437.70544	0.80131
2435.77687	0.79977
2433.84831	0.79823
2431.91975	0.79724
2429.99118	0.79656
2428.06262	0.79599
2426.13405	0.79540
2424.20549	0.79429
2422.27692	0.79264
2420.34836	0.79098
2418.41979	0.78962
2416.49123	0.78840
2414.56267	0.78714
2412.63410	0.78591
2410.70554	0.78470
2408.77697	0.78353
2406.84841	0.78274
2404.91984	0.78222
2402.99128	0.78130
2401.06271	0.77986
2399.13415	0.77854
2397.20559	0.77766
2395.27702	0.77689
2393.34846	0.77586
2391.41989	0.77454
2389.49133	0.77330
2387.56276	0.77290
2385.63420	0.77358
2383.70563	0.77464
2381.77707	0.77561
2379.84851	0.77657
2377.91994	0.77811
2375.99138	0.78130
2374.06281	0.78692
2372.13425	0.79495
2370.20568	0.80406
2368.27712	0.81157
2366.34855	0.81539
2364.41999	0.81568
2362.49143	0.81663
2360.56286	0.81972
2358.63430	0.81962
2356.70573	0.81386
2354.77717	0.80516
2352.84860	0.79529
2350.92004	0.78621
2348.99147	0.78147
2347.06291	0.78353
2345.13435	0.79203
2343.20578	0.79883
2341.27722	0.79790
2339.34865	0.79414
2337.42009	0.79114
2335.49152	0.78811
2333.56296	0.78363
2331.63440	0.77925
2329.70583	0.77786
2327.77727	0.77844
2325.84870	0.77755
2323.92014	0.77413
2321.99157	0.76890
2320.06301	0.76367
2318.13444	0.75969
2316.20588	0.75658
2314.27732	0.75408
2312.34875	0.75154
2310.42019	0.74855
2308.49162	0.74613
2306.56306	0.74436
2304.63449	0.74261
2302.70593	0.74124
2300.77736	0.74007
2298.84880	0.73821
2296.92024	0.73590
2294.99167	0.73408
2293.06311	0.73292
2291.13454	0.73187
2289.20598	0.73027
2287.27741	0.72804
2285.34885	0.72582
2283.42028	0.72415
2281.49172	0.72265
2279.56316	0.72117
2277.63459	0.72034
2275.70603	0.71979
2273.77746	0.71902
2271.84890	0.71851
2269.92033	0.71777
2267.99177	0.71630
2266.06320	0.71509
2264.13464	0.71448
2262.20608	0.71372
2260.27751	0.71274
2258.34895	0.71208
2256.42038	0.71169
2254.49182	0.71108
2252.56325	0.71022
2250.63469	0.70941
2248.70612	0.70839
2246.77756	0.70684
2244.84900	0.70534
2242.92043	0.70432
2240.99187	0.70354
2239.06330	0.70273
2237.13474	0.70175
2235.20617	0.70080
2233.27761	0.70004
2231.34904	0.69946
2229.42048	0.69906
2227.49192	0.69880
2225.56335	0.69865
2223.63479	0.69864
2221.70622	0.69869
2219.77766	0.69865
2217.84909	0.69881
2215.92053	0.69951
2213.99196	0.70000
2212.06340	0.69949
2210.13484	0.69881
2208.20627	0.69870
2206.27771	0.69855
2204.34914	0.69787
2202.42058	0.69694
2200.49201	0.69580
2198.56345	0.69455
2196.63488	0.69360
2194.70632	0.69275
2192.77776	0.69170
2190.84919	0.69065
2188.92063	0.68946
2186.99206	0.68788
2185.06350	0.68612
2183.13493	0.68470
2181.20637	0.68373
2179.27781	0.68278
2177.34924	0.68179
2175.42068	0.68116
2173.49211	0.68079
2171.56355	0.68043
2169.63498	0.67989
2167.70642	0.67906
2165.77785	0.67842
2163.84929	0.67833
2161.92073	0.67801
2159.99216	0.67685
2158.06360	0.67552
2156.13503	0.67474
2154.20647	0.67430
2152.27790	0.67376
2150.34934	0.67292
2148.42077	0.67176
2146.49221	0.67057
2144.56365	0.66951
2142.63508	0.66841
2140.70652	0.66734
2138.77795	0.66670
2136.84939	0.66655
2134.92082	0.66655
2132.99226	0.66632
2131.06369	0.66579
2129.13513	0.66513
2127.20657	0.66470
2125.27800	0.66459
2123.34944	0.66471
2121.42087	0.66487
2119.49231	0.66473
2117.56374	0.66420
2115.63518	0.66354
2113.70661	0.66294
2111.77805	0.66241
2109.84949	0.66183
2107.92092	0.66092
2105.99236	0.65960
2104.06379	0.65813
2102.13523	0.65683
2100.20666	0.65569
2098.27810	0.65452
2096.34953	0.65345
2094.42097	0.65238
2092.49241	0.65109
2090.56384	0.64982
2088.63528	0.64889
2086.70671	0.64820
2084.77815	0.64748
2082.84958	0.64663
2080.92102	0.64599
2078.99245	0.64580
2077.06389	0.64556
2075.13533	0.64490
2073.20676	0.64392
2071.27820	0.64286
2069.34963	0.64193
2067.42107	0.64108
2065.49250	0.64021
2063.56394	0.63917
2061.63537	0.63753
2059.70681	0.63538
2057.77825	0.63338
2055.84968	0.63176
2053.92112	0.63008
2051.99255	0.62811
2050.06399	0.62621
2048.13542	0.62469
2046.20686	0.62348
2044.27830	0.62245
2042.34973	0.62151
2040.42117	0.62060
2038.49260	0.61965
2036.56404	0.61867
2034.63547	0.61781
2032.70691	0.61700
2030.77834	0.61608
2028.84978	0.61519
2026.92122	0.61445
2024.99265	0.61362
2023.06409	0.61263
2021.13552	0.61149
2019.20696	0.61031
2017.27839	0.60927
2015.34983	0.60815
2013.42126	0.60683
2011.49270	0.60558
2009.56414	0.60437
2007.63557	0.60304
2005.70701	0.60177
2003.77844	0.60078
2001.84988	0.60003
1999.92131	0.59917
1997.99275	0.59816
1996.06418	0.59732
1994.13562	0.59687
1992.20706	0.59676
1990.27849	0.59658
1988.34993	0.59616
1986.42136	0.59562
1984.49280	0.59486
1982.56423	0.59402
1980.63567	0.59348
1978.70710	0.59336
1976.77854	0.59308
1974.84998	0.59233
1972.92141	0.59144
1970.99285	0.59077
1969.06428	0.59046
1967.13572	0.59023
1965.20715	0.58939
1963.27859	0.58807
1961.35002	0.58698
1959.42146	0.58613
1957.49290	0.58520
1955.56433	0.58439
1953.63577	0.58372
1951.70720	0.58297
1949.77864	0.58223
1947.85007	0.58147
1945.92151	0.58060
1943.99294	0.58004
1942.06438	0.57981
1940.13582	0.57905
1938.20725	0.57792
1936.27869	0.57696
1934.35012	0.57610
1932.42156	0.57513
1930.49299	0.57383
1928.56443	0.57226
1926.63586	0.57054
1924.70730	0.56903
1922.77874	0.56790
1920.85017	0.56653
1918.92161	0.56508
1916.99304	0.56397
1915.06448	0.56273
1913.13591	0.56145
1911.20735	0.56066
1909.27878	0.56035
1907.35022	0.56004
1905.42166	0.55958
1903.49309	0.55939
1901.56453	0.55963
1899.63596	0.55987
1897.70740	0.56010
1895.77883	0.56068
1893.85027	0.56103
1891.92171	0.56081
1889.99314	0.56099
1888.06458	0.56125
1886.13601	0.56078
1884.20745	0.56003
1882.27888	0.55925
1880.35032	0.55852
1878.42175	0.55791
1876.49319	0.55723
1874.56463	0.55638
1872.63606	0.55544
1870.70750	0.55503
1868.77893	0.55610
1866.85037	0.55694
1864.92180	0.55614
1862.99324	0.55511
1861.06467	0.55466
1859.13611	0.55463
1857.20755	0.55451
1855.27898	0.55404
1853.35042	0.55338
1851.42185	0.55255
1849.49329	0.55165
1847.56472	0.55058
1845.63616	0.54987
1843.70759	0.55011
1841.77903	0.54949
1839.85047	0.54777
1837.92190	0.54627
1835.99334	0.54503
1834.06477	0.54342
1832.13621	0.54207
1830.20764	0.54210
1828.27908	0.54221
1826.35051	0.54123
1824.42195	0.54038
1822.49339	0.53962
1820.56482	0.53877
1818.63626	0.53844
1816.70769	0.53831
1814.77913	0.53798
1812.85056	0.53812
1810.92200	0.53914
1808.99343	0.53996
1807.06487	0.53996
1805.13631	0.53956
1803.20774	0.53908
1801.27918	0.53925
1799.35061	0.53977
1797.42205	0.53923
1795.49348	0.53786
1793.56492	0.53730
1791.63635	0.53818
1789.70779	0.53776
1787.77923	0.53629
1785.85066	0.53553
1783.92210	0.53528
1781.99353	0.53504
1780.06497	0.53516
1778.13640	0.53516
1776.20784	0.53456
1774.27927	0.53472
1772.35071	0.53752
1770.42215	0.54027
1768.49358	0.54078
1766.56502	0.54064
1764.63645	0.54068
1762.70789	0.54235
1760.77932	0.54544
1758.85076	0.54794
1756.92220	0.55135
1754.99363	0.55513
1753.06507	0.55860
1751.13650	0.56530
1749.20794	0.57615
1747.27937	0.58572
1745.35081	0.59298
1743.42224	0.59935
1741.49368	0.60535
1739.56512	0.61123
1737.63655	0.61475
1735.70799	0.61696
1733.77942	0.62338
1731.85086	0.62940
1729.92229	0.63197
1727.99373	0.63456
1726.06516	0.63810
1724.13660	0.64381
1722.20804	0.64977
1720.27947	0.65438
1718.35091	0.66333
1716.42234	0.68189
1714.49378	0.69584
1712.56521	0.70462
1710.63665	0.71460
1708.70808	0.72767
1706.77952	0.74952
1704.85096	0.78041
1702.92239	0.80740
1700.99383	0.84585
1699.06526	0.91386
1697.13670	0.98357
1695.20813	1.05184
1693.27957	1.09963
1691.35100	1.13675
1689.42244	1.18478
1687.49388	1.23152
1685.56531	1.28020
1683.63675	1.35990
1681.70818	1.41566
1679.77962	1.44458
1677.85105	1.47292
1675.92249	1.50923
1673.99392	1.54982
1672.06536	1.58043
1670.13680	1.61057
1668.20823	1.64262
1666.27967	1.65698
1664.35110	1.66443
1662.42254	1.67485
1660.49397	1.68347
1658.56541	1.68892
1656.63684	1.69231
1654.70828	1.69722
1652.77972	1.70011
1650.85115	1.69552
1648.92259	1.69360
1646.99402	1.69480
1645.06546	1.69164
1643.13689	1.68245
1641.20833	1.67469
1639.27976	1.67175
1637.35120	1.67581
1635.42264	1.67553
1633.49407	1.66177
1631.56551	1.65023
1629.63694	1.63994
1627.70838	1.62828
1625.77981	1.61511
1623.85125	1.59925
1621.92269	1.58020
1619.99412	1.56163
1618.06556	1.53709
1616.13699	1.49967
1614.20843	1.46869
1612.27986	1.44381
1610.35130	1.41774
1608.42273	1.39211
1606.49417	1.37033
1604.56561	1.35297
1602.63704	1.33866
1600.70848	1.32776
1598.77991	1.32056
1596.85135	1.31601
1594.92278	1.31306
1592.99422	1.31181
1591.06565	1.31309
1589.13709	1.31753
1587.20853	1.32556
1585.27996	1.33612
1583.35140	1.34839
1581.42283	1.36162
1579.49427	1.37444
1577.56570	1.39161
1575.63714	1.41913
1573.70857	1.43827
1571.78001	1.44961
1569.85145	1.46884
1567.92288	1.49131
1565.99432	1.50707
1564.06575	1.52309
1562.13719	1.53672
1560.20862	1.55100
1558.28006	1.58195
1556.35149	1.59558
1554.42293	1.59653
1552.49437	1.59657
1550.56580	1.59487
1548.63724	1.58769
1546.70867	1.57954
1544.78011	1.57902
1542.85154	1.59039
1540.92298	1.59519
1538.99441	1.56706
1537.06585	1.54677
1535.13729	1.53504
1533.20872	1.52552
1531.28016	1.51593
1529.35159	1.50588
1527.42303	1.49633
1525.49446	1.49023
1523.56590	1.48797
1521.63733	1.48435
1519.70877	1.47778
1517.78021	1.46674
1515.85164	1.45009
1513.92308	1.43249
1511.99451	1.41509
1510.06595	1.39821
1508.13738	1.37034
1506.20882	1.31971
1504.28025	1.29231
1502.35169	1.27359
1500.42313	1.25138
1498.49456	1.22480
1496.56600	1.19701
1494.63743	1.17494
1492.70887	1.15750
1490.78030	1.13833
1488.85174	1.11567
1486.92317	1.09835
1484.99461	1.08745
1483.06605	1.08024
1481.13748	1.07614
1479.20892	1.07552
1477.28035	1.07873
1475.35179	1.08720
1473.42322	1.10566
1471.49466	1.12758
1469.56610	1.13819
1467.63753	1.14380
1465.70897	1.15254
1463.78040	1.16366
1461.85184	1.16894
1459.92327	1.17112
1457.99471	1.18067
1456.06614	1.19452
1454.13758	1.19631
1452.20902	1.19469
1450.28045	1.19328
1448.35189	1.19204
1446.42332	1.18959
1444.49476	1.18517
1442.56619	1.17960
1440.63763	1.17362
1438.70906	1.16586
1436.78050	1.15294
1434.85194	1.13831
1432.92337	1.12687
1430.99481	1.11677
1429.06624	1.10896
1427.13768	1.10501
1425.20911	1.10350
1423.28055	1.10287
1421.35198	1.10293
1419.42342	1.10653
1417.49486	1.11274
1415.56629	1.11543
1413.63773	1.11643
1411.70916	1.11809
1409.78060	1.12030
1407.85203	1.12239
1405.92347	1.12590
1403.99490	1.13058
1402.06634	1.13317
1400.13778	1.13501
1398.20921	1.13773
1396.28065	1.13957
1394.35208	1.13991
1392.42352	1.13973
1390.49495	1.14039
1388.56639	1.14444
1386.63782	1.15306
1384.70926	1.16191
1382.78070	1.16894
1380.85213	1.17366
1378.92357	1.17380
1376.99500	1.16836
1375.06644	1.15665
1373.13787	1.14021
1371.20931	1.12343
1369.28074	1.10485
1367.35218	1.08427
1365.42362	1.06569
1363.49505	1.04945
1361.56649	1.03572
1359.63792	1.02580
1357.70936	1.01902
1355.78079	1.01479
1353.85223	1.01248
1351.92366	1.01115
1349.99510	1.01052
1348.06654	1.01073
1346.13797	1.01137
1344.20941	1.01202
1342.28084	1.01299
1340.35228	1.01542
1338.42371	1.01964
1336.49515	1.02395
1334.56659	1.02826
1332.63802	1.03407
1330.70946	1.04170
1328.78089	1.04916
1326.85233	1.05445
1324.92376	1.05771
1322.99520	1.06023
1321.06663	1.06328
1319.13807	1.06698
1317.20951	1.06982
1315.28094	1.07134
1313.35238	1.07276
1311.42381	1.07368
1309.49525	1.07335
1307.56668	1.07269
1305.63812	1.07234
1303.70955	1.07155
1301.78099	1.06954
1299.85243	1.06671
1297.92386	1.06363
1295.99530	1.06047
1294.06673	1.05818
1292.13817	1.05777
1290.20960	1.05900
1288.28104	1.06125
1286.35247	1.06413
1284.42391	1.06634
1282.49535	1.06723
1280.56678	1.06764
1278.63822	1.06838
1276.70965	1.07023
1274.78109	1.07371
1272.85252	1.07868
1270.92396	1.08499
1268.99539	1.09220
1267.06683	1.09919
1265.13827	1.10500
1263.20970	1.10882
1261.28114	1.11078
1259.35257	1.11225
1257.42401	1.11392
1255.49544	1.11590
1253.56688	1.11806
1251.63831	1.11949
1249.70975	1.11989
1247.78119	1.12026
1245.85262	1.12121
1243.92406	1.12212
1241.99549	1.12201
1240.06693	1.12051
1238.13836	1.11779
1236.20980	1.11359
1234.28123	1.10759
1232.35267	1.10005
1230.42411	1.09106
1228.49554	1.08073
1226.56698	1.06954
1224.63841	1.05815
1222.70985	1.04712
1220.78128	1.03632
1218.85272	1.02558
1216.92415	1.01551
1214.99559	1.00792
1213.06703	1.00395
1211.13846	1.00260
1209.20990	1.00214
1207.28133	1.00086
1205.35277	0.99695
1203.42420	0.99003
1201.49564	0.98107
1199.56708	0.97067
1197.63851	0.95952
1195.70995	0.94898
1193.78138	0.93989
1191.85282	0.93277
1189.92425	0.92779
1187.99569	0.92463
1186.06712	0.92308
1184.13856	0.92301
1182.21000	0.92446
1180.28143	0.92802
1178.35287	0.93400
1176.42430	0.94169
1174.49574	0.94967
1172.56717	0.95738
1170.63861	0.96650
1168.71004	0.97886
1166.78148	0.99380
1164.85292	1.00994
1162.92435	1.02556
1160.99579	1.03752
1159.06722	1.04278
1157.13866	1.03996
1155.21009	1.02924
1153.28153	1.01188
1151.35296	0.99049
1149.42440	0.96795
1147.49584	0.94672
1145.56727	0.92913
1143.63871	0.91685
1141.71014	0.91041
1139.78158	0.90889
1137.85301	0.91117
1135.92445	0.91727
1133.99588	0.92740
1132.06732	0.94122
1130.13876	0.95830
1128.21019	0.97779
1126.28163	0.99825
1124.35306	1.01847
1122.42450	1.03724
1120.49593	1.05293
1118.56737	1.06414
1116.63880	1.07033
1114.71024	1.07203
1112.78168	1.06940
1110.85311	1.06262
1108.92455	1.05437
1106.99598	1.04759
1105.06742	1.04277
1103.13885	1.03904
1101.21029	1.03659
1099.28172	1.03735
1097.35316	1.04266
1095.42460	1.05175
1093.49603	1.06329
1091.56747	1.07683
1089.63890	1.09294
1087.71034	1.11262
1085.78177	1.13517
1083.85321	1.15817
1081.92464	1.17875
1079.99608	1.19397
1078.06752	1.20215
1076.13895	1.20318
1074.21039	1.19805
1072.28182	1.18742
1070.35326	1.17154
1068.42469	1.15303
1066.49613	1.13491
1064.56756	1.11760
1062.63900	1.10097
1060.71044	1.08519
1058.78187	1.06989
1056.85331	1.05500
1054.92474	1.04103
1052.99618	1.02895
1051.06761	1.02067
1049.13905	1.01693
1047.21049	1.01670
1045.28192	1.02014
1043.35336	1.02780
1041.42479	1.03750
1039.49623	1.04622
1037.56766	1.05308
1035.63910	1.05819
1033.71053	1.06166
1031.78197	1.06393
1029.85341	1.06351
1027.92484	1.05764
1025.99628	1.04744
1024.06771	1.03613
1022.13915	1.02512
1020.21058	1.01528
1018.28202	1.00636
1016.35345	0.99650
1014.42489	0.98398
1012.49633	0.96788
1010.56776	0.94826
1008.63920	0.92591
1006.71063	0.90278
1004.78207	0.88129
1002.85350	0.86221
1000.92494	0.84545
998.99637	0.83126
997.06781	0.81978
995.13925	0.81023
993.21068	0.80147
991.28212	0.79310
989.35355	0.78542
987.42499	0.77900
985.49642	0.77435
983.56786	0.77189
981.63929	0.77208
979.71073	0.77476
977.78217	0.77857
975.85360	0.78172
973.92504	0.78246
971.99647	0.77975
970.06791	0.77453
968.13934	0.76875
966.21078	0.76345
964.28221	0.75940
962.35365	0.75844
960.42509	0.76283
958.49652	0.77247
956.56796	0.78316
954.63939	0.78884
952.71083	0.78660
950.78226	0.77810
948.85370	0.76704
946.92513	0.75654
944.99657	0.74807
943.06801	0.74135
941.13944	0.73564
939.21088	0.73093
937.28231	0.72727
935.35375	0.72447
933.42518	0.72257
931.49662	0.72147
929.56805	0.72094
927.63949	0.72096
925.71093	0.72158
923.78236	0.72271
921.85380	0.72368
919.92523	0.72347
917.99667	0.72180
916.06810	0.71959
914.13954	0.71760
912.21098	0.71588
910.28241	0.71488
908.35385	0.71534
906.42528	0.71733
904.49672	0.72045
902.56815	0.72452
900.63959	0.72934
898.71102	0.73416
896.78246	0.73812
894.85390	0.74076
892.92533	0.74225
890.99677	0.74368
889.06820	0.74603
887.13964	0.74930
885.21107	0.75293
883.28251	0.75608
881.35394	0.75847
879.42538	0.76093
877.49682	0.76407
875.56825	0.76752
873.63969	0.77068
871.71112	0.77344
869.78256	0.77583
867.85399	0.77795
865.92543	0.78044
863.99686	0.78355
862.06830	0.78644
860.13974	0.78889
858.21117	0.79146
856.28261	0.79412
854.35404	0.79620
852.42548	0.79688
850.49691	0.79627
848.56835	0.79551
846.63978	0.79488
844.71122	0.79447
842.78266	0.79509
840.85409	0.79679
838.92553	0.79899
836.99696	0.80143
835.06840	0.80429
833.13983	0.80803
831.21127	0.81279
829.28270	0.81799
827.35414	0.82317
825.42558	0.82821
823.49701	0.83249
821.56845	0.83565
819.63988	0.83861
817.71132	0.84234
815.78275	0.84672
813.85419	0.85098
811.92562	0.85472
809.99706	0.85772
808.06850	0.86005
806.13993	0.86210
804.21137	0.86381
802.28280	0.86486
800.35424	0.86587
798.42567	0.86771
796.49711	0.86971
794.56854	0.87143
792.63998	0.87377
790.71142	0.87636
788.78285	0.87846
786.85429	0.88093
784.92572	0.88403
782.99716	0.88709
781.06859	0.89046
779.14003	0.89419
777.21147	0.89728
775.28290	0.89935
773.35434	0.90097
771.42577	0.90265
769.49721	0.90406
767.56864	0.90479
765.64008	0.90494
763.71151	0.90415
761.78295	0.90230
759.85439	0.90046
757.92582	0.90005
755.99726	0.90089
754.06869	0.90164
752.14013	0.90240
750.21156	0.90445
748.28300	0.90804
746.35443	0.91197
744.42587	0.91489
742.49731	0.91723
740.56874	0.92073
738.64018	0.92585
736.71161	0.93212
734.78305	0.93944
732.85448	0.94780
730.92592	0.95651
728.99735	0.96460
727.06879	0.97180
725.14023	0.97798
723.21166	0.98406
721.28310	0.99052
719.35453	0.99386
717.42597	0.99274
715.49740	0.99152
713.56884	0.99236
711.64027	0.99345
709.71171	0.99371
707.78315	0.99367
705.85458	0.99313
703.92602	0.99165
701.99745	0.98996
700.06889	0.98892
698.14032	0.98803
696.21176	0.98719
694.28319	0.98801
692.35463	0.99061
690.42607	0.99337
688.49750	0.99549
686.56894	0.99681
684.64037	0.99780
682.71181	0.99880
680.78324	0.99987
678.85468	1.00284
676.92611	1.00874
674.99755	1.01418
673.06899	1.01639
671.14042	1.01779
669.21186	1.02048
667.28329	1.01955
665.35473	1.01678
663.42616	1.01731
661.49760	1.01907
659.56903	1.01890
657.64047	1.01899
655.71191	1.02192
653.78334	1.02521
651.85478	1.02729
649.92621	1.02885
647.99765	1.02927
646.06908	1.02902
644.14052	1.02998
642.21195	1.03137
640.28339	1.03058
638.35483	1.02677
636.42626	1.02118
634.49770	1.01615
632.56913	1.01295
630.64057	1.00943
628.71200	1.00373
626.78344	0.99742
624.85488	0.99283
622.92631	0.98994
620.99775	0.98781
619.06918	0.98588
617.14062	0.98280
615.21205	0.97961
613.28349	0.97929
611.35492	0.98216
609.42636	0.98741
607.49780	0.99357
605.56923	0.99919
603.64067	1.00482
601.71210	1.01160
599.78354	1.02077
