3997.91406	1.13439
3995.98550	1.13004
3994.05693	1.13164
3992.12837	1.13390
3990.19980	1.13357
3988.27124	1.13247
3986.34268	1.12994
3984.41411	1.12628
3982.48555	1.12487
3980.55698	1.12658
3978.62842	1.12958
3976.69985	1.13117
3974.77129	1.12925
3972.84272	1.12482
3970.91416	1.12193
3968.98560	1.12276
3967.05703	1.12371
3965.12847	1.12096
3963.19990	1.11558
3961.27134	1.11008
3959.34277	1.10695
3957.41421	1.10802
3955.48564	1.11054
3953.55708	1.10997
3951.62852	1.10880
3949.69995	1.11276
3947.77139	1.11724
3945.84282	1.11517
3943.91426	1.11029
3941.98569	1.10755
3940.05713	1.10738
3938.12856	1.10833
3936.20000	1.10747
3934.27144	1.10581
3932.34287	1.11009
3930.41431	1.11775
3928.48574	1.11868
3926.55718	1.11278
3924.62861	1.10580
3922.70005	1.10369
3920.77148	1.10455
3918.84292	1.10476
3916.91436	1.10559
3914.98579	1.10529
3913.05723	1.10256
3911.12866	1.10041
3909.20010	1.09882
3907.27153	1.09633
3905.34297	1.09465
3903.41440	1.09511
3901.48584	1.09534
3899.55728	1.09591
3897.62871	1.09611
3895.70015	1.09308
3893.77158	1.08902
3891.84302	1.08908
3889.91445	1.09089
3887.98589	1.09115
3886.05733	1.09275
3884.12876	1.09390
3882.20020	1.09398
3880.27163	1.09444
3878.34307	1.09095
3876.41450	1.08639
3874.48594	1.08627
3872.55737	1.08927
3870.62881	1.09077
3868.70025	1.08820
3866.77168	1.08273
3864.84312	1.07933
3862.91455	1.07843
3860.98599	1.07727
3859.05742	1.07739
3857.12886	1.07604
3855.20029	1.07116
3853.27173	1.07364
3851.34317	1.07684
3849.41460	1.07367
3847.48604	1.07097
3845.55747	1.06977
3843.62891	1.07013
3841.70034	1.07159
3839.77178	1.07376
3837.84321	1.07776
3835.91465	1.07987
3833.98609	1.07906
3832.05752	1.07754
3830.12896	1.07469
3828.20039	1.07167
3826.27183	1.07119
3824.34326	1.07114
3822.41470	1.07049
3820.48613	1.07093
3818.55757	1.06868
3816.62901	1.06586
3814.70044	1.06589
3812.77188	1.06586
3810.84331	1.06521
3808.91475	1.06659
3806.98618	1.07015
3805.05762	1.06971
3803.12905	1.06726
3801.20049	1.06806
3799.27193	1.06675
3797.34336	1.06346
3795.41480	1.06309
3793.48623	1.06505
3791.55767	1.06565
3789.62910	1.06234
3787.70054	1.05779
3785.77197	1.05566
3783.84341	1.05496
3781.91485	1.05563
3779.98628	1.05901
3778.05772	1.06076
3776.12915	1.05777
3774.20059	1.05288
3772.27202	1.04902
3770.34346	1.04901
3768.41489	1.05161
3766.48633	1.05274
3764.55777	1.05143
3762.62920	1.04849
3760.70064	1.04710
3758.77207	1.04802
3756.84351	1.04730
3754.91494	1.04560
3752.98638	1.04427
3751.05781	1.04521
3749.12925	1.04809
3747.20069	1.04925
3745.27212	1.05454
3743.34356	1.06223
3741.41499	1.06143
3739.48643	1.05354
3737.55786	1.04533
3735.62930	1.04635
3733.70074	1.04948
3731.77217	1.04564
3729.84361	1.04277
3727.91504	1.04421
3725.98648	1.04905
3724.05791	1.05071
3722.12935	1.04491
3720.20078	1.03885
3718.27222	1.03782
3716.34366	1.03796
3714.41509	1.03649
3712.48653	1.03589
3710.55796	1.03861
3708.62940	1.04106
3706.70083	1.04125
3704.77227	1.03933
3702.84370	1.03812
3700.91514	1.04086
3698.98658	1.04366
3697.05801	1.04361
3695.12945	1.04205
3693.20088	1.04108
3691.27232	1.04450
3689.34375	1.05432
3687.41519	1.05824
3685.48662	1.05512
3683.55806	1.05119
3681.62950	1.04947
3679.70093	1.05204
3677.77237	1.05893
3675.84380	1.06623
3673.91524	1.06552
3671.98667	1.06423
3670.05811	1.07174
3668.12954	1.07867
3666.20098	1.08000
3664.27242	1.08301
3662.34385	1.08803
3660.41529	1.09218
3658.48672	1.09663
3656.55816	1.10442
3654.62959	1.11100
3652.70103	1.11496
3650.77246	1.12244
3648.84390	1.13312
3646.91534	1.14100
3644.98677	1.14699
3643.05821	1.15107
3641.12964	1.15582
3639.20108	1.16287
3637.27251	1.17030
3635.34395	1.17692
3633.41538	1.18140
3631.48682	1.18415
3629.55826	1.19414
3627.62969	1.20571
3625.70113	1.20625
3623.77256	1.20645
3621.84400	1.21284
3619.91543	1.22902
3617.98687	1.24314
3616.05830	1.24533
3614.12974	1.24698
3612.20118	1.24974
3610.27261	1.25200
3608.34405	1.26166
3606.41548	1.27494
3604.48692	1.28085
3602.55835	1.28385
3600.62979	1.28948
3598.70123	1.29421
3596.77266	1.29612
3594.84410	1.30299
3592.91553	1.31695
3590.98697	1.32719
3589.05840	1.32977
3587.12984	1.33247
3585.20127	1.34031
3583.27271	1.34709
3581.34415	1.35125
3579.41558	1.35577
3577.48702	1.36226
3575.55845	1.36876
3573.62989	1.37345
3571.70132	1.37597
3569.77276	1.37510
3567.84419	1.37653
3565.91563	1.39029
3563.98707	1.40358
3562.05850	1.41018
3560.12994	1.41317
3558.20137	1.41534
3556.27281	1.41960
3554.34424	1.42361
3552.41568	1.42566
3550.48711	1.42938
3548.55855	1.43513
3546.62999	1.44024
3544.70142	1.44494
3542.77286	1.45282
3540.84429	1.46490
3538.91573	1.47552
3536.98716	1.47765
3535.05860	1.47504
3533.13003	1.47654
3531.20147	1.48267
3529.27291	1.48745
3527.34434	1.48911
3525.41578	1.49512
3523.48721	1.50523
3521.55865	1.51095
3519.63008	1.51175
3517.70152	1.50990
3515.77295	1.50880
3513.84439	1.51260
3511.91583	1.51676
3509.98726	1.51917
3508.05870	1.52341
3506.13013	1.52681
3504.20157	1.53423
3502.27300	1.55033
3500.34444	1.55836
3498.41587	1.55499
3496.48731	1.55763
3494.55875	1.56732
3492.63018	1.57235
3490.70162	1.57605
3488.77305	1.58157
3486.84449	1.58300
3484.91592	1.58031
3482.98736	1.57924
3481.05879	1.58543
3479.13023	1.59609
3477.20167	1.60374
3475.27310	1.60580
3473.34454	1.60657
3471.41597	1.61202
3469.48741	1.61687
3467.55884	1.61614
3465.63028	1.61643
3463.70171	1.61866
3461.77315	1.62040
3459.84459	1.62350
3457.91602	1.62391
3455.98746	1.61833
3454.05889	1.61134
3452.13033	1.60956
3450.20176	1.61930
3448.27320	1.63739
3446.34464	1.64730
3444.41607	1.64290
3442.48751	1.63354
3440.55894	1.62668
3438.63038	1.62781
3436.70181	1.63542
3434.77325	1.63769
3432.84468	1.62758
3430.91612	1.61525
3428.98756	1.61459
3427.05899	1.62377
3425.13043	1.63203
3423.20186	1.63922
3421.27330	1.64701
3419.34473	1.64993
3417.41617	1.64919
3415.48760	1.64751
3413.55904	1.64369
3411.63048	1.63932
3409.70191	1.63680
3407.77335	1.63803
3405.84478	1.64352
3403.91622	1.64926
3401.98765	1.64900
3400.05909	1.64275
3398.13052	1.63768
3396.20196	1.63892
3394.27340	1.64646
3392.34483	1.65542
3390.41627	1.65837
3388.48770	1.65441
3386.55914	1.64981
3384.63057	1.64893
3382.70201	1.64918
3380.77344	1.64534
3378.84488	1.63797
3376.91632	1.63714
3374.98775	1.64908
3373.05919	1.66245
3371.13062	1.66428
3369.20206	1.65948
3367.27349	1.65933
3365.34493	1.66350
3363.41636	1.66454
3361.48780	1.66362
3359.55924	1.66234
3357.63067	1.65599
3355.70211	1.65153
3353.77354	1.65820
3351.84498	1.66746
3349.91641	1.67195
3347.98785	1.67565
3346.05928	1.67607
3344.13072	1.67001
3342.20216	1.66465
3340.27359	1.66414
3338.34503	1.66540
3336.41646	1.66795
3334.48790	1.67074
3332.55933	1.67132
3330.63077	1.67183
3328.70220	1.67164
3326.77364	1.66723
3324.84508	1.66189
3322.91651	1.66349
3320.98795	1.67297
3319.05938	1.68314
3317.13082	1.69373
3315.20225	1.70819
3313.27369	1.71700
3311.34513	1.71373
3309.41656	1.70608
3307.48800	1.70127
3305.55943	1.70214
3303.63087	1.70396
3301.70230	1.70005
3299.77374	1.69425
3297.84517	1.69257
3295.91661	1.69269
3293.98805	1.68974
3292.05948	1.68470
3290.13092	1.68169
3288.20235	1.68320
3286.27379	1.68860
3284.34522	1.69408
3282.41666	1.69740
3280.48809	1.69941
3278.55953	1.69943
3276.63097	1.69451
3274.70240	1.68681
3272.77384	1.68295
3270.84527	1.68159
3268.91671	1.67735
3266.98814	1.67149
3265.05958	1.66980
3263.13101	1.67268
3261.20245	1.67019
3259.27389	1.65718
3257.34532	1.64291
3255.41676	1.63607
3253.48819	1.63669
3251.55963	1.63793
3249.63106	1.63259
3247.70250	1.62241
3245.77393	1.61228
3243.84537	1.60683
3241.91681	1.61168
3239.98824	1.61917
3238.05968	1.61455
3236.13111	1.60089
3234.20255	1.58991
3232.27398	1.58349
3230.34542	1.57693
3228.41685	1.57112
3226.48829	1.57406
3224.55973	1.58481
3222.63116	1.59238
3220.70260	1.59193
3218.77403	1.58517
3216.84547	1.57626
3214.91690	1.57068
3212.98834	1.56856
3211.05977	1.56760
3209.13121	1.56546
3207.20265	1.55690
3205.27408	1.54460
3203.34552	1.53873
3201.41695	1.53960
3199.48839	1.54052
3197.55982	1.54042
3195.63126	1.53778
3193.70269	1.53187
3191.77413	1.52938
3189.84557	1.53006
3187.91700	1.52584
3185.98844	1.51743
3184.05987	1.51047
3182.13131	1.50539
3180.20274	1.49982
3178.27418	1.49446
3176.34562	1.49270
3174.41705	1.49277
3172.48849	1.48845
3170.55992	1.48038
3168.63136	1.47588
3166.70279	1.47749
3164.77423	1.47966
3162.84566	1.47706
3160.91710	1.47229
3158.98854	1.46975
3157.05997	1.46766
3155.13141	1.46300
3153.20284	1.45719
3151.27428	1.45427
3149.34571	1.45617
3147.41715	1.45824
3145.48858	1.45494
3143.56002	1.44878
3141.63146	1.44454
3139.70289	1.44194
3137.77433	1.44051
3135.84576	1.44207
3133.91720	1.44374
3131.98863	1.43940
3130.06007	1.43216
3128.13150	1.42951
3126.20294	1.43072
3124.27438	1.43052
3122.34581	1.42653
3120.41725	1.42179
3118.48868	1.42102
3116.56012	1.42212
3114.63155	1.42105
3112.70299	1.42043
3110.77442	1.42104
3108.84586	1.41878
3106.91730	1.41362
3104.98873	1.40847
3103.06017	1.40646
3101.13160	1.40967
3099.20304	1.41311
3097.27447	1.41303
3095.34591	1.41190
3093.41734	1.40980
3091.48878	1.40676
3089.56022	1.40277
3087.63165	1.39800
3085.70309	1.39615
3083.77452	1.39662
3081.84596	1.39618
3079.91739	1.39515
3077.98883	1.39330
3076.06026	1.39169
3074.13170	1.39185
3072.20314	1.39129
3070.27457	1.38883
3068.34601	1.38628
3066.41744	1.38353
3064.48888	1.37905
3062.56031	1.37291
3060.63175	1.36688
3058.70318	1.36209
3056.77462	1.35796
3054.84606	1.35544
3052.91749	1.35666
3050.98893	1.35865
3049.06036	1.35597
3047.13180	1.35006
3045.20323	1.34584
3043.27467	1.34379
3041.34610	1.34096
3039.41754	1.33528
3037.48898	1.32871
3035.56041	1.32445
3033.63185	1.32243
3031.70328	1.32003
3029.77472	1.31667
3027.84615	1.31441
3025.91759	1.31337
3023.98903	1.31132
3022.06046	1.30856
3020.13190	1.30827
3018.20333	1.30940
3016.27477	1.30702
3014.34620	1.30249
3012.41764	1.30033
3010.48907	1.29970
3008.56051	1.29804
3006.63195	1.29501
3004.70338	1.29202
3002.77482	1.29011
3000.84625	1.28751
2998.91769	1.28328
2996.98912	1.28056
2995.06056	1.28113
2993.13199	1.28253
2991.20343	1.28313
2989.27487	1.28417
2987.34630	1.28767
2985.41774	1.29377
2983.48917	1.29908
2981.56061	1.30250
2979.63204	1.30721
2977.70348	1.31389
2975.77491	1.32175
2973.84635	1.32989
2971.91779	1.33492
2969.98922	1.33675
2968.06066	1.33983
2966.13209	1.34537
2964.20353	1.35139
2962.27496	1.35664
2960.34640	1.35870
2958.41783	1.35561
2956.48927	1.34959
2954.56071	1.34350
2952.63214	1.33910
2950.70358	1.33738
2948.77501	1.33673
2946.84645	1.33652
2944.91788	1.33962
2942.98932	1.34620
2941.06075	1.35318
2939.13219	1.36088
2937.20363	1.37098
2935.27506	1.38234
2933.34650	1.39370
2931.41793	1.40492
2929.48937	1.41562
2927.56080	1.42547
2925.63224	1.43559
2923.70367	1.44663
2921.77511	1.45644
2919.84655	1.46237
2917.91798	1.46061
2915.98942	1.44506
2914.06085	1.41628
2912.13229	1.38506
2910.20372	1.36152
2908.27516	1.34685
2906.34659	1.33666
2904.41803	1.32775
2902.48947	1.31927
2900.56090	1.31026
2898.63234	1.30024
2896.70377	1.29226
2894.77521	1.29016
2892.84664	1.29099
2890.91808	1.28793
2888.98952	1.28039
2887.06095	1.27283
2885.13239	1.26796
2883.20382	1.26538
2881.27526	1.26448
2879.34669	1.26508
2877.41813	1.26551
2875.48956	1.26446
2873.56100	1.26190
2871.63244	1.25734
2869.70387	1.25122
2867.77531	1.24519
2865.84674	1.24051
2863.91818	1.23879
2861.98961	1.24170
2860.06105	1.24973
2858.13248	1.26182
2856.20392	1.27479
2854.27536	1.28746
2852.34679	1.30155
2850.41823	1.31027
2848.48966	1.29981
2846.56110	1.27073
2844.63253	1.23807
2842.70397	1.21261
2840.77540	1.19535
2838.84684	1.18240
2836.91828	1.17177
2834.98971	1.16436
2833.06115	1.15911
2831.13258	1.15423
2829.20402	1.14992
2827.27545	1.14690
2825.34689	1.14503
2823.41832	1.14247
2821.48976	1.13804
2819.56120	1.13375
2817.63263	1.13177
2815.70407	1.13160
2813.77550	1.13108
2811.84694	1.12910
2809.91837	1.12614
2807.98981	1.12310
2806.06124	1.12097
2804.13268	1.11942
2802.20412	1.11655
2800.27555	1.11243
2798.34699	1.10899
2796.41842	1.10633
2794.48986	1.10340
2792.56129	1.09969
2790.63273	1.09556
2788.70416	1.09248
2786.77560	1.09089
2784.84704	1.08886
2782.91847	1.08543
2780.98991	1.08203
2779.06134	1.07982
2777.13278	1.07829
2775.20421	1.07646
2773.27565	1.07389
2771.34708	1.07050
2769.41852	1.06688
2767.48996	1.06458
2765.56139	1.06427
2763.63283	1.06427
2761.70426	1.06308
2759.77570	1.06128
2757.84713	1.05911
2755.91857	1.05665
2753.99001	1.05505
2752.06144	1.05471
2750.13288	1.05473
2748.20431	1.05409
2746.27575	1.05290
2744.34718	1.05168
2742.41862	1.04988
2740.49005	1.04738
2738.56149	1.04542
2736.63293	1.04495
2734.70436	1.04546
2732.77580	1.04519
2730.84723	1.04336
2728.91867	1.04110
2726.99010	1.03869
2725.06154	1.03560
2723.13297	1.03292
2721.20441	1.03124
2719.27585	1.02941
2717.34728	1.02708
2715.41872	1.02491
2713.49015	1.02303
2711.56159	1.02095
2709.63302	1.01839
2707.70446	1.01563
2705.77589	1.01353
2703.84733	1.01216
2701.91877	1.01031
2699.99020	1.00779
2698.06164	1.00576
2696.13307	1.00445
2694.20451	1.00280
2692.27594	1.00048
2690.34738	0.99871
2688.41881	0.99832
2686.49025	0.99821
2684.56169	0.99703
2682.63312	0.99486
2680.70456	0.99203
2678.77599	0.98934
2676.84743	0.98815
2674.91886	0.98786
2672.99030	0.98706
2671.06173	0.98584
2669.13317	0.98435
2667.20461	0.98227
2665.27604	0.98038
2663.34748	0.97911
2661.41891	0.97757
2659.49035	0.97578
2657.56178	0.97431
2655.63322	0.97298
2653.70465	0.97200
2651.77609	0.97116
2649.84753	0.96966
2647.91896	0.96813
2645.99040	0.96729
2644.06183	0.96624
2642.13327	0.96468
2640.20470	0.96355
2638.27614	0.96277
2636.34757	0.96138
2634.41901	0.95944
2632.49045	0.95754
2630.56188	0.95549
2628.63332	0.95374
2626.70475	0.95291
2624.77619	0.95184
2622.84762	0.95017
2620.91906	0.94934
2618.99049	0.94921
2617.06193	0.94871
2615.13337	0.94801
2613.20480	0.94701
2611.27624	0.94525
2609.34767	0.94333
2607.41911	0.94198
2605.49054	0.94094
2603.56198	0.93949
2601.63342	0.93753
2599.70485	0.93568
2597.77629	0.93431
2595.84772	0.93291
2593.91916	0.93110
2591.99059	0.92945
2590.06203	0.92838
2588.13346	0.92730
2586.20490	0.92566
2584.27634	0.92365
2582.34777	0.92148
2580.41921	0.91922
2578.49064	0.91698
2576.56208	0.91515
2574.63351	0.91358
2572.70495	0.91142
2570.77638	0.90892
2568.84782	0.90689
2566.91926	0.90515
2564.99069	0.90364
2563.06213	0.90212
2561.13356	0.90033
2559.20500	0.89892
2557.27643	0.89790
2555.34787	0.89664
2553.41930	0.89527
2551.49074	0.89404
2549.56218	0.89250
2547.63361	0.89035
2545.70505	0.88841
2543.77648	0.88743
2541.84792	0.88654
2539.91935	0.88481
2537.99079	0.88281
2536.06222	0.88129
2534.13366	0.88013
2532.20510	0.87903
2530.27653	0.87781
2528.34797	0.87634
2526.41940	0.87491
2524.49084	0.87425
2522.56227	0.87415
2520.63371	0.87328
2518.70514	0.87138
2516.77658	0.86977
2514.84802	0.86897
2512.91945	0.86797
2510.99089	0.86635
2509.06232	0.86482
2507.13376	0.86378
2505.20519	0.86282
2503.27663	0.86154
2501.34806	0.86033
2499.41950	0.85954
2497.49094	0.85857
2495.56237	0.85708
2493.63381	0.85546
2491.70524	0.85377
2489.77668	0.85173
2487.84811	0.84970
2485.91955	0.84824
2483.99098	0.84702
2482.06242	0.84561
2480.13386	0.84409
2478.20529	0.84266
2476.27673	0.84109
2474.34816	0.83944
2472.41960	0.83847
2470.49103	0.83811
2468.56247	0.83728
2466.63391	0.83587
2464.70534	0.83441
2462.77678	0.83258
2460.84821	0.83056
2458.91965	0.82937
2456.99108	0.82917
2455.06252	0.82888
2453.13395	0.82731
2451.20539	0.82482
2449.27683	0.82276
2447.34826	0.82123
2445.41970	0.81974
2443.49113	0.81851
2441.56257	0.81739
2439.63400	0.81583
2437.70544	0.81419
2435.77687	0.81260
2433.84831	0.81068
2431.91975	0.80888
2429.99118	0.80758
2428.06262	0.80621
2426.13405	0.80474
2424.20549	0.80338
2422.27692	0.80178
2420.34836	0.80004
2418.41979	0.79862
2416.49123	0.79759
2414.56267	0.79698
2412.63410	0.79633
2410.70554	0.79522
2408.77697	0.79408
2406.84841	0.79333
2404.91984	0.79285
2402.99128	0.79202
2401.06271	0.79070
2399.13415	0.78968
2397.20559	0.78933
2395.27702	0.78907
2393.34846	0.78849
2391.41989	0.78800
2389.49133	0.78794
2387.56276	0.78834
2385.63420	0.78936
2383.70563	0.79114
2381.77707	0.79392
2379.84851	0.79800
2377.91994	0.80307
2375.99138	0.80909
2374.06281	0.81664
2372.13425	0.82470
2370.20568	0.83220
2368.27712	0.83941
2366.34855	0.84573
2364.41999	0.85409
2362.49143	0.86581
2360.56286	0.87212
2358.63430	0.86815
2356.70573	0.85796
2354.77717	0.84548
2352.84860	0.83133
2350.92004	0.81848
2348.99147	0.81146
2347.06291	0.81253
2345.13435	0.82099
2343.20578	0.82769
2341.27722	0.82636
2339.34865	0.82352
2337.42009	0.82162
2335.49152	0.81800
2333.56296	0.81472
2331.63440	0.81548
2329.70583	0.81627
2327.77727	0.81289
2325.84870	0.80750
2323.92014	0.80148
2321.99157	0.79563
2320.06301	0.79099
2318.13444	0.78629
2316.20588	0.78155
2314.27732	0.77803
2312.34875	0.77479
2310.42019	0.77113
2308.49162	0.76821
2306.56306	0.76595
2304.63449	0.76335
2302.70593	0.76069
2300.77736	0.75881
2298.84880	0.75748
2296.92024	0.75577
2294.99167	0.75355
2293.06311	0.75141
2291.13454	0.74952
2289.20598	0.74786
2287.27741	0.74639
2285.34885	0.74491
2283.42028	0.74346
2281.49172	0.74202
2279.56316	0.74066
2277.63459	0.73992
2275.70603	0.74002
2273.77746	0.74033
2271.84890	0.74013
2269.92033	0.73926
2267.99177	0.73782
2266.06320	0.73621
2264.13464	0.73497
2262.20608	0.73409
2260.27751	0.73328
2258.34895	0.73242
2256.42038	0.73139
2254.49182	0.73034
2252.56325	0.72967
2250.63469	0.72926
2248.70612	0.72827
2246.77756	0.72659
2244.84900	0.72517
2242.92043	0.72445
2240.99187	0.72400
2239.06330	0.72338
2237.13474	0.72273
2235.20617	0.72213
2233.27761	0.72143
2231.34904	0.72054
2229.42048	0.71977
2227.49192	0.71950
2225.56335	0.71946
2223.63479	0.71910
2221.70622	0.71869
2219.77766	0.71847
2217.84909	0.71788
2215.92053	0.71693
2213.99196	0.71649
2212.06340	0.71637
2210.13484	0.71615
2208.20627	0.71609
2206.27771	0.71596
2204.34914	0.71555
2202.42058	0.71524
2200.49201	0.71514
2198.56345	0.71512
2196.63488	0.71506
2194.70632	0.71474
2192.77776	0.71415
2190.84919	0.71374
2188.92063	0.71367
2186.99206	0.71360
2185.06350	0.71331
2183.13493	0.71289
2181.20637	0.71254
2179.27781	0.71218
2177.34924	0.71160
2175.42068	0.71101
2173.49211	0.71080
2171.56355	0.71079
2169.63498	0.71061
2167.70642	0.71023
2165.77785	0.70964
2163.84929	0.70884
2161.92073	0.70816
2159.99216	0.70767
2158.06360	0.70703
2156.13503	0.70624
2154.20647	0.70560
2152.27790	0.70498
2150.34934	0.70414
2148.42077	0.70316
2146.49221	0.70229
2144.56365	0.70175
2142.63508	0.70144
2140.70652	0.70119
2138.77795	0.70092
2136.84939	0.70045
2134.92082	0.69975
2132.99226	0.69879
2131.06369	0.69760
2129.13513	0.69660
2127.20657	0.69618
2125.27800	0.69605
2123.34944	0.69569
2121.42087	0.69506
2119.49231	0.69416
2117.56374	0.69324
2115.63518	0.69256
2113.70661	0.69190
2111.77805	0.69116
2109.84949	0.69044
2107.92092	0.68988
2105.99236	0.68953
2104.06379	0.68896
2102.13523	0.68799
2100.20666	0.68692
2098.27810	0.68595
2096.34953	0.68501
2094.42097	0.68392
2092.49241	0.68276
2090.56384	0.68194
2088.63528	0.68134
2086.70671	0.68074
2084.77815	0.68018
2082.84958	0.67964
2080.92102	0.67926
2078.99245	0.67905
2077.06389	0.67858
2075.13533	0.67767
2073.20676	0.67673
2071.27820	0.67596
2069.34963	0.67519
2067.42107	0.67472
2065.49250	0.67477
2063.56394	0.67463
2061.63537	0.67377
2059.70681	0.67270
2057.77825	0.67191
2055.84968	0.67132
2053.92112	0.67084
2051.99255	0.67044
2050.06399	0.66996
2048.13542	0.66924
2046.20686	0.66843
2044.27830	0.66773
2042.34973	0.66696
2040.42117	0.66613
2038.49260	0.66536
2036.56404	0.66446
2034.63547	0.66337
2032.70691	0.66220
2030.77834	0.66107
2028.84978	0.66014
2026.92122	0.65933
2024.99265	0.65844
2023.06409	0.65734
2021.13552	0.65610
2019.20696	0.65512
2017.27839	0.65431
2015.34983	0.65322
2013.42126	0.65208
2011.49270	0.65107
2009.56414	0.65010
2007.63557	0.64932
2005.70701	0.64871
2003.77844	0.64800
2001.84988	0.64711
1999.92131	0.64618
1997.99275	0.64539
1996.06418	0.64464
1994.13562	0.64390
1992.20706	0.64359
1990.27849	0.64360
1988.34993	0.64327
1986.42136	0.64251
1984.49280	0.64152
1982.56423	0.64045
1980.63567	0.63950
1978.70710	0.63879
1976.77854	0.63799
1974.84998	0.63690
1972.92141	0.63572
1970.99285	0.63460
1969.06428	0.63362
1967.13572	0.63274
1965.20715	0.63155
1963.27859	0.63005
1961.35002	0.62870
1959.42146	0.62748
1957.49290	0.62613
1955.56433	0.62472
1953.63577	0.62336
1951.70720	0.62199
1949.77864	0.62063
1947.85007	0.61936
1945.92151	0.61810
1943.99294	0.61674
1942.06438	0.61512
1940.13582	0.61326
1938.20725	0.61162
1936.27869	0.61038
1934.35012	0.60937
1932.42156	0.60837
1930.49299	0.60733
1928.56443	0.60628
1926.63586	0.60529
1924.70730	0.60473
1922.77874	0.60456
1920.85017	0.60417
1918.92161	0.60388
1916.99304	0.60384
1915.06448	0.60337
1913.13591	0.60285
1911.20735	0.60283
1909.27878	0.60304
1907.35022	0.60301
1905.42166	0.60278
1903.49309	0.60254
1901.56453	0.60218
1899.63596	0.60185
1897.70740	0.60179
1895.77883	0.60182
1893.85027	0.60136
1891.92171	0.60058
1889.99314	0.60013
1888.06458	0.59933
1886.13601	0.59788
1884.20745	0.59648
1882.27888	0.59523
1880.35032	0.59405
1878.42175	0.59271
1876.49319	0.59106
1874.56463	0.58936
1872.63606	0.58789
1870.70750	0.58697
1868.77893	0.58661
1866.85037	0.58542
1864.92180	0.58336
1862.99324	0.58165
1861.06467	0.58058
1859.13611	0.57983
1857.20755	0.57905
1855.27898	0.57816
1853.35042	0.57738
1851.42185	0.57687
1849.49329	0.57670
1847.56472	0.57684
1845.63616	0.57749
1843.70759	0.57820
1841.77903	0.57762
1839.85047	0.57661
1837.92190	0.57614
1835.99334	0.57567
1834.06477	0.57470
1832.13621	0.57407
1830.20764	0.57449
1828.27908	0.57459
1826.35051	0.57388
1824.42195	0.57350
1822.49339	0.57305
1820.56482	0.57210
1818.63626	0.57131
1816.70769	0.57073
1814.77913	0.57010
1812.85056	0.56967
1810.92200	0.56950
1808.99343	0.56874
1807.06487	0.56732
1805.13631	0.56603
1803.20774	0.56543
1801.27918	0.56571
1799.35061	0.56597
1797.42205	0.56548
1795.49348	0.56493
1793.56492	0.56522
1791.63635	0.56586
1789.70779	0.56517
1787.77923	0.56428
1785.85066	0.56408
1783.92210	0.56401
1781.99353	0.56404
1780.06497	0.56439
1778.13640	0.56428
1776.20784	0.56362
1774.27927	0.56391
1772.35071	0.56598
1770.42215	0.56706
1768.49358	0.56642
1766.56502	0.56581
1764.63645	0.56589
1762.70789	0.56734
1760.77932	0.56964
1758.85076	0.57160
1756.92220	0.57467
1754.99363	0.57839
1753.06507	0.58228
1751.13650	0.58931
1749.20794	0.60007
1747.27937	0.60946
1745.35081	0.61659
1743.42224	0.62320
1741.49368	0.62994
1739.56512	0.63632
1737.63655	0.64011
1735.70799	0.64245
1733.77942	0.64703
1731.85086	0.65069
1729.92229	0.65261
1727.99373	0.65480
1726.06516	0.65758
1724.13660	0.66238
1722.20804	0.66806
1720.27947	0.67315
1718.35091	0.68213
1716.42234	0.69859
1714.49378	0.70930
1712.56521	0.71515
1710.63665	0.72217
1708.70808	0.73141
1706.77952	0.74600
1704.85096	0.76579
1702.92239	0.78358
1700.99383	0.81084
1699.06526	0.85797
1697.13670	0.90434
1695.20813	0.94717
1693.27957	0.97542
1691.35100	0.99771
1689.42244	1.02735
1687.49388	1.05558
1685.56531	1.08596
1683.63675	1.14102
1681.70818	1.18176
1679.77962	1.20281
1677.85105	1.22169
1675.92249	1.24567
1673.99392	1.27460
1672.06536	1.29976
1670.13680	1.32992
1668.20823	1.36271
1666.27967	1.38125
1664.35110	1.39922
1662.42254	1.42657
1660.49397	1.44918
1658.56541	1.46183
1656.63684	1.47210
1654.70828	1.48788
1652.77972	1.50741
1650.85115	1.50572
1648.92259	1.50003
1646.99402	1.50125
1645.06546	1.50795
1643.13689	1.51100
1641.20833	1.51159
1639.27976	1.51063
1637.35120	1.51075
1635.42264	1.51159
1633.49407	1.50857
1631.56551	1.50552
1629.63694	1.50282
1627.70838	1.50014
1625.77981	1.49643
1623.85125	1.48814
1621.92269	1.47283
1619.99412	1.45695
1618.06556	1.43895
1616.13699	1.41288
1614.20843	1.39089
1612.27986	1.37325
1610.35130	1.35384
1608.42273	1.33303
1606.49417	1.31426
1604.56561	1.29925
1602.63704	1.28687
1600.70848	1.27588
1598.77991	1.26669
1596.85135	1.26013
1594.92278	1.25514
1592.99422	1.25098
1591.06565	1.24881
1589.13709	1.24930
1587.20853	1.25194
1585.27996	1.25625
1583.35140	1.26246
1581.42283	1.26918
1579.49427	1.27497
1577.56570	1.28377
1575.63714	1.29882
1573.70857	1.30847
1571.78001	1.31493
1569.85145	1.32661
1567.92288	1.33817
1565.99432	1.34517
1564.06575	1.35202
1562.13719	1.35657
1560.20862	1.36263
1558.28006	1.38845
1556.35149	1.40773
1554.42293	1.41590
1552.49437	1.42145
1550.56580	1.42538
1548.63724	1.42697
1546.70867	1.42567
1544.78011	1.42336
1542.85154	1.42111
1540.92298	1.42086
1538.99441	1.42250
1537.06585	1.42066
1535.13729	1.41673
1533.20872	1.41184
1531.28016	1.40595
1529.35159	1.39993
1527.42303	1.39390
1525.49446	1.38728
1523.56590	1.38223
1521.63733	1.38195
1519.70877	1.38257
1517.78021	1.37801
1515.85164	1.37035
1513.92308	1.36121
1511.99451	1.35002
1510.06595	1.33949
1508.13738	1.32644
1506.20882	1.29344
1504.28025	1.26852
1502.35169	1.25260
1500.42313	1.23708
1498.49456	1.21950
1496.56600	1.19960
1494.63743	1.18318
1492.70887	1.17079
1490.78030	1.15733
1488.85174	1.14098
1486.92317	1.12737
1484.99461	1.11749
1483.06605	1.11037
1481.13748	1.10582
1479.20892	1.10367
1477.28035	1.10445
1475.35179	1.11013
1473.42322	1.12286
1471.49466	1.13517
1469.56610	1.13962
1467.63753	1.14209
1465.70897	1.14654
1463.78040	1.15086
1461.85184	1.15128
1459.92327	1.14973
1457.99471	1.15107
1456.06614	1.15661
1454.13758	1.15631
1452.20902	1.15243
1450.28045	1.14857
1448.35189	1.14524
1446.42332	1.14049
1444.49476	1.13406
1442.56619	1.12661
1440.63763	1.11873
1438.70906	1.11045
1436.78050	1.09957
1434.85194	1.08765
1432.92337	1.07754
1430.99481	1.06792
1429.06624	1.05929
1427.13768	1.05314
1425.20911	1.04949
1423.28055	1.04844
1421.35198	1.05007
1419.42342	1.05538
1417.49486	1.06161
1415.56629	1.06403
1413.63773	1.06561
1411.70916	1.06842
1409.78060	1.07141
1407.85203	1.07375
1405.92347	1.07722
1403.99490	1.08217
1402.06634	1.08600
1400.13778	1.08838
1398.20921	1.09011
1396.28065	1.09178
1394.35208	1.09252
1392.42352	1.09136
1390.49495	1.09086
1388.56639	1.09335
1386.63782	1.09784
1384.70926	1.10180
1382.78070	1.10566
1380.85213	1.10897
1378.92357	1.10953
1376.99500	1.10650
1375.06644	1.10053
1373.13787	1.09252
1371.20931	1.08360
1369.28074	1.07355
1367.35218	1.06235
1365.42362	1.05116
1363.49505	1.04015
1361.56649	1.03107
1359.63792	1.02503
1357.70936	1.02009
1355.78079	1.01567
1353.85223	1.01203
1351.92366	1.00898
1349.99510	1.00635
1348.06654	1.00407
1346.13797	1.00218
1344.20941	1.00065
1342.28084	0.99948
1340.35228	0.99901
1338.42371	0.99904
1336.49515	0.99932
1334.56659	1.00056
1332.63802	1.00314
1330.70946	1.00674
1328.78089	1.01032
1326.85233	1.01279
1324.92376	1.01421
1322.99520	1.01578
1321.06663	1.01817
1319.13807	1.02084
1317.20951	1.02327
1315.28094	1.02548
1313.35238	1.02724
1311.42381	1.02816
1309.49525	1.02850
1307.56668	1.02882
1305.63812	1.02911
1303.70955	1.02923
1301.78099	1.02949
1299.85243	1.02986
1297.92386	1.02977
1295.99530	1.02944
1294.06673	1.02939
1292.13817	1.02963
1290.20960	1.03002
1288.28104	1.03033
1286.35247	1.03017
1284.42391	1.02938
1282.49535	1.02827
1280.56678	1.02732
1278.63822	1.02682
1276.70965	1.02685
1274.78109	1.02742
1272.85252	1.02890
1270.92396	1.03159
1268.99539	1.03523
1267.06683	1.03947
1265.13827	1.04367
1263.20970	1.04705
1261.28114	1.04972
1259.35257	1.05285
1257.42401	1.05699
1255.49544	1.06111
1253.56688	1.06494
1251.63831	1.06905
1249.70975	1.07312
1247.78119	1.07659
1245.85262	1.07937
1243.92406	1.08123
1241.99549	1.08229
1240.06693	1.08283
1238.13836	1.08262
1236.20980	1.08132
1234.28123	1.07870
1232.35267	1.07463
1230.42411	1.06919
1228.49554	1.06290
1226.56698	1.05675
1224.63841	1.05072
1222.70985	1.04403
1220.78128	1.03696
1218.85272	1.03002
1216.92415	1.02332
1214.99559	1.01754
1213.06703	1.01340
1211.13846	1.01079
1209.20990	1.00921
1207.28133	1.00736
1205.35277	1.00338
1203.42420	0.99723
1201.49564	0.99006
1199.56708	0.98212
1197.63851	0.97379
1195.70995	0.96562
1193.78138	0.95765
1191.85282	0.95055
1189.92425	0.94493
1187.99569	0.94032
1186.06712	0.93603
1184.13856	0.93200
1182.21000	0.92914
1180.28143	0.92831
1178.35287	0.92895
1176.42430	0.93031
1174.49574	0.93227
1172.56717	0.93456
1170.63861	0.93707
1168.71004	0.94041
1166.78148	0.94542
1164.85292	0.95216
1162.92435	0.95945
1160.99579	0.96548
1159.06722	0.96851
1157.13866	0.96740
1155.21009	0.96228
1153.28153	0.95409
1151.35296	0.94352
1149.42440	0.93157
1147.49584	0.92005
1145.56727	0.91028
1143.63871	0.90292
1141.71014	0.89864
1139.78158	0.89767
1137.85301	0.89941
1135.92445	0.90318
1133.99588	0.90874
1132.06732	0.91602
1130.13876	0.92498
1128.21019	0.93565
1126.28163	0.94736
1124.35306	0.95835
1122.42450	0.96758
1120.49593	0.97574
1118.56737	0.98291
1116.63880	0.98750
1114.71024	0.98828
1112.78168	0.98575
1110.85311	0.98148
1108.92455	0.97716
1106.99598	0.97335
1105.06742	0.96961
1103.13885	0.96625
1101.21029	0.96452
1099.28172	0.96495
1097.35316	0.96735
1095.42460	0.97162
1093.49603	0.97776
1091.56747	0.98545
1089.63890	0.99411
1087.71034	1.00339
1085.78177	1.01342
1083.85321	1.02431
1081.92464	1.03513
1079.99608	1.04406
1078.06752	1.04971
1076.13895	1.05167
1074.21039	1.04981
1072.28182	1.04407
1070.35326	1.03607
1068.42469	1.02788
1066.49613	1.01933
1064.56756	1.00992
1062.63900	1.00013
1060.71044	0.98970
1058.78187	0.97850
1056.85331	0.96751
1054.92474	0.95707
1052.99618	0.94716
1051.06761	0.93876
1049.13905	0.93263
1047.21049	0.92864
1045.28192	0.92656
1043.35336	0.92646
1041.42479	0.92796
1039.49623	0.92981
1037.56766	0.93069
1035.63910	0.93008
1033.71053	0.92857
1031.78197	0.92702
1029.85341	0.92511
1027.92484	0.92167
1025.99628	0.91659
1024.06771	0.91092
1022.13915	0.90567
1020.21058	0.90141
1018.28202	0.89809
1016.35345	0.89510
1014.42489	0.89145
1012.49633	0.88559
1010.56776	0.87699
1008.63920	0.86696
1006.71063	0.85728
1004.78207	0.84899
1002.85350	0.84195
1000.92494	0.83561
998.99637	0.83029
997.06781	0.82654
995.13925	0.82391
993.21068	0.82111
991.28212	0.81729
989.35355	0.81300
987.42499	0.80931
985.49642	0.80654
983.56786	0.80447
981.63929	0.80340
979.71073	0.80350
977.78217	0.80400
975.85360	0.80385
973.92504	0.80211
971.99647	0.79845
970.06791	0.79310
968.13934	0.78614
966.21078	0.77820
964.28221	0.77082
962.35365	0.76533
960.42509	0.76243
958.49652	0.76232
956.56796	0.76348
954.63939	0.76239
952.71083	0.75689
950.78226	0.74818
948.85370	0.73879
946.92513	0.73029
944.99657	0.72310
943.06801	0.71733
941.13944	0.71290
939.21088	0.70959
937.28231	0.70730
935.35375	0.70593
933.42518	0.70500
931.49662	0.70410
929.56805	0.70350
927.63949	0.70365
925.71093	0.70474
923.78236	0.70685
921.85380	0.70977
919.92523	0.71270
917.99667	0.71485
916.06810	0.71627
914.13954	0.71764
912.21098	0.71921
910.28241	0.72071
908.35385	0.72230
906.42528	0.72443
904.49672	0.72733
902.56815	0.73076
900.63959	0.73393
898.71102	0.73635
896.78246	0.73812
894.85390	0.73905
892.92533	0.73913
890.99677	0.73913
889.06820	0.73956
887.13964	0.74020
885.21107	0.74066
883.28251	0.74064
881.35394	0.74024
879.42538	0.73986
877.49682	0.74001
875.56825	0.74054
873.63969	0.74066
871.71112	0.74059
869.78256	0.74082
867.85399	0.74118
865.92543	0.74192
863.99686	0.74327
862.06830	0.74479
860.13974	0.74610
858.21117	0.74733
856.28261	0.74888
854.35404	0.75063
852.42548	0.75196
850.49691	0.75260
848.56835	0.75285
846.63978	0.75308
844.71122	0.75355
842.78266	0.75418
840.85409	0.75512
838.92553	0.75674
836.99696	0.75875
835.06840	0.76086
833.13983	0.76347
831.21127	0.76666
829.28270	0.76958
827.35414	0.77182
825.42558	0.77431
823.49701	0.77760
821.56845	0.78081
819.63988	0.78313
817.71132	0.78528
815.78275	0.78821
813.85419	0.79199
811.92562	0.79608
809.99706	0.79976
808.06850	0.80306
806.13993	0.80592
804.21137	0.80766
802.28280	0.80850
800.35424	0.81006
798.42567	0.81317
796.49711	0.81646
794.56854	0.81835
792.63998	0.81926
790.71142	0.82064
788.78285	0.82266
786.85429	0.82455
784.92572	0.82616
782.99716	0.82744
781.06859	0.82832
779.14003	0.82878
777.21147	0.82888
775.28290	0.82863
773.35434	0.82811
771.42577	0.82807
769.49721	0.82855
767.56864	0.82884
765.64008	0.82905
763.71151	0.82941
761.78295	0.82988
759.85439	0.83040
757.92582	0.83115
755.99726	0.83213
754.06869	0.83321
752.14013	0.83450
750.21156	0.83621
748.28300	0.83863
746.35443	0.84125
744.42587	0.84283
742.49731	0.84319
740.56874	0.84353
738.64018	0.84504
736.71161	0.84758
734.78305	0.85002
732.85448	0.85239
730.92592	0.85537
728.99735	0.85839
727.06879	0.86117
725.14023	0.86464
723.21166	0.86952
721.28310	0.87555
719.35453	0.88058
717.42597	0.88290
715.49740	0.88364
713.56884	0.88485
711.64027	0.88792
709.71171	0.89244
707.78315	0.89705
705.85458	0.90188
703.92602	0.90682
701.99745	0.91052
700.06889	0.91352
698.14032	0.91691
696.21176	0.91942
694.28319	0.92100
692.35463	0.92394
690.42607	0.92758
688.49750	0.92898
686.56894	0.92856
684.64037	0.92883
682.71181	0.93062
680.78324	0.93311
678.85468	0.93450
676.92611	0.93431
674.99755	0.93406
673.06899	0.93501
671.14042	0.93765
669.21186	0.94070
667.28329	0.93892
665.35473	0.93571
663.42616	0.93504
661.49760	0.93556
659.56903	0.93600
657.64047	0.93675
655.71191	0.93741
653.78334	0.93651
651.85478	0.93482
649.92621	0.93329
647.99765	0.93112
646.06908	0.92890
644.14052	0.92811
642.21195	0.92761
640.28339	0.92629
638.35483	0.92580
636.42626	0.92614
634.49770	0.92551
632.56913	0.92343
630.64057	0.92011
628.71200	0.91699
626.78344	0.91570
624.85488	0.91550
622.92631	0.91583
620.99775	0.91673
619.06918	0.91608
617.14062	0.91324
615.21205	0.91109
613.28349	0.91021
611.35492	0.90933
609.42636	0.90950
607.49780	0.91170
605.56923	0.91347
603.64067	0.91420
601.71210	0.91766
599.78354	0.92291
