3997.91406	1.43295
3995.98550	1.43270
3994.05693	1.42737
3992.12837	1.42349
3990.19980	1.42554
3988.27124	1.42520
3986.34268	1.41822
3984.41411	1.41073
3982.48555	1.40804
3980.55698	1.40865
3978.62842	1.40928
3976.69985	1.40999
3974.77129	1.41102
3972.84272	1.41306
3970.91416	1.41516
3968.98560	1.41263
3967.05703	1.40640
3965.12847	1.40360
3963.19990	1.40739
3961.27134	1.41221
3959.34277	1.41099
3957.41421	1.40688
3955.48564	1.40570
3953.55708	1.40471
3951.62852	1.40177
3949.69995	1.40256
3947.77139	1.40711
3945.84282	1.40981
3943.91426	1.40992
3941.98569	1.40268
3940.05713	1.39022
3938.12856	1.38625
3936.20000	1.39227
3934.27144	1.39933
3932.34287	1.40418
3930.41431	1.40389
3928.48574	1.39884
3926.55718	1.39761
3924.62861	1.40191
3922.70005	1.40396
3920.77148	1.39956
3918.84292	1.39273
3916.91436	1.38898
3914.98579	1.38407
3913.05723	1.37672
3911.12866	1.37300
3909.20010	1.37139
3907.27153	1.36821
3905.34297	1.36916
3903.41440	1.37804
3901.48584	1.38457
3899.55728	1.38699
3897.62871	1.38755
3895.70015	1.38405
3893.77158	1.37820
3891.84302	1.37384
3889.91445	1.36878
3887.98589	1.36379
3886.05733	1.36915
3884.12876	1.38178
3882.20020	1.38629
3880.27163	1.38335
3878.34307	1.37619
3876.41450	1.36803
3874.48594	1.35976
3872.55737	1.35187
3870.62881	1.34924
3868.70025	1.34876
3866.77168	1.34669
3864.84312	1.35102
3862.91455	1.35787
3860.98599	1.35548
3859.05742	1.34870
3857.12886	1.34497
3855.20029	1.35372
3853.27173	1.37473
3851.34317	1.37404
3849.41460	1.36434
3847.48604	1.35680
3845.55747	1.35269
3843.62891	1.35253
3841.70034	1.35577
3839.77178	1.36470
3837.84321	1.37307
3835.91465	1.37051
3833.98609	1.36296
3832.05752	1.35267
3830.12896	1.34302
3828.20039	1.34021
3826.27183	1.34314
3824.34326	1.34483
3822.41470	1.34818
3820.48613	1.35616
3818.55757	1.35791
3816.62901	1.35890
3814.70044	1.35394
3812.77188	1.33896
3810.84331	1.32567
3808.91475	1.32509
3806.98618	1.33941
3805.05762	1.34773
3803.12905	1.35016
3801.20049	1.35347
3799.27193	1.34203
3797.34336	1.33353
3795.41480	1.33693
3793.48623	1.33797
3791.55767	1.33517
3789.62910	1.33269
3787.70054	1.32922
3785.77197	1.32522
3783.84341	1.32385
3781.91485	1.32430
3779.98628	1.32364
3778.05772	1.32094
3776.12915	1.31781
3774.20059	1.31474
3772.27202	1.31028
3770.34346	1.30666
3768.41489	1.30908
3766.48633	1.31318
3764.55777	1.31233
3762.62920	1.30780
3760.70064	1.30590
3758.77207	1.31011
3756.84351	1.31328
3754.91494	1.31012
3752.98638	1.30690
3751.05781	1.31636
3749.12925	1.32345
3747.20069	1.31408
3745.27212	1.30444
3743.34356	1.30818
3741.41499	1.31184
3739.48643	1.30553
3737.55786	1.29852
3735.62930	1.30774
3733.70074	1.32355
3731.77217	1.32255
3729.84361	1.31164
3727.91504	1.30305
3725.98648	1.30479
3724.05791	1.31146
3722.12935	1.31082
3720.20078	1.30293
3718.27222	1.29539
3716.34366	1.29218
3714.41509	1.29336
3712.48653	1.30016
3710.55796	1.30680
3708.62940	1.30552
3706.70083	1.30185
3704.77227	1.29826
3702.84370	1.29490
3700.91514	1.29207
3698.98658	1.29150
3697.05801	1.29057
3695.12945	1.28610
3693.20088	1.28215
3691.27232	1.28367
3689.34375	1.29248
3687.41519	1.29838
3685.48662	1.29699
3683.55806	1.29569
3681.62950	1.29809
3679.70093	1.30169
3677.77237	1.30358
3675.84380	1.30526
3673.91524	1.30491
3671.98667	1.30710
3670.05811	1.31885
3668.12954	1.32500
3666.20098	1.32491
3664.27242	1.32897
3662.34385	1.33342
3660.41529	1.33214
3658.48672	1.33001
3656.55816	1.33824
3654.62959	1.34932
3652.70103	1.34931
3650.77246	1.34693
3648.84390	1.36277
3646.91534	1.37731
3644.98677	1.37931
3643.05821	1.38161
3641.12964	1.38846
3639.20108	1.39528
3637.27251	1.39699
3635.34395	1.39733
3633.41538	1.40073
3631.48682	1.41096
3629.55826	1.43971
3627.62969	1.46162
3625.70113	1.45687
3623.77256	1.45202
3621.84400	1.44982
3619.91543	1.44831
3617.98687	1.45550
3616.05830	1.47254
3614.12974	1.49370
3612.20118	1.50668
3610.27261	1.50579
3608.34405	1.50846
3606.41548	1.52109
3604.48692	1.52876
3602.55835	1.53267
3600.62979	1.53969
3598.70123	1.54283
3596.77266	1.53847
3594.84410	1.53758
3592.91553	1.54362
3590.98697	1.54895
3589.05840	1.55987
3587.12984	1.58230
3585.20127	1.59261
3583.27271	1.59001
3581.34415	1.58568
3579.41558	1.58309
3577.48702	1.58944
3575.55845	1.60429
3573.62989	1.61809
3571.70132	1.62795
3569.77276	1.63377
3567.84419	1.63826
3565.91563	1.64441
3563.98707	1.64663
3562.05850	1.64660
3560.12994	1.64545
3558.20137	1.64530
3556.27281	1.64773
3554.34424	1.65050
3552.41568	1.65724
3550.48711	1.66747
3548.55855	1.67556
3546.62999	1.68870
3544.70142	1.70524
3542.77286	1.70789
3540.84429	1.70736
3538.91573	1.71823
3536.98716	1.72969
3535.05860	1.72744
3533.13003	1.71715
3531.20147	1.70904
3529.27291	1.71125
3527.34434	1.72673
3525.41578	1.74333
3523.48721	1.75253
3521.55865	1.75622
3519.63008	1.75477
3517.70152	1.75574
3515.77295	1.76779
3513.84439	1.78562
3511.91583	1.79547
3509.98726	1.79926
3508.05870	1.81045
3506.13013	1.81750
3504.20157	1.81348
3502.27300	1.81567
3500.34444	1.82108
3498.41587	1.81845
3496.48731	1.81565
3494.55875	1.82085
3492.63018	1.83310
3490.70162	1.84934
3488.77305	1.86258
3486.84449	1.85986
3484.91592	1.84749
3482.98736	1.85473
3481.05879	1.88041
3479.13023	1.88171
3477.20167	1.86430
3475.27310	1.86536
3473.34454	1.87256
3471.41597	1.86322
3469.48741	1.86226
3467.55884	1.88164
3465.63028	1.89125
3463.70171	1.88402
3461.77315	1.87888
3459.84459	1.87470
3457.91602	1.86683
3455.98746	1.86371
3454.05889	1.86923
3452.13033	1.87655
3450.20176	1.88377
3448.27320	1.89835
3446.34464	1.92035
3444.41607	1.93450
3442.48751	1.93228
3440.55894	1.92270
3438.63038	1.91684
3436.70181	1.91632
3434.77325	1.91898
3432.84468	1.92103
3430.91612	1.91502
3428.98756	1.90775
3427.05899	1.91179
3425.13043	1.92033
3423.20186	1.92595
3421.27330	1.92346
3419.34473	1.90682
3417.41617	1.89322
3415.48760	1.89819
3413.55904	1.91271
3411.63048	1.92049
3409.70191	1.92132
3407.77335	1.92452
3405.84478	1.92749
3403.91622	1.92698
3401.98765	1.93061
3400.05909	1.93396
3398.13052	1.92720
3396.20196	1.92188
3394.27340	1.92287
3392.34483	1.91629
3390.41627	1.90868
3388.48770	1.91570
3386.55914	1.92962
3384.63057	1.93826
3382.70201	1.94065
3380.77344	1.93715
3378.84488	1.93143
3376.91632	1.92977
3374.98775	1.94176
3373.05919	1.96369
3371.13062	1.96953
3369.20206	1.95864
3367.27349	1.94626
3365.34493	1.93412
3363.41636	1.93183
3361.48780	1.93570
3359.55924	1.92869
3357.63067	1.91525
3355.70211	1.90969
3353.77354	1.91641
3351.84498	1.92678
3349.91641	1.92971
3347.98785	1.93232
3346.05928	1.95167
3344.13072	1.97841
3342.20216	1.97793
3340.27359	1.95226
3338.34503	1.93309
3336.41646	1.92435
3334.48790	1.92263
3332.55933	1.93295
3330.63077	1.94653
3328.70220	1.95797
3326.77364	1.97195
3324.84508	1.97681
3322.91651	1.95807
3320.98795	1.93189
3319.05938	1.92936
3317.13082	1.95457
3315.20225	1.98101
3313.27369	1.98898
3311.34513	1.98783
3309.41656	1.98840
3307.48800	1.98489
3305.55943	1.97786
3303.63087	1.97366
3301.70230	1.96811
3299.77374	1.96020
3297.84517	1.95726
3295.91661	1.95911
3293.98805	1.96184
3292.05948	1.96860
3290.13092	1.97412
3288.20235	1.97082
3286.27379	1.96729
3284.34522	1.96903
3282.41666	1.97111
3280.48809	1.97073
3278.55953	1.96506
3276.63097	1.95347
3274.70240	1.95356
3272.77384	1.97371
3270.84527	1.98614
3268.91671	1.97305
3266.98814	1.94983
3265.05958	1.93189
3263.13101	1.92050
3261.20245	1.91171
3259.27389	1.91068
3257.34532	1.91720
3255.41676	1.91660
3253.48819	1.90682
3251.55963	1.90185
3249.63106	1.90543
3247.70250	1.91280
3245.77393	1.92205
3243.84537	1.92202
3241.91681	1.90396
3239.98824	1.88739
3238.05968	1.88971
3236.13111	1.89815
3234.20255	1.89633
3232.27398	1.88960
3230.34542	1.88287
3228.41685	1.87133
3226.48829	1.86228
3224.55973	1.86406
3222.63116	1.86460
3220.70260	1.85777
3218.77403	1.85052
3216.84547	1.84033
3214.91690	1.82939
3212.98834	1.82578
3211.05977	1.82939
3209.13121	1.83489
3207.20265	1.83493
3205.27408	1.82837
3203.34552	1.82396
3201.41695	1.83061
3199.48839	1.84192
3197.55982	1.84037
3195.63126	1.82466
3193.70269	1.80956
3191.77413	1.80479
3189.84557	1.80506
3187.91700	1.79743
3185.98844	1.78224
3184.05987	1.77318
3182.13131	1.77512
3180.20274	1.77989
3178.27418	1.78080
3176.34562	1.77561
3174.41705	1.76885
3172.48849	1.76679
3170.55992	1.76476
3168.63136	1.75966
3166.70279	1.75477
3164.77423	1.74917
3162.84566	1.74397
3160.91710	1.73967
3158.98854	1.73463
3157.05997	1.73518
3155.13141	1.74175
3153.20284	1.74320
3151.27428	1.73856
3149.34571	1.73405
3147.41715	1.73097
3145.48858	1.73060
3143.56002	1.73201
3141.63146	1.73021
3139.70289	1.72166
3137.77433	1.71104
3135.84576	1.70786
3133.91720	1.71446
3131.98863	1.72036
3130.06007	1.71485
3128.13150	1.70663
3126.20294	1.70745
3124.27438	1.71072
3122.34581	1.70543
3120.41725	1.69326
3118.48868	1.68638
3116.56012	1.69166
3114.63155	1.69765
3112.70299	1.69187
3110.77442	1.68249
3108.84586	1.68100
3106.91730	1.68669
3104.98873	1.69417
3103.06017	1.69661
3101.13160	1.69147
3099.20304	1.68715
3097.27447	1.68847
3095.34591	1.69363
3093.41734	1.69848
3091.48878	1.69388
3089.56022	1.68232
3087.63165	1.67506
3085.70309	1.67347
3083.77452	1.67772
3081.84596	1.68444
3079.91739	1.68475
3077.98883	1.68121
3076.06026	1.67822
3074.13170	1.67273
3072.20314	1.66418
3070.27457	1.65486
3068.34601	1.65026
3066.41744	1.65286
3064.48888	1.65246
3062.56031	1.64494
3060.63175	1.63979
3058.70318	1.63788
3056.77462	1.63486
3054.84606	1.63145
3052.91749	1.62857
3050.98893	1.62716
3049.06036	1.62459
3047.13180	1.61767
3045.20323	1.61172
3043.27467	1.60974
3041.34610	1.60620
3039.41754	1.59853
3037.48898	1.59077
3035.56041	1.58690
3033.63185	1.58602
3031.70328	1.58310
3029.77472	1.57717
3027.84615	1.57328
3025.91759	1.57430
3023.98903	1.57752
3022.06046	1.57887
3020.13190	1.57635
3018.20333	1.57111
3016.27477	1.56848
3014.34620	1.56814
3012.41764	1.56341
3010.48907	1.55879
3008.56051	1.56012
3006.63195	1.55959
3004.70338	1.55388
3002.77482	1.55005
3000.84625	1.54884
2998.91769	1.54645
2996.98912	1.54493
2995.06056	1.54713
2993.13199	1.54981
2991.20343	1.54940
2989.27487	1.54884
2987.34630	1.55168
2985.41774	1.55571
2983.48917	1.55781
2981.56061	1.56024
2979.63204	1.56645
2977.70348	1.57538
2975.77491	1.58481
2973.84635	1.59252
2971.91779	1.59838
2969.98922	1.60325
2968.06066	1.60470
2966.13209	1.60712
2964.20353	1.61597
2962.27496	1.62437
2960.34640	1.62644
2958.41783	1.62331
2956.48927	1.61749
2954.56071	1.61272
2952.63214	1.60871
2950.70358	1.60244
2948.77501	1.59685
2946.84645	1.59633
2944.91788	1.60066
2942.98932	1.60867
2941.06075	1.61717
2939.13219	1.62539
2937.20363	1.63720
2935.27506	1.64885
2933.34650	1.65633
2931.41793	1.66405
2929.48937	1.67198
2927.56080	1.67560
2925.63224	1.67754
2923.70367	1.68458
2921.77511	1.69347
2919.84655	1.69300
2917.91798	1.67983
2915.98942	1.66061
2914.06085	1.64182
2912.13229	1.62423
2910.20372	1.60779
2908.27516	1.59401
2906.34659	1.58140
2904.41803	1.56717
2902.48947	1.55420
2900.56090	1.54688
2898.63234	1.54221
2896.70377	1.53652
2894.77521	1.53312
2892.84664	1.53226
2890.91808	1.52787
2888.98952	1.52137
2887.06095	1.52004
2885.13239	1.52222
2883.20382	1.52235
2881.27526	1.52159
2879.34669	1.52178
2877.41813	1.52119
2875.48956	1.51881
2873.56100	1.51427
2871.63244	1.50874
2869.70387	1.50411
2867.77531	1.49954
2865.84674	1.49565
2863.91818	1.49393
2861.98961	1.49462
2860.06105	1.49952
2858.13248	1.50732
2856.20392	1.51492
2854.27536	1.52437
2852.34679	1.53521
2850.41823	1.53852
2848.48966	1.52625
2846.56110	1.49974
2844.63253	1.46830
2842.70397	1.44239
2840.77540	1.42627
2838.84684	1.41610
2836.91828	1.40608
2834.98971	1.39683
2833.06115	1.39178
2831.13258	1.38868
2829.20402	1.38411
2827.27545	1.37763
2825.34689	1.37012
2823.41832	1.36420
2821.48976	1.36222
2819.56120	1.36343
2817.63263	1.36400
2815.70407	1.36095
2813.77550	1.35586
2811.84694	1.35275
2809.91837	1.35251
2807.98981	1.35114
2806.06124	1.34549
2804.13268	1.33813
2802.20412	1.33333
2800.27555	1.33085
2798.34699	1.32795
2796.41842	1.32439
2794.48986	1.32080
2792.56129	1.31744
2790.63273	1.31523
2788.70416	1.31453
2786.77560	1.31480
2784.84704	1.31435
2782.91847	1.31147
2780.98991	1.30722
2779.06134	1.30346
2777.13278	1.29986
2775.20421	1.29680
2773.27565	1.29594
2771.34708	1.29544
2769.41852	1.29201
2767.48996	1.28701
2765.56139	1.28295
2763.63283	1.27969
2761.70426	1.27818
2759.77570	1.27916
2757.84713	1.28025
2755.91857	1.27990
2753.99001	1.27863
2752.06144	1.27697
2750.13288	1.27536
2748.20431	1.27413
2746.27575	1.27367
2744.34718	1.27316
2742.41862	1.27065
2740.49005	1.26707
2738.56149	1.26505
2736.63293	1.26433
2734.70436	1.26311
2732.77580	1.26035
2730.84723	1.25684
2728.91867	1.25413
2726.99010	1.25098
2725.06154	1.24641
2723.13297	1.24350
2721.20441	1.24432
2719.27585	1.24635
2717.34728	1.24685
2715.41872	1.24624
2713.49015	1.24557
2711.56159	1.24432
2709.63302	1.24128
2707.70446	1.23740
2705.77589	1.23545
2703.84733	1.23526
2701.91877	1.23431
2699.99020	1.23172
2698.06164	1.22845
2696.13307	1.22572
2694.20451	1.22363
2692.27594	1.22146
2690.34738	1.21956
2688.41881	1.21918
2686.49025	1.21943
2684.56169	1.21763
2682.63312	1.21384
2680.70456	1.21114
2678.77599	1.21133
2676.84743	1.21288
2674.91886	1.21337
2672.99030	1.21264
2671.06173	1.21150
2669.13317	1.21042
2667.20461	1.20970
2665.27604	1.20802
2663.34748	1.20471
2661.41891	1.20181
2659.49035	1.19993
2657.56178	1.19851
2655.63322	1.19836
2653.70465	1.19806
2651.77609	1.19598
2649.84753	1.19483
2647.91896	1.19553
2645.99040	1.19508
2644.06183	1.19288
2642.13327	1.19048
2640.20470	1.18879
2638.27614	1.18793
2636.34757	1.18703
2634.41901	1.18581
2632.49045	1.18424
2630.56188	1.18148
2628.63332	1.17785
2626.70475	1.17541
2624.77619	1.17526
2622.84762	1.17605
2620.91906	1.17674
2618.99049	1.17733
2617.06193	1.17631
2615.13337	1.17325
2613.20480	1.17032
2611.27624	1.16876
2609.34767	1.16848
2607.41911	1.16884
2605.49054	1.16870
2603.56198	1.16777
2601.63342	1.16636
2599.70485	1.16415
2597.77629	1.16117
2595.84772	1.15815
2593.91916	1.15576
2591.99059	1.15457
2590.06203	1.15460
2588.13346	1.15459
2586.20490	1.15366
2584.27634	1.15255
2582.34777	1.15173
2580.41921	1.15031
2578.49064	1.14788
2576.56208	1.14532
2574.63351	1.14289
2572.70495	1.14069
2570.77638	1.13969
2568.84782	1.13932
2566.91926	1.13793
2564.99069	1.13540
2563.06213	1.13270
2561.13356	1.13074
2559.20500	1.12938
2557.27643	1.12773
2555.34787	1.12611
2553.41930	1.12522
2551.49074	1.12465
2549.56218	1.12364
2547.63361	1.12216
2545.70505	1.12058
2543.77648	1.11883
2541.84792	1.11673
2539.91935	1.11441
2537.99079	1.11230
2536.06222	1.11114
2534.13366	1.11086
2532.20510	1.11025
2530.27653	1.10881
2528.34797	1.10751
2526.41940	1.10709
2524.49084	1.10666
2522.56227	1.10529
2520.63371	1.10361
2518.70514	1.10227
2516.77658	1.10129
2514.84802	1.10061
2512.91945	1.10007
2510.99089	1.09935
2509.06232	1.09789
2507.13376	1.09535
2505.20519	1.09256
2503.27663	1.09053
2501.34806	1.08944
2499.41950	1.08861
2497.49094	1.08733
2495.56237	1.08552
2493.63381	1.08341
2491.70524	1.08180
2489.77668	1.08134
2487.84811	1.08104
2485.91955	1.08002
2483.99098	1.07853
2482.06242	1.07670
2480.13386	1.07507
2478.20529	1.07443
2476.27673	1.07479
2474.34816	1.07467
2472.41960	1.07262
2470.49103	1.06991
2468.56247	1.06831
2466.63391	1.06708
2464.70534	1.06487
2462.77678	1.06212
2460.84821	1.05999
2458.91965	1.05865
2456.99108	1.05786
2455.06252	1.05726
2453.13395	1.05625
2451.20539	1.05471
2449.27683	1.05323
2447.34826	1.05225
2445.41970	1.05178
2443.49113	1.05140
2441.56257	1.05026
2439.63400	1.04820
2437.70544	1.04663
2435.77687	1.04654
2433.84831	1.04699
2431.91975	1.04651
2429.99118	1.04502
2428.06262	1.04346
2426.13405	1.04212
2424.20549	1.04070
2422.27692	1.03954
2420.34836	1.03896
2418.41979	1.03802
2416.49123	1.03667
2414.56267	1.03627
2412.63410	1.03634
2410.70554	1.03545
2408.77697	1.03388
2406.84841	1.03244
2404.91984	1.03123
2402.99128	1.03004
2401.06271	1.02881
2399.13415	1.02770
2397.20559	1.02694
2395.27702	1.02623
2393.34846	1.02470
2391.41989	1.02247
2389.49133	1.02050
2387.56276	1.01945
2385.63420	1.01958
2383.70563	1.02088
2381.77707	1.02323
2379.84851	1.02654
2377.91994	1.03056
2375.99138	1.03487
2374.06281	1.03886
2372.13425	1.04374
2370.20568	1.05274
2368.27712	1.06492
2366.34855	1.07493
2364.41999	1.07953
2362.49143	1.07714
2360.56286	1.06799
2358.63430	1.05770
2356.70573	1.05388
2354.77717	1.05425
2352.84860	1.05094
2350.92004	1.04438
2348.99147	1.03857
2347.06291	1.03491
2345.13435	1.03482
2343.20578	1.04087
2341.27722	1.04998
2339.34865	1.05140
2337.42009	1.04378
2335.49152	1.03711
2333.56296	1.03365
2331.63440	1.03164
2329.70583	1.03253
2327.77727	1.03253
2325.84870	1.02788
2323.92014	1.02047
2321.99157	1.01423
2320.06301	1.01226
2318.13444	1.01201
2316.20588	1.00916
2314.27732	1.00478
2312.34875	1.00219
2310.42019	1.00098
2308.49162	0.99858
2306.56306	0.99455
2304.63449	0.99062
2302.70593	0.98821
2300.77736	0.98636
2298.84880	0.98353
2296.92024	0.98016
2294.99167	0.97731
2293.06311	0.97531
2291.13454	0.97401
2289.20598	0.97285
2287.27741	0.97153
2285.34885	0.97042
2283.42028	0.96983
2281.49172	0.96924
2279.56316	0.96816
2277.63459	0.96686
2275.70603	0.96557
2273.77746	0.96424
2271.84890	0.96294
2269.92033	0.96168
2267.99177	0.96045
2266.06320	0.95914
2264.13464	0.95803
2262.20608	0.95744
2260.27751	0.95686
2258.34895	0.95608
2256.42038	0.95565
2254.49182	0.95551
2252.56325	0.95522
2250.63469	0.95502
2248.70612	0.95521
2246.77756	0.95469
2244.84900	0.95293
2242.92043	0.95145
2240.99187	0.95083
2239.06330	0.95029
2237.13474	0.94933
2235.20617	0.94796
2233.27761	0.94681
2231.34904	0.94584
2229.42048	0.94433
2227.49192	0.94270
2225.56335	0.94177
2223.63479	0.94118
2221.70622	0.94060
2219.77766	0.94010
2217.84909	0.93957
2215.92053	0.93942
2213.99196	0.93983
2212.06340	0.93987
2210.13484	0.93898
2208.20627	0.93783
2206.27771	0.93720
2204.34914	0.93661
2202.42058	0.93560
2200.49201	0.93451
2198.56345	0.93320
2196.63488	0.93193
2194.70632	0.93134
2192.77776	0.93083
2190.84919	0.92989
2188.92063	0.92907
2186.99206	0.92860
2185.06350	0.92823
2183.13493	0.92807
2181.20637	0.92817
2179.27781	0.92811
2177.34924	0.92776
2175.42068	0.92719
2173.49211	0.92620
2171.56355	0.92497
2169.63498	0.92420
2167.70642	0.92395
2165.77785	0.92347
2163.84929	0.92226
2161.92073	0.92062
2159.99216	0.91930
2158.06360	0.91852
2156.13503	0.91767
2154.20647	0.91648
2152.27790	0.91535
2150.34934	0.91421
2148.42077	0.91274
2146.49221	0.91112
2144.56365	0.90973
2142.63508	0.90890
2140.70652	0.90879
2138.77795	0.90874
2136.84939	0.90797
2134.92082	0.90661
2132.99226	0.90521
2131.06369	0.90432
2129.13513	0.90412
2127.20657	0.90376
2125.27800	0.90289
2123.34944	0.90215
2121.42087	0.90150
2119.49231	0.90057
2117.56374	0.89931
2115.63518	0.89767
2113.70661	0.89603
2111.77805	0.89466
2109.84949	0.89331
2107.92092	0.89194
2105.99236	0.89065
2104.06379	0.88961
2102.13523	0.88901
2100.20666	0.88856
2098.27810	0.88778
2096.34953	0.88652
2094.42097	0.88514
2092.49241	0.88409
2090.56384	0.88336
2088.63528	0.88266
2086.70671	0.88193
2084.77815	0.88118
2082.84958	0.88005
2080.92102	0.87851
2078.99245	0.87709
2077.06389	0.87573
2075.13533	0.87422
2073.20676	0.87304
2071.27820	0.87228
2069.34963	0.87126
2067.42107	0.86995
2065.49250	0.86883
2063.56394	0.86781
2061.63537	0.86651
2059.70681	0.86509
2057.77825	0.86434
2055.84968	0.86444
2053.92112	0.86442
2051.99255	0.86351
2050.06399	0.86165
2048.13542	0.85937
2046.20686	0.85763
2044.27830	0.85671
2042.34973	0.85600
2040.42117	0.85499
2038.49260	0.85368
2036.56404	0.85190
2034.63547	0.84981
2032.70691	0.84822
2030.77834	0.84730
2028.84978	0.84655
2026.92122	0.84579
2024.99265	0.84474
2023.06409	0.84324
2021.13552	0.84177
2019.20696	0.84079
2017.27839	0.83984
2015.34983	0.83834
2013.42126	0.83676
2011.49270	0.83577
2009.56414	0.83502
2007.63557	0.83350
2005.70701	0.83148
2003.77844	0.83018
2001.84988	0.82954
1999.92131	0.82873
1997.99275	0.82761
1996.06418	0.82642
1994.13562	0.82570
1992.20706	0.82565
1990.27849	0.82518
1988.34993	0.82395
1986.42136	0.82268
1984.49280	0.82153
1982.56423	0.82040
1980.63567	0.81924
1978.70710	0.81807
1976.77854	0.81685
1974.84998	0.81553
1972.92141	0.81418
1970.99285	0.81284
1969.06428	0.81196
1967.13572	0.81174
1965.20715	0.81111
1963.27859	0.80964
1961.35002	0.80855
1959.42146	0.80816
1957.49290	0.80743
1955.56433	0.80625
1953.63577	0.80516
1951.70720	0.80410
1949.77864	0.80296
1947.85007	0.80191
1945.92151	0.80118
1943.99294	0.80076
1942.06438	0.79995
1940.13582	0.79832
1938.20725	0.79682
1936.27869	0.79597
1934.35012	0.79523
1932.42156	0.79439
1930.49299	0.79347
1928.56443	0.79232
1926.63586	0.79102
1924.70730	0.79029
1922.77874	0.79017
1920.85017	0.78953
1918.92161	0.78893
1916.99304	0.78896
1915.06448	0.78827
1913.13591	0.78704
1911.20735	0.78639
1909.27878	0.78619
1907.35022	0.78567
1905.42166	0.78489
1903.49309	0.78427
1901.56453	0.78372
1899.63596	0.78315
1897.70740	0.78286
1895.77883	0.78290
1893.85027	0.78240
1891.92171	0.78137
1889.99314	0.78108
1888.06458	0.78104
1886.13601	0.78034
1884.20745	0.77954
1882.27888	0.77879
1880.35032	0.77821
1878.42175	0.77796
1876.49319	0.77776
1874.56463	0.77730
1872.63606	0.77661
1870.70750	0.77663
1868.77893	0.77818
1866.85037	0.77866
1864.92180	0.77693
1862.99324	0.77519
1861.06467	0.77436
1859.13611	0.77402
1857.20755	0.77358
1855.27898	0.77295
1853.35042	0.77231
1851.42185	0.77160
1849.49329	0.77096
1847.56472	0.77059
1845.63616	0.77114
1843.70759	0.77258
1841.77903	0.77250
1839.85047	0.77117
1837.92190	0.77035
1835.99334	0.77010
1834.06477	0.76947
1832.13621	0.76912
1830.20764	0.77032
1828.27908	0.77098
1826.35051	0.77004
1824.42195	0.76932
1822.49339	0.76853
1820.56482	0.76757
1818.63626	0.76716
1816.70769	0.76686
1814.77913	0.76653
1812.85056	0.76697
1810.92200	0.76831
1808.99343	0.76916
1807.06487	0.76895
1805.13631	0.76842
1803.20774	0.76837
1801.27918	0.76973
1799.35061	0.77134
1797.42205	0.77138
1795.49348	0.77052
1793.56492	0.77062
1791.63635	0.77198
1789.70779	0.77133
1787.77923	0.76946
1785.85066	0.76878
1783.92210	0.76914
1781.99353	0.76968
1780.06497	0.77044
1778.13640	0.77072
1776.20784	0.77037
1774.27927	0.77117
1772.35071	0.77497
1770.42215	0.77809
1768.49358	0.77813
1766.56502	0.77729
1764.63645	0.77715
1762.70789	0.77968
1760.77932	0.78373
1758.85076	0.78594
1756.92220	0.78851
1754.99363	0.79151
1753.06507	0.79453
1751.13650	0.80188
1749.20794	0.81392
1747.27937	0.82292
1745.35081	0.82861
1743.42224	0.83390
1741.49368	0.83974
1739.56512	0.84567
1737.63655	0.84870
1735.70799	0.85049
1733.77942	0.85713
1731.85086	0.86267
1729.92229	0.86403
1727.99373	0.86560
1726.06516	0.86836
1724.13660	0.87324
1722.20804	0.87842
1720.27947	0.88295
1718.35091	0.89292
1716.42234	0.91296
1714.49378	0.92663
1712.56521	0.93383
1710.63665	0.94192
1708.70808	0.95333
1706.77952	0.97309
1704.85096	1.00050
1702.92239	1.02418
1700.99383	1.05892
1699.06526	1.12025
1697.13670	1.18295
1695.20813	1.24411
1693.27957	1.28662
1691.35100	1.32060
1689.42244	1.36434
1687.49388	1.40481
1685.56531	1.44568
1683.63675	1.51766
1681.70818	1.57039
1679.77962	1.59425
1677.85105	1.61279
1675.92249	1.63552
1673.99392	1.66384
1672.06536	1.69085
1670.13680	1.72374
1668.20823	1.75041
1666.27967	1.75415
1664.35110	1.75856
1662.42254	1.77619
1660.49397	1.78953
1658.56541	1.79154
1656.63684	1.78972
1654.70828	1.78731
1652.77972	1.78390
1650.85115	1.78023
1648.92259	1.77686
1646.99402	1.77801
1645.06546	1.78383
1643.13689	1.78324
1641.20833	1.77770
1639.27976	1.77067
1637.35120	1.76536
1635.42264	1.76052
1633.49407	1.75610
1631.56551	1.75350
1629.63694	1.74845
1627.70838	1.73821
1625.77981	1.72520
1623.85125	1.71178
1621.92269	1.69549
1619.99412	1.67842
1618.06556	1.65944
1616.13699	1.63301
1614.20843	1.60826
1612.27986	1.58803
1610.35130	1.56943
1608.42273	1.55052
1606.49417	1.52990
1604.56561	1.51026
1602.63704	1.49503
1600.70848	1.48555
1598.77991	1.47921
1596.85135	1.47352
1594.92278	1.46912
1592.99422	1.46724
1591.06565	1.46728
1589.13709	1.46899
1587.20853	1.47373
1585.27996	1.48152
1583.35140	1.49120
1581.42283	1.50159
1579.49427	1.51121
1577.56570	1.52422
1575.63714	1.54704
1573.70857	1.56217
1571.78001	1.57014
1569.85145	1.58613
1567.92288	1.60605
1565.99432	1.61954
1564.06575	1.63016
1562.13719	1.63746
1560.20862	1.64892
1558.28006	1.67477
1556.35149	1.68239
1554.42293	1.68365
1552.49437	1.68428
1550.56580	1.68284
1548.63724	1.68114
1546.70867	1.67968
1544.78011	1.67542
1542.85154	1.66922
1540.92298	1.67702
1538.99441	1.67760
1537.06585	1.66005
1535.13729	1.64348
1533.20872	1.63263
1531.28016	1.62706
1529.35159	1.62105
1527.42303	1.61158
1525.49446	1.60133
1523.56590	1.59594
1521.63733	1.59463
1519.70877	1.59240
1517.78021	1.58183
1515.85164	1.56319
1513.92308	1.54488
1511.99451	1.52868
1510.06595	1.51462
1508.13738	1.49884
1506.20882	1.46527
1504.28025	1.43764
1502.35169	1.41820
1500.42313	1.39888
1498.49456	1.37745
1496.56600	1.35493
1494.63743	1.33612
1492.70887	1.32121
1490.78030	1.30659
1488.85174	1.29202
1486.92317	1.27988
1484.99461	1.26924
1483.06605	1.26139
1481.13748	1.25740
1479.20892	1.25616
1477.28035	1.25862
1475.35179	1.26860
1473.42322	1.28721
1471.49466	1.30194
1469.56610	1.30645
1467.63753	1.30983
1465.70897	1.31750
1463.78040	1.32627
1461.85184	1.32919
1459.92327	1.33043
1457.99471	1.33962
1456.06614	1.35159
1454.13758	1.35099
1452.20902	1.34725
1450.28045	1.34394
1448.35189	1.34079
1446.42332	1.33626
1444.49476	1.33048
1442.56619	1.32435
1440.63763	1.31809
1438.70906	1.31113
1436.78050	1.30121
1434.85194	1.28837
1432.92337	1.27660
1430.99481	1.26721
1429.06624	1.26058
1427.13768	1.25617
1425.20911	1.25405
1423.28055	1.25401
1421.35198	1.25577
1419.42342	1.26223
1417.49486	1.26982
1415.56629	1.27196
1413.63773	1.27352
1411.70916	1.27650
1409.78060	1.27904
1407.85203	1.28136
1405.92347	1.28581
1403.99490	1.29095
1402.06634	1.29375
1400.13778	1.29594
1398.20921	1.29830
1396.28065	1.29876
1394.35208	1.29592
1392.42352	1.29120
1390.49495	1.28853
1388.56639	1.29077
1386.63782	1.29612
1384.70926	1.29963
1382.78070	1.30263
1380.85213	1.30555
1378.92357	1.30466
1376.99500	1.29895
1375.06644	1.28962
1373.13787	1.27743
1371.20931	1.26559
1369.28074	1.25444
1367.35218	1.24217
1365.42362	1.22970
1363.49505	1.21762
1361.56649	1.20599
1359.63792	1.19715
1357.70936	1.19204
1355.78079	1.18919
1353.85223	1.18693
1351.92366	1.18483
1349.99510	1.18342
1348.06654	1.18325
1346.13797	1.18374
1344.20941	1.18393
1342.28084	1.18427
1340.35228	1.18587
1338.42371	1.18759
1336.49515	1.18858
1334.56659	1.19095
1332.63802	1.19529
1330.70946	1.19990
1328.78089	1.20357
1326.85233	1.20665
1324.92376	1.20906
1322.99520	1.21101
1321.06663	1.21389
1319.13807	1.21786
1317.20951	1.22103
1315.28094	1.22241
1313.35238	1.22338
1311.42381	1.22452
1309.49525	1.22507
1307.56668	1.22489
1305.63812	1.22440
1303.70955	1.22427
1301.78099	1.22408
1299.85243	1.22221
1297.92386	1.21860
1295.99530	1.21505
1294.06673	1.21335
1292.13817	1.21357
1290.20960	1.21406
1288.28104	1.21334
1286.35247	1.21164
1284.42391	1.21032
1282.49535	1.21026
1280.56678	1.21106
1278.63822	1.21180
1276.70965	1.21238
1274.78109	1.21343
1272.85252	1.21564
1270.92396	1.21906
1268.99539	1.22377
1267.06683	1.22987
1265.13827	1.23623
1263.20970	1.24146
1261.28114	1.24490
1259.35257	1.24683
1257.42401	1.24860
1255.49544	1.25067
1253.56688	1.25262
1251.63831	1.25429
1249.70975	1.25573
1247.78119	1.25704
1245.85262	1.25796
1243.92406	1.25844
1241.99549	1.25897
1240.06693	1.25842
1238.13836	1.25567
1236.20980	1.25242
1234.28123	1.24927
1232.35267	1.24458
1230.42411	1.23846
1228.49554	1.23199
1226.56698	1.22496
1224.63841	1.21716
1222.70985	1.20854
1220.78128	1.19917
1218.85272	1.18939
1216.92415	1.17989
1214.99559	1.17275
1213.06703	1.16938
1211.13846	1.16799
1209.20990	1.16639
1207.28133	1.16406
1205.35277	1.16082
1203.42420	1.15650
1201.49564	1.15129
1199.56708	1.14524
1197.63851	1.13841
1195.70995	1.13163
1193.78138	1.12562
1191.85282	1.12017
1189.92425	1.11531
1187.99569	1.11157
1186.06712	1.10879
1184.13856	1.10638
1182.21000	1.10423
1180.28143	1.10269
1178.35287	1.10290
1176.42430	1.10589
1174.49574	1.11069
1172.56717	1.11533
1170.63861	1.12061
1168.71004	1.12906
1166.78148	1.14028
1164.85292	1.15246
1162.92435	1.16560
1160.99579	1.17894
1159.06722	1.18876
1157.13866	1.19145
1155.21009	1.18706
1153.28153	1.17773
1151.35296	1.16503
1149.42440	1.15097
1147.49584	1.13780
1145.56727	1.12588
1143.63871	1.11565
1141.71014	1.10865
1139.78158	1.10536
1137.85301	1.10579
1135.92445	1.10960
1133.99588	1.11544
1132.06732	1.12337
1130.13876	1.13467
1128.21019	1.14852
1126.28163	1.16153
1124.35306	1.17212
1122.42450	1.18247
1120.49593	1.19374
1118.56737	1.20384
1116.63880	1.20997
1114.71024	1.21069
1112.78168	1.20661
1110.85311	1.20038
1108.92455	1.19537
1106.99598	1.19154
1105.06742	1.18639
1103.13885	1.18082
1101.21029	1.17683
1099.28172	1.17506
1097.35316	1.17724
1095.42460	1.18400
1093.49603	1.19374
1091.56747	1.20613
1089.63890	1.22145
1087.71034	1.23869
1085.78177	1.25816
1083.85321	1.27878
1081.92464	1.29608
1079.99608	1.30851
1078.06752	1.31588
1076.13895	1.31585
1074.21039	1.30783
1072.28182	1.29325
1070.35326	1.27537
1068.42469	1.25864
1066.49613	1.24489
1064.56756	1.23284
1062.63900	1.22078
1060.71044	1.20919
1058.78187	1.19990
1056.85331	1.19238
1054.92474	1.18635
1052.99618	1.18388
1051.06761	1.18491
1049.13905	1.18770
1047.21049	1.19167
1045.28192	1.19685
1043.35336	1.20359
1041.42479	1.21114
1039.49623	1.21732
1037.56766	1.22087
1035.63910	1.22160
1033.71053	1.21937
1031.78197	1.21490
1029.85341	1.20869
1027.92484	1.19999
1025.99628	1.18931
1024.06771	1.17831
1022.13915	1.16795
1020.21058	1.15931
1018.28202	1.15326
1016.35345	1.14959
1014.42489	1.14646
1012.49633	1.14160
1010.56776	1.13427
1008.63920	1.12428
1006.71063	1.11276
1004.78207	1.10222
1002.85350	1.09269
1000.92494	1.08311
998.99637	1.07387
997.06781	1.06535
995.13925	1.05766
993.21068	1.04996
991.28212	1.04094
989.35355	1.03130
987.42499	1.02236
985.49642	1.01478
983.56786	1.00937
981.63929	1.00651
979.71073	1.00646
977.78217	1.00893
975.85360	1.01214
973.92504	1.01425
971.99647	1.01444
970.06791	1.01264
968.13934	1.00934
966.21078	1.00547
964.28221	1.00238
962.35365	1.00131
960.42509	1.00288
958.49652	1.00649
956.56796	1.00994
954.63939	1.01019
952.71083	1.00567
950.78226	0.99780
948.85370	0.98865
946.92513	0.97953
944.99657	0.97197
943.06801	0.96705
941.13944	0.96461
939.21088	0.96413
937.28231	0.96517
935.35375	0.96676
933.42518	0.96802
931.49662	0.96931
929.56805	0.97113
927.63949	0.97336
925.71093	0.97542
923.78236	0.97682
921.85380	0.97747
919.92523	0.97710
917.99667	0.97517
916.06810	0.97210
914.13954	0.96933
912.21098	0.96760
910.28241	0.96691
908.35385	0.96787
906.42528	0.97141
904.49672	0.97701
902.56815	0.98271
900.63959	0.98793
898.71102	0.99320
896.78246	0.99745
894.85390	0.99945
892.92533	0.99977
890.99677	0.99920
889.06820	0.99761
887.13964	0.99507
885.21107	0.99238
883.28251	0.98973
881.35394	0.98687
879.42538	0.98394
877.49682	0.98120
875.56825	0.97914
873.63969	0.97845
871.71112	0.97904
869.78256	0.97999
867.85399	0.98116
865.92543	0.98287
863.99686	0.98513
862.06830	0.98822
860.13974	0.99169
858.21117	0.99464
856.28261	0.99745
854.35404	1.00083
852.42548	1.00434
850.49691	1.00673
848.56835	1.00752
846.63978	1.00706
844.71122	1.00658
842.78266	1.00797
840.85409	1.01096
838.92553	1.01374
836.99696	1.01656
835.06840	1.02095
833.13983	1.02669
831.21127	1.03241
829.28270	1.03719
827.35414	1.04104
825.42558	1.04482
823.49701	1.04839
821.56845	1.05034
819.63988	1.05092
817.71132	1.05105
815.78275	1.05063
813.85419	1.05063
811.92562	1.05096
809.99706	1.04921
808.06850	1.04539
806.13993	1.04156
804.21137	1.03835
802.28280	1.03636
800.35424	1.03674
798.42567	1.03972
796.49711	1.04461
794.56854	1.04985
792.63998	1.05399
790.71142	1.05747
788.78285	1.06141
786.85429	1.06615
784.92572	1.07115
782.99716	1.07481
781.06859	1.07654
779.14003	1.07736
777.21147	1.07754
775.28290	1.07696
773.35434	1.07633
771.42577	1.07649
769.49721	1.07728
767.56864	1.07840
765.64008	1.08079
763.71151	1.08526
761.78295	1.09089
759.85439	1.09662
757.92582	1.10245
755.99726	1.10787
754.06869	1.11267
752.14013	1.11774
750.21156	1.12161
748.28300	1.12244
746.35443	1.12192
744.42587	1.12118
742.49731	1.12010
740.56874	1.11959
738.64018	1.11951
736.71161	1.11918
734.78305	1.11928
732.85448	1.12083
730.92592	1.12388
728.99735	1.12835
727.06879	1.13381
725.14023	1.13936
723.21166	1.14639
721.28310	1.15540
719.35453	1.16191
717.42597	1.16428
715.49740	1.16669
713.56884	1.17134
711.64027	1.17571
709.71171	1.17746
707.78315	1.17824
705.85458	1.17986
703.92602	1.18195
701.99745	1.18396
700.06889	1.18568
698.14032	1.18715
696.21176	1.18787
694.28319	1.18791
692.35463	1.18864
690.42607	1.18993
688.49750	1.19204
686.56894	1.19658
684.64037	1.20138
682.71181	1.20259
680.78324	1.20168
678.85468	1.20247
676.92611	1.20454
674.99755	1.20495
673.06899	1.20289
671.14042	1.20077
669.21186	1.20140
667.28329	1.20118
665.35473	1.19732
663.42616	1.19541
661.49760	1.19791
659.56903	1.20236
657.64047	1.20426
655.71191	1.20373
653.78334	1.20285
651.85478	1.20223
649.92621	1.20337
647.99765	1.20676
646.06908	1.21053
644.14052	1.21464
642.21195	1.22060
640.28339	1.22825
638.35483	1.23517
636.42626	1.24062
634.49770	1.24448
632.56913	1.24327
630.64057	1.23786
628.71200	1.23390
626.78344	1.23286
624.85488	1.23527
622.92631	1.24129
620.99775	1.24784
619.06918	1.25333
617.14062	1.25659
615.21205	1.25510
613.28349	1.25215
611.35492	1.25475
609.42636	1.26242
607.49780	1.26723
605.56923	1.26739
603.64067	1.26981
601.71210	1.27862
599.78354	1.29108
