3997.91406	1.09637
3995.98550	1.09539
3994.05693	1.09317
3992.12837	1.09189
3990.19980	1.09017
3988.27124	1.08768
3986.34268	1.08676
3984.41411	1.08740
3982.48555	1.08804
3980.55698	1.08891
3978.62842	1.08896
3976.69985	1.08675
3974.77129	1.08370
3972.84272	1.08162
3970.91416	1.08075
3968.98560	1.07974
3967.05703	1.07817
3965.12847	1.07816
3963.19990	1.07927
3961.27134	1.07821
3959.34277	1.07626
3957.41421	1.07735
3955.48564	1.07991
3953.55708	1.07994
3951.62852	1.07886
3949.69995	1.07936
3947.77139	1.07896
3945.84282	1.07492
3943.91426	1.07042
3941.98569	1.07029
3940.05713	1.07277
3938.12856	1.07439
3936.20000	1.07489
3934.27144	1.07260
3932.34287	1.06705
3930.41431	1.06335
3928.48574	1.06309
3926.55718	1.06330
3924.62861	1.06435
3922.70005	1.06575
3920.77148	1.06394
3918.84292	1.06126
3916.91436	1.06215
3914.98579	1.06255
3913.05723	1.06076
3911.12866	1.06103
3909.20010	1.06397
3907.27153	1.06664
3905.34297	1.06625
3903.41440	1.06233
3901.48584	1.06013
3899.55728	1.06254
3897.62871	1.06561
3895.70015	1.06618
3893.77158	1.06442
3891.84302	1.06121
3889.91445	1.06008
3887.98589	1.06192
3886.05733	1.06315
3884.12876	1.06091
3882.20020	1.05685
3880.27163	1.05381
3878.34307	1.05411
3876.41450	1.05600
3874.48594	1.05873
3872.55737	1.06247
3870.62881	1.06365
3868.70025	1.06058
3866.77168	1.05792
3864.84312	1.05445
3862.91455	1.04820
3860.98599	1.04350
3859.05742	1.04091
3857.12886	1.04063
3855.20029	1.04760
3853.27173	1.05823
3851.34317	1.05359
3849.41460	1.04693
3847.48604	1.04362
3845.55747	1.04173
3843.62891	1.04015
3841.70034	1.03967
3839.77178	1.03900
3837.84321	1.03789
3835.91465	1.03965
3833.98609	1.04131
3832.05752	1.04092
3830.12896	1.04000
3828.20039	1.03932
3826.27183	1.03842
3824.34326	1.03756
3822.41470	1.03857
3820.48613	1.03998
3818.55757	1.03837
3816.62901	1.03567
3814.70044	1.03257
3812.77188	1.02961
3810.84331	1.02684
3808.91475	1.02449
3806.98618	1.02393
3805.05762	1.02446
3803.12905	1.02527
3801.20049	1.02823
3799.27193	1.02952
3797.34336	1.02789
3795.41480	1.02705
3793.48623	1.02726
3791.55767	1.02747
3789.62910	1.02862
3787.70054	1.03039
3785.77197	1.03035
3783.84341	1.02794
3781.91485	1.02523
3779.98628	1.02256
3778.05772	1.02154
3776.12915	1.02326
3774.20059	1.02464
3772.27202	1.02421
3770.34346	1.02323
3768.41489	1.02153
3766.48633	1.01862
3764.55777	1.01648
3762.62920	1.01584
3760.70064	1.01599
3758.77207	1.01679
3756.84351	1.01736
3754.91494	1.01776
3752.98638	1.02065
3751.05781	1.02835
3749.12925	1.03035
3747.20069	1.02447
3745.27212	1.01719
3743.34356	1.01587
3741.41499	1.02118
3739.48643	1.02765
3737.55786	1.03094
3735.62930	1.02646
3733.70074	1.01923
3731.77217	1.01703
3729.84361	1.01763
3727.91504	1.01959
3725.98648	1.02291
3724.05791	1.02432
3722.12935	1.02044
3720.20078	1.01545
3718.27222	1.01375
3716.34366	1.01371
3714.41509	1.01356
3712.48653	1.01541
3710.55796	1.02001
3708.62940	1.02022
3706.70083	1.01733
3704.77227	1.01520
3702.84370	1.01471
3700.91514	1.01565
3698.98658	1.01741
3697.05801	1.01841
3695.12945	1.01619
3693.20088	1.01113
3691.27232	1.00808
3689.34375	1.01266
3687.41519	1.01771
3685.48662	1.01830
3683.55806	1.01754
3681.62950	1.01747
3679.70093	1.01937
3677.77237	1.02236
3675.84380	1.02952
3673.91524	1.03945
3671.98667	1.04095
3670.05811	1.03703
3668.12954	1.03871
3666.20098	1.04456
3664.27242	1.05025
3662.34385	1.05540
3660.41529	1.05956
3658.48672	1.06226
3656.55816	1.06704
3654.62959	1.07410
3652.70103	1.07882
3650.77246	1.08371
3648.84390	1.09504
3646.91534	1.10353
3644.98677	1.10674
3643.05821	1.11061
3641.12964	1.11729
3639.20108	1.12467
3637.27251	1.12960
3635.34395	1.13354
3633.41538	1.13886
3631.48682	1.14298
3629.55826	1.14752
3627.62969	1.15760
3625.70113	1.16585
3623.77256	1.17133
3621.84400	1.17720
3619.91543	1.18632
3617.98687	1.19527
3616.05830	1.20081
3614.12974	1.20478
3612.20118	1.20642
3610.27261	1.21110
3608.34405	1.22123
3606.41548	1.22838
3604.48692	1.23324
3602.55835	1.24179
3600.62979	1.25209
3598.70123	1.25952
3596.77266	1.26486
3594.84410	1.27028
3592.91553	1.27429
3590.98697	1.27523
3589.05840	1.27906
3587.12984	1.29392
3585.20127	1.30754
3583.27271	1.31140
3581.34415	1.31140
3579.41558	1.31216
3577.48702	1.31718
3575.55845	1.32727
3573.62989	1.33683
3571.70132	1.34145
3569.77276	1.34458
3567.84419	1.35409
3565.91563	1.36850
3563.98707	1.37612
3562.05850	1.38012
3560.12994	1.38636
3558.20137	1.39730
3556.27281	1.41087
3554.34424	1.42300
3552.41568	1.43096
3550.48711	1.43591
3548.55855	1.44238
3546.62999	1.45019
3544.70142	1.45623
3542.77286	1.46099
3540.84429	1.46362
3538.91573	1.46556
3536.98716	1.47223
3535.05860	1.47910
3533.13003	1.47765
3531.20147	1.47534
3529.27291	1.48295
3527.34434	1.49843
3525.41578	1.51371
3523.48721	1.52202
3521.55865	1.52159
3519.63008	1.52017
3517.70152	1.52362
3515.77295	1.53249
3513.84439	1.54479
3511.91583	1.55694
3509.98726	1.56690
3508.05870	1.57611
3506.13013	1.58780
3504.20157	1.59842
3502.27300	1.59805
3500.34444	1.59177
3498.41587	1.59371
3496.48731	1.60402
3494.55875	1.61197
3492.63018	1.61912
3490.70162	1.63263
3488.77305	1.64593
3486.84449	1.64928
3484.91592	1.64599
3482.98736	1.64802
3481.05879	1.65707
3479.13023	1.66608
3477.20167	1.67633
3475.27310	1.68679
3473.34454	1.69059
3471.41597	1.69236
3469.48741	1.69946
3467.55884	1.70163
3465.63028	1.69633
3463.70171	1.70065
3461.77315	1.71174
3459.84459	1.71054
3457.91602	1.69828
3455.98746	1.69100
3454.05889	1.69694
3452.13033	1.70714
3450.20176	1.70673
3448.27320	1.70319
3446.34464	1.71241
3444.41607	1.72470
3442.48751	1.73267
3440.55894	1.73843
3438.63038	1.73726
3436.70181	1.73628
3434.77325	1.74264
3432.84468	1.74696
3430.91612	1.74154
3428.98756	1.73283
3427.05899	1.73022
3425.13043	1.73551
3423.20186	1.74305
3421.27330	1.74729
3419.34473	1.74820
3417.41617	1.74591
3415.48760	1.74525
3413.55904	1.74989
3411.63048	1.75093
3409.70191	1.74370
3407.77335	1.73307
3405.84478	1.72863
3403.91622	1.74041
3401.98765	1.75794
3400.05909	1.76175
3398.13052	1.75586
3396.20196	1.75165
3394.27340	1.75266
3392.34483	1.75932
3390.41627	1.76237
3388.48770	1.75838
3386.55914	1.75928
3384.63057	1.76424
3382.70201	1.76010
3380.77344	1.75403
3378.84488	1.75948
3376.91632	1.77000
3374.98775	1.77574
3373.05919	1.77773
3371.13062	1.77768
3369.20206	1.77349
3367.27349	1.76692
3365.34493	1.76318
3363.41636	1.76151
3361.48780	1.75962
3359.55924	1.76030
3357.63067	1.76724
3355.70211	1.77536
3353.77354	1.77412
3351.84498	1.76599
3349.91641	1.76319
3347.98785	1.76983
3346.05928	1.77798
3344.13072	1.78269
3342.20216	1.78568
3340.27359	1.78681
3338.34503	1.78796
3336.41646	1.78645
3334.48790	1.78021
3332.55933	1.77364
3330.63077	1.77019
3328.70220	1.77773
3326.77364	1.79460
3324.84508	1.80676
3322.91651	1.81169
3320.98795	1.81403
3319.05938	1.81475
3317.13082	1.81556
3315.20225	1.81834
3313.27369	1.82339
3311.34513	1.82752
3309.41656	1.82323
3307.48800	1.81901
3305.55943	1.83222
3303.63087	1.85043
3301.70230	1.85379
3299.77374	1.85082
3297.84517	1.85095
3295.91661	1.84881
3293.98805	1.84457
3292.05948	1.84747
3290.13092	1.85281
3288.20235	1.84910
3286.27379	1.84340
3284.34522	1.84509
3282.41666	1.85011
3280.48809	1.85293
3278.55953	1.85233
3276.63097	1.84767
3274.70240	1.84230
3272.77384	1.84189
3270.84527	1.84765
3268.91671	1.84931
3266.98814	1.83350
3265.05958	1.81016
3263.13101	1.79734
3261.20245	1.79478
3259.27389	1.79213
3257.34532	1.78631
3255.41676	1.78649
3253.48819	1.79190
3251.55963	1.78565
3249.63106	1.76831
3247.70250	1.75717
3245.77393	1.75420
3243.84537	1.75038
3241.91681	1.74671
3239.98824	1.74491
3238.05968	1.73879
3236.13111	1.72760
3234.20255	1.71735
3232.27398	1.71353
3230.34542	1.71760
3228.41685	1.72135
3226.48829	1.71569
3224.55973	1.70065
3222.63116	1.68253
3220.70260	1.67278
3218.77403	1.67476
3216.84547	1.67818
3214.91690	1.67582
3212.98834	1.66967
3211.05977	1.66683
3209.13121	1.66659
3207.20265	1.65941
3205.27408	1.64987
3203.34552	1.64628
3201.41695	1.64192
3199.48839	1.63257
3197.55982	1.62331
3195.63126	1.61816
3193.70269	1.61697
3191.77413	1.61438
3189.84557	1.60968
3187.91700	1.60823
3185.98844	1.60506
3184.05987	1.59336
3182.13131	1.58018
3180.20274	1.57221
3178.27418	1.56843
3176.34562	1.56728
3174.41705	1.56661
3172.48849	1.56473
3170.55992	1.55932
3168.63136	1.54883
3166.70279	1.54025
3164.77423	1.53767
3162.84566	1.53451
3160.91710	1.52981
3158.98854	1.52958
3157.05997	1.53130
3155.13141	1.52921
3153.20284	1.52615
3151.27428	1.52379
3149.34571	1.52075
3147.41715	1.51926
3145.48858	1.51497
3143.56002	1.50348
3141.63146	1.49556
3139.70289	1.49754
3137.77433	1.50105
3135.84576	1.50312
3133.91720	1.50548
3131.98863	1.50453
3130.06007	1.50089
3128.13150	1.49806
3126.20294	1.49610
3124.27438	1.49374
3122.34581	1.49087
3120.41725	1.49029
3118.48868	1.49108
3116.56012	1.48886
3114.63155	1.48514
3112.70299	1.48390
3110.77442	1.48536
3108.84586	1.48638
3106.91730	1.48373
3104.98873	1.48017
3103.06017	1.48165
3101.13160	1.48580
3099.20304	1.48500
3097.27447	1.48139
3095.34591	1.48135
3093.41734	1.48406
3091.48878	1.48627
3089.56022	1.48572
3087.63165	1.48085
3085.70309	1.47532
3083.77452	1.47276
3081.84596	1.47026
3079.91739	1.46611
3077.98883	1.46252
3076.06026	1.45946
3074.13170	1.45570
3072.20314	1.45241
3070.27457	1.45065
3068.34601	1.44967
3066.41744	1.44833
3064.48888	1.44353
3062.56031	1.43465
3060.63175	1.42745
3058.70318	1.42624
3056.77462	1.42869
3054.84606	1.42863
3052.91749	1.42401
3050.98893	1.41749
3049.06036	1.41069
3047.13180	1.40400
3045.20323	1.39859
3043.27467	1.39668
3041.34610	1.39594
3039.41754	1.39099
3037.48898	1.38379
3035.56041	1.37923
3033.63185	1.37568
3031.70328	1.37115
3029.77472	1.36918
3027.84615	1.36873
3025.91759	1.36433
3023.98903	1.35874
3022.06046	1.35747
3020.13190	1.35873
3018.20333	1.35750
3016.27477	1.35290
3014.34620	1.34890
3012.41764	1.34778
3010.48907	1.34837
3008.56051	1.34908
3006.63195	1.34773
3004.70338	1.34296
3002.77482	1.33704
3000.84625	1.33352
2998.91769	1.33405
2996.98912	1.33727
2995.06056	1.33961
2993.13199	1.34010
2991.20343	1.34228
2989.27487	1.34758
2987.34630	1.35194
2985.41774	1.35277
2983.48917	1.35470
2981.56061	1.36236
2979.63204	1.37105
2977.70348	1.37464
2975.77491	1.37698
2973.84635	1.38389
2971.91779	1.39428
2969.98922	1.40368
2968.06066	1.41033
2966.13209	1.41605
2964.20353	1.42220
2962.27496	1.42814
2960.34640	1.43139
2958.41783	1.42840
2956.48927	1.42014
2954.56071	1.41263
2952.63214	1.40855
2950.70358	1.40568
2948.77501	1.40331
2946.84645	1.40283
2944.91788	1.40467
2942.98932	1.40855
2941.06075	1.41486
2939.13219	1.42388
2937.20363	1.43479
2935.27506	1.44700
2933.34650	1.45987
2931.41793	1.47101
2929.48937	1.47852
2927.56080	1.48493
2925.63224	1.49401
2923.70367	1.50504
2921.77511	1.51401
2919.84655	1.51621
2917.91798	1.50856
2915.98942	1.49118
2914.06085	1.46737
2912.13229	1.44226
2910.20372	1.41998
2908.27516	1.40314
2906.34659	1.39191
2904.41803	1.38437
2902.48947	1.37808
2900.56090	1.37039
2898.63234	1.36257
2896.70377	1.35869
2894.77521	1.35749
2892.84664	1.35381
2890.91808	1.34668
2888.98952	1.33950
2887.06095	1.33491
2885.13239	1.33256
2883.20382	1.33008
2881.27526	1.32713
2879.34669	1.32605
2877.41813	1.32695
2875.48956	1.32699
2873.56100	1.32431
2871.63244	1.31996
2869.70387	1.31497
2867.77531	1.30943
2865.84674	1.30517
2863.91818	1.30394
2861.98961	1.30494
2860.06105	1.30729
2858.13248	1.31279
2856.20392	1.32324
2854.27536	1.33661
2852.34679	1.34869
2850.41823	1.35387
2848.48966	1.34496
2846.56110	1.32097
2844.63253	1.29106
2842.70397	1.26522
2840.77540	1.24710
2838.84684	1.23503
2836.91828	1.22608
2834.98971	1.21967
2833.06115	1.21543
2831.13258	1.21149
2829.20402	1.20720
2827.27545	1.20204
2825.34689	1.19537
2823.41832	1.18881
2821.48976	1.18382
2819.56120	1.18036
2817.63263	1.17810
2815.70407	1.17603
2813.77550	1.17351
2811.84694	1.17089
2809.91837	1.16862
2807.98981	1.16694
2806.06124	1.16498
2804.13268	1.16161
2802.20412	1.15723
2800.27555	1.15313
2798.34699	1.15012
2796.41842	1.14757
2794.48986	1.14448
2792.56129	1.14179
2790.63273	1.14024
2788.70416	1.13820
2786.77560	1.13464
2784.84704	1.13101
2782.91847	1.12836
2780.98991	1.12617
2779.06134	1.12414
2777.13278	1.12227
2775.20421	1.12057
2773.27565	1.11899
2771.34708	1.11744
2769.41852	1.11616
2767.48996	1.11426
2765.56139	1.11112
2763.63283	1.10842
2761.70426	1.10726
2759.77570	1.10673
2757.84713	1.10574
2755.91857	1.10416
2753.99001	1.10274
2752.06144	1.10180
2750.13288	1.10058
2748.20431	1.09853
2746.27575	1.09675
2744.34718	1.09627
2742.41862	1.09580
2740.49005	1.09385
2738.56149	1.09095
2736.63293	1.08821
2734.70436	1.08608
2732.77580	1.08397
2730.84723	1.08133
2728.91867	1.07907
2726.99010	1.07748
2725.06154	1.07575
2723.13297	1.07351
2721.20441	1.07102
2719.27585	1.06872
2717.34728	1.06629
2715.41872	1.06349
2713.49015	1.06105
2711.56159	1.05941
2709.63302	1.05816
2707.70446	1.05701
2705.77589	1.05554
2703.84733	1.05357
2701.91877	1.05191
2699.99020	1.05061
2698.06164	1.04912
2696.13307	1.04819
2694.20451	1.04824
2692.27594	1.04855
2690.34738	1.04813
2688.41881	1.04673
2686.49025	1.04534
2684.56169	1.04407
2682.63312	1.04238
2680.70456	1.04069
2678.77599	1.03913
2676.84743	1.03708
2674.91886	1.03458
2672.99030	1.03231
2671.06173	1.03084
2669.13317	1.03013
2667.20461	1.02905
2665.27604	1.02715
2663.34748	1.02560
2661.41891	1.02468
2659.49035	1.02356
2657.56178	1.02218
2655.63322	1.02098
2653.70465	1.02022
2651.77609	1.01978
2649.84753	1.01870
2647.91896	1.01695
2645.99040	1.01544
2644.06183	1.01384
2642.13327	1.01197
2640.20470	1.01043
2638.27614	1.00922
2636.34757	1.00798
2634.41901	1.00632
2632.49045	1.00423
2630.56188	1.00237
2628.63332	1.00105
2626.70475	1.00018
2624.77619	0.99949
2622.84762	0.99854
2620.91906	0.99779
2618.99049	0.99727
2617.06193	0.99616
2615.13337	0.99509
2613.20480	0.99443
2611.27624	0.99316
2609.34767	0.99144
2607.41911	0.98995
2605.49054	0.98870
2603.56198	0.98786
2601.63342	0.98738
2599.70485	0.98641
2597.77629	0.98462
2595.84772	0.98280
2593.91916	0.98114
2591.99059	0.97915
2590.06203	0.97717
2588.13346	0.97585
2586.20490	0.97526
2584.27634	0.97483
2582.34777	0.97364
2580.41921	0.97173
2578.49064	0.96958
2576.56208	0.96741
2574.63351	0.96574
2572.70495	0.96442
2570.77638	0.96269
2568.84782	0.96091
2566.91926	0.95997
2564.99069	0.95959
2563.06213	0.95913
2561.13356	0.95842
2559.20500	0.95733
2557.27643	0.95618
2555.34787	0.95516
2553.41930	0.95365
2551.49074	0.95157
2549.56218	0.94984
2547.63361	0.94862
2545.70505	0.94696
2543.77648	0.94481
2541.84792	0.94303
2539.91935	0.94171
2537.99079	0.94038
2536.06222	0.93847
2534.13366	0.93633
2532.20510	0.93521
2530.27653	0.93531
2528.34797	0.93522
2526.41940	0.93398
2524.49084	0.93232
2522.56227	0.93112
2520.63371	0.93048
2518.70514	0.92998
2516.77658	0.92905
2514.84802	0.92799
2512.91945	0.92730
2510.99089	0.92644
2509.06232	0.92505
2507.13376	0.92391
2505.20519	0.92332
2503.27663	0.92257
2501.34806	0.92164
2499.41950	0.92087
2497.49094	0.92006
2495.56237	0.91891
2493.63381	0.91765
2491.70524	0.91662
2489.77668	0.91540
2487.84811	0.91364
2485.91955	0.91182
2483.99098	0.91009
2482.06242	0.90832
2480.13386	0.90700
2478.20529	0.90595
2476.27673	0.90456
2474.34816	0.90301
2472.41960	0.90152
2470.49103	0.90025
2468.56247	0.89930
2466.63391	0.89815
2464.70534	0.89606
2462.77678	0.89335
2460.84821	0.89144
2458.91965	0.89060
2456.99108	0.88960
2455.06252	0.88829
2453.13395	0.88723
2451.20539	0.88601
2449.27683	0.88449
2447.34826	0.88314
2445.41970	0.88190
2443.49113	0.88075
2441.56257	0.87969
2439.63400	0.87842
2437.70544	0.87677
2435.77687	0.87509
2433.84831	0.87409
2431.91975	0.87368
2429.99118	0.87299
2428.06262	0.87196
2426.13405	0.87093
2424.20549	0.86951
2422.27692	0.86803
2420.34836	0.86721
2418.41979	0.86650
2416.49123	0.86570
2414.56267	0.86529
2412.63410	0.86523
2410.70554	0.86528
2408.77697	0.86514
2406.84841	0.86469
2404.91984	0.86434
2402.99128	0.86391
2401.06271	0.86303
2399.13415	0.86228
2397.20559	0.86197
2395.27702	0.86141
2393.34846	0.86039
2391.41989	0.85929
2389.49133	0.85827
2387.56276	0.85777
2385.63420	0.85838
2383.70563	0.86028
2381.77707	0.86324
2379.84851	0.86696
2377.91994	0.87147
2375.99138	0.87676
2374.06281	0.88288
2372.13425	0.89042
2370.20568	0.90009
2368.27712	0.91175
2366.34855	0.92309
2364.41999	0.92897
2362.49143	0.92716
2360.56286	0.92580
2358.63430	0.92672
2356.70573	0.91982
2354.77717	0.90500
2352.84860	0.88770
2350.92004	0.87475
2348.99147	0.87031
2347.06291	0.87285
2345.13435	0.87882
2343.20578	0.88393
2341.27722	0.88557
2339.34865	0.88438
2337.42009	0.88304
2335.49152	0.88265
2333.56296	0.88280
2331.63440	0.88152
2329.70583	0.87762
2327.77727	0.87309
2325.84870	0.86888
2323.92014	0.86464
2321.99157	0.86085
2320.06301	0.85762
2318.13444	0.85414
2316.20588	0.85017
2314.27732	0.84642
2312.34875	0.84399
2310.42019	0.84294
2308.49162	0.84163
2306.56306	0.83895
2304.63449	0.83588
2302.70593	0.83385
2300.77736	0.83277
2298.84880	0.83149
2296.92024	0.82956
2294.99167	0.82720
2293.06311	0.82475
2291.13454	0.82305
2289.20598	0.82233
2287.27741	0.82136
2285.34885	0.81966
2283.42028	0.81810
2281.49172	0.81681
2279.56316	0.81533
2277.63459	0.81371
2275.70603	0.81217
2273.77746	0.81074
2271.84890	0.80950
2269.92033	0.80832
2267.99177	0.80684
2266.06320	0.80511
2264.13464	0.80347
2262.20608	0.80210
2260.27751	0.80116
2258.34895	0.80052
2256.42038	0.79976
2254.49182	0.79873
2252.56325	0.79762
2250.63469	0.79645
2248.70612	0.79510
2246.77756	0.79419
2244.84900	0.79417
2242.92043	0.79440
2240.99187	0.79427
2239.06330	0.79390
2237.13474	0.79361
2235.20617	0.79374
2233.27761	0.79409
2231.34904	0.79404
2229.42048	0.79382
2227.49192	0.79406
2225.56335	0.79435
2223.63479	0.79390
2221.70622	0.79336
2219.77766	0.79371
2217.84909	0.79424
2215.92053	0.79411
2213.99196	0.79373
2212.06340	0.79348
2210.13484	0.79317
2208.20627	0.79277
2206.27771	0.79244
2204.34914	0.79218
2202.42058	0.79186
2200.49201	0.79169
2198.56345	0.79183
2196.63488	0.79186
2194.70632	0.79138
2192.77776	0.79039
2190.84919	0.78911
2188.92063	0.78801
2186.99206	0.78728
2185.06350	0.78651
2183.13493	0.78529
2181.20637	0.78366
2179.27781	0.78198
2177.34924	0.78071
2175.42068	0.77987
2173.49211	0.77920
2171.56355	0.77835
2169.63498	0.77696
2167.70642	0.77527
2165.77785	0.77400
2163.84929	0.77325
2161.92073	0.77229
2159.99216	0.77063
2158.06360	0.76905
2156.13503	0.76829
2154.20647	0.76788
2152.27790	0.76725
2150.34934	0.76633
2148.42077	0.76535
2146.49221	0.76480
2144.56365	0.76503
2142.63508	0.76563
2140.70652	0.76583
2138.77795	0.76548
2136.84939	0.76526
2134.92082	0.76544
2132.99226	0.76569
2131.06369	0.76582
2129.13513	0.76560
2127.20657	0.76509
2125.27800	0.76482
2123.34944	0.76482
2121.42087	0.76484
2119.49231	0.76466
2117.56374	0.76415
2115.63518	0.76367
2113.70661	0.76338
2111.77805	0.76283
2109.84949	0.76190
2107.92092	0.76083
2105.99236	0.75979
2104.06379	0.75918
2102.13523	0.75903
2100.20666	0.75877
2098.27810	0.75815
2096.34953	0.75751
2094.42097	0.75688
2092.49241	0.75608
2090.56384	0.75535
2088.63528	0.75452
2086.70671	0.75332
2084.77815	0.75219
2082.84958	0.75145
2080.92102	0.75080
2078.99245	0.74994
2077.06389	0.74861
2075.13533	0.74671
2073.20676	0.74501
2071.27820	0.74413
2069.34963	0.74334
2067.42107	0.74181
2065.49250	0.73974
2063.56394	0.73774
2061.63537	0.73590
2059.70681	0.73420
2057.77825	0.73278
2055.84968	0.73159
2053.92112	0.73041
2051.99255	0.72901
2050.06399	0.72749
2048.13542	0.72640
2046.20686	0.72585
2044.27830	0.72524
2042.34973	0.72420
2040.42117	0.72304
2038.49260	0.72195
2036.56404	0.72108
2034.63547	0.72078
2032.70691	0.72088
2030.77834	0.72075
2028.84978	0.72017
2026.92122	0.71952
2024.99265	0.71912
2023.06409	0.71883
2021.13552	0.71863
2019.20696	0.71872
2017.27839	0.71892
2015.34983	0.71868
2013.42126	0.71809
2011.49270	0.71767
2009.56414	0.71749
2007.63557	0.71723
2005.70701	0.71672
2003.77844	0.71615
2001.84988	0.71577
1999.92131	0.71527
1997.99275	0.71444
1996.06418	0.71365
1994.13562	0.71314
1992.20706	0.71255
1990.27849	0.71128
1988.34993	0.70943
1986.42136	0.70760
1984.49280	0.70619
1982.56423	0.70521
1980.63567	0.70425
1978.70710	0.70291
1976.77854	0.70128
1974.84998	0.69971
1972.92141	0.69832
1970.99285	0.69715
1969.06428	0.69629
1967.13572	0.69534
1965.20715	0.69381
1963.27859	0.69225
1961.35002	0.69139
1959.42146	0.69098
1957.49290	0.69035
1955.56433	0.68938
1953.63577	0.68840
1951.70720	0.68746
1949.77864	0.68627
1947.85007	0.68497
1945.92151	0.68411
1943.99294	0.68387
1942.06438	0.68358
1940.13582	0.68272
1938.20725	0.68169
1936.27869	0.68061
1934.35012	0.67946
1932.42156	0.67851
1930.49299	0.67788
1928.56443	0.67742
1926.63586	0.67703
1924.70730	0.67698
1922.77874	0.67723
1920.85017	0.67722
1918.92161	0.67727
1916.99304	0.67756
1915.06448	0.67738
1913.13591	0.67706
1911.20735	0.67721
1909.27878	0.67756
1907.35022	0.67764
1905.42166	0.67756
1903.49309	0.67752
1901.56453	0.67730
1899.63596	0.67681
1897.70740	0.67645
1895.77883	0.67615
1893.85027	0.67533
1891.92171	0.67439
1889.99314	0.67404
1888.06458	0.67361
1886.13601	0.67248
1884.20745	0.67088
1882.27888	0.66899
1880.35032	0.66720
1878.42175	0.66570
1876.49319	0.66412
1874.56463	0.66242
1872.63606	0.66105
1870.70750	0.66033
1868.77893	0.65982
1866.85037	0.65846
1864.92180	0.65677
1862.99324	0.65547
1861.06467	0.65439
1859.13611	0.65350
1857.20755	0.65289
1855.27898	0.65261
1853.35042	0.65265
1851.42185	0.65278
1849.49329	0.65316
1847.56472	0.65393
1845.63616	0.65501
1843.70759	0.65583
1841.77903	0.65555
1839.85047	0.65489
1837.92190	0.65458
1835.99334	0.65440
1834.06477	0.65402
1832.13621	0.65408
1830.20764	0.65482
1828.27908	0.65471
1826.35051	0.65370
1824.42195	0.65322
1822.49339	0.65320
1820.56482	0.65308
1818.63626	0.65290
1816.70769	0.65266
1814.77913	0.65263
1812.85056	0.65321
1810.92200	0.65411
1808.99343	0.65429
1807.06487	0.65377
1805.13631	0.65352
1803.20774	0.65401
1801.27918	0.65505
1799.35061	0.65577
1797.42205	0.65594
1795.49348	0.65625
1793.56492	0.65728
1791.63635	0.65824
1789.70779	0.65751
1787.77923	0.65656
1785.85066	0.65647
1783.92210	0.65687
1781.99353	0.65706
1780.06497	0.65677
1778.13640	0.65620
1776.20784	0.65580
1774.27927	0.65626
1772.35071	0.65775
1770.42215	0.65837
1768.49358	0.65775
1766.56502	0.65714
1764.63645	0.65758
1762.70789	0.65998
1760.77932	0.66344
1758.85076	0.66608
1756.92220	0.66936
1754.99363	0.67350
1753.06507	0.67839
1751.13650	0.68664
1749.20794	0.69796
1747.27937	0.70700
1745.35081	0.71351
1743.42224	0.71968
1741.49368	0.72612
1739.56512	0.73227
1737.63655	0.73644
1735.70799	0.73995
1733.77942	0.74612
1731.85086	0.75069
1729.92229	0.75273
1727.99373	0.75503
1726.06516	0.75855
1724.13660	0.76438
1722.20804	0.77068
1720.27947	0.77604
1718.35091	0.78465
1716.42234	0.80022
1714.49378	0.81145
1712.56521	0.81847
1710.63665	0.82672
1708.70808	0.83777
1706.77952	0.85560
1704.85096	0.87987
1702.92239	0.90216
1700.99383	0.93589
1699.06526	0.99231
1697.13670	1.04759
1695.20813	1.10173
1693.27957	1.14127
1691.35100	1.17427
1689.42244	1.21583
1687.49388	1.25485
1685.56531	1.29676
1683.63675	1.36937
1681.70818	1.42276
1679.77962	1.45098
1677.85105	1.47793
1675.92249	1.51352
1673.99392	1.55298
1672.06536	1.58212
1670.13680	1.61419
1668.20823	1.64835
1666.27967	1.66554
1664.35110	1.67938
1662.42254	1.69795
1660.49397	1.71375
1658.56541	1.72401
1656.63684	1.73064
1654.70828	1.74052
1652.77972	1.75432
1650.85115	1.75409
1648.92259	1.75194
1646.99402	1.75256
1645.06546	1.75041
1643.13689	1.74346
1641.20833	1.73673
1639.27976	1.73228
1637.35120	1.73344
1635.42264	1.73547
1633.49407	1.72547
1631.56551	1.71551
1629.63694	1.71037
1627.70838	1.70553
1625.77981	1.69310
1623.85125	1.67375
1621.92269	1.65348
1619.99412	1.63650
1618.06556	1.61437
1616.13699	1.57713
1614.20843	1.54334
1612.27986	1.51795
1610.35130	1.49345
1608.42273	1.46587
1606.49417	1.43921
1604.56561	1.41886
1602.63704	1.40269
1600.70848	1.38861
1598.77991	1.37731
1596.85135	1.36968
1594.92278	1.36476
1592.99422	1.36048
1591.06565	1.35761
1589.13709	1.35863
1587.20853	1.36346
1585.27996	1.37029
1583.35140	1.37920
1581.42283	1.38934
1579.49427	1.39880
1577.56570	1.41260
1575.63714	1.43674
1573.70857	1.45327
1571.78001	1.46369
1569.85145	1.48211
1567.92288	1.50166
1565.99432	1.51406
1564.06575	1.52600
1562.13719	1.53513
1560.20862	1.54653
1558.28006	1.58128
1556.35149	1.60147
1554.42293	1.60515
1552.49437	1.60547
1550.56580	1.60698
1548.63724	1.61033
1546.70867	1.61253
1544.78011	1.61336
1542.85154	1.61341
1540.92298	1.60710
1538.99441	1.59156
1537.06585	1.58164
1535.13729	1.57543
1533.20872	1.57322
1531.28016	1.57217
1529.35159	1.56778
1527.42303	1.56055
1525.49446	1.55407
1523.56590	1.55184
1521.63733	1.55234
1519.70877	1.55233
1517.78021	1.54525
1515.85164	1.52959
1513.92308	1.51139
1511.99451	1.49210
1510.06595	1.47262
1508.13738	1.44594
1506.20882	1.40114
1504.28025	1.37509
1502.35169	1.35806
1500.42313	1.33991
1498.49456	1.31762
1496.56600	1.29117
1494.63743	1.27090
1492.70887	1.25695
1490.78030	1.23964
1488.85174	1.21571
1486.92317	1.19785
1484.99461	1.18729
1483.06605	1.17962
1481.13748	1.17338
1479.20892	1.16988
1477.28035	1.17148
1475.35179	1.17959
1473.42322	1.19528
1471.49466	1.21149
1469.56610	1.21946
1467.63753	1.22464
1465.70897	1.23276
1463.78040	1.24215
1461.85184	1.24640
1459.92327	1.24860
1457.99471	1.25694
1456.06614	1.26757
1454.13758	1.26784
1452.20902	1.26528
1450.28045	1.26339
1448.35189	1.26241
1446.42332	1.25948
1444.49476	1.25393
1442.56619	1.24807
1440.63763	1.24263
1438.70906	1.23689
1436.78050	1.22886
1434.85194	1.21888
1432.92337	1.20993
1430.99481	1.20147
1429.06624	1.19416
1427.13768	1.18994
1425.20911	1.18834
1423.28055	1.18870
1421.35198	1.19140
1419.42342	1.19805
1417.49486	1.20449
1415.56629	1.20576
1413.63773	1.20583
1411.70916	1.20653
1409.78060	1.20751
1407.85203	1.20870
1405.92347	1.21095
1403.99490	1.21411
1402.06634	1.21674
1400.13778	1.21838
1398.20921	1.21823
1396.28065	1.21699
1394.35208	1.21650
1392.42352	1.21669
1390.49495	1.21761
1388.56639	1.22141
1386.63782	1.22929
1384.70926	1.23675
1382.78070	1.24175
1380.85213	1.24474
1378.92357	1.24488
1376.99500	1.24208
1375.06644	1.23509
1373.13787	1.22212
1371.20931	1.20713
1369.28074	1.19168
1367.35218	1.17571
1365.42362	1.16168
1363.49505	1.14939
1361.56649	1.13863
1359.63792	1.13111
1357.70936	1.12659
1355.78079	1.12404
1353.85223	1.12267
1351.92366	1.12205
1349.99510	1.12223
1348.06654	1.12330
1346.13797	1.12494
1344.20941	1.12631
1342.28084	1.12731
1340.35228	1.12932
1338.42371	1.13272
1336.49515	1.13632
1334.56659	1.14031
1332.63802	1.14557
1330.70946	1.15209
1328.78089	1.15831
1326.85233	1.16281
1324.92376	1.16569
1322.99520	1.16764
1321.06663	1.16949
1319.13807	1.17188
1317.20951	1.17424
1315.28094	1.17588
1313.35238	1.17692
1311.42381	1.17710
1309.49525	1.17602
1307.56668	1.17437
1305.63812	1.17316
1303.70955	1.17211
1301.78099	1.16994
1299.85243	1.16629
1297.92386	1.16210
1295.99530	1.15869
1294.06673	1.15664
1292.13817	1.15549
1290.20960	1.15497
1288.28104	1.15533
1286.35247	1.15575
1284.42391	1.15529
1282.49535	1.15453
1280.56678	1.15426
1278.63822	1.15488
1276.70965	1.15645
1274.78109	1.15871
1272.85252	1.16168
1270.92396	1.16595
1268.99539	1.17195
1267.06683	1.17844
1265.13827	1.18367
1263.20970	1.18816
1261.28114	1.19294
1259.35257	1.19770
1257.42401	1.20158
1255.49544	1.20470
1253.56688	1.20822
1251.63831	1.21236
1249.70975	1.21602
1247.78119	1.21883
1245.85262	1.22144
1243.92406	1.22387
1241.99549	1.22558
1240.06693	1.22630
1238.13836	1.22541
1236.20980	1.22254
1234.28123	1.21824
1232.35267	1.21276
1230.42411	1.20573
1228.49554	1.19752
1226.56698	1.18922
1224.63841	1.18105
1222.70985	1.17211
1220.78128	1.16204
1218.85272	1.15217
1216.92415	1.14389
1214.99559	1.13721
1213.06703	1.13230
1211.13846	1.12979
1209.20990	1.12926
1207.28133	1.12860
1205.35277	1.12555
1203.42420	1.11963
1201.49564	1.11186
1199.56708	1.10325
1197.63851	1.09422
1195.70995	1.08501
1193.78138	1.07651
1191.85282	1.06967
1189.92425	1.06464
1187.99569	1.06118
1186.06712	1.05891
1184.13856	1.05785
1182.21000	1.05844
1180.28143	1.06088
1178.35287	1.06526
1176.42430	1.07150
1174.49574	1.07847
1172.56717	1.08513
1170.63861	1.09257
1168.71004	1.10221
1166.78148	1.11442
1164.85292	1.12912
1162.92435	1.14490
1160.99579	1.15861
1159.06722	1.16658
1157.13866	1.16707
1155.21009	1.16068
1153.28153	1.14874
1151.35296	1.13334
1149.42440	1.11709
1147.49584	1.10232
1145.56727	1.09061
1143.63871	1.08269
1141.71014	1.07911
1139.78158	1.07968
1137.85301	1.08261
1135.92445	1.08648
1133.99588	1.09241
1132.06732	1.10207
1130.13876	1.11486
1128.21019	1.12879
1126.28163	1.14269
1124.35306	1.15647
1122.42450	1.16887
1120.49593	1.17765
1118.56737	1.18279
1116.63880	1.18563
1114.71024	1.18603
1112.78168	1.18319
1110.85311	1.17726
1108.92455	1.16985
1106.99598	1.16271
1105.06742	1.15658
1103.13885	1.15202
1101.21029	1.14944
1099.28172	1.14901
1097.35316	1.15181
1095.42460	1.15878
1093.49603	1.16865
1091.56747	1.18007
1089.63890	1.19397
1087.71034	1.21123
1085.78177	1.23070
1083.85321	1.25114
1081.92464	1.27121
1079.99608	1.28650
1078.06752	1.29368
1076.13895	1.29523
1074.21039	1.29214
1072.28182	1.28231
1070.35326	1.26831
1068.42469	1.25420
1066.49613	1.24068
1064.56756	1.22798
1062.63900	1.21658
1060.71044	1.20600
1058.78187	1.19571
1056.85331	1.18661
1054.92474	1.17959
1052.99618	1.17352
1051.06761	1.16777
1049.13905	1.16388
1047.21049	1.16368
1045.28192	1.16734
1043.35336	1.17372
1041.42479	1.18145
1039.49623	1.18839
1037.56766	1.19336
1035.63910	1.19739
1033.71053	1.20011
1031.78197	1.20037
1029.85341	1.19881
1027.92484	1.19528
1025.99628	1.18902
1024.06771	1.18088
1022.13915	1.17312
1020.21058	1.16764
1018.28202	1.16325
1016.35345	1.15724
1014.42489	1.14877
1012.49633	1.13763
1010.56776	1.12355
1008.63920	1.10709
1006.71063	1.08916
1004.78207	1.07080
1002.85350	1.05382
1000.92494	1.03981
998.99637	1.02859
997.06781	1.01893
995.13925	1.00991
993.21068	1.00148
991.28212	0.99377
989.35355	0.98661
987.42499	0.98010
985.49642	0.97509
983.56786	0.97249
981.63929	0.97192
979.71073	0.97223
977.78217	0.97320
975.85360	0.97419
973.92504	0.97389
971.99647	0.97201
970.06791	0.96813
968.13934	0.96203
966.21078	0.95577
964.28221	0.95151
962.35365	0.95003
960.42509	0.95223
958.49652	0.95831
956.56796	0.96532
954.63939	0.96836
952.71083	0.96550
950.78226	0.95881
948.85370	0.95050
946.92513	0.94228
944.99657	0.93563
943.06801	0.93069
941.13944	0.92709
939.21088	0.92479
937.28231	0.92359
935.35375	0.92324
933.42518	0.92336
931.49662	0.92363
929.56805	0.92435
927.63949	0.92577
925.71093	0.92750
923.78236	0.92932
921.85380	0.93098
919.92523	0.93172
917.99667	0.93150
916.06810	0.93126
914.13954	0.93134
912.21098	0.93130
910.28241	0.93105
908.35385	0.93093
906.42528	0.93135
904.49672	0.93255
902.56815	0.93433
900.63959	0.93613
898.71102	0.93751
896.78246	0.93755
894.85390	0.93546
892.92533	0.93213
890.99677	0.92919
889.06820	0.92702
887.13964	0.92506
885.21107	0.92362
883.28251	0.92366
881.35394	0.92515
879.42538	0.92713
877.49682	0.92899
875.56825	0.93149
873.63969	0.93489
871.71112	0.93789
869.78256	0.94025
867.85399	0.94336
865.92543	0.94756
863.99686	0.95165
862.06830	0.95485
860.13974	0.95753
858.21117	0.96079
856.28261	0.96481
854.35404	0.96808
852.42548	0.96969
850.49691	0.97008
848.56835	0.96976
846.63978	0.96943
844.71122	0.96985
842.78266	0.97081
840.85409	0.97182
838.92553	0.97343
836.99696	0.97567
835.06840	0.97763
833.13983	0.97929
831.21127	0.98126
829.28270	0.98370
827.35414	0.98612
825.42558	0.98763
823.49701	0.98775
821.56845	0.98756
819.63988	0.98816
817.71132	0.98903
815.78275	0.98992
813.85419	0.99175
811.92562	0.99445
809.99706	0.99642
808.06850	0.99741
806.13993	0.99877
804.21137	1.00017
802.28280	1.00053
800.35424	1.00086
798.42567	1.00276
796.49711	1.00609
794.56854	1.00986
792.63998	1.01372
790.71142	1.01742
788.78285	1.02057
786.85429	1.02356
784.92572	1.02743
782.99716	1.03232
781.06859	1.03760
779.14003	1.04279
777.21147	1.04758
775.28290	1.05257
773.35434	1.05819
771.42577	1.06384
769.49721	1.06916
767.56864	1.07428
765.64008	1.07971
763.71151	1.08522
761.78295	1.08926
759.85439	1.09198
757.92582	1.09469
755.99726	1.09686
754.06869	1.09746
752.14013	1.09656
750.21156	1.09442
748.28300	1.09148
746.35443	1.08879
744.42587	1.08644
742.49731	1.08320
740.56874	1.07891
738.64018	1.07492
736.71161	1.07186
734.78305	1.06948
732.85448	1.06867
730.92592	1.06982
728.99735	1.07135
727.06879	1.07346
725.14023	1.07832
723.21166	1.08629
721.28310	1.09447
719.35453	1.09901
717.42597	1.10024
715.49740	1.10194
713.56884	1.10497
711.64027	1.10860
709.71171	1.11440
707.78315	1.12126
705.85458	1.12605
703.92602	1.13020
701.99745	1.13462
700.06889	1.13799
698.14032	1.14145
696.21176	1.14624
694.28319	1.15215
692.35463	1.15909
690.42607	1.16590
688.49750	1.16946
686.56894	1.17052
684.64037	1.17394
682.71181	1.18026
680.78324	1.18700
678.85468	1.19324
676.92611	1.19815
674.99755	1.20162
673.06899	1.20576
671.14042	1.21233
669.21186	1.22006
667.28329	1.22214
665.35473	1.22109
663.42616	1.22169
661.49760	1.22387
659.56903	1.22719
657.64047	1.22746
655.71191	1.22381
653.78334	1.22259
651.85478	1.22394
649.92621	1.22214
647.99765	1.21813
646.06908	1.21478
644.14052	1.21111
642.21195	1.20740
640.28339	1.20284
638.35483	1.19451
636.42626	1.18492
634.49770	1.17946
632.56913	1.17655
630.64057	1.17297
628.71200	1.17164
626.78344	1.17413
624.85488	1.17834
622.92631	1.18291
620.99775	1.18765
619.06918	1.19391
617.14062	1.20207
615.21205	1.21123
613.28349	1.22181
611.35492	1.23145
609.42636	1.23925
607.49780	1.24922
605.56923	1.26051
603.64067	1.27126
601.71210	1.28495
599.78354	1.30288
