3997.91406	1.35157
3995.98550	1.35022
3994.05693	1.34834
3992.12837	1.34910
3990.19980	1.35469
3988.27124	1.36059
3986.34268	1.35992
3984.41411	1.35480
3982.48555	1.35246
3980.55698	1.35528
3978.62842	1.35963
3976.69985	1.36118
3974.77129	1.35923
3972.84272	1.35511
3970.91416	1.34894
3968.98560	1.34390
3967.05703	1.34487
3965.12847	1.34969
3963.19990	1.35375
3961.27134	1.35494
3959.34277	1.35136
3957.41421	1.34704
3955.48564	1.34834
3953.55708	1.35057
3951.62852	1.34693
3949.69995	1.34307
3947.77139	1.34463
3945.84282	1.34718
3943.91426	1.34888
3941.98569	1.35006
3940.05713	1.34954
3938.12856	1.34888
3936.20000	1.34953
3934.27144	1.35064
3932.34287	1.34920
3930.41431	1.34237
3928.48574	1.33537
3926.55718	1.33426
3924.62861	1.33735
3922.70005	1.33962
3920.77148	1.34055
3918.84292	1.33938
3916.91436	1.33532
3914.98579	1.33296
3913.05723	1.33399
3911.12866	1.33409
3909.20010	1.33029
3907.27153	1.32468
3905.34297	1.32132
3903.41440	1.32311
3901.48584	1.32658
3899.55728	1.32671
3897.62871	1.32364
3895.70015	1.32179
3893.77158	1.32295
3891.84302	1.32388
3889.91445	1.32117
3887.98589	1.31740
3886.05733	1.31729
3884.12876	1.32128
3882.20020	1.32290
3880.27163	1.32288
3878.34307	1.32309
3876.41450	1.32366
3874.48594	1.32598
3872.55737	1.32875
3870.62881	1.32988
3868.70025	1.32642
3866.77168	1.32262
3864.84312	1.32656
3862.91455	1.32925
3860.98599	1.31992
3859.05742	1.31092
3857.12886	1.30784
3855.20029	1.30312
3853.27173	1.30139
3851.34317	1.31382
3849.41460	1.31729
3847.48604	1.31121
3845.55747	1.30516
3843.62891	1.30491
3841.70034	1.30998
3839.77178	1.32225
3837.84321	1.33492
3835.91465	1.33103
3833.98609	1.32010
3832.05752	1.31190
3830.12896	1.30716
3828.20039	1.30245
3826.27183	1.29458
3824.34326	1.28825
3822.41470	1.28919
3820.48613	1.29320
3818.55757	1.29272
3816.62901	1.29484
3814.70044	1.30168
3812.77188	1.30525
3810.84331	1.30245
3808.91475	1.29569
3806.98618	1.29233
3805.05762	1.29470
3803.12905	1.29732
3801.20049	1.29592
3799.27193	1.28995
3797.34336	1.28561
3795.41480	1.28514
3793.48623	1.28822
3791.55767	1.29247
3789.62910	1.29100
3787.70054	1.28343
3785.77197	1.27844
3783.84341	1.27898
3781.91485	1.28259
3779.98628	1.28670
3778.05772	1.28561
3776.12915	1.28193
3774.20059	1.28193
3772.27202	1.28609
3770.34346	1.28999
3768.41489	1.28883
3766.48633	1.28445
3764.55777	1.27918
3762.62920	1.27595
3760.70064	1.27734
3758.77207	1.28170
3756.84351	1.28309
3754.91494	1.28231
3752.98638	1.28289
3751.05781	1.28371
3749.12925	1.28250
3747.20069	1.28070
3745.27212	1.27830
3743.34356	1.27648
3741.41499	1.27611
3739.48643	1.27946
3737.55786	1.29001
3735.62930	1.30313
3733.70074	1.30175
3731.77217	1.29169
3729.84361	1.28381
3727.91504	1.27918
3725.98648	1.28011
3724.05791	1.28550
3722.12935	1.28784
3720.20078	1.28451
3718.27222	1.27708
3716.34366	1.26828
3714.41509	1.26190
3712.48653	1.26214
3710.55796	1.26800
3708.62940	1.27098
3706.70083	1.27263
3704.77227	1.27465
3702.84370	1.27611
3700.91514	1.27665
3698.98658	1.27904
3697.05801	1.28353
3695.12945	1.28480
3693.20088	1.28064
3691.27232	1.27447
3689.34375	1.27308
3687.41519	1.27980
3685.48662	1.28645
3683.55806	1.28918
3681.62950	1.28843
3679.70093	1.28569
3677.77237	1.28275
3675.84380	1.28871
3673.91524	1.30383
3671.98667	1.31412
3670.05811	1.32004
3668.12954	1.32013
3666.20098	1.31769
3664.27242	1.31786
3662.34385	1.32407
3660.41529	1.33331
3658.48672	1.34083
3656.55816	1.34768
3654.62959	1.35158
3652.70103	1.35542
3650.77246	1.37348
3648.84390	1.40122
3646.91534	1.39791
3644.98677	1.38739
3643.05821	1.38558
3641.12964	1.39307
3639.20108	1.40392
3637.27251	1.41421
3635.34395	1.42637
3633.41538	1.43606
3631.48682	1.43775
3629.55826	1.44064
3627.62969	1.44389
3625.70113	1.44289
3623.77256	1.44882
3621.84400	1.46126
3619.91543	1.47226
3617.98687	1.47732
3616.05830	1.48082
3614.12974	1.48483
3612.20118	1.49159
3610.27261	1.50670
3608.34405	1.52496
3606.41548	1.53270
3604.48692	1.53584
3602.55835	1.54447
3600.62979	1.55360
3598.70123	1.55708
3596.77266	1.56466
3594.84410	1.57874
3592.91553	1.58575
3590.98697	1.58258
3589.05840	1.57842
3587.12984	1.58360
3585.20127	1.59378
3583.27271	1.60044
3581.34415	1.60649
3579.41558	1.61494
3577.48702	1.62518
3575.55845	1.63284
3573.62989	1.63534
3571.70132	1.63827
3569.77276	1.64429
3567.84419	1.65101
3565.91563	1.66483
3563.98707	1.68298
3562.05850	1.69393
3560.12994	1.69670
3558.20137	1.69634
3556.27281	1.69559
3554.34424	1.69528
3552.41568	1.69892
3550.48711	1.70546
3548.55855	1.70959
3546.62999	1.71671
3544.70142	1.73608
3542.77286	1.75508
3540.84429	1.75859
3538.91573	1.75603
3536.98716	1.75989
3535.05860	1.76304
3533.13003	1.75892
3531.20147	1.76130
3529.27291	1.78298
3527.34434	1.81177
3525.41578	1.83003
3523.48721	1.83854
3521.55865	1.83731
3519.63008	1.83109
3517.70152	1.82655
3515.77295	1.82205
3513.84439	1.81931
3511.91583	1.82602
3509.98726	1.84003
3508.05870	1.84456
3506.13013	1.84566
3504.20157	1.86551
3502.27300	1.89299
3500.34444	1.90525
3498.41587	1.91010
3496.48731	1.91254
3494.55875	1.91047
3492.63018	1.90791
3490.70162	1.91003
3488.77305	1.91165
3486.84449	1.90481
3484.91592	1.89987
3482.98736	1.90938
3481.05879	1.93006
3479.13023	1.94896
3477.20167	1.95525
3475.27310	1.94996
3473.34454	1.94378
3471.41597	1.94270
3469.48741	1.94838
3467.55884	1.95580
3465.63028	1.95743
3463.70171	1.95681
3461.77315	1.95594
3459.84459	1.95899
3457.91602	1.97125
3455.98746	1.97951
3454.05889	1.97198
3452.13033	1.95720
3450.20176	1.94609
3448.27320	1.93978
3446.34464	1.93479
3444.41607	1.93304
3442.48751	1.94619
3440.55894	1.97947
3438.63038	2.00553
3436.70181	2.00135
3434.77325	1.99425
3432.84468	2.00680
3430.91612	2.01618
3428.98756	1.99074
3427.05899	1.94854
3425.13043	1.93448
3423.20186	1.96087
3421.27330	1.99802
3419.34473	2.00949
3417.41617	1.99870
3415.48760	1.98640
3413.55904	1.98592
3411.63048	2.00075
3409.70191	2.01357
3407.77335	2.00589
3405.84478	1.98922
3403.91622	1.98723
3401.98765	2.00096
3400.05909	2.01476
3398.13052	2.02802
3396.20196	2.04109
3394.27340	2.04221
3392.34483	2.03430
3390.41627	2.02984
3388.48770	2.03193
3386.55914	2.03399
3384.63057	2.02879
3382.70201	2.02167
3380.77344	2.02141
3378.84488	2.02030
3376.91632	2.00837
3374.98775	2.00171
3373.05919	2.01268
3371.13062	2.02892
3369.20206	2.04301
3367.27349	2.05190
3365.34493	2.05069
3363.41636	2.04731
3361.48780	2.04519
3359.55924	2.04113
3357.63067	2.04424
3355.70211	2.05784
3353.77354	2.06463
3351.84498	2.05584
3349.91641	2.03583
3347.98785	2.01211
3346.05928	2.00336
3344.13072	2.01573
3342.20216	2.03496
3340.27359	2.05496
3338.34503	2.07554
3336.41646	2.08441
3334.48790	2.07668
3332.55933	2.06420
3330.63077	2.05927
3328.70220	2.06058
3326.77364	2.05950
3324.84508	2.06821
3322.91651	2.09167
3320.98795	2.10736
3319.05938	2.10763
3317.13082	2.09944
3315.20225	2.08939
3313.27369	2.07836
3311.34513	2.06034
3309.41656	2.04546
3307.48800	2.05096
3305.55943	2.07268
3303.63087	2.08483
3301.70230	2.08050
3299.77374	2.08243
3297.84517	2.09509
3295.91661	2.09572
3293.98805	2.08199
3292.05948	2.07923
3290.13092	2.08462
3288.20235	2.08173
3286.27379	2.08270
3284.34522	2.08799
3282.41666	2.08308
3280.48809	2.07410
3278.55953	2.06610
3276.63097	2.05621
3274.70240	2.05273
3272.77384	2.05654
3270.84527	2.05505
3268.91671	2.04901
3266.98814	2.04348
3265.05958	2.03955
3263.13101	2.04618
3261.20245	2.05867
3259.27389	2.05937
3257.34532	2.05036
3255.41676	2.04159
3253.48819	2.03897
3251.55963	2.03496
3249.63106	2.01168
3247.70250	1.98321
3245.77393	1.96906
3243.84537	1.96411
3241.91681	1.96490
3239.98824	1.97019
3238.05968	1.97329
3236.13111	1.96988
3234.20255	1.96430
3232.27398	1.96339
3230.34542	1.96224
3228.41685	1.95710
3226.48829	1.95576
3224.55973	1.96124
3222.63116	1.96406
3220.70260	1.95873
3218.77403	1.95313
3216.84547	1.94695
3214.91690	1.94086
3212.98834	1.95148
3211.05977	1.97203
3209.13121	1.96788
3207.20265	1.93586
3205.27408	1.90913
3203.34552	1.90478
3201.41695	1.90952
3199.48839	1.90953
3197.55982	1.90788
3195.63126	1.90307
3193.70269	1.89186
3191.77413	1.88501
3189.84557	1.88607
3187.91700	1.88436
3185.98844	1.88095
3184.05987	1.88203
3182.13131	1.88250
3180.20274	1.87992
3178.27418	1.87660
3176.34562	1.87377
3174.41705	1.87024
3172.48849	1.86387
3170.55992	1.85330
3168.63136	1.83841
3166.70279	1.83070
3164.77423	1.83884
3162.84566	1.84757
3160.91710	1.84229
3158.98854	1.83191
3157.05997	1.82740
3155.13141	1.82769
3153.20284	1.82455
3151.27428	1.81693
3149.34571	1.81270
3147.41715	1.80624
3145.48858	1.79345
3143.56002	1.78779
3141.63146	1.79095
3139.70289	1.79414
3137.77433	1.79429
3135.84576	1.79076
3133.91720	1.78863
3131.98863	1.79414
3130.06007	1.80122
3128.13150	1.79631
3126.20294	1.78185
3124.27438	1.77045
3122.34581	1.76376
3120.41725	1.76082
3118.48868	1.76327
3116.56012	1.76767
3114.63155	1.76738
3112.70299	1.76420
3110.77442	1.76449
3108.84586	1.76761
3106.91730	1.77114
3104.98873	1.77053
3103.06017	1.76215
3101.13160	1.75479
3099.20304	1.75520
3097.27447	1.75737
3095.34591	1.75824
3093.41734	1.76153
3091.48878	1.76560
3089.56022	1.76562
3087.63165	1.76359
3085.70309	1.76180
3083.77452	1.75709
3081.84596	1.75330
3079.91739	1.75452
3077.98883	1.75109
3076.06026	1.74148
3074.13170	1.73762
3072.20314	1.74058
3070.27457	1.74274
3068.34601	1.74235
3066.41744	1.73872
3064.48888	1.72909
3062.56031	1.71882
3060.63175	1.71541
3058.70318	1.71824
3056.77462	1.72238
3054.84606	1.72333
3052.91749	1.71901
3050.98893	1.71126
3049.06036	1.70450
3047.13180	1.69862
3045.20323	1.69197
3043.27467	1.68934
3041.34610	1.69140
3039.41754	1.69193
3037.48898	1.68885
3035.56041	1.68256
3033.63185	1.67405
3031.70328	1.66798
3029.77472	1.66653
3027.84615	1.66696
3025.91759	1.66513
3023.98903	1.65899
3022.06046	1.65185
3020.13190	1.64723
3018.20333	1.64776
3016.27477	1.65098
3014.34620	1.64587
3012.41764	1.63336
3010.48907	1.62480
3008.56051	1.62089
3006.63195	1.61886
3004.70338	1.61921
3002.77482	1.62023
3000.84625	1.61980
2998.91769	1.61935
2996.98912	1.61950
2995.06056	1.61867
2993.13199	1.62016
2991.20343	1.62639
2989.27487	1.63125
2987.34630	1.63243
2985.41774	1.63615
2983.48917	1.64352
2981.56061	1.65045
2979.63204	1.65930
2977.70348	1.66991
2975.77491	1.67299
2973.84635	1.67239
2971.91779	1.68164
2969.98922	1.69882
2968.06066	1.71138
2966.13209	1.71230
2964.20353	1.70745
2962.27496	1.70497
2960.34640	1.70266
2958.41783	1.69857
2956.48927	1.69630
2954.56071	1.69637
2952.63214	1.69532
2950.70358	1.69110
2948.77501	1.68498
2946.84645	1.67924
2944.91788	1.67735
2942.98932	1.68244
2941.06075	1.69191
2939.13219	1.70180
2937.20363	1.71346
2935.27506	1.72677
2933.34650	1.74038
2931.41793	1.75549
2929.48937	1.76754
2927.56080	1.77312
2925.63224	1.77758
2923.70367	1.78298
2921.77511	1.78627
2919.84655	1.78345
2917.91798	1.77042
2915.98942	1.74956
2914.06085	1.72697
2912.13229	1.70556
2910.20372	1.68926
2908.27516	1.67940
2906.34659	1.67045
2904.41803	1.65841
2902.48947	1.64498
2900.56090	1.63488
2898.63234	1.62738
2896.70377	1.61719
2894.77521	1.60919
2892.84664	1.60973
2890.91808	1.61074
2888.98952	1.60319
2887.06095	1.59215
2885.13239	1.58616
2883.20382	1.58542
2881.27526	1.58624
2879.34669	1.58784
2877.41813	1.58964
2875.48956	1.58873
2873.56100	1.58422
2871.63244	1.57807
2869.70387	1.57115
2867.77531	1.56444
2865.84674	1.56107
2863.91818	1.56223
2861.98961	1.56523
2860.06105	1.56939
2858.13248	1.57819
2856.20392	1.59133
2854.27536	1.60321
2852.34679	1.60989
2850.41823	1.60773
2848.48966	1.59397
2846.56110	1.57239
2844.63253	1.54755
2842.70397	1.52289
2840.77540	1.50447
2838.84684	1.49521
2836.91828	1.49131
2834.98971	1.48716
2833.06115	1.47963
2831.13258	1.46986
2829.20402	1.46095
2827.27545	1.45404
2825.34689	1.44926
2823.41832	1.44544
2821.48976	1.44005
2819.56120	1.43425
2817.63263	1.43149
2815.70407	1.43131
2813.77550	1.43010
2811.84694	1.42517
2809.91837	1.41810
2807.98981	1.41358
2806.06124	1.41232
2804.13268	1.41071
2802.20412	1.40736
2800.27555	1.40389
2798.34699	1.40177
2796.41842	1.40057
2794.48986	1.39890
2792.56129	1.39726
2790.63273	1.39701
2788.70416	1.39740
2786.77560	1.39660
2784.84704	1.39399
2782.91847	1.38975
2780.98991	1.38463
2779.06134	1.38006
2777.13278	1.37711
2775.20421	1.37611
2773.27565	1.37621
2771.34708	1.37549
2769.41852	1.37269
2767.48996	1.36825
2765.56139	1.36298
2763.63283	1.35728
2761.70426	1.35313
2759.77570	1.35168
2757.84713	1.35043
2755.91857	1.34783
2753.99001	1.34560
2752.06144	1.34450
2750.13288	1.34292
2748.20431	1.34081
2746.27575	1.33933
2744.34718	1.33755
2742.41862	1.33516
2740.49005	1.33421
2738.56149	1.33640
2736.63293	1.33960
2734.70436	1.33940
2732.77580	1.33564
2730.84723	1.33205
2728.91867	1.33074
2726.99010	1.33065
2725.06154	1.32996
2723.13297	1.32835
2721.20441	1.32704
2719.27585	1.32710
2717.34728	1.32717
2715.41872	1.32541
2713.49015	1.32204
2711.56159	1.31885
2709.63302	1.31745
2707.70446	1.31658
2705.77589	1.31415
2703.84733	1.31110
2701.91877	1.30867
2699.99020	1.30620
2698.06164	1.30372
2696.13307	1.30233
2694.20451	1.30155
2692.27594	1.30043
2690.34738	1.29829
2688.41881	1.29467
2686.49025	1.29131
2684.56169	1.29061
2682.63312	1.29179
2680.70456	1.29169
2678.77599	1.29043
2676.84743	1.29027
2674.91886	1.29023
2672.99030	1.28916
2671.06173	1.28820
2669.13317	1.28697
2667.20461	1.28449
2665.27604	1.28231
2663.34748	1.28135
2661.41891	1.28030
2659.49035	1.27958
2657.56178	1.27995
2655.63322	1.28001
2653.70465	1.27854
2651.77609	1.27571
2649.84753	1.27182
2647.91896	1.26792
2645.99040	1.26632
2644.06183	1.26673
2642.13327	1.26617
2640.20470	1.26420
2638.27614	1.26194
2636.34757	1.25902
2634.41901	1.25631
2632.49045	1.25537
2630.56188	1.25541
2628.63332	1.25531
2626.70475	1.25455
2624.77619	1.25258
2622.84762	1.25084
2620.91906	1.25141
2618.99049	1.25249
2617.06193	1.25090
2615.13337	1.24764
2613.20480	1.24538
2611.27624	1.24451
2609.34767	1.24397
2607.41911	1.24306
2605.49054	1.24196
2603.56198	1.24120
2601.63342	1.24109
2599.70485	1.24094
2597.77629	1.24032
2595.84772	1.23943
2593.91916	1.23744
2591.99059	1.23528
2590.06203	1.23504
2588.13346	1.23524
2586.20490	1.23380
2584.27634	1.23160
2582.34777	1.22854
2580.41921	1.22421
2578.49064	1.22147
2576.56208	1.22106
2574.63351	1.21981
2572.70495	1.21740
2570.77638	1.21627
2568.84782	1.21610
2566.91926	1.21494
2564.99069	1.21344
2563.06213	1.21248
2561.13356	1.21089
2559.20500	1.20898
2557.27643	1.20818
2555.34787	1.20789
2553.41930	1.20718
2551.49074	1.20592
2549.56218	1.20460
2547.63361	1.20429
2545.70505	1.20414
2543.77648	1.20236
2541.84792	1.20005
2539.91935	1.19894
2537.99079	1.19839
2536.06222	1.19752
2534.13366	1.19713
2532.20510	1.19681
2530.27653	1.19460
2528.34797	1.19177
2526.41940	1.19045
2524.49084	1.18898
2522.56227	1.18613
2520.63371	1.18334
2518.70514	1.18114
2516.77658	1.17926
2514.84802	1.17745
2512.91945	1.17495
2510.99089	1.17233
2509.06232	1.17105
2507.13376	1.17048
2505.20519	1.16900
2503.27663	1.16688
2501.34806	1.16546
2499.41950	1.16493
2497.49094	1.16463
2495.56237	1.16388
2493.63381	1.16149
2491.70524	1.15819
2489.77668	1.15645
2487.84811	1.15596
2485.91955	1.15510
2483.99098	1.15417
2482.06242	1.15388
2480.13386	1.15406
2478.20529	1.15365
2476.27673	1.15194
2474.34816	1.15015
2472.41960	1.14907
2470.49103	1.14788
2468.56247	1.14634
2466.63391	1.14514
2464.70534	1.14441
2462.77678	1.14319
2460.84821	1.14118
2458.91965	1.13922
2456.99108	1.13768
2455.06252	1.13650
2453.13395	1.13535
2451.20539	1.13419
2449.27683	1.13325
2447.34826	1.13210
2445.41970	1.13072
2443.49113	1.12987
2441.56257	1.12907
2439.63400	1.12717
2437.70544	1.12515
2435.77687	1.12442
2433.84831	1.12418
2431.91975	1.12265
2429.99118	1.11966
2428.06262	1.11711
2426.13405	1.11627
2424.20549	1.11587
2422.27692	1.11476
2420.34836	1.11347
2418.41979	1.11245
2416.49123	1.11104
2414.56267	1.10903
2412.63410	1.10749
2410.70554	1.10694
2408.77697	1.10623
2406.84841	1.10488
2404.91984	1.10377
2402.99128	1.10276
2401.06271	1.10188
2399.13415	1.10214
2397.20559	1.10317
2395.27702	1.10314
2393.34846	1.10137
2391.41989	1.09949
2389.49133	1.09898
2387.56276	1.09911
2385.63420	1.09920
2383.70563	1.10008
2381.77707	1.10251
2379.84851	1.10661
2377.91994	1.11285
2375.99138	1.12095
2374.06281	1.12983
2372.13425	1.13963
2370.20568	1.14924
2368.27712	1.15561
2366.34855	1.15998
2364.41999	1.16260
2362.49143	1.15896
2360.56286	1.15543
2358.63430	1.15686
2356.70573	1.15483
2354.77717	1.14858
2352.84860	1.13775
2350.92004	1.12521
2348.99147	1.11752
2347.06291	1.11531
2345.13435	1.11640
2343.20578	1.11899
2341.27722	1.12085
2339.34865	1.12234
2337.42009	1.12694
2335.49152	1.13153
2333.56296	1.13104
2331.63440	1.12741
2329.70583	1.12441
2327.77727	1.12072
2325.84870	1.11325
2323.92014	1.10370
2321.99157	1.09498
2320.06301	1.08819
2318.13444	1.08364
2316.20588	1.08009
2314.27732	1.07707
2312.34875	1.07516
2310.42019	1.07341
2308.49162	1.07101
2306.56306	1.06856
2304.63449	1.06600
2302.70593	1.06285
2300.77736	1.05967
2298.84880	1.05715
2296.92024	1.05477
2294.99167	1.05212
2293.06311	1.05032
2291.13454	1.05018
2289.20598	1.05041
2287.27741	1.04937
2285.34885	1.04776
2283.42028	1.04724
2281.49172	1.04747
2279.56316	1.04756
2277.63459	1.04769
2275.70603	1.04785
2273.77746	1.04771
2271.84890	1.04711
2269.92033	1.04623
2267.99177	1.04568
2266.06320	1.04595
2264.13464	1.04640
2262.20608	1.04588
2260.27751	1.04440
2258.34895	1.04278
2256.42038	1.04133
2254.49182	1.04009
2252.56325	1.03865
2250.63469	1.03633
2248.70612	1.03373
2246.77756	1.03173
2244.84900	1.02972
2242.92043	1.02743
2240.99187	1.02557
2239.06330	1.02386
2237.13474	1.02190
2235.20617	1.02013
2233.27761	1.01851
2231.34904	1.01666
2229.42048	1.01489
2227.49192	1.01357
2225.56335	1.01244
2223.63479	1.01124
2221.70622	1.01065
2219.77766	1.01110
2217.84909	1.01114
2215.92053	1.01000
2213.99196	1.00908
2212.06340	1.00927
2210.13484	1.00943
2208.20627	1.00844
2206.27771	1.00742
2204.34914	1.00746
2202.42058	1.00747
2200.49201	1.00684
2198.56345	1.00663
2196.63488	1.00655
2194.70632	1.00513
2192.77776	1.00318
2190.84919	1.00223
2188.92063	1.00186
2186.99206	1.00137
2185.06350	1.00094
2183.13493	1.00068
2181.20637	1.00042
2179.27781	1.00000
2177.34924	0.99913
2175.42068	0.99759
2173.49211	0.99616
2171.56355	0.99595
2169.63498	0.99649
2167.70642	0.99660
2165.77785	0.99629
2163.84929	0.99590
2161.92073	0.99535
2159.99216	0.99519
2158.06360	0.99537
2156.13503	0.99501
2154.20647	0.99431
2152.27790	0.99396
2150.34934	0.99376
2148.42077	0.99363
2146.49221	0.99371
2144.56365	0.99380
2142.63508	0.99371
2140.70652	0.99307
2138.77795	0.99171
2136.84939	0.99035
2134.92082	0.98958
2132.99226	0.98912
2131.06369	0.98844
2129.13513	0.98751
2127.20657	0.98635
2125.27800	0.98504
2123.34944	0.98382
2121.42087	0.98235
2119.49231	0.98028
2117.56374	0.97807
2115.63518	0.97637
2113.70661	0.97532
2111.77805	0.97423
2109.84949	0.97320
2107.92092	0.97249
2105.99236	0.97136
2104.06379	0.96985
2102.13523	0.96825
2100.20666	0.96649
2098.27810	0.96539
2096.34953	0.96499
2094.42097	0.96392
2092.49241	0.96210
2090.56384	0.96050
2088.63528	0.95896
2086.70671	0.95709
2084.77815	0.95526
2082.84958	0.95371
2080.92102	0.95264
2078.99245	0.95249
2077.06389	0.95282
2075.13533	0.95242
2073.20676	0.95126
2071.27820	0.95023
2069.34963	0.94959
2067.42107	0.94930
2065.49250	0.94926
2063.56394	0.94873
2061.63537	0.94762
2059.70681	0.94665
2057.77825	0.94597
2055.84968	0.94554
2053.92112	0.94549
2051.99255	0.94511
2050.06399	0.94399
2048.13542	0.94294
2046.20686	0.94241
2044.27830	0.94181
2042.34973	0.94076
2040.42117	0.93966
2038.49260	0.93893
2036.56404	0.93816
2034.63547	0.93665
2032.70691	0.93471
2030.77834	0.93334
2028.84978	0.93269
2026.92122	0.93206
2024.99265	0.93105
2023.06409	0.92969
2021.13552	0.92815
2019.20696	0.92688
2017.27839	0.92598
2015.34983	0.92477
2013.42126	0.92306
2011.49270	0.92164
2009.56414	0.92083
2007.63557	0.92011
2005.70701	0.91927
2003.77844	0.91852
2001.84988	0.91772
1999.92131	0.91672
1997.99275	0.91592
1996.06418	0.91557
1994.13562	0.91524
1992.20706	0.91459
1990.27849	0.91386
1988.34993	0.91328
1986.42136	0.91246
1984.49280	0.91135
1982.56423	0.91035
1980.63567	0.90919
1978.70710	0.90796
1976.77854	0.90709
1974.84998	0.90597
1972.92141	0.90452
1970.99285	0.90366
1969.06428	0.90345
1967.13572	0.90326
1965.20715	0.90260
1963.27859	0.90138
1961.35002	0.90028
1959.42146	0.89958
1957.49290	0.89882
1955.56433	0.89776
1953.63577	0.89624
1951.70720	0.89461
1949.77864	0.89339
1947.85007	0.89231
1945.92151	0.89108
1943.99294	0.89010
1942.06438	0.88917
1940.13582	0.88761
1938.20725	0.88554
1936.27869	0.88333
1934.35012	0.88133
1932.42156	0.87985
1930.49299	0.87901
1928.56443	0.87885
1926.63586	0.87883
1924.70730	0.87854
1922.77874	0.87819
1920.85017	0.87767
1918.92161	0.87719
1916.99304	0.87720
1915.06448	0.87716
1913.13591	0.87696
1911.20735	0.87711
1909.27878	0.87742
1907.35022	0.87719
1905.42166	0.87657
1903.49309	0.87586
1901.56453	0.87483
1899.63596	0.87390
1897.70740	0.87365
1895.77883	0.87367
1893.85027	0.87315
1891.92171	0.87236
1889.99314	0.87186
1888.06458	0.87110
1886.13601	0.87015
1884.20745	0.86924
1882.27888	0.86778
1880.35032	0.86611
1878.42175	0.86476
1876.49319	0.86370
1874.56463	0.86309
1872.63606	0.86306
1870.70750	0.86376
1868.77893	0.86478
1866.85037	0.86471
1864.92180	0.86408
1862.99324	0.86381
1861.06467	0.86369
1859.13611	0.86367
1857.20755	0.86377
1855.27898	0.86390
1853.35042	0.86409
1851.42185	0.86425
1849.49329	0.86450
1847.56472	0.86498
1845.63616	0.86603
1843.70759	0.86709
1841.77903	0.86600
1839.85047	0.86374
1837.92190	0.86195
1835.99334	0.86024
1834.06477	0.85800
1832.13621	0.85631
1830.20764	0.85571
1828.27908	0.85457
1826.35051	0.85248
1824.42195	0.85007
1822.49339	0.84749
1820.56482	0.84554
1818.63626	0.84469
1816.70769	0.84414
1814.77913	0.84341
1812.85056	0.84299
1810.92200	0.84307
1808.99343	0.84291
1807.06487	0.84244
1805.13631	0.84237
1803.20774	0.84314
1801.27918	0.84517
1799.35061	0.84743
1797.42205	0.84861
1795.49348	0.84949
1793.56492	0.85131
1791.63635	0.85345
1789.70779	0.85364
1787.77923	0.85312
1785.85066	0.85309
1783.92210	0.85317
1781.99353	0.85315
1780.06497	0.85308
1778.13640	0.85247
1776.20784	0.85146
1774.27927	0.85094
1772.35071	0.85110
1770.42215	0.85020
1768.49358	0.84843
1766.56502	0.84735
1764.63645	0.84761
1762.70789	0.84950
1760.77932	0.85209
1758.85076	0.85439
1756.92220	0.85806
1754.99363	0.86251
1753.06507	0.86736
1751.13650	0.87597
1749.20794	0.88898
1747.27937	0.90016
1745.35081	0.90815
1743.42224	0.91571
1741.49368	0.92423
1739.56512	0.93256
1737.63655	0.93769
1735.70799	0.94158
1733.77942	0.94859
1731.85086	0.95361
1729.92229	0.95559
1727.99373	0.95788
1726.06516	0.96135
1724.13660	0.96677
1722.20804	0.97243
1720.27947	0.97777
1718.35091	0.98790
1716.42234	1.00525
1714.49378	1.01638
1712.56521	1.02337
1710.63665	1.03235
1708.70808	1.04512
1706.77952	1.06607
1704.85096	1.09442
1702.92239	1.12035
1700.99383	1.15769
1699.06526	1.21698
1697.13670	1.27155
1695.20813	1.32454
1693.27957	1.36337
1691.35100	1.39449
1689.42244	1.43322
1687.49388	1.46928
1685.56531	1.50469
1683.63675	1.55835
1681.70818	1.59252
1679.77962	1.60874
1677.85105	1.62484
1675.92249	1.64587
1673.99392	1.66780
1672.06536	1.68321
1670.13680	1.70070
1668.20823	1.71882
1666.27967	1.72658
1664.35110	1.73368
1662.42254	1.74285
1660.49397	1.74607
1658.56541	1.74588
1656.63684	1.74755
1654.70828	1.75722
1652.77972	1.76938
1650.85115	1.76432
1648.92259	1.75869
1646.99402	1.75606
1645.06546	1.75338
1643.13689	1.74854
1641.20833	1.74388
1639.27976	1.73958
1637.35120	1.73259
1635.42264	1.71864
1633.49407	1.70796
1631.56551	1.70245
1629.63694	1.69870
1627.70838	1.69639
1625.77981	1.69146
1623.85125	1.68000
1621.92269	1.66342
1619.99412	1.64945
1618.06556	1.63616
1616.13699	1.61492
1614.20843	1.59453
1612.27986	1.57985
1610.35130	1.56648
1608.42273	1.55173
1606.49417	1.53716
1604.56561	1.52635
1602.63704	1.51942
1600.70848	1.51422
1598.77991	1.50888
1596.85135	1.50386
1594.92278	1.50107
1592.99422	1.50119
1591.06565	1.50238
1589.13709	1.50402
1587.20853	1.50849
1585.27996	1.51645
1583.35140	1.52626
1581.42283	1.53647
1579.49427	1.54618
1577.56570	1.55701
1575.63714	1.57144
1573.70857	1.58255
1571.78001	1.59049
1569.85145	1.60248
1567.92288	1.61695
1565.99432	1.62761
1564.06575	1.63532
1562.13719	1.63933
1560.20862	1.64382
1558.28006	1.65868
1556.35149	1.66609
1554.42293	1.66533
1552.49437	1.66224
1550.56580	1.66016
1548.63724	1.66154
1546.70867	1.66610
1544.78011	1.67040
1542.85154	1.66680
1540.92298	1.65216
1538.99441	1.64174
1537.06585	1.63759
1535.13729	1.63293
1533.20872	1.62671
1531.28016	1.61968
1529.35159	1.61334
1527.42303	1.60759
1525.49446	1.60236
1523.56590	1.59817
1521.63733	1.59050
1519.70877	1.57716
1517.78021	1.56379
1515.85164	1.55412
1513.92308	1.54715
1511.99451	1.53886
1510.06595	1.52899
1508.13738	1.51243
1506.20882	1.48204
1504.28025	1.46511
1502.35169	1.45499
1500.42313	1.44438
1498.49456	1.43179
1496.56600	1.41611
1494.63743	1.40185
1492.70887	1.39169
1490.78030	1.38183
1488.85174	1.36795
1486.92317	1.35370
1484.99461	1.34361
1483.06605	1.33762
1481.13748	1.33433
1479.20892	1.33278
1477.28035	1.33388
1475.35179	1.33975
1473.42322	1.35206
1471.49466	1.36418
1469.56610	1.37052
1467.63753	1.37555
1465.70897	1.38213
1463.78040	1.38820
1461.85184	1.39071
1459.92327	1.39290
1457.99471	1.40053
1456.06614	1.40943
1454.13758	1.41055
1452.20902	1.40948
1450.28045	1.40732
1448.35189	1.40414
1446.42332	1.40135
1444.49476	1.39895
1442.56619	1.39590
1440.63763	1.39246
1438.70906	1.38802
1436.78050	1.38025
1434.85194	1.37146
1432.92337	1.36552
1430.99481	1.36095
1429.06624	1.35585
1427.13768	1.35094
1425.20911	1.34844
1423.28055	1.34885
1421.35198	1.35109
1419.42342	1.35518
1417.49486	1.35839
1415.56629	1.35882
1413.63773	1.35919
1411.70916	1.36005
1409.78060	1.36112
1407.85203	1.36227
1405.92347	1.36418
1403.99490	1.36689
1402.06634	1.36856
1400.13778	1.36930
1398.20921	1.37004
1396.28065	1.37123
1394.35208	1.37249
1392.42352	1.37242
1390.49495	1.37224
1388.56639	1.37533
1386.63782	1.38297
1384.70926	1.39038
1382.78070	1.39475
1380.85213	1.39566
1378.92357	1.39342
1376.99500	1.39034
1375.06644	1.38608
1373.13787	1.37769
1371.20931	1.36650
1369.28074	1.35389
1367.35218	1.34092
1365.42362	1.33001
1363.49505	1.32054
1361.56649	1.31162
1359.63792	1.30437
1357.70936	1.29897
1355.78079	1.29465
1353.85223	1.29057
1351.92366	1.28677
1349.99510	1.28358
1348.06654	1.28131
1346.13797	1.28025
1344.20941	1.27974
1342.28084	1.27900
1340.35228	1.27858
1338.42371	1.27917
1336.49515	1.28053
1334.56659	1.28289
1332.63802	1.28655
1330.70946	1.29108
1328.78089	1.29635
1326.85233	1.30153
1324.92376	1.30470
1322.99520	1.30665
1321.06663	1.31031
1319.13807	1.31584
1317.20951	1.32042
1315.28094	1.32317
1313.35238	1.32602
1311.42381	1.32872
1309.49525	1.32995
1307.56668	1.33051
1305.63812	1.33128
1303.70955	1.33219
1301.78099	1.33253
1299.85243	1.33164
1297.92386	1.32968
1295.99530	1.32737
1294.06673	1.32534
1292.13817	1.32373
1290.20960	1.32255
1288.28104	1.32206
1286.35247	1.32146
1284.42391	1.31987
1282.49535	1.31874
1280.56678	1.31894
1278.63822	1.31900
1276.70965	1.31871
1274.78109	1.31967
1272.85252	1.32249
1270.92396	1.32590
1268.99539	1.32895
1267.06683	1.33248
1265.13827	1.33722
1263.20970	1.34183
1261.28114	1.34444
1259.35257	1.34606
1257.42401	1.34910
1255.49544	1.35341
1253.56688	1.35751
1251.63831	1.36116
1249.70975	1.36426
1247.78119	1.36672
1245.85262	1.36997
1243.92406	1.37383
1241.99549	1.37534
1240.06693	1.37367
1238.13836	1.37113
1236.20980	1.36875
1234.28123	1.36535
1232.35267	1.36039
1230.42411	1.35435
1228.49554	1.34774
1226.56698	1.34008
1224.63841	1.33072
1222.70985	1.32115
1220.78128	1.31273
1218.85272	1.30492
1216.92415	1.29761
1214.99559	1.29124
1213.06703	1.28603
1211.13846	1.28274
1209.20990	1.28165
1207.28133	1.28072
1205.35277	1.27684
1203.42420	1.26947
1201.49564	1.26079
1199.56708	1.25202
1197.63851	1.24396
1195.70995	1.23764
1193.78138	1.23241
1191.85282	1.22809
1189.92425	1.22549
1187.99569	1.22388
1186.06712	1.22229
1184.13856	1.22138
1182.21000	1.22154
1180.28143	1.22194
1178.35287	1.22380
1176.42430	1.22946
1174.49574	1.23704
1172.56717	1.24241
1170.63861	1.24538
1168.71004	1.24888
1166.78148	1.25542
1164.85292	1.26533
1162.92435	1.27607
1160.99579	1.28463
1159.06722	1.28903
1157.13866	1.28722
1155.21009	1.27890
1153.28153	1.26614
1151.35296	1.25111
1149.42440	1.23644
1147.49584	1.22458
1145.56727	1.21468
1143.63871	1.20487
1141.71014	1.19697
1139.78158	1.19404
1137.85301	1.19590
1135.92445	1.20050
1133.99588	1.20693
1132.06732	1.21532
1130.13876	1.22540
1128.21019	1.23602
1126.28163	1.24676
1124.35306	1.25854
1122.42450	1.27105
1120.49593	1.28235
1118.56737	1.29070
1116.63880	1.29583
1114.71024	1.29810
1112.78168	1.29656
1110.85311	1.29110
1108.92455	1.28466
1106.99598	1.27966
1105.06742	1.27629
1103.13885	1.27514
1101.21029	1.27576
1099.28172	1.27585
1097.35316	1.27657
1095.42460	1.28071
1093.49603	1.28774
1091.56747	1.29618
1089.63890	1.30578
1087.71034	1.31654
1085.78177	1.32734
1083.85321	1.33769
1081.92464	1.34915
1079.99608	1.36099
1078.06752	1.36895
1076.13895	1.37066
1074.21039	1.36692
1072.28182	1.35875
1070.35326	1.34734
1068.42469	1.33540
1066.49613	1.32527
1064.56756	1.31677
1062.63900	1.30844
1060.71044	1.29950
1058.78187	1.29055
1056.85331	1.28232
1054.92474	1.27436
1052.99618	1.26658
1051.06761	1.25987
1049.13905	1.25472
1047.21049	1.25130
1045.28192	1.25054
1043.35336	1.25372
1041.42479	1.25915
1039.49623	1.26328
1037.56766	1.26583
1035.63910	1.26794
1033.71053	1.26837
1031.78197	1.26659
1029.85341	1.26405
1027.92484	1.26000
1025.99628	1.25197
1024.06771	1.24132
1022.13915	1.23300
1020.21058	1.22837
1018.28202	1.22409
1016.35345	1.21829
1014.42489	1.21071
1012.49633	1.20010
1010.56776	1.18658
1008.63920	1.17216
1006.71063	1.15842
1004.78207	1.14571
1002.85350	1.13418
1000.92494	1.12410
998.99637	1.11531
997.06781	1.10719
995.13925	1.09973
993.21068	1.09376
991.28212	1.08918
989.35355	1.08459
987.42499	1.08000
985.49642	1.07695
983.56786	1.07554
981.63929	1.07543
979.71073	1.07721
977.78217	1.08038
975.85360	1.08299
973.92504	1.08317
971.99647	1.08077
970.06791	1.07725
968.13934	1.07329
966.21078	1.06902
964.28221	1.06505
962.35365	1.06257
960.42509	1.06365
958.49652	1.06909
956.56796	1.07588
954.63939	1.07919
952.71083	1.07684
950.78226	1.07034
948.85370	1.06208
946.92513	1.05373
944.99657	1.04668
943.06801	1.04166
941.13944	1.03829
939.21088	1.03591
937.28231	1.03423
935.35375	1.03331
933.42518	1.03311
931.49662	1.03326
929.56805	1.03360
927.63949	1.03439
925.71093	1.03615
923.78236	1.03876
921.85380	1.04102
919.92523	1.04253
917.99667	1.04404
916.06810	1.04540
914.13954	1.04586
912.21098	1.04602
910.28241	1.04678
908.35385	1.04773
906.42528	1.04897
904.49672	1.05150
902.56815	1.05490
900.63959	1.05776
898.71102	1.05986
896.78246	1.06110
894.85390	1.06055
892.92533	1.05862
890.99677	1.05728
889.06820	1.05687
887.13964	1.05603
885.21107	1.05458
883.28251	1.05371
881.35394	1.05391
879.42538	1.05472
877.49682	1.05574
875.56825	1.05686
873.63969	1.05796
871.71112	1.05922
869.78256	1.06158
867.85399	1.06487
865.92543	1.06804
863.99686	1.07145
862.06830	1.07532
860.13974	1.07971
858.21117	1.08505
856.28261	1.09056
854.35404	1.09557
852.42548	1.10075
850.49691	1.10639
848.56835	1.11126
846.63978	1.11496
844.71122	1.11952
842.78266	1.12555
840.85409	1.13169
838.92553	1.13773
836.99696	1.14312
835.06840	1.14697
833.13983	1.14968
831.21127	1.15176
829.28270	1.15353
827.35414	1.15533
825.42558	1.15713
823.49701	1.15888
821.56845	1.15998
819.63988	1.15977
817.71132	1.15920
815.78275	1.15924
813.85419	1.15936
811.92562	1.15883
809.99706	1.15758
808.06850	1.15629
806.13993	1.15611
804.21137	1.15690
802.28280	1.15780
800.35424	1.15858
798.42567	1.15942
796.49711	1.16162
794.56854	1.16582
792.63998	1.17086
790.71142	1.17614
788.78285	1.18141
786.85429	1.18634
784.92572	1.19175
782.99716	1.19880
781.06859	1.20590
779.14003	1.21038
777.21147	1.21370
775.28290	1.21745
773.35434	1.21950
771.42577	1.21926
769.49721	1.21819
767.56864	1.21649
765.64008	1.21437
763.71151	1.21232
761.78295	1.20989
759.85439	1.20697
757.92582	1.20433
755.99726	1.20205
754.06869	1.19942
752.14013	1.19659
750.21156	1.19409
748.28300	1.19179
746.35443	1.19102
744.42587	1.19339
742.49731	1.19662
740.56874	1.19757
738.64018	1.19794
736.71161	1.20135
734.78305	1.20755
732.85448	1.21423
730.92592	1.22103
728.99735	1.22929
727.06879	1.23933
725.14023	1.24897
723.21166	1.25780
721.28310	1.26869
719.35453	1.27924
717.42597	1.28384
715.49740	1.28551
713.56884	1.28899
711.64027	1.29363
709.71171	1.29713
707.78315	1.29737
705.85458	1.29456
703.92602	1.29113
701.99745	1.28790
700.06889	1.28504
698.14032	1.28202
696.21176	1.27687
694.28319	1.27002
692.35463	1.26495
690.42607	1.26371
688.49750	1.26538
686.56894	1.26841
684.64037	1.27136
682.71181	1.27356
680.78324	1.27618
678.85468	1.27896
676.92611	1.28195
674.99755	1.28889
673.06899	1.29826
671.14042	1.30469
669.21186	1.31418
667.28329	1.33197
665.35473	1.34116
663.42616	1.34577
661.49760	1.35276
659.56903	1.36046
657.64047	1.36634
655.71191	1.37210
653.78334	1.37563
651.85478	1.37314
649.92621	1.37073
647.99765	1.37159
646.06908	1.36733
644.14052	1.35729
642.21195	1.34843
640.28339	1.34135
638.35483	1.33410
636.42626	1.32679
634.49770	1.32069
632.56913	1.31767
630.64057	1.31779
628.71200	1.31952
626.78344	1.32225
624.85488	1.32651
622.92631	1.33277
620.99775	1.34401
619.06918	1.36072
617.14062	1.37429
615.21205	1.38313
613.28349	1.39923
611.35492	1.42466
609.42636	1.44943
607.49780	1.47152
605.56923	1.49610
603.64067	1.51992
601.71210	1.54134
599.78354	1.56792
