3997.91406	0.95968
3995.98550	0.95753
3994.05693	0.95688
3992.12837	0.95809
3990.19980	0.95962
3988.27124	0.95982
3986.34268	0.95922
3984.41411	0.95804
3982.48555	0.95754
3980.55698	0.95944
3978.62842	0.96054
3976.69985	0.95821
3974.77129	0.95633
3972.84272	0.95779
3970.91416	0.96053
3968.98560	0.96225
3967.05703	0.96260
3965.12847	0.96244
3963.19990	0.96032
3961.27134	0.95533
3959.34277	0.95181
3957.41421	0.95239
3955.48564	0.95546
3953.55708	0.95882
3951.62852	0.95915
3949.69995	0.95608
3947.77139	0.95516
3945.84282	0.95686
3943.91426	0.95694
3941.98569	0.95632
3940.05713	0.95622
3938.12856	0.95429
3936.20000	0.95100
3934.27144	0.94869
3932.34287	0.94807
3930.41431	0.94992
3928.48574	0.95315
3926.55718	0.95449
3924.62861	0.95270
3922.70005	0.95006
3920.77148	0.94893
3918.84292	0.94870
3916.91436	0.94712
3914.98579	0.94397
3913.05723	0.94191
3911.12866	0.94297
3909.20010	0.94467
3907.27153	0.94318
3905.34297	0.93942
3903.41440	0.93790
3901.48584	0.94053
3899.55728	0.94413
3897.62871	0.94377
3895.70015	0.93909
3893.77158	0.93419
3891.84302	0.93323
3889.91445	0.93455
3887.98589	0.93577
3886.05733	0.93823
3884.12876	0.93862
3882.20020	0.93635
3880.27163	0.93492
3878.34307	0.93273
3876.41450	0.93013
3874.48594	0.92919
3872.55737	0.92927
3870.62881	0.93112
3868.70025	0.93245
3866.77168	0.93004
3864.84312	0.92871
3862.91455	0.93088
3860.98599	0.93157
3859.05742	0.92972
3857.12886	0.92745
3855.20029	0.92747
3853.27173	0.93132
3851.34317	0.93188
3849.41460	0.92948
3847.48604	0.92491
3845.55747	0.91776
3843.62891	0.91235
3841.70034	0.91247
3839.77178	0.91613
3837.84321	0.92063
3835.91465	0.92334
3833.98609	0.92371
3832.05752	0.92180
3830.12896	0.91847
3828.20039	0.91542
3826.27183	0.91344
3824.34326	0.91310
3822.41470	0.91688
3820.48613	0.92138
3818.55757	0.91837
3816.62901	0.91675
3814.70044	0.91834
3812.77188	0.91671
3810.84331	0.91293
3808.91475	0.91000
3806.98618	0.91225
3805.05762	0.91717
3803.12905	0.92039
3801.20049	0.92345
3799.27193	0.92195
3797.34336	0.91768
3795.41480	0.91655
3793.48623	0.91764
3791.55767	0.91728
3789.62910	0.91487
3787.70054	0.91205
3785.77197	0.91111
3783.84341	0.91232
3781.91485	0.91375
3779.98628	0.91531
3778.05772	0.91495
3776.12915	0.91194
3774.20059	0.90925
3772.27202	0.90822
3770.34346	0.91072
3768.41489	0.91536
3766.48633	0.91684
3764.55777	0.91516
3762.62920	0.91240
3760.70064	0.91088
3758.77207	0.91232
3756.84351	0.91191
3754.91494	0.90648
3752.98638	0.89934
3751.05781	0.89939
3749.12925	0.90745
3747.20069	0.91283
3745.27212	0.91781
3743.34356	0.91937
3741.41499	0.91429
3739.48643	0.90853
3737.55786	0.90580
3735.62930	0.90648
3733.70074	0.90910
3731.77217	0.91226
3729.84361	0.91390
3727.91504	0.91343
3725.98648	0.91090
3724.05791	0.90724
3722.12935	0.90543
3720.20078	0.90608
3718.27222	0.90624
3716.34366	0.90437
3714.41509	0.90105
3712.48653	0.89930
3710.55796	0.90310
3708.62940	0.90665
3706.70083	0.90655
3704.77227	0.90537
3702.84370	0.90597
3700.91514	0.90749
3698.98658	0.90792
3697.05801	0.90863
3695.12945	0.90793
3693.20088	0.90384
3691.27232	0.90001
3689.34375	0.90544
3687.41519	0.91558
3685.48662	0.91976
3683.55806	0.92022
3681.62950	0.92078
3679.70093	0.92261
3677.77237	0.92499
3675.84380	0.92820
3673.91524	0.92883
3671.98667	0.92870
3670.05811	0.93365
3668.12954	0.93836
3666.20098	0.94048
3664.27242	0.94386
3662.34385	0.94774
3660.41529	0.94999
3658.48672	0.95107
3656.55816	0.95425
3654.62959	0.95769
3652.70103	0.95833
3650.77246	0.96107
3648.84390	0.97391
3646.91534	0.98551
3644.98677	0.98951
3643.05821	0.99224
3641.12964	0.99776
3639.20108	1.00648
3637.27251	1.01571
3635.34395	1.02218
3633.41538	1.02407
3631.48682	1.02319
3629.55826	1.02949
3627.62969	1.04524
3625.70113	1.05244
3623.77256	1.05285
3621.84400	1.05265
3619.91543	1.05821
3617.98687	1.06989
3616.05830	1.07796
3614.12974	1.08093
3612.20118	1.08201
3610.27261	1.08677
3608.34405	1.09941
3606.41548	1.11114
3604.48692	1.11469
3602.55835	1.11652
3600.62979	1.12090
3598.70123	1.12731
3596.77266	1.13604
3594.84410	1.14624
3592.91553	1.15096
3590.98697	1.14729
3589.05840	1.14446
3587.12984	1.15275
3585.20127	1.16241
3583.27271	1.16653
3581.34415	1.17072
3579.41558	1.17675
3577.48702	1.18227
3575.55845	1.18630
3573.62989	1.18981
3571.70132	1.19217
3569.77276	1.19241
3567.84419	1.19760
3565.91563	1.21577
3563.98707	1.23158
3562.05850	1.23823
3560.12994	1.24204
3558.20137	1.24547
3556.27281	1.24521
3554.34424	1.24442
3552.41568	1.25066
3550.48711	1.26041
3548.55855	1.26955
3546.62999	1.28067
3544.70142	1.28991
3542.77286	1.29144
3540.84429	1.28822
3538.91573	1.28809
3536.98716	1.29512
3535.05860	1.30402
3533.13003	1.30864
3531.20147	1.30985
3529.27291	1.31274
3527.34434	1.32038
3525.41578	1.32963
3523.48721	1.33772
3521.55865	1.34371
3519.63008	1.34730
3517.70152	1.35048
3515.77295	1.35513
3513.84439	1.36304
3511.91583	1.37282
3509.98726	1.37740
3508.05870	1.37461
3506.13013	1.37241
3504.20157	1.37836
3502.27300	1.39099
3500.34444	1.40267
3498.41587	1.41149
3496.48731	1.41805
3494.55875	1.42326
3492.63018	1.42720
3490.70162	1.42907
3488.77305	1.43300
3486.84449	1.44107
3484.91592	1.44581
3482.98736	1.44398
3481.05879	1.44187
3479.13023	1.44400
3477.20167	1.44847
3475.27310	1.45030
3473.34454	1.44890
3471.41597	1.44970
3469.48741	1.45397
3467.55884	1.45997
3465.63028	1.46510
3463.70171	1.46549
3461.77315	1.46443
3459.84459	1.46646
3457.91602	1.46717
3455.98746	1.46301
3454.05889	1.46060
3452.13033	1.46704
3450.20176	1.47544
3448.27320	1.47302
3446.34464	1.46438
3444.41607	1.46344
3442.48751	1.46936
3440.55894	1.47815
3438.63038	1.48995
3436.70181	1.49641
3434.77325	1.49215
3432.84468	1.48823
3430.91612	1.49195
3428.98756	1.49495
3427.05899	1.48955
3425.13043	1.48146
3423.20186	1.47580
3421.27330	1.47203
3419.34473	1.47314
3417.41617	1.47840
3415.48760	1.48341
3413.55904	1.48817
3411.63048	1.49119
3409.70191	1.48983
3407.77335	1.48533
3405.84478	1.47887
3403.91622	1.47240
3401.98765	1.47044
3400.05909	1.47393
3398.13052	1.48022
3396.20196	1.48706
3394.27340	1.49055
3392.34483	1.49004
3390.41627	1.49074
3388.48770	1.49297
3386.55914	1.49433
3384.63057	1.49673
3382.70201	1.49717
3380.77344	1.48923
3378.84488	1.47850
3376.91632	1.47504
3374.98775	1.47958
3373.05919	1.48636
3371.13062	1.48983
3369.20206	1.49176
3367.27349	1.49518
3365.34493	1.49386
3363.41636	1.48873
3361.48780	1.48974
3359.55924	1.49530
3357.63067	1.49674
3355.70211	1.49302
3353.77354	1.49036
3351.84498	1.49360
3349.91641	1.49916
3347.98785	1.49887
3346.05928	1.49520
3344.13072	1.49692
3342.20216	1.50247
3340.27359	1.50704
3338.34503	1.51010
3336.41646	1.51225
3334.48790	1.51323
3332.55933	1.50948
3330.63077	1.50483
3328.70220	1.50896
3326.77364	1.51716
3324.84508	1.51809
3322.91651	1.51675
3320.98795	1.52228
3319.05938	1.53089
3317.13082	1.53468
3315.20225	1.53248
3313.27369	1.52939
3311.34513	1.52955
3309.41656	1.53322
3307.48800	1.53874
3305.55943	1.54046
3303.63087	1.53562
3301.70230	1.53200
3299.77374	1.53577
3297.84517	1.53987
3295.91661	1.53756
3293.98805	1.53584
3292.05948	1.53966
3290.13092	1.54476
3288.20235	1.54914
3286.27379	1.55247
3284.34522	1.55349
3282.41666	1.55197
3280.48809	1.54625
3278.55953	1.53780
3276.63097	1.53295
3274.70240	1.53353
3272.77384	1.53484
3270.84527	1.53185
3268.91671	1.52511
3266.98814	1.51829
3265.05958	1.51154
3263.13101	1.50684
3261.20245	1.50777
3259.27389	1.51187
3257.34532	1.51553
3255.41676	1.51762
3253.48819	1.51446
3251.55963	1.50372
3249.63106	1.49054
3247.70250	1.47980
3245.77393	1.47213
3243.84537	1.47022
3241.91681	1.47192
3239.98824	1.46781
3238.05968	1.45907
3236.13111	1.45461
3234.20255	1.45254
3232.27398	1.44791
3230.34542	1.44444
3228.41685	1.44555
3226.48829	1.44708
3224.55973	1.44398
3222.63116	1.43707
3220.70260	1.43033
3218.77403	1.42615
3216.84547	1.42206
3214.91690	1.41548
3212.98834	1.41016
3211.05977	1.40906
3209.13121	1.41088
3207.20265	1.41294
3205.27408	1.40946
3203.34552	1.39809
3201.41695	1.38639
3199.48839	1.38092
3197.55982	1.37841
3195.63126	1.37407
3193.70269	1.36920
3191.77413	1.36583
3189.84557	1.36300
3187.91700	1.35942
3185.98844	1.35435
3184.05987	1.34757
3182.13131	1.34141
3180.20274	1.33710
3178.27418	1.33348
3176.34562	1.33108
3174.41705	1.33022
3172.48849	1.32919
3170.55992	1.32613
3168.63136	1.32207
3166.70279	1.31899
3164.77423	1.31605
3162.84566	1.31304
3160.91710	1.30967
3158.98854	1.30418
3157.05997	1.29824
3155.13141	1.29643
3153.20284	1.29890
3151.27428	1.29964
3149.34571	1.29591
3147.41715	1.29039
3145.48858	1.28488
3143.56002	1.28042
3141.63146	1.27854
3139.70289	1.27824
3137.77433	1.27670
3135.84576	1.27411
3133.91720	1.27149
3131.98863	1.26975
3130.06007	1.26947
3128.13150	1.26723
3126.20294	1.26324
3124.27438	1.26190
3122.34581	1.26288
3120.41725	1.26468
3118.48868	1.26608
3116.56012	1.26576
3114.63155	1.26581
3112.70299	1.26602
3110.77442	1.26438
3108.84586	1.26353
3106.91730	1.26405
3104.98873	1.26340
3103.06017	1.26255
3101.13160	1.26275
3099.20304	1.26371
3097.27447	1.26461
3095.34591	1.26373
3093.41734	1.26104
3091.48878	1.25780
3089.56022	1.25437
3087.63165	1.25175
3085.70309	1.25004
3083.77452	1.24664
3081.84596	1.24098
3079.91739	1.23515
3077.98883	1.23080
3076.06026	1.22885
3074.13170	1.22730
3072.20314	1.22310
3070.27457	1.21666
3068.34601	1.21063
3066.41744	1.20722
3064.48888	1.20573
3062.56031	1.20285
3060.63175	1.19752
3058.70318	1.19199
3056.77462	1.18731
3054.84606	1.18279
3052.91749	1.17821
3050.98893	1.17380
3049.06036	1.17135
3047.13180	1.17084
3045.20323	1.16814
3043.27467	1.16266
3041.34610	1.15759
3039.41754	1.15371
3037.48898	1.15125
3035.56041	1.15002
3033.63185	1.14864
3031.70328	1.14731
3029.77472	1.14506
3027.84615	1.13976
3025.91759	1.13350
3023.98903	1.12936
3022.06046	1.12551
3020.13190	1.11944
3018.20333	1.11376
3016.27477	1.11099
3014.34620	1.10942
3012.41764	1.10697
3010.48907	1.10337
3008.56051	1.09977
3006.63195	1.09772
3004.70338	1.09792
3002.77482	1.09909
3000.84625	1.09931
2998.91769	1.09921
2996.98912	1.09967
2995.06056	1.10044
2993.13199	1.10211
2991.20343	1.10517
2989.27487	1.10963
2987.34630	1.11468
2985.41774	1.11874
2983.48917	1.12182
2981.56061	1.12512
2979.63204	1.12846
2977.70348	1.13189
2975.77491	1.13769
2973.84635	1.14605
2971.91779	1.15339
2969.98922	1.15870
2968.06066	1.16466
2966.13209	1.17172
2964.20353	1.17653
2962.27496	1.17642
2960.34640	1.17305
2958.41783	1.16992
2956.48927	1.16692
2954.56071	1.16194
2952.63214	1.15641
2950.70358	1.15305
2948.77501	1.15145
2946.84645	1.15049
2944.91788	1.15163
2942.98932	1.15645
2941.06075	1.16387
2939.13219	1.17277
2937.20363	1.18330
2935.27506	1.19490
2933.34650	1.20613
2931.41793	1.21654
2929.48937	1.22675
2927.56080	1.23614
2925.63224	1.24389
2923.70367	1.25099
2921.77511	1.25791
2919.84655	1.26195
2917.91798	1.26003
2915.98942	1.25032
2914.06085	1.23129
2912.13229	1.20623
2910.20372	1.18331
2908.27516	1.16719
2906.34659	1.15662
2904.41803	1.14854
2902.48947	1.14103
2900.56090	1.13406
2898.63234	1.12864
2896.70377	1.12473
2894.77521	1.12124
2892.84664	1.11718
2890.91808	1.11307
2888.98952	1.10918
2887.06095	1.10452
2885.13239	1.10040
2883.20382	1.09873
2881.27526	1.09860
2879.34669	1.09848
2877.41813	1.09770
2875.48956	1.09599
2873.56100	1.09357
2871.63244	1.09119
2869.70387	1.08842
2867.77531	1.08378
2865.84674	1.07823
2863.91818	1.07479
2861.98961	1.07481
2860.06105	1.07756
2858.13248	1.08273
2856.20392	1.09031
2854.27536	1.09939
2852.34679	1.10920
2850.41823	1.11622
2848.48966	1.11056
2846.56110	1.08805
2844.63253	1.05978
2842.70397	1.03701
2840.77540	1.02144
2838.84684	1.01043
2836.91828	1.00174
2834.98971	0.99440
2833.06115	0.98792
2831.13258	0.98280
2829.20402	0.97933
2827.27545	0.97576
2825.34689	0.97122
2823.41832	0.96699
2821.48976	0.96354
2819.56120	0.96057
2817.63263	0.95862
2815.70407	0.95732
2813.77550	0.95489
2811.84694	0.95113
2809.91837	0.94738
2807.98981	0.94408
2806.06124	0.94061
2804.13268	0.93771
2802.20412	0.93657
2800.27555	0.93570
2798.34699	0.93301
2796.41842	0.92938
2794.48986	0.92666
2792.56129	0.92460
2790.63273	0.92204
2788.70416	0.91932
2786.77560	0.91760
2784.84704	0.91643
2782.91847	0.91460
2780.98991	0.91264
2779.06134	0.91179
2777.13278	0.91110
2775.20421	0.90923
2773.27565	0.90712
2771.34708	0.90564
2769.41852	0.90468
2767.48996	0.90461
2765.56139	0.90488
2763.63283	0.90454
2761.70426	0.90388
2759.77570	0.90320
2757.84713	0.90229
2755.91857	0.90112
2753.99001	0.90059
2752.06144	0.90107
2750.13288	0.90121
2748.20431	0.90039
2746.27575	0.89969
2744.34718	0.89975
2742.41862	0.90001
2740.49005	0.89962
2738.56149	0.89782
2736.63293	0.89511
2734.70436	0.89310
2732.77580	0.89245
2730.84723	0.89239
2728.91867	0.89179
2726.99010	0.89057
2725.06154	0.88927
2723.13297	0.88786
2721.20441	0.88646
2719.27585	0.88556
2717.34728	0.88466
2715.41872	0.88292
2713.49015	0.88097
2711.56159	0.87967
2709.63302	0.87881
2707.70446	0.87813
2705.77589	0.87728
2703.84733	0.87601
2701.91877	0.87481
2699.99020	0.87425
2698.06164	0.87414
2696.13307	0.87352
2694.20451	0.87209
2692.27594	0.87105
2690.34738	0.87124
2688.41881	0.87197
2686.49025	0.87197
2684.56169	0.87050
2682.63312	0.86808
2680.70456	0.86546
2678.77599	0.86331
2676.84743	0.86200
2674.91886	0.86077
2672.99030	0.85928
2671.06173	0.85786
2669.13317	0.85647
2667.20461	0.85527
2665.27604	0.85387
2663.34748	0.85183
2661.41891	0.84966
2659.49035	0.84780
2657.56178	0.84653
2655.63322	0.84581
2653.70465	0.84501
2651.77609	0.84363
2649.84753	0.84192
2647.91896	0.84038
2645.99040	0.83903
2644.06183	0.83770
2642.13327	0.83637
2640.20470	0.83493
2638.27614	0.83327
2636.34757	0.83190
2634.41901	0.83118
2632.49045	0.83069
2630.56188	0.83015
2628.63332	0.82980
2626.70475	0.82923
2624.77619	0.82772
2622.84762	0.82578
2620.91906	0.82416
2618.99049	0.82265
2617.06193	0.82123
2615.13337	0.82048
2613.20480	0.82028
2611.27624	0.81964
2609.34767	0.81833
2607.41911	0.81732
2605.49054	0.81697
2603.56198	0.81627
2601.63342	0.81513
2599.70485	0.81462
2597.77629	0.81465
2595.84772	0.81443
2593.91916	0.81391
2591.99059	0.81346
2590.06203	0.81340
2588.13346	0.81352
2586.20490	0.81368
2584.27634	0.81374
2582.34777	0.81334
2580.41921	0.81260
2578.49064	0.81191
2576.56208	0.81144
2574.63351	0.81145
2572.70495	0.81141
2570.77638	0.81058
2568.84782	0.80926
2566.91926	0.80804
2564.99069	0.80711
2563.06213	0.80627
2561.13356	0.80491
2559.20500	0.80298
2557.27643	0.80139
2555.34787	0.80080
2553.41930	0.80043
2551.49074	0.79936
2549.56218	0.79804
2547.63361	0.79715
2545.70505	0.79671
2543.77648	0.79664
2541.84792	0.79651
2539.91935	0.79606
2537.99079	0.79598
2536.06222	0.79657
2534.13366	0.79718
2532.20510	0.79754
2530.27653	0.79812
2528.34797	0.79918
2526.41940	0.80008
2524.49084	0.80000
2522.56227	0.79914
2520.63371	0.79837
2518.70514	0.79819
2516.77658	0.79874
2514.84802	0.79967
2512.91945	0.80049
2510.99089	0.80061
2509.06232	0.79980
2507.13376	0.79862
2505.20519	0.79720
2503.27663	0.79573
2501.34806	0.79489
2499.41950	0.79448
2497.49094	0.79402
2495.56237	0.79355
2493.63381	0.79280
2491.70524	0.79124
2489.77668	0.78926
2487.84811	0.78801
2485.91955	0.78758
2483.99098	0.78701
2482.06242	0.78609
2480.13386	0.78487
2478.20529	0.78309
2476.27673	0.78147
2474.34816	0.78104
2472.41960	0.78102
2470.49103	0.78050
2468.56247	0.77973
2466.63391	0.77893
2464.70534	0.77784
2462.77678	0.77674
2460.84821	0.77640
2458.91965	0.77681
2456.99108	0.77722
2455.06252	0.77733
2453.13395	0.77716
2451.20539	0.77676
2449.27683	0.77621
2447.34826	0.77543
2445.41970	0.77476
2443.49113	0.77472
2441.56257	0.77466
2439.63400	0.77388
2437.70544	0.77323
2435.77687	0.77339
2433.84831	0.77350
2431.91975	0.77282
2429.99118	0.77210
2428.06262	0.77204
2426.13405	0.77197
2424.20549	0.77118
2422.27692	0.77003
2420.34836	0.76921
2418.41979	0.76860
2416.49123	0.76787
2414.56267	0.76743
2412.63410	0.76741
2410.70554	0.76698
2408.77697	0.76566
2406.84841	0.76407
2404.91984	0.76325
2402.99128	0.76330
2401.06271	0.76300
2399.13415	0.76171
2397.20559	0.76010
2395.27702	0.75874
2393.34846	0.75762
2391.41989	0.75684
2389.49133	0.75639
2387.56276	0.75573
2385.63420	0.75434
2383.70563	0.75271
2381.77707	0.75170
2379.84851	0.75152
2377.91994	0.75122
2375.99138	0.74984
2374.06281	0.74842
2372.13425	0.74836
2370.20568	0.74869
2368.27712	0.74736
2366.34855	0.74574
2364.41999	0.74712
2362.49143	0.74812
2360.56286	0.74858
2358.63430	0.75319
2356.70573	0.75408
2354.77717	0.75000
2352.84860	0.74920
2350.92004	0.74993
2348.99147	0.74870
2347.06291	0.74634
2345.13435	0.74514
2343.20578	0.74613
2341.27722	0.74715
2339.34865	0.74692
2337.42009	0.74679
2335.49152	0.74706
2333.56296	0.74632
2331.63440	0.74481
2329.70583	0.74304
2327.77727	0.74170
2325.84870	0.74256
2323.92014	0.74468
2321.99157	0.74490
2320.06301	0.74248
2318.13444	0.73970
2316.20588	0.73830
2314.27732	0.73779
2312.34875	0.73767
2310.42019	0.73797
2308.49162	0.73773
2306.56306	0.73686
2304.63449	0.73637
2302.70593	0.73595
2300.77736	0.73525
2298.84880	0.73473
2296.92024	0.73430
2294.99167	0.73374
2293.06311	0.73332
2291.13454	0.73321
2289.20598	0.73329
2287.27741	0.73350
2285.34885	0.73376
2283.42028	0.73393
2281.49172	0.73366
2279.56316	0.73294
2277.63459	0.73235
2275.70603	0.73185
2273.77746	0.73109
2271.84890	0.73039
2269.92033	0.72976
2267.99177	0.72896
2266.06320	0.72818
2264.13464	0.72771
2262.20608	0.72757
2260.27751	0.72747
2258.34895	0.72718
2256.42038	0.72701
2254.49182	0.72708
2252.56325	0.72680
2250.63469	0.72625
2248.70612	0.72605
2246.77756	0.72626
2244.84900	0.72651
2242.92043	0.72664
2240.99187	0.72675
2239.06330	0.72679
2237.13474	0.72649
2235.20617	0.72597
2233.27761	0.72566
2231.34904	0.72542
2229.42048	0.72471
2227.49192	0.72340
2225.56335	0.72186
2223.63479	0.72078
2221.70622	0.72025
2219.77766	0.71938
2217.84909	0.71780
2215.92053	0.71636
2213.99196	0.71511
2212.06340	0.71322
2210.13484	0.71117
2208.20627	0.70992
2206.27771	0.70898
2204.34914	0.70780
2202.42058	0.70663
2200.49201	0.70598
2198.56345	0.70604
2196.63488	0.70615
2194.70632	0.70567
2192.77776	0.70510
2190.84919	0.70487
2188.92063	0.70480
2186.99206	0.70485
2185.06350	0.70482
2183.13493	0.70454
2181.20637	0.70440
2179.27781	0.70453
2177.34924	0.70468
2175.42068	0.70459
2173.49211	0.70393
2171.56355	0.70296
2169.63498	0.70230
2167.70642	0.70200
2165.77785	0.70172
2163.84929	0.70098
2161.92073	0.69961
2159.99216	0.69822
2158.06360	0.69744
2156.13503	0.69727
2154.20647	0.69722
2152.27790	0.69695
2150.34934	0.69666
2148.42077	0.69633
2146.49221	0.69551
2144.56365	0.69455
2142.63508	0.69415
2140.70652	0.69410
2138.77795	0.69419
2136.84939	0.69443
2134.92082	0.69436
2132.99226	0.69388
2131.06369	0.69340
2129.13513	0.69303
2127.20657	0.69264
2125.27800	0.69222
2123.34944	0.69174
2121.42087	0.69119
2119.49231	0.69065
2117.56374	0.69008
2115.63518	0.68927
2113.70661	0.68815
2111.77805	0.68682
2109.84949	0.68531
2107.92092	0.68358
2105.99236	0.68193
2104.06379	0.68075
2102.13523	0.67974
2100.20666	0.67833
2098.27810	0.67660
2096.34953	0.67496
2094.42097	0.67338
2092.49241	0.67183
2090.56384	0.67047
2088.63528	0.66927
2086.70671	0.66804
2084.77815	0.66679
2082.84958	0.66567
2080.92102	0.66493
2078.99245	0.66463
2077.06389	0.66455
2075.13533	0.66425
2073.20676	0.66352
2071.27820	0.66263
2069.34963	0.66190
2067.42107	0.66117
2065.49250	0.66014
2063.56394	0.65885
2061.63537	0.65755
2059.70681	0.65638
2057.77825	0.65511
2055.84968	0.65360
2053.92112	0.65216
2051.99255	0.65078
2050.06399	0.64918
2048.13542	0.64744
2046.20686	0.64572
2044.27830	0.64410
2042.34973	0.64260
2040.42117	0.64106
2038.49260	0.63957
2036.56404	0.63827
2034.63547	0.63699
2032.70691	0.63557
2030.77834	0.63404
2028.84978	0.63262
2026.92122	0.63135
2024.99265	0.62999
2023.06409	0.62857
2021.13552	0.62743
2019.20696	0.62654
2017.27839	0.62560
2015.34983	0.62442
2013.42126	0.62308
2011.49270	0.62183
2009.56414	0.62065
2007.63557	0.61946
2005.70701	0.61842
2003.77844	0.61730
2001.84988	0.61594
1999.92131	0.61454
1997.99275	0.61323
1996.06418	0.61186
1994.13562	0.61061
1992.20706	0.61006
1990.27849	0.61010
1988.34993	0.60997
1986.42136	0.60942
1984.49280	0.60867
1982.56423	0.60800
1980.63567	0.60762
1978.70710	0.60760
1976.77854	0.60782
1974.84998	0.60812
1972.92141	0.60826
1970.99285	0.60804
1969.06428	0.60785
1967.13572	0.60811
1965.20715	0.60835
1963.27859	0.60799
1961.35002	0.60724
1959.42146	0.60649
1957.49290	0.60577
1955.56433	0.60504
1953.63577	0.60433
1951.70720	0.60373
1949.77864	0.60318
1947.85007	0.60220
1945.92151	0.60080
1943.99294	0.59967
1942.06438	0.59903
1940.13582	0.59825
1938.20725	0.59715
1936.27869	0.59606
1934.35012	0.59501
1932.42156	0.59405
1930.49299	0.59328
1928.56443	0.59256
1926.63586	0.59179
1924.70730	0.59112
1922.77874	0.59052
1920.85017	0.58966
1918.92161	0.58883
1916.99304	0.58833
1915.06448	0.58761
1913.13591	0.58660
1911.20735	0.58564
1909.27878	0.58493
1907.35022	0.58429
1905.42166	0.58334
1903.49309	0.58206
1901.56453	0.58056
1899.63596	0.57906
1897.70740	0.57770
1895.77883	0.57648
1893.85027	0.57533
1891.92171	0.57408
1889.99314	0.57289
1888.06458	0.57184
1886.13601	0.57073
1884.20745	0.56956
1882.27888	0.56851
1880.35032	0.56756
1878.42175	0.56658
1876.49319	0.56569
1874.56463	0.56492
1872.63606	0.56395
1870.70750	0.56294
1868.77893	0.56273
1866.85037	0.56280
1864.92180	0.56224
1862.99324	0.56143
1861.06467	0.56037
1859.13611	0.55913
1857.20755	0.55814
1855.27898	0.55737
1853.35042	0.55634
1851.42185	0.55469
1849.49329	0.55271
1847.56472	0.55073
1845.63616	0.54896
1843.70759	0.54767
1841.77903	0.54620
1839.85047	0.54429
1837.92190	0.54259
1835.99334	0.54104
1834.06477	0.53894
1832.13621	0.53681
1830.20764	0.53566
1828.27908	0.53500
1826.35051	0.53409
1824.42195	0.53345
1822.49339	0.53291
1820.56482	0.53228
1818.63626	0.53213
1816.70769	0.53235
1814.77913	0.53237
1812.85056	0.53250
1810.92200	0.53356
1808.99343	0.53511
1807.06487	0.53622
1805.13631	0.53696
1803.20774	0.53762
1801.27918	0.53883
1799.35061	0.54054
1797.42205	0.54175
1795.49348	0.54247
1793.56492	0.54391
1791.63635	0.54648
1789.70779	0.54763
1787.77923	0.54735
1785.85066	0.54727
1783.92210	0.54751
1781.99353	0.54778
1780.06497	0.54842
1778.13640	0.54886
1776.20784	0.54827
1774.27927	0.54761
1772.35071	0.54883
1770.42215	0.55082
1768.49358	0.55150
1766.56502	0.55146
1764.63645	0.55135
1762.70789	0.55229
1760.77932	0.55452
1758.85076	0.55645
1756.92220	0.55891
1754.99363	0.56185
1753.06507	0.56451
1751.13650	0.56879
1749.20794	0.57584
1747.27937	0.58291
1745.35081	0.58888
1743.42224	0.59465
1741.49368	0.60066
1739.56512	0.60687
1737.63655	0.61130
1735.70799	0.61452
1733.77942	0.62109
1731.85086	0.62792
1729.92229	0.63244
1727.99373	0.63691
1726.06516	0.64130
1724.13660	0.64643
1722.20804	0.65120
1720.27947	0.65475
1718.35091	0.66155
1716.42234	0.67636
1714.49378	0.68926
1712.56521	0.69851
1710.63665	0.70817
1708.70808	0.71957
1706.77952	0.73744
1704.85096	0.76209
1702.92239	0.78390
1700.99383	0.81393
1699.06526	0.86299
1697.13670	0.91093
1695.20813	0.95766
1693.27957	0.99029
1691.35100	1.01484
1689.42244	1.04500
1687.49388	1.07284
1685.56531	1.10152
1683.63675	1.15030
1681.70818	1.18622
1679.77962	1.20514
1677.85105	1.22230
1675.92249	1.24315
1673.99392	1.26509
1672.06536	1.28029
1670.13680	1.29562
1668.20823	1.31408
1666.27967	1.32510
1664.35110	1.33327
1662.42254	1.34411
1660.49397	1.35357
1658.56541	1.35859
1656.63684	1.35944
1654.70828	1.35881
1652.77972	1.36239
1650.85115	1.36385
1648.92259	1.36115
1646.99402	1.35844
1645.06546	1.35837
1643.13689	1.35805
1641.20833	1.35677
1639.27976	1.35336
1637.35120	1.34842
1635.42264	1.34753
1633.49407	1.34946
1631.56551	1.34851
1629.63694	1.34440
1627.70838	1.33764
1625.77981	1.32838
1623.85125	1.31612
1621.92269	1.30242
1619.99412	1.29043
1618.06556	1.27561
1616.13699	1.25231
1614.20843	1.23061
1612.27986	1.21222
1610.35130	1.19327
1608.42273	1.17392
1606.49417	1.15585
1604.56561	1.14082
1602.63704	1.12974
1600.70848	1.12239
1598.77991	1.11735
1596.85135	1.11377
1594.92278	1.11172
1592.99422	1.11165
1591.06565	1.11357
1589.13709	1.11744
1587.20853	1.12406
1585.27996	1.13333
1583.35140	1.14433
1581.42283	1.15581
1579.49427	1.16640
1577.56570	1.17997
1575.63714	1.20076
1573.70857	1.21444
1571.78001	1.22284
1569.85145	1.23831
1567.92288	1.25630
1565.99432	1.26771
1564.06575	1.27609
1562.13719	1.28145
1560.20862	1.28996
1558.28006	1.31064
1556.35149	1.31581
1554.42293	1.31505
1552.49437	1.31515
1550.56580	1.31354
1548.63724	1.30941
1546.70867	1.30424
1544.78011	1.29846
1542.85154	1.29415
1540.92298	1.29593
1538.99441	1.29477
1537.06585	1.28819
1535.13729	1.28024
1533.20872	1.27133
1531.28016	1.26412
1529.35159	1.25884
1527.42303	1.25356
1525.49446	1.24664
1523.56590	1.24034
1521.63733	1.23916
1519.70877	1.24034
1517.78021	1.23610
1515.85164	1.22581
1513.92308	1.21227
1511.99451	1.19678
1510.06595	1.18126
1508.13738	1.16391
1506.20882	1.13705
1504.28025	1.11733
1502.35169	1.10232
1500.42313	1.08574
1498.49456	1.06625
1496.56600	1.04575
1494.63743	1.02988
1492.70887	1.01785
1490.78030	1.00514
1488.85174	0.99170
1486.92317	0.98260
1484.99461	0.97646
1483.06605	0.97118
1481.13748	0.96715
1479.20892	0.96580
1477.28035	0.96760
1475.35179	0.97315
1473.42322	0.98559
1471.49466	1.00057
1469.56610	1.00769
1467.63753	1.01091
1465.70897	1.01641
1463.78040	1.02406
1461.85184	1.02740
1459.92327	1.02774
1457.99471	1.03186
1456.06614	1.03885
1454.13758	1.03947
1452.20902	1.03811
1450.28045	1.03690
1448.35189	1.03563
1446.42332	1.03341
1444.49476	1.03013
1442.56619	1.02620
1440.63763	1.02157
1438.70906	1.01547
1436.78050	1.00650
1434.85194	0.99681
1432.92337	0.98879
1430.99481	0.98085
1429.06624	0.97330
1427.13768	0.96807
1425.20911	0.96483
1423.28055	0.96288
1421.35198	0.96258
1419.42342	0.96458
1417.49486	0.96668
1415.56629	0.96622
1413.63773	0.96475
1411.70916	0.96319
1409.78060	0.96168
1407.85203	0.96069
1405.92347	0.96129
1403.99490	0.96314
1402.06634	0.96434
1400.13778	0.96516
1398.20921	0.96618
1396.28065	0.96769
1394.35208	0.97119
1392.42352	0.97624
1390.49495	0.98234
1388.56639	0.99252
1386.63782	1.00868
1384.70926	1.02514
1382.78070	1.03785
1380.85213	1.04597
1378.92357	1.04842
1376.99500	1.04527
1375.06644	1.03674
1373.13787	1.02444
1371.20931	1.01097
1369.28074	0.99515
1367.35218	0.97782
1365.42362	0.96273
1363.49505	0.94975
1361.56649	0.93855
1359.63792	0.93058
1357.70936	0.92539
1355.78079	0.92221
1353.85223	0.92057
1351.92366	0.91970
1349.99510	0.91927
1348.06654	0.91976
1346.13797	0.92161
1344.20941	0.92434
1342.28084	0.92732
1340.35228	0.93111
1338.42371	0.93684
1336.49515	0.94475
1334.56659	0.95476
1332.63802	0.96608
1330.70946	0.97650
1328.78089	0.98418
1326.85233	0.98952
1324.92376	0.99345
1322.99520	0.99655
1321.06663	0.99974
1319.13807	1.00340
1317.20951	1.00640
1315.28094	1.00769
1313.35238	1.00774
1311.42381	1.00764
1309.49525	1.00762
1307.56668	1.00624
1305.63812	1.00285
1303.70955	0.99932
1301.78099	0.99651
1299.85243	0.99340
1297.92386	0.98978
1295.99530	0.98659
1294.06673	0.98464
1292.13817	0.98429
1290.20960	0.98524
1288.28104	0.98646
1286.35247	0.98737
1284.42391	0.98834
1282.49535	0.98951
1280.56678	0.99010
1278.63822	0.99038
1276.70965	0.99229
1274.78109	0.99648
1272.85252	1.00207
1270.92396	1.00848
1268.99539	1.01520
1267.06683	1.02144
1265.13827	1.02631
1263.20970	1.02877
1261.28114	1.02869
1259.35257	1.02782
1257.42401	1.02768
1255.49544	1.02766
1253.56688	1.02736
1251.63831	1.02739
1249.70975	1.02754
1247.78119	1.02728
1245.85262	1.02637
1243.92406	1.02489
1241.99549	1.02365
1240.06693	1.02272
1238.13836	1.02103
1236.20980	1.01780
1234.28123	1.01288
1232.35267	1.00666
1230.42411	0.99973
1228.49554	0.99251
1226.56698	0.98516
1224.63841	0.97763
1222.70985	0.97006
1220.78128	0.96306
1218.85272	0.95753
1216.92415	0.95401
1214.99559	0.95232
1213.06703	0.95239
1211.13846	0.95482
1209.20990	0.95917
1207.28133	0.96280
1205.35277	0.96274
1203.42420	0.95851
1201.49564	0.95174
1199.56708	0.94334
1197.63851	0.93380
1195.70995	0.92426
1193.78138	0.91558
1191.85282	0.90863
1189.92425	0.90430
1187.99569	0.90225
1186.06712	0.90193
1184.13856	0.90382
1182.21000	0.90780
1180.28143	0.91294
1178.35287	0.91929
1176.42430	0.92704
1174.49574	0.93556
1172.56717	0.94485
1170.63861	0.95565
1168.71004	0.96814
1166.78148	0.98254
1164.85292	0.99889
1162.92435	1.01561
1160.99579	1.02977
1159.06722	1.03861
1157.13866	1.04086
1155.21009	1.03563
1153.28153	1.02272
1151.35296	1.00515
1149.42440	0.98643
1147.49584	0.96824
1145.56727	0.95190
1143.63871	0.93898
1141.71014	0.93049
1139.78158	0.92670
1137.85301	0.92738
1135.92445	0.93200
1133.99588	0.94031
1132.06732	0.95211
1130.13876	0.96633
1128.21019	0.98184
1126.28163	0.99825
1124.35306	1.01434
1122.42450	1.02763
1120.49593	1.03714
1118.56737	1.04365
1116.63880	1.04710
1114.71024	1.04620
1112.78168	1.04080
1110.85311	1.03319
1108.92455	1.02521
1106.99598	1.01767
1105.06742	1.01175
1103.13885	1.00720
1101.21029	1.00354
1099.28172	1.00210
1097.35316	1.00439
1095.42460	1.01094
1093.49603	1.02129
1091.56747	1.03368
1089.63890	1.04683
1087.71034	1.06080
1085.78177	1.07524
1083.85321	1.08937
1081.92464	1.10277
1079.99608	1.11364
1078.06752	1.11999
1076.13895	1.12230
1074.21039	1.12101
1072.28182	1.11515
1070.35326	1.10517
1068.42469	1.09292
1066.49613	1.07973
1064.56756	1.06696
1062.63900	1.05466
1060.71044	1.04123
1058.78187	1.02753
1056.85331	1.01666
1054.92474	1.00996
1052.99618	1.00606
1051.06761	1.00352
1049.13905	1.00364
1047.21049	1.00839
1045.28192	1.01735
1043.35336	1.02853
1041.42479	1.03928
1039.49623	1.04788
1037.56766	1.05388
1035.63910	1.05699
1033.71053	1.05721
1031.78197	1.05437
1029.85341	1.04882
1027.92484	1.04134
1025.99628	1.03157
1024.06771	1.01973
1022.13915	1.00776
1020.21058	0.99710
1018.28202	0.98770
1016.35345	0.97853
1014.42489	0.96781
1012.49633	0.95357
1010.56776	0.93552
1008.63920	0.91549
1006.71063	0.89541
1004.78207	0.87697
1002.85350	0.86193
1000.92494	0.85084
998.99637	0.84304
997.06781	0.83823
995.13925	0.83571
993.21068	0.83339
991.28212	0.83028
989.35355	0.82741
987.42499	0.82510
985.49642	0.82289
983.56786	0.82119
981.63929	0.82051
979.71073	0.82060
977.78217	0.82081
975.85360	0.81988
973.92504	0.81570
971.99647	0.80719
970.06791	0.79552
968.13934	0.78288
966.21078	0.77127
964.28221	0.76261
962.35365	0.75901
960.42509	0.76212
958.49652	0.77115
956.56796	0.78142
954.63939	0.78694
952.71083	0.78476
950.78226	0.77645
948.85370	0.76591
946.92513	0.75691
944.99657	0.75159
943.06801	0.74975
941.13944	0.74979
939.21088	0.75095
937.28231	0.75301
935.35375	0.75551
933.42518	0.75833
931.49662	0.76128
929.56805	0.76389
927.63949	0.76605
925.71093	0.76785
923.78236	0.76964
921.85380	0.77163
919.92523	0.77257
917.99667	0.77122
916.06810	0.76832
914.13954	0.76505
912.21098	0.76216
910.28241	0.76058
908.35385	0.76096
906.42528	0.76319
904.49672	0.76649
902.56815	0.77038
900.63959	0.77502
898.71102	0.77975
896.78246	0.78348
894.85390	0.78657
892.92533	0.78975
890.99677	0.79273
889.06820	0.79523
887.13964	0.79757
885.21107	0.80055
883.28251	0.80437
881.35394	0.80825
879.42538	0.81186
877.49682	0.81517
875.56825	0.81755
873.63969	0.81858
871.71112	0.81820
869.78256	0.81654
867.85399	0.81387
865.92543	0.81050
863.99686	0.80652
862.06830	0.80161
860.13974	0.79631
858.21117	0.79144
856.28261	0.78639
854.35404	0.78058
852.42548	0.77441
850.49691	0.76834
848.56835	0.76254
846.63978	0.75712
844.71122	0.75278
842.78266	0.75034
840.85409	0.74979
838.92553	0.75064
836.99696	0.75223
835.06840	0.75466
833.13983	0.75816
831.21127	0.76233
829.28270	0.76756
827.35414	0.77395
825.42558	0.78027
823.49701	0.78622
821.56845	0.79254
819.63988	0.79935
817.71132	0.80571
815.78275	0.81057
813.85419	0.81435
811.92562	0.81779
809.99706	0.82018
808.06850	0.82048
806.13993	0.81873
804.21137	0.81620
802.28280	0.81431
800.35424	0.81285
798.42567	0.80998
796.49711	0.80515
794.56854	0.80034
792.63998	0.79689
790.71142	0.79416
788.78285	0.79163
786.85429	0.78910
784.92572	0.78680
782.99716	0.78595
781.06859	0.78680
779.14003	0.78749
777.21147	0.78735
775.28290	0.78818
773.35434	0.79081
771.42577	0.79454
769.49721	0.79927
767.56864	0.80490
765.64008	0.81011
763.71151	0.81462
761.78295	0.82013
759.85439	0.82719
757.92582	0.83383
755.99726	0.83897
754.06869	0.84385
752.14013	0.84863
750.21156	0.85195
748.28300	0.85428
746.35443	0.85621
744.42587	0.85654
742.49731	0.85519
740.56874	0.85338
738.64018	0.85118
736.71161	0.84843
734.78305	0.84611
732.85448	0.84459
730.92592	0.84291
728.99735	0.84070
727.06879	0.83824
725.14023	0.83610
723.21166	0.83530
721.28310	0.83597
719.35453	0.83718
717.42597	0.83821
715.49740	0.83936
713.56884	0.84122
711.64027	0.84374
709.71171	0.84666
707.78315	0.84970
705.85458	0.85341
703.92602	0.85851
701.99745	0.86419
700.06889	0.86911
698.14032	0.87275
696.21176	0.87499
694.28319	0.87604
692.35463	0.87562
690.42607	0.87314
688.49750	0.86956
686.56894	0.86521
684.64037	0.85855
682.71181	0.84990
680.78324	0.84088
678.85468	0.83123
676.92611	0.82088
674.99755	0.81078
673.06899	0.80127
671.14042	0.79234
669.21186	0.78186
667.28329	0.77124
665.35473	0.76669
663.42616	0.76413
661.49760	0.76022
659.56903	0.75518
657.64047	0.75180
655.71191	0.75218
653.78334	0.75526
651.85478	0.75837
649.92621	0.76098
647.99765	0.76539
646.06908	0.77298
644.14052	0.78201
642.21195	0.79117
640.28339	0.80263
638.35483	0.81691
636.42626	0.82964
634.49770	0.83757
632.56913	0.84190
630.64057	0.84512
628.71200	0.84780
626.78344	0.84850
624.85488	0.84753
622.92631	0.84690
620.99775	0.84478
619.06918	0.83836
617.14062	0.82910
615.21205	0.82055
613.28349	0.81220
611.35492	0.80085
609.42636	0.78833
607.49780	0.77818
605.56923	0.76918
603.64067	0.75927
601.71210	0.74914
599.78354	0.74105
