3997.91406	0.77408
3995.98550	0.77262
3994.05693	0.77116
3992.12837	0.77011
3990.19980	0.76997
3988.27124	0.76969
3986.34268	0.76869
3984.41411	0.76762
3982.48555	0.76723
3980.55698	0.76772
3978.62842	0.76745
3976.69985	0.76535
3974.77129	0.76315
3972.84272	0.76142
3970.91416	0.75888
3968.98560	0.75604
3967.05703	0.75531
3965.12847	0.75782
3963.19990	0.76116
3961.27134	0.76201
3959.34277	0.76078
3957.41421	0.76038
3955.48564	0.76086
3953.55708	0.76013
3951.62852	0.75850
3949.69995	0.75806
3947.77139	0.75852
3945.84282	0.75811
3943.91426	0.75750
3941.98569	0.75702
3940.05713	0.75609
3938.12856	0.75557
3936.20000	0.75541
3934.27144	0.75559
3932.34287	0.75694
3930.41431	0.75755
3928.48574	0.75573
3926.55718	0.75353
3924.62861	0.75273
3922.70005	0.75173
3920.77148	0.74921
3918.84292	0.74786
3916.91436	0.74975
3914.98579	0.75104
3913.05723	0.74971
3911.12866	0.74783
3909.20010	0.74562
3907.27153	0.74300
3905.34297	0.74210
3903.41440	0.74377
3901.48584	0.74536
3899.55728	0.74660
3897.62871	0.74693
3895.70015	0.74484
3893.77158	0.74199
3891.84302	0.74194
3889.91445	0.74271
3887.98589	0.74139
3886.05733	0.74066
3884.12876	0.73993
3882.20020	0.73765
3880.27163	0.73692
3878.34307	0.73611
3876.41450	0.73416
3874.48594	0.73261
3872.55737	0.73077
3870.62881	0.73113
3868.70025	0.73284
3866.77168	0.73110
3864.84312	0.73034
3862.91455	0.73236
3860.98599	0.73091
3859.05742	0.72644
3857.12886	0.72226
3855.20029	0.72131
3853.27173	0.72886
3851.34317	0.73362
3849.41460	0.73077
3847.48604	0.72645
3845.55747	0.72272
3843.62891	0.71963
3841.70034	0.71666
3839.77178	0.71640
3837.84321	0.72098
3835.91465	0.72347
3833.98609	0.72224
3832.05752	0.72076
3830.12896	0.71948
3828.20039	0.71845
3826.27183	0.71808
3824.34326	0.71654
3822.41470	0.71623
3820.48613	0.72146
3818.55757	0.72384
3816.62901	0.72323
3814.70044	0.72204
3812.77188	0.71857
3810.84331	0.71468
3808.91475	0.71314
3806.98618	0.71503
3805.05762	0.71436
3803.12905	0.71073
3801.20049	0.71161
3799.27193	0.71454
3797.34336	0.71625
3795.41480	0.71677
3793.48623	0.71428
3791.55767	0.71129
3789.62910	0.70995
3787.70054	0.70970
3785.77197	0.71025
3783.84341	0.71035
3781.91485	0.70917
3779.98628	0.70918
3778.05772	0.70950
3776.12915	0.70714
3774.20059	0.70396
3772.27202	0.70145
3770.34346	0.70050
3768.41489	0.70121
3766.48633	0.70168
3764.55777	0.70125
3762.62920	0.69971
3760.70064	0.69840
3758.77207	0.69896
3756.84351	0.69833
3754.91494	0.69410
3752.98638	0.68946
3751.05781	0.69323
3749.12925	0.69866
3747.20069	0.69572
3745.27212	0.69512
3743.34356	0.69900
3741.41499	0.69768
3739.48643	0.69348
3737.55786	0.69145
3735.62930	0.69314
3733.70074	0.69580
3731.77217	0.69616
3729.84361	0.69311
3727.91504	0.68883
3725.98648	0.68722
3724.05791	0.68883
3722.12935	0.69050
3720.20078	0.69064
3718.27222	0.68907
3716.34366	0.68608
3714.41509	0.68228
3712.48653	0.68129
3710.55796	0.68727
3708.62940	0.69134
3706.70083	0.69033
3704.77227	0.68773
3702.84370	0.68700
3700.91514	0.68968
3698.98658	0.69209
3697.05801	0.69217
3695.12945	0.68926
3693.20088	0.68452
3691.27232	0.68439
3689.34375	0.69279
3687.41519	0.69716
3685.48662	0.69644
3683.55806	0.69567
3681.62950	0.69482
3679.70093	0.69368
3677.77237	0.69379
3675.84380	0.70013
3673.91524	0.70621
3671.98667	0.70715
3670.05811	0.71391
3668.12954	0.72210
3666.20098	0.72379
3664.27242	0.72459
3662.34385	0.72749
3660.41529	0.73144
3658.48672	0.73548
3656.55816	0.74088
3654.62959	0.74396
3652.70103	0.74267
3650.77246	0.74359
3648.84390	0.75578
3646.91534	0.76861
3644.98677	0.77486
3643.05821	0.77886
3641.12964	0.78303
3639.20108	0.78812
3637.27251	0.79319
3635.34395	0.79686
3633.41538	0.79848
3631.48682	0.79983
3629.55826	0.80917
3627.62969	0.82423
3625.70113	0.83054
3623.77256	0.83314
3621.84400	0.83655
3619.91543	0.84493
3617.98687	0.85560
3616.05830	0.86143
3614.12974	0.86657
3612.20118	0.87201
3610.27261	0.87614
3608.34405	0.88307
3606.41548	0.89232
3604.48692	0.89883
3602.55835	0.90365
3600.62979	0.90858
3598.70123	0.91321
3596.77266	0.91893
3594.84410	0.92890
3592.91553	0.93953
3590.98697	0.94508
3589.05840	0.95037
3587.12984	0.96111
3585.20127	0.96938
3583.27271	0.97201
3581.34415	0.97443
3579.41558	0.98008
3577.48702	0.98711
3575.55845	0.99381
3573.62989	1.00119
3571.70132	1.00701
3569.77276	1.00873
3567.84419	1.01281
3565.91563	1.02631
3563.98707	1.03861
3562.05850	1.04707
3560.12994	1.05346
3558.20137	1.05736
3556.27281	1.06174
3554.34424	1.06962
3552.41568	1.07913
3550.48711	1.08500
3548.55855	1.08924
3546.62999	1.09696
3544.70142	1.10654
3542.77286	1.11412
3540.84429	1.12023
3538.91573	1.12711
3536.98716	1.13498
3535.05860	1.14105
3533.13003	1.14574
3531.20147	1.15257
3529.27291	1.16207
3527.34434	1.17300
3525.41578	1.18349
3523.48721	1.18985
3521.55865	1.19275
3519.63008	1.19738
3517.70152	1.20331
3515.77295	1.20699
3513.84439	1.21103
3511.91583	1.21925
3509.98726	1.22960
3508.05870	1.23658
3506.13013	1.24007
3504.20157	1.24703
3502.27300	1.25840
3500.34444	1.26773
3498.41587	1.27522
3496.48731	1.28360
3494.55875	1.29095
3492.63018	1.29460
3490.70162	1.29615
3488.77305	1.29950
3486.84449	1.30563
3484.91592	1.31150
3482.98736	1.31894
3481.05879	1.33086
3479.13023	1.33931
3477.20167	1.33956
3475.27310	1.33712
3473.34454	1.33619
3471.41597	1.33804
3469.48741	1.34267
3467.55884	1.34513
3465.63028	1.34432
3463.70171	1.34826
3461.77315	1.35537
3459.84459	1.35717
3457.91602	1.35725
3455.98746	1.36093
3454.05889	1.36683
3452.13033	1.37384
3450.20176	1.37937
3448.27320	1.38044
3446.34464	1.37886
3444.41607	1.37784
3442.48751	1.38099
3440.55894	1.38838
3438.63038	1.39468
3436.70181	1.39942
3434.77325	1.40528
3432.84468	1.41060
3430.91612	1.40971
3428.98756	1.40252
3427.05899	1.39655
3425.13043	1.39339
3423.20186	1.39073
3421.27330	1.39254
3419.34473	1.39983
3417.41617	1.40405
3415.48760	1.40377
3413.55904	1.40477
3411.63048	1.40609
3409.70191	1.40642
3407.77335	1.40779
3405.84478	1.40944
3403.91622	1.41002
3401.98765	1.41103
3400.05909	1.41496
3398.13052	1.42112
3396.20196	1.42570
3394.27340	1.42460
3392.34483	1.41969
3390.41627	1.41779
3388.48770	1.41820
3386.55914	1.41616
3384.63057	1.41424
3382.70201	1.41601
3380.77344	1.41851
3378.84488	1.41977
3376.91632	1.42140
3374.98775	1.42372
3373.05919	1.42657
3371.13062	1.42996
3369.20206	1.43434
3367.27349	1.43881
3365.34493	1.44120
3363.41636	1.44379
3361.48780	1.44814
3359.55924	1.45068
3357.63067	1.45048
3355.70211	1.44965
3353.77354	1.44602
3351.84498	1.43914
3349.91641	1.43675
3347.98785	1.44313
3346.05928	1.45229
3344.13072	1.45506
3342.20216	1.45161
3340.27359	1.45015
3338.34503	1.45005
3336.41646	1.44844
3334.48790	1.45128
3332.55933	1.45907
3330.63077	1.46414
3328.70220	1.46548
3326.77364	1.46698
3324.84508	1.46802
3322.91651	1.47032
3320.98795	1.47776
3319.05938	1.48641
3317.13082	1.48975
3315.20225	1.48817
3313.27369	1.48598
3311.34513	1.48524
3309.41656	1.48690
3307.48800	1.49156
3305.55943	1.49641
3303.63087	1.49683
3301.70230	1.49284
3299.77374	1.49146
3297.84517	1.49524
3295.91661	1.49700
3293.98805	1.49426
3292.05948	1.49306
3290.13092	1.49814
3288.20235	1.50817
3286.27379	1.51481
3284.34522	1.51415
3282.41666	1.51186
3280.48809	1.50911
3278.55953	1.50411
3276.63097	1.49965
3274.70240	1.49691
3272.77384	1.49253
3270.84527	1.48539
3268.91671	1.47982
3266.98814	1.47844
3265.05958	1.47658
3263.13101	1.46909
3261.20245	1.46114
3259.27389	1.45691
3257.34532	1.45049
3255.41676	1.44258
3253.48819	1.44053
3251.55963	1.44217
3249.63106	1.43991
3247.70250	1.43357
3245.77393	1.42709
3243.84537	1.42001
3241.91681	1.41351
3239.98824	1.41093
3238.05968	1.40860
3236.13111	1.40098
3234.20255	1.39078
3232.27398	1.38336
3230.34542	1.37838
3228.41685	1.37373
3226.48829	1.36890
3224.55973	1.36399
3222.63116	1.36047
3220.70260	1.35873
3218.77403	1.35710
3216.84547	1.35591
3214.91690	1.35708
3212.98834	1.35935
3211.05977	1.35928
3209.13121	1.35445
3207.20265	1.34582
3205.27408	1.33869
3203.34552	1.33465
3201.41695	1.33018
3199.48839	1.32570
3197.55982	1.32196
3195.63126	1.31590
3193.70269	1.30883
3191.77413	1.30431
3189.84557	1.30239
3187.91700	1.30003
3185.98844	1.29406
3184.05987	1.28827
3182.13131	1.28575
3180.20274	1.28019
3178.27418	1.26928
3176.34562	1.26047
3174.41705	1.25794
3172.48849	1.25803
3170.55992	1.25654
3168.63136	1.25197
3166.70279	1.24491
3164.77423	1.23918
3162.84566	1.23710
3160.91710	1.23665
3158.98854	1.23600
3157.05997	1.23464
3155.13141	1.23265
3153.20284	1.23042
3151.27428	1.22761
3149.34571	1.22461
3147.41715	1.22219
3145.48858	1.21897
3143.56002	1.21232
3141.63146	1.20341
3139.70289	1.19708
3137.77433	1.19503
3135.84576	1.19562
3133.91720	1.19688
3131.98863	1.19669
3130.06007	1.19475
3128.13150	1.19159
3126.20294	1.18906
3124.27438	1.18949
3122.34581	1.18932
3120.41725	1.18529
3118.48868	1.18103
3116.56012	1.18018
3114.63155	1.18263
3112.70299	1.18545
3110.77442	1.18582
3108.84586	1.18483
3106.91730	1.18415
3104.98873	1.18327
3103.06017	1.18277
3101.13160	1.18210
3099.20304	1.17903
3097.27447	1.17551
3095.34591	1.17515
3093.41734	1.17744
3091.48878	1.17860
3089.56022	1.17775
3087.63165	1.17737
3085.70309	1.17657
3083.77452	1.17359
3081.84596	1.17017
3079.91739	1.16667
3077.98883	1.16219
3076.06026	1.15887
3074.13170	1.15857
3072.20314	1.15860
3070.27457	1.15591
3068.34601	1.15071
3066.41744	1.14461
3064.48888	1.13949
3062.56031	1.13572
3060.63175	1.13148
3058.70318	1.12598
3056.77462	1.12124
3054.84606	1.11839
3052.91749	1.11549
3050.98893	1.11117
3049.06036	1.10562
3047.13180	1.09915
3045.20323	1.09368
3043.27467	1.09136
3041.34610	1.09077
3039.41754	1.08853
3037.48898	1.08348
3035.56041	1.07709
3033.63185	1.07191
3031.70328	1.06905
3029.77472	1.06675
3027.84615	1.06293
3025.91759	1.05850
3023.98903	1.05566
3022.06046	1.05376
3020.13190	1.05077
3018.20333	1.04689
3016.27477	1.04373
3014.34620	1.04197
3012.41764	1.04055
3010.48907	1.03847
3008.56051	1.03615
3006.63195	1.03403
3004.70338	1.03200
3002.77482	1.03016
3000.84625	1.02827
2998.91769	1.02665
2996.98912	1.02679
2995.06056	1.02889
2993.13199	1.03228
2991.20343	1.03645
2989.27487	1.04011
2987.34630	1.04360
2985.41774	1.04866
2983.48917	1.05467
2981.56061	1.06015
2979.63204	1.06592
2977.70348	1.07330
2975.77491	1.08169
2973.84635	1.08975
2971.91779	1.09708
2969.98922	1.10473
2968.06066	1.11331
2966.13209	1.12128
2964.20353	1.12754
2962.27496	1.13131
2960.34640	1.13076
2958.41783	1.12664
2956.48927	1.12137
2954.56071	1.11542
2952.63214	1.10857
2950.70358	1.10186
2948.77501	1.09746
2946.84645	1.09667
2944.91788	1.09920
2942.98932	1.10480
2941.06075	1.11290
2939.13219	1.12194
2937.20363	1.13145
2935.27506	1.14181
2933.34650	1.15220
2931.41793	1.16143
2929.48937	1.16846
2927.56080	1.17351
2925.63224	1.17866
2923.70367	1.18387
2921.77511	1.18734
2919.84655	1.18804
2917.91798	1.18345
2915.98942	1.17050
2914.06085	1.14964
2912.13229	1.12568
2910.20372	1.10324
2908.27516	1.08378
2906.34659	1.06794
2904.41803	1.05570
2902.48947	1.04659
2900.56090	1.04065
2898.63234	1.03684
2896.70377	1.03351
2894.77521	1.02996
2892.84664	1.02590
2890.91808	1.02152
2888.98952	1.01772
2887.06095	1.01427
2885.13239	1.01036
2883.20382	1.00725
2881.27526	1.00672
2879.34669	1.00873
2877.41813	1.01132
2875.48956	1.01175
2873.56100	1.00899
2871.63244	1.00371
2869.70387	0.99691
2867.77531	0.98972
2865.84674	0.98289
2863.91818	0.97826
2861.98961	0.97862
2860.06105	0.98367
2858.13248	0.99056
2856.20392	0.99849
2854.27536	1.00782
2852.34679	1.01682
2850.41823	1.02035
2848.48966	1.01093
2846.56110	0.98713
2844.63253	0.95850
2842.70397	0.93462
2840.77540	0.91786
2838.84684	0.90663
2836.91828	0.89823
2834.98971	0.89082
2833.06115	0.88405
2831.13258	0.87768
2829.20402	0.87214
2827.27545	0.86807
2825.34689	0.86471
2823.41832	0.86107
2821.48976	0.85672
2819.56120	0.85186
2817.63263	0.84764
2815.70407	0.84456
2813.77550	0.84184
2811.84694	0.83874
2809.91837	0.83529
2807.98981	0.83186
2806.06124	0.82830
2804.13268	0.82453
2802.20412	0.82083
2800.27555	0.81720
2798.34699	0.81345
2796.41842	0.80916
2794.48986	0.80434
2792.56129	0.80012
2790.63273	0.79714
2788.70416	0.79467
2786.77560	0.79211
2784.84704	0.78945
2782.91847	0.78688
2780.98991	0.78450
2779.06134	0.78238
2777.13278	0.78084
2775.20421	0.77981
2773.27565	0.77836
2771.34708	0.77587
2769.41852	0.77314
2767.48996	0.77123
2765.56139	0.77004
2763.63283	0.76882
2761.70426	0.76719
2759.77570	0.76508
2757.84713	0.76235
2755.91857	0.75982
2753.99001	0.75852
2752.06144	0.75796
2750.13288	0.75690
2748.20431	0.75509
2746.27575	0.75361
2744.34718	0.75270
2742.41862	0.75147
2740.49005	0.75021
2738.56149	0.74931
2736.63293	0.74774
2734.70436	0.74507
2732.77580	0.74255
2730.84723	0.74116
2728.91867	0.73999
2726.99010	0.73793
2725.06154	0.73547
2723.13297	0.73372
2721.20441	0.73251
2719.27585	0.73101
2717.34728	0.72892
2715.41872	0.72620
2713.49015	0.72340
2711.56159	0.72126
2709.63302	0.71957
2707.70446	0.71804
2705.77589	0.71668
2703.84733	0.71504
2701.91877	0.71319
2699.99020	0.71174
2698.06164	0.71065
2696.13307	0.70942
2694.20451	0.70758
2692.27594	0.70518
2690.34738	0.70295
2688.41881	0.70121
2686.49025	0.69960
2684.56169	0.69756
2682.63312	0.69506
2680.70456	0.69271
2678.77599	0.69097
2676.84743	0.68985
2674.91886	0.68881
2672.99030	0.68718
2671.06173	0.68509
2669.13317	0.68261
2667.20461	0.68002
2665.27604	0.67837
2663.34748	0.67757
2661.41891	0.67638
2659.49035	0.67474
2657.56178	0.67319
2655.63322	0.67155
2653.70465	0.66994
2651.77609	0.66887
2649.84753	0.66840
2647.91896	0.66827
2645.99040	0.66807
2644.06183	0.66724
2642.13327	0.66602
2640.20470	0.66522
2638.27614	0.66472
2636.34757	0.66368
2634.41901	0.66220
2632.49045	0.66092
2630.56188	0.66045
2628.63332	0.66059
2626.70475	0.66023
2624.77619	0.65917
2622.84762	0.65812
2620.91906	0.65743
2618.99049	0.65709
2617.06193	0.65670
2615.13337	0.65601
2613.20480	0.65517
2611.27624	0.65435
2609.34767	0.65378
2607.41911	0.65327
2605.49054	0.65265
2603.56198	0.65225
2601.63342	0.65173
2599.70485	0.65064
2597.77629	0.64943
2595.84772	0.64834
2593.91916	0.64704
2591.99059	0.64534
2590.06203	0.64329
2588.13346	0.64126
2586.20490	0.63936
2584.27634	0.63740
2582.34777	0.63537
2580.41921	0.63340
2578.49064	0.63150
2576.56208	0.62947
2574.63351	0.62717
2572.70495	0.62480
2570.77638	0.62244
2568.84782	0.62026
2566.91926	0.61837
2564.99069	0.61665
2563.06213	0.61481
2561.13356	0.61280
2559.20500	0.61089
2557.27643	0.60913
2555.34787	0.60769
2553.41930	0.60678
2551.49074	0.60596
2549.56218	0.60488
2547.63361	0.60378
2545.70505	0.60280
2543.77648	0.60197
2541.84792	0.60132
2539.91935	0.60059
2537.99079	0.59977
2536.06222	0.59904
2534.13366	0.59816
2532.20510	0.59725
2530.27653	0.59686
2528.34797	0.59688
2526.41940	0.59688
2524.49084	0.59669
2522.56227	0.59632
2520.63371	0.59594
2518.70514	0.59558
2516.77658	0.59504
2514.84802	0.59412
2512.91945	0.59294
2510.99089	0.59185
2509.06232	0.59084
2507.13376	0.58952
2505.20519	0.58802
2503.27663	0.58676
2501.34806	0.58566
2499.41950	0.58479
2497.49094	0.58428
2495.56237	0.58376
2493.63381	0.58289
2491.70524	0.58187
2489.77668	0.58098
2487.84811	0.58008
2485.91955	0.57899
2483.99098	0.57812
2482.06242	0.57772
2480.13386	0.57735
2478.20529	0.57663
2476.27673	0.57552
2474.34816	0.57424
2472.41960	0.57313
2470.49103	0.57225
2468.56247	0.57111
2466.63391	0.56952
2464.70534	0.56770
2462.77678	0.56573
2460.84821	0.56395
2458.91965	0.56230
2456.99108	0.56020
2455.06252	0.55794
2453.13395	0.55620
2451.20539	0.55469
2449.27683	0.55291
2447.34826	0.55080
2445.41970	0.54863
2443.49113	0.54682
2441.56257	0.54551
2439.63400	0.54441
2437.70544	0.54317
2435.77687	0.54187
2433.84831	0.54074
2431.91975	0.53971
2429.99118	0.53881
2428.06262	0.53811
2426.13405	0.53746
2424.20549	0.53667
2422.27692	0.53597
2420.34836	0.53572
2418.41979	0.53558
2416.49123	0.53498
2414.56267	0.53417
2412.63410	0.53381
2410.70554	0.53393
2408.77697	0.53395
2406.84841	0.53352
2404.91984	0.53264
2402.99128	0.53169
2401.06271	0.53102
2399.13415	0.53058
2397.20559	0.52999
2395.27702	0.52913
2393.34846	0.52843
2391.41989	0.52814
2389.49133	0.52756
2387.56276	0.52613
2385.63420	0.52432
2383.70563	0.52282
2381.77707	0.52169
2379.84851	0.52059
2377.91994	0.51930
2375.99138	0.51805
2374.06281	0.51735
2372.13425	0.51684
2370.20568	0.51589
2368.27712	0.51509
2366.34855	0.51359
2364.41999	0.51040
2362.49143	0.50841
2360.56286	0.50881
2358.63430	0.50859
2356.70573	0.50746
2354.77717	0.50840
2352.84860	0.51112
2350.92004	0.51170
2348.99147	0.50912
2347.06291	0.50527
2345.13435	0.50293
2343.20578	0.50370
2341.27722	0.50493
2339.34865	0.50465
2337.42009	0.50324
2335.49152	0.50120
2333.56296	0.49863
2331.63440	0.49595
2329.70583	0.49447
2327.77727	0.49479
2325.84870	0.49534
2323.92014	0.49479
2321.99157	0.49370
2320.06301	0.49300
2318.13444	0.49261
2316.20588	0.49185
2314.27732	0.49094
2312.34875	0.49053
2310.42019	0.49056
2308.49162	0.49072
2306.56306	0.49059
2304.63449	0.48986
2302.70593	0.48893
2300.77736	0.48817
2298.84880	0.48755
2296.92024	0.48709
2294.99167	0.48687
2293.06311	0.48664
2291.13454	0.48617
2289.20598	0.48565
2287.27741	0.48524
2285.34885	0.48489
2283.42028	0.48448
2281.49172	0.48404
2279.56316	0.48396
2277.63459	0.48425
2275.70603	0.48427
2273.77746	0.48407
2271.84890	0.48417
2269.92033	0.48423
2267.99177	0.48386
2266.06320	0.48339
2264.13464	0.48302
2262.20608	0.48270
2260.27751	0.48245
2258.34895	0.48230
2256.42038	0.48227
2254.49182	0.48217
2252.56325	0.48169
2250.63469	0.48113
2248.70612	0.48089
2246.77756	0.48071
2244.84900	0.48041
2242.92043	0.48016
2240.99187	0.47994
2239.06330	0.47965
2237.13474	0.47941
2235.20617	0.47932
2233.27761	0.47902
2231.34904	0.47829
2229.42048	0.47773
2227.49192	0.47757
2225.56335	0.47727
2223.63479	0.47657
2221.70622	0.47560
2219.77766	0.47439
2217.84909	0.47308
2215.92053	0.47195
2213.99196	0.47101
2212.06340	0.46989
2210.13484	0.46849
2208.20627	0.46707
2206.27771	0.46580
2204.34914	0.46477
2202.42058	0.46403
2200.49201	0.46342
2198.56345	0.46275
2196.63488	0.46188
2194.70632	0.46087
2192.77776	0.46007
2190.84919	0.45967
2188.92063	0.45945
2186.99206	0.45905
2185.06350	0.45835
2183.13493	0.45754
2181.20637	0.45690
2179.27781	0.45643
2177.34924	0.45599
2175.42068	0.45562
2173.49211	0.45524
2171.56355	0.45464
2169.63498	0.45391
2167.70642	0.45342
2165.77785	0.45317
2163.84929	0.45280
2161.92073	0.45237
2159.99216	0.45216
2158.06360	0.45216
2156.13503	0.45210
2154.20647	0.45194
2152.27790	0.45188
2150.34934	0.45197
2148.42077	0.45208
2146.49221	0.45202
2144.56365	0.45175
2142.63508	0.45163
2140.70652	0.45180
2138.77795	0.45202
2136.84939	0.45217
2134.92082	0.45223
2132.99226	0.45222
2131.06369	0.45233
2129.13513	0.45263
2127.20657	0.45295
2125.27800	0.45313
2123.34944	0.45309
2121.42087	0.45288
2119.49231	0.45265
2117.56374	0.45237
2115.63518	0.45192
2113.70661	0.45135
2111.77805	0.45075
2109.84949	0.45001
2107.92092	0.44924
2105.99236	0.44854
2104.06379	0.44767
2102.13523	0.44654
2100.20666	0.44539
2098.27810	0.44442
2096.34953	0.44358
2094.42097	0.44269
2092.49241	0.44158
2090.56384	0.44040
2088.63528	0.43944
2086.70671	0.43860
2084.77815	0.43756
2082.84958	0.43645
2080.92102	0.43558
2078.99245	0.43474
2077.06389	0.43375
2075.13533	0.43271
2073.20676	0.43180
2071.27820	0.43102
2069.34963	0.43016
2067.42107	0.42918
2065.49250	0.42816
2063.56394	0.42704
2061.63537	0.42584
2059.70681	0.42477
2057.77825	0.42384
2055.84968	0.42279
2053.92112	0.42160
2051.99255	0.42038
2050.06399	0.41912
2048.13542	0.41769
2046.20686	0.41621
2044.27830	0.41500
2042.34973	0.41398
2040.42117	0.41283
2038.49260	0.41161
2036.56404	0.41059
2034.63547	0.40971
2032.70691	0.40880
2030.77834	0.40796
2028.84978	0.40723
2026.92122	0.40660
2024.99265	0.40611
2023.06409	0.40581
2021.13552	0.40566
2019.20696	0.40552
2017.27839	0.40545
2015.34983	0.40547
2013.42126	0.40547
2011.49270	0.40544
2009.56414	0.40545
2007.63557	0.40541
2005.70701	0.40539
2003.77844	0.40554
2001.84988	0.40569
1999.92131	0.40565
1997.99275	0.40567
1996.06418	0.40567
1994.13562	0.40546
1992.20706	0.40536
1990.27849	0.40528
1988.34993	0.40490
1986.42136	0.40440
1984.49280	0.40365
1982.56423	0.40245
1980.63567	0.40112
1978.70710	0.39991
1976.77854	0.39868
1974.84998	0.39739
1972.92141	0.39613
1970.99285	0.39489
1969.06428	0.39364
1967.13572	0.39254
1965.20715	0.39161
1963.27859	0.39058
1961.35002	0.38936
1959.42146	0.38824
1957.49290	0.38755
1955.56433	0.38723
1953.63577	0.38686
1951.70720	0.38624
1949.77864	0.38573
1947.85007	0.38551
1945.92151	0.38544
1943.99294	0.38575
1942.06438	0.38635
1940.13582	0.38639
1938.20725	0.38602
1936.27869	0.38582
1934.35012	0.38546
1932.42156	0.38473
1930.49299	0.38408
1928.56443	0.38350
1926.63586	0.38264
1924.70730	0.38160
1922.77874	0.38051
1920.85017	0.37915
1918.92161	0.37788
1916.99304	0.37702
1915.06448	0.37586
1913.13591	0.37419
1911.20735	0.37256
1909.27878	0.37146
1907.35022	0.37079
1905.42166	0.37010
1903.49309	0.36926
1901.56453	0.36849
1899.63596	0.36799
1897.70740	0.36782
1895.77883	0.36797
1893.85027	0.36814
1891.92171	0.36812
1889.99314	0.36859
1888.06458	0.36947
1886.13601	0.37009
1884.20745	0.37060
1882.27888	0.37095
1880.35032	0.37114
1878.42175	0.37139
1876.49319	0.37169
1874.56463	0.37170
1872.63606	0.37116
1870.70750	0.37038
1868.77893	0.37017
1866.85037	0.37017
1864.92180	0.36952
1862.99324	0.36856
1861.06467	0.36759
1859.13611	0.36668
1857.20755	0.36587
1855.27898	0.36508
1853.35042	0.36418
1851.42185	0.36301
1849.49329	0.36170
1847.56472	0.36048
1845.63616	0.35978
1843.70759	0.36008
1841.77903	0.36029
1839.85047	0.35984
1837.92190	0.35946
1835.99334	0.35932
1834.06477	0.35892
1832.13621	0.35853
1830.20764	0.35917
1828.27908	0.36021
1826.35051	0.36055
1824.42195	0.36108
1822.49339	0.36168
1820.56482	0.36186
1818.63626	0.36199
1816.70769	0.36214
1814.77913	0.36206
1812.85056	0.36181
1810.92200	0.36188
1808.99343	0.36213
1807.06487	0.36205
1805.13631	0.36159
1803.20774	0.36090
1801.27918	0.36062
1799.35061	0.36065
1797.42205	0.36016
1795.49348	0.35921
1793.56492	0.35890
1791.63635	0.36003
1789.70779	0.36048
1787.77923	0.35986
1785.85066	0.35950
1783.92210	0.35965
1781.99353	0.36005
1780.06497	0.36094
1778.13640	0.36176
1776.20784	0.36187
1774.27927	0.36225
1772.35071	0.36441
1770.42215	0.36686
1768.49358	0.36821
1766.56502	0.36926
1764.63645	0.37029
1762.70789	0.37242
1760.77932	0.37579
1758.85076	0.37888
1756.92220	0.38302
1754.99363	0.38765
1753.06507	0.39167
1751.13650	0.39778
1749.20794	0.40699
1747.27937	0.41567
1745.35081	0.42271
1743.42224	0.42880
1741.49368	0.43430
1739.56512	0.43925
1737.63655	0.44212
1735.70799	0.44385
1733.77942	0.44910
1731.85086	0.45506
1729.92229	0.45877
1727.99373	0.46250
1726.06516	0.46669
1724.13660	0.47259
1722.20804	0.47918
1720.27947	0.48521
1718.35091	0.49517
1716.42234	0.51285
1714.49378	0.52734
1712.56521	0.53837
1710.63665	0.55049
1708.70808	0.56488
1706.77952	0.58675
1704.85096	0.61695
1702.92239	0.64480
1700.99383	0.68476
1699.06526	0.75127
1697.13670	0.81733
1695.20813	0.88389
1693.27957	0.93307
1691.35100	0.97123
1689.42244	1.01735
1687.49388	1.05983
1685.56531	1.10251
1683.63675	1.17230
1681.70818	1.22434
1679.77962	1.25262
1677.85105	1.27840
1675.92249	1.30904
1673.99392	1.34155
1672.06536	1.36545
1670.13680	1.38841
1668.20823	1.41403
1666.27967	1.42908
1664.35110	1.44165
1662.42254	1.45840
1660.49397	1.47030
1658.56541	1.47457
1656.63684	1.47507
1654.70828	1.48016
1652.77972	1.49339
1650.85115	1.49318
1648.92259	1.48810
1646.99402	1.48536
1645.06546	1.48289
1643.13689	1.47709
1641.20833	1.47076
1639.27976	1.46324
1637.35120	1.45479
1635.42264	1.45171
1633.49407	1.45329
1631.56551	1.45100
1629.63694	1.44409
1627.70838	1.43616
1625.77981	1.42777
1623.85125	1.41460
1621.92269	1.39578
1619.99412	1.37816
1618.06556	1.35819
1616.13699	1.32888
1614.20843	1.30369
1612.27986	1.28199
1610.35130	1.25577
1608.42273	1.22636
1606.49417	1.20089
1604.56561	1.18078
1602.63704	1.16313
1600.70848	1.14879
1598.77991	1.13882
1596.85135	1.13173
1594.92278	1.12575
1592.99422	1.12077
1591.06565	1.11824
1589.13709	1.11977
1587.20853	1.12598
1585.27996	1.13558
1583.35140	1.14748
1581.42283	1.16018
1579.49427	1.17189
1577.56570	1.18712
1575.63714	1.21133
1573.70857	1.22907
1571.78001	1.24066
1569.85145	1.25799
1567.92288	1.27606
1565.99432	1.28925
1564.06575	1.30264
1562.13719	1.31284
1560.20862	1.32507
1558.28006	1.35375
1556.35149	1.36697
1554.42293	1.37149
1552.49437	1.37484
1550.56580	1.37618
1548.63724	1.37620
1546.70867	1.37532
1544.78011	1.37422
1542.85154	1.37375
1540.92298	1.37146
1538.99441	1.36163
1537.06585	1.35283
1535.13729	1.34517
1533.20872	1.33750
1531.28016	1.33043
1529.35159	1.32369
1527.42303	1.31518
1525.49446	1.30497
1523.56590	1.29818
1521.63733	1.29545
1519.70877	1.29196
1517.78021	1.28246
1515.85164	1.26658
1513.92308	1.24898
1511.99451	1.23062
1510.06595	1.21096
1508.13738	1.18079
1506.20882	1.13457
1504.28025	1.10993
1502.35169	1.09327
1500.42313	1.07355
1498.49456	1.04852
1496.56600	1.02003
1494.63743	0.99751
1492.70887	0.98077
1490.78030	0.96132
1488.85174	0.93758
1486.92317	0.92028
1484.99461	0.90930
1483.06605	0.90108
1481.13748	0.89503
1479.20892	0.89215
1477.28035	0.89330
1475.35179	0.89954
1473.42322	0.91526
1471.49466	0.93581
1469.56610	0.94713
1467.63753	0.95337
1465.70897	0.96113
1463.78040	0.96956
1461.85184	0.97322
1459.92327	0.97433
1457.99471	0.98021
1456.06614	0.99022
1454.13758	0.99192
1452.20902	0.98977
1450.28045	0.98696
1448.35189	0.98415
1446.42332	0.98071
1444.49476	0.97564
1442.56619	0.96918
1440.63763	0.96258
1438.70906	0.95545
1436.78050	0.94482
1434.85194	0.93302
1432.92337	0.92403
1430.99481	0.91638
1429.06624	0.91025
1427.13768	0.90684
1425.20911	0.90654
1423.28055	0.90886
1421.35198	0.91200
1419.42342	0.91839
1417.49486	0.92787
1415.56629	0.93326
1413.63773	0.93611
1411.70916	0.93913
1409.78060	0.94217
1407.85203	0.94452
1405.92347	0.94757
1403.99490	0.95170
1402.06634	0.95452
1400.13778	0.95615
1398.20921	0.95718
1396.28065	0.95757
1394.35208	0.95769
1392.42352	0.95722
1390.49495	0.95705
1388.56639	0.95952
1386.63782	0.96566
1384.70926	0.97294
1382.78070	0.97989
1380.85213	0.98502
1378.92357	0.98570
1376.99500	0.98088
1375.06644	0.97020
1373.13787	0.95564
1371.20931	0.94105
1369.28074	0.92469
1367.35218	0.90616
1365.42362	0.88872
1363.49505	0.87227
1361.56649	0.85807
1359.63792	0.84884
1357.70936	0.84276
1355.78079	0.83808
1353.85223	0.83439
1351.92366	0.83112
1349.99510	0.82804
1348.06654	0.82517
1346.13797	0.82240
1344.20941	0.82009
1342.28084	0.81847
1340.35228	0.81758
1338.42371	0.81761
1336.49515	0.81896
1334.56659	0.82209
1332.63802	0.82692
1330.70946	0.83275
1328.78089	0.83840
1326.85233	0.84298
1324.92376	0.84679
1322.99520	0.85049
1321.06663	0.85416
1319.13807	0.85810
1317.20951	0.86233
1315.28094	0.86631
1313.35238	0.86994
1311.42381	0.87289
1309.49525	0.87479
1307.56668	0.87586
1305.63812	0.87684
1303.70955	0.87826
1301.78099	0.87904
1299.85243	0.87823
1297.92386	0.87635
1295.99530	0.87394
1294.06673	0.87155
1292.13817	0.87024
1290.20960	0.87030
1288.28104	0.87083
1286.35247	0.87121
1284.42391	0.87137
1282.49535	0.87109
1280.56678	0.87050
1278.63822	0.87038
1276.70965	0.87117
1274.78109	0.87294
1272.85252	0.87596
1270.92396	0.88014
1268.99539	0.88503
1267.06683	0.89047
1265.13827	0.89592
1263.20970	0.90044
1261.28114	0.90389
1259.35257	0.90693
1257.42401	0.90964
1255.49544	0.91191
1253.56688	0.91435
1251.63831	0.91741
1249.70975	0.92060
1247.78119	0.92307
1245.85262	0.92456
1243.92406	0.92541
1241.99549	0.92581
1240.06693	0.92531
1238.13836	0.92306
1236.20980	0.91858
1234.28123	0.91224
1232.35267	0.90490
1230.42411	0.89683
1228.49554	0.88766
1226.56698	0.87727
1224.63841	0.86613
1222.70985	0.85484
1220.78128	0.84378
1218.85272	0.83330
1216.92415	0.82401
1214.99559	0.81655
1213.06703	0.81188
1211.13846	0.81048
1209.20990	0.81095
1207.28133	0.81064
1205.35277	0.80759
1203.42420	0.80129
1201.49564	0.79274
1199.56708	0.78386
1197.63851	0.77584
1195.70995	0.76868
1193.78138	0.76246
1191.85282	0.75765
1189.92425	0.75455
1187.99569	0.75314
1186.06712	0.75329
1184.13856	0.75489
1182.21000	0.75799
1180.28143	0.76283
1178.35287	0.76984
1176.42430	0.77906
1174.49574	0.78933
1172.56717	0.79879
1170.63861	0.80763
1168.71004	0.81856
1166.78148	0.83311
1164.85292	0.85003
1162.92435	0.86671
1160.99579	0.88017
1159.06722	0.88747
1157.13866	0.88690
1155.21009	0.87861
1153.28153	0.86427
1151.35296	0.84705
1149.42440	0.82971
1147.49584	0.81363
1145.56727	0.80001
1143.63871	0.78983
1141.71014	0.78397
1139.78158	0.78327
1137.85301	0.78694
1135.92445	0.79277
1133.99588	0.80020
1132.06732	0.81069
1130.13876	0.82469
1128.21019	0.84078
1126.28163	0.85671
1124.35306	0.87120
1122.42450	0.88444
1120.49593	0.89602
1118.56737	0.90467
1116.63880	0.90940
1114.71024	0.91014
1112.78168	0.90742
1110.85311	0.90187
1108.92455	0.89504
1106.99598	0.88864
1105.06742	0.88330
1103.13885	0.87944
1101.21029	0.87778
1099.28172	0.87905
1097.35316	0.88419
1095.42460	0.89360
1093.49603	0.90646
1091.56747	0.92176
1089.63890	0.93887
1087.71034	0.95722
1085.78177	0.97697
1083.85321	0.99766
1081.92464	1.01664
1079.99608	1.03090
1078.06752	1.03809
1076.13895	1.03804
1074.21039	1.03303
1072.28182	1.02436
1070.35326	1.01244
1068.42469	0.99828
1066.49613	0.98382
1064.56756	0.97099
1062.63900	0.95992
1060.71044	0.94941
1058.78187	0.93825
1056.85331	0.92678
1054.92474	0.91650
1052.99618	0.90769
1051.06761	0.90016
1049.13905	0.89491
1047.21049	0.89334
1045.28192	0.89594
1043.35336	0.90183
1041.42479	0.90918
1039.49623	0.91573
1037.56766	0.92039
1035.63910	0.92419
1033.71053	0.92687
1031.78197	0.92648
1029.85341	0.92309
1027.92484	0.91798
1025.99628	0.91142
1024.06771	0.90388
1022.13915	0.89681
1020.21058	0.89113
1018.28202	0.88642
1016.35345	0.88131
1014.42489	0.87359
1012.49633	0.86164
1010.56776	0.84580
1008.63920	0.82758
1006.71063	0.80875
1004.78207	0.79037
1002.85350	0.77268
1000.92494	0.75665
998.99637	0.74296
997.06781	0.73074
995.13925	0.71908
993.21068	0.70742
991.28212	0.69530
989.35355	0.68304
987.42499	0.67138
985.49642	0.66098
983.56786	0.65254
981.63929	0.64651
979.71073	0.64284
977.78217	0.64064
975.85360	0.63869
973.92504	0.63598
971.99647	0.63170
970.06791	0.62612
968.13934	0.62072
966.21078	0.61699
964.28221	0.61619
962.35365	0.61972
960.42509	0.62915
958.49652	0.64430
956.56796	0.66059
954.63939	0.67190
952.71083	0.67624
950.78226	0.67548
948.85370	0.67229
946.92513	0.66912
944.99657	0.66732
943.06801	0.66691
941.13944	0.66703
939.21088	0.66654
937.28231	0.66521
935.35375	0.66348
933.42518	0.66127
931.49662	0.65829
929.56805	0.65476
927.63949	0.65133
925.71093	0.64868
923.78236	0.64667
921.85380	0.64443
919.92523	0.64164
917.99667	0.63876
916.06810	0.63672
914.13954	0.63600
912.21098	0.63616
910.28241	0.63728
908.35385	0.64013
906.42528	0.64484
904.49672	0.65111
902.56815	0.65878
900.63959	0.66708
898.71102	0.67441
896.78246	0.68003
894.85390	0.68502
892.92533	0.68956
890.99677	0.69235
889.06820	0.69334
887.13964	0.69368
885.21107	0.69377
883.28251	0.69310
881.35394	0.69118
879.42538	0.68788
877.49682	0.68345
875.56825	0.67802
873.63969	0.67156
871.71112	0.66458
869.78256	0.65778
867.85399	0.65131
865.92543	0.64527
863.99686	0.64043
862.06830	0.63735
860.13974	0.63552
858.21117	0.63474
856.28261	0.63576
854.35404	0.63882
852.42548	0.64326
850.49691	0.64865
848.56835	0.65484
846.63978	0.66186
844.71122	0.67047
842.78266	0.68063
840.85409	0.69146
838.92553	0.70317
836.99696	0.71600
835.06840	0.72933
833.13983	0.74202
831.21127	0.75356
829.28270	0.76497
827.35414	0.77654
825.42558	0.78660
823.49701	0.79420
821.56845	0.79970
819.63988	0.80311
817.71132	0.80448
815.78275	0.80404
813.85419	0.80197
811.92562	0.79910
809.99706	0.79558
808.06850	0.79024
806.13993	0.78276
804.21137	0.77455
802.28280	0.76749
800.35424	0.76230
798.42567	0.75822
796.49711	0.75477
794.56854	0.75215
792.63998	0.75075
790.71142	0.75094
788.78285	0.75238
786.85429	0.75452
784.92572	0.75790
782.99716	0.76291
781.06859	0.76875
779.14003	0.77480
777.21147	0.78105
775.28290	0.78710
773.35434	0.79214
771.42577	0.79636
769.49721	0.80047
767.56864	0.80414
765.64008	0.80710
763.71151	0.80921
761.78295	0.80979
759.85439	0.80946
757.92582	0.80924
755.99726	0.80865
754.06869	0.80737
752.14013	0.80567
750.21156	0.80384
748.28300	0.80181
746.35443	0.79882
744.42587	0.79513
742.49731	0.79210
740.56874	0.78993
738.64018	0.78794
736.71161	0.78643
734.78305	0.78685
732.85448	0.79014
730.92592	0.79539
728.99735	0.80056
727.06879	0.80518
725.14023	0.81078
723.21166	0.81834
721.28310	0.82792
719.35453	0.83885
717.42597	0.84934
715.49740	0.85869
713.56884	0.86862
711.64027	0.88081
709.71171	0.89417
707.78315	0.90649
705.85458	0.91746
703.92602	0.92703
701.99745	0.93395
700.06889	0.93844
698.14032	0.94238
696.21176	0.94585
694.28319	0.94793
692.35463	0.94876
690.42607	0.94714
688.49750	0.94144
686.56894	0.93235
684.64037	0.92230
682.71181	0.91421
680.78324	0.90842
678.85468	0.90160
676.92611	0.89296
674.99755	0.88621
673.06899	0.88339
671.14042	0.88201
669.21186	0.87804
667.28329	0.87226
665.35473	0.86976
663.42616	0.86817
661.49760	0.86589
659.56903	0.86319
657.64047	0.86072
655.71191	0.85746
653.78334	0.85240
651.85478	0.84792
649.92621	0.84617
647.99765	0.84540
646.06908	0.84290
644.14052	0.83867
642.21195	0.83512
640.28339	0.83358
638.35483	0.83223
636.42626	0.82994
634.49770	0.82822
632.56913	0.82761
630.64057	0.82776
628.71200	0.82884
626.78344	0.83058
624.85488	0.83321
622.92631	0.83650
620.99775	0.83786
619.06918	0.83661
617.14062	0.83668
615.21205	0.83942
613.28349	0.84128
611.35492	0.84197
609.42636	0.84371
607.49780	0.84622
605.56923	0.84889
603.64067	0.85198
601.71210	0.85524
599.78354	0.85894
