3997.91406	0.88279
3995.98550	0.88385
3994.05693	0.88352
3992.12837	0.88414
3990.19980	0.88514
3988.27124	0.88323
3986.34268	0.88061
3984.41411	0.88049
3982.48555	0.88001
3980.55698	0.87744
3978.62842	0.87585
3976.69985	0.87589
3974.77129	0.87592
3972.84272	0.87600
3970.91416	0.87570
3968.98560	0.87423
3967.05703	0.87349
3965.12847	0.87469
3963.19990	0.87555
3961.27134	0.87452
3959.34277	0.87331
3957.41421	0.87286
3955.48564	0.87156
3953.55708	0.86792
3951.62852	0.86352
3949.69995	0.86253
3947.77139	0.86449
3945.84282	0.86493
3943.91426	0.86466
3941.98569	0.86444
3940.05713	0.86211
3938.12856	0.85960
3936.20000	0.85865
3934.27144	0.85772
3932.34287	0.85677
3930.41431	0.85665
3928.48574	0.85596
3926.55718	0.85590
3924.62861	0.85844
3922.70005	0.85979
3920.77148	0.85837
3918.84292	0.85861
3916.91436	0.86043
3914.98579	0.85926
3913.05723	0.85638
3911.12866	0.85405
3909.20010	0.85041
3907.27153	0.84486
3905.34297	0.84210
3903.41440	0.84631
3901.48584	0.85212
3899.55728	0.85547
3897.62871	0.85602
3895.70015	0.85282
3893.77158	0.84826
3891.84302	0.84748
3889.91445	0.84781
3887.98589	0.84465
3886.05733	0.84213
3884.12876	0.84185
3882.20020	0.84306
3880.27163	0.84660
3878.34307	0.84567
3876.41450	0.84140
3874.48594	0.83929
3872.55737	0.83824
3870.62881	0.83797
3868.70025	0.83716
3866.77168	0.83357
3864.84312	0.83356
3862.91455	0.83667
3860.98599	0.83342
3859.05742	0.82594
3857.12886	0.81923
3855.20029	0.81852
3853.27173	0.83024
3851.34317	0.83481
3849.41460	0.83051
3847.48604	0.82631
3845.55747	0.82305
3843.62891	0.82055
3841.70034	0.81990
3839.77178	0.82389
3837.84321	0.83082
3835.91465	0.83096
3833.98609	0.82575
3832.05752	0.82162
3830.12896	0.81886
3828.20039	0.81637
3826.27183	0.81502
3824.34326	0.81331
3822.41470	0.81379
3820.48613	0.81894
3818.55757	0.82031
3816.62901	0.82091
3814.70044	0.81950
3812.77188	0.81269
3810.84331	0.80540
3808.91475	0.80176
3806.98618	0.80326
3805.05762	0.80348
3803.12905	0.80422
3801.20049	0.81270
3799.27193	0.81526
3797.34336	0.81070
3795.41480	0.80780
3793.48623	0.80607
3791.55767	0.80416
3789.62910	0.80226
3787.70054	0.80019
3785.77197	0.79961
3783.84341	0.79980
3781.91485	0.79778
3779.98628	0.79676
3778.05772	0.79807
3776.12915	0.79732
3774.20059	0.79489
3772.27202	0.79312
3770.34346	0.79362
3768.41489	0.79393
3766.48633	0.79208
3764.55777	0.79007
3762.62920	0.78770
3760.70064	0.78738
3758.77207	0.79019
3756.84351	0.78783
3754.91494	0.77952
3752.98638	0.77442
3751.05781	0.78412
3749.12925	0.79246
3747.20069	0.78762
3745.27212	0.78694
3743.34356	0.79197
3741.41499	0.78898
3739.48643	0.78082
3737.55786	0.77423
3735.62930	0.77576
3733.70074	0.78506
3731.77217	0.78804
3729.84361	0.78172
3727.91504	0.77402
3725.98648	0.77062
3724.05791	0.77028
3722.12935	0.77130
3720.20078	0.77288
3718.27222	0.77175
3716.34366	0.76787
3714.41509	0.76521
3712.48653	0.76988
3710.55796	0.77736
3708.62940	0.77473
3706.70083	0.76915
3704.77227	0.76639
3702.84370	0.76884
3700.91514	0.77334
3698.98658	0.77325
3697.05801	0.77096
3695.12945	0.76817
3693.20088	0.76432
3691.27232	0.76408
3689.34375	0.77113
3687.41519	0.77463
3685.48662	0.77361
3683.55806	0.77275
3681.62950	0.77238
3679.70093	0.77163
3677.77237	0.77293
3675.84380	0.78352
3673.91524	0.78934
3671.98667	0.78706
3670.05811	0.79318
3668.12954	0.79828
3666.20098	0.79454
3664.27242	0.79138
3662.34385	0.79181
3660.41529	0.79373
3658.48672	0.79670
3656.55816	0.80273
3654.62959	0.80578
3652.70103	0.80304
3650.77246	0.80467
3648.84390	0.82302
3646.91534	0.83679
3644.98677	0.83816
3643.05821	0.83903
3641.12964	0.84325
3639.20108	0.84699
3637.27251	0.84808
3635.34395	0.84948
3633.41538	0.85152
3631.48682	0.85354
3629.55826	0.86540
3627.62969	0.88227
3625.70113	0.88432
3623.77256	0.88168
3621.84400	0.88149
3619.91543	0.88827
3617.98687	0.89956
3616.05830	0.90635
3614.12974	0.91220
3612.20118	0.91784
3610.27261	0.92165
3608.34405	0.92898
3606.41548	0.93767
3604.48692	0.94158
3602.55835	0.94464
3600.62979	0.95079
3598.70123	0.95778
3596.77266	0.96375
3594.84410	0.96929
3592.91553	0.97266
3590.98697	0.97363
3589.05840	0.97877
3587.12984	0.99207
3585.20127	1.00075
3583.27271	1.00313
3581.34415	1.00727
3579.41558	1.01503
3577.48702	1.02265
3575.55845	1.02793
3573.62989	1.03295
3571.70132	1.03759
3569.77276	1.04072
3567.84419	1.04924
3565.91563	1.06570
3563.98707	1.07555
3562.05850	1.08116
3560.12994	1.08931
3558.20137	1.09697
3556.27281	1.10025
3554.34424	1.10311
3552.41568	1.10932
3550.48711	1.11520
3548.55855	1.12206
3546.62999	1.13413
3544.70142	1.14509
3542.77286	1.14961
3540.84429	1.15230
3538.91573	1.15700
3536.98716	1.16392
3535.05860	1.17113
3533.13003	1.17775
3531.20147	1.18353
3529.27291	1.18718
3527.34434	1.19221
3525.41578	1.20384
3523.48721	1.21887
3521.55865	1.22975
3519.63008	1.23430
3517.70152	1.23727
3515.77295	1.24342
3513.84439	1.25201
3511.91583	1.26024
3509.98726	1.26774
3508.05870	1.27448
3506.13013	1.27995
3504.20157	1.28796
3502.27300	1.30183
3500.34444	1.31577
3498.41587	1.32545
3496.48731	1.33225
3494.55875	1.33799
3492.63018	1.34468
3490.70162	1.35225
3488.77305	1.35975
3486.84449	1.36888
3484.91592	1.37836
3482.98736	1.38564
3481.05879	1.39134
3479.13023	1.39570
3477.20167	1.39968
3475.27310	1.40325
3473.34454	1.40562
3471.41597	1.40931
3469.48741	1.41675
3467.55884	1.42586
3465.63028	1.43185
3463.70171	1.43382
3461.77315	1.43676
3459.84459	1.44463
3457.91602	1.45316
3455.98746	1.45830
3454.05889	1.46367
3452.13033	1.46892
3450.20176	1.47039
3448.27320	1.47208
3446.34464	1.47647
3444.41607	1.47922
3442.48751	1.47978
3440.55894	1.47963
3438.63038	1.48125
3436.70181	1.48784
3434.77325	1.49578
3432.84468	1.50058
3430.91612	1.50363
3428.98756	1.50467
3427.05899	1.50408
3425.13043	1.50658
3423.20186	1.51072
3421.27330	1.51158
3419.34473	1.51071
3417.41617	1.51078
3415.48760	1.51085
3413.55904	1.50868
3411.63048	1.50661
3409.70191	1.50758
3407.77335	1.51133
3405.84478	1.51953
3403.91622	1.52748
3401.98765	1.52924
3400.05909	1.52774
3398.13052	1.52641
3396.20196	1.52716
3394.27340	1.52775
3392.34483	1.52850
3390.41627	1.53243
3388.48770	1.53418
3386.55914	1.53273
3384.63057	1.53414
3382.70201	1.53856
3380.77344	1.54144
3378.84488	1.54203
3376.91632	1.54305
3374.98775	1.54219
3373.05919	1.53766
3371.13062	1.53654
3369.20206	1.54172
3367.27349	1.54835
3365.34493	1.55605
3363.41636	1.56182
3361.48780	1.55989
3359.55924	1.55664
3357.63067	1.55935
3355.70211	1.56768
3353.77354	1.57648
3351.84498	1.57815
3349.91641	1.57585
3347.98785	1.57744
3346.05928	1.57886
3344.13072	1.57474
3342.20216	1.57208
3340.27359	1.57844
3338.34503	1.59191
3336.41646	1.60812
3334.48790	1.62052
3332.55933	1.62198
3330.63077	1.61537
3328.70220	1.61419
3326.77364	1.62746
3324.84508	1.64393
3322.91651	1.64887
3320.98795	1.64443
3319.05938	1.63898
3317.13082	1.64069
3315.20225	1.64983
3313.27369	1.66052
3311.34513	1.66997
3309.41656	1.67319
3307.48800	1.67245
3305.55943	1.67376
3303.63087	1.67561
3301.70230	1.68342
3299.77374	1.69448
3297.84517	1.69356
3295.91661	1.68516
3293.98805	1.68010
3292.05948	1.67902
3290.13092	1.68321
3288.20235	1.69213
3286.27379	1.70035
3284.34522	1.70334
3282.41666	1.70331
3280.48809	1.70427
3278.55953	1.70649
3276.63097	1.70902
3274.70240	1.70753
3272.77384	1.69676
3270.84527	1.68236
3268.91671	1.67346
3266.98814	1.66696
3265.05958	1.65811
3263.13101	1.65162
3261.20245	1.65023
3259.27389	1.64752
3257.34532	1.63675
3255.41676	1.62000
3253.48819	1.60734
3251.55963	1.60345
3249.63106	1.60149
3247.70250	1.59751
3245.77393	1.59003
3243.84537	1.57662
3241.91681	1.56386
3239.98824	1.55210
3238.05968	1.53870
3236.13111	1.53191
3234.20255	1.53059
3232.27398	1.52762
3230.34542	1.52481
3228.41685	1.52077
3226.48829	1.51308
3224.55973	1.50542
3222.63116	1.49960
3220.70260	1.49358
3218.77403	1.48610
3216.84547	1.48007
3214.91690	1.47679
3212.98834	1.47243
3211.05977	1.46494
3209.13121	1.45568
3207.20265	1.44778
3205.27408	1.44379
3203.34552	1.44185
3201.41695	1.43776
3199.48839	1.42901
3197.55982	1.41872
3195.63126	1.41202
3193.70269	1.40897
3191.77413	1.40641
3189.84557	1.40152
3187.91700	1.39491
3185.98844	1.38802
3184.05987	1.37911
3182.13131	1.36887
3180.20274	1.36155
3178.27418	1.35779
3176.34562	1.35475
3174.41705	1.35132
3172.48849	1.34727
3170.55992	1.34353
3168.63136	1.34073
3166.70279	1.33611
3164.77423	1.32884
3162.84566	1.32234
3160.91710	1.31893
3158.98854	1.31551
3157.05997	1.30850
3155.13141	1.30097
3153.20284	1.29671
3151.27428	1.29351
3149.34571	1.28856
3147.41715	1.28445
3145.48858	1.28313
3143.56002	1.28145
3141.63146	1.27827
3139.70289	1.27456
3137.77433	1.26986
3135.84576	1.26585
3133.91720	1.26294
3131.98863	1.25780
3130.06007	1.25204
3128.13150	1.24952
3126.20294	1.24950
3124.27438	1.25185
3122.34581	1.25589
3120.41725	1.25681
3118.48868	1.25394
3116.56012	1.25177
3114.63155	1.25090
3112.70299	1.24888
3110.77442	1.24605
3108.84586	1.24403
3106.91730	1.24372
3104.98873	1.24429
3103.06017	1.24332
3101.13160	1.24100
3099.20304	1.23938
3097.27447	1.23841
3095.34591	1.23675
3093.41734	1.23359
3091.48878	1.23039
3089.56022	1.22937
3087.63165	1.22985
3085.70309	1.22926
3083.77452	1.22606
3081.84596	1.22093
3079.91739	1.21604
3077.98883	1.21288
3076.06026	1.21130
3074.13170	1.20882
3072.20314	1.20445
3070.27457	1.20056
3068.34601	1.19740
3066.41744	1.19390
3064.48888	1.19024
3062.56031	1.18671
3060.63175	1.18338
3058.70318	1.17906
3056.77462	1.17393
3054.84606	1.16925
3052.91749	1.16300
3050.98893	1.15495
3049.06036	1.14892
3047.13180	1.14513
3045.20323	1.14170
3043.27467	1.13859
3041.34610	1.13381
3039.41754	1.12657
3037.48898	1.12001
3035.56041	1.11595
3033.63185	1.11323
3031.70328	1.11053
3029.77472	1.10690
3027.84615	1.10116
3025.91759	1.09420
3023.98903	1.08899
3022.06046	1.08638
3020.13190	1.08474
3018.20333	1.08335
3016.27477	1.08200
3014.34620	1.07876
3012.41764	1.07334
3010.48907	1.06874
3008.56051	1.06613
3006.63195	1.06384
3004.70338	1.06153
3002.77482	1.06016
3000.84625	1.05940
2998.91769	1.05874
2996.98912	1.05881
2995.06056	1.06041
2993.13199	1.06362
2991.20343	1.06736
2989.27487	1.07124
2987.34630	1.07551
2985.41774	1.07919
2983.48917	1.08272
2981.56061	1.08825
2979.63204	1.09565
2977.70348	1.10337
2975.77491	1.11031
2973.84635	1.11637
2971.91779	1.12353
2969.98922	1.13197
2968.06066	1.13989
2966.13209	1.14777
2964.20353	1.15500
2962.27496	1.15834
2960.34640	1.15767
2958.41783	1.15530
2956.48927	1.15137
2954.56071	1.14562
2952.63214	1.13922
2950.70358	1.13387
2948.77501	1.13102
2946.84645	1.13024
2944.91788	1.13124
2942.98932	1.13549
2941.06075	1.14331
2939.13219	1.15322
2937.20363	1.16458
2935.27506	1.17778
2933.34650	1.19094
2931.41793	1.20263
2929.48937	1.21497
2927.56080	1.22726
2925.63224	1.23600
2923.70367	1.24106
2921.77511	1.24474
2919.84655	1.24804
2917.91798	1.24704
2915.98942	1.23369
2914.06085	1.20737
2912.13229	1.17886
2910.20372	1.15670
2908.27516	1.14012
2906.34659	1.12619
2904.41803	1.11430
2902.48947	1.10493
2900.56090	1.09872
2898.63234	1.09455
2896.70377	1.09000
2894.77521	1.08473
2892.84664	1.07951
2890.91808	1.07439
2888.98952	1.06962
2887.06095	1.06571
2885.13239	1.06328
2883.20382	1.06182
2881.27526	1.05995
2879.34669	1.05827
2877.41813	1.05783
2875.48956	1.05799
2873.56100	1.05711
2871.63244	1.05303
2869.70387	1.04577
2867.77531	1.03793
2865.84674	1.03156
2863.91818	1.02791
2861.98961	1.02769
2860.06105	1.03071
2858.13248	1.03692
2856.20392	1.04615
2854.27536	1.05700
2852.34679	1.06813
2850.41823	1.07480
2848.48966	1.06657
2846.56110	1.04152
2844.63253	1.01188
2842.70397	0.98753
2840.77540	0.96975
2838.84684	0.95723
2836.91828	0.94797
2834.98971	0.94016
2833.06115	0.93377
2831.13258	0.92903
2829.20402	0.92551
2827.27545	0.92228
2825.34689	0.91800
2823.41832	0.91303
2821.48976	0.90915
2819.56120	0.90672
2817.63263	0.90432
2815.70407	0.90134
2813.77550	0.89844
2811.84694	0.89560
2809.91837	0.89196
2807.98981	0.88780
2806.06124	0.88496
2804.13268	0.88372
2802.20412	0.88218
2800.27555	0.87883
2798.34699	0.87382
2796.41842	0.86935
2794.48986	0.86702
2792.56129	0.86563
2790.63273	0.86379
2788.70416	0.86135
2786.77560	0.85887
2784.84704	0.85617
2782.91847	0.85254
2780.98991	0.84854
2779.06134	0.84517
2777.13278	0.84282
2775.20421	0.84141
2773.27565	0.84009
2771.34708	0.83784
2769.41852	0.83515
2767.48996	0.83280
2765.56139	0.83052
2763.63283	0.82889
2761.70426	0.82807
2759.77570	0.82689
2757.84713	0.82492
2755.91857	0.82239
2753.99001	0.81996
2752.06144	0.81850
2750.13288	0.81783
2748.20431	0.81693
2746.27575	0.81546
2744.34718	0.81385
2742.41862	0.81214
2740.49005	0.81048
2738.56149	0.80924
2736.63293	0.80833
2734.70436	0.80736
2732.77580	0.80594
2730.84723	0.80395
2728.91867	0.80149
2726.99010	0.79920
2725.06154	0.79772
2723.13297	0.79646
2721.20441	0.79440
2719.27585	0.79213
2717.34728	0.79103
2715.41872	0.79068
2713.49015	0.78979
2711.56159	0.78823
2709.63302	0.78617
2707.70446	0.78363
2705.77589	0.78138
2703.84733	0.78010
2701.91877	0.77918
2699.99020	0.77782
2698.06164	0.77627
2696.13307	0.77491
2694.20451	0.77318
2692.27594	0.77088
2690.34738	0.76893
2688.41881	0.76799
2686.49025	0.76746
2684.56169	0.76608
2682.63312	0.76354
2680.70456	0.76100
2678.77599	0.75951
2676.84743	0.75840
2674.91886	0.75657
2672.99030	0.75441
2671.06173	0.75270
2669.13317	0.75110
2667.20461	0.74894
2665.27604	0.74664
2663.34748	0.74519
2661.41891	0.74434
2659.49035	0.74334
2657.56178	0.74212
2655.63322	0.74078
2653.70465	0.73961
2651.77609	0.73910
2649.84753	0.73914
2647.91896	0.73902
2645.99040	0.73797
2644.06183	0.73607
2642.13327	0.73447
2640.20470	0.73375
2638.27614	0.73324
2636.34757	0.73211
2634.41901	0.73040
2632.49045	0.72886
2630.56188	0.72787
2628.63332	0.72695
2626.70475	0.72544
2624.77619	0.72340
2622.84762	0.72173
2620.91906	0.72105
2618.99049	0.72055
2617.06193	0.71913
2615.13337	0.71733
2613.20480	0.71601
2611.27624	0.71467
2609.34767	0.71310
2607.41911	0.71198
2605.49054	0.71119
2603.56198	0.70999
2601.63342	0.70823
2599.70485	0.70618
2597.77629	0.70468
2595.84772	0.70429
2593.91916	0.70384
2591.99059	0.70248
2590.06203	0.70091
2588.13346	0.69980
2586.20490	0.69891
2584.27634	0.69764
2582.34777	0.69609
2580.41921	0.69474
2578.49064	0.69342
2576.56208	0.69224
2574.63351	0.69138
2572.70495	0.69051
2570.77638	0.68921
2568.84782	0.68739
2566.91926	0.68550
2564.99069	0.68398
2563.06213	0.68274
2561.13356	0.68134
2559.20500	0.67954
2557.27643	0.67759
2555.34787	0.67617
2553.41930	0.67545
2551.49074	0.67471
2549.56218	0.67331
2547.63361	0.67154
2545.70505	0.67018
2543.77648	0.66934
2541.84792	0.66838
2539.91935	0.66687
2537.99079	0.66532
2536.06222	0.66424
2534.13366	0.66321
2532.20510	0.66219
2530.27653	0.66159
2528.34797	0.66102
2526.41940	0.65995
2524.49084	0.65842
2522.56227	0.65649
2520.63371	0.65442
2518.70514	0.65291
2516.77658	0.65221
2514.84802	0.65164
2512.91945	0.65078
2510.99089	0.64980
2509.06232	0.64873
2507.13376	0.64762
2505.20519	0.64636
2503.27663	0.64445
2501.34806	0.64240
2499.41950	0.64135
2497.49094	0.64105
2495.56237	0.64058
2493.63381	0.63982
2491.70524	0.63912
2489.77668	0.63822
2487.84811	0.63675
2485.91955	0.63533
2483.99098	0.63470
2482.06242	0.63441
2480.13386	0.63377
2478.20529	0.63252
2476.27673	0.63102
2474.34816	0.62998
2472.41960	0.62911
2470.49103	0.62767
2468.56247	0.62601
2466.63391	0.62489
2464.70534	0.62412
2462.77678	0.62314
2460.84821	0.62194
2458.91965	0.62044
2456.99108	0.61890
2455.06252	0.61804
2453.13395	0.61754
2451.20539	0.61643
2449.27683	0.61489
2447.34826	0.61363
2445.41970	0.61257
2443.49113	0.61124
2441.56257	0.60966
2439.63400	0.60816
2437.70544	0.60684
2435.77687	0.60579
2433.84831	0.60489
2431.91975	0.60362
2429.99118	0.60191
2428.06262	0.60031
2426.13405	0.59916
2424.20549	0.59833
2422.27692	0.59748
2420.34836	0.59637
2418.41979	0.59514
2416.49123	0.59387
2414.56267	0.59253
2412.63410	0.59153
2410.70554	0.59100
2408.77697	0.59014
2406.84841	0.58863
2404.91984	0.58750
2402.99128	0.58719
2401.06271	0.58684
2399.13415	0.58619
2397.20559	0.58544
2395.27702	0.58467
2393.34846	0.58402
2391.41989	0.58328
2389.49133	0.58207
2387.56276	0.58057
2385.63420	0.57915
2383.70563	0.57789
2381.77707	0.57645
2379.84851	0.57467
2377.91994	0.57318
2375.99138	0.57231
2374.06281	0.57160
2372.13425	0.57120
2370.20568	0.57073
2368.27712	0.56947
2366.34855	0.56884
2364.41999	0.56970
2362.49143	0.57027
2360.56286	0.56942
2358.63430	0.56790
2356.70573	0.56670
2354.77717	0.56655
2352.84860	0.56666
2350.92004	0.56461
2348.99147	0.56020
2347.06291	0.55564
2345.13435	0.55410
2343.20578	0.55583
2341.27722	0.55749
2339.34865	0.55803
2337.42009	0.55712
2335.49152	0.55557
2333.56296	0.55437
2331.63440	0.55440
2329.70583	0.55521
2327.77727	0.55421
2325.84870	0.55182
2323.92014	0.55067
2321.99157	0.55101
2320.06301	0.55129
2318.13444	0.55082
2316.20588	0.54962
2314.27732	0.54852
2312.34875	0.54852
2310.42019	0.54910
2308.49162	0.54936
2306.56306	0.54944
2304.63449	0.54944
2302.70593	0.54926
2300.77736	0.54902
2298.84880	0.54854
2296.92024	0.54786
2294.99167	0.54748
2293.06311	0.54735
2291.13454	0.54713
2289.20598	0.54685
2287.27741	0.54658
2285.34885	0.54616
2283.42028	0.54558
2281.49172	0.54492
2279.56316	0.54414
2277.63459	0.54336
2275.70603	0.54267
2273.77746	0.54188
2271.84890	0.54104
2269.92033	0.54007
2267.99177	0.53873
2266.06320	0.53722
2264.13464	0.53599
2262.20608	0.53504
2260.27751	0.53384
2258.34895	0.53222
2256.42038	0.53079
2254.49182	0.52991
2252.56325	0.52915
2250.63469	0.52829
2248.70612	0.52725
2246.77756	0.52615
2244.84900	0.52546
2242.92043	0.52522
2240.99187	0.52493
2239.06330	0.52428
2237.13474	0.52345
2235.20617	0.52288
2233.27761	0.52283
2231.34904	0.52289
2229.42048	0.52258
2227.49192	0.52201
2225.56335	0.52137
2223.63479	0.52075
2221.70622	0.52026
2219.77766	0.51995
2217.84909	0.51982
2215.92053	0.51974
2213.99196	0.51941
2212.06340	0.51871
2210.13484	0.51793
2208.20627	0.51740
2206.27771	0.51700
2204.34914	0.51660
2202.42058	0.51626
2200.49201	0.51610
2198.56345	0.51614
2196.63488	0.51626
2194.70632	0.51638
2192.77776	0.51637
2190.84919	0.51613
2188.92063	0.51576
2186.99206	0.51552
2185.06350	0.51527
2183.13493	0.51468
2181.20637	0.51398
2179.27781	0.51335
2177.34924	0.51262
2175.42068	0.51186
2173.49211	0.51106
2171.56355	0.51015
2169.63498	0.50918
2167.70642	0.50828
2165.77785	0.50739
2163.84929	0.50635
2161.92073	0.50525
2159.99216	0.50410
2158.06360	0.50280
2156.13503	0.50163
2154.20647	0.50087
2152.27790	0.50025
2150.34934	0.49942
2148.42077	0.49858
2146.49221	0.49810
2144.56365	0.49783
2142.63508	0.49747
2140.70652	0.49693
2138.77795	0.49632
2136.84939	0.49573
2134.92082	0.49521
2132.99226	0.49482
2131.06369	0.49463
2129.13513	0.49457
2127.20657	0.49453
2125.27800	0.49456
2123.34944	0.49462
2121.42087	0.49446
2119.49231	0.49422
2117.56374	0.49413
2115.63518	0.49381
2113.70661	0.49303
2111.77805	0.49215
2109.84949	0.49140
2107.92092	0.49076
2105.99236	0.49010
2104.06379	0.48914
2102.13523	0.48798
2100.20666	0.48696
2098.27810	0.48603
2096.34953	0.48507
2094.42097	0.48403
2092.49241	0.48286
2090.56384	0.48168
2088.63528	0.48073
2086.70671	0.48001
2084.77815	0.47937
2082.84958	0.47859
2080.92102	0.47762
2078.99245	0.47662
2077.06389	0.47577
2075.13533	0.47508
2073.20676	0.47423
2071.27820	0.47303
2069.34963	0.47193
2067.42107	0.47133
2065.49250	0.47095
2063.56394	0.47009
2061.63537	0.46867
2059.70681	0.46724
2057.77825	0.46595
2055.84968	0.46458
2053.92112	0.46335
2051.99255	0.46229
2050.06399	0.46114
2048.13542	0.46007
2046.20686	0.45916
2044.27830	0.45821
2042.34973	0.45718
2040.42117	0.45610
2038.49260	0.45504
2036.56404	0.45407
2034.63547	0.45316
2032.70691	0.45232
2030.77834	0.45158
2028.84978	0.45102
2026.92122	0.45063
2024.99265	0.45025
2023.06409	0.44976
2021.13552	0.44917
2019.20696	0.44868
2017.27839	0.44844
2015.34983	0.44804
2013.42126	0.44721
2011.49270	0.44616
2009.56414	0.44503
2007.63557	0.44392
2005.70701	0.44300
2003.77844	0.44213
2001.84988	0.44100
1999.92131	0.43953
1997.99275	0.43803
1996.06418	0.43672
1994.13562	0.43572
1992.20706	0.43501
1990.27849	0.43412
1988.34993	0.43285
1986.42136	0.43144
1984.49280	0.42994
1982.56423	0.42858
1980.63567	0.42751
1978.70710	0.42648
1976.77854	0.42540
1974.84998	0.42447
1972.92141	0.42374
1970.99285	0.42307
1969.06428	0.42236
1967.13572	0.42167
1965.20715	0.42079
1963.27859	0.41961
1961.35002	0.41849
1959.42146	0.41762
1957.49290	0.41680
1955.56433	0.41581
1953.63577	0.41454
1951.70720	0.41322
1949.77864	0.41206
1947.85007	0.41092
1945.92151	0.40969
1943.99294	0.40896
1942.06438	0.40876
1940.13582	0.40796
1938.20725	0.40668
1936.27869	0.40571
1934.35012	0.40501
1932.42156	0.40446
1930.49299	0.40416
1928.56443	0.40388
1926.63586	0.40343
1924.70730	0.40314
1922.77874	0.40299
1920.85017	0.40240
1918.92161	0.40200
1916.99304	0.40211
1915.06448	0.40161
1913.13591	0.40058
1911.20735	0.39984
1909.27878	0.39961
1907.35022	0.39930
1905.42166	0.39838
1903.49309	0.39719
1901.56453	0.39610
1899.63596	0.39517
1897.70740	0.39440
1895.77883	0.39385
1893.85027	0.39314
1891.92171	0.39209
1889.99314	0.39150
1888.06458	0.39128
1886.13601	0.39076
1884.20745	0.39014
1882.27888	0.38951
1880.35032	0.38895
1878.42175	0.38847
1876.49319	0.38789
1874.56463	0.38706
1872.63606	0.38591
1870.70750	0.38505
1868.77893	0.38542
1866.85037	0.38558
1864.92180	0.38431
1862.99324	0.38292
1861.06467	0.38210
1859.13611	0.38153
1857.20755	0.38079
1855.27898	0.37995
1853.35042	0.37917
1851.42185	0.37826
1849.49329	0.37724
1847.56472	0.37625
1845.63616	0.37592
1843.70759	0.37647
1841.77903	0.37595
1839.85047	0.37453
1837.92190	0.37370
1835.99334	0.37321
1834.06477	0.37209
1832.13621	0.37102
1830.20764	0.37134
1828.27908	0.37183
1826.35051	0.37138
1824.42195	0.37134
1822.49339	0.37143
1820.56482	0.37098
1818.63626	0.37055
1816.70769	0.37015
1814.77913	0.36941
1812.85056	0.36881
1810.92200	0.36891
1808.99343	0.36905
1807.06487	0.36867
1805.13631	0.36812
1803.20774	0.36776
1801.27918	0.36812
1799.35061	0.36878
1797.42205	0.36883
1795.49348	0.36858
1793.56492	0.36921
1791.63635	0.37105
1789.70779	0.37126
1787.77923	0.37012
1785.85066	0.36962
1783.92210	0.36990
1781.99353	0.37059
1780.06497	0.37165
1778.13640	0.37205
1776.20784	0.37151
1774.27927	0.37179
1772.35071	0.37460
1770.42215	0.37724
1768.49358	0.37774
1766.56502	0.37741
1764.63645	0.37709
1762.70789	0.37814
1760.77932	0.38056
1758.85076	0.38274
1756.92220	0.38569
1754.99363	0.38861
1753.06507	0.39093
1751.13650	0.39589
1749.20794	0.40447
1747.27937	0.41188
1745.35081	0.41711
1743.42224	0.42180
1741.49368	0.42678
1739.56512	0.43205
1737.63655	0.43531
1735.70799	0.43744
1733.77942	0.44354
1731.85086	0.44979
1729.92229	0.45342
1727.99373	0.45719
1726.06516	0.46146
1724.13660	0.46748
1722.20804	0.47369
1720.27947	0.47863
1718.35091	0.48724
1716.42234	0.50381
1714.49378	0.51641
1712.56521	0.52434
1710.63665	0.53269
1708.70808	0.54287
1706.77952	0.55907
1704.85096	0.58139
1702.92239	0.60170
1700.99383	0.63278
1699.06526	0.68618
1697.13670	0.74051
1695.20813	0.79592
1693.27957	0.83646
1691.35100	0.86887
1689.42244	0.91025
1687.49388	0.95018
1685.56531	0.99285
1683.63675	1.06542
1681.70818	1.11989
1679.77962	1.15027
1677.85105	1.17923
1675.92249	1.21497
1673.99392	1.25357
1672.06536	1.28297
1670.13680	1.31780
1668.20823	1.35833
1666.27967	1.38008
1664.35110	1.39794
1662.42254	1.42453
1660.49397	1.44588
1658.56541	1.45535
1656.63684	1.45828
1654.70828	1.46127
1652.77972	1.47453
1650.85115	1.48417
1648.92259	1.48619
1646.99402	1.48846
1645.06546	1.48990
1643.13689	1.48756
1641.20833	1.48491
1639.27976	1.48173
1637.35120	1.48011
1635.42264	1.47837
1633.49407	1.47084
1631.56551	1.46262
1629.63694	1.45188
1627.70838	1.43823
1625.77981	1.42596
1623.85125	1.41269
1621.92269	1.39184
1619.99412	1.36934
1618.06556	1.34210
1616.13699	1.30249
1614.20843	1.27001
1612.27986	1.24510
1610.35130	1.21846
1608.42273	1.18977
1606.49417	1.16454
1604.56561	1.14534
1602.63704	1.12997
1600.70848	1.11729
1598.77991	1.10730
1596.85135	1.10002
1594.92278	1.09483
1592.99422	1.09134
1591.06565	1.09011
1589.13709	1.09164
1587.20853	1.09600
1585.27996	1.10293
1583.35140	1.11302
1581.42283	1.12513
1579.49427	1.13680
1577.56570	1.15255
1575.63714	1.17698
1573.70857	1.19361
1571.78001	1.20528
1569.85145	1.22559
1567.92288	1.24742
1565.99432	1.26220
1564.06575	1.27659
1562.13719	1.28837
1560.20862	1.30327
1558.28006	1.33536
1556.35149	1.34870
1554.42293	1.35337
1552.49437	1.35866
1550.56580	1.36350
1548.63724	1.36664
1546.70867	1.36629
1544.78011	1.36366
1542.85154	1.36191
1540.92298	1.35662
1538.99441	1.34292
1537.06585	1.33494
1535.13729	1.32776
1533.20872	1.31719
1531.28016	1.30693
1529.35159	1.29866
1527.42303	1.28831
1525.49446	1.27602
1523.56590	1.26749
1521.63733	1.26204
1519.70877	1.25672
1517.78021	1.24750
1515.85164	1.23143
1513.92308	1.21175
1511.99451	1.19092
1510.06595	1.17002
1508.13738	1.14077
1506.20882	1.09672
1504.28025	1.07279
1502.35169	1.05719
1500.42313	1.03968
1498.49456	1.01722
1496.56600	0.99070
1494.63743	0.96947
1492.70887	0.95378
1490.78030	0.93663
1488.85174	0.91682
1486.92317	0.90164
1484.99461	0.89098
1483.06605	0.88290
1481.13748	0.87713
1479.20892	0.87471
1477.28035	0.87695
1475.35179	0.88506
1473.42322	0.90234
1471.49466	0.92232
1469.56610	0.93240
1467.63753	0.93839
1465.70897	0.94732
1463.78040	0.95791
1461.85184	0.96326
1459.92327	0.96575
1457.99471	0.97417
1456.06614	0.98675
1454.13758	0.98903
1452.20902	0.98748
1450.28045	0.98550
1448.35189	0.98278
1446.42332	0.97868
1444.49476	0.97356
1442.56619	0.96731
1440.63763	0.96029
1438.70906	0.95227
1436.78050	0.94042
1434.85194	0.92666
1432.92337	0.91543
1430.99481	0.90537
1429.06624	0.89661
1427.13768	0.89066
1425.20911	0.88739
1423.28055	0.88647
1421.35198	0.88754
1419.42342	0.89200
1417.49486	0.89840
1415.56629	0.90191
1413.63773	0.90389
1411.70916	0.90574
1409.78060	0.90772
1407.85203	0.91057
1405.92347	0.91547
1403.99490	0.92082
1402.06634	0.92361
1400.13778	0.92506
1398.20921	0.92671
1396.28065	0.92819
1394.35208	0.92923
1392.42352	0.93001
1390.49495	0.93138
1388.56639	0.93525
1386.63782	0.94242
1384.70926	0.95007
1382.78070	0.95687
1380.85213	0.96197
1378.92357	0.96301
1376.99500	0.95906
1375.06644	0.94975
1373.13787	0.93590
1371.20931	0.92133
1369.28074	0.90566
1367.35218	0.88842
1365.42362	0.87256
1363.49505	0.85849
1361.56649	0.84641
1359.63792	0.83757
1357.70936	0.83127
1355.78079	0.82689
1353.85223	0.82419
1351.92366	0.82255
1349.99510	0.82137
1348.06654	0.82061
1346.13797	0.82039
1344.20941	0.82059
1342.28084	0.82101
1340.35228	0.82208
1338.42371	0.82395
1336.49515	0.82621
1334.56659	0.82935
1332.63802	0.83396
1330.70946	0.83980
1328.78089	0.84558
1326.85233	0.84975
1324.92376	0.85211
1322.99520	0.85395
1321.06663	0.85615
1319.13807	0.85845
1317.20951	0.86034
1315.28094	0.86159
1313.35238	0.86259
1311.42381	0.86339
1309.49525	0.86350
1307.56668	0.86284
1305.63812	0.86177
1303.70955	0.86068
1301.78099	0.85932
1299.85243	0.85731
1297.92386	0.85465
1295.99530	0.85182
1294.06673	0.84989
1292.13817	0.84958
1290.20960	0.85045
1288.28104	0.85144
1286.35247	0.85214
1284.42391	0.85286
1282.49535	0.85367
1280.56678	0.85453
1278.63822	0.85562
1276.70965	0.85686
1274.78109	0.85846
1272.85252	0.86135
1270.92396	0.86571
1268.99539	0.87098
1267.06683	0.87654
1265.13827	0.88124
1263.20970	0.88422
1261.28114	0.88573
1259.35257	0.88649
1257.42401	0.88720
1255.49544	0.88828
1253.56688	0.88962
1251.63831	0.89106
1249.70975	0.89258
1247.78119	0.89385
1245.85262	0.89475
1243.92406	0.89554
1241.99549	0.89603
1240.06693	0.89591
1238.13836	0.89492
1236.20980	0.89242
1234.28123	0.88821
1232.35267	0.88261
1230.42411	0.87593
1228.49554	0.86835
1226.56698	0.86011
1224.63841	0.85137
1222.70985	0.84229
1220.78128	0.83309
1218.85272	0.82391
1216.92415	0.81530
1214.99559	0.80839
1213.06703	0.80374
1211.13846	0.80095
1209.20990	0.79919
1207.28133	0.79721
1205.35277	0.79365
1203.42420	0.78779
1201.49564	0.77999
1199.56708	0.77119
1197.63851	0.76184
1195.70995	0.75224
1193.78138	0.74366
1191.85282	0.73712
1189.92425	0.73223
1187.99569	0.72868
1186.06712	0.72659
1184.13856	0.72592
1182.21000	0.72685
1180.28143	0.72968
1178.35287	0.73415
1176.42430	0.73977
1174.49574	0.74621
1172.56717	0.75265
1170.63861	0.75872
1168.71004	0.76583
1166.78148	0.77557
1164.85292	0.78806
1162.92435	0.80205
1160.99579	0.81479
1159.06722	0.82274
1157.13866	0.82342
1155.21009	0.81660
1153.28153	0.80393
1151.35296	0.78725
1149.42440	0.76863
1147.49584	0.75084
1145.56727	0.73601
1143.63871	0.72520
1141.71014	0.71884
1139.78158	0.71649
1137.85301	0.71754
1135.92445	0.72201
1133.99588	0.73012
1132.06732	0.74119
1130.13876	0.75433
1128.21019	0.76914
1126.28163	0.78480
1124.35306	0.79975
1122.42450	0.81305
1120.49593	0.82474
1118.56737	0.83479
1116.63880	0.84203
1114.71024	0.84467
1112.78168	0.84249
1110.85311	0.83699
1108.92455	0.82981
1106.99598	0.82248
1105.06742	0.81559
1103.13885	0.80910
1101.21029	0.80393
1099.28172	0.80120
1097.35316	0.80129
1095.42460	0.80443
1093.49603	0.81102
1091.56747	0.82108
1089.63890	0.83473
1087.71034	0.85221
1085.78177	0.87211
1083.85321	0.89207
1081.92464	0.91035
1079.99608	0.92494
1078.06752	0.93416
1076.13895	0.93841
1074.21039	0.93832
1072.28182	0.93214
1070.35326	0.91967
1068.42469	0.90521
1066.49613	0.89183
1064.56756	0.87943
1062.63900	0.86847
1060.71044	0.85880
1058.78187	0.84883
1056.85331	0.83838
1054.92474	0.82821
1052.99618	0.81881
1051.06761	0.81078
1049.13905	0.80491
1047.21049	0.80220
1045.28192	0.80320
1043.35336	0.80753
1041.42479	0.81428
1039.49623	0.82192
1037.56766	0.82852
1035.63910	0.83277
1033.71053	0.83497
1031.78197	0.83610
1029.85341	0.83536
1027.92484	0.83133
1025.99628	0.82468
1024.06771	0.81719
1022.13915	0.81024
1020.21058	0.80491
1018.28202	0.80154
1016.35345	0.79850
1014.42489	0.79272
1012.49633	0.78242
1010.56776	0.76811
1008.63920	0.75122
1006.71063	0.73301
1004.78207	0.71469
1002.85350	0.69760
1000.92494	0.68262
998.99637	0.66968
997.06781	0.65860
995.13925	0.64906
993.21068	0.63988
991.28212	0.63013
989.35355	0.62009
987.42499	0.61035
985.49642	0.60140
983.56786	0.59401
981.63929	0.58875
979.71073	0.58553
977.78217	0.58362
975.85360	0.58197
973.92504	0.57960
971.99647	0.57567
970.06791	0.56975
968.13934	0.56240
966.21078	0.55511
964.28221	0.54925
962.35365	0.54568
960.42509	0.54543
958.49652	0.54889
956.56796	0.55342
954.63939	0.55460
952.71083	0.55036
950.78226	0.54223
948.85370	0.53314
946.92513	0.52482
944.99657	0.51777
943.06801	0.51238
941.13944	0.50888
939.21088	0.50700
937.28231	0.50636
935.35375	0.50671
933.42518	0.50778
931.49662	0.50934
929.56805	0.51142
927.63949	0.51424
925.71093	0.51782
923.78236	0.52191
921.85380	0.52604
919.92523	0.52944
917.99667	0.53173
916.06810	0.53319
914.13954	0.53439
912.21098	0.53561
910.28241	0.53675
908.35385	0.53809
906.42528	0.53999
904.49672	0.54233
902.56815	0.54458
900.63959	0.54626
898.71102	0.54676
896.78246	0.54574
894.85390	0.54379
892.92533	0.54161
890.99677	0.53920
889.06820	0.53654
887.13964	0.53433
885.21107	0.53311
883.28251	0.53253
881.35394	0.53211
879.42538	0.53187
877.49682	0.53209
875.56825	0.53308
873.63969	0.53461
871.71112	0.53623
869.78256	0.53792
867.85399	0.53962
865.92543	0.54127
863.99686	0.54334
862.06830	0.54584
860.13974	0.54812
858.21117	0.55008
856.28261	0.55228
854.35404	0.55483
852.42548	0.55706
850.49691	0.55844
848.56835	0.55918
846.63978	0.55971
844.71122	0.56046
842.78266	0.56201
840.85409	0.56434
838.92553	0.56700
836.99696	0.56973
835.06840	0.57244
833.13983	0.57545
831.21127	0.57895
829.28270	0.58262
827.35414	0.58607
825.42558	0.58932
823.49701	0.59254
821.56845	0.59549
819.63988	0.59809
817.71132	0.60095
815.78275	0.60408
813.85419	0.60674
811.92562	0.60856
809.99706	0.60925
808.06850	0.60852
806.13993	0.60705
804.21137	0.60608
802.28280	0.60590
800.35424	0.60612
798.42567	0.60658
796.49711	0.60684
794.56854	0.60673
792.63998	0.60708
790.71142	0.60881
788.78285	0.61194
786.85429	0.61558
784.92572	0.61911
782.99716	0.62261
781.06859	0.62639
779.14003	0.63033
777.21147	0.63389
775.28290	0.63697
773.35434	0.63984
771.42577	0.64292
769.49721	0.64621
767.56864	0.64888
765.64008	0.65050
763.71151	0.65149
761.78295	0.65279
759.85439	0.65520
757.92582	0.65804
755.99726	0.66013
754.06869	0.66200
752.14013	0.66477
750.21156	0.66810
748.28300	0.67099
746.35443	0.67322
744.42587	0.67544
742.49731	0.67813
740.56874	0.68079
738.64018	0.68271
736.71161	0.68423
734.78305	0.68608
732.85448	0.68847
730.92592	0.69123
728.99735	0.69354
727.06879	0.69509
725.14023	0.69657
723.21166	0.69817
721.28310	0.69973
719.35453	0.70090
717.42597	0.70108
715.49740	0.70051
713.56884	0.70046
711.64027	0.70178
709.71171	0.70392
707.78315	0.70654
705.85458	0.70986
703.92602	0.71361
701.99745	0.71690
700.06889	0.71875
698.14032	0.71972
696.21176	0.72150
694.28319	0.72409
692.35463	0.72632
690.42607	0.72791
688.49750	0.72906
686.56894	0.73050
684.64037	0.73281
682.71181	0.73462
680.78324	0.73488
678.85468	0.73437
676.92611	0.73311
674.99755	0.73061
673.06899	0.72778
671.14042	0.72580
669.21186	0.72447
667.28329	0.72318
665.35473	0.72308
663.42616	0.72394
661.49760	0.72415
659.56903	0.72351
657.64047	0.72459
655.71191	0.72780
653.78334	0.73118
651.85478	0.73478
649.92621	0.73846
647.99765	0.74125
646.06908	0.74482
644.14052	0.75017
642.21195	0.75489
640.28339	0.75766
638.35483	0.75892
636.42626	0.75804
634.49770	0.75522
632.56913	0.75192
630.64057	0.74824
628.71200	0.74328
626.78344	0.73685
624.85488	0.72969
622.92631	0.72224
620.99775	0.71497
619.06918	0.70905
617.14062	0.70489
615.21205	0.70197
613.28349	0.69951
611.35492	0.69720
609.42636	0.69605
607.49780	0.69789
605.56923	0.70267
603.64067	0.70825
601.71210	0.71470
599.78354	0.72326
