3997.91406	1.14742
3995.98550	1.15139
3994.05693	1.15297
3992.12837	1.15126
3990.19980	1.14974
3988.27124	1.14978
3986.34268	1.14998
3984.41411	1.14876
3982.48555	1.14710
3980.55698	1.14587
3978.62842	1.14328
3976.69985	1.13911
3974.77129	1.13708
3972.84272	1.13925
3970.91416	1.14120
3968.98560	1.13991
3967.05703	1.13865
3965.12847	1.13864
3963.19990	1.13854
3961.27134	1.14037
3959.34277	1.14374
3957.41421	1.14367
3955.48564	1.13979
3953.55708	1.13774
3951.62852	1.14011
3949.69995	1.14278
3947.77139	1.14135
3945.84282	1.13703
3943.91426	1.13354
3941.98569	1.13311
3940.05713	1.13335
3938.12856	1.13231
3936.20000	1.13097
3934.27144	1.13081
3932.34287	1.13313
3930.41431	1.13572
3928.48574	1.13537
3926.55718	1.13350
3924.62861	1.13389
3922.70005	1.13559
3920.77148	1.13508
3918.84292	1.13426
3916.91436	1.13396
3914.98579	1.13229
3913.05723	1.12973
3911.12866	1.12732
3909.20010	1.12637
3907.27153	1.12717
3905.34297	1.12862
3903.41440	1.12906
3901.48584	1.12844
3899.55728	1.12772
3897.62871	1.12533
3895.70015	1.12208
3893.77158	1.12283
3891.84302	1.12972
3889.91445	1.13155
3887.98589	1.12590
3886.05733	1.12175
3884.12876	1.11942
3882.20020	1.11618
3880.27163	1.11571
3878.34307	1.11533
3876.41450	1.11361
3874.48594	1.11388
3872.55737	1.11683
3870.62881	1.12347
3868.70025	1.12697
3866.77168	1.12217
3864.84312	1.11995
3862.91455	1.12402
3860.98599	1.12412
3859.05742	1.12072
3857.12886	1.11651
3855.20029	1.10947
3853.27173	1.10597
3851.34317	1.11148
3849.41460	1.11442
3847.48604	1.11312
3845.55747	1.10992
3843.62891	1.10939
3841.70034	1.11351
3839.77178	1.12046
3837.84321	1.12306
3835.91465	1.11830
3833.98609	1.11621
3832.05752	1.11849
3830.12896	1.12047
3828.20039	1.12168
3826.27183	1.12201
3824.34326	1.11897
3822.41470	1.11540
3820.48613	1.11583
3818.55757	1.11763
3816.62901	1.12289
3814.70044	1.12710
3812.77188	1.12365
3810.84331	1.11759
3808.91475	1.11423
3806.98618	1.11667
3805.05762	1.11920
3803.12905	1.11957
3801.20049	1.12128
3799.27193	1.11959
3797.34336	1.11529
3795.41480	1.11291
3793.48623	1.11308
3791.55767	1.11290
3789.62910	1.11045
3787.70054	1.10800
3785.77197	1.10803
3783.84341	1.10944
3781.91485	1.11057
3779.98628	1.11206
3778.05772	1.11252
3776.12915	1.10960
3774.20059	1.10521
3772.27202	1.10312
3770.34346	1.10577
3768.41489	1.10868
3766.48633	1.10836
3764.55777	1.10672
3762.62920	1.10409
3760.70064	1.10327
3758.77207	1.10694
3756.84351	1.10916
3754.91494	1.10552
3752.98638	1.09819
3751.05781	1.09679
3749.12925	1.10423
3747.20069	1.10850
3745.27212	1.11253
3743.34356	1.11458
3741.41499	1.10984
3739.48643	1.10286
3737.55786	1.09815
3735.62930	1.09859
3733.70074	1.10172
3731.77217	1.10323
3729.84361	1.10229
3727.91504	1.09959
3725.98648	1.09731
3724.05791	1.09752
3722.12935	1.09865
3720.20078	1.09889
3718.27222	1.09927
3716.34366	1.09880
3714.41509	1.09432
3712.48653	1.08933
3710.55796	1.09512
3708.62940	1.10271
3706.70083	1.10311
3704.77227	1.10136
3702.84370	1.10341
3700.91514	1.10783
3698.98658	1.10795
3697.05801	1.10473
3695.12945	1.10042
3693.20088	1.09727
3691.27232	1.09879
3689.34375	1.10620
3687.41519	1.11279
3685.48662	1.11550
3683.55806	1.11644
3681.62950	1.11735
3679.70093	1.11814
3677.77237	1.11916
3675.84380	1.12747
3673.91524	1.13439
3671.98667	1.13188
3670.05811	1.13639
3668.12954	1.14886
3666.20098	1.15489
3664.27242	1.15617
3662.34385	1.15709
3660.41529	1.15958
3658.48672	1.16474
3656.55816	1.17486
3654.62959	1.18222
3652.70103	1.18222
3650.77246	1.18649
3648.84390	1.20581
3646.91534	1.21726
3644.98677	1.21904
3643.05821	1.22097
3641.12964	1.22391
3639.20108	1.22736
3637.27251	1.23298
3635.34395	1.24063
3633.41538	1.24555
3631.48682	1.24488
3629.55826	1.24919
3627.62969	1.26410
3625.70113	1.27330
3623.77256	1.27933
3621.84400	1.28464
3619.91543	1.29044
3617.98687	1.29911
3616.05830	1.30575
3614.12974	1.31185
3612.20118	1.32106
3610.27261	1.33147
3608.34405	1.34161
3606.41548	1.34573
3604.48692	1.34466
3602.55835	1.34793
3600.62979	1.35675
3598.70123	1.36069
3596.77266	1.35948
3594.84410	1.36677
3592.91553	1.38330
3590.98697	1.39513
3589.05840	1.40079
3587.12984	1.40700
3585.20127	1.41445
3583.27271	1.42251
3581.34415	1.42865
3579.41558	1.42856
3577.48702	1.42802
3575.55845	1.43365
3573.62989	1.44183
3571.70132	1.44867
3569.77276	1.45337
3567.84419	1.45787
3565.91563	1.46599
3563.98707	1.47452
3562.05850	1.48208
3560.12994	1.48747
3558.20137	1.48887
3556.27281	1.49000
3554.34424	1.49677
3552.41568	1.50950
3550.48711	1.52292
3548.55855	1.53795
3546.62999	1.55328
3544.70142	1.55684
3542.77286	1.55202
3540.84429	1.55217
3538.91573	1.55781
3536.98716	1.56211
3535.05860	1.56225
3533.13003	1.56360
3531.20147	1.56959
3529.27291	1.57726
3527.34434	1.58650
3525.41578	1.59951
3523.48721	1.61274
3521.55865	1.62064
3519.63008	1.62110
3517.70152	1.61690
3515.77295	1.61451
3513.84439	1.61972
3511.91583	1.63029
3509.98726	1.63794
3508.05870	1.64061
3506.13013	1.64309
3504.20157	1.64727
3502.27300	1.65247
3500.34444	1.66229
3498.41587	1.67624
3496.48731	1.68885
3494.55875	1.70224
3492.63018	1.71399
3490.70162	1.71863
3488.77305	1.72343
3486.84449	1.73064
3484.91592	1.73228
3482.98736	1.72750
3481.05879	1.72062
3479.13023	1.71703
3477.20167	1.72250
3475.27310	1.73386
3473.34454	1.74008
3471.41597	1.74109
3469.48741	1.74334
3467.55884	1.74561
3465.63028	1.74574
3463.70171	1.74442
3461.77315	1.74504
3459.84459	1.75136
3457.91602	1.75969
3455.98746	1.76593
3454.05889	1.76977
3452.13033	1.76906
3450.20176	1.76890
3448.27320	1.77927
3446.34464	1.79356
3444.41607	1.79706
3442.48751	1.79162
3440.55894	1.78521
3438.63038	1.78682
3436.70181	1.79947
3434.77325	1.80768
3432.84468	1.80017
3430.91612	1.78715
3428.98756	1.78035
3427.05899	1.78174
3425.13043	1.78305
3423.20186	1.78053
3421.27330	1.78246
3419.34473	1.78854
3417.41617	1.79441
3415.48760	1.80315
3413.55904	1.80898
3411.63048	1.80625
3409.70191	1.80535
3407.77335	1.80996
3405.84478	1.81143
3403.91622	1.80962
3401.98765	1.80885
3400.05909	1.80747
3398.13052	1.80155
3396.20196	1.79420
3394.27340	1.79764
3392.34483	1.81236
3390.41627	1.82152
3388.48770	1.81727
3386.55914	1.80865
3384.63057	1.80329
3382.70201	1.79962
3380.77344	1.79669
3378.84488	1.79662
3376.91632	1.80033
3374.98775	1.80538
3373.05919	1.80790
3371.13062	1.81035
3369.20206	1.81108
3367.27349	1.80432
3365.34493	1.79812
3363.41636	1.80011
3361.48780	1.80429
3359.55924	1.80442
3357.63067	1.80462
3355.70211	1.81026
3353.77354	1.81780
3351.84498	1.82668
3349.91641	1.83623
3347.98785	1.83503
3346.05928	1.82761
3344.13072	1.83135
3342.20216	1.84208
3340.27359	1.84801
3338.34503	1.85263
3336.41646	1.85468
3334.48790	1.84544
3332.55933	1.83196
3330.63077	1.82520
3328.70220	1.82393
3326.77364	1.82640
3324.84508	1.83510
3322.91651	1.84581
3320.98795	1.85196
3319.05938	1.85464
3317.13082	1.85599
3315.20225	1.85593
3313.27369	1.85536
3311.34513	1.85713
3309.41656	1.85955
3307.48800	1.85899
3305.55943	1.86171
3303.63087	1.86886
3301.70230	1.87394
3299.77374	1.87746
3297.84517	1.88276
3295.91661	1.88830
3293.98805	1.88368
3292.05948	1.86965
3290.13092	1.85884
3288.20235	1.85324
3286.27379	1.85430
3284.34522	1.85876
3282.41666	1.85639
3280.48809	1.85436
3278.55953	1.86090
3276.63097	1.86306
3274.70240	1.85621
3272.77384	1.85313
3270.84527	1.85261
3268.91671	1.84742
3266.98814	1.84263
3265.05958	1.84151
3263.13101	1.83831
3261.20245	1.83321
3259.27389	1.82947
3257.34532	1.82218
3255.41676	1.81081
3253.48819	1.79836
3251.55963	1.78868
3249.63106	1.78869
3247.70250	1.79177
3245.77393	1.78676
3243.84537	1.77568
3241.91681	1.76447
3239.98824	1.75889
3238.05968	1.76095
3236.13111	1.76596
3234.20255	1.76888
3232.27398	1.76363
3230.34542	1.74790
3228.41685	1.73172
3226.48829	1.72347
3224.55973	1.71855
3222.63116	1.71363
3220.70260	1.71310
3218.77403	1.71576
3216.84547	1.71811
3214.91690	1.72192
3212.98834	1.72507
3211.05977	1.72378
3209.13121	1.71749
3207.20265	1.70736
3205.27408	1.69813
3203.34552	1.69106
3201.41695	1.68477
3199.48839	1.68264
3197.55982	1.68403
3195.63126	1.68330
3193.70269	1.68239
3191.77413	1.68202
3189.84557	1.67588
3187.91700	1.66672
3185.98844	1.66201
3184.05987	1.66029
3182.13131	1.65502
3180.20274	1.64552
3178.27418	1.63951
3176.34562	1.63836
3174.41705	1.63651
3172.48849	1.63449
3170.55992	1.63209
3168.63136	1.62700
3166.70279	1.62071
3164.77423	1.61270
3162.84566	1.60108
3160.91710	1.59082
3158.98854	1.58870
3157.05997	1.59186
3155.13141	1.59247
3153.20284	1.58918
3151.27428	1.58409
3149.34571	1.57877
3147.41715	1.57488
3145.48858	1.57295
3143.56002	1.57140
3141.63146	1.56746
3139.70289	1.56182
3137.77433	1.55781
3135.84576	1.55709
3133.91720	1.55963
3131.98863	1.56264
3130.06007	1.56362
3128.13150	1.56232
3126.20294	1.55783
3124.27438	1.55246
3122.34581	1.55033
3120.41725	1.55212
3118.48868	1.55463
3116.56012	1.55390
3114.63155	1.55279
3112.70299	1.55454
3110.77442	1.55481
3108.84586	1.55012
3106.91730	1.54366
3104.98873	1.54244
3103.06017	1.54729
3101.13160	1.55032
3099.20304	1.54771
3097.27447	1.54262
3095.34591	1.53857
3093.41734	1.53725
3091.48878	1.53914
3089.56022	1.54169
3087.63165	1.53913
3085.70309	1.53272
3083.77452	1.52779
3081.84596	1.52508
3079.91739	1.52346
3077.98883	1.52070
3076.06026	1.51860
3074.13170	1.52098
3072.20314	1.52306
3070.27457	1.51816
3068.34601	1.50905
3066.41744	1.50310
3064.48888	1.50141
3062.56031	1.49863
3060.63175	1.49522
3058.70318	1.49482
3056.77462	1.49306
3054.84606	1.48757
3052.91749	1.48191
3050.98893	1.47604
3049.06036	1.47015
3047.13180	1.46466
3045.20323	1.45906
3043.27467	1.45562
3041.34610	1.45457
3039.41754	1.45328
3037.48898	1.45010
3035.56041	1.44438
3033.63185	1.43764
3031.70328	1.43194
3029.77472	1.42761
3027.84615	1.42503
3025.91759	1.42409
3023.98903	1.42265
3022.06046	1.41951
3020.13190	1.41662
3018.20333	1.41570
3016.27477	1.41555
3014.34620	1.41403
3012.41764	1.41021
3010.48907	1.40624
3008.56051	1.40475
3006.63195	1.40399
3004.70338	1.40231
3002.77482	1.40039
3000.84625	1.39790
2998.91769	1.39519
2996.98912	1.39367
2995.06056	1.39428
2993.13199	1.39558
2991.20343	1.39542
2989.27487	1.39607
2987.34630	1.40030
2985.41774	1.40752
2983.48917	1.41558
2981.56061	1.42063
2979.63204	1.42233
2977.70348	1.42506
2975.77491	1.42981
2973.84635	1.43581
2971.91779	1.44433
2969.98922	1.45488
2968.06066	1.46423
2966.13209	1.46836
2964.20353	1.46766
2962.27496	1.46716
2960.34640	1.46790
2958.41783	1.46806
2956.48927	1.46753
2954.56071	1.46481
2952.63214	1.46009
2950.70358	1.45715
2948.77501	1.45587
2946.84645	1.45386
2944.91788	1.45195
2942.98932	1.45197
2941.06075	1.45693
2939.13219	1.46839
2937.20363	1.48226
2935.27506	1.49319
2933.34650	1.49963
2931.41793	1.50497
2929.48937	1.51364
2927.56080	1.52502
2925.63224	1.53457
2923.70367	1.53954
2921.77511	1.54195
2919.84655	1.54417
2917.91798	1.54274
2915.98942	1.53090
2914.06085	1.50816
2912.13229	1.48264
2910.20372	1.46216
2908.27516	1.44778
2906.34659	1.43575
2904.41803	1.42452
2902.48947	1.41528
2900.56090	1.40859
2898.63234	1.40556
2896.70377	1.40426
2894.77521	1.40090
2892.84664	1.39600
2890.91808	1.39082
2888.98952	1.38724
2887.06095	1.38675
2885.13239	1.38594
2883.20382	1.38245
2881.27526	1.37910
2879.34669	1.37765
2877.41813	1.37614
2875.48956	1.37313
2873.56100	1.36915
2871.63244	1.36509
2869.70387	1.36133
2867.77531	1.35709
2865.84674	1.35226
2863.91818	1.34916
2861.98961	1.35055
2860.06105	1.35490
2858.13248	1.35983
2856.20392	1.36813
2854.27536	1.38075
2852.34679	1.39308
2850.41823	1.39768
2848.48966	1.38711
2846.56110	1.36255
2844.63253	1.33363
2842.70397	1.30862
2840.77540	1.29033
2838.84684	1.27788
2836.91828	1.26940
2834.98971	1.26259
2833.06115	1.25615
2831.13258	1.25018
2829.20402	1.24456
2827.27545	1.23967
2825.34689	1.23632
2823.41832	1.23437
2821.48976	1.23372
2819.56120	1.23340
2817.63263	1.23127
2815.70407	1.22756
2813.77550	1.22439
2811.84694	1.22171
2809.91837	1.21798
2807.98981	1.21364
2806.06124	1.21028
2804.13268	1.20808
2802.20412	1.20597
2800.27555	1.20280
2798.34699	1.19907
2796.41842	1.19654
2794.48986	1.19501
2792.56129	1.19324
2790.63273	1.19104
2788.70416	1.18846
2786.77560	1.18648
2784.84704	1.18590
2782.91847	1.18514
2780.98991	1.18324
2779.06134	1.18120
2777.13278	1.17966
2775.20421	1.17811
2773.27565	1.17594
2771.34708	1.17395
2769.41852	1.17303
2767.48996	1.17283
2765.56139	1.17255
2763.63283	1.17175
2761.70426	1.17147
2759.77570	1.17234
2757.84713	1.17258
2755.91857	1.17117
2753.99001	1.16967
2752.06144	1.16890
2750.13288	1.16777
2748.20431	1.16535
2746.27575	1.16151
2744.34718	1.15714
2742.41862	1.15360
2740.49005	1.15189
2738.56149	1.15138
2736.63293	1.14995
2734.70436	1.14699
2732.77580	1.14306
2730.84723	1.13919
2728.91867	1.13651
2726.99010	1.13428
2725.06154	1.13188
2723.13297	1.12970
2721.20441	1.12778
2719.27585	1.12581
2717.34728	1.12347
2715.41872	1.12154
2713.49015	1.12014
2711.56159	1.11796
2709.63302	1.11572
2707.70446	1.11470
2705.77589	1.11353
2703.84733	1.11097
2701.91877	1.10821
2699.99020	1.10654
2698.06164	1.10550
2696.13307	1.10359
2694.20451	1.10088
2692.27594	1.09902
2690.34738	1.09836
2688.41881	1.09763
2686.49025	1.09568
2684.56169	1.09256
2682.63312	1.08949
2680.70456	1.08752
2678.77599	1.08651
2676.84743	1.08572
2674.91886	1.08468
2672.99030	1.08266
2671.06173	1.07927
2669.13317	1.07627
2667.20461	1.07537
2665.27604	1.07527
2663.34748	1.07425
2661.41891	1.07309
2659.49035	1.07230
2657.56178	1.07058
2655.63322	1.06798
2653.70465	1.06628
2651.77609	1.06611
2649.84753	1.06666
2647.91896	1.06754
2645.99040	1.06860
2644.06183	1.06887
2642.13327	1.06825
2640.20470	1.06784
2638.27614	1.06770
2636.34757	1.06758
2634.41901	1.06807
2632.49045	1.06850
2630.56188	1.06779
2628.63332	1.06663
2626.70475	1.06610
2624.77619	1.06622
2622.84762	1.06608
2620.91906	1.06505
2618.99049	1.06347
2617.06193	1.06178
2615.13337	1.05980
2613.20480	1.05716
2611.27624	1.05449
2609.34767	1.05254
2607.41911	1.05078
2605.49054	1.04898
2603.56198	1.04744
2601.63342	1.04603
2599.70485	1.04441
2597.77629	1.04218
2595.84772	1.03932
2593.91916	1.03677
2591.99059	1.03475
2590.06203	1.03261
2588.13346	1.03084
2586.20490	1.02998
2584.27634	1.02886
2582.34777	1.02675
2580.41921	1.02448
2578.49064	1.02287
2576.56208	1.02187
2574.63351	1.02058
2572.70495	1.01855
2570.77638	1.01665
2568.84782	1.01529
2566.91926	1.01358
2564.99069	1.01123
2563.06213	1.00902
2561.13356	1.00750
2559.20500	1.00626
2557.27643	1.00444
2555.34787	1.00212
2553.41930	0.99998
2551.49074	0.99828
2549.56218	0.99674
2547.63361	0.99508
2545.70505	0.99352
2543.77648	0.99203
2541.84792	0.99021
2539.91935	0.98829
2537.99079	0.98654
2536.06222	0.98486
2534.13366	0.98334
2532.20510	0.98190
2530.27653	0.98027
2528.34797	0.97875
2526.41940	0.97760
2524.49084	0.97657
2522.56227	0.97576
2520.63371	0.97527
2518.70514	0.97477
2516.77658	0.97420
2514.84802	0.97356
2512.91945	0.97256
2510.99089	0.97145
2509.06232	0.97119
2507.13376	0.97165
2505.20519	0.97177
2503.27663	0.97145
2501.34806	0.97093
2499.41950	0.96983
2497.49094	0.96835
2495.56237	0.96699
2493.63381	0.96567
2491.70524	0.96447
2489.77668	0.96335
2487.84811	0.96194
2485.91955	0.96004
2483.99098	0.95807
2482.06242	0.95650
2480.13386	0.95547
2478.20529	0.95493
2476.27673	0.95420
2474.34816	0.95240
2472.41960	0.94965
2470.49103	0.94718
2468.56247	0.94588
2466.63391	0.94515
2464.70534	0.94424
2462.77678	0.94345
2460.84821	0.94296
2458.91965	0.94251
2456.99108	0.94196
2455.06252	0.94140
2453.13395	0.94081
2451.20539	0.94006
2449.27683	0.93932
2447.34826	0.93896
2445.41970	0.93888
2443.49113	0.93854
2441.56257	0.93788
2439.63400	0.93702
2437.70544	0.93591
2435.77687	0.93463
2433.84831	0.93334
2431.91975	0.93237
2429.99118	0.93164
2428.06262	0.93034
2426.13405	0.92852
2424.20549	0.92697
2422.27692	0.92576
2420.34836	0.92486
2418.41979	0.92436
2416.49123	0.92334
2414.56267	0.92118
2412.63410	0.91895
2410.70554	0.91762
2408.77697	0.91658
2406.84841	0.91478
2404.91984	0.91185
2402.99128	0.90833
2401.06271	0.90541
2399.13415	0.90342
2397.20559	0.90189
2395.27702	0.90020
2393.34846	0.89786
2391.41989	0.89534
2389.49133	0.89301
2387.56276	0.89056
2385.63420	0.88815
2383.70563	0.88580
2381.77707	0.88299
2379.84851	0.88033
2377.91994	0.87877
2375.99138	0.87686
2374.06281	0.87259
2372.13425	0.86684
2370.20568	0.86210
2368.27712	0.86026
2366.34855	0.86042
2364.41999	0.85989
2362.49143	0.85839
2360.56286	0.85575
2358.63430	0.85437
2356.70573	0.85699
2354.77717	0.86149
2352.84860	0.86730
2350.92004	0.87098
2348.99147	0.86956
2347.06291	0.86411
2345.13435	0.85736
2343.20578	0.85433
2341.27722	0.85644
2339.34865	0.85869
2337.42009	0.85965
2335.49152	0.86162
2333.56296	0.86329
2331.63440	0.86307
2329.70583	0.86207
2327.77727	0.86127
2325.84870	0.86122
2323.92014	0.86165
2321.99157	0.86251
2320.06301	0.86364
2318.13444	0.86362
2316.20588	0.86288
2314.27732	0.86290
2312.34875	0.86351
2310.42019	0.86403
2308.49162	0.86421
2306.56306	0.86437
2304.63449	0.86476
2302.70593	0.86510
2300.77736	0.86546
2298.84880	0.86576
2296.92024	0.86536
2294.99167	0.86443
2293.06311	0.86373
2291.13454	0.86330
2289.20598	0.86270
2287.27741	0.86189
2285.34885	0.86121
2283.42028	0.86055
2281.49172	0.85950
2279.56316	0.85841
2277.63459	0.85774
2275.70603	0.85714
2273.77746	0.85642
2271.84890	0.85579
2269.92033	0.85494
2267.99177	0.85349
2266.06320	0.85196
2264.13464	0.85074
2262.20608	0.84972
2260.27751	0.84900
2258.34895	0.84819
2256.42038	0.84687
2254.49182	0.84544
2252.56325	0.84422
2250.63469	0.84264
2248.70612	0.84058
2246.77756	0.83890
2244.84900	0.83783
2242.92043	0.83682
2240.99187	0.83589
2239.06330	0.83521
2237.13474	0.83447
2235.20617	0.83370
2233.27761	0.83311
2231.34904	0.83263
2229.42048	0.83192
2227.49192	0.83073
2225.56335	0.82964
2223.63479	0.82931
2221.70622	0.82944
2219.77766	0.82948
2217.84909	0.82907
2215.92053	0.82836
2213.99196	0.82766
2212.06340	0.82675
2210.13484	0.82585
2208.20627	0.82549
2206.27771	0.82538
2204.34914	0.82481
2202.42058	0.82397
2200.49201	0.82356
2198.56345	0.82355
2196.63488	0.82359
2194.70632	0.82351
2192.77776	0.82313
2190.84919	0.82279
2188.92063	0.82286
2186.99206	0.82287
2185.06350	0.82265
2183.13493	0.82265
2181.20637	0.82293
2179.27781	0.82334
2177.34924	0.82400
2175.42068	0.82472
2173.49211	0.82540
2171.56355	0.82629
2169.63498	0.82723
2167.70642	0.82774
2165.77785	0.82809
2163.84929	0.82880
2161.92073	0.82958
2159.99216	0.82991
2158.06360	0.82993
2156.13503	0.82965
2154.20647	0.82902
2152.27790	0.82843
2150.34934	0.82809
2148.42077	0.82774
2146.49221	0.82682
2144.56365	0.82535
2142.63508	0.82399
2140.70652	0.82288
2138.77795	0.82161
2136.84939	0.82011
2134.92082	0.81881
2132.99226	0.81788
2131.06369	0.81679
2129.13513	0.81510
2127.20657	0.81322
2125.27800	0.81162
2123.34944	0.81021
2121.42087	0.80907
2119.49231	0.80814
2117.56374	0.80710
2115.63518	0.80590
2113.70661	0.80454
2111.77805	0.80309
2109.84949	0.80179
2107.92092	0.80072
2105.99236	0.79953
2104.06379	0.79801
2102.13523	0.79644
2100.20666	0.79509
2098.27810	0.79392
2096.34953	0.79250
2094.42097	0.79056
2092.49241	0.78874
2090.56384	0.78747
2088.63528	0.78626
2086.70671	0.78480
2084.77815	0.78317
2082.84958	0.78148
2080.92102	0.77991
2078.99245	0.77853
2077.06389	0.77729
2075.13533	0.77619
2073.20676	0.77515
2071.27820	0.77407
2069.34963	0.77318
2067.42107	0.77260
2065.49250	0.77195
2063.56394	0.77098
2061.63537	0.76975
2059.70681	0.76841
2057.77825	0.76737
2055.84968	0.76708
2053.92112	0.76704
2051.99255	0.76663
2050.06399	0.76616
2048.13542	0.76601
2046.20686	0.76597
2044.27830	0.76590
2042.34973	0.76593
2040.42117	0.76604
2038.49260	0.76603
2036.56404	0.76591
2034.63547	0.76571
2032.70691	0.76524
2030.77834	0.76448
2028.84978	0.76367
2026.92122	0.76273
2024.99265	0.76135
2023.06409	0.75991
2021.13552	0.75871
2019.20696	0.75762
2017.27839	0.75676
2015.34983	0.75606
2013.42126	0.75490
2011.49270	0.75311
2009.56414	0.75134
2007.63557	0.75007
2005.70701	0.74889
2003.77844	0.74739
2001.84988	0.74580
1999.92131	0.74425
1997.99275	0.74253
1996.06418	0.74078
1994.13562	0.73928
1992.20706	0.73811
1990.27849	0.73697
1988.34993	0.73562
1986.42136	0.73429
1984.49280	0.73331
1982.56423	0.73257
1980.63567	0.73164
1978.70710	0.73051
1976.77854	0.72948
1974.84998	0.72851
1972.92141	0.72730
1970.99285	0.72569
1969.06428	0.72403
1967.13572	0.72273
1965.20715	0.72153
1963.27859	0.71998
1961.35002	0.71824
1959.42146	0.71656
1957.49290	0.71501
1955.56433	0.71351
1953.63577	0.71211
1951.70720	0.71111
1949.77864	0.71042
1947.85007	0.70941
1945.92151	0.70796
1943.99294	0.70677
1942.06438	0.70611
1940.13582	0.70513
1938.20725	0.70379
1936.27869	0.70291
1934.35012	0.70255
1932.42156	0.70202
1930.49299	0.70120
1928.56443	0.70061
1926.63586	0.70023
1924.70730	0.69977
1922.77874	0.69915
1920.85017	0.69816
1918.92161	0.69728
1916.99304	0.69698
1915.06448	0.69644
1913.13591	0.69543
1911.20735	0.69466
1909.27878	0.69437
1907.35022	0.69416
1905.42166	0.69360
1903.49309	0.69274
1901.56453	0.69176
1899.63596	0.69082
1897.70740	0.69022
1895.77883	0.69013
1893.85027	0.68976
1891.92171	0.68880
1889.99314	0.68804
1888.06458	0.68739
1886.13601	0.68645
1884.20745	0.68561
1882.27888	0.68493
1880.35032	0.68425
1878.42175	0.68341
1876.49319	0.68220
1874.56463	0.68063
1872.63606	0.67897
1870.70750	0.67763
1868.77893	0.67696
1866.85037	0.67613
1864.92180	0.67441
1862.99324	0.67266
1861.06467	0.67138
1859.13611	0.67030
1857.20755	0.66911
1855.27898	0.66780
1853.35042	0.66639
1851.42185	0.66486
1849.49329	0.66324
1847.56472	0.66144
1845.63616	0.65986
1843.70759	0.65889
1841.77903	0.65764
1839.85047	0.65607
1837.92190	0.65487
1835.99334	0.65384
1834.06477	0.65242
1832.13621	0.65110
1830.20764	0.65061
1828.27908	0.65037
1826.35051	0.64975
1824.42195	0.64947
1822.49339	0.64952
1820.56482	0.64939
1818.63626	0.64918
1816.70769	0.64905
1814.77913	0.64907
1812.85056	0.64931
1810.92200	0.64963
1808.99343	0.64949
1807.06487	0.64905
1805.13631	0.64877
1803.20774	0.64882
1801.27918	0.64943
1799.35061	0.64996
1797.42205	0.64971
1795.49348	0.64928
1793.56492	0.64991
1791.63635	0.65187
1789.70779	0.65270
1787.77923	0.65239
1785.85066	0.65229
1783.92210	0.65255
1781.99353	0.65307
1780.06497	0.65391
1778.13640	0.65429
1776.20784	0.65390
1774.27927	0.65393
1772.35071	0.65587
1770.42215	0.65829
1768.49358	0.65971
1766.56502	0.66073
1764.63645	0.66147
1762.70789	0.66294
1760.77932	0.66564
1758.85076	0.66847
1756.92220	0.67234
1754.99363	0.67634
1753.06507	0.67982
1751.13650	0.68614
1749.20794	0.69639
1747.27937	0.70575
1745.35081	0.71321
1743.42224	0.72023
1741.49368	0.72724
1739.56512	0.73405
1737.63655	0.73844
1735.70799	0.74170
1733.77942	0.74926
1731.85086	0.75682
1729.92229	0.76152
1727.99373	0.76635
1726.06516	0.77166
1724.13660	0.77883
1722.20804	0.78625
1720.27947	0.79257
1718.35091	0.80375
1716.42234	0.82491
1714.49378	0.84125
1712.56521	0.85188
1710.63665	0.86323
1708.70808	0.87724
1706.77952	0.89887
1704.85096	0.92810
1702.92239	0.95396
1700.99383	0.98959
1699.06526	1.04844
1697.13670	1.10734
1695.20813	1.16593
1693.27957	1.20672
1691.35100	1.23695
1689.42244	1.27502
1687.49388	1.31139
1685.56531	1.34847
1683.63675	1.40913
1681.70818	1.45416
1679.77962	1.47917
1677.85105	1.50269
1675.92249	1.53140
1673.99392	1.56153
1672.06536	1.58373
1670.13680	1.60819
1668.20823	1.63632
1666.27967	1.65149
1664.35110	1.66236
1662.42254	1.67865
1660.49397	1.69357
1658.56541	1.70076
1656.63684	1.70250
1654.70828	1.70286
1652.77972	1.70258
1650.85115	1.70206
1648.92259	1.70336
1646.99402	1.70627
1645.06546	1.70488
1643.13689	1.69907
1641.20833	1.69433
1639.27976	1.69110
1637.35120	1.69102
1635.42264	1.69257
1633.49407	1.68700
1631.56551	1.67990
1629.63694	1.67319
1627.70838	1.66558
1625.77981	1.65638
1623.85125	1.64520
1621.92269	1.63077
1619.99412	1.61546
1618.06556	1.59422
1616.13699	1.56085
1614.20843	1.53425
1612.27986	1.51449
1610.35130	1.49186
1608.42273	1.46654
1606.49417	1.44529
1604.56561	1.42984
1602.63704	1.41734
1600.70848	1.40757
1598.77991	1.40061
1596.85135	1.39586
1594.92278	1.39264
1592.99422	1.39037
1591.06565	1.38980
1589.13709	1.39204
1587.20853	1.39751
1585.27996	1.40527
1583.35140	1.41434
1581.42283	1.42443
1579.49427	1.43445
1577.56570	1.44744
1575.63714	1.46722
1573.70857	1.47895
1571.78001	1.48545
1569.85145	1.50163
1567.92288	1.52132
1565.99432	1.53223
1564.06575	1.54012
1562.13719	1.54482
1560.20862	1.55301
1558.28006	1.58585
1556.35149	1.60105
1554.42293	1.59941
1552.49437	1.59784
1550.56580	1.59695
1548.63724	1.59424
1546.70867	1.59085
1544.78011	1.58791
1542.85154	1.58334
1540.92298	1.57773
1538.99441	1.57408
1537.06585	1.56999
1535.13729	1.56583
1533.20872	1.56264
1531.28016	1.55871
1529.35159	1.55423
1527.42303	1.54910
1525.49446	1.54222
1523.56590	1.53590
1521.63733	1.53235
1519.70877	1.53160
1517.78021	1.52808
1515.85164	1.51912
1513.92308	1.50691
1511.99451	1.49250
1510.06595	1.47827
1508.13738	1.46107
1506.20882	1.42590
1504.28025	1.39906
1502.35169	1.38123
1500.42313	1.36383
1498.49456	1.34355
1496.56600	1.31929
1494.63743	1.29886
1492.70887	1.28354
1490.78030	1.26635
1488.85174	1.24602
1486.92317	1.23117
1484.99461	1.22091
1483.06605	1.21260
1481.13748	1.20695
1479.20892	1.20555
1477.28035	1.20860
1475.35179	1.21603
1473.42322	1.23170
1471.49466	1.25245
1469.56610	1.26437
1467.63753	1.27133
1465.70897	1.28036
1463.78040	1.28949
1461.85184	1.29191
1459.92327	1.29122
1457.99471	1.29721
1456.06614	1.30873
1454.13758	1.31029
1452.20902	1.30798
1450.28045	1.30492
1448.35189	1.30140
1446.42332	1.29733
1444.49476	1.29235
1442.56619	1.28638
1440.63763	1.27993
1438.70906	1.27233
1436.78050	1.26011
1434.85194	1.24624
1432.92337	1.23595
1430.99481	1.22670
1429.06624	1.21732
1427.13768	1.20936
1425.20911	1.20370
1423.28055	1.20079
1421.35198	1.20005
1419.42342	1.20225
1417.49486	1.20704
1415.56629	1.20935
1413.63773	1.20944
1411.70916	1.20988
1409.78060	1.21138
1407.85203	1.21263
1405.92347	1.21447
1403.99490	1.21799
1402.06634	1.22105
1400.13778	1.22335
1398.20921	1.22541
1396.28065	1.22688
1394.35208	1.22821
1392.42352	1.22923
1390.49495	1.23017
1388.56639	1.23278
1386.63782	1.23905
1384.70926	1.24727
1382.78070	1.25436
1380.85213	1.25868
1378.92357	1.25917
1376.99500	1.25569
1375.06644	1.24774
1373.13787	1.23526
1371.20931	1.22122
1369.28074	1.20574
1367.35218	1.18878
1365.42362	1.17301
1363.49505	1.15777
1361.56649	1.14319
1359.63792	1.13292
1357.70936	1.12658
1355.78079	1.12202
1353.85223	1.11833
1351.92366	1.11516
1349.99510	1.11217
1348.06654	1.10988
1346.13797	1.10902
1344.20941	1.10936
1342.28084	1.11040
1340.35228	1.11224
1338.42371	1.11461
1336.49515	1.11754
1334.56659	1.12194
1332.63802	1.12822
1330.70946	1.13595
1328.78089	1.14352
1326.85233	1.14931
1324.92376	1.15360
1322.99520	1.15768
1321.06663	1.16228
1319.13807	1.16736
1317.20951	1.17214
1315.28094	1.17612
1313.35238	1.17985
1311.42381	1.18359
1309.49525	1.18700
1307.56668	1.18941
1305.63812	1.19006
1303.70955	1.18970
1301.78099	1.18980
1299.85243	1.19013
1297.92386	1.18942
1295.99530	1.18791
1294.06673	1.18665
1292.13817	1.18552
1290.20960	1.18438
1288.28104	1.18399
1286.35247	1.18411
1284.42391	1.18352
1282.49535	1.18214
1280.56678	1.18099
1278.63822	1.18038
1276.70965	1.17976
1274.78109	1.17984
1272.85252	1.18205
1270.92396	1.18601
1268.99539	1.19064
1267.06683	1.19544
1265.13827	1.19996
1263.20970	1.20346
1261.28114	1.20536
1259.35257	1.20630
1257.42401	1.20694
1255.49544	1.20736
1253.56688	1.20804
1251.63831	1.20899
1249.70975	1.20947
1247.78119	1.20925
1245.85262	1.20859
1243.92406	1.20719
1241.99549	1.20453
1240.06693	1.20093
1238.13836	1.19680
1236.20980	1.19138
1234.28123	1.18407
1232.35267	1.17582
1230.42411	1.16703
1228.49554	1.15702
1226.56698	1.14606
1224.63841	1.13475
1222.70985	1.12330
1220.78128	1.11240
1218.85272	1.10256
1216.92415	1.09387
1214.99559	1.08694
1213.06703	1.08183
1211.13846	1.07815
1209.20990	1.07608
1207.28133	1.07465
1205.35277	1.07169
1203.42420	1.06620
1201.49564	1.05884
1199.56708	1.05065
1197.63851	1.04257
1195.70995	1.03556
1193.78138	1.02985
1191.85282	1.02524
1189.92425	1.02188
1187.99569	1.02004
1186.06712	1.01995
1184.13856	1.02139
1182.21000	1.02406
1180.28143	1.02832
1178.35287	1.03438
1176.42430	1.04139
1174.49574	1.04807
1172.56717	1.05475
1170.63861	1.06286
1168.71004	1.07225
1166.78148	1.08251
1164.85292	1.09485
1162.92435	1.10870
1160.99579	1.12018
1159.06722	1.12601
1157.13866	1.12575
1155.21009	1.11984
1153.28153	1.10883
1151.35296	1.09435
1149.42440	1.07896
1147.49584	1.06480
1145.56727	1.05307
1143.63871	1.04460
1141.71014	1.03976
1139.78158	1.03845
1137.85301	1.04015
1135.92445	1.04383
1133.99588	1.04976
1132.06732	1.05959
1130.13876	1.07337
1128.21019	1.08848
1126.28163	1.10274
1124.35306	1.11654
1122.42450	1.12949
1120.49593	1.13927
1118.56737	1.14510
1116.63880	1.14791
1114.71024	1.14848
1112.78168	1.14700
1110.85311	1.14335
1108.92455	1.13758
1106.99598	1.12970
1105.06742	1.12114
1103.13885	1.11509
1101.21029	1.11213
1099.28172	1.11012
1097.35316	1.10948
1095.42460	1.11210
1093.49603	1.11707
1091.56747	1.12276
1089.63890	1.12935
1087.71034	1.13735
1085.78177	1.14755
1083.85321	1.15975
1081.92464	1.17076
1079.99608	1.17790
1078.06752	1.18066
1076.13895	1.17842
1074.21039	1.17157
1072.28182	1.16167
1070.35326	1.14963
1068.42469	1.13656
1066.49613	1.12371
1064.56756	1.11159
1062.63900	1.10031
1060.71044	1.08926
1058.78187	1.07812
1056.85331	1.06731
1054.92474	1.05692
1052.99618	1.04786
1051.06761	1.04164
1049.13905	1.03825
1047.21049	1.03730
1045.28192	1.03906
1043.35336	1.04392
1041.42479	1.05087
1039.49623	1.05656
1037.56766	1.05929
1035.63910	1.06016
1033.71053	1.05962
1031.78197	1.05746
1029.85341	1.05361
1027.92484	1.04807
1025.99628	1.04118
1024.06771	1.03334
1022.13915	1.02534
1020.21058	1.01823
1018.28202	1.01260
1016.35345	1.00777
1014.42489	1.00164
1012.49633	0.99296
1010.56776	0.98235
1008.63920	0.97010
1006.71063	0.95691
1004.78207	0.94496
1002.85350	0.93540
1000.92494	0.92790
998.99637	0.92220
997.06781	0.91827
995.13925	0.91575
993.21068	0.91373
991.28212	0.91151
989.35355	0.90976
987.42499	0.90922
985.49642	0.90960
983.56786	0.91111
981.63929	0.91465
979.71073	0.91985
977.78217	0.92511
975.85360	0.92923
973.92504	0.93150
971.99647	0.93113
970.06791	0.92839
968.13934	0.92450
966.21078	0.91996
964.28221	0.91502
962.35365	0.91090
960.42509	0.90976
958.49652	0.91242
956.56796	0.91591
954.63939	0.91577
952.71083	0.91002
950.78226	0.89945
948.85370	0.88664
946.92513	0.87425
944.99657	0.86342
943.06801	0.85435
941.13944	0.84703
939.21088	0.84084
937.28231	0.83518
935.35375	0.83028
933.42518	0.82624
931.49662	0.82289
929.56805	0.82059
927.63949	0.81973
925.71093	0.81976
923.78236	0.82022
921.85380	0.82119
919.92523	0.82233
917.99667	0.82323
916.06810	0.82395
914.13954	0.82464
912.21098	0.82600
910.28241	0.82868
908.35385	0.83230
906.42528	0.83672
904.49672	0.84211
902.56815	0.84809
900.63959	0.85394
898.71102	0.85879
896.78246	0.86193
894.85390	0.86377
892.92533	0.86507
890.99677	0.86583
889.06820	0.86608
887.13964	0.86626
885.21107	0.86640
883.28251	0.86647
881.35394	0.86643
879.42538	0.86611
877.49682	0.86612
875.56825	0.86698
873.63969	0.86813
871.71112	0.86929
869.78256	0.87094
867.85399	0.87321
865.92543	0.87585
863.99686	0.87939
862.06830	0.88457
860.13974	0.89088
858.21117	0.89765
856.28261	0.90495
854.35404	0.91248
852.42548	0.91990
850.49691	0.92733
848.56835	0.93469
846.63978	0.94195
844.71122	0.94966
842.78266	0.95806
840.85409	0.96625
838.92553	0.97327
836.99696	0.97914
835.06840	0.98430
833.13983	0.98869
831.21127	0.99190
829.28270	0.99411
827.35414	0.99567
825.42558	0.99692
823.49701	0.99795
821.56845	0.99744
819.63988	0.99449
817.71132	0.99055
815.78275	0.98725
813.85419	0.98474
811.92562	0.98211
809.99706	0.97890
808.06850	0.97509
806.13993	0.97039
804.21137	0.96579
802.28280	0.96258
800.35424	0.96030
798.42567	0.95801
796.49711	0.95568
794.56854	0.95435
792.63998	0.95510
790.71142	0.95737
788.78285	0.96009
786.85429	0.96298
784.92572	0.96636
782.99716	0.97071
781.06859	0.97588
779.14003	0.98079
777.21147	0.98485
775.28290	0.98895
773.35434	0.99309
771.42577	0.99616
769.49721	0.99900
767.56864	1.00316
765.64008	1.00815
763.71151	1.01241
761.78295	1.01527
759.85439	1.01717
757.92582	1.01816
755.99726	1.01889
754.06869	1.02040
752.14013	1.02154
750.21156	1.02090
748.28300	1.01934
746.35443	1.01766
744.42587	1.01568
742.49731	1.01373
740.56874	1.01212
738.64018	1.01099
736.71161	1.01107
734.78305	1.01272
732.85448	1.01538
730.92592	1.01851
728.99735	1.02184
727.06879	1.02560
725.14023	1.03096
723.21166	1.03861
721.28310	1.04800
719.35453	1.05731
717.42597	1.06423
715.49740	1.06928
713.56884	1.07488
711.64027	1.08146
709.71171	1.08796
707.78315	1.09399
705.85458	1.09980
703.92602	1.10506
701.99745	1.10934
700.06889	1.11243
698.14032	1.11386
696.21176	1.11382
694.28319	1.11350
692.35463	1.11361
690.42607	1.11236
688.49750	1.10765
686.56894	1.10114
684.64037	1.09567
682.71181	1.09116
680.78324	1.08563
678.85468	1.07877
676.92611	1.07136
674.99755	1.06351
673.06899	1.05726
671.14042	1.05430
669.21186	1.05368
667.28329	1.05386
665.35473	1.05300
663.42616	1.05072
661.49760	1.04698
659.56903	1.04278
657.64047	1.04016
655.71191	1.04070
653.78334	1.04370
651.85478	1.04686
649.92621	1.04924
647.99765	1.05029
646.06908	1.05069
644.14052	1.05235
642.21195	1.05513
640.28339	1.05882
638.35483	1.06278
636.42626	1.06426
634.49770	1.06303
632.56913	1.06195
630.64057	1.06235
628.71200	1.06312
626.78344	1.06333
624.85488	1.06273
622.92631	1.06108
620.99775	1.05833
619.06918	1.05488
617.14062	1.05155
615.21205	1.04906
613.28349	1.04744
611.35492	1.04548
609.42636	1.04170
607.49780	1.03698
605.56923	1.03475
603.64067	1.03658
601.71210	1.03964
599.78354	1.04136
