3997.91406	1.04260
3995.98550	1.03964
3994.05693	1.03651
3992.12837	1.03447
3990.19980	1.03439
3988.27124	1.03561
3986.34268	1.03596
3984.41411	1.03473
3982.48555	1.03396
3980.55698	1.03484
3978.62842	1.03514
3976.69985	1.03348
3974.77129	1.03207
3972.84272	1.03271
3970.91416	1.03355
3968.98560	1.03349
3967.05703	1.03378
3965.12847	1.03413
3963.19990	1.03462
3961.27134	1.03552
3959.34277	1.03430
3957.41421	1.03083
3955.48564	1.02828
3953.55708	1.02702
3951.62852	1.02543
3949.69995	1.02462
3947.77139	1.02552
3945.84282	1.02592
3943.91426	1.02511
3941.98569	1.02382
3940.05713	1.02217
3938.12856	1.02024
3936.20000	1.01767
3934.27144	1.01524
3932.34287	1.01522
3930.41431	1.01675
3928.48574	1.01640
3926.55718	1.01486
3924.62861	1.01508
3922.70005	1.01533
3920.77148	1.01306
3918.84292	1.01156
3916.91436	1.01297
3914.98579	1.01367
3913.05723	1.01223
3911.12866	1.00949
3909.20010	1.00562
3907.27153	1.00279
3905.34297	1.00362
3903.41440	1.00465
3901.48584	1.00414
3899.55728	1.00669
3897.62871	1.00848
3895.70015	1.00693
3893.77158	1.00620
3891.84302	1.00938
3889.91445	1.01050
3887.98589	1.00685
3886.05733	1.00276
3884.12876	0.99942
3882.20020	0.99815
3880.27163	1.00062
3878.34307	1.00024
3876.41450	0.99734
3874.48594	0.99642
3872.55737	0.99421
3870.62881	0.99093
3868.70025	0.98986
3866.77168	0.98730
3864.84312	0.98789
3862.91455	0.99445
3860.98599	0.99604
3859.05742	0.99132
3857.12886	0.98458
3855.20029	0.97883
3853.27173	0.98262
3851.34317	0.98943
3849.41460	0.98997
3847.48604	0.98945
3845.55747	0.99011
3843.62891	0.99107
3841.70034	0.98966
3839.77178	0.98578
3837.84321	0.98474
3835.91465	0.98671
3833.98609	0.98587
3832.05752	0.98242
3830.12896	0.97940
3828.20039	0.97840
3826.27183	0.97898
3824.34326	0.97742
3822.41470	0.97366
3820.48613	0.97453
3818.55757	0.97964
3816.62901	0.98347
3814.70044	0.98159
3812.77188	0.97729
3810.84331	0.97492
3808.91475	0.97371
3806.98618	0.97224
3805.05762	0.96859
3803.12905	0.96596
3801.20049	0.96941
3799.27193	0.97281
3797.34336	0.97507
3795.41480	0.97528
3793.48623	0.97088
3791.55767	0.96803
3789.62910	0.96931
3787.70054	0.97043
3785.77197	0.97034
3783.84341	0.97063
3781.91485	0.97055
3779.98628	0.97088
3778.05772	0.97151
3776.12915	0.97008
3774.20059	0.96781
3772.27202	0.96838
3770.34346	0.97264
3768.41489	0.97250
3766.48633	0.96781
3764.55777	0.96569
3762.62920	0.96397
3760.70064	0.96172
3758.77207	0.96246
3756.84351	0.96375
3754.91494	0.96352
3752.98638	0.96409
3751.05781	0.96619
3749.12925	0.96411
3747.20069	0.96099
3745.27212	0.96605
3743.34356	0.97340
3741.41499	0.97047
3739.48643	0.96352
3737.55786	0.96002
3735.62930	0.96335
3733.70074	0.96647
3731.77217	0.96509
3729.84361	0.96281
3727.91504	0.96071
3725.98648	0.95879
3724.05791	0.95740
3722.12935	0.95750
3720.20078	0.95907
3718.27222	0.95948
3716.34366	0.95752
3714.41509	0.95490
3712.48653	0.95546
3710.55796	0.96069
3708.62940	0.96238
3706.70083	0.96012
3704.77227	0.95731
3702.84370	0.95614
3700.91514	0.95668
3698.98658	0.95626
3697.05801	0.95628
3695.12945	0.95742
3693.20088	0.95740
3691.27232	0.95893
3689.34375	0.96694
3687.41519	0.97179
3685.48662	0.97089
3683.55806	0.97033
3681.62950	0.97208
3679.70093	0.97437
3677.77237	0.97671
3675.84380	0.98520
3673.91524	0.99122
3671.98667	0.98969
3670.05811	0.99465
3668.12954	1.00275
3666.20098	1.00446
3664.27242	1.00545
3662.34385	1.00954
3660.41529	1.01530
3658.48672	1.02147
3656.55816	1.03029
3654.62959	1.03599
3652.70103	1.03474
3650.77246	1.03674
3648.84390	1.05622
3646.91534	1.07409
3644.98677	1.08040
3643.05821	1.08425
3641.12964	1.08969
3639.20108	1.09637
3637.27251	1.10267
3635.34395	1.10950
3633.41538	1.11617
3631.48682	1.11955
3629.55826	1.12765
3627.62969	1.14421
3625.70113	1.15145
3623.77256	1.15195
3621.84400	1.15238
3619.91543	1.16006
3617.98687	1.17343
3616.05830	1.18155
3614.12974	1.18785
3612.20118	1.19496
3610.27261	1.20125
3608.34405	1.21102
3606.41548	1.22340
3604.48692	1.23187
3602.55835	1.23694
3600.62979	1.24115
3598.70123	1.24686
3596.77266	1.25567
3594.84410	1.26793
3592.91553	1.27854
3590.98697	1.28371
3589.05840	1.29045
3587.12984	1.30198
3585.20127	1.30987
3583.27271	1.31590
3581.34415	1.32255
3579.41558	1.32797
3577.48702	1.33432
3575.55845	1.34417
3573.62989	1.35197
3571.70132	1.35352
3569.77276	1.35435
3567.84419	1.36518
3565.91563	1.38525
3563.98707	1.39794
3562.05850	1.40492
3560.12994	1.41018
3558.20137	1.41384
3556.27281	1.41719
3554.34424	1.42318
3552.41568	1.43366
3550.48711	1.44243
3548.55855	1.44720
3546.62999	1.45386
3544.70142	1.46308
3542.77286	1.46989
3540.84429	1.47481
3538.91573	1.48209
3536.98716	1.49015
3535.05860	1.49392
3533.13003	1.49816
3531.20147	1.50833
3529.27291	1.51729
3527.34434	1.52020
3525.41578	1.52459
3523.48721	1.53375
3521.55865	1.54512
3519.63008	1.55513
3517.70152	1.56275
3515.77295	1.56827
3513.84439	1.57075
3511.91583	1.57273
3509.98726	1.57728
3508.05870	1.58108
3506.13013	1.58506
3504.20157	1.60257
3502.27300	1.62922
3500.34444	1.63616
3498.41587	1.62828
3496.48731	1.62835
3494.55875	1.63684
3492.63018	1.64279
3490.70162	1.64579
3488.77305	1.64940
3486.84449	1.65370
3484.91592	1.65877
3482.98736	1.66522
3481.05879	1.67434
3479.13023	1.68036
3477.20167	1.67679
3475.27310	1.67205
3473.34454	1.67594
3471.41597	1.68660
3469.48741	1.69910
3467.55884	1.71090
3465.63028	1.71622
3463.70171	1.71057
3461.77315	1.70396
3459.84459	1.70587
3457.91602	1.70741
3455.98746	1.69926
3454.05889	1.68898
3452.13033	1.69016
3450.20176	1.70500
3448.27320	1.72154
3446.34464	1.72422
3444.41607	1.71536
3442.48751	1.71103
3440.55894	1.71655
3438.63038	1.72602
3436.70181	1.73153
3434.77325	1.72623
3432.84468	1.71662
3430.91612	1.71329
3428.98756	1.70791
3427.05899	1.69485
3425.13043	1.68814
3423.20186	1.69502
3421.27330	1.70622
3419.34473	1.71311
3417.41617	1.71370
3415.48760	1.70592
3413.55904	1.69753
3411.63048	1.69796
3409.70191	1.70315
3407.77335	1.70973
3405.84478	1.71746
3403.91622	1.72266
3401.98765	1.72376
3400.05909	1.72309
3398.13052	1.72275
3396.20196	1.72376
3394.27340	1.72765
3392.34483	1.72798
3390.41627	1.71967
3388.48770	1.71212
3386.55914	1.71246
3384.63057	1.71803
3382.70201	1.72257
3380.77344	1.72393
3378.84488	1.72209
3376.91632	1.71748
3374.98775	1.71474
3373.05919	1.71657
3371.13062	1.72280
3369.20206	1.72983
3367.27349	1.73389
3365.34493	1.73519
3363.41636	1.72656
3361.48780	1.70869
3359.55924	1.70025
3357.63067	1.70512
3355.70211	1.71126
3353.77354	1.71742
3351.84498	1.72354
3349.91641	1.72249
3347.98785	1.71865
3346.05928	1.72140
3344.13072	1.72680
3342.20216	1.72550
3340.27359	1.71931
3338.34503	1.71413
3336.41646	1.70878
3334.48790	1.70368
3332.55933	1.70353
3330.63077	1.70966
3328.70220	1.71750
3326.77364	1.72042
3324.84508	1.72255
3322.91651	1.73446
3320.98795	1.74947
3319.05938	1.74920
3317.13082	1.73513
3315.20225	1.72646
3313.27369	1.73109
3311.34513	1.73859
3309.41656	1.73942
3307.48800	1.73740
3305.55943	1.73969
3303.63087	1.74677
3301.70230	1.75181
3299.77374	1.75044
3297.84517	1.74690
3295.91661	1.74327
3293.98805	1.73880
3292.05948	1.73842
3290.13092	1.74288
3288.20235	1.74303
3286.27379	1.73566
3284.34522	1.72907
3282.41666	1.72945
3280.48809	1.73120
3278.55953	1.72908
3276.63097	1.72608
3274.70240	1.72103
3272.77384	1.71599
3270.84527	1.71854
3268.91671	1.72201
3266.98814	1.71642
3265.05958	1.70781
3263.13101	1.70343
3261.20245	1.69921
3259.27389	1.69190
3257.34532	1.68625
3255.41676	1.68485
3253.48819	1.68606
3251.55963	1.68688
3249.63106	1.68116
3247.70250	1.67034
3245.77393	1.66419
3243.84537	1.66049
3241.91681	1.65373
3239.98824	1.65160
3238.05968	1.65443
3236.13111	1.65394
3234.20255	1.65116
3232.27398	1.64684
3230.34542	1.63900
3228.41685	1.63030
3226.48829	1.62383
3224.55973	1.62321
3222.63116	1.62750
3220.70260	1.62843
3218.77403	1.62332
3216.84547	1.61831
3214.91690	1.61602
3212.98834	1.61239
3211.05977	1.60715
3209.13121	1.60679
3207.20265	1.61044
3205.27408	1.60685
3203.34552	1.59428
3201.41695	1.58217
3199.48839	1.57388
3197.55982	1.56881
3195.63126	1.56717
3193.70269	1.56774
3191.77413	1.57005
3189.84557	1.56995
3187.91700	1.56118
3185.98844	1.54862
3184.05987	1.54311
3182.13131	1.54486
3180.20274	1.54541
3178.27418	1.54107
3176.34562	1.53519
3174.41705	1.52949
3172.48849	1.52375
3170.55992	1.52074
3168.63136	1.52147
3166.70279	1.52337
3164.77423	1.52373
3162.84566	1.51955
3160.91710	1.51254
3158.98854	1.50770
3157.05997	1.50356
3155.13141	1.49679
3153.20284	1.48980
3151.27428	1.48620
3149.34571	1.48629
3147.41715	1.48706
3145.48858	1.48508
3143.56002	1.48191
3141.63146	1.48026
3139.70289	1.47815
3137.77433	1.47601
3135.84576	1.47636
3133.91720	1.47605
3131.98863	1.47467
3130.06007	1.47662
3128.13150	1.47840
3126.20294	1.47555
3124.27438	1.47243
3122.34581	1.47117
3120.41725	1.46950
3118.48868	1.46784
3116.56012	1.46775
3114.63155	1.46921
3112.70299	1.47056
3110.77442	1.47111
3108.84586	1.47039
3106.91730	1.46676
3104.98873	1.46297
3103.06017	1.46273
3101.13160	1.46390
3099.20304	1.46473
3097.27447	1.46563
3095.34591	1.46462
3093.41734	1.46184
3091.48878	1.46064
3089.56022	1.46118
3087.63165	1.46096
3085.70309	1.46007
3083.77452	1.46039
3081.84596	1.46034
3079.91739	1.45707
3077.98883	1.45216
3076.06026	1.44805
3074.13170	1.44521
3072.20314	1.44360
3070.27457	1.44062
3068.34601	1.43448
3066.41744	1.42861
3064.48888	1.42484
3062.56031	1.42072
3060.63175	1.41522
3058.70318	1.41058
3056.77462	1.40811
3054.84606	1.40588
3052.91749	1.40350
3050.98893	1.40180
3049.06036	1.39893
3047.13180	1.39321
3045.20323	1.38581
3043.27467	1.37966
3041.34610	1.37585
3039.41754	1.37156
3037.48898	1.36512
3035.56041	1.35967
3033.63185	1.35720
3031.70328	1.35463
3029.77472	1.35125
3027.84615	1.34968
3025.91759	1.34909
3023.98903	1.34744
3022.06046	1.34549
3020.13190	1.34448
3018.20333	1.34304
3016.27477	1.33923
3014.34620	1.33414
3012.41764	1.32991
3010.48907	1.32617
3008.56051	1.32190
3006.63195	1.31826
3004.70338	1.31666
3002.77482	1.31645
3000.84625	1.31555
2998.91769	1.31407
2996.98912	1.31476
2995.06056	1.31733
2993.13199	1.31895
2991.20343	1.32068
2989.27487	1.32571
2987.34630	1.33308
2985.41774	1.33799
2983.48917	1.33906
2981.56061	1.34134
2979.63204	1.34844
2977.70348	1.35715
2975.77491	1.36373
2973.84635	1.36787
2971.91779	1.37226
2969.98922	1.38066
2968.06066	1.39089
2966.13209	1.39798
2964.20353	1.40289
2962.27496	1.40694
2960.34640	1.40648
2958.41783	1.40056
2956.48927	1.39343
2954.56071	1.38689
2952.63214	1.38181
2950.70358	1.38077
2948.77501	1.38075
2946.84645	1.37776
2944.91788	1.37726
2942.98932	1.38414
2941.06075	1.39400
2939.13219	1.40351
2937.20363	1.41374
2935.27506	1.42433
2933.34650	1.43625
2931.41793	1.45006
2929.48937	1.46107
2927.56080	1.46492
2925.63224	1.46405
2923.70367	1.46527
2921.77511	1.47100
2919.84655	1.47604
2917.91798	1.47388
2915.98942	1.46114
2914.06085	1.43894
2912.13229	1.41259
2910.20372	1.38810
2908.27516	1.36902
2906.34659	1.35581
2904.41803	1.34746
2902.48947	1.34102
2900.56090	1.33468
2898.63234	1.33046
2896.70377	1.32755
2894.77521	1.32293
2892.84664	1.31708
2890.91808	1.31108
2888.98952	1.30552
2887.06095	1.30194
2885.13239	1.30128
2883.20382	1.30146
2881.27526	1.29994
2879.34669	1.29799
2877.41813	1.29691
2875.48956	1.29614
2873.56100	1.29512
2871.63244	1.29175
2869.70387	1.28490
2867.77531	1.27636
2865.84674	1.26877
2863.91818	1.26488
2861.98961	1.26562
2860.06105	1.26895
2858.13248	1.27348
2856.20392	1.28119
2854.27536	1.29255
2852.34679	1.30315
2850.41823	1.30704
2848.48966	1.29651
2846.56110	1.26959
2844.63253	1.23809
2842.70397	1.21330
2840.77540	1.19624
2838.84684	1.18346
2836.91828	1.17297
2834.98971	1.16441
2833.06115	1.15643
2831.13258	1.14838
2829.20402	1.14174
2827.27545	1.13784
2825.34689	1.13525
2823.41832	1.13151
2821.48976	1.12742
2819.56120	1.12469
2817.63263	1.12234
2815.70407	1.11922
2813.77550	1.11578
2811.84694	1.11231
2809.91837	1.10832
2807.98981	1.10428
2806.06124	1.10086
2804.13268	1.09750
2802.20412	1.09389
2800.27555	1.09067
2798.34699	1.08835
2796.41842	1.08633
2794.48986	1.08361
2792.56129	1.07974
2790.63273	1.07522
2788.70416	1.07130
2786.77560	1.06868
2784.84704	1.06655
2782.91847	1.06360
2780.98991	1.06043
2779.06134	1.05875
2777.13278	1.05804
2775.20421	1.05665
2773.27565	1.05409
2771.34708	1.05081
2769.41852	1.04782
2767.48996	1.04558
2765.56139	1.04388
2763.63283	1.04265
2761.70426	1.04172
2759.77570	1.04070
2757.84713	1.03929
2755.91857	1.03702
2753.99001	1.03366
2752.06144	1.02990
2750.13288	1.02651
2748.20431	1.02396
2746.27575	1.02262
2744.34718	1.02179
2742.41862	1.02049
2740.49005	1.01893
2738.56149	1.01728
2736.63293	1.01528
2734.70436	1.01306
2732.77580	1.01121
2730.84723	1.00956
2728.91867	1.00743
2726.99010	1.00479
2725.06154	1.00216
2723.13297	1.00035
2721.20441	0.99965
2719.27585	0.99870
2717.34728	0.99603
2715.41872	0.99248
2713.49015	0.98976
2711.56159	0.98795
2709.63302	0.98680
2707.70446	0.98618
2705.77589	0.98542
2703.84733	0.98430
2701.91877	0.98250
2699.99020	0.97991
2698.06164	0.97770
2696.13307	0.97615
2694.20451	0.97462
2692.27594	0.97357
2690.34738	0.97308
2688.41881	0.97187
2686.49025	0.96977
2684.56169	0.96772
2682.63312	0.96580
2680.70456	0.96411
2678.77599	0.96303
2676.84743	0.96203
2674.91886	0.96073
2672.99030	0.95943
2671.06173	0.95820
2669.13317	0.95706
2667.20461	0.95543
2665.27604	0.95309
2663.34748	0.95156
2661.41891	0.95113
2659.49035	0.95026
2657.56178	0.94845
2655.63322	0.94660
2653.70465	0.94543
2651.77609	0.94460
2649.84753	0.94368
2647.91896	0.94258
2645.99040	0.94129
2644.06183	0.93989
2642.13327	0.93792
2640.20470	0.93560
2638.27614	0.93395
2636.34757	0.93290
2634.41901	0.93164
2632.49045	0.93011
2630.56188	0.92882
2628.63332	0.92781
2626.70475	0.92658
2624.77619	0.92470
2622.84762	0.92257
2620.91906	0.92130
2618.99049	0.92053
2617.06193	0.91871
2615.13337	0.91631
2613.20480	0.91456
2611.27624	0.91333
2609.34767	0.91245
2607.41911	0.91165
2605.49054	0.91032
2603.56198	0.90878
2601.63342	0.90756
2599.70485	0.90634
2597.77629	0.90454
2595.84772	0.90246
2593.91916	0.90058
2591.99059	0.89867
2590.06203	0.89640
2588.13346	0.89408
2586.20490	0.89264
2584.27634	0.89228
2582.34777	0.89157
2580.41921	0.88940
2578.49064	0.88675
2576.56208	0.88473
2574.63351	0.88313
2572.70495	0.88180
2570.77638	0.88052
2568.84782	0.87868
2566.91926	0.87658
2564.99069	0.87509
2563.06213	0.87435
2561.13356	0.87345
2559.20500	0.87192
2557.27643	0.87029
2555.34787	0.86863
2553.41930	0.86686
2551.49074	0.86531
2549.56218	0.86397
2547.63361	0.86255
2545.70505	0.86076
2543.77648	0.85869
2541.84792	0.85692
2539.91935	0.85555
2537.99079	0.85423
2536.06222	0.85289
2534.13366	0.85149
2532.20510	0.84998
2530.27653	0.84844
2528.34797	0.84708
2526.41940	0.84572
2524.49084	0.84380
2522.56227	0.84194
2520.63371	0.84090
2518.70514	0.84010
2516.77658	0.83899
2514.84802	0.83784
2512.91945	0.83706
2510.99089	0.83620
2509.06232	0.83481
2507.13376	0.83350
2505.20519	0.83261
2503.27663	0.83139
2501.34806	0.82970
2499.41950	0.82829
2497.49094	0.82705
2495.56237	0.82524
2493.63381	0.82300
2491.70524	0.82105
2489.77668	0.81950
2487.84811	0.81745
2485.91955	0.81470
2483.99098	0.81232
2482.06242	0.81049
2480.13386	0.80879
2478.20529	0.80748
2476.27673	0.80640
2474.34816	0.80495
2472.41960	0.80330
2470.49103	0.80176
2468.56247	0.80013
2466.63391	0.79853
2464.70534	0.79710
2462.77678	0.79547
2460.84821	0.79355
2458.91965	0.79166
2456.99108	0.79019
2455.06252	0.78885
2453.13395	0.78745
2451.20539	0.78653
2449.27683	0.78537
2447.34826	0.78334
2445.41970	0.78161
2443.49113	0.78046
2441.56257	0.77933
2439.63400	0.77823
2437.70544	0.77699
2435.77687	0.77536
2433.84831	0.77374
2431.91975	0.77271
2429.99118	0.77233
2428.06262	0.77175
2426.13405	0.77040
2424.20549	0.76914
2422.27692	0.76861
2420.34836	0.76819
2418.41979	0.76744
2416.49123	0.76652
2414.56267	0.76555
2412.63410	0.76456
2410.70554	0.76365
2408.77697	0.76286
2406.84841	0.76193
2404.91984	0.76056
2402.99128	0.75865
2401.06271	0.75713
2399.13415	0.75673
2397.20559	0.75634
2395.27702	0.75492
2393.34846	0.75314
2391.41989	0.75179
2389.49133	0.75057
2387.56276	0.74934
2385.63420	0.74820
2383.70563	0.74704
2381.77707	0.74599
2379.84851	0.74505
2377.91994	0.74346
2375.99138	0.74042
2374.06281	0.73653
2372.13425	0.73368
2370.20568	0.73257
2368.27712	0.73251
2366.34855	0.73159
2364.41999	0.72731
2362.49143	0.72152
2360.56286	0.71834
2358.63430	0.71861
2356.70573	0.72119
2354.77717	0.72471
2352.84860	0.72733
2350.92004	0.72738
2348.99147	0.72480
2347.06291	0.71990
2345.13435	0.71366
2343.20578	0.71008
2341.27722	0.71078
2339.34865	0.71234
2337.42009	0.71353
2335.49152	0.71461
2333.56296	0.71461
2331.63440	0.71359
2329.70583	0.71271
2327.77727	0.71251
2325.84870	0.71339
2323.92014	0.71470
2321.99157	0.71557
2320.06301	0.71657
2318.13444	0.71726
2316.20588	0.71690
2314.27732	0.71614
2312.34875	0.71538
2310.42019	0.71447
2308.49162	0.71337
2306.56306	0.71227
2304.63449	0.71116
2302.70593	0.70971
2300.77736	0.70811
2298.84880	0.70680
2296.92024	0.70566
2294.99167	0.70452
2293.06311	0.70367
2291.13454	0.70301
2289.20598	0.70201
2287.27741	0.70073
2285.34885	0.69964
2283.42028	0.69915
2281.49172	0.69919
2279.56316	0.69906
2277.63459	0.69852
2275.70603	0.69799
2273.77746	0.69762
2271.84890	0.69709
2269.92033	0.69635
2267.99177	0.69564
2266.06320	0.69514
2264.13464	0.69495
2262.20608	0.69479
2260.27751	0.69429
2258.34895	0.69341
2256.42038	0.69229
2254.49182	0.69107
2252.56325	0.68990
2250.63469	0.68884
2248.70612	0.68779
2246.77756	0.68676
2244.84900	0.68585
2242.92043	0.68494
2240.99187	0.68387
2239.06330	0.68279
2237.13474	0.68217
2235.20617	0.68193
2233.27761	0.68158
2231.34904	0.68104
2229.42048	0.68051
2227.49192	0.68001
2225.56335	0.67953
2223.63479	0.67914
2221.70622	0.67882
2219.77766	0.67845
2217.84909	0.67803
2215.92053	0.67757
2213.99196	0.67689
2212.06340	0.67603
2210.13484	0.67540
2208.20627	0.67512
2206.27771	0.67484
2204.34914	0.67416
2202.42058	0.67323
2200.49201	0.67246
2198.56345	0.67193
2196.63488	0.67158
2194.70632	0.67129
2192.77776	0.67074
2190.84919	0.67002
2188.92063	0.66963
2186.99206	0.66958
2185.06350	0.66942
2183.13493	0.66908
2181.20637	0.66879
2179.27781	0.66881
2177.34924	0.66912
2175.42068	0.66922
2173.49211	0.66891
2171.56355	0.66857
2169.63498	0.66847
2167.70642	0.66848
2165.77785	0.66840
2163.84929	0.66819
2161.92073	0.66775
2159.99216	0.66704
2158.06360	0.66616
2156.13503	0.66523
2154.20647	0.66428
2152.27790	0.66326
2150.34934	0.66205
2148.42077	0.66056
2146.49221	0.65892
2144.56365	0.65736
2142.63508	0.65592
2140.70652	0.65458
2138.77795	0.65340
2136.84939	0.65245
2134.92082	0.65176
2132.99226	0.65117
2131.06369	0.65036
2129.13513	0.64930
2127.20657	0.64828
2125.27800	0.64753
2123.34944	0.64714
2121.42087	0.64696
2119.49231	0.64673
2117.56374	0.64636
2115.63518	0.64581
2113.70661	0.64515
2111.77805	0.64451
2109.84949	0.64384
2107.92092	0.64302
2105.99236	0.64201
2104.06379	0.64092
2102.13523	0.63977
2100.20666	0.63851
2098.27810	0.63733
2096.34953	0.63641
2094.42097	0.63565
2092.49241	0.63486
2090.56384	0.63403
2088.63528	0.63329
2086.70671	0.63255
2084.77815	0.63175
2082.84958	0.63120
2080.92102	0.63106
2078.99245	0.63094
2077.06389	0.63063
2075.13533	0.63028
2073.20676	0.62997
2071.27820	0.62957
2069.34963	0.62916
2067.42107	0.62902
2065.49250	0.62917
2063.56394	0.62929
2061.63537	0.62903
2059.70681	0.62831
2057.77825	0.62728
2055.84968	0.62626
2053.92112	0.62538
2051.99255	0.62449
2050.06399	0.62345
2048.13542	0.62215
2046.20686	0.62064
2044.27830	0.61912
2042.34973	0.61759
2040.42117	0.61604
2038.49260	0.61453
2036.56404	0.61317
2034.63547	0.61202
2032.70691	0.61098
2030.77834	0.61003
2028.84978	0.60919
2026.92122	0.60846
2024.99265	0.60797
2023.06409	0.60774
2021.13552	0.60746
2019.20696	0.60713
2017.27839	0.60700
2015.34983	0.60683
2013.42126	0.60636
2011.49270	0.60573
2009.56414	0.60527
2007.63557	0.60490
2005.70701	0.60426
2003.77844	0.60340
2001.84988	0.60248
1999.92131	0.60144
1997.99275	0.60032
1996.06418	0.59910
1994.13562	0.59794
1992.20706	0.59711
1990.27849	0.59617
1988.34993	0.59479
1986.42136	0.59341
1984.49280	0.59229
1982.56423	0.59128
1980.63567	0.59024
1978.70710	0.58920
1976.77854	0.58820
1974.84998	0.58716
1972.92141	0.58630
1970.99285	0.58558
1969.06428	0.58483
1967.13572	0.58426
1965.20715	0.58380
1963.27859	0.58329
1961.35002	0.58294
1959.42146	0.58261
1957.49290	0.58228
1955.56433	0.58205
1953.63577	0.58163
1951.70720	0.58095
1949.77864	0.58019
1947.85007	0.57933
1945.92151	0.57834
1943.99294	0.57768
1942.06438	0.57732
1940.13582	0.57629
1938.20725	0.57489
1936.27869	0.57391
1934.35012	0.57325
1932.42156	0.57265
1930.49299	0.57210
1928.56443	0.57176
1926.63586	0.57169
1924.70730	0.57206
1922.77874	0.57279
1920.85017	0.57311
1918.92161	0.57350
1916.99304	0.57437
1915.06448	0.57471
1913.13591	0.57477
1911.20735	0.57525
1909.27878	0.57593
1907.35022	0.57615
1905.42166	0.57586
1903.49309	0.57559
1901.56453	0.57558
1899.63596	0.57562
1897.70740	0.57549
1895.77883	0.57533
1893.85027	0.57484
1891.92171	0.57391
1889.99314	0.57347
1888.06458	0.57307
1886.13601	0.57190
1884.20745	0.57071
1882.27888	0.56999
1880.35032	0.56934
1878.42175	0.56828
1876.49319	0.56683
1874.56463	0.56534
1872.63606	0.56385
1870.70750	0.56288
1868.77893	0.56327
1866.85037	0.56339
1864.92180	0.56210
1862.99324	0.56092
1861.06467	0.56045
1859.13611	0.56022
1857.20755	0.55987
1855.27898	0.55949
1853.35042	0.55922
1851.42185	0.55898
1849.49329	0.55863
1847.56472	0.55818
1845.63616	0.55831
1843.70759	0.55893
1841.77903	0.55789
1839.85047	0.55586
1837.92190	0.55476
1835.99334	0.55454
1834.06477	0.55384
1832.13621	0.55291
1830.20764	0.55319
1828.27908	0.55373
1826.35051	0.55343
1824.42195	0.55356
1822.49339	0.55362
1820.56482	0.55303
1818.63626	0.55269
1816.70769	0.55275
1814.77913	0.55253
1812.85056	0.55230
1810.92200	0.55281
1808.99343	0.55327
1807.06487	0.55282
1805.13631	0.55202
1803.20774	0.55170
1801.27918	0.55246
1799.35061	0.55338
1797.42205	0.55313
1795.49348	0.55232
1793.56492	0.55272
1791.63635	0.55479
1789.70779	0.55520
1787.77923	0.55408
1785.85066	0.55345
1783.92210	0.55351
1781.99353	0.55385
1780.06497	0.55445
1778.13640	0.55465
1776.20784	0.55432
1774.27927	0.55490
1772.35071	0.55770
1770.42215	0.55996
1768.49358	0.56039
1766.56502	0.56055
1764.63645	0.56080
1762.70789	0.56245
1760.77932	0.56540
1758.85076	0.56764
1756.92220	0.57048
1754.99363	0.57327
1753.06507	0.57552
1751.13650	0.58082
1749.20794	0.59014
1747.27937	0.59822
1745.35081	0.60413
1743.42224	0.60951
1741.49368	0.61529
1739.56512	0.62159
1737.63655	0.62541
1735.70799	0.62777
1733.77942	0.63466
1731.85086	0.64153
1729.92229	0.64508
1727.99373	0.64863
1726.06516	0.65290
1724.13660	0.65931
1722.20804	0.66604
1720.27947	0.67151
1718.35091	0.68123
1716.42234	0.69969
1714.49378	0.71410
1712.56521	0.72427
1710.63665	0.73616
1708.70808	0.75143
1706.77952	0.77471
1704.85096	0.80540
1702.92239	0.83256
1700.99383	0.87203
1699.06526	0.93828
1697.13670	1.00246
1695.20813	1.06572
1693.27957	1.11200
1691.35100	1.14781
1689.42244	1.19169
1687.49388	1.23311
1685.56531	1.27580
1683.63675	1.34160
1681.70818	1.38546
1679.77962	1.40689
1677.85105	1.42643
1675.92249	1.45116
1673.99392	1.47759
1672.06536	1.49517
1670.13680	1.50955
1668.20823	1.52308
1666.27967	1.52921
1664.35110	1.53532
1662.42254	1.54383
1660.49397	1.54822
1658.56541	1.54979
1656.63684	1.55090
1654.70828	1.55446
1652.77972	1.55569
1650.85115	1.54824
1648.92259	1.54246
1646.99402	1.54053
1645.06546	1.53918
1643.13689	1.53408
1641.20833	1.52862
1639.27976	1.52271
1637.35120	1.51749
1635.42264	1.51787
1633.49407	1.51765
1631.56551	1.51388
1629.63694	1.50784
1627.70838	1.49864
1625.77981	1.48765
1623.85125	1.47755
1621.92269	1.46593
1619.99412	1.45285
1618.06556	1.43733
1616.13699	1.41447
1614.20843	1.39357
1612.27986	1.37726
1610.35130	1.36033
1608.42273	1.34054
1606.49417	1.32138
1604.56561	1.30666
1602.63704	1.29585
1600.70848	1.28757
1598.77991	1.28070
1596.85135	1.27583
1594.92278	1.27349
1592.99422	1.27284
1591.06565	1.27379
1589.13709	1.27735
1587.20853	1.28412
1585.27996	1.29298
1583.35140	1.30320
1581.42283	1.31400
1579.49427	1.32437
1577.56570	1.33971
1575.63714	1.36352
1573.70857	1.37726
1571.78001	1.38432
1569.85145	1.39851
1567.92288	1.41543
1565.99432	1.42623
1564.06575	1.43402
1562.13719	1.43789
1560.20862	1.44538
1558.28006	1.47001
1556.35149	1.47639
1554.42293	1.47215
1552.49437	1.46863
1550.56580	1.46715
1548.63724	1.46595
1546.70867	1.46350
1544.78011	1.46106
1542.85154	1.45933
1540.92298	1.45345
1538.99441	1.43992
1537.06585	1.42992
1535.13729	1.42100
1533.20872	1.41114
1531.28016	1.40302
1529.35159	1.39731
1527.42303	1.39201
1525.49446	1.38616
1523.56590	1.38093
1521.63733	1.37570
1519.70877	1.36990
1517.78021	1.36165
1515.85164	1.34875
1513.92308	1.33300
1511.99451	1.31613
1510.06595	1.30045
1508.13738	1.28118
1506.20882	1.24624
1504.28025	1.22221
1502.35169	1.20545
1500.42313	1.18788
1498.49456	1.16768
1496.56600	1.14430
1494.63743	1.12459
1492.70887	1.11034
1490.78030	1.09628
1488.85174	1.08005
1486.92317	1.06626
1484.99461	1.05614
1483.06605	1.04901
1481.13748	1.04489
1479.20892	1.04399
1477.28035	1.04688
1475.35179	1.05537
1473.42322	1.07312
1471.49466	1.09268
1469.56610	1.10215
1467.63753	1.10818
1465.70897	1.11698
1463.78040	1.12656
1461.85184	1.13075
1459.92327	1.13216
1457.99471	1.13985
1456.06614	1.15295
1454.13758	1.15482
1452.20902	1.15217
1450.28045	1.14988
1448.35189	1.14832
1446.42332	1.14583
1444.49476	1.14181
1442.56619	1.13687
1440.63763	1.13089
1438.70906	1.12358
1436.78050	1.11456
1434.85194	1.10484
1432.92337	1.09552
1430.99481	1.08568
1429.06624	1.07662
1427.13768	1.07154
1425.20911	1.07022
1423.28055	1.07015
1421.35198	1.07026
1419.42342	1.07400
1417.49486	1.08049
1415.56629	1.08314
1413.63773	1.08361
1411.70916	1.08386
1409.78060	1.08361
1407.85203	1.08292
1405.92347	1.08381
1403.99490	1.08667
1402.06634	1.08823
1400.13778	1.08831
1398.20921	1.08839
1396.28065	1.08862
1394.35208	1.08915
1392.42352	1.08999
1390.49495	1.09194
1388.56639	1.09764
1386.63782	1.10839
1384.70926	1.12033
1382.78070	1.13117
1380.85213	1.13954
1378.92357	1.14249
1376.99500	1.13910
1375.06644	1.12945
1373.13787	1.11472
1371.20931	1.09862
1369.28074	1.08078
1367.35218	1.06120
1365.42362	1.04293
1363.49505	1.02570
1361.56649	1.01066
1359.63792	1.00061
1357.70936	0.99384
1355.78079	0.98860
1353.85223	0.98492
1351.92366	0.98287
1349.99510	0.98186
1348.06654	0.98123
1346.13797	0.98072
1344.20941	0.98062
1342.28084	0.98150
1340.35228	0.98404
1338.42371	0.98800
1336.49515	0.99288
1334.56659	0.99954
1332.63802	1.00824
1330.70946	1.01748
1328.78089	1.02525
1326.85233	1.03066
1324.92376	1.03377
1322.99520	1.03542
1321.06663	1.03731
1319.13807	1.04025
1317.20951	1.04286
1315.28094	1.04389
1313.35238	1.04404
1311.42381	1.04398
1309.49525	1.04335
1307.56668	1.04167
1305.63812	1.03930
1303.70955	1.03713
1301.78099	1.03502
1299.85243	1.03178
1297.92386	1.02736
1295.99530	1.02300
1294.06673	1.01938
1292.13817	1.01698
1290.20960	1.01635
1288.28104	1.01694
1286.35247	1.01794
1284.42391	1.01888
1282.49535	1.01920
1280.56678	1.01919
1278.63822	1.01996
1276.70965	1.02187
1274.78109	1.02488
1272.85252	1.02964
1270.92396	1.03614
1268.99539	1.04310
1267.06683	1.04976
1265.13827	1.05567
1263.20970	1.05970
1261.28114	1.06118
1259.35257	1.06087
1257.42401	1.06010
1255.49544	1.05985
1253.56688	1.06036
1251.63831	1.06115
1249.70975	1.06142
1247.78119	1.06083
1245.85262	1.06000
1243.92406	1.05941
1241.99549	1.05865
1240.06693	1.05697
1238.13836	1.05388
1236.20980	1.04971
1234.28123	1.04504
1232.35267	1.03970
1230.42411	1.03324
1228.49554	1.02584
1226.56698	1.01770
1224.63841	1.00877
1222.70985	0.99942
1220.78128	0.99035
1218.85272	0.98217
1216.92415	0.97537
1214.99559	0.97031
1213.06703	0.96772
1211.13846	0.96813
1209.20990	0.97038
1207.28133	0.97186
1205.35277	0.97011
1203.42420	0.96445
1201.49564	0.95598
1199.56708	0.94624
1197.63851	0.93615
1195.70995	0.92638
1193.78138	0.91793
1191.85282	0.91162
1189.92425	0.90763
1187.99569	0.90613
1186.06712	0.90701
1184.13856	0.90972
1182.21000	0.91419
1180.28143	0.92082
1178.35287	0.92972
1176.42430	0.94041
1174.49574	0.95234
1172.56717	0.96493
1170.63861	0.97777
1168.71004	0.99208
1166.78148	1.00939
1164.85292	1.02910
1162.92435	1.04874
1160.99579	1.06514
1159.06722	1.07498
1157.13866	1.07628
1155.21009	1.06973
1153.28153	1.05719
1151.35296	1.04044
1149.42440	1.02153
1147.49584	1.00305
1145.56727	0.98769
1143.63871	0.97706
1141.71014	0.97144
1139.78158	0.97065
1137.85301	0.97425
1135.92445	0.98168
1133.99588	0.99263
1132.06732	1.00725
1130.13876	1.02597
1128.21019	1.04819
1126.28163	1.07136
1124.35306	1.09279
1122.42450	1.11154
1120.49593	1.12740
1118.56737	1.13950
1116.63880	1.14667
1114.71024	1.14861
1112.78168	1.14620
1110.85311	1.14110
1108.92455	1.13488
1106.99598	1.12815
1105.06742	1.12165
1103.13885	1.11671
1101.21029	1.11349
1099.28172	1.11166
1097.35316	1.11217
1095.42460	1.11669
1093.49603	1.12586
1091.56747	1.13885
1089.63890	1.15462
1087.71034	1.17228
1085.78177	1.19027
1083.85321	1.20689
1081.92464	1.22032
1079.99608	1.22907
1078.06752	1.23247
1076.13895	1.23073
1074.21039	1.22564
1072.28182	1.21893
1070.35326	1.21103
1068.42469	1.20166
1066.49613	1.19041
1064.56756	1.17803
1062.63900	1.16548
1060.71044	1.15286
1058.78187	1.14011
1056.85331	1.12742
1054.92474	1.11517
1052.99618	1.10395
1051.06761	1.09465
1049.13905	1.08745
1047.21049	1.08266
1045.28192	1.08173
1043.35336	1.08507
1041.42479	1.09129
1039.49623	1.09802
1037.56766	1.10329
1035.63910	1.10661
1033.71053	1.10785
1031.78197	1.10616
1029.85341	1.10156
1027.92484	1.09534
1025.99628	1.08840
1024.06771	1.08146
1022.13915	1.07548
1020.21058	1.07053
1018.28202	1.06690
1016.35345	1.06471
1014.42489	1.06111
1012.49633	1.05251
1010.56776	1.03939
1008.63920	1.02421
1006.71063	1.00800
1004.78207	0.99156
1002.85350	0.97603
1000.92494	0.96143
998.99637	0.94788
997.06781	0.93607
995.13925	0.92506
993.21068	0.91314
991.28212	0.90028
989.35355	0.88735
987.42499	0.87501
985.49642	0.86373
983.56786	0.85441
981.63929	0.84850
979.71073	0.84631
977.78217	0.84631
975.85360	0.84667
973.92504	0.84576
971.99647	0.84248
970.06791	0.83708
968.13934	0.83097
966.21078	0.82625
964.28221	0.82480
962.35365	0.82776
960.42509	0.83637
958.49652	0.85031
956.56796	0.86434
954.63939	0.87140
952.71083	0.86897
950.78226	0.85926
948.85370	0.84582
946.92513	0.83190
944.99657	0.81960
943.06801	0.80921
941.13944	0.79971
939.21088	0.79055
937.28231	0.78235
935.35375	0.77552
933.42518	0.77009
931.49662	0.76623
929.56805	0.76386
927.63949	0.76275
925.71093	0.76320
923.78236	0.76547
921.85380	0.76895
919.92523	0.77259
917.99667	0.77596
916.06810	0.77949
914.13954	0.78369
912.21098	0.78884
910.28241	0.79556
908.35385	0.80445
906.42528	0.81492
904.49672	0.82553
902.56815	0.83535
900.63959	0.84360
898.71102	0.84940
896.78246	0.85236
894.85390	0.85221
892.92533	0.84852
890.99677	0.84203
889.06820	0.83472
887.13964	0.82788
885.21107	0.82152
883.28251	0.81548
881.35394	0.81014
879.42538	0.80633
877.49682	0.80447
875.56825	0.80417
873.63969	0.80474
871.71112	0.80597
869.78256	0.80872
867.85399	0.81371
865.92543	0.82052
863.99686	0.82826
862.06830	0.83647
860.13974	0.84542
858.21117	0.85530
856.28261	0.86528
854.35404	0.87404
852.42548	0.88124
850.49691	0.88688
848.56835	0.89031
846.63978	0.89178
844.71122	0.89271
842.78266	0.89374
840.85409	0.89437
838.92553	0.89399
836.99696	0.89233
835.06840	0.89023
833.13983	0.88881
831.21127	0.88743
829.28270	0.88567
827.35414	0.88474
825.42558	0.88472
823.49701	0.88506
821.56845	0.88674
819.63988	0.88987
817.71132	0.89330
815.78275	0.89779
813.85419	0.90421
811.92562	0.91130
809.99706	0.91836
808.06850	0.92520
806.13993	0.93090
804.21137	0.93589
802.28280	0.94107
800.35424	0.94584
798.42567	0.94908
796.49711	0.95066
794.56854	0.95184
792.63998	0.95303
790.71142	0.95243
788.78285	0.94965
786.85429	0.94694
784.92572	0.94564
782.99716	0.94506
781.06859	0.94430
779.14003	0.94334
777.21147	0.94233
775.28290	0.94203
773.35434	0.94381
771.42577	0.94761
769.49721	0.95211
767.56864	0.95670
765.64008	0.96161
763.71151	0.96688
761.78295	0.97265
759.85439	0.97907
757.92582	0.98585
755.99726	0.99253
754.06869	0.99854
752.14013	1.00416
750.21156	1.00994
748.28300	1.01435
746.35443	1.01605
744.42587	1.01641
742.49731	1.01589
740.56874	1.01320
738.64018	1.00895
736.71161	1.00526
734.78305	1.00289
732.85448	1.00142
730.92592	1.00113
728.99735	1.00204
727.06879	1.00327
725.14023	1.00548
723.21166	1.00990
721.28310	1.01567
719.35453	1.02085
717.42597	1.02519
715.49740	1.03033
713.56884	1.03635
711.64027	1.04224
709.71171	1.04854
707.78315	1.05546
705.85458	1.06183
703.92602	1.06638
701.99745	1.06865
700.06889	1.06906
698.14032	1.06797
696.21176	1.06599
694.28319	1.06412
692.35463	1.06194
690.42607	1.05827
688.49750	1.05314
686.56894	1.04698
684.64037	1.04066
682.71181	1.03579
680.78324	1.03256
678.85468	1.02918
676.92611	1.02647
674.99755	1.02680
673.06899	1.02880
671.14042	1.03037
669.21186	1.03324
667.28329	1.03925
665.35473	1.04473
663.42616	1.05027
661.49760	1.05648
659.56903	1.06307
657.64047	1.07061
655.71191	1.07696
653.78334	1.08054
651.85478	1.08301
649.92621	1.08531
647.99765	1.08775
646.06908	1.08978
644.14052	1.09068
642.21195	1.09182
640.28339	1.09298
638.35483	1.09200
636.42626	1.08848
634.49770	1.08259
632.56913	1.07617
630.64057	1.07187
628.71200	1.06822
626.78344	1.06320
624.85488	1.05968
622.92631	1.06059
620.99775	1.06359
619.06918	1.06510
617.14062	1.06474
615.21205	1.06387
613.28349	1.06301
611.35492	1.06261
609.42636	1.06472
607.49780	1.06915
605.56923	1.07166
603.64067	1.07001
601.71210	1.06580
599.78354	1.06200
