3997.91406	0.92941
3995.98550	0.92904
3994.05693	0.92890
3992.12837	0.92801
3990.19980	0.92661
3988.27124	0.92580
3986.34268	0.92485
3984.41411	0.92385
3982.48555	0.92370
3980.55698	0.92415
3978.62842	0.92586
3976.69985	0.92840
3974.77129	0.92842
3972.84272	0.92510
3970.91416	0.92252
3968.98560	0.92325
3967.05703	0.92521
3965.12847	0.92597
3963.19990	0.92539
3961.27134	0.92449
3959.34277	0.92438
3957.41421	0.92496
3955.48564	0.92571
3953.55708	0.92550
3951.62852	0.92376
3949.69995	0.92286
3947.77139	0.92239
3945.84282	0.91939
3943.91426	0.91580
3941.98569	0.91463
3940.05713	0.91504
3938.12856	0.91568
3936.20000	0.91731
3934.27144	0.91999
3932.34287	0.92129
3930.41431	0.91959
3928.48574	0.91664
3926.55718	0.91382
3924.62861	0.91160
3922.70005	0.91063
3920.77148	0.91129
3918.84292	0.91290
3916.91436	0.91376
3914.98579	0.91267
3913.05723	0.91023
3911.12866	0.90779
3909.20010	0.90603
3907.27153	0.90535
3905.34297	0.90616
3903.41440	0.90669
3901.48584	0.90552
3899.55728	0.90438
3897.62871	0.90273
3895.70015	0.90017
3893.77158	0.89840
3891.84302	0.89843
3889.91445	0.89808
3887.98589	0.89700
3886.05733	0.89702
3884.12876	0.89765
3882.20020	0.89812
3880.27163	0.89853
3878.34307	0.89781
3876.41450	0.89680
3874.48594	0.89519
3872.55737	0.89149
3870.62881	0.88893
3868.70025	0.89087
3866.77168	0.89376
3864.84312	0.89556
3862.91455	0.89641
3860.98599	0.89640
3859.05742	0.89542
3857.12886	0.89300
3855.20029	0.88961
3853.27173	0.89091
3851.34317	0.89395
3849.41460	0.89263
3847.48604	0.89033
3845.55747	0.88892
3843.62891	0.88883
3841.70034	0.88976
3839.77178	0.89146
3837.84321	0.89232
3835.91465	0.89003
3833.98609	0.88715
3832.05752	0.88642
3830.12896	0.88763
3828.20039	0.88921
3826.27183	0.88921
3824.34326	0.88659
3822.41470	0.88417
3820.48613	0.88525
3818.55757	0.88767
3816.62901	0.89125
3814.70044	0.89325
3812.77188	0.89075
3810.84331	0.88658
3808.91475	0.88396
3806.98618	0.88605
3805.05762	0.88934
3803.12905	0.88992
3801.20049	0.88954
3799.27193	0.88812
3797.34336	0.88581
3795.41480	0.88418
3793.48623	0.88352
3791.55767	0.88340
3789.62910	0.88339
3787.70054	0.88304
3785.77197	0.88285
3783.84341	0.88241
3781.91485	0.88106
3779.98628	0.87992
3778.05772	0.87921
3776.12915	0.87804
3774.20059	0.87688
3772.27202	0.87660
3770.34346	0.87729
3768.41489	0.87783
3766.48633	0.87787
3764.55777	0.87659
3762.62920	0.87347
3760.70064	0.87088
3758.77207	0.87078
3756.84351	0.87075
3754.91494	0.86965
3752.98638	0.86946
3751.05781	0.87102
3749.12925	0.87028
3747.20069	0.86727
3745.27212	0.86562
3743.34356	0.86661
3741.41499	0.86716
3739.48643	0.86679
3737.55786	0.86645
3735.62930	0.86776
3733.70074	0.87148
3731.77217	0.87183
3729.84361	0.86799
3727.91504	0.86470
3725.98648	0.86553
3724.05791	0.86861
3722.12935	0.86906
3720.20078	0.86693
3718.27222	0.86568
3716.34366	0.86596
3714.41509	0.86611
3712.48653	0.86602
3710.55796	0.86738
3708.62940	0.86910
3706.70083	0.86963
3704.77227	0.86881
3702.84370	0.86753
3700.91514	0.86716
3698.98658	0.86792
3697.05801	0.86982
3695.12945	0.87160
3693.20088	0.87213
3691.27232	0.87259
3689.34375	0.87399
3687.41519	0.87618
3685.48662	0.87834
3683.55806	0.88025
3681.62950	0.88246
3679.70093	0.88409
3677.77237	0.88439
3675.84380	0.88765
3673.91524	0.89097
3671.98667	0.88989
3670.05811	0.89404
3668.12954	0.90426
3666.20098	0.91086
3664.27242	0.91525
3662.34385	0.92014
3660.41529	0.92532
3658.48672	0.93020
3656.55816	0.93660
3654.62959	0.94234
3652.70103	0.94497
3650.77246	0.94933
3648.84390	0.96243
3646.91534	0.97502
3644.98677	0.98167
3643.05821	0.98673
3641.12964	0.99257
3639.20108	1.00010
3637.27251	1.00898
3635.34395	1.01737
3633.41538	1.02354
3631.48682	1.02860
3629.55826	1.03817
3627.62969	1.04910
3625.70113	1.05421
3623.77256	1.05920
3621.84400	1.06546
3619.91543	1.07297
3617.98687	1.08076
3616.05830	1.08659
3614.12974	1.09374
3612.20118	1.10153
3610.27261	1.10565
3608.34405	1.11098
3606.41548	1.12088
3604.48692	1.13021
3602.55835	1.13825
3600.62979	1.14399
3598.70123	1.14477
3596.77266	1.14555
3594.84410	1.15282
3592.91553	1.16283
3590.98697	1.16886
3589.05840	1.17458
3587.12984	1.18764
3585.20127	1.20168
3583.27271	1.20866
3581.34415	1.21084
3579.41558	1.21253
3577.48702	1.21738
3575.55845	1.22589
3573.62989	1.23543
3571.70132	1.24371
3569.77276	1.24924
3567.84419	1.25368
3565.91563	1.26180
3563.98707	1.27104
3562.05850	1.27816
3560.12994	1.28151
3558.20137	1.28201
3556.27281	1.28430
3554.34424	1.29194
3552.41568	1.30307
3550.48711	1.31021
3548.55855	1.31292
3546.62999	1.31862
3544.70142	1.33117
3542.77286	1.34297
3540.84429	1.34813
3538.91573	1.35081
3536.98716	1.35442
3535.05860	1.35714
3533.13003	1.35954
3531.20147	1.36393
3529.27291	1.36982
3527.34434	1.37760
3525.41578	1.38660
3523.48721	1.39171
3521.55865	1.39212
3519.63008	1.39313
3517.70152	1.39792
3515.77295	1.40554
3513.84439	1.41140
3511.91583	1.41160
3509.98726	1.41048
3508.05870	1.41464
3506.13013	1.42367
3504.20157	1.43735
3502.27300	1.45115
3500.34444	1.45692
3498.41587	1.45682
3496.48731	1.45442
3494.55875	1.45269
3492.63018	1.45746
3490.70162	1.46906
3488.77305	1.47984
3486.84449	1.48346
3484.91592	1.48226
3482.98736	1.48389
3481.05879	1.49240
3479.13023	1.50102
3477.20167	1.50206
3475.27310	1.49755
3473.34454	1.49427
3471.41597	1.49455
3469.48741	1.49674
3467.55884	1.50049
3465.63028	1.50510
3463.70171	1.50846
3461.77315	1.51006
3459.84459	1.51120
3457.91602	1.51452
3455.98746	1.52031
3454.05889	1.52314
3452.13033	1.52126
3450.20176	1.52078
3448.27320	1.52345
3446.34464	1.52374
3444.41607	1.51975
3442.48751	1.51774
3440.55894	1.52514
3438.63038	1.54066
3436.70181	1.55292
3434.77325	1.55405
3432.84468	1.54968
3430.91612	1.54736
3428.98756	1.54714
3427.05899	1.54819
3425.13043	1.54999
3423.20186	1.54988
3421.27330	1.54942
3419.34473	1.55364
3417.41617	1.56018
3415.48760	1.56127
3413.55904	1.55781
3411.63048	1.55772
3409.70191	1.56079
3407.77335	1.56251
3405.84478	1.56319
3403.91622	1.56504
3401.98765	1.56849
3400.05909	1.57052
3398.13052	1.56843
3396.20196	1.56532
3394.27340	1.56671
3392.34483	1.57010
3390.41627	1.56846
3388.48770	1.56783
3386.55914	1.57589
3384.63057	1.58420
3382.70201	1.58482
3380.77344	1.58279
3378.84488	1.58132
3376.91632	1.57989
3374.98775	1.58220
3373.05919	1.58732
3371.13062	1.58809
3369.20206	1.58733
3367.27349	1.58798
3365.34493	1.58463
3363.41636	1.58124
3361.48780	1.58241
3359.55924	1.58422
3357.63067	1.58663
3355.70211	1.59159
3353.77354	1.59662
3351.84498	1.60143
3349.91641	1.60744
3347.98785	1.60704
3346.05928	1.59778
3344.13072	1.59305
3342.20216	1.59841
3340.27359	1.60758
3338.34503	1.61485
3336.41646	1.61505
3334.48790	1.60767
3332.55933	1.60211
3330.63077	1.60700
3328.70220	1.62059
3326.77364	1.63249
3324.84508	1.63593
3322.91651	1.63842
3320.98795	1.64440
3319.05938	1.64534
3317.13082	1.63961
3315.20225	1.63422
3313.27369	1.63264
3311.34513	1.63419
3309.41656	1.63565
3307.48800	1.63443
3305.55943	1.63152
3303.63087	1.63113
3301.70230	1.63736
3299.77374	1.64749
3297.84517	1.65403
3295.91661	1.65809
3293.98805	1.66350
3292.05948	1.66516
3290.13092	1.66187
3288.20235	1.65935
3286.27379	1.65628
3284.34522	1.64767
3282.41666	1.63701
3280.48809	1.63133
3278.55953	1.62990
3276.63097	1.62759
3274.70240	1.62441
3272.77384	1.62407
3270.84527	1.62493
3268.91671	1.62339
3266.98814	1.62085
3265.05958	1.61806
3263.13101	1.61511
3261.20245	1.61381
3259.27389	1.61205
3257.34532	1.60687
3255.41676	1.60008
3253.48819	1.59470
3251.55963	1.59370
3249.63106	1.59752
3247.70250	1.59708
3245.77393	1.58557
3243.84537	1.57439
3241.91681	1.57281
3239.98824	1.57218
3238.05968	1.56675
3236.13111	1.56380
3234.20255	1.56567
3232.27398	1.56688
3230.34542	1.56713
3228.41685	1.56809
3226.48829	1.56698
3224.55973	1.56242
3222.63116	1.55601
3220.70260	1.55079
3218.77403	1.55032
3216.84547	1.55053
3214.91690	1.54428
3212.98834	1.53787
3211.05977	1.53872
3209.13121	1.54026
3207.20265	1.53659
3205.27408	1.53239
3203.34552	1.53278
3201.41695	1.53539
3199.48839	1.53576
3197.55982	1.53232
3195.63126	1.52486
3193.70269	1.51636
3191.77413	1.51082
3189.84557	1.50926
3187.91700	1.50921
3185.98844	1.50586
3184.05987	1.49881
3182.13131	1.49454
3180.20274	1.49652
3178.27418	1.49892
3176.34562	1.49491
3174.41705	1.48672
3172.48849	1.48205
3170.55992	1.48303
3168.63136	1.48354
3166.70279	1.47931
3164.77423	1.47152
3162.84566	1.46211
3160.91710	1.45500
3158.98854	1.45429
3157.05997	1.45600
3155.13141	1.45290
3153.20284	1.44657
3151.27428	1.44095
3149.34571	1.43653
3147.41715	1.43298
3145.48858	1.42953
3143.56002	1.42895
3141.63146	1.43312
3139.70289	1.43687
3137.77433	1.43506
3135.84576	1.42922
3133.91720	1.42489
3131.98863	1.42390
3130.06007	1.42324
3128.13150	1.42178
3126.20294	1.42050
3124.27438	1.41943
3122.34581	1.41905
3120.41725	1.41894
3118.48868	1.41732
3116.56012	1.41540
3114.63155	1.41678
3112.70299	1.42105
3110.77442	1.42260
3108.84586	1.42024
3106.91730	1.41956
3104.98873	1.42123
3103.06017	1.42035
3101.13160	1.41689
3099.20304	1.41517
3097.27447	1.41682
3095.34591	1.42033
3093.41734	1.42189
3091.48878	1.42034
3089.56022	1.42034
3087.63165	1.42191
3085.70309	1.41977
3083.77452	1.41616
3081.84596	1.41559
3079.91739	1.41481
3077.98883	1.41052
3076.06026	1.40486
3074.13170	1.40004
3072.20314	1.39677
3070.27457	1.39463
3068.34601	1.39264
3066.41744	1.39140
3064.48888	1.39060
3062.56031	1.38764
3060.63175	1.38331
3058.70318	1.38016
3056.77462	1.37715
3054.84606	1.37431
3052.91749	1.37275
3050.98893	1.36899
3049.06036	1.36171
3047.13180	1.35663
3045.20323	1.35545
3043.27467	1.35433
3041.34610	1.35186
3039.41754	1.34683
3037.48898	1.33939
3035.56041	1.33341
3033.63185	1.33015
3031.70328	1.32743
3029.77472	1.32449
3027.84615	1.32232
3025.91759	1.32040
3023.98903	1.31821
3022.06046	1.31756
3020.13190	1.31767
3018.20333	1.31588
3016.27477	1.31265
3014.34620	1.30881
3012.41764	1.30360
3010.48907	1.29808
3008.56051	1.29440
3006.63195	1.29233
3004.70338	1.29054
3002.77482	1.28916
3000.84625	1.28881
2998.91769	1.28850
2996.98912	1.28770
2995.06056	1.28762
2993.13199	1.28934
2991.20343	1.29376
2989.27487	1.29949
2987.34630	1.30296
2985.41774	1.30364
2983.48917	1.30417
2981.56061	1.30747
2979.63204	1.31459
2977.70348	1.32271
2975.77491	1.32932
2973.84635	1.33570
2971.91779	1.34285
2969.98922	1.35071
2968.06066	1.35893
2966.13209	1.36464
2964.20353	1.36682
2962.27496	1.36707
2960.34640	1.36551
2958.41783	1.36309
2956.48927	1.36059
2954.56071	1.35577
2952.63214	1.34774
2950.70358	1.33965
2948.77501	1.33567
2946.84645	1.33684
2944.91788	1.34023
2942.98932	1.34404
2941.06075	1.35071
2939.13219	1.36199
2937.20363	1.37461
2935.27506	1.38539
2933.34650	1.39465
2931.41793	1.40204
2929.48937	1.40988
2927.56080	1.42016
2925.63224	1.42847
2923.70367	1.43346
2921.77511	1.43850
2919.84655	1.44434
2917.91798	1.44499
2915.98942	1.43137
2914.06085	1.40579
2912.13229	1.37899
2910.20372	1.35616
2908.27516	1.33776
2906.34659	1.32517
2904.41803	1.31756
2902.48947	1.31095
2900.56090	1.30502
2898.63234	1.29998
2896.70377	1.29411
2894.77521	1.28843
2892.84664	1.28369
2890.91808	1.27904
2888.98952	1.27409
2887.06095	1.26911
2885.13239	1.26570
2883.20382	1.26451
2881.27526	1.26370
2879.34669	1.26186
2877.41813	1.26001
2875.48956	1.25975
2873.56100	1.26040
2871.63244	1.25964
2869.70387	1.25659
2867.77531	1.25216
2865.84674	1.24760
2863.91818	1.24473
2861.98961	1.24566
2860.06105	1.25073
2858.13248	1.25846
2856.20392	1.26865
2854.27536	1.28216
2852.34679	1.29763
2850.41823	1.30706
2848.48966	1.29652
2846.56110	1.26446
2844.63253	1.22762
2842.70397	1.19842
2840.77540	1.17774
2838.84684	1.16284
2836.91828	1.15108
2834.98971	1.14163
2833.06115	1.13456
2831.13258	1.12842
2829.20402	1.12228
2827.27545	1.11761
2825.34689	1.11399
2823.41832	1.10845
2821.48976	1.10168
2819.56120	1.09655
2817.63263	1.09271
2815.70407	1.08882
2813.77550	1.08455
2811.84694	1.08020
2809.91837	1.07636
2807.98981	1.07339
2806.06124	1.07087
2804.13268	1.06762
2802.20412	1.06337
2800.27555	1.05893
2798.34699	1.05457
2796.41842	1.05089
2794.48986	1.04870
2792.56129	1.04696
2790.63273	1.04497
2788.70416	1.04309
2786.77560	1.04038
2784.84704	1.03707
2782.91847	1.03474
2780.98991	1.03339
2779.06134	1.03240
2777.13278	1.03135
2775.20421	1.02973
2773.27565	1.02775
2771.34708	1.02630
2769.41852	1.02574
2767.48996	1.02567
2765.56139	1.02535
2763.63283	1.02416
2761.70426	1.02269
2759.77570	1.02189
2757.84713	1.02104
2755.91857	1.01898
2753.99001	1.01631
2752.06144	1.01449
2750.13288	1.01368
2748.20431	1.01322
2746.27575	1.01217
2744.34718	1.00983
2742.41862	1.00719
2740.49005	1.00545
2738.56149	1.00406
2736.63293	1.00262
2734.70436	1.00139
2732.77580	0.99957
2730.84723	0.99671
2728.91867	0.99371
2726.99010	0.99115
2725.06154	0.98879
2723.13297	0.98657
2721.20441	0.98429
2719.27585	0.98113
2717.34728	0.97746
2715.41872	0.97524
2713.49015	0.97480
2711.56159	0.97406
2709.63302	0.97217
2707.70446	0.97040
2705.77589	0.96895
2703.84733	0.96729
2701.91877	0.96567
2699.99020	0.96401
2698.06164	0.96205
2696.13307	0.96040
2694.20451	0.95945
2692.27594	0.95914
2690.34738	0.95905
2688.41881	0.95825
2686.49025	0.95709
2684.56169	0.95652
2682.63312	0.95579
2680.70456	0.95414
2678.77599	0.95237
2676.84743	0.95092
2674.91886	0.94915
2672.99030	0.94714
2671.06173	0.94549
2669.13317	0.94376
2667.20461	0.94180
2665.27604	0.94002
2663.34748	0.93820
2661.41891	0.93663
2659.49035	0.93593
2657.56178	0.93541
2655.63322	0.93428
2653.70465	0.93282
2651.77609	0.93099
2649.84753	0.92869
2647.91896	0.92655
2645.99040	0.92503
2644.06183	0.92379
2642.13327	0.92234
2640.20470	0.92046
2638.27614	0.91825
2636.34757	0.91629
2634.41901	0.91498
2632.49045	0.91369
2630.56188	0.91182
2628.63332	0.91010
2626.70475	0.90906
2624.77619	0.90771
2622.84762	0.90593
2620.91906	0.90476
2618.99049	0.90415
2617.06193	0.90350
2615.13337	0.90252
2613.20480	0.90106
2611.27624	0.89964
2609.34767	0.89882
2607.41911	0.89823
2605.49054	0.89746
2603.56198	0.89666
2601.63342	0.89596
2599.70485	0.89534
2597.77629	0.89408
2595.84772	0.89167
2593.91916	0.88948
2591.99059	0.88840
2590.06203	0.88793
2588.13346	0.88743
2586.20490	0.88624
2584.27634	0.88426
2582.34777	0.88227
2580.41921	0.88069
2578.49064	0.87930
2576.56208	0.87760
2574.63351	0.87555
2572.70495	0.87360
2570.77638	0.87172
2568.84782	0.86964
2566.91926	0.86744
2564.99069	0.86523
2563.06213	0.86295
2561.13356	0.86040
2559.20500	0.85773
2557.27643	0.85542
2555.34787	0.85331
2553.41930	0.85069
2551.49074	0.84754
2549.56218	0.84476
2547.63361	0.84280
2545.70505	0.84140
2543.77648	0.84009
2541.84792	0.83836
2539.91935	0.83664
2537.99079	0.83565
2536.06222	0.83485
2534.13366	0.83349
2532.20510	0.83192
2530.27653	0.83055
2528.34797	0.82934
2526.41940	0.82846
2524.49084	0.82795
2522.56227	0.82737
2520.63371	0.82645
2518.70514	0.82561
2516.77658	0.82552
2514.84802	0.82560
2512.91945	0.82499
2510.99089	0.82424
2509.06232	0.82398
2507.13376	0.82383
2505.20519	0.82316
2503.27663	0.82211
2501.34806	0.82123
2499.41950	0.82043
2497.49094	0.81942
2495.56237	0.81810
2493.63381	0.81641
2491.70524	0.81484
2489.77668	0.81350
2487.84811	0.81170
2485.91955	0.80957
2483.99098	0.80766
2482.06242	0.80582
2480.13386	0.80383
2478.20529	0.80194
2476.27673	0.80031
2474.34816	0.79876
2472.41960	0.79713
2470.49103	0.79550
2468.56247	0.79372
2466.63391	0.79139
2464.70534	0.78878
2462.77678	0.78662
2460.84821	0.78513
2458.91965	0.78414
2456.99108	0.78308
2455.06252	0.78141
2453.13395	0.77955
2451.20539	0.77820
2449.27683	0.77718
2447.34826	0.77602
2445.41970	0.77480
2443.49113	0.77391
2441.56257	0.77335
2439.63400	0.77280
2437.70544	0.77232
2435.77687	0.77201
2433.84831	0.77149
2431.91975	0.77057
2429.99118	0.76978
2428.06262	0.76933
2426.13405	0.76887
2424.20549	0.76803
2422.27692	0.76664
2420.34836	0.76545
2418.41979	0.76511
2416.49123	0.76469
2414.56267	0.76323
2412.63410	0.76116
2410.70554	0.75944
2408.77697	0.75821
2406.84841	0.75683
2404.91984	0.75512
2402.99128	0.75321
2401.06271	0.75143
2399.13415	0.74997
2397.20559	0.74827
2395.27702	0.74603
2393.34846	0.74393
2391.41989	0.74206
2389.49133	0.73984
2387.56276	0.73738
2385.63420	0.73508
2383.70563	0.73300
2381.77707	0.73116
2379.84851	0.72923
2377.91994	0.72706
2375.99138	0.72468
2374.06281	0.72179
2372.13425	0.71967
2370.20568	0.71904
2368.27712	0.71640
2366.34855	0.71127
2364.41999	0.70821
2362.49143	0.70641
2360.56286	0.70347
2358.63430	0.70344
2356.70573	0.70744
2354.77717	0.71188
2352.84860	0.71596
2350.92004	0.71838
2348.99147	0.71824
2347.06291	0.71684
2345.13435	0.71595
2343.20578	0.71634
2341.27722	0.71631
2339.34865	0.71432
2337.42009	0.71145
2335.49152	0.70956
2333.56296	0.70930
2331.63440	0.71048
2329.70583	0.71179
2327.77727	0.71215
2325.84870	0.71193
2323.92014	0.71160
2321.99157	0.71175
2320.06301	0.71231
2318.13444	0.71225
2316.20588	0.71159
2314.27732	0.71054
2312.34875	0.70879
2310.42019	0.70709
2308.49162	0.70600
2306.56306	0.70483
2304.63449	0.70328
2302.70593	0.70188
2300.77736	0.70070
2298.84880	0.69955
2296.92024	0.69840
2294.99167	0.69701
2293.06311	0.69533
2291.13454	0.69365
2289.20598	0.69213
2287.27741	0.69084
2285.34885	0.68975
2283.42028	0.68855
2281.49172	0.68714
2279.56316	0.68583
2277.63459	0.68495
2275.70603	0.68447
2273.77746	0.68410
2271.84890	0.68354
2269.92033	0.68267
2267.99177	0.68179
2266.06320	0.68141
2264.13464	0.68160
2262.20608	0.68194
2260.27751	0.68187
2258.34895	0.68142
2256.42038	0.68117
2254.49182	0.68123
2252.56325	0.68122
2250.63469	0.68104
2248.70612	0.68095
2246.77756	0.68118
2244.84900	0.68146
2242.92043	0.68132
2240.99187	0.68090
2239.06330	0.68052
2237.13474	0.68020
2235.20617	0.67983
2233.27761	0.67932
2231.34904	0.67877
2229.42048	0.67844
2227.49192	0.67819
2225.56335	0.67770
2223.63479	0.67705
2221.70622	0.67646
2219.77766	0.67589
2217.84909	0.67522
2215.92053	0.67439
2213.99196	0.67332
2212.06340	0.67212
2210.13484	0.67110
2208.20627	0.67020
2206.27771	0.66921
2204.34914	0.66816
2202.42058	0.66729
2200.49201	0.66664
2198.56345	0.66590
2196.63488	0.66488
2194.70632	0.66388
2192.77776	0.66308
2190.84919	0.66231
2188.92063	0.66137
2186.99206	0.66010
2185.06350	0.65871
2183.13493	0.65758
2181.20637	0.65658
2179.27781	0.65561
2177.34924	0.65472
2175.42068	0.65368
2173.49211	0.65254
2171.56355	0.65162
2169.63498	0.65074
2167.70642	0.64966
2165.77785	0.64844
2163.84929	0.64711
2161.92073	0.64572
2159.99216	0.64447
2158.06360	0.64356
2156.13503	0.64287
2154.20647	0.64206
2152.27790	0.64106
2150.34934	0.64004
2148.42077	0.63915
2146.49221	0.63850
2144.56365	0.63783
2142.63508	0.63695
2140.70652	0.63610
2138.77795	0.63553
2136.84939	0.63512
2134.92082	0.63458
2132.99226	0.63392
2131.06369	0.63346
2129.13513	0.63320
2127.20657	0.63304
2125.27800	0.63295
2123.34944	0.63287
2121.42087	0.63281
2119.49231	0.63274
2117.56374	0.63253
2115.63518	0.63208
2113.70661	0.63169
2111.77805	0.63169
2109.84949	0.63190
2107.92092	0.63186
2105.99236	0.63142
2104.06379	0.63095
2102.13523	0.63082
2100.20666	0.63082
2098.27810	0.63063
2096.34953	0.63042
2094.42097	0.63038
2092.49241	0.63038
2090.56384	0.63025
2088.63528	0.62978
2086.70671	0.62886
2084.77815	0.62788
2082.84958	0.62724
2080.92102	0.62675
2078.99245	0.62603
2077.06389	0.62514
2075.13533	0.62433
2073.20676	0.62367
2071.27820	0.62294
2069.34963	0.62194
2067.42107	0.62085
2065.49250	0.61969
2063.56394	0.61839
2061.63537	0.61722
2059.70681	0.61636
2057.77825	0.61541
2055.84968	0.61409
2053.92112	0.61278
2051.99255	0.61157
2050.06399	0.61026
2048.13542	0.60905
2046.20686	0.60805
2044.27830	0.60713
2042.34973	0.60610
2040.42117	0.60496
2038.49260	0.60389
2036.56404	0.60287
2034.63547	0.60186
2032.70691	0.60102
2030.77834	0.60019
2028.84978	0.59916
2026.92122	0.59812
2024.99265	0.59717
2023.06409	0.59631
2021.13552	0.59571
2019.20696	0.59535
2017.27839	0.59480
2015.34983	0.59400
2013.42126	0.59339
2011.49270	0.59295
2009.56414	0.59239
2007.63557	0.59183
2005.70701	0.59123
2003.77844	0.59044
2001.84988	0.58962
1999.92131	0.58895
1997.99275	0.58844
1996.06418	0.58811
1994.13562	0.58776
1992.20706	0.58698
1990.27849	0.58574
1988.34993	0.58452
1986.42136	0.58350
1984.49280	0.58251
1982.56423	0.58143
1980.63567	0.58027
1978.70710	0.57919
1976.77854	0.57828
1974.84998	0.57733
1972.92141	0.57616
1970.99285	0.57488
1969.06428	0.57365
1967.13572	0.57249
1965.20715	0.57131
1963.27859	0.57012
1961.35002	0.56893
1959.42146	0.56778
1957.49290	0.56668
1955.56433	0.56557
1953.63577	0.56458
1951.70720	0.56377
1949.77864	0.56307
1947.85007	0.56230
1945.92151	0.56157
1943.99294	0.56118
1942.06438	0.56085
1940.13582	0.56017
1938.20725	0.55957
1936.27869	0.55945
1934.35012	0.55956
1932.42156	0.55965
1930.49299	0.55965
1928.56443	0.55963
1926.63586	0.55975
1924.70730	0.56008
1922.77874	0.56051
1920.85017	0.56060
1918.92161	0.56063
1916.99304	0.56098
1915.06448	0.56114
1913.13591	0.56121
1911.20735	0.56157
1909.27878	0.56194
1907.35022	0.56206
1905.42166	0.56199
1903.49309	0.56183
1901.56453	0.56165
1899.63596	0.56147
1897.70740	0.56125
1895.77883	0.56092
1893.85027	0.56024
1891.92171	0.55928
1889.99314	0.55824
1888.06458	0.55700
1886.13601	0.55556
1884.20745	0.55396
1882.27888	0.55227
1880.35032	0.55056
1878.42175	0.54865
1876.49319	0.54662
1874.56463	0.54468
1872.63606	0.54284
1870.70750	0.54116
1868.77893	0.53944
1866.85037	0.53720
1864.92180	0.53476
1862.99324	0.53264
1861.06467	0.53099
1859.13611	0.52959
1857.20755	0.52809
1855.27898	0.52657
1853.35042	0.52541
1851.42185	0.52457
1849.49329	0.52377
1847.56472	0.52299
1845.63616	0.52264
1843.70759	0.52271
1841.77903	0.52247
1839.85047	0.52205
1837.92190	0.52210
1835.99334	0.52252
1834.06477	0.52278
1832.13621	0.52313
1830.20764	0.52416
1828.27908	0.52519
1826.35051	0.52570
1824.42195	0.52624
1822.49339	0.52662
1820.56482	0.52683
1818.63626	0.52734
1816.70769	0.52802
1814.77913	0.52854
1812.85056	0.52902
1810.92200	0.52976
1808.99343	0.53051
1807.06487	0.53077
1805.13631	0.53077
1803.20774	0.53091
1801.27918	0.53131
1799.35061	0.53153
1797.42205	0.53135
1795.49348	0.53100
1793.56492	0.53079
1791.63635	0.53081
1789.70779	0.53029
1787.77923	0.52947
1785.85066	0.52891
1783.92210	0.52857
1781.99353	0.52824
1780.06497	0.52778
1778.13640	0.52712
1776.20784	0.52660
1774.27927	0.52678
1772.35071	0.52733
1770.42215	0.52697
1768.49358	0.52638
1766.56502	0.52630
1764.63645	0.52676
1762.70789	0.52824
1760.77932	0.53070
1758.85076	0.53336
1756.92220	0.53725
1754.99363	0.54201
1753.06507	0.54708
1751.13650	0.55495
1749.20794	0.56629
1747.27937	0.57677
1745.35081	0.58539
1743.42224	0.59359
1741.49368	0.60169
1739.56512	0.60913
1737.63655	0.61408
1735.70799	0.61794
1733.77942	0.62504
1731.85086	0.63185
1729.92229	0.63653
1727.99373	0.64189
1726.06516	0.64836
1724.13660	0.65678
1722.20804	0.66558
1720.27947	0.67375
1718.35091	0.68682
1716.42234	0.70830
1714.49378	0.72462
1712.56521	0.73643
1710.63665	0.74917
1708.70808	0.76390
1706.77952	0.78534
1704.85096	0.81434
1702.92239	0.84138
1700.99383	0.87996
1699.06526	0.94200
1697.13670	1.00043
1695.20813	1.05716
1693.27957	1.09866
1691.35100	1.13052
1689.42244	1.16867
1687.49388	1.20418
1685.56531	1.23982
1683.63675	1.29274
1681.70818	1.32869
1679.77962	1.34804
1677.85105	1.36540
1675.92249	1.38605
1673.99392	1.40970
1672.06536	1.42941
1670.13680	1.45063
1668.20823	1.47334
1666.27967	1.48494
1664.35110	1.49464
1662.42254	1.51054
1660.49397	1.52313
1658.56541	1.52866
1656.63684	1.53194
1654.70828	1.53790
1652.77972	1.54490
1650.85115	1.54327
1648.92259	1.54196
1646.99402	1.54603
1645.06546	1.54858
1643.13689	1.54398
1641.20833	1.53822
1639.27976	1.53271
1637.35120	1.52973
1635.42264	1.53356
1633.49407	1.53478
1631.56551	1.53142
1629.63694	1.52684
1627.70838	1.52234
1625.77981	1.51841
1623.85125	1.51442
1621.92269	1.50682
1619.99412	1.49695
1618.06556	1.48576
1616.13699	1.46974
1614.20843	1.45513
1612.27986	1.44315
1610.35130	1.43009
1608.42273	1.41591
1606.49417	1.40424
1604.56561	1.39480
1602.63704	1.38434
1600.70848	1.37511
1598.77991	1.36930
1596.85135	1.36523
1594.92278	1.36125
1592.99422	1.35751
1591.06565	1.35473
1589.13709	1.35290
1587.20853	1.35296
1585.27996	1.35601
1583.35140	1.36131
1581.42283	1.36675
1579.49427	1.37280
1577.56570	1.38452
1575.63714	1.40188
1573.70857	1.41017
1571.78001	1.41308
1569.85145	1.42028
1567.92288	1.43144
1565.99432	1.44115
1564.06575	1.44898
1562.13719	1.45297
1560.20862	1.45797
1558.28006	1.47335
1556.35149	1.48041
1554.42293	1.48394
1552.49437	1.48881
1550.56580	1.49306
1548.63724	1.49464
1546.70867	1.49414
1544.78011	1.49477
1542.85154	1.49780
1540.92298	1.49914
1538.99441	1.49578
1537.06585	1.49255
1535.13729	1.48974
1533.20872	1.48790
1531.28016	1.48690
1529.35159	1.48632
1527.42303	1.48593
1525.49446	1.48410
1523.56590	1.48026
1521.63733	1.47546
1519.70877	1.47241
1517.78021	1.46840
1515.85164	1.46074
1513.92308	1.45093
1511.99451	1.44033
1510.06595	1.43018
1508.13738	1.41463
1506.20882	1.38618
1504.28025	1.36948
1502.35169	1.35757
1500.42313	1.34250
1498.49456	1.32283
1496.56600	1.29919
1494.63743	1.27853
1492.70887	1.26238
1490.78030	1.24361
1488.85174	1.22061
1486.92317	1.20357
1484.99461	1.19180
1483.06605	1.18251
1481.13748	1.17602
1479.20892	1.17262
1477.28035	1.17235
1475.35179	1.17726
1473.42322	1.19127
1471.49466	1.20668
1469.56610	1.21284
1467.63753	1.21634
1465.70897	1.22304
1463.78040	1.23044
1461.85184	1.23265
1459.92327	1.23195
1457.99471	1.23356
1456.06614	1.23943
1454.13758	1.24135
1452.20902	1.23973
1450.28045	1.23718
1448.35189	1.23521
1446.42332	1.23247
1444.49476	1.22737
1442.56619	1.22113
1440.63763	1.21527
1438.70906	1.20864
1436.78050	1.19729
1434.85194	1.18414
1432.92337	1.17431
1430.99481	1.16618
1429.06624	1.15989
1427.13768	1.15597
1425.20911	1.15340
1423.28055	1.15249
1421.35198	1.15453
1419.42342	1.16089
1417.49486	1.16827
1415.56629	1.17145
1413.63773	1.17343
1411.70916	1.17707
1409.78060	1.18197
1407.85203	1.18652
1405.92347	1.19119
1403.99490	1.19579
1402.06634	1.19879
1400.13778	1.20038
1398.20921	1.20099
1396.28065	1.20128
1394.35208	1.20152
1392.42352	1.20097
1390.49495	1.19971
1388.56639	1.19899
1386.63782	1.20052
1384.70926	1.20370
1382.78070	1.20660
1380.85213	1.20748
1378.92357	1.20540
1376.99500	1.20101
1375.06644	1.19347
1373.13787	1.18143
1371.20931	1.16834
1369.28074	1.15504
1367.35218	1.14039
1365.42362	1.12587
1363.49505	1.11150
1361.56649	1.09818
1359.63792	1.08877
1357.70936	1.08230
1355.78079	1.07694
1353.85223	1.07247
1351.92366	1.06917
1349.99510	1.06678
1348.06654	1.06509
1346.13797	1.06388
1344.20941	1.06290
1342.28084	1.06200
1340.35228	1.06142
1338.42371	1.06166
1336.49515	1.06269
1334.56659	1.06454
1332.63802	1.06777
1330.70946	1.07222
1328.78089	1.07652
1326.85233	1.07982
1324.92376	1.08206
1322.99520	1.08346
1321.06663	1.08518
1319.13807	1.08796
1317.20951	1.09082
1315.28094	1.09293
1313.35238	1.09446
1311.42381	1.09546
1309.49525	1.09591
1307.56668	1.09563
1305.63812	1.09470
1303.70955	1.09360
1301.78099	1.09237
1299.85243	1.09079
1297.92386	1.08883
1295.99530	1.08702
1294.06673	1.08586
1292.13817	1.08527
1290.20960	1.08496
1288.28104	1.08464
1286.35247	1.08441
1284.42391	1.08409
1282.49535	1.08302
1280.56678	1.08166
1278.63822	1.08100
1276.70965	1.08096
1274.78109	1.08158
1272.85252	1.08327
1270.92396	1.08592
1268.99539	1.08951
1267.06683	1.09373
1265.13827	1.09791
1263.20970	1.10166
1261.28114	1.10462
1259.35257	1.10696
1257.42401	1.10930
1255.49544	1.11184
1253.56688	1.11442
1251.63831	1.11703
1249.70975	1.11963
1247.78119	1.12184
1245.85262	1.12356
1243.92406	1.12500
1241.99549	1.12592
1240.06693	1.12556
1238.13836	1.12342
1236.20980	1.11994
1234.28123	1.11598
1232.35267	1.11150
1230.42411	1.10549
1228.49554	1.09794
1226.56698	1.09052
1224.63841	1.08358
1222.70985	1.07586
1220.78128	1.06766
1218.85272	1.05986
1216.92415	1.05218
1214.99559	1.04483
1213.06703	1.03886
1211.13846	1.03489
1209.20990	1.03244
1207.28133	1.02991
1205.35277	1.02530
1203.42420	1.01793
1201.49564	1.00910
1199.56708	0.99980
1197.63851	0.98960
1195.70995	0.97860
1193.78138	0.96814
1191.85282	0.95954
1189.92425	0.95257
1187.99569	0.94600
1186.06712	0.93950
1184.13856	0.93404
1182.21000	0.93031
1180.28143	0.92822
1178.35287	0.92782
1176.42430	0.92905
1174.49574	0.93106
1172.56717	0.93297
1170.63861	0.93477
1168.71004	0.93702
1166.78148	0.94086
1164.85292	0.94742
1162.92435	0.95570
1160.99579	0.96248
1159.06722	0.96552
1157.13866	0.96471
1155.21009	0.95994
1153.28153	0.95063
1151.35296	0.93792
1149.42440	0.92400
1147.49584	0.91033
1145.56727	0.89817
1143.63871	0.88919
1141.71014	0.88439
1139.78158	0.88335
1137.85301	0.88530
1135.92445	0.88990
1133.99588	0.89679
1132.06732	0.90579
1130.13876	0.91699
1128.21019	0.93013
1126.28163	0.94402
1124.35306	0.95709
1122.42450	0.96845
1120.49593	0.97740
1118.56737	0.98354
1116.63880	0.98709
1114.71024	0.98718
1112.78168	0.98342
1110.85311	0.97779
1108.92455	0.97206
1106.99598	0.96694
1105.06742	0.96280
1103.13885	0.95941
1101.21029	0.95746
1099.28172	0.95807
1097.35316	0.96067
1095.42460	0.96523
1093.49603	0.97283
1091.56747	0.98258
1089.63890	0.99303
1087.71034	1.00456
1085.78177	1.01729
1083.85321	1.03014
1081.92464	1.04136
1079.99608	1.04908
1078.06752	1.05266
1076.13895	1.05247
1074.21039	1.04916
1072.28182	1.04359
1070.35326	1.03597
1068.42469	1.02652
1066.49613	1.01639
1064.56756	1.00644
1062.63900	0.99628
1060.71044	0.98535
1058.78187	0.97353
1056.85331	0.96119
1054.92474	0.94930
1052.99618	0.93834
1051.06761	0.92848
1049.13905	0.92024
1047.21049	0.91433
1045.28192	0.91174
1043.35336	0.91281
1041.42479	0.91596
1039.49623	0.91854
1037.56766	0.91897
1035.63910	0.91756
1033.71053	0.91509
1031.78197	0.91181
1029.85341	0.90696
1027.92484	0.89984
1025.99628	0.89143
1024.06771	0.88267
1022.13915	0.87393
1020.21058	0.86624
1018.28202	0.86023
1016.35345	0.85475
1014.42489	0.84752
1012.49633	0.83679
1010.56776	0.82272
1008.63920	0.80685
1006.71063	0.79116
1004.78207	0.77726
1002.85350	0.76529
1000.92494	0.75471
998.99637	0.74616
997.06781	0.74000
995.13925	0.73478
993.21068	0.72918
991.28212	0.72300
989.35355	0.71638
987.42499	0.71019
985.49642	0.70547
983.56786	0.70263
981.63929	0.70198
979.71073	0.70353
977.78217	0.70608
975.85360	0.70789
973.92504	0.70776
971.99647	0.70514
970.06791	0.69989
968.13934	0.69259
966.21078	0.68495
964.28221	0.67875
962.35365	0.67500
960.42509	0.67483
958.49652	0.67843
956.56796	0.68290
954.63939	0.68394
952.71083	0.67962
950.78226	0.67138
948.85370	0.66221
946.92513	0.65438
944.99657	0.64868
943.06801	0.64487
941.13944	0.64222
939.21088	0.64023
937.28231	0.63894
935.35375	0.63821
933.42518	0.63770
931.49662	0.63733
929.56805	0.63724
927.63949	0.63767
925.71093	0.63893
923.78236	0.64110
921.85380	0.64387
919.92523	0.64660
917.99667	0.64855
916.06810	0.64944
914.13954	0.64960
912.21098	0.64954
910.28241	0.64966
908.35385	0.65018
906.42528	0.65126
904.49672	0.65305
902.56815	0.65515
900.63959	0.65681
898.71102	0.65778
896.78246	0.65828
894.85390	0.65827
892.92533	0.65748
890.99677	0.65620
889.06820	0.65507
887.13964	0.65424
885.21107	0.65359
883.28251	0.65324
881.35394	0.65308
879.42538	0.65261
877.49682	0.65196
875.56825	0.65211
873.63969	0.65330
871.71112	0.65504
869.78256	0.65739
867.85399	0.66044
865.92543	0.66401
863.99686	0.66833
862.06830	0.67325
860.13974	0.67807
858.21117	0.68262
856.28261	0.68725
854.35404	0.69192
852.42548	0.69636
850.49691	0.70051
848.56835	0.70428
846.63978	0.70753
844.71122	0.71055
842.78266	0.71386
840.85409	0.71768
838.92553	0.72180
836.99696	0.72589
835.06840	0.72981
833.13983	0.73345
831.21127	0.73684
829.28270	0.73990
827.35414	0.74218
825.42558	0.74363
823.49701	0.74453
821.56845	0.74510
819.63988	0.74544
817.71132	0.74572
815.78275	0.74624
813.85419	0.74688
811.92562	0.74688
809.99706	0.74612
808.06850	0.74502
806.13993	0.74353
804.21137	0.74186
802.28280	0.74082
800.35424	0.74057
798.42567	0.74048
796.49711	0.74034
794.56854	0.74050
792.63998	0.74106
790.71142	0.74249
788.78285	0.74563
786.85429	0.75027
784.92572	0.75545
782.99716	0.76023
781.06859	0.76403
779.14003	0.76733
777.21147	0.77065
775.28290	0.77401
773.35434	0.77825
771.42577	0.78394
769.49721	0.79016
767.56864	0.79613
765.64008	0.80205
763.71151	0.80814
761.78295	0.81444
759.85439	0.82123
757.92582	0.82863
755.99726	0.83610
754.06869	0.84321
752.14013	0.84982
750.21156	0.85581
748.28300	0.86130
746.35443	0.86642
744.42587	0.87114
742.49731	0.87550
740.56874	0.87949
738.64018	0.88323
736.71161	0.88739
734.78305	0.89198
732.85448	0.89641
730.92592	0.90083
728.99735	0.90527
727.06879	0.90946
725.14023	0.91355
723.21166	0.91780
721.28310	0.92171
719.35453	0.92374
717.42597	0.92359
715.49740	0.92279
713.56884	0.92242
711.64027	0.92244
709.71171	0.92316
707.78315	0.92488
705.85458	0.92663
703.92602	0.92767
701.99745	0.92843
700.06889	0.92875
698.14032	0.92807
696.21176	0.92699
694.28319	0.92577
692.35463	0.92392
690.42607	0.92178
688.49750	0.91920
686.56894	0.91598
684.64037	0.91363
682.71181	0.91339
680.78324	0.91365
678.85468	0.91308
676.92611	0.91344
674.99755	0.91518
673.06899	0.91623
671.14042	0.91574
669.21186	0.91583
667.28329	0.92010
665.35473	0.92351
663.42616	0.92430
661.49760	0.92452
659.56903	0.92532
657.64047	0.92726
655.71191	0.93017
653.78334	0.93384
651.85478	0.93875
649.92621	0.94447
647.99765	0.94954
646.06908	0.95339
644.14052	0.95678
642.21195	0.96056
640.28339	0.96483
638.35483	0.96899
636.42626	0.97209
634.49770	0.97307
632.56913	0.97275
630.64057	0.97359
628.71200	0.97566
626.78344	0.97732
624.85488	0.97928
622.92631	0.98307
620.99775	0.98728
619.06918	0.98927
617.14062	0.98926
615.21205	0.99057
613.28349	0.99326
611.35492	0.99396
609.42636	0.99307
607.49780	0.99191
605.56923	0.98915
603.64067	0.98627
601.71210	0.98589
599.78354	0.98664
