3997.91406	0.94532
3995.98550	0.94588
3994.05693	0.94714
3992.12837	0.94683
3990.19980	0.94610
3988.27124	0.94610
3986.34268	0.94586
3984.41411	0.94512
3982.48555	0.94396
3980.55698	0.94243
3978.62842	0.94116
3976.69985	0.93981
3974.77129	0.93812
3972.84272	0.93762
3970.91416	0.93919
3968.98560	0.94074
3967.05703	0.94054
3965.12847	0.93983
3963.19990	0.93973
3961.27134	0.93936
3959.34277	0.93788
3957.41421	0.93683
3955.48564	0.93686
3953.55708	0.93549
3951.62852	0.93241
3949.69995	0.93036
3947.77139	0.92992
3945.84282	0.93007
3943.91426	0.93114
3941.98569	0.93250
3940.05713	0.93309
3938.12856	0.93344
3936.20000	0.93255
3934.27144	0.92996
3932.34287	0.92761
3930.41431	0.92515
3928.48574	0.92210
3926.55718	0.92195
3924.62861	0.92584
3922.70005	0.92919
3920.77148	0.92961
3918.84292	0.92837
3916.91436	0.92641
3914.98579	0.92392
3913.05723	0.92147
3911.12866	0.91988
3909.20010	0.91844
3907.27153	0.91692
3905.34297	0.91700
3903.41440	0.91786
3901.48584	0.91812
3899.55728	0.92016
3897.62871	0.92172
3895.70015	0.92021
3893.77158	0.91788
3891.84302	0.91744
3889.91445	0.91669
3887.98589	0.91459
3886.05733	0.91524
3884.12876	0.91772
3882.20020	0.91758
3880.27163	0.91645
3878.34307	0.91513
3876.41450	0.91444
3874.48594	0.91470
3872.55737	0.91340
3870.62881	0.91216
3868.70025	0.91263
3866.77168	0.91215
3864.84312	0.91183
3862.91455	0.91187
3860.98599	0.91041
3859.05742	0.90735
3857.12886	0.90316
3855.20029	0.90132
3853.27173	0.90787
3851.34317	0.91111
3849.41460	0.90888
3847.48604	0.90643
3845.55747	0.90491
3843.62891	0.90427
3841.70034	0.90276
3839.77178	0.90144
3837.84321	0.90280
3835.91465	0.90334
3833.98609	0.90192
3832.05752	0.89986
3830.12896	0.89739
3828.20039	0.89592
3826.27183	0.89601
3824.34326	0.89471
3822.41470	0.89250
3820.48613	0.89247
3818.55757	0.89149
3816.62901	0.89029
3814.70044	0.88978
3812.77188	0.88825
3810.84331	0.88691
3808.91475	0.88747
3806.98618	0.88990
3805.05762	0.89031
3803.12905	0.89005
3801.20049	0.89124
3799.27193	0.88982
3797.34336	0.88851
3795.41480	0.88858
3793.48623	0.88724
3791.55767	0.88558
3789.62910	0.88532
3787.70054	0.88597
3785.77197	0.88606
3783.84341	0.88392
3781.91485	0.88144
3779.98628	0.88168
3778.05772	0.88293
3776.12915	0.88222
3774.20059	0.87971
3772.27202	0.87728
3770.34346	0.87748
3768.41489	0.87700
3766.48633	0.87342
3764.55777	0.87107
3762.62920	0.87012
3760.70064	0.86890
3758.77207	0.86908
3756.84351	0.87066
3754.91494	0.87174
3752.98638	0.87254
3751.05781	0.87412
3749.12925	0.87383
3747.20069	0.87120
3745.27212	0.87048
3743.34356	0.87036
3741.41499	0.86683
3739.48643	0.86250
3737.55786	0.85997
3735.62930	0.86231
3733.70074	0.86878
3731.77217	0.87049
3729.84361	0.86711
3727.91504	0.86445
3725.98648	0.86619
3724.05791	0.86909
3722.12935	0.86912
3720.20078	0.86762
3718.27222	0.86605
3716.34366	0.86456
3714.41509	0.86326
3712.48653	0.86455
3710.55796	0.86950
3708.62940	0.87121
3706.70083	0.86960
3704.77227	0.86815
3702.84370	0.86966
3700.91514	0.87296
3698.98658	0.87448
3697.05801	0.87485
3695.12945	0.87359
3693.20088	0.87056
3691.27232	0.87097
3689.34375	0.88101
3687.41519	0.88976
3685.48662	0.89032
3683.55806	0.88762
3681.62950	0.88549
3679.70093	0.88586
3677.77237	0.88960
3675.84380	0.89868
3673.91524	0.90322
3671.98667	0.90216
3670.05811	0.90634
3668.12954	0.91132
3666.20098	0.91252
3664.27242	0.91549
3662.34385	0.92108
3660.41529	0.92550
3658.48672	0.92764
3656.55816	0.93168
3654.62959	0.93601
3652.70103	0.93802
3650.77246	0.94653
3648.84390	0.96807
3646.91534	0.97699
3644.98677	0.97560
3643.05821	0.97604
3641.12964	0.98122
3639.20108	0.98913
3637.27251	0.99570
3635.34395	1.00047
3633.41538	1.00527
3631.48682	1.01043
3629.55826	1.02285
3627.62969	1.04073
3625.70113	1.04616
3623.77256	1.04510
3621.84400	1.04687
3619.91543	1.05817
3617.98687	1.07112
3616.05830	1.07646
3614.12974	1.08241
3612.20118	1.09144
3610.27261	1.10021
3608.34405	1.10886
3606.41548	1.11568
3604.48692	1.12092
3602.55835	1.12814
3600.62979	1.13760
3598.70123	1.14683
3596.77266	1.15627
3594.84410	1.16729
3592.91553	1.17553
3590.98697	1.17853
3589.05840	1.18409
3587.12984	1.19849
3585.20127	1.20988
3583.27271	1.21475
3581.34415	1.22052
3579.41558	1.22916
3577.48702	1.23844
3575.55845	1.24659
3573.62989	1.25156
3571.70132	1.25399
3569.77276	1.25683
3567.84419	1.26535
3565.91563	1.28179
3563.98707	1.29497
3562.05850	1.30373
3560.12994	1.31092
3558.20137	1.31598
3556.27281	1.31847
3554.34424	1.32035
3552.41568	1.32679
3550.48711	1.33668
3548.55855	1.34600
3546.62999	1.35836
3544.70142	1.37075
3542.77286	1.37361
3540.84429	1.37216
3538.91573	1.37440
3536.98716	1.38094
3535.05860	1.38818
3533.13003	1.39047
3531.20147	1.39074
3529.27291	1.39710
3527.34434	1.40562
3525.41578	1.41190
3523.48721	1.42305
3521.55865	1.43577
3519.63008	1.44115
3517.70152	1.44522
3515.77295	1.45385
3513.84439	1.45928
3511.91583	1.45728
3509.98726	1.45756
3508.05870	1.46588
3506.13013	1.47705
3504.20157	1.48800
3502.27300	1.49447
3500.34444	1.49431
3498.41587	1.49440
3496.48731	1.49978
3494.55875	1.50779
3492.63018	1.51042
3490.70162	1.50849
3488.77305	1.51194
3486.84449	1.51775
3484.91592	1.51486
3482.98736	1.50878
3481.05879	1.50958
3479.13023	1.51630
3477.20167	1.52495
3475.27310	1.53217
3473.34454	1.53387
3471.41597	1.53290
3469.48741	1.53703
3467.55884	1.54511
3465.63028	1.54890
3463.70171	1.54543
3461.77315	1.53974
3459.84459	1.53924
3457.91602	1.54263
3455.98746	1.54476
3454.05889	1.54395
3452.13033	1.53937
3450.20176	1.53548
3448.27320	1.53872
3446.34464	1.54599
3444.41607	1.54897
3442.48751	1.54885
3440.55894	1.55042
3438.63038	1.55430
3436.70181	1.55939
3434.77325	1.56286
3432.84468	1.56358
3430.91612	1.56217
3428.98756	1.55694
3427.05899	1.54993
3425.13043	1.54936
3423.20186	1.55752
3421.27330	1.56517
3419.34473	1.56584
3417.41617	1.56401
3415.48760	1.56287
3413.55904	1.56152
3411.63048	1.56203
3409.70191	1.56591
3407.77335	1.56943
3405.84478	1.57048
3403.91622	1.56991
3401.98765	1.56946
3400.05909	1.57055
3398.13052	1.57094
3396.20196	1.56976
3394.27340	1.56817
3392.34483	1.56609
3390.41627	1.56611
3388.48770	1.56724
3386.55914	1.56378
3384.63057	1.55758
3382.70201	1.55596
3380.77344	1.56241
3378.84488	1.57245
3376.91632	1.57702
3374.98775	1.57670
3373.05919	1.57719
3371.13062	1.57682
3369.20206	1.57373
3367.27349	1.57021
3365.34493	1.56796
3363.41636	1.56681
3361.48780	1.56722
3359.55924	1.56934
3357.63067	1.56953
3355.70211	1.56620
3353.77354	1.56620
3351.84498	1.57389
3349.91641	1.58250
3347.98785	1.58462
3346.05928	1.58224
3344.13072	1.58038
3342.20216	1.57804
3340.27359	1.57339
3338.34503	1.57169
3336.41646	1.57606
3334.48790	1.58216
3332.55933	1.58559
3330.63077	1.58491
3328.70220	1.58285
3326.77364	1.58243
3324.84508	1.58276
3322.91651	1.58301
3320.98795	1.58393
3319.05938	1.58763
3317.13082	1.59319
3315.20225	1.59498
3313.27369	1.59201
3311.34513	1.58937
3309.41656	1.59113
3307.48800	1.59643
3305.55943	1.59954
3303.63087	1.59645
3301.70230	1.59116
3299.77374	1.58925
3297.84517	1.58911
3295.91661	1.58838
3293.98805	1.58819
3292.05948	1.58859
3290.13092	1.58844
3288.20235	1.58631
3286.27379	1.58252
3284.34522	1.57833
3282.41666	1.57587
3280.48809	1.57764
3278.55953	1.57852
3276.63097	1.57298
3274.70240	1.56737
3272.77384	1.56835
3270.84527	1.57179
3268.91671	1.57078
3266.98814	1.56427
3265.05958	1.55514
3263.13101	1.54719
3261.20245	1.54407
3259.27389	1.54521
3257.34532	1.54534
3255.41676	1.54379
3253.48819	1.54563
3251.55963	1.54936
3249.63106	1.54654
3247.70250	1.53655
3245.77393	1.52859
3243.84537	1.52723
3241.91681	1.52943
3239.98824	1.53148
3238.05968	1.53108
3236.13111	1.52934
3234.20255	1.52629
3232.27398	1.52113
3230.34542	1.51871
3228.41685	1.52239
3226.48829	1.52650
3224.55973	1.52284
3222.63116	1.51320
3220.70260	1.50699
3218.77403	1.50637
3216.84547	1.50566
3214.91690	1.50365
3212.98834	1.50655
3211.05977	1.51380
3209.13121	1.51456
3207.20265	1.50880
3205.27408	1.50588
3203.34552	1.50563
3201.41695	1.50495
3199.48839	1.50450
3197.55982	1.50329
3195.63126	1.50057
3193.70269	1.49679
3191.77413	1.49276
3189.84557	1.49089
3187.91700	1.49053
3185.98844	1.48988
3184.05987	1.48992
3182.13131	1.48773
3180.20274	1.48253
3178.27418	1.48094
3176.34562	1.48299
3174.41705	1.48233
3172.48849	1.47787
3170.55992	1.47423
3168.63136	1.47404
3166.70279	1.47302
3164.77423	1.46911
3162.84566	1.46645
3160.91710	1.46717
3158.98854	1.46725
3157.05997	1.46220
3155.13141	1.45682
3153.20284	1.45606
3151.27428	1.45579
3149.34571	1.45431
3147.41715	1.45412
3145.48858	1.45502
3143.56002	1.45572
3141.63146	1.45547
3139.70289	1.45503
3137.77433	1.45466
3135.84576	1.45131
3133.91720	1.44606
3131.98863	1.44444
3130.06007	1.44586
3128.13150	1.44672
3126.20294	1.44658
3124.27438	1.44441
3122.34581	1.44047
3120.41725	1.43829
3118.48868	1.43757
3116.56012	1.43595
3114.63155	1.43566
3112.70299	1.43716
3110.77442	1.43644
3108.84586	1.43183
3106.91730	1.42676
3104.98873	1.42486
3103.06017	1.42516
3101.13160	1.42718
3099.20304	1.43018
3097.27447	1.42964
3095.34591	1.42486
3093.41734	1.41893
3091.48878	1.41369
3089.56022	1.41150
3087.63165	1.41330
3085.70309	1.41401
3083.77452	1.41020
3081.84596	1.40745
3079.91739	1.40864
3077.98883	1.40908
3076.06026	1.40761
3074.13170	1.40691
3072.20314	1.40573
3070.27457	1.40190
3068.34601	1.39814
3066.41744	1.39673
3064.48888	1.39548
3062.56031	1.39355
3060.63175	1.39200
3058.70318	1.38971
3056.77462	1.38600
3054.84606	1.38266
3052.91749	1.38021
3050.98893	1.37824
3049.06036	1.37630
3047.13180	1.37218
3045.20323	1.36641
3043.27467	1.36337
3041.34610	1.36374
3039.41754	1.36317
3037.48898	1.35883
3035.56041	1.35298
3033.63185	1.34809
3031.70328	1.34329
3029.77472	1.33810
3027.84615	1.33386
3025.91759	1.33127
3023.98903	1.32931
3022.06046	1.32695
3020.13190	1.32425
3018.20333	1.32106
3016.27477	1.31810
3014.34620	1.31635
3012.41764	1.31518
3010.48907	1.31362
3008.56051	1.31152
3006.63195	1.31042
3004.70338	1.31138
3002.77482	1.31247
3000.84625	1.31156
2998.91769	1.30966
2996.98912	1.30968
2995.06056	1.31198
2993.13199	1.31531
2991.20343	1.31969
2989.27487	1.32429
2987.34630	1.32794
2985.41774	1.33129
2983.48917	1.33414
2981.56061	1.33606
2979.63204	1.33961
2977.70348	1.34575
2975.77491	1.35127
2973.84635	1.35599
2971.91779	1.36291
2969.98922	1.37152
2968.06066	1.37844
2966.13209	1.38182
2964.20353	1.38319
2962.27496	1.38492
2960.34640	1.38671
2958.41783	1.38728
2956.48927	1.38485
2954.56071	1.37920
2952.63214	1.37501
2950.70358	1.37470
2948.77501	1.37618
2946.84645	1.37948
2944.91788	1.38537
2942.98932	1.39282
2941.06075	1.40122
2939.13219	1.40980
2937.20363	1.41725
2935.27506	1.42490
2933.34650	1.43467
2931.41793	1.44392
2929.48937	1.44965
2927.56080	1.45394
2925.63224	1.45975
2923.70367	1.46584
2921.77511	1.46893
2919.84655	1.46670
2917.91798	1.45683
2915.98942	1.43880
2914.06085	1.41725
2912.13229	1.39743
2910.20372	1.37953
2908.27516	1.36292
2906.34659	1.34996
2904.41803	1.34160
2902.48947	1.33541
2900.56090	1.32897
2898.63234	1.32231
2896.70377	1.31641
2894.77521	1.31179
2892.84664	1.30898
2890.91808	1.30690
2888.98952	1.30357
2887.06095	1.29990
2885.13239	1.29912
2883.20382	1.30106
2881.27526	1.30269
2879.34669	1.30359
2877.41813	1.30396
2875.48956	1.30373
2873.56100	1.30349
2871.63244	1.30152
2869.70387	1.29701
2867.77531	1.29345
2865.84674	1.29263
2863.91818	1.29292
2861.98961	1.29452
2860.06105	1.29793
2858.13248	1.30229
2856.20392	1.30846
2854.27536	1.31701
2852.34679	1.32624
2850.41823	1.32949
2848.48966	1.31644
2846.56110	1.28809
2844.63253	1.25779
2842.70397	1.23458
2840.77540	1.21884
2838.84684	1.20793
2836.91828	1.19920
2834.98971	1.19143
2833.06115	1.18506
2831.13258	1.17996
2829.20402	1.17501
2827.27545	1.17010
2825.34689	1.16583
2823.41832	1.16228
2821.48976	1.15903
2819.56120	1.15608
2817.63263	1.15348
2815.70407	1.15047
2813.77550	1.14711
2811.84694	1.14399
2809.91837	1.14164
2807.98981	1.13980
2806.06124	1.13646
2804.13268	1.13204
2802.20412	1.12840
2800.27555	1.12485
2798.34699	1.12135
2796.41842	1.11872
2794.48986	1.11652
2792.56129	1.11402
2790.63273	1.11056
2788.70416	1.10587
2786.77560	1.10099
2784.84704	1.09670
2782.91847	1.09275
2780.98991	1.09004
2779.06134	1.08870
2777.13278	1.08686
2775.20421	1.08406
2773.27565	1.08078
2771.34708	1.07771
2769.41852	1.07538
2767.48996	1.07290
2765.56139	1.07022
2763.63283	1.06799
2761.70426	1.06596
2759.77570	1.06416
2757.84713	1.06275
2755.91857	1.06081
2753.99001	1.05773
2752.06144	1.05445
2750.13288	1.05230
2748.20431	1.05123
2746.27575	1.05014
2744.34718	1.04886
2742.41862	1.04805
2740.49005	1.04719
2738.56149	1.04543
2736.63293	1.04287
2734.70436	1.03975
2732.77580	1.03632
2730.84723	1.03336
2728.91867	1.03088
2726.99010	1.02829
2725.06154	1.02625
2723.13297	1.02532
2721.20441	1.02446
2719.27585	1.02283
2717.34728	1.02055
2715.41872	1.01797
2713.49015	1.01548
2711.56159	1.01331
2709.63302	1.01195
2707.70446	1.01158
2705.77589	1.01046
2703.84733	1.00752
2701.91877	1.00504
2699.99020	1.00471
2698.06164	1.00517
2696.13307	1.00492
2694.20451	1.00355
2692.27594	1.00145
2690.34738	0.99949
2688.41881	0.99794
2686.49025	0.99668
2684.56169	0.99554
2682.63312	0.99410
2680.70456	0.99254
2678.77599	0.99119
2676.84743	0.98950
2674.91886	0.98724
2672.99030	0.98510
2671.06173	0.98337
2669.13317	0.98134
2667.20461	0.97875
2665.27604	0.97635
2663.34748	0.97440
2661.41891	0.97257
2659.49035	0.97087
2657.56178	0.96950
2655.63322	0.96812
2653.70465	0.96632
2651.77609	0.96431
2649.84753	0.96224
2647.91896	0.96006
2645.99040	0.95822
2644.06183	0.95671
2642.13327	0.95527
2640.20470	0.95383
2638.27614	0.95200
2636.34757	0.94961
2634.41901	0.94702
2632.49045	0.94438
2630.56188	0.94205
2628.63332	0.94014
2626.70475	0.93805
2624.77619	0.93578
2622.84762	0.93377
2620.91906	0.93147
2618.99049	0.92850
2617.06193	0.92567
2615.13337	0.92357
2613.20480	0.92152
2611.27624	0.91927
2609.34767	0.91738
2607.41911	0.91556
2605.49054	0.91343
2603.56198	0.91109
2601.63342	0.90846
2599.70485	0.90586
2597.77629	0.90396
2595.84772	0.90271
2593.91916	0.90174
2591.99059	0.90088
2590.06203	0.89967
2588.13346	0.89799
2586.20490	0.89623
2584.27634	0.89443
2582.34777	0.89303
2580.41921	0.89198
2578.49064	0.89015
2576.56208	0.88784
2574.63351	0.88654
2572.70495	0.88607
2570.77638	0.88519
2568.84782	0.88360
2566.91926	0.88182
2564.99069	0.88053
2563.06213	0.87987
2561.13356	0.87892
2559.20500	0.87718
2557.27643	0.87564
2555.34787	0.87499
2553.41930	0.87429
2551.49074	0.87267
2549.56218	0.87084
2547.63361	0.86929
2545.70505	0.86741
2543.77648	0.86528
2541.84792	0.86349
2539.91935	0.86214
2537.99079	0.86122
2536.06222	0.86049
2534.13366	0.85950
2532.20510	0.85848
2530.27653	0.85752
2528.34797	0.85626
2526.41940	0.85501
2524.49084	0.85421
2522.56227	0.85352
2520.63371	0.85275
2518.70514	0.85202
2516.77658	0.85113
2514.84802	0.85015
2512.91945	0.84955
2510.99089	0.84907
2509.06232	0.84805
2507.13376	0.84686
2505.20519	0.84562
2503.27663	0.84390
2501.34806	0.84196
2499.41950	0.84025
2497.49094	0.83893
2495.56237	0.83796
2493.63381	0.83649
2491.70524	0.83421
2489.77668	0.83219
2487.84811	0.83084
2485.91955	0.82968
2483.99098	0.82848
2482.06242	0.82680
2480.13386	0.82441
2478.20529	0.82214
2476.27673	0.82051
2474.34816	0.81936
2472.41960	0.81803
2470.49103	0.81604
2468.56247	0.81391
2466.63391	0.81219
2464.70534	0.81072
2462.77678	0.80903
2460.84821	0.80734
2458.91965	0.80617
2456.99108	0.80489
2455.06252	0.80268
2453.13395	0.80004
2451.20539	0.79783
2449.27683	0.79584
2447.34826	0.79339
2445.41970	0.79084
2443.49113	0.78880
2441.56257	0.78693
2439.63400	0.78504
2437.70544	0.78320
2435.77687	0.78111
2433.84831	0.77872
2431.91975	0.77636
2429.99118	0.77428
2428.06262	0.77237
2426.13405	0.77056
2424.20549	0.76918
2422.27692	0.76824
2420.34836	0.76712
2418.41979	0.76574
2416.49123	0.76455
2414.56267	0.76345
2412.63410	0.76195
2410.70554	0.76022
2408.77697	0.75879
2406.84841	0.75763
2404.91984	0.75634
2402.99128	0.75484
2401.06271	0.75357
2399.13415	0.75289
2397.20559	0.75245
2395.27702	0.75174
2393.34846	0.75058
2391.41989	0.74893
2389.49133	0.74709
2387.56276	0.74552
2385.63420	0.74400
2383.70563	0.74202
2381.77707	0.73960
2379.84851	0.73711
2377.91994	0.73495
2375.99138	0.73281
2374.06281	0.72939
2372.13425	0.72454
2370.20568	0.71984
2368.27712	0.71525
2366.34855	0.71134
2364.41999	0.71164
2362.49143	0.71463
2360.56286	0.71622
2358.63430	0.71737
2356.70573	0.71866
2354.77717	0.72030
2352.84860	0.72222
2350.92004	0.72192
2348.99147	0.71922
2347.06291	0.71569
2345.13435	0.71217
2343.20578	0.70960
2341.27722	0.70936
2339.34865	0.70997
2337.42009	0.70950
2335.49152	0.70886
2333.56296	0.70879
2331.63440	0.70946
2329.70583	0.71039
2327.77727	0.71048
2325.84870	0.70996
2323.92014	0.70898
2321.99157	0.70777
2320.06301	0.70654
2318.13444	0.70462
2316.20588	0.70267
2314.27732	0.70173
2312.34875	0.70138
2310.42019	0.70086
2308.49162	0.70014
2306.56306	0.69944
2304.63449	0.69881
2302.70593	0.69829
2300.77736	0.69804
2298.84880	0.69807
2296.92024	0.69810
2294.99167	0.69796
2293.06311	0.69779
2291.13454	0.69766
2289.20598	0.69762
2287.27741	0.69784
2285.34885	0.69840
2283.42028	0.69901
2281.49172	0.69937
2279.56316	0.69951
2277.63459	0.69960
2275.70603	0.69992
2273.77746	0.70039
2271.84890	0.70039
2269.92033	0.69977
2267.99177	0.69882
2266.06320	0.69787
2264.13464	0.69702
2262.20608	0.69589
2260.27751	0.69436
2258.34895	0.69286
2256.42038	0.69146
2254.49182	0.69003
2252.56325	0.68878
2250.63469	0.68755
2248.70612	0.68597
2246.77756	0.68427
2244.84900	0.68286
2242.92043	0.68188
2240.99187	0.68112
2239.06330	0.68018
2237.13474	0.67899
2235.20617	0.67802
2233.27761	0.67772
2231.34904	0.67764
2229.42048	0.67733
2227.49192	0.67701
2225.56335	0.67685
2223.63479	0.67686
2221.70622	0.67714
2219.77766	0.67750
2217.84909	0.67762
2215.92053	0.67762
2213.99196	0.67775
2212.06340	0.67806
2210.13484	0.67829
2208.20627	0.67794
2206.27771	0.67716
2204.34914	0.67634
2202.42058	0.67545
2200.49201	0.67455
2198.56345	0.67375
2196.63488	0.67301
2194.70632	0.67227
2192.77776	0.67141
2190.84919	0.67038
2188.92063	0.66921
2186.99206	0.66804
2185.06350	0.66714
2183.13493	0.66649
2181.20637	0.66575
2179.27781	0.66488
2177.34924	0.66401
2175.42068	0.66320
2173.49211	0.66265
2171.56355	0.66244
2169.63498	0.66252
2167.70642	0.66295
2165.77785	0.66358
2163.84929	0.66401
2161.92073	0.66425
2159.99216	0.66467
2158.06360	0.66536
2156.13503	0.66610
2154.20647	0.66680
2152.27790	0.66733
2150.34934	0.66762
2148.42077	0.66786
2146.49221	0.66805
2144.56365	0.66794
2142.63508	0.66761
2140.70652	0.66730
2138.77795	0.66714
2136.84939	0.66707
2134.92082	0.66696
2132.99226	0.66692
2131.06369	0.66681
2129.13513	0.66632
2127.20657	0.66574
2125.27800	0.66524
2123.34944	0.66459
2121.42087	0.66379
2119.49231	0.66292
2117.56374	0.66208
2115.63518	0.66130
2113.70661	0.66056
2111.77805	0.65999
2109.84949	0.65962
2107.92092	0.65925
2105.99236	0.65863
2104.06379	0.65794
2102.13523	0.65725
2100.20666	0.65645
2098.27810	0.65573
2096.34953	0.65526
2094.42097	0.65477
2092.49241	0.65395
2090.56384	0.65298
2088.63528	0.65208
2086.70671	0.65096
2084.77815	0.64954
2082.84958	0.64808
2080.92102	0.64673
2078.99245	0.64549
2077.06389	0.64412
2075.13533	0.64247
2073.20676	0.64069
2071.27820	0.63909
2069.34963	0.63780
2067.42107	0.63674
2065.49250	0.63576
2063.56394	0.63472
2061.63537	0.63350
2059.70681	0.63219
2057.77825	0.63093
2055.84968	0.62975
2053.92112	0.62858
2051.99255	0.62736
2050.06399	0.62604
2048.13542	0.62467
2046.20686	0.62342
2044.27830	0.62247
2042.34973	0.62172
2040.42117	0.62096
2038.49260	0.61990
2036.56404	0.61856
2034.63547	0.61735
2032.70691	0.61647
2030.77834	0.61575
2028.84978	0.61514
2026.92122	0.61455
2024.99265	0.61378
2023.06409	0.61302
2021.13552	0.61242
2019.20696	0.61197
2017.27839	0.61185
2015.34983	0.61170
2013.42126	0.61115
2011.49270	0.61062
2009.56414	0.61054
2007.63557	0.61098
2005.70701	0.61156
2003.77844	0.61176
2001.84988	0.61175
1999.92131	0.61196
1997.99275	0.61220
1996.06418	0.61236
1994.13562	0.61269
1992.20706	0.61313
1990.27849	0.61331
1988.34993	0.61316
1986.42136	0.61282
1984.49280	0.61256
1982.56423	0.61258
1980.63567	0.61254
1978.70710	0.61218
1976.77854	0.61165
1974.84998	0.61110
1972.92141	0.61047
1970.99285	0.60976
1969.06428	0.60916
1967.13572	0.60877
1965.20715	0.60846
1963.27859	0.60830
1961.35002	0.60821
1959.42146	0.60799
1957.49290	0.60777
1955.56433	0.60779
1953.63577	0.60783
1951.70720	0.60759
1949.77864	0.60726
1947.85007	0.60687
1945.92151	0.60633
1943.99294	0.60592
1942.06438	0.60556
1940.13582	0.60450
1938.20725	0.60287
1936.27869	0.60128
1934.35012	0.59992
1932.42156	0.59858
1930.49299	0.59691
1928.56443	0.59488
1926.63586	0.59278
1924.70730	0.59086
1922.77874	0.58888
1920.85017	0.58633
1918.92161	0.58355
1916.99304	0.58087
1915.06448	0.57807
1913.13591	0.57544
1911.20735	0.57349
1909.27878	0.57207
1907.35022	0.57059
1905.42166	0.56885
1903.49309	0.56723
1901.56453	0.56607
1899.63596	0.56534
1897.70740	0.56497
1895.77883	0.56501
1893.85027	0.56504
1891.92171	0.56502
1889.99314	0.56567
1888.06458	0.56648
1886.13601	0.56664
1884.20745	0.56675
1882.27888	0.56717
1880.35032	0.56763
1878.42175	0.56781
1876.49319	0.56774
1874.56463	0.56757
1872.63606	0.56740
1870.70750	0.56780
1868.77893	0.56918
1866.85037	0.56958
1864.92180	0.56842
1862.99324	0.56728
1861.06467	0.56660
1859.13611	0.56604
1857.20755	0.56522
1855.27898	0.56430
1853.35042	0.56370
1851.42185	0.56342
1849.49329	0.56328
1847.56472	0.56320
1845.63616	0.56375
1843.70759	0.56518
1841.77903	0.56588
1839.85047	0.56616
1837.92190	0.56741
1835.99334	0.56930
1834.06477	0.57076
1832.13621	0.57243
1830.20764	0.57585
1828.27908	0.57931
1826.35051	0.58124
1824.42195	0.58327
1822.49339	0.58519
1820.56482	0.58672
1818.63626	0.58857
1816.70769	0.59036
1814.77913	0.59153
1812.85056	0.59233
1810.92200	0.59313
1808.99343	0.59366
1807.06487	0.59351
1805.13631	0.59291
1803.20774	0.59246
1801.27918	0.59237
1799.35061	0.59183
1797.42205	0.59054
1795.49348	0.58914
1793.56492	0.58836
1791.63635	0.58806
1789.70779	0.58655
1787.77923	0.58461
1785.85066	0.58353
1783.92210	0.58324
1781.99353	0.58334
1780.06497	0.58375
1778.13640	0.58403
1776.20784	0.58422
1774.27927	0.58568
1772.35071	0.58921
1770.42215	0.59181
1768.49358	0.59296
1766.56502	0.59417
1764.63645	0.59558
1762.70789	0.59859
1760.77932	0.60327
1758.85076	0.60718
1756.92220	0.61148
1754.99363	0.61603
1753.06507	0.62036
1751.13650	0.62760
1749.20794	0.63818
1747.27937	0.64692
1745.35081	0.65335
1743.42224	0.65904
1741.49368	0.66472
1739.56512	0.67049
1737.63655	0.67428
1735.70799	0.67730
1733.77942	0.68455
1731.85086	0.69185
1729.92229	0.69665
1727.99373	0.70222
1726.06516	0.70922
1724.13660	0.71901
1722.20804	0.72973
1720.27947	0.73982
1718.35091	0.75602
1716.42234	0.78271
1714.49378	0.80269
1712.56521	0.81640
1710.63665	0.83083
1708.70808	0.84790
1706.77952	0.87254
1704.85096	0.90432
1702.92239	0.93257
1700.99383	0.97204
1699.06526	1.03612
1697.13670	1.09886
1695.20813	1.16332
1693.27957	1.21223
1691.35100	1.25147
1689.42244	1.30039
1687.49388	1.34676
1685.56531	1.39228
1683.63675	1.46117
1681.70818	1.51075
1679.77962	1.53781
1677.85105	1.56174
1675.92249	1.58845
1673.99392	1.61537
1672.06536	1.63593
1670.13680	1.65749
1668.20823	1.67966
1666.27967	1.68890
1664.35110	1.69447
1662.42254	1.70392
1660.49397	1.71081
1658.56541	1.71245
1656.63684	1.71038
1654.70828	1.70979
1652.77972	1.71520
1650.85115	1.71558
1648.92259	1.71234
1646.99402	1.70806
1645.06546	1.70217
1643.13689	1.69385
1641.20833	1.68587
1639.27976	1.67889
1637.35120	1.67430
1635.42264	1.67085
1633.49407	1.66253
1631.56551	1.65302
1629.63694	1.64347
1627.70838	1.63466
1625.77981	1.62321
1623.85125	1.60595
1621.92269	1.59038
1619.99412	1.58083
1618.06556	1.56795
1616.13699	1.54307
1614.20843	1.51985
1612.27986	1.50258
1610.35130	1.48579
1608.42273	1.46794
1606.49417	1.45156
1604.56561	1.43831
1602.63704	1.42657
1600.70848	1.41568
1598.77991	1.40590
1596.85135	1.39839
1594.92278	1.39356
1592.99422	1.39001
1591.06565	1.38763
1589.13709	1.38804
1587.20853	1.39216
1585.27996	1.39991
1583.35140	1.41075
1581.42283	1.42129
1579.49427	1.42917
1577.56570	1.44111
1575.63714	1.46558
1573.70857	1.48410
1571.78001	1.49442
1569.85145	1.51068
1567.92288	1.52945
1565.99432	1.54176
1564.06575	1.55093
1562.13719	1.55568
1560.20862	1.56351
1558.28006	1.59212
1556.35149	1.60416
1554.42293	1.60188
1552.49437	1.59867
1550.56580	1.59736
1548.63724	1.59630
1546.70867	1.59326
1544.78011	1.58844
1542.85154	1.58148
1540.92298	1.57191
1538.99441	1.56544
1537.06585	1.56196
1535.13729	1.55687
1533.20872	1.55000
1531.28016	1.54291
1529.35159	1.53569
1527.42303	1.52665
1525.49446	1.51741
1523.56590	1.51252
1521.63733	1.51033
1519.70877	1.50513
1517.78021	1.49211
1515.85164	1.47173
1513.92308	1.45143
1511.99451	1.43328
1510.06595	1.41755
1508.13738	1.39749
1506.20882	1.35986
1504.28025	1.33525
1502.35169	1.31937
1500.42313	1.30377
1498.49456	1.28693
1496.56600	1.26777
1494.63743	1.25101
1492.70887	1.23813
1490.78030	1.22493
1488.85174	1.21113
1486.92317	1.20145
1484.99461	1.19491
1483.06605	1.19105
1481.13748	1.19018
1479.20892	1.19157
1477.28035	1.19615
1475.35179	1.20653
1473.42322	1.22573
1471.49466	1.24600
1469.56610	1.25588
1467.63753	1.26152
1465.70897	1.26837
1463.78040	1.27546
1461.85184	1.27906
1459.92327	1.28100
1457.99471	1.28638
1456.06614	1.29297
1454.13758	1.29261
1452.20902	1.28953
1450.28045	1.28626
1448.35189	1.28342
1446.42332	1.27954
1444.49476	1.27384
1442.56619	1.26754
1440.63763	1.26172
1438.70906	1.25562
1436.78050	1.24690
1434.85194	1.23793
1432.92337	1.23173
1430.99481	1.22629
1429.06624	1.22172
1427.13768	1.22027
1425.20911	1.22231
1423.28055	1.22618
1421.35198	1.23014
1419.42342	1.23659
1417.49486	1.24502
1415.56629	1.25045
1413.63773	1.25370
1411.70916	1.25562
1409.78060	1.25686
1407.85203	1.25814
1405.92347	1.26021
1403.99490	1.26264
1402.06634	1.26388
1400.13778	1.26456
1398.20921	1.26482
1396.28065	1.26336
1394.35208	1.26045
1392.42352	1.25762
1390.49495	1.25591
1388.56639	1.25702
1386.63782	1.26194
1384.70926	1.26735
1382.78070	1.27117
1380.85213	1.27310
1378.92357	1.27212
1376.99500	1.26791
1375.06644	1.26077
1373.13787	1.25149
1371.20931	1.24218
1369.28074	1.23233
1367.35218	1.22096
1365.42362	1.20965
1363.49505	1.19918
1361.56649	1.19045
1359.63792	1.18430
1357.70936	1.17954
1355.78079	1.17520
1353.85223	1.17080
1351.92366	1.16642
1349.99510	1.16225
1348.06654	1.15834
1346.13797	1.15512
1344.20941	1.15272
1342.28084	1.15076
1340.35228	1.14900
1338.42371	1.14764
1336.49515	1.14732
1334.56659	1.14873
1332.63802	1.15153
1330.70946	1.15447
1328.78089	1.15694
1326.85233	1.15904
1324.92376	1.16093
1322.99520	1.16287
1321.06663	1.16473
1319.13807	1.16609
1317.20951	1.16719
1315.28094	1.16818
1313.35238	1.16864
1311.42381	1.16823
1309.49525	1.16716
1307.56668	1.16535
1305.63812	1.16240
1303.70955	1.15891
1301.78099	1.15552
1299.85243	1.15160
1297.92386	1.14622
1295.99530	1.14034
1294.06673	1.13596
1292.13817	1.13356
1290.20960	1.13255
1288.28104	1.13209
1286.35247	1.13166
1284.42391	1.13170
1282.49535	1.13232
1280.56678	1.13329
1278.63822	1.13479
1276.70965	1.13716
1274.78109	1.14124
1272.85252	1.14724
1270.92396	1.15398
1268.99539	1.16088
1267.06683	1.16794
1265.13827	1.17454
1263.20970	1.17982
1261.28114	1.18360
1259.35257	1.18578
1257.42401	1.18616
1255.49544	1.18579
1253.56688	1.18549
1251.63831	1.18462
1249.70975	1.18324
1247.78119	1.18197
1245.85262	1.18021
1243.92406	1.17689
1241.99549	1.17230
1240.06693	1.16731
1238.13836	1.16154
1236.20980	1.15449
1234.28123	1.14693
1232.35267	1.13961
1230.42411	1.13176
1228.49554	1.12285
1226.56698	1.11399
1224.63841	1.10600
1222.70985	1.09871
1220.78128	1.09196
1218.85272	1.08611
1216.92415	1.08181
1214.99559	1.07946
1213.06703	1.07983
1211.13846	1.08349
1209.20990	1.08866
1207.28133	1.09233
1205.35277	1.09294
1203.42420	1.09074
1201.49564	1.08691
1199.56708	1.08222
1197.63851	1.07641
1195.70995	1.06921
1193.78138	1.06067
1191.85282	1.05104
1189.92425	1.04126
1187.99569	1.03230
1186.06712	1.02401
1184.13856	1.01632
1182.21000	1.01022
1180.28143	1.00697
1178.35287	1.00713
1176.42430	1.01003
1174.49574	1.01463
1172.56717	1.02038
1170.63861	1.02729
1168.71004	1.03658
1166.78148	1.05049
1164.85292	1.07078
1162.92435	1.09555
1160.99579	1.11936
1159.06722	1.13825
1157.13866	1.15118
1155.21009	1.15703
1153.28153	1.15520
1151.35296	1.14797
1149.42440	1.13891
1147.49584	1.13000
1145.56727	1.12191
1143.63871	1.11580
1141.71014	1.11271
1139.78158	1.11289
1137.85301	1.11630
1135.92445	1.12154
1133.99588	1.12731
1132.06732	1.13432
1130.13876	1.14326
1128.21019	1.15354
1126.28163	1.16324
1124.35306	1.17081
1122.42450	1.17737
1120.49593	1.18406
1118.56737	1.19016
1116.63880	1.19437
1114.71024	1.19546
1112.78168	1.19399
1110.85311	1.19240
1108.92455	1.19137
1106.99598	1.18981
1105.06742	1.18821
1103.13885	1.18756
1101.21029	1.18819
1099.28172	1.19178
1097.35316	1.20024
1095.42460	1.21376
1093.49603	1.23246
1091.56747	1.25587
1089.63890	1.28218
1087.71034	1.31062
1085.78177	1.33967
1083.85321	1.36466
1081.92464	1.38084
1079.99608	1.38684
1078.06752	1.38657
1076.13895	1.38447
1074.21039	1.37887
1072.28182	1.36639
1070.35326	1.34972
1068.42469	1.33482
1066.49613	1.32355
1064.56756	1.31416
1062.63900	1.30590
1060.71044	1.29828
1058.78187	1.29100
1056.85331	1.28450
1054.92474	1.27822
1052.99618	1.27191
1051.06761	1.26672
1049.13905	1.26331
1047.21049	1.26157
1045.28192	1.26242
1043.35336	1.26688
1041.42479	1.27310
1039.49623	1.27826
1037.56766	1.28175
1035.63910	1.28341
1033.71053	1.28266
1031.78197	1.27923
1029.85341	1.27358
1027.92484	1.26598
1025.99628	1.25612
1024.06771	1.24467
1022.13915	1.23299
1020.21058	1.22227
1018.28202	1.21252
1016.35345	1.20172
1014.42489	1.18806
1012.49633	1.17154
1010.56776	1.15290
1008.63920	1.13273
1006.71063	1.11203
1004.78207	1.09210
1002.85350	1.07348
1000.92494	1.05602
998.99637	1.04024
997.06781	1.02693
995.13925	1.01498
993.21068	1.00225
991.28212	0.98755
989.35355	0.97001
987.42499	0.94945
985.49642	0.92757
983.56786	0.90684
981.63929	0.88884
979.71073	0.87421
977.78217	0.86315
975.85360	0.85517
973.92504	0.84852
971.99647	0.84145
970.06791	0.83409
968.13934	0.82764
966.21078	0.82340
964.28221	0.82267
962.35365	0.82678
960.42509	0.83679
958.49652	0.85153
956.56796	0.86626
954.63939	0.87576
952.71083	0.87862
950.78226	0.87711
948.85370	0.87416
946.92513	0.87170
944.99657	0.86992
943.06801	0.86803
941.13944	0.86596
939.21088	0.86365
937.28231	0.86049
935.35375	0.85658
933.42518	0.85239
931.49662	0.84812
929.56805	0.84404
927.63949	0.84040
925.71093	0.83774
923.78236	0.83616
921.85380	0.83457
919.92523	0.83233
917.99667	0.82954
916.06810	0.82666
914.13954	0.82475
912.21098	0.82459
910.28241	0.82633
908.35385	0.83007
906.42528	0.83602
904.49672	0.84396
902.56815	0.85280
900.63959	0.86163
898.71102	0.87004
896.78246	0.87723
894.85390	0.88305
892.92533	0.88770
890.99677	0.89041
889.06820	0.89114
887.13964	0.89113
885.21107	0.89148
883.28251	0.89236
881.35394	0.89286
879.42538	0.89264
877.49682	0.89248
875.56825	0.89236
873.63969	0.89145
871.71112	0.88972
869.78256	0.88806
867.85399	0.88717
865.92543	0.88687
863.99686	0.88686
862.06830	0.88716
860.13974	0.88782
858.21117	0.88942
856.28261	0.89234
854.35404	0.89571
852.42548	0.89919
850.49691	0.90331
848.56835	0.90782
846.63978	0.91242
844.71122	0.91716
842.78266	0.92191
840.85409	0.92676
838.92553	0.93177
836.99696	0.93674
835.06840	0.94206
833.13983	0.94771
831.21127	0.95261
829.28270	0.95635
827.35414	0.95949
825.42558	0.96212
823.49701	0.96404
821.56845	0.96581
819.63988	0.96762
817.71132	0.96884
815.78275	0.96949
813.85419	0.97011
811.92562	0.97090
809.99706	0.97168
808.06850	0.97226
806.13993	0.97252
804.21137	0.97230
802.28280	0.97177
800.35424	0.97200
798.42567	0.97408
796.49711	0.97714
794.56854	0.98016
792.63998	0.98463
790.71142	0.99119
788.78285	0.99841
786.85429	1.00655
784.92572	1.01669
782.99716	1.02807
781.06859	1.03949
779.14003	1.05074
777.21147	1.06204
775.28290	1.07311
773.35434	1.08374
771.42577	1.09433
769.49721	1.10385
767.56864	1.11022
765.64008	1.11425
763.71151	1.11850
761.78295	1.12283
759.85439	1.12551
757.92582	1.12607
755.99726	1.12488
754.06869	1.12343
752.14013	1.12317
750.21156	1.12381
748.28300	1.12372
746.35443	1.12208
744.42587	1.12037
742.49731	1.11892
740.56874	1.11698
738.64018	1.11618
736.71161	1.11715
734.78305	1.11891
732.85448	1.12238
730.92592	1.12748
728.99735	1.13147
727.06879	1.13543
725.14023	1.14324
723.21166	1.15302
721.28310	1.15968
719.35453	1.16320
717.42597	1.16717
715.49740	1.17284
713.56884	1.17986
711.64027	1.18857
709.71171	1.19696
707.78315	1.20083
705.85458	1.20151
703.92602	1.20323
701.99745	1.20561
700.06889	1.20664
698.14032	1.20546
696.21176	1.20119
694.28319	1.19496
692.35463	1.19048
690.42607	1.18896
688.49750	1.18809
686.56894	1.18715
684.64037	1.18736
682.71181	1.18933
680.78324	1.19232
678.85468	1.19490
676.92611	1.19659
674.99755	1.19746
673.06899	1.19811
671.14042	1.19990
669.21186	1.20608
667.28329	1.21716
665.35473	1.22471
663.42616	1.22915
661.49760	1.23138
659.56903	1.23338
657.64047	1.23816
655.71191	1.24487
653.78334	1.25269
651.85478	1.26152
649.92621	1.27021
647.99765	1.27850
646.06908	1.28750
644.14052	1.29553
642.21195	1.29903
640.28339	1.29906
638.35483	1.29920
636.42626	1.30102
634.49770	1.30301
632.56913	1.30287
630.64057	1.30061
628.71200	1.29507
626.78344	1.28606
624.85488	1.27777
622.92631	1.27051
620.99775	1.26239
619.06918	1.25601
617.14062	1.25099
615.21205	1.24472
613.28349	1.23983
611.35492	1.23763
609.42636	1.23595
607.49780	1.23232
605.56923	1.22426
603.64067	1.21679
601.71210	1.21815
599.78354	1.22393
