3997.91406	0.93215
3995.98550	0.93036
3994.05693	0.92932
3992.12837	0.93018
3990.19980	0.93037
3988.27124	0.92855
3986.34268	0.92663
3984.41411	0.92654
3982.48555	0.92726
3980.55698	0.92603
3978.62842	0.92285
3976.69985	0.92058
3974.77129	0.92059
3972.84272	0.92159
3970.91416	0.92246
3968.98560	0.92303
3967.05703	0.92239
3965.12847	0.91963
3963.19990	0.91644
3961.27134	0.91520
3959.34277	0.91539
3957.41421	0.91619
3955.48564	0.91743
3953.55708	0.91761
3951.62852	0.91640
3949.69995	0.91527
3947.77139	0.91356
3945.84282	0.91059
3943.91426	0.90967
3941.98569	0.91154
3940.05713	0.91183
3938.12856	0.91080
3936.20000	0.91101
3934.27144	0.91175
3932.34287	0.91235
3930.41431	0.91372
3928.48574	0.91411
3926.55718	0.91233
3924.62861	0.91065
3922.70005	0.90911
3920.77148	0.90669
3918.84292	0.90623
3916.91436	0.90817
3914.98579	0.90761
3913.05723	0.90449
3911.12866	0.90219
3909.20010	0.90045
3907.27153	0.89869
3905.34297	0.89932
3903.41440	0.90155
3901.48584	0.90203
3899.55728	0.90186
3897.62871	0.89967
3895.70015	0.89513
3893.77158	0.89218
3891.84302	0.89406
3889.91445	0.89415
3887.98589	0.88978
3886.05733	0.88805
3884.12876	0.88909
3882.20020	0.88925
3880.27163	0.89250
3878.34307	0.89446
3876.41450	0.89261
3874.48594	0.89143
3872.55737	0.89180
3870.62881	0.89373
3868.70025	0.89328
3866.77168	0.88807
3864.84312	0.88641
3862.91455	0.89065
3860.98599	0.89172
3859.05742	0.88874
3857.12886	0.88516
3855.20029	0.88555
3853.27173	0.89337
3851.34317	0.89303
3849.41460	0.88649
3847.48604	0.88065
3845.55747	0.87673
3843.62891	0.87539
3841.70034	0.87610
3839.77178	0.87904
3837.84321	0.88436
3835.91465	0.88571
3833.98609	0.88276
3832.05752	0.88110
3830.12896	0.88113
3828.20039	0.88046
3826.27183	0.87909
3824.34326	0.87629
3822.41470	0.87515
3820.48613	0.87799
3818.55757	0.87753
3816.62901	0.87899
3814.70044	0.88088
3812.77188	0.87587
3810.84331	0.86950
3808.91475	0.86770
3806.98618	0.87036
3805.05762	0.86908
3803.12905	0.86655
3801.20049	0.86943
3799.27193	0.86854
3797.34336	0.86531
3795.41480	0.86513
3793.48623	0.86495
3791.55767	0.86479
3789.62910	0.86542
3787.70054	0.86493
3785.77197	0.86361
3783.84341	0.86215
3781.91485	0.85968
3779.98628	0.85916
3778.05772	0.86189
3776.12915	0.86266
3774.20059	0.86032
3772.27202	0.85814
3770.34346	0.85981
3768.41489	0.86251
3766.48633	0.86315
3764.55777	0.86273
3762.62920	0.85983
3760.70064	0.85748
3758.77207	0.85888
3756.84351	0.85843
3754.91494	0.85369
3752.98638	0.84953
3751.05781	0.85519
3749.12925	0.86121
3747.20069	0.85776
3745.27212	0.85740
3743.34356	0.86064
3741.41499	0.85738
3739.48643	0.85135
3737.55786	0.84912
3735.62930	0.85391
3733.70074	0.85888
3731.77217	0.85778
3729.84361	0.85371
3727.91504	0.85097
3725.98648	0.85139
3724.05791	0.85259
3722.12935	0.85276
3720.20078	0.85178
3718.27222	0.84969
3716.34366	0.84710
3714.41509	0.84470
3712.48653	0.84646
3710.55796	0.85374
3708.62940	0.85473
3706.70083	0.84999
3704.77227	0.84575
3702.84370	0.84539
3700.91514	0.84669
3698.98658	0.84591
3697.05801	0.84500
3695.12945	0.84408
3693.20088	0.84296
3691.27232	0.84630
3689.34375	0.85646
3687.41519	0.86186
3685.48662	0.86050
3683.55806	0.85744
3681.62950	0.85523
3679.70093	0.85419
3677.77237	0.85531
3675.84380	0.86592
3673.91524	0.87521
3671.98667	0.87419
3670.05811	0.87682
3668.12954	0.88290
3666.20098	0.88518
3664.27242	0.88654
3662.34385	0.88802
3660.41529	0.88945
3658.48672	0.89277
3656.55816	0.90046
3654.62959	0.90560
3652.70103	0.90511
3650.77246	0.91146
3648.84390	0.93361
3646.91534	0.94305
3644.98677	0.94214
3643.05821	0.94280
3641.12964	0.94576
3639.20108	0.94965
3637.27251	0.95486
3635.34395	0.96141
3633.41538	0.96613
3631.48682	0.96778
3629.55826	0.97742
3627.62969	0.99487
3625.70113	0.99901
3623.77256	0.99697
3621.84400	0.99697
3619.91543	1.00464
3617.98687	1.01758
3616.05830	1.02571
3614.12974	1.03163
3612.20118	1.03714
3610.27261	1.04221
3608.34405	1.05144
3606.41548	1.06034
3604.48692	1.06343
3602.55835	1.06696
3600.62979	1.07488
3598.70123	1.08288
3596.77266	1.08967
3594.84410	1.09866
3592.91553	1.10708
3590.98697	1.11046
3589.05840	1.11426
3587.12984	1.12703
3585.20127	1.13927
3583.27271	1.14404
3581.34415	1.14682
3579.41558	1.15042
3577.48702	1.15555
3575.55845	1.16279
3573.62989	1.17000
3571.70132	1.17331
3569.77276	1.17379
3567.84419	1.18284
3565.91563	1.20300
3563.98707	1.21424
3562.05850	1.21769
3560.12994	1.22133
3558.20137	1.22814
3556.27281	1.23830
3554.34424	1.24881
3552.41568	1.25549
3550.48711	1.26012
3548.55855	1.26871
3546.62999	1.27876
3544.70142	1.28382
3542.77286	1.28754
3540.84429	1.29380
3538.91573	1.30165
3536.98716	1.31018
3535.05860	1.31692
3533.13003	1.32097
3531.20147	1.32726
3529.27291	1.33620
3527.34434	1.34170
3525.41578	1.34661
3523.48721	1.35618
3521.55865	1.36454
3519.63008	1.36708
3517.70152	1.36872
3515.77295	1.37522
3513.84439	1.38638
3511.91583	1.39718
3509.98726	1.40573
3508.05870	1.41295
3506.13013	1.41852
3504.20157	1.42541
3502.27300	1.43296
3500.34444	1.43812
3498.41587	1.44600
3496.48731	1.45773
3494.55875	1.46439
3492.63018	1.46448
3490.70162	1.46782
3488.77305	1.47631
3486.84449	1.48326
3484.91592	1.48839
3482.98736	1.49431
3481.05879	1.49872
3479.13023	1.50185
3477.20167	1.50610
3475.27310	1.51073
3473.34454	1.51730
3471.41597	1.52430
3469.48741	1.52655
3467.55884	1.52741
3465.63028	1.53188
3463.70171	1.53753
3461.77315	1.54111
3459.84459	1.54377
3457.91602	1.54592
3455.98746	1.54409
3454.05889	1.54018
3452.13033	1.54171
3450.20176	1.54847
3448.27320	1.55207
3446.34464	1.54941
3444.41607	1.54686
3442.48751	1.55024
3440.55894	1.55936
3438.63038	1.56888
3436.70181	1.57347
3434.77325	1.57049
3432.84468	1.56331
3430.91612	1.55980
3428.98756	1.56094
3427.05899	1.56018
3425.13043	1.55591
3423.20186	1.55504
3421.27330	1.56178
3419.34473	1.56939
3417.41617	1.57217
3415.48760	1.57532
3413.55904	1.58243
3411.63048	1.58971
3409.70191	1.59563
3407.77335	1.60199
3405.84478	1.60706
3403.91622	1.60577
3401.98765	1.59851
3400.05909	1.59432
3398.13052	1.59499
3396.20196	1.59418
3394.27340	1.59528
3392.34483	1.60052
3390.41627	1.60348
3388.48770	1.60548
3386.55914	1.60706
3384.63057	1.60354
3382.70201	1.59852
3380.77344	1.59693
3378.84488	1.59979
3376.91632	1.60873
3374.98775	1.61907
3373.05919	1.62312
3371.13062	1.62248
3369.20206	1.61979
3367.27349	1.61498
3365.34493	1.61462
3363.41636	1.62310
3361.48780	1.63311
3359.55924	1.63655
3357.63067	1.63251
3355.70211	1.62447
3353.77354	1.61972
3351.84498	1.62196
3349.91641	1.62560
3347.98785	1.62530
3346.05928	1.62481
3344.13072	1.62921
3342.20216	1.63451
3340.27359	1.63795
3338.34503	1.64497
3336.41646	1.65540
3334.48790	1.66245
3332.55933	1.66308
3330.63077	1.65798
3328.70220	1.64935
3326.77364	1.64181
3324.84508	1.64059
3322.91651	1.64744
3320.98795	1.65711
3319.05938	1.66106
3317.13082	1.66202
3315.20225	1.66871
3313.27369	1.67596
3311.34513	1.67804
3309.41656	1.68247
3307.48800	1.68997
3305.55943	1.69235
3303.63087	1.68986
3301.70230	1.68710
3299.77374	1.68803
3297.84517	1.69642
3295.91661	1.70519
3293.98805	1.70178
3292.05948	1.69089
3290.13092	1.68796
3288.20235	1.69633
3286.27379	1.70373
3284.34522	1.69900
3282.41666	1.68823
3280.48809	1.68326
3278.55953	1.68519
3276.63097	1.68766
3274.70240	1.68437
3272.77384	1.67652
3270.84527	1.67094
3268.91671	1.66540
3266.98814	1.65516
3265.05958	1.64807
3263.13101	1.64848
3261.20245	1.64453
3259.27389	1.63163
3257.34532	1.62160
3255.41676	1.61831
3253.48819	1.61832
3251.55963	1.62222
3249.63106	1.62314
3247.70250	1.61520
3245.77393	1.60572
3243.84537	1.59790
3241.91681	1.59002
3239.98824	1.58459
3238.05968	1.58292
3236.13111	1.58468
3234.20255	1.58739
3232.27398	1.58479
3230.34542	1.57587
3228.41685	1.56525
3226.48829	1.55507
3224.55973	1.54729
3222.63116	1.54518
3220.70260	1.54773
3218.77403	1.54945
3216.84547	1.54583
3214.91690	1.53770
3212.98834	1.53029
3211.05977	1.52566
3209.13121	1.52160
3207.20265	1.51851
3205.27408	1.51825
3203.34552	1.51903
3201.41695	1.51635
3199.48839	1.50928
3197.55982	1.50291
3195.63126	1.50137
3193.70269	1.50222
3191.77413	1.49997
3189.84557	1.49479
3187.91700	1.49136
3185.98844	1.48848
3184.05987	1.48361
3182.13131	1.47858
3180.20274	1.47249
3178.27418	1.46564
3176.34562	1.46161
3174.41705	1.45763
3172.48849	1.45141
3170.55992	1.44762
3168.63136	1.44650
3166.70279	1.44275
3164.77423	1.43725
3162.84566	1.43461
3160.91710	1.43290
3158.98854	1.42980
3157.05997	1.42731
3155.13141	1.42483
3153.20284	1.42134
3151.27428	1.41708
3149.34571	1.41199
3147.41715	1.40787
3145.48858	1.40458
3143.56002	1.40039
3141.63146	1.39769
3139.70289	1.39718
3137.77433	1.39413
3135.84576	1.38897
3133.91720	1.38669
3131.98863	1.38623
3130.06007	1.38459
3128.13150	1.38275
3126.20294	1.38310
3124.27438	1.38494
3122.34581	1.38486
3120.41725	1.38309
3118.48868	1.38070
3116.56012	1.37794
3114.63155	1.37682
3112.70299	1.37652
3110.77442	1.37523
3108.84586	1.37417
3106.91730	1.37382
3104.98873	1.37246
3103.06017	1.36970
3101.13160	1.36746
3099.20304	1.36618
3097.27447	1.36490
3095.34591	1.36420
3093.41734	1.36489
3091.48878	1.36675
3089.56022	1.36968
3087.63165	1.37319
3085.70309	1.37426
3083.77452	1.37160
3081.84596	1.36944
3079.91739	1.36872
3077.98883	1.36569
3076.06026	1.36216
3074.13170	1.36145
3072.20314	1.35952
3070.27457	1.35232
3068.34601	1.34387
3066.41744	1.33973
3064.48888	1.33979
3062.56031	1.33876
3060.63175	1.33290
3058.70318	1.32592
3056.77462	1.32169
3054.84606	1.31828
3052.91749	1.31377
3050.98893	1.30875
3049.06036	1.30466
3047.13180	1.30254
3045.20323	1.30142
3043.27467	1.29885
3041.34610	1.29341
3039.41754	1.28679
3037.48898	1.28206
3035.56041	1.27999
3033.63185	1.27827
3031.70328	1.27489
3029.77472	1.27018
3027.84615	1.26609
3025.91759	1.26380
3023.98903	1.26066
3022.06046	1.25430
3020.13190	1.24742
3018.20333	1.24348
3016.27477	1.24243
3014.34620	1.24218
3012.41764	1.24041
3010.48907	1.23612
3008.56051	1.23168
3006.63195	1.22959
3004.70338	1.22932
3002.77482	1.22928
3000.84625	1.22915
2998.91769	1.22848
2996.98912	1.22673
2995.06056	1.22677
2993.13199	1.23087
2991.20343	1.23648
2989.27487	1.24097
2987.34630	1.24465
2985.41774	1.24896
2983.48917	1.25453
2981.56061	1.26183
2979.63204	1.27130
2977.70348	1.28139
2975.77491	1.28968
2973.84635	1.29595
2971.91779	1.30207
2969.98922	1.30908
2968.06066	1.31727
2966.13209	1.32563
2964.20353	1.33145
2962.27496	1.33409
2960.34640	1.33512
2958.41783	1.33427
2956.48927	1.32894
2954.56071	1.31968
2952.63214	1.31113
2950.70358	1.30634
2948.77501	1.30525
2946.84645	1.30594
2944.91788	1.30823
2942.98932	1.31365
2941.06075	1.32186
2939.13219	1.33193
2937.20363	1.34300
2935.27506	1.35443
2933.34650	1.36544
2931.41793	1.37517
2929.48937	1.38492
2927.56080	1.39430
2925.63224	1.40094
2923.70367	1.40528
2921.77511	1.40749
2919.84655	1.40542
2917.91798	1.39646
2915.98942	1.37857
2914.06085	1.35426
2912.13229	1.32922
2910.20372	1.30692
2908.27516	1.28926
2906.34659	1.27628
2904.41803	1.26528
2902.48947	1.25475
2900.56090	1.24682
2898.63234	1.24296
2896.70377	1.24022
2894.77521	1.23563
2892.84664	1.23088
2890.91808	1.22741
2888.98952	1.22359
2887.06095	1.21931
2885.13239	1.21578
2883.20382	1.21353
2881.27526	1.21312
2879.34669	1.21394
2877.41813	1.21460
2875.48956	1.21391
2873.56100	1.21145
2871.63244	1.20799
2869.70387	1.20343
2867.77531	1.19675
2865.84674	1.18962
2863.91818	1.18625
2861.98961	1.18796
2860.06105	1.19243
2858.13248	1.19814
2856.20392	1.20486
2854.27536	1.21238
2852.34679	1.22026
2850.41823	1.22403
2848.48966	1.21436
2846.56110	1.18870
2844.63253	1.15777
2842.70397	1.13267
2840.77540	1.11568
2838.84684	1.10375
2836.91828	1.09365
2834.98971	1.08551
2833.06115	1.08091
2831.13258	1.07824
2829.20402	1.07574
2827.27545	1.07383
2825.34689	1.07153
2823.41832	1.06789
2821.48976	1.06418
2819.56120	1.06161
2817.63263	1.05970
2815.70407	1.05652
2813.77550	1.05169
2811.84694	1.04720
2809.91837	1.04416
2807.98981	1.04136
2806.06124	1.03746
2804.13268	1.03332
2802.20412	1.03044
2800.27555	1.02820
2798.34699	1.02498
2796.41842	1.02096
2794.48986	1.01732
2792.56129	1.01430
2790.63273	1.01157
2788.70416	1.00941
2786.77560	1.00823
2784.84704	1.00725
2782.91847	1.00551
2780.98991	1.00330
2779.06134	1.00101
2777.13278	0.99829
2775.20421	0.99532
2773.27565	0.99270
2771.34708	0.99047
2769.41852	0.98880
2767.48996	0.98774
2765.56139	0.98632
2763.63283	0.98406
2761.70426	0.98157
2759.77570	0.97974
2757.84713	0.97847
2755.91857	0.97692
2753.99001	0.97492
2752.06144	0.97260
2750.13288	0.97005
2748.20431	0.96738
2746.27575	0.96485
2744.34718	0.96280
2742.41862	0.96127
2740.49005	0.95979
2738.56149	0.95817
2736.63293	0.95701
2734.70436	0.95634
2732.77580	0.95496
2730.84723	0.95262
2728.91867	0.95047
2726.99010	0.94892
2725.06154	0.94749
2723.13297	0.94605
2721.20441	0.94477
2719.27585	0.94373
2717.34728	0.94255
2715.41872	0.94104
2713.49015	0.93941
2711.56159	0.93763
2709.63302	0.93604
2707.70446	0.93442
2705.77589	0.93203
2703.84733	0.92960
2701.91877	0.92808
2699.99020	0.92692
2698.06164	0.92544
2696.13307	0.92353
2694.20451	0.92139
2692.27594	0.91950
2690.34738	0.91825
2688.41881	0.91727
2686.49025	0.91601
2684.56169	0.91462
2682.63312	0.91323
2680.70456	0.91148
2678.77599	0.90962
2676.84743	0.90840
2674.91886	0.90758
2672.99030	0.90640
2671.06173	0.90525
2669.13317	0.90473
2667.20461	0.90407
2665.27604	0.90214
2663.34748	0.89960
2661.41891	0.89809
2659.49035	0.89783
2657.56178	0.89769
2655.63322	0.89695
2653.70465	0.89592
2651.77609	0.89501
2649.84753	0.89427
2647.91896	0.89397
2645.99040	0.89383
2644.06183	0.89312
2642.13327	0.89181
2640.20470	0.89034
2638.27614	0.88915
2636.34757	0.88814
2634.41901	0.88683
2632.49045	0.88560
2630.56188	0.88468
2628.63332	0.88331
2626.70475	0.88144
2624.77619	0.87963
2622.84762	0.87774
2620.91906	0.87596
2618.99049	0.87455
2617.06193	0.87283
2615.13337	0.87040
2613.20480	0.86797
2611.27624	0.86636
2609.34767	0.86570
2607.41911	0.86503
2605.49054	0.86372
2603.56198	0.86267
2601.63342	0.86220
2599.70485	0.86129
2597.77629	0.85991
2595.84772	0.85876
2593.91916	0.85799
2591.99059	0.85745
2590.06203	0.85691
2588.13346	0.85606
2586.20490	0.85498
2584.27634	0.85400
2582.34777	0.85322
2580.41921	0.85225
2578.49064	0.85072
2576.56208	0.84874
2574.63351	0.84674
2572.70495	0.84529
2570.77638	0.84462
2568.84782	0.84420
2566.91926	0.84339
2564.99069	0.84228
2563.06213	0.84095
2561.13356	0.83924
2559.20500	0.83741
2557.27643	0.83591
2555.34787	0.83468
2553.41930	0.83330
2551.49074	0.83186
2549.56218	0.83076
2547.63361	0.82992
2545.70505	0.82916
2543.77648	0.82834
2541.84792	0.82726
2539.91935	0.82630
2537.99079	0.82556
2536.06222	0.82464
2534.13366	0.82359
2532.20510	0.82237
2530.27653	0.82080
2528.34797	0.81916
2526.41940	0.81770
2524.49084	0.81622
2522.56227	0.81437
2520.63371	0.81250
2518.70514	0.81128
2516.77658	0.81034
2514.84802	0.80861
2512.91945	0.80617
2510.99089	0.80433
2509.06232	0.80358
2507.13376	0.80317
2505.20519	0.80230
2503.27663	0.80077
2501.34806	0.79908
2499.41950	0.79806
2497.49094	0.79780
2495.56237	0.79730
2493.63381	0.79600
2491.70524	0.79480
2489.77668	0.79422
2487.84811	0.79360
2485.91955	0.79247
2483.99098	0.79108
2482.06242	0.78995
2480.13386	0.78919
2478.20529	0.78836
2476.27673	0.78723
2474.34816	0.78611
2472.41960	0.78508
2470.49103	0.78398
2468.56247	0.78274
2466.63391	0.78125
2464.70534	0.77970
2462.77678	0.77830
2460.84821	0.77684
2458.91965	0.77522
2456.99108	0.77373
2455.06252	0.77228
2453.13395	0.77079
2451.20539	0.76933
2449.27683	0.76760
2447.34826	0.76558
2445.41970	0.76390
2443.49113	0.76303
2441.56257	0.76263
2439.63400	0.76185
2437.70544	0.76045
2435.77687	0.75869
2433.84831	0.75696
2431.91975	0.75567
2429.99118	0.75482
2428.06262	0.75408
2426.13405	0.75302
2424.20549	0.75154
2422.27692	0.75002
2420.34836	0.74884
2418.41979	0.74805
2416.49123	0.74760
2414.56267	0.74712
2412.63410	0.74588
2410.70554	0.74412
2408.77697	0.74291
2406.84841	0.74228
2404.91984	0.74151
2402.99128	0.74049
2401.06271	0.73937
2399.13415	0.73836
2397.20559	0.73784
2395.27702	0.73751
2393.34846	0.73653
2391.41989	0.73506
2389.49133	0.73387
2387.56276	0.73303
2385.63420	0.73204
2383.70563	0.73059
2381.77707	0.72879
2379.84851	0.72699
2377.91994	0.72542
2375.99138	0.72408
2374.06281	0.72240
2372.13425	0.71958
2370.20568	0.71637
2368.27712	0.71443
2366.34855	0.71389
2364.41999	0.71396
2362.49143	0.71594
2360.56286	0.71948
2358.63430	0.72020
2356.70573	0.71963
2354.77717	0.71991
2352.84860	0.71910
2350.92004	0.71690
2348.99147	0.71375
2347.06291	0.70998
2345.13435	0.70657
2343.20578	0.70529
2341.27722	0.70575
2339.34865	0.70498
2337.42009	0.70231
2335.49152	0.70010
2333.56296	0.69953
2331.63440	0.69992
2329.70583	0.70050
2327.77727	0.70076
2325.84870	0.70044
2323.92014	0.70024
2321.99157	0.70085
2320.06301	0.70125
2318.13444	0.70069
2316.20588	0.69990
2314.27732	0.69909
2312.34875	0.69806
2310.42019	0.69725
2308.49162	0.69708
2306.56306	0.69742
2304.63449	0.69768
2302.70593	0.69720
2300.77736	0.69608
2298.84880	0.69497
2296.92024	0.69425
2294.99167	0.69370
2293.06311	0.69294
2291.13454	0.69213
2289.20598	0.69168
2287.27741	0.69142
2285.34885	0.69096
2283.42028	0.69040
2281.49172	0.69006
2279.56316	0.68996
2277.63459	0.68982
2275.70603	0.68929
2273.77746	0.68846
2271.84890	0.68781
2269.92033	0.68744
2267.99177	0.68707
2266.06320	0.68650
2264.13464	0.68565
2262.20608	0.68462
2260.27751	0.68387
2258.34895	0.68362
2256.42038	0.68327
2254.49182	0.68237
2252.56325	0.68128
2250.63469	0.68028
2248.70612	0.67938
2246.77756	0.67876
2244.84900	0.67834
2242.92043	0.67794
2240.99187	0.67762
2239.06330	0.67745
2237.13474	0.67722
2235.20617	0.67666
2233.27761	0.67592
2231.34904	0.67537
2229.42048	0.67519
2227.49192	0.67518
2225.56335	0.67496
2223.63479	0.67446
2221.70622	0.67406
2219.77766	0.67393
2217.84909	0.67392
2215.92053	0.67375
2213.99196	0.67327
2212.06340	0.67266
2210.13484	0.67215
2208.20627	0.67170
2206.27771	0.67129
2204.34914	0.67074
2202.42058	0.66999
2200.49201	0.66932
2198.56345	0.66864
2196.63488	0.66794
2194.70632	0.66754
2192.77776	0.66729
2190.84919	0.66677
2188.92063	0.66606
2186.99206	0.66532
2185.06350	0.66478
2183.13493	0.66469
2181.20637	0.66480
2179.27781	0.66469
2177.34924	0.66452
2175.42068	0.66453
2173.49211	0.66450
2171.56355	0.66418
2169.63498	0.66373
2167.70642	0.66335
2165.77785	0.66303
2163.84929	0.66256
2161.92073	0.66189
2159.99216	0.66131
2158.06360	0.66091
2156.13503	0.66031
2154.20647	0.65929
2152.27790	0.65813
2150.34934	0.65703
2148.42077	0.65600
2146.49221	0.65514
2144.56365	0.65445
2142.63508	0.65378
2140.70652	0.65292
2138.77795	0.65206
2136.84939	0.65161
2134.92082	0.65145
2132.99226	0.65113
2131.06369	0.65058
2129.13513	0.65012
2127.20657	0.65004
2125.27800	0.65013
2123.34944	0.64995
2121.42087	0.64942
2119.49231	0.64897
2117.56374	0.64894
2115.63518	0.64904
2113.70661	0.64901
2111.77805	0.64898
2109.84949	0.64915
2107.92092	0.64936
2105.99236	0.64917
2104.06379	0.64848
2102.13523	0.64765
2100.20666	0.64671
2098.27810	0.64534
2096.34953	0.64382
2094.42097	0.64263
2092.49241	0.64158
2090.56384	0.64060
2088.63528	0.63979
2086.70671	0.63891
2084.77815	0.63798
2082.84958	0.63735
2080.92102	0.63694
2078.99245	0.63647
2077.06389	0.63586
2075.13533	0.63523
2073.20676	0.63480
2071.27820	0.63454
2069.34963	0.63423
2067.42107	0.63387
2065.49250	0.63368
2063.56394	0.63365
2061.63537	0.63337
2059.70681	0.63269
2057.77825	0.63171
2055.84968	0.63060
2053.92112	0.62978
2051.99255	0.62924
2050.06399	0.62848
2048.13542	0.62739
2046.20686	0.62613
2044.27830	0.62483
2042.34973	0.62381
2040.42117	0.62304
2038.49260	0.62213
2036.56404	0.62106
2034.63547	0.62034
2032.70691	0.62007
2030.77834	0.61981
2028.84978	0.61932
2026.92122	0.61885
2024.99265	0.61863
2023.06409	0.61856
2021.13552	0.61838
2019.20696	0.61833
2017.27839	0.61880
2015.34983	0.61928
2013.42126	0.61907
2011.49270	0.61851
2009.56414	0.61820
2007.63557	0.61810
2005.70701	0.61788
2003.77844	0.61742
2001.84988	0.61676
1999.92131	0.61595
1997.99275	0.61503
1996.06418	0.61414
1994.13562	0.61346
1992.20706	0.61277
1990.27849	0.61164
1988.34993	0.61029
1986.42136	0.60900
1984.49280	0.60778
1982.56423	0.60687
1980.63567	0.60614
1978.70710	0.60542
1976.77854	0.60490
1974.84998	0.60445
1972.92141	0.60378
1970.99285	0.60303
1969.06428	0.60263
1967.13572	0.60257
1965.20715	0.60244
1963.27859	0.60220
1961.35002	0.60203
1959.42146	0.60192
1957.49290	0.60174
1955.56433	0.60152
1953.63577	0.60141
1951.70720	0.60144
1949.77864	0.60132
1947.85007	0.60085
1945.92151	0.60014
1943.99294	0.59979
1942.06438	0.59991
1940.13582	0.59930
1938.20725	0.59800
1936.27869	0.59704
1934.35012	0.59669
1932.42156	0.59658
1930.49299	0.59640
1928.56443	0.59631
1926.63586	0.59637
1924.70730	0.59667
1922.77874	0.59721
1920.85017	0.59747
1918.92161	0.59770
1916.99304	0.59792
1915.06448	0.59742
1913.13591	0.59705
1911.20735	0.59776
1909.27878	0.59897
1907.35022	0.59949
1905.42166	0.59913
1903.49309	0.59852
1901.56453	0.59807
1899.63596	0.59766
1897.70740	0.59717
1895.77883	0.59683
1893.85027	0.59644
1891.92171	0.59592
1889.99314	0.59568
1888.06458	0.59520
1886.13601	0.59429
1884.20745	0.59359
1882.27888	0.59299
1880.35032	0.59235
1878.42175	0.59193
1876.49319	0.59168
1874.56463	0.59139
1872.63606	0.59100
1870.70750	0.59113
1868.77893	0.59243
1866.85037	0.59307
1864.92180	0.59204
1862.99324	0.59094
1861.06467	0.59060
1859.13611	0.59074
1857.20755	0.59068
1855.27898	0.59019
1853.35042	0.58947
1851.42185	0.58882
1849.49329	0.58836
1847.56472	0.58814
1845.63616	0.58851
1843.70759	0.58920
1841.77903	0.58857
1839.85047	0.58720
1837.92190	0.58659
1835.99334	0.58661
1834.06477	0.58629
1832.13621	0.58618
1830.20764	0.58744
1828.27908	0.58867
1826.35051	0.58864
1824.42195	0.58864
1822.49339	0.58877
1820.56482	0.58880
1818.63626	0.58913
1816.70769	0.58958
1814.77913	0.58987
1812.85056	0.59032
1810.92200	0.59110
1808.99343	0.59136
1807.06487	0.59086
1805.13631	0.59037
1803.20774	0.59033
1801.27918	0.59080
1799.35061	0.59104
1797.42205	0.59040
1795.49348	0.58971
1793.56492	0.59019
1791.63635	0.59166
1789.70779	0.59166
1787.77923	0.59091
1785.85066	0.59110
1783.92210	0.59201
1781.99353	0.59306
1780.06497	0.59426
1778.13640	0.59493
1776.20784	0.59525
1774.27927	0.59672
1772.35071	0.60006
1770.42215	0.60232
1768.49358	0.60260
1766.56502	0.60235
1764.63645	0.60211
1762.70789	0.60310
1760.77932	0.60533
1758.85076	0.60715
1756.92220	0.60950
1754.99363	0.61202
1753.06507	0.61456
1751.13650	0.61998
1749.20794	0.62847
1747.27937	0.63542
1745.35081	0.64063
1743.42224	0.64585
1741.49368	0.65159
1739.56512	0.65746
1737.63655	0.66104
1735.70799	0.66370
1733.77942	0.67080
1731.85086	0.67753
1729.92229	0.68080
1727.99373	0.68404
1726.06516	0.68808
1724.13660	0.69367
1722.20804	0.69902
1720.27947	0.70340
1718.35091	0.71199
1716.42234	0.72853
1714.49378	0.74061
1712.56521	0.74808
1710.63665	0.75663
1708.70808	0.76809
1706.77952	0.78709
1704.85096	0.81313
1702.92239	0.83584
1700.99383	0.86920
1699.06526	0.92727
1697.13670	0.98559
1695.20813	1.04303
1693.27957	1.08408
1691.35100	1.11527
1689.42244	1.15268
1687.49388	1.18663
1685.56531	1.22192
1683.63675	1.28058
1681.70818	1.32043
1679.77962	1.33982
1677.85105	1.35880
1675.92249	1.38383
1673.99392	1.41041
1672.06536	1.43018
1670.13680	1.45450
1668.20823	1.48004
1666.27967	1.48963
1664.35110	1.49730
1662.42254	1.51193
1660.49397	1.52282
1658.56541	1.52740
1656.63684	1.52975
1654.70828	1.53210
1652.77972	1.53593
1650.85115	1.53478
1648.92259	1.53094
1646.99402	1.52986
1645.06546	1.53142
1643.13689	1.53054
1641.20833	1.52925
1639.27976	1.52756
1637.35120	1.52701
1635.42264	1.52709
1633.49407	1.52089
1631.56551	1.51293
1629.63694	1.50568
1627.70838	1.49946
1625.77981	1.49334
1623.85125	1.48528
1621.92269	1.47230
1619.99412	1.45720
1618.06556	1.43967
1616.13699	1.41736
1614.20843	1.39945
1612.27986	1.38446
1610.35130	1.36791
1608.42273	1.35075
1606.49417	1.33594
1604.56561	1.32381
1602.63704	1.31314
1600.70848	1.30475
1598.77991	1.29875
1596.85135	1.29428
1594.92278	1.29042
1592.99422	1.28727
1591.06565	1.28677
1589.13709	1.28956
1587.20853	1.29469
1585.27996	1.30163
1583.35140	1.31060
1581.42283	1.32082
1579.49427	1.33076
1577.56570	1.34347
1575.63714	1.36088
1573.70857	1.37110
1571.78001	1.37804
1569.85145	1.39145
1567.92288	1.40611
1565.99432	1.41622
1564.06575	1.42511
1562.13719	1.43017
1560.20862	1.43428
1558.28006	1.44735
1556.35149	1.45444
1554.42293	1.45711
1552.49437	1.46045
1550.56580	1.46364
1548.63724	1.46389
1546.70867	1.46121
1544.78011	1.45771
1542.85154	1.45485
1540.92298	1.45575
1538.99441	1.45294
1537.06585	1.44605
1535.13729	1.43933
1533.20872	1.43042
1531.28016	1.42062
1529.35159	1.41391
1527.42303	1.40877
1525.49446	1.40324
1523.56590	1.39829
1521.63733	1.39253
1519.70877	1.38747
1517.78021	1.38281
1515.85164	1.37286
1513.92308	1.35919
1511.99451	1.34588
1510.06595	1.33318
1508.13738	1.31363
1506.20882	1.28048
1504.28025	1.25957
1502.35169	1.24461
1500.42313	1.22919
1498.49456	1.21181
1496.56600	1.19032
1494.63743	1.17039
1492.70887	1.15510
1490.78030	1.13949
1488.85174	1.12123
1486.92317	1.10649
1484.99461	1.09644
1483.06605	1.08954
1481.13748	1.08535
1479.20892	1.08422
1477.28035	1.08717
1475.35179	1.09606
1473.42322	1.11441
1471.49466	1.13442
1469.56610	1.14401
1467.63753	1.15030
1465.70897	1.15974
1463.78040	1.16949
1461.85184	1.17371
1459.92327	1.17608
1457.99471	1.18386
1456.06614	1.19315
1454.13758	1.19285
1452.20902	1.18952
1450.28045	1.18606
1448.35189	1.18262
1446.42332	1.17841
1444.49476	1.17315
1442.56619	1.16674
1440.63763	1.15945
1438.70906	1.15091
1436.78050	1.13927
1434.85194	1.12742
1432.92337	1.11833
1430.99481	1.10972
1429.06624	1.10142
1427.13768	1.09585
1425.20911	1.09437
1423.28055	1.09623
1421.35198	1.09941
1419.42342	1.10566
1417.49486	1.11394
1415.56629	1.11849
1413.63773	1.12175
1411.70916	1.12620
1409.78060	1.13103
1407.85203	1.13486
1405.92347	1.13807
1403.99490	1.14044
1402.06634	1.14138
1400.13778	1.14198
1398.20921	1.14220
1396.28065	1.14107
1394.35208	1.13830
1392.42352	1.13429
1390.49495	1.13058
1388.56639	1.12923
1386.63782	1.13113
1384.70926	1.13407
1382.78070	1.13705
1380.85213	1.13975
1378.92357	1.14028
1376.99500	1.13744
1375.06644	1.13043
1373.13787	1.11890
1371.20931	1.10600
1369.28074	1.09300
1367.35218	1.07986
1365.42362	1.06778
1363.49505	1.05657
1361.56649	1.04668
1359.63792	1.03946
1357.70936	1.03471
1355.78079	1.03198
1353.85223	1.03078
1351.92366	1.03012
1349.99510	1.02921
1348.06654	1.02753
1346.13797	1.02505
1344.20941	1.02266
1342.28084	1.02094
1340.35228	1.01955
1338.42371	1.01787
1336.49515	1.01624
1334.56659	1.01596
1332.63802	1.01771
1330.70946	1.02086
1328.78089	1.02397
1326.85233	1.02629
1324.92376	1.02825
1322.99520	1.03025
1321.06663	1.03239
1319.13807	1.03541
1317.20951	1.03938
1315.28094	1.04305
1313.35238	1.04595
1311.42381	1.04831
1309.49525	1.05025
1307.56668	1.05191
1305.63812	1.05317
1303.70955	1.05352
1301.78099	1.05259
1299.85243	1.05053
1297.92386	1.04744
1295.99530	1.04340
1294.06673	1.03930
1292.13817	1.03613
1290.20960	1.03396
1288.28104	1.03202
1286.35247	1.02945
1284.42391	1.02615
1282.49535	1.02301
1280.56678	1.02040
1278.63822	1.01816
1276.70965	1.01681
1274.78109	1.01710
1272.85252	1.01927
1270.92396	1.02300
1268.99539	1.02784
1267.06683	1.03345
1265.13827	1.03915
1263.20970	1.04407
1261.28114	1.04782
1259.35257	1.05091
1257.42401	1.05389
1255.49544	1.05677
1253.56688	1.05985
1251.63831	1.06310
1249.70975	1.06579
1247.78119	1.06776
1245.85262	1.06943
1243.92406	1.07061
1241.99549	1.07039
1240.06693	1.06843
1238.13836	1.06509
1236.20980	1.06067
1234.28123	1.05517
1232.35267	1.04845
1230.42411	1.04059
1228.49554	1.03190
1226.56698	1.02263
1224.63841	1.01286
1222.70985	1.00245
1220.78128	0.99186
1218.85272	0.98240
1216.92415	0.97484
1214.99559	0.96920
1213.06703	0.96543
1211.13846	0.96347
1209.20990	0.96303
1207.28133	0.96316
1205.35277	0.96192
1203.42420	0.95782
1201.49564	0.95145
1199.56708	0.94416
1197.63851	0.93626
1195.70995	0.92822
1193.78138	0.92107
1191.85282	0.91491
1189.92425	0.90926
1187.99569	0.90416
1186.06712	0.90005
1184.13856	0.89738
1182.21000	0.89625
1180.28143	0.89658
1178.35287	0.89857
1176.42430	0.90198
1174.49574	0.90595
1172.56717	0.91004
1170.63861	0.91425
1168.71004	0.91919
1166.78148	0.92635
1164.85292	0.93640
1162.92435	0.94799
1160.99579	0.95879
1159.06722	0.96640
1157.13866	0.96932
1155.21009	0.96717
1153.28153	0.95979
1151.35296	0.94839
1149.42440	0.93578
1147.49584	0.92384
1145.56727	0.91308
1143.63871	0.90435
1141.71014	0.89872
1139.78158	0.89641
1137.85301	0.89735
1135.92445	0.90144
1133.99588	0.90817
1132.06732	0.91697
1130.13876	0.92736
1128.21019	0.93897
1126.28163	0.95114
1124.35306	0.96196
1122.42450	0.97019
1120.49593	0.97732
1118.56737	0.98466
1116.63880	0.99039
1114.71024	0.99170
1112.78168	0.98896
1110.85311	0.98507
1108.92455	0.98143
1106.99598	0.97732
1105.06742	0.97247
1103.13885	0.96774
1101.21029	0.96438
1099.28172	0.96309
1097.35316	0.96392
1095.42460	0.96735
1093.49603	0.97371
1091.56747	0.98181
1089.63890	0.99060
1087.71034	1.00092
1085.78177	1.01436
1083.85321	1.03049
1081.92464	1.04508
1079.99608	1.05411
1078.06752	1.05886
1076.13895	1.06160
1074.21039	1.06093
1072.28182	1.05602
1070.35326	1.04860
1068.42469	1.04021
1066.49613	1.03205
1064.56756	1.02484
1062.63900	1.01813
1060.71044	1.01133
1058.78187	1.00402
1056.85331	0.99598
1054.92474	0.98777
1052.99618	0.98021
1051.06761	0.97350
1049.13905	0.96790
1047.21049	0.96403
1045.28192	0.96291
1043.35336	0.96542
1041.42479	0.97012
1039.49623	0.97409
1037.56766	0.97612
1035.63910	0.97631
1033.71053	0.97514
1031.78197	0.97339
1029.85341	0.97068
1027.92484	0.96595
1025.99628	0.95951
1024.06771	0.95222
1022.13915	0.94469
1020.21058	0.93801
1018.28202	0.93339
1016.35345	0.93039
1014.42489	0.92636
1012.49633	0.91873
1010.56776	0.90741
1008.63920	0.89384
1006.71063	0.87943
1004.78207	0.86563
1002.85350	0.85349
1000.92494	0.84316
998.99637	0.83452
997.06781	0.82741
995.13925	0.82121
993.21068	0.81501
991.28212	0.80822
989.35355	0.80073
987.42499	0.79308
985.49642	0.78646
983.56786	0.78147
981.63929	0.77780
979.71073	0.77541
977.78217	0.77432
975.85360	0.77379
973.92504	0.77244
971.99647	0.76928
970.06791	0.76436
968.13934	0.75837
966.21078	0.75235
964.28221	0.74733
962.35365	0.74425
960.42509	0.74435
958.49652	0.74793
956.56796	0.75319
954.63939	0.75686
952.71083	0.75628
950.78226	0.75141
948.85370	0.74450
946.92513	0.73803
944.99657	0.73350
943.06801	0.73119
941.13944	0.73012
939.21088	0.72929
937.28231	0.72884
935.35375	0.72916
933.42518	0.73023
931.49662	0.73192
929.56805	0.73397
927.63949	0.73617
925.71093	0.73845
923.78236	0.74080
921.85380	0.74306
919.92523	0.74466
917.99667	0.74520
916.06810	0.74475
914.13954	0.74369
912.21098	0.74261
910.28241	0.74196
908.35385	0.74163
906.42528	0.74156
904.49672	0.74207
902.56815	0.74300
900.63959	0.74359
898.71102	0.74332
896.78246	0.74237
894.85390	0.74124
892.92533	0.74015
890.99677	0.73882
889.06820	0.73715
887.13964	0.73575
885.21107	0.73512
883.28251	0.73526
881.35394	0.73612
879.42538	0.73789
877.49682	0.74075
875.56825	0.74425
873.63969	0.74794
871.71112	0.75171
869.78256	0.75556
867.85399	0.75959
865.92543	0.76376
863.99686	0.76784
862.06830	0.77154
860.13974	0.77483
858.21117	0.77806
856.28261	0.78126
854.35404	0.78392
852.42548	0.78575
850.49691	0.78743
848.56835	0.78928
846.63978	0.79060
844.71122	0.79123
842.78266	0.79174
840.85409	0.79235
838.92553	0.79329
836.99696	0.79490
835.06840	0.79711
833.13983	0.79961
831.21127	0.80249
829.28270	0.80597
827.35414	0.80953
825.42558	0.81283
823.49701	0.81655
821.56845	0.82123
819.63988	0.82630
817.71132	0.83087
815.78275	0.83493
813.85419	0.83865
811.92562	0.84177
809.99706	0.84421
808.06850	0.84597
806.13993	0.84642
804.21137	0.84536
802.28280	0.84407
800.35424	0.84302
798.42567	0.84155
796.49711	0.83996
794.56854	0.83890
792.63998	0.83807
790.71142	0.83709
788.78285	0.83628
786.85429	0.83608
784.92572	0.83666
782.99716	0.83811
781.06859	0.84081
779.14003	0.84459
777.21147	0.84841
775.28290	0.85207
773.35434	0.85615
771.42577	0.86091
769.49721	0.86632
767.56864	0.87191
765.64008	0.87703
763.71151	0.88172
761.78295	0.88677
759.85439	0.89233
757.92582	0.89742
755.99726	0.90122
754.06869	0.90411
752.14013	0.90654
750.21156	0.90859
748.28300	0.91019
746.35443	0.91029
744.42587	0.90823
742.49731	0.90540
740.56874	0.90296
738.64018	0.90051
736.71161	0.89791
734.78305	0.89572
732.85448	0.89462
730.92592	0.89485
728.99735	0.89594
727.06879	0.89819
725.14023	0.90240
723.21166	0.90772
721.28310	0.91311
719.35453	0.91848
717.42597	0.92349
715.49740	0.92765
713.56884	0.93157
711.64027	0.93663
709.71171	0.94249
707.78315	0.94730
705.85458	0.95045
703.92602	0.95213
701.99745	0.95252
700.06889	0.95244
698.14032	0.95210
696.21176	0.95032
694.28319	0.94667
692.35463	0.94210
690.42607	0.93720
688.49750	0.93164
686.56894	0.92613
684.64037	0.92253
682.71181	0.92071
680.78324	0.91853
678.85468	0.91592
676.92611	0.91438
674.99755	0.91350
673.06899	0.91294
671.14042	0.91323
669.21186	0.91641
667.28329	0.92563
665.35473	0.93348
663.42616	0.93813
661.49760	0.94153
659.56903	0.94427
657.64047	0.94782
655.71191	0.95261
653.78334	0.95663
651.85478	0.95869
649.92621	0.95890
647.99765	0.95854
646.06908	0.95895
644.14052	0.95826
642.21195	0.95489
640.28339	0.95022
638.35483	0.94578
636.42626	0.94270
634.49770	0.94075
632.56913	0.93854
630.64057	0.93602
628.71200	0.93296
626.78344	0.92889
624.85488	0.92569
622.92631	0.92472
620.99775	0.92466
619.06918	0.92436
617.14062	0.92392
615.21205	0.92479
613.28349	0.92678
611.35492	0.92792
609.42636	0.92861
607.49780	0.92987
605.56923	0.93102
603.64067	0.93168
601.71210	0.93169
599.78354	0.93125
