3997.91406	1.22992
3995.98550	1.22863
3994.05693	1.22928
3992.12837	1.22832
3990.19980	1.22554
3988.27124	1.22538
3986.34268	1.22677
3984.41411	1.22605
3982.48555	1.22355
3980.55698	1.22161
3978.62842	1.21964
3976.69985	1.21543
3974.77129	1.21166
3972.84272	1.21318
3970.91416	1.21850
3968.98560	1.22154
3967.05703	1.22084
3965.12847	1.21856
3963.19990	1.21624
3961.27134	1.21491
3959.34277	1.21430
3957.41421	1.21496
3955.48564	1.21657
3953.55708	1.21637
3951.62852	1.21308
3949.69995	1.20812
3947.77139	1.20396
3945.84282	1.20176
3943.91426	1.20143
3941.98569	1.20133
3940.05713	1.20100
3938.12856	1.20105
3936.20000	1.20029
3934.27144	1.19886
3932.34287	1.19720
3930.41431	1.19636
3928.48574	1.19664
3926.55718	1.19523
3924.62861	1.19251
3922.70005	1.19243
3920.77148	1.19505
3918.84292	1.19555
3916.91436	1.19120
3914.98579	1.18609
3913.05723	1.18255
3911.12866	1.18053
3909.20010	1.17980
3907.27153	1.17966
3905.34297	1.18008
3903.41440	1.18117
3901.48584	1.18509
3899.55728	1.19026
3897.62871	1.19014
3895.70015	1.18591
3893.77158	1.18036
3891.84302	1.17615
3889.91445	1.17658
3887.98589	1.17720
3886.05733	1.17721
3884.12876	1.17882
3882.20020	1.18039
3880.27163	1.18275
3878.34307	1.18253
3876.41450	1.17759
3874.48594	1.17212
3872.55737	1.16859
3870.62881	1.16362
3868.70025	1.15833
3866.77168	1.15732
3864.84312	1.15935
3862.91455	1.16067
3860.98599	1.16006
3859.05742	1.15827
3857.12886	1.15579
3855.20029	1.15536
3853.27173	1.15917
3851.34317	1.15961
3849.41460	1.15730
3847.48604	1.15510
3845.55747	1.15501
3843.62891	1.15890
3841.70034	1.16340
3839.77178	1.16320
3837.84321	1.15723
3835.91465	1.15023
3833.98609	1.14732
3832.05752	1.14782
3830.12896	1.14693
3828.20039	1.14522
3826.27183	1.14440
3824.34326	1.13979
3822.41470	1.13370
3820.48613	1.13723
3818.55757	1.14341
3816.62901	1.14451
3814.70044	1.14229
3812.77188	1.13898
3810.84331	1.13623
3808.91475	1.13623
3806.98618	1.14067
3805.05762	1.14267
3803.12905	1.14078
3801.20049	1.14116
3799.27193	1.14171
3797.34336	1.14055
3795.41480	1.13909
3793.48623	1.13796
3791.55767	1.13876
3789.62910	1.14068
3787.70054	1.14132
3785.77197	1.14214
3783.84341	1.14380
3781.91485	1.14275
3779.98628	1.13836
3778.05772	1.13458
3776.12915	1.13303
3774.20059	1.13122
3772.27202	1.12931
3770.34346	1.13008
3768.41489	1.13228
3766.48633	1.13419
3764.55777	1.13562
3762.62920	1.13343
3760.70064	1.12894
3758.77207	1.12756
3756.84351	1.12896
3754.91494	1.12788
3752.98638	1.12342
3751.05781	1.12359
3749.12925	1.13079
3747.20069	1.13174
3745.27212	1.12766
3743.34356	1.12517
3741.41499	1.12364
3739.48643	1.12143
3737.55786	1.12012
3735.62930	1.11903
3733.70074	1.11975
3731.77217	1.12230
3729.84361	1.12134
3727.91504	1.11914
3725.98648	1.12005
3724.05791	1.12244
3722.12935	1.12117
3720.20078	1.11782
3718.27222	1.11729
3716.34366	1.11774
3714.41509	1.11517
3712.48653	1.11178
3710.55796	1.11452
3708.62940	1.11759
3706.70083	1.11667
3704.77227	1.11622
3702.84370	1.12008
3700.91514	1.12509
3698.98658	1.12558
3697.05801	1.12496
3695.12945	1.12456
3693.20088	1.12198
3691.27232	1.12150
3689.34375	1.12879
3687.41519	1.13258
3685.48662	1.13083
3683.55806	1.12975
3681.62950	1.13122
3679.70093	1.13470
3677.77237	1.14058
3675.84380	1.15085
3673.91524	1.15155
3671.98667	1.14221
3670.05811	1.13933
3668.12954	1.14681
3666.20098	1.15314
3664.27242	1.15743
3662.34385	1.16199
3660.41529	1.16801
3658.48672	1.17548
3656.55816	1.18409
3654.62959	1.18903
3652.70103	1.18916
3650.77246	1.19225
3648.84390	1.20884
3646.91534	1.22506
3644.98677	1.23197
3643.05821	1.23632
3641.12964	1.24189
3639.20108	1.24876
3637.27251	1.25529
3635.34395	1.26117
3633.41538	1.26687
3631.48682	1.27240
3629.55826	1.28528
3627.62969	1.30451
3625.70113	1.31127
3623.77256	1.31070
3621.84400	1.31084
3619.91543	1.31733
3617.98687	1.32786
3616.05830	1.33595
3614.12974	1.34386
3612.20118	1.35138
3610.27261	1.35693
3608.34405	1.36333
3606.41548	1.37072
3604.48692	1.37698
3602.55835	1.38444
3600.62979	1.39433
3598.70123	1.40323
3596.77266	1.40815
3594.84410	1.41035
3592.91553	1.41303
3590.98697	1.41549
3589.05840	1.42061
3587.12984	1.43527
3585.20127	1.44925
3583.27271	1.45482
3581.34415	1.45689
3579.41558	1.45923
3577.48702	1.46422
3575.55845	1.47163
3573.62989	1.47816
3571.70132	1.48136
3569.77276	1.48345
3567.84419	1.49490
3565.91563	1.51373
3563.98707	1.52236
3562.05850	1.52791
3560.12994	1.53314
3558.20137	1.53547
3556.27281	1.53874
3554.34424	1.54564
3552.41568	1.55647
3550.48711	1.56503
3548.55855	1.56789
3546.62999	1.57402
3544.70142	1.58515
3542.77286	1.59056
3540.84429	1.59106
3538.91573	1.59385
3536.98716	1.60399
3535.05860	1.61883
3533.13003	1.62747
3531.20147	1.63252
3529.27291	1.64508
3527.34434	1.65811
3525.41578	1.66005
3523.48721	1.65772
3521.55865	1.65659
3519.63008	1.65585
3517.70152	1.65887
3515.77295	1.66656
3513.84439	1.67404
3511.91583	1.67614
3509.98726	1.67467
3508.05870	1.67746
3506.13013	1.68721
3504.20157	1.70456
3502.27300	1.72080
3500.34444	1.72163
3498.41587	1.71491
3496.48731	1.71561
3494.55875	1.72503
3492.63018	1.73364
3490.70162	1.74043
3488.77305	1.75004
3486.84449	1.75741
3484.91592	1.75968
3482.98736	1.76500
3481.05879	1.77408
3479.13023	1.77253
3477.20167	1.75875
3475.27310	1.75163
3473.34454	1.75999
3471.41597	1.77245
3469.48741	1.77840
3467.55884	1.77152
3465.63028	1.75615
3463.70171	1.75406
3461.77315	1.77244
3459.84459	1.79399
3457.91602	1.80599
3455.98746	1.80653
3454.05889	1.79783
3452.13033	1.78996
3450.20176	1.79252
3448.27320	1.80588
3446.34464	1.82075
3444.41607	1.82235
3442.48751	1.81045
3440.55894	1.80240
3438.63038	1.80645
3436.70181	1.81475
3434.77325	1.81715
3432.84468	1.81447
3430.91612	1.81848
3428.98756	1.82683
3427.05899	1.82628
3425.13043	1.81825
3423.20186	1.81243
3421.27330	1.81162
3419.34473	1.80924
3417.41617	1.80328
3415.48760	1.79812
3413.55904	1.79621
3411.63048	1.80215
3409.70191	1.81410
3407.77335	1.82156
3405.84478	1.81919
3403.91622	1.81240
3401.98765	1.81148
3400.05909	1.81725
3398.13052	1.81933
3396.20196	1.81268
3394.27340	1.80961
3392.34483	1.81923
3390.41627	1.82559
3388.48770	1.82100
3386.55914	1.82280
3384.63057	1.83182
3382.70201	1.83002
3380.77344	1.81953
3378.84488	1.81619
3376.91632	1.82075
3374.98775	1.82584
3373.05919	1.82900
3371.13062	1.83091
3369.20206	1.83319
3367.27349	1.83527
3365.34493	1.83666
3363.41636	1.83676
3361.48780	1.83297
3359.55924	1.82692
3357.63067	1.82398
3355.70211	1.83206
3353.77354	1.85110
3351.84498	1.86004
3349.91641	1.84665
3347.98785	1.83148
3346.05928	1.83005
3344.13072	1.83224
3342.20216	1.82856
3340.27359	1.82509
3338.34503	1.82718
3336.41646	1.83599
3334.48790	1.84846
3332.55933	1.85027
3330.63077	1.83970
3328.70220	1.83263
3326.77364	1.82797
3324.84508	1.82092
3322.91651	1.82755
3320.98795	1.85202
3319.05938	1.86935
3317.13082	1.86744
3315.20225	1.86557
3313.27369	1.87400
3311.34513	1.88345
3309.41656	1.88262
3307.48800	1.87383
3305.55943	1.87418
3303.63087	1.88529
3301.70230	1.88790
3299.77374	1.87707
3297.84517	1.87019
3295.91661	1.87171
3293.98805	1.86797
3292.05948	1.86166
3290.13092	1.86143
3288.20235	1.86229
3286.27379	1.86358
3284.34522	1.86197
3282.41666	1.85400
3280.48809	1.85056
3278.55953	1.85238
3276.63097	1.84960
3274.70240	1.84822
3272.77384	1.85319
3270.84527	1.85042
3268.91671	1.83772
3266.98814	1.83081
3265.05958	1.82833
3263.13101	1.82035
3261.20245	1.81615
3259.27389	1.81842
3257.34532	1.81234
3255.41676	1.80107
3253.48819	1.79597
3251.55963	1.79130
3249.63106	1.78447
3247.70250	1.78294
3245.77393	1.78769
3243.84537	1.78983
3241.91681	1.78406
3239.98824	1.77665
3238.05968	1.77021
3236.13111	1.76330
3234.20255	1.76098
3232.27398	1.76123
3230.34542	1.75547
3228.41685	1.74700
3226.48829	1.74351
3224.55973	1.73975
3222.63116	1.72897
3220.70260	1.72091
3218.77403	1.72264
3216.84547	1.72448
3214.91690	1.72026
3212.98834	1.71663
3211.05977	1.71782
3209.13121	1.71711
3207.20265	1.71270
3205.27408	1.70985
3203.34552	1.70386
3201.41695	1.69286
3199.48839	1.68714
3197.55982	1.68772
3195.63126	1.68533
3193.70269	1.68091
3191.77413	1.67845
3189.84557	1.67357
3187.91700	1.66670
3185.98844	1.66327
3184.05987	1.66281
3182.13131	1.65983
3180.20274	1.65194
3178.27418	1.64533
3176.34562	1.64540
3174.41705	1.64850
3172.48849	1.64716
3170.55992	1.64139
3168.63136	1.63839
3166.70279	1.63512
3164.77423	1.62620
3162.84566	1.61999
3160.91710	1.62236
3158.98854	1.62579
3157.05997	1.62253
3155.13141	1.61661
3153.20284	1.61445
3151.27428	1.61418
3149.34571	1.61282
3147.41715	1.60938
3145.48858	1.60422
3143.56002	1.59985
3141.63146	1.59561
3139.70289	1.59008
3137.77433	1.58657
3135.84576	1.58685
3133.91720	1.58823
3131.98863	1.58692
3130.06007	1.58294
3128.13150	1.58003
3126.20294	1.57670
3124.27438	1.57099
3122.34581	1.56904
3120.41725	1.57133
3118.48868	1.56994
3116.56012	1.56567
3114.63155	1.56500
3112.70299	1.56706
3110.77442	1.56900
3108.84586	1.57098
3106.91730	1.57208
3104.98873	1.57144
3103.06017	1.57074
3101.13160	1.57077
3099.20304	1.56785
3097.27447	1.56223
3095.34591	1.56086
3093.41734	1.56292
3091.48878	1.56344
3089.56022	1.56385
3087.63165	1.56535
3085.70309	1.56666
3083.77452	1.56544
3081.84596	1.56215
3079.91739	1.55970
3077.98883	1.55663
3076.06026	1.55253
3074.13170	1.54961
3072.20314	1.54827
3070.27457	1.54784
3068.34601	1.54554
3066.41744	1.53999
3064.48888	1.53425
3062.56031	1.53000
3060.63175	1.52635
3058.70318	1.52362
3056.77462	1.52265
3054.84606	1.52298
3052.91749	1.52265
3050.98893	1.51902
3049.06036	1.51163
3047.13180	1.50297
3045.20323	1.49666
3043.27467	1.49429
3041.34610	1.49316
3039.41754	1.49084
3037.48898	1.48681
3035.56041	1.48117
3033.63185	1.47617
3031.70328	1.47256
3029.77472	1.46881
3027.84615	1.46413
3025.91759	1.45816
3023.98903	1.45293
3022.06046	1.45115
3020.13190	1.45012
3018.20333	1.44676
3016.27477	1.44445
3014.34620	1.44443
3012.41764	1.44242
3010.48907	1.43815
3008.56051	1.43493
3006.63195	1.43312
3004.70338	1.43224
3002.77482	1.43365
3000.84625	1.43514
2998.91769	1.43246
2996.98912	1.42873
2995.06056	1.42852
2993.13199	1.43040
2991.20343	1.43352
2989.27487	1.43840
2987.34630	1.44268
2985.41774	1.44597
2983.48917	1.45072
2981.56061	1.45689
2979.63204	1.46333
2977.70348	1.47054
2975.77491	1.47956
2973.84635	1.48843
2971.91779	1.49423
2969.98922	1.49900
2968.06066	1.50437
2966.13209	1.50846
2964.20353	1.51171
2962.27496	1.51523
2960.34640	1.51799
2958.41783	1.51806
2956.48927	1.51368
2954.56071	1.50485
2952.63214	1.49468
2950.70358	1.48725
2948.77501	1.48384
2946.84645	1.48472
2944.91788	1.48992
2942.98932	1.49660
2941.06075	1.50305
2939.13219	1.51191
2937.20363	1.52451
2935.27506	1.53782
2933.34650	1.54819
2931.41793	1.55504
2929.48937	1.56056
2927.56080	1.56733
2925.63224	1.57568
2923.70367	1.58339
2921.77511	1.58768
2919.84655	1.58676
2917.91798	1.57874
2915.98942	1.56135
2914.06085	1.53687
2912.13229	1.51121
2910.20372	1.48795
2908.27516	1.46859
2906.34659	1.45353
2904.41803	1.44294
2902.48947	1.43660
2900.56090	1.43251
2898.63234	1.42889
2896.70377	1.42485
2894.77521	1.41975
2892.84664	1.41449
2890.91808	1.40914
2888.98952	1.40288
2887.06095	1.39840
2885.13239	1.39623
2883.20382	1.39230
2881.27526	1.38779
2879.34669	1.38701
2877.41813	1.38928
2875.48956	1.39095
2873.56100	1.38859
2871.63244	1.38209
2869.70387	1.37511
2867.77531	1.37001
2865.84674	1.36634
2863.91818	1.36389
2861.98961	1.36338
2860.06105	1.36613
2858.13248	1.37331
2856.20392	1.38330
2854.27536	1.39274
2852.34679	1.39935
2850.41823	1.39928
2848.48966	1.38645
2846.56110	1.36022
2844.63253	1.32902
2842.70397	1.30260
2840.77540	1.28551
2838.84684	1.27643
2836.91828	1.26971
2834.98971	1.26114
2833.06115	1.25230
2831.13258	1.24557
2829.20402	1.24014
2827.27545	1.23534
2825.34689	1.23202
2823.41832	1.22986
2821.48976	1.22698
2819.56120	1.22306
2817.63263	1.21939
2815.70407	1.21595
2813.77550	1.21261
2811.84694	1.20903
2809.91837	1.20415
2807.98981	1.19953
2806.06124	1.19659
2804.13268	1.19360
2802.20412	1.18976
2800.27555	1.18622
2798.34699	1.18373
2796.41842	1.18157
2794.48986	1.17817
2792.56129	1.17387
2790.63273	1.17032
2788.70416	1.16764
2786.77560	1.16510
2784.84704	1.16268
2782.91847	1.16101
2780.98991	1.15995
2779.06134	1.15778
2777.13278	1.15385
2775.20421	1.15010
2773.27565	1.14811
2771.34708	1.14651
2769.41852	1.14308
2767.48996	1.13835
2765.56139	1.13421
2763.63283	1.13102
2761.70426	1.12830
2759.77570	1.12554
2757.84713	1.12258
2755.91857	1.11991
2753.99001	1.11781
2752.06144	1.11570
2750.13288	1.11270
2748.20431	1.11010
2746.27575	1.10946
2744.34718	1.10885
2742.41862	1.10733
2740.49005	1.10599
2738.56149	1.10456
2736.63293	1.10303
2734.70436	1.10171
2732.77580	1.10020
2730.84723	1.09813
2728.91867	1.09552
2726.99010	1.09338
2725.06154	1.09200
2723.13297	1.09022
2721.20441	1.08781
2719.27585	1.08537
2717.34728	1.08289
2715.41872	1.08047
2713.49015	1.07800
2711.56159	1.07507
2709.63302	1.07209
2707.70446	1.06990
2705.77589	1.06885
2703.84733	1.06840
2701.91877	1.06759
2699.99020	1.06565
2698.06164	1.06288
2696.13307	1.06068
2694.20451	1.05948
2692.27594	1.05825
2690.34738	1.05593
2688.41881	1.05255
2686.49025	1.04959
2684.56169	1.04803
2682.63312	1.04707
2680.70456	1.04551
2678.77599	1.04279
2676.84743	1.03953
2674.91886	1.03673
2672.99030	1.03426
2671.06173	1.03141
2669.13317	1.02867
2667.20461	1.02712
2665.27604	1.02640
2663.34748	1.02538
2661.41891	1.02336
2659.49035	1.02092
2657.56178	1.01955
2655.63322	1.01933
2653.70465	1.01909
2651.77609	1.01866
2649.84753	1.01816
2647.91896	1.01716
2645.99040	1.01597
2644.06183	1.01508
2642.13327	1.01417
2640.20470	1.01314
2638.27614	1.01216
2636.34757	1.01079
2634.41901	1.00895
2632.49045	1.00748
2630.56188	1.00662
2628.63332	1.00534
2626.70475	1.00300
2624.77619	1.00014
2622.84762	0.99735
2620.91906	0.99491
2618.99049	0.99313
2617.06193	0.99155
2615.13337	0.98972
2613.20480	0.98805
2611.27624	0.98672
2609.34767	0.98553
2607.41911	0.98401
2605.49054	0.98209
2603.56198	0.98068
2601.63342	0.97983
2599.70485	0.97833
2597.77629	0.97590
2595.84772	0.97352
2593.91916	0.97179
2591.99059	0.97014
2590.06203	0.96788
2588.13346	0.96545
2586.20490	0.96370
2584.27634	0.96238
2582.34777	0.96050
2580.41921	0.95826
2578.49064	0.95640
2576.56208	0.95425
2574.63351	0.95173
2572.70495	0.95051
2570.77638	0.95060
2568.84782	0.95006
2566.91926	0.94813
2564.99069	0.94572
2563.06213	0.94380
2561.13356	0.94243
2559.20500	0.94129
2557.27643	0.94026
2555.34787	0.93904
2553.41930	0.93719
2551.49074	0.93527
2549.56218	0.93406
2547.63361	0.93309
2545.70505	0.93153
2543.77648	0.92970
2541.84792	0.92816
2539.91935	0.92676
2537.99079	0.92517
2536.06222	0.92342
2534.13366	0.92156
2532.20510	0.91936
2530.27653	0.91692
2528.34797	0.91473
2526.41940	0.91273
2524.49084	0.91078
2522.56227	0.90920
2520.63371	0.90794
2518.70514	0.90670
2516.77658	0.90580
2514.84802	0.90527
2512.91945	0.90451
2510.99089	0.90333
2509.06232	0.90218
2507.13376	0.90173
2505.20519	0.90179
2503.27663	0.90095
2501.34806	0.89900
2499.41950	0.89751
2497.49094	0.89701
2495.56237	0.89645
2493.63381	0.89530
2491.70524	0.89402
2489.77668	0.89299
2487.84811	0.89185
2485.91955	0.88987
2483.99098	0.88717
2482.06242	0.88455
2480.13386	0.88227
2478.20529	0.88073
2476.27673	0.88007
2474.34816	0.87917
2472.41960	0.87765
2470.49103	0.87639
2468.56247	0.87532
2466.63391	0.87396
2464.70534	0.87233
2462.77678	0.87039
2460.84821	0.86827
2458.91965	0.86654
2456.99108	0.86564
2455.06252	0.86514
2453.13395	0.86408
2451.20539	0.86220
2449.27683	0.86001
2447.34826	0.85782
2445.41970	0.85559
2443.49113	0.85345
2441.56257	0.85157
2439.63400	0.84961
2437.70544	0.84737
2435.77687	0.84543
2433.84831	0.84384
2431.91975	0.84211
2429.99118	0.84057
2428.06262	0.83968
2426.13405	0.83943
2424.20549	0.83950
2422.27692	0.83904
2420.34836	0.83818
2418.41979	0.83812
2416.49123	0.83859
2414.56267	0.83818
2412.63410	0.83699
2410.70554	0.83609
2408.77697	0.83566
2406.84841	0.83515
2404.91984	0.83400
2402.99128	0.83251
2401.06271	0.83114
2399.13415	0.82963
2397.20559	0.82788
2395.27702	0.82612
2393.34846	0.82424
2391.41989	0.82180
2389.49133	0.81904
2387.56276	0.81668
2385.63420	0.81485
2383.70563	0.81302
2381.77707	0.81127
2379.84851	0.81038
2377.91994	0.81017
2375.99138	0.80944
2374.06281	0.80779
2372.13425	0.80575
2370.20568	0.80448
2368.27712	0.80527
2366.34855	0.80551
2364.41999	0.80109
2362.49143	0.79602
2360.56286	0.79614
2358.63430	0.79970
2356.70573	0.80184
2354.77717	0.80175
2352.84860	0.80317
2350.92004	0.80448
2348.99147	0.80221
2347.06291	0.79746
2345.13435	0.79469
2343.20578	0.79629
2341.27722	0.79652
2339.34865	0.79411
2337.42009	0.79369
2335.49152	0.79430
2333.56296	0.79190
2331.63440	0.78850
2329.70583	0.78821
2327.77727	0.78993
2325.84870	0.79142
2323.92014	0.79241
2321.99157	0.79223
2320.06301	0.79093
2318.13444	0.78935
2316.20588	0.78717
2314.27732	0.78457
2312.34875	0.78247
2310.42019	0.78097
2308.49162	0.77949
2306.56306	0.77769
2304.63449	0.77616
2302.70593	0.77537
2300.77736	0.77482
2298.84880	0.77393
2296.92024	0.77276
2294.99167	0.77175
2293.06311	0.77128
2291.13454	0.77142
2289.20598	0.77198
2287.27741	0.77243
2285.34885	0.77262
2283.42028	0.77285
2281.49172	0.77302
2279.56316	0.77284
2277.63459	0.77260
2275.70603	0.77292
2273.77746	0.77333
2271.84890	0.77298
2269.92033	0.77226
2267.99177	0.77181
2266.06320	0.77135
2264.13464	0.77048
2262.20608	0.76949
2260.27751	0.76872
2258.34895	0.76797
2256.42038	0.76693
2254.49182	0.76559
2252.56325	0.76428
2250.63469	0.76323
2248.70612	0.76220
2246.77756	0.76091
2244.84900	0.75969
2242.92043	0.75880
2240.99187	0.75772
2239.06330	0.75638
2237.13474	0.75531
2235.20617	0.75457
2233.27761	0.75384
2231.34904	0.75290
2229.42048	0.75174
2227.49192	0.75059
2225.56335	0.74985
2223.63479	0.74967
2221.70622	0.74976
2219.77766	0.74985
2217.84909	0.74960
2215.92053	0.74910
2213.99196	0.74866
2212.06340	0.74832
2210.13484	0.74822
2208.20627	0.74847
2206.27771	0.74881
2204.34914	0.74887
2202.42058	0.74879
2200.49201	0.74869
2198.56345	0.74833
2196.63488	0.74803
2194.70632	0.74830
2192.77776	0.74877
2190.84919	0.74889
2188.92063	0.74854
2186.99206	0.74798
2185.06350	0.74766
2183.13493	0.74762
2181.20637	0.74740
2179.27781	0.74667
2177.34924	0.74559
2175.42068	0.74460
2173.49211	0.74382
2171.56355	0.74280
2169.63498	0.74140
2167.70642	0.74009
2165.77785	0.73904
2163.84929	0.73798
2161.92073	0.73676
2159.99216	0.73547
2158.06360	0.73451
2156.13503	0.73411
2154.20647	0.73391
2152.27790	0.73352
2150.34934	0.73313
2148.42077	0.73306
2146.49221	0.73313
2144.56365	0.73284
2142.63508	0.73205
2140.70652	0.73118
2138.77795	0.73076
2136.84939	0.73081
2134.92082	0.73088
2132.99226	0.73078
2131.06369	0.73057
2129.13513	0.73009
2127.20657	0.72945
2125.27800	0.72899
2123.34944	0.72871
2121.42087	0.72837
2119.49231	0.72767
2117.56374	0.72666
2115.63518	0.72572
2113.70661	0.72529
2111.77805	0.72527
2109.84949	0.72516
2107.92092	0.72458
2105.99236	0.72367
2104.06379	0.72301
2102.13523	0.72263
2100.20666	0.72199
2098.27810	0.72107
2096.34953	0.72011
2094.42097	0.71901
2092.49241	0.71768
2090.56384	0.71646
2088.63528	0.71556
2086.70671	0.71477
2084.77815	0.71385
2082.84958	0.71281
2080.92102	0.71168
2078.99245	0.71033
2077.06389	0.70905
2075.13533	0.70838
2073.20676	0.70811
2071.27820	0.70771
2069.34963	0.70707
2067.42107	0.70639
2065.49250	0.70608
2063.56394	0.70596
2061.63537	0.70528
2059.70681	0.70411
2057.77825	0.70311
2055.84968	0.70250
2053.92112	0.70217
2051.99255	0.70160
2050.06399	0.70064
2048.13542	0.69977
2046.20686	0.69890
2044.27830	0.69783
2042.34973	0.69668
2040.42117	0.69535
2038.49260	0.69368
2036.56404	0.69190
2034.63547	0.69035
2032.70691	0.68907
2030.77834	0.68775
2028.84978	0.68623
2026.92122	0.68458
2024.99265	0.68299
2023.06409	0.68163
2021.13552	0.68034
2019.20696	0.67927
2017.27839	0.67881
2015.34983	0.67853
2013.42126	0.67791
2011.49270	0.67725
2009.56414	0.67686
2007.63557	0.67664
2005.70701	0.67644
2003.77844	0.67606
2001.84988	0.67553
1999.92131	0.67518
1997.99275	0.67493
1996.06418	0.67461
1994.13562	0.67466
1992.20706	0.67501
1990.27849	0.67451
1988.34993	0.67327
1986.42136	0.67233
1984.49280	0.67168
1982.56423	0.67080
1980.63567	0.66970
1978.70710	0.66879
1976.77854	0.66801
1974.84998	0.66698
1972.92141	0.66582
1970.99285	0.66475
1969.06428	0.66408
1967.13572	0.66384
1965.20715	0.66332
1963.27859	0.66235
1961.35002	0.66132
1959.42146	0.66019
1957.49290	0.65900
1955.56433	0.65802
1953.63577	0.65705
1951.70720	0.65575
1949.77864	0.65426
1947.85007	0.65270
1945.92151	0.65093
1943.99294	0.64919
1942.06438	0.64757
1940.13582	0.64549
1938.20725	0.64333
1936.27869	0.64172
1934.35012	0.64042
1932.42156	0.63914
1930.49299	0.63793
1928.56443	0.63698
1926.63586	0.63653
1924.70730	0.63666
1922.77874	0.63707
1920.85017	0.63703
1918.92161	0.63730
1916.99304	0.63810
1915.06448	0.63807
1913.13591	0.63781
1911.20735	0.63840
1909.27878	0.63937
1907.35022	0.63973
1905.42166	0.63927
1903.49309	0.63844
1901.56453	0.63753
1899.63596	0.63672
1897.70740	0.63617
1895.77883	0.63572
1893.85027	0.63478
1891.92171	0.63355
1889.99314	0.63292
1888.06458	0.63202
1886.13601	0.63027
1884.20745	0.62864
1882.27888	0.62724
1880.35032	0.62580
1878.42175	0.62445
1876.49319	0.62322
1874.56463	0.62199
1872.63606	0.62083
1870.70750	0.62054
1868.77893	0.62176
1866.85037	0.62220
1864.92180	0.62088
1862.99324	0.61973
1861.06467	0.61939
1859.13611	0.61927
1857.20755	0.61896
1855.27898	0.61855
1853.35042	0.61829
1851.42185	0.61804
1849.49329	0.61761
1847.56472	0.61712
1845.63616	0.61729
1843.70759	0.61790
1841.77903	0.61702
1839.85047	0.61541
1837.92190	0.61464
1835.99334	0.61448
1834.06477	0.61390
1832.13621	0.61362
1830.20764	0.61487
1828.27908	0.61574
1826.35051	0.61505
1824.42195	0.61451
1822.49339	0.61404
1820.56482	0.61349
1818.63626	0.61348
1816.70769	0.61359
1814.77913	0.61333
1812.85056	0.61310
1810.92200	0.61320
1808.99343	0.61289
1807.06487	0.61185
1805.13631	0.61072
1803.20774	0.61012
1801.27918	0.61055
1799.35061	0.61121
1797.42205	0.61100
1795.49348	0.61045
1793.56492	0.61104
1791.63635	0.61298
1789.70779	0.61310
1787.77923	0.61216
1785.85066	0.61239
1783.92210	0.61358
1781.99353	0.61499
1780.06497	0.61665
1778.13640	0.61765
1776.20784	0.61796
1774.27927	0.61948
1772.35071	0.62316
1770.42215	0.62547
1768.49358	0.62569
1766.56502	0.62553
1764.63645	0.62555
1762.70789	0.62745
1760.77932	0.63101
1758.85076	0.63389
1756.92220	0.63775
1754.99363	0.64205
1753.06507	0.64626
1751.13650	0.65433
1749.20794	0.66672
1747.27937	0.67697
1745.35081	0.68418
1743.42224	0.69050
1741.49368	0.69672
1739.56512	0.70247
1737.63655	0.70543
1735.70799	0.70754
1733.77942	0.71412
1731.85086	0.71954
1729.92229	0.72145
1727.99373	0.72376
1726.06516	0.72706
1724.13660	0.73232
1722.20804	0.73784
1720.27947	0.74255
1718.35091	0.75257
1716.42234	0.77267
1714.49378	0.78746
1712.56521	0.79663
1710.63665	0.80717
1708.70808	0.82100
1706.77952	0.84321
1704.85096	0.87380
1702.92239	0.90110
1700.99383	0.94043
1699.06526	1.00637
1697.13670	1.06904
1695.20813	1.12948
1693.27957	1.17307
1691.35100	1.20611
1689.42244	1.24664
1687.49388	1.28458
1685.56531	1.32400
1683.63675	1.39023
1681.70818	1.43718
1679.77962	1.45834
1677.85105	1.47516
1675.92249	1.49792
1673.99392	1.52754
1672.06536	1.55173
1670.13680	1.57545
1668.20823	1.59888
1666.27967	1.60936
1664.35110	1.61829
1662.42254	1.63378
1660.49397	1.64613
1658.56541	1.65119
1656.63684	1.65119
1654.70828	1.64998
1652.77972	1.65431
1650.85115	1.65644
1648.92259	1.65434
1646.99402	1.65275
1645.06546	1.64955
1643.13689	1.64336
1641.20833	1.63937
1639.27976	1.63803
1637.35120	1.63828
1635.42264	1.63539
1633.49407	1.62707
1631.56551	1.62025
1629.63694	1.61410
1627.70838	1.60624
1625.77981	1.59520
1623.85125	1.58304
1621.92269	1.57154
1619.99412	1.55934
1618.06556	1.54187
1616.13699	1.51559
1614.20843	1.49107
1612.27986	1.46863
1610.35130	1.44539
1608.42273	1.42286
1606.49417	1.40241
1604.56561	1.38514
1602.63704	1.37133
1600.70848	1.36116
1598.77991	1.35402
1596.85135	1.34923
1594.92278	1.34623
1592.99422	1.34398
1591.06565	1.34264
1589.13709	1.34373
1587.20853	1.34803
1585.27996	1.35487
1583.35140	1.36375
1581.42283	1.37331
1579.49427	1.38230
1577.56570	1.39594
1575.63714	1.41854
1573.70857	1.43274
1571.78001	1.44084
1569.85145	1.45562
1567.92288	1.47118
1565.99432	1.48143
1564.06575	1.49234
1562.13719	1.50054
1560.20862	1.51175
1558.28006	1.54301
1556.35149	1.55483
1554.42293	1.55582
1552.49437	1.55772
1550.56580	1.55718
1548.63724	1.55217
1546.70867	1.54629
1544.78011	1.54216
1542.85154	1.53948
1540.92298	1.53930
1538.99441	1.53219
1537.06585	1.52098
1535.13729	1.51165
1533.20872	1.50352
1531.28016	1.49486
1529.35159	1.48708
1527.42303	1.48132
1525.49446	1.47577
1523.56590	1.46887
1521.63733	1.46045
1519.70877	1.45405
1517.78021	1.44976
1515.85164	1.44123
1513.92308	1.42608
1511.99451	1.40872
1510.06595	1.39388
1508.13738	1.37608
1506.20882	1.33893
1504.28025	1.31158
1502.35169	1.29280
1500.42313	1.27364
1498.49456	1.25205
1496.56600	1.22693
1494.63743	1.20466
1492.70887	1.18830
1490.78030	1.17258
1488.85174	1.15371
1486.92317	1.13732
1484.99461	1.12631
1483.06605	1.11939
1481.13748	1.11568
1479.20892	1.11492
1477.28035	1.11795
1475.35179	1.12702
1473.42322	1.14657
1471.49466	1.16811
1469.56610	1.17728
1467.63753	1.18172
1465.70897	1.18882
1463.78040	1.19754
1461.85184	1.20208
1459.92327	1.20483
1457.99471	1.21357
1456.06614	1.22422
1454.13758	1.22391
1452.20902	1.22055
1450.28045	1.21728
1448.35189	1.21385
1446.42332	1.20915
1444.49476	1.20292
1442.56619	1.19619
1440.63763	1.18994
1438.70906	1.18369
1436.78050	1.17519
1434.85194	1.16430
1432.92337	1.15378
1430.99481	1.14405
1429.06624	1.13617
1427.13768	1.13119
1425.20911	1.12934
1423.28055	1.13065
1421.35198	1.13383
1419.42342	1.14024
1417.49486	1.14786
1415.56629	1.15069
1413.63773	1.15163
1411.70916	1.15330
1409.78060	1.15569
1407.85203	1.15852
1405.92347	1.16251
1403.99490	1.16617
1402.06634	1.16749
1400.13778	1.16815
1398.20921	1.16882
1396.28065	1.16894
1394.35208	1.16785
1392.42352	1.16501
1390.49495	1.16328
1388.56639	1.16602
1386.63782	1.17183
1384.70926	1.17584
1382.78070	1.17866
1380.85213	1.18096
1378.92357	1.18078
1376.99500	1.17698
1375.06644	1.16902
1373.13787	1.15746
1371.20931	1.14541
1369.28074	1.13256
1367.35218	1.11771
1365.42362	1.10327
1363.49505	1.09114
1361.56649	1.08177
1359.63792	1.07494
1357.70936	1.07014
1355.78079	1.06685
1353.85223	1.06438
1351.92366	1.06255
1349.99510	1.06145
1348.06654	1.06088
1346.13797	1.06048
1344.20941	1.06028
1342.28084	1.06083
1340.35228	1.06269
1338.42371	1.06523
1336.49515	1.06767
1334.56659	1.07106
1332.63802	1.07633
1330.70946	1.08308
1328.78089	1.08988
1326.85233	1.09531
1324.92376	1.09907
1322.99520	1.10212
1321.06663	1.10577
1319.13807	1.11002
1317.20951	1.11312
1315.28094	1.11469
1313.35238	1.11629
1311.42381	1.11777
1309.49525	1.11791
1307.56668	1.11710
1305.63812	1.11616
1303.70955	1.11476
1301.78099	1.11237
1299.85243	1.10946
1297.92386	1.10659
1295.99530	1.10408
1294.06673	1.10232
1292.13817	1.10153
1290.20960	1.10173
1288.28104	1.10242
1286.35247	1.10304
1284.42391	1.10372
1282.49535	1.10455
1280.56678	1.10546
1278.63822	1.10688
1276.70965	1.10885
1274.78109	1.11107
1272.85252	1.11402
1270.92396	1.11800
1268.99539	1.12284
1267.06683	1.12823
1265.13827	1.13306
1263.20970	1.13630
1261.28114	1.13834
1259.35257	1.13999
1257.42401	1.14144
1255.49544	1.14279
1253.56688	1.14429
1251.63831	1.14580
1249.70975	1.14760
1247.78119	1.15029
1245.85262	1.15330
1243.92406	1.15538
1241.99549	1.15568
1240.06693	1.15436
1238.13836	1.15238
1236.20980	1.14977
1234.28123	1.14553
1232.35267	1.13954
1230.42411	1.13253
1228.49554	1.12522
1226.56698	1.11736
1224.63841	1.10790
1222.70985	1.09741
1220.78128	1.08792
1218.85272	1.07977
1216.92415	1.07198
1214.99559	1.06453
1213.06703	1.05850
1211.13846	1.05515
1209.20990	1.05395
1207.28133	1.05255
1205.35277	1.04899
1203.42420	1.04266
1201.49564	1.03434
1199.56708	1.02541
1197.63851	1.01626
1195.70995	1.00697
1193.78138	0.99859
1191.85282	0.99184
1189.92425	0.98661
1187.99569	0.98274
1186.06712	0.97955
1184.13856	0.97706
1182.21000	0.97627
1180.28143	0.97768
1178.35287	0.98141
1176.42430	0.98697
1174.49574	0.99347
1172.56717	1.00078
1170.63861	1.00915
1168.71004	1.01904
1166.78148	1.03156
1164.85292	1.04674
1162.92435	1.06229
1160.99579	1.07544
1159.06722	1.08386
1157.13866	1.08547
1155.21009	1.07951
1153.28153	1.06728
1151.35296	1.05144
1149.42440	1.03452
1147.49584	1.01847
1145.56727	1.00504
1143.63871	0.99515
1141.71014	0.98882
1139.78158	0.98611
1137.85301	0.98703
1135.92445	0.99121
1133.99588	0.99822
1132.06732	1.00735
1130.13876	1.01844
1128.21019	1.03190
1126.28163	1.04635
1124.35306	1.05963
1122.42450	1.07108
1120.49593	1.08082
1118.56737	1.08909
1116.63880	1.09467
1114.71024	1.09548
1112.78168	1.09223
1110.85311	1.08698
1108.92455	1.08022
1106.99598	1.07291
1105.06742	1.06698
1103.13885	1.06279
1101.21029	1.05994
1099.28172	1.05955
1097.35316	1.06276
1095.42460	1.06913
1093.49603	1.07807
1091.56747	1.09055
1089.63890	1.10697
1087.71034	1.12541
1085.78177	1.14459
1083.85321	1.16409
1081.92464	1.18178
1079.99608	1.19451
1078.06752	1.20056
1076.13895	1.20109
1074.21039	1.19735
1072.28182	1.18842
1070.35326	1.17495
1068.42469	1.16061
1066.49613	1.14755
1064.56756	1.13495
1062.63900	1.12181
1060.71044	1.10762
1058.78187	1.09233
1056.85331	1.07776
1054.92474	1.06614
1052.99618	1.05705
1051.06761	1.04866
1049.13905	1.04179
1047.21049	1.03886
1045.28192	1.04066
1043.35336	1.04679
1041.42479	1.05535
1039.49623	1.06338
1037.56766	1.06964
1035.63910	1.07446
1033.71053	1.07816
1031.78197	1.08001
1029.85341	1.07838
1027.92484	1.07339
1025.99628	1.06665
1024.06771	1.05852
1022.13915	1.04968
1020.21058	1.04197
1018.28202	1.03531
1016.35345	1.02823
1014.42489	1.01944
1012.49633	1.00720
1010.56776	0.99108
1008.63920	0.97288
1006.71063	0.95438
1004.78207	0.93697
1002.85350	0.92183
1000.92494	0.90934
998.99637	0.89918
997.06781	0.89100
995.13925	0.88419
993.21068	0.87780
991.28212	0.87119
989.35355	0.86428
987.42499	0.85720
985.49642	0.85048
983.56786	0.84497
981.63929	0.84128
979.71073	0.83920
977.78217	0.83734
975.85360	0.83400
973.92504	0.82809
971.99647	0.81922
970.06791	0.80818
968.13934	0.79650
966.21078	0.78543
964.28221	0.77623
962.35365	0.77102
960.42509	0.77224
958.49652	0.78012
956.56796	0.79028
954.63939	0.79616
952.71083	0.79481
950.78226	0.78852
948.85370	0.78105
946.92513	0.77461
944.99657	0.77003
943.06801	0.76778
941.13944	0.76751
939.21088	0.76797
937.28231	0.76846
935.35375	0.76916
933.42518	0.77022
931.49662	0.77145
929.56805	0.77258
927.63949	0.77375
925.71093	0.77530
923.78236	0.77725
921.85380	0.77916
919.92523	0.78044
917.99667	0.78066
916.06810	0.77960
914.13954	0.77786
912.21098	0.77670
910.28241	0.77684
908.35385	0.77815
906.42528	0.78028
904.49672	0.78295
902.56815	0.78552
900.63959	0.78717
898.71102	0.78760
896.78246	0.78678
894.85390	0.78456
892.92533	0.78080
890.99677	0.77616
889.06820	0.77213
887.13964	0.76948
885.21107	0.76760
883.28251	0.76621
881.35394	0.76590
879.42538	0.76669
877.49682	0.76823
875.56825	0.77058
873.63969	0.77351
871.71112	0.77663
869.78256	0.78004
867.85399	0.78391
865.92543	0.78815
863.99686	0.79267
862.06830	0.79759
860.13974	0.80337
858.21117	0.80991
856.28261	0.81631
854.35404	0.82206
852.42548	0.82754
850.49691	0.83274
848.56835	0.83702
846.63978	0.84025
844.71122	0.84278
842.78266	0.84560
840.85409	0.84965
838.92553	0.85443
836.99696	0.85888
835.06840	0.86267
833.13983	0.86591
831.21127	0.86876
829.28270	0.87101
827.35414	0.87219
825.42558	0.87245
823.49701	0.87235
821.56845	0.87215
819.63988	0.87222
817.71132	0.87303
815.78275	0.87421
813.85419	0.87491
811.92562	0.87489
809.99706	0.87478
808.06850	0.87531
806.13993	0.87617
804.21137	0.87700
802.28280	0.87823
800.35424	0.87985
798.42567	0.88198
796.49711	0.88532
794.56854	0.88969
792.63998	0.89473
790.71142	0.90096
788.78285	0.90808
786.85429	0.91474
784.92572	0.92021
782.99716	0.92515
781.06859	0.93088
779.14003	0.93738
777.21147	0.94332
775.28290	0.94816
773.35434	0.95189
771.42577	0.95456
769.49721	0.95639
767.56864	0.95798
765.64008	0.96005
763.71151	0.96229
761.78295	0.96412
759.85439	0.96540
757.92582	0.96549
755.99726	0.96480
754.06869	0.96530
752.14013	0.96685
750.21156	0.96799
748.28300	0.96948
746.35443	0.97157
744.42587	0.97183
742.49731	0.96987
740.56874	0.96859
738.64018	0.96917
736.71161	0.97044
734.78305	0.97194
732.85448	0.97402
730.92592	0.97731
728.99735	0.98155
727.06879	0.98579
725.14023	0.99001
723.21166	0.99423
721.28310	0.99851
719.35453	1.00264
717.42597	1.00608
715.49740	1.00936
713.56884	1.01290
711.64027	1.01666
709.71171	1.02115
707.78315	1.02605
705.85458	1.03016
703.92602	1.03326
701.99745	1.03581
700.06889	1.03812
698.14032	1.03996
696.21176	1.03998
694.28319	1.03713
692.35463	1.03260
690.42607	1.02942
688.49750	1.02930
686.56894	1.03017
684.64037	1.02884
682.71181	1.02507
680.78324	1.02055
678.85468	1.01659
676.92611	1.01429
674.99755	1.01376
673.06899	1.01376
671.14042	1.01432
669.21186	1.01772
667.28329	1.02080
665.35473	1.01869
663.42616	1.01729
661.49760	1.01918
659.56903	1.02290
657.64047	1.02684
655.71191	1.03117
653.78334	1.03618
651.85478	1.04092
649.92621	1.04392
647.99765	1.04520
646.06908	1.04635
644.14052	1.04917
642.21195	1.05424
640.28339	1.06026
638.35483	1.06545
636.42626	1.06885
634.49770	1.06864
632.56913	1.06418
630.64057	1.05954
628.71200	1.05840
626.78344	1.05939
624.85488	1.05851
622.92631	1.05422
620.99775	1.04833
619.06918	1.04304
617.14062	1.03909
615.21205	1.03353
613.28349	1.02458
611.35492	1.01676
609.42636	1.01176
607.49780	1.00634
605.56923	1.00179
603.64067	1.00154
601.71210	1.00349
599.78354	1.00373
