3997.91406	0.94727
3995.98550	0.94656
3994.05693	0.94583
3992.12837	0.94475
3990.19980	0.94437
3988.27124	0.94416
3986.34268	0.94291
3984.41411	0.94235
3982.48555	0.94297
3980.55698	0.94230
3978.62842	0.94015
3976.69985	0.93892
3974.77129	0.93909
3972.84272	0.93871
3970.91416	0.93782
3968.98560	0.93783
3967.05703	0.93845
3965.12847	0.93818
3963.19990	0.93691
3961.27134	0.93635
3959.34277	0.93657
3957.41421	0.93690
3955.48564	0.93716
3953.55708	0.93595
3951.62852	0.93352
3949.69995	0.93305
3947.77139	0.93410
3945.84282	0.93178
3943.91426	0.92810
3941.98569	0.92857
3940.05713	0.93063
3938.12856	0.93026
3936.20000	0.92769
3934.27144	0.92518
3932.34287	0.92508
3930.41431	0.92541
3928.48574	0.92275
3926.55718	0.91963
3924.62861	0.91932
3922.70005	0.91894
3920.77148	0.91702
3918.84292	0.91708
3916.91436	0.91942
3914.98579	0.91995
3913.05723	0.91787
3911.12866	0.91517
3909.20010	0.91122
3907.27153	0.90680
3905.34297	0.90786
3903.41440	0.91503
3901.48584	0.91855
3899.55728	0.91710
3897.62871	0.91350
3895.70015	0.90818
3893.77158	0.90483
3891.84302	0.90823
3889.91445	0.90853
3887.98589	0.90162
3886.05733	0.90004
3884.12876	0.90418
3882.20020	0.90550
3880.27163	0.90780
3878.34307	0.90508
3876.41450	0.89690
3874.48594	0.89206
3872.55737	0.89243
3870.62881	0.89754
3868.70025	0.90110
3866.77168	0.89703
3864.84312	0.89720
3862.91455	0.90366
3860.98599	0.90178
3859.05742	0.89186
3857.12886	0.87911
3855.20029	0.87170
3853.27173	0.88894
3851.34317	0.90350
3849.41460	0.89907
3847.48604	0.89100
3845.55747	0.88515
3843.62891	0.88286
3841.70034	0.88226
3839.77178	0.88551
3837.84321	0.89353
3835.91465	0.89559
3833.98609	0.89218
3832.05752	0.88846
3830.12896	0.88411
3828.20039	0.87957
3826.27183	0.87589
3824.34326	0.87043
3822.41470	0.86932
3820.48613	0.87930
3818.55757	0.88174
3816.62901	0.88159
3814.70044	0.88575
3812.77188	0.88516
3810.84331	0.88043
3808.91475	0.87658
3806.98618	0.87776
3805.05762	0.87694
3803.12905	0.87585
3801.20049	0.88495
3799.27193	0.88872
3797.34336	0.88597
3795.41480	0.88394
3793.48623	0.87996
3791.55767	0.87615
3789.62910	0.87442
3787.70054	0.87315
3785.77197	0.87238
3783.84341	0.87067
3781.91485	0.86729
3779.98628	0.86795
3778.05772	0.87173
3776.12915	0.87074
3774.20059	0.86642
3772.27202	0.86358
3770.34346	0.86482
3768.41489	0.86526
3766.48633	0.86441
3764.55777	0.86511
3762.62920	0.86276
3760.70064	0.85973
3758.77207	0.86031
3756.84351	0.85851
3754.91494	0.85262
3752.98638	0.84876
3751.05781	0.85758
3749.12925	0.86508
3747.20069	0.85933
3745.27212	0.85767
3743.34356	0.86160
3741.41499	0.85769
3739.48643	0.84829
3737.55786	0.83950
3735.62930	0.84108
3733.70074	0.85512
3731.77217	0.86260
3729.84361	0.85969
3727.91504	0.85548
3725.98648	0.85613
3724.05791	0.85840
3722.12935	0.85962
3720.20078	0.86138
3718.27222	0.86048
3716.34366	0.85478
3714.41509	0.84743
3712.48653	0.84715
3710.55796	0.85716
3708.62940	0.86046
3706.70083	0.85675
3704.77227	0.85257
3702.84370	0.85239
3700.91514	0.85504
3698.98658	0.85417
3697.05801	0.85174
3695.12945	0.84933
3693.20088	0.84595
3691.27232	0.84670
3689.34375	0.85781
3687.41519	0.86485
3685.48662	0.86268
3683.55806	0.85798
3681.62950	0.85319
3679.70093	0.84859
3677.77237	0.84663
3675.84380	0.85610
3673.91524	0.86334
3671.98667	0.85995
3670.05811	0.86529
3668.12954	0.87526
3666.20098	0.87674
3664.27242	0.87558
3662.34385	0.87434
3660.41529	0.87266
3658.48672	0.87373
3656.55816	0.88211
3654.62959	0.88773
3652.70103	0.88352
3650.77246	0.88266
3648.84390	0.90235
3646.91534	0.91722
3644.98677	0.91804
3643.05821	0.91672
3641.12964	0.91709
3639.20108	0.91818
3637.27251	0.91859
3635.34395	0.91969
3633.41538	0.92060
3631.48682	0.91939
3629.55826	0.92826
3627.62969	0.94782
3625.70113	0.95206
3623.77256	0.94842
3621.84400	0.94596
3619.91543	0.95188
3617.98687	0.96409
3616.05830	0.96996
3614.12974	0.97394
3612.20118	0.97806
3610.27261	0.98036
3608.34405	0.98779
3606.41548	0.99746
3604.48692	0.99991
3602.55835	0.99914
3600.62979	1.00152
3598.70123	1.00587
3596.77266	1.00978
3594.84410	1.01595
3592.91553	1.02111
3590.98697	1.02126
3589.05840	1.02549
3587.12984	1.04174
3585.20127	1.05398
3583.27271	1.05807
3581.34415	1.06185
3579.41558	1.06585
3577.48702	1.06893
3575.55845	1.07217
3573.62989	1.07473
3571.70132	1.07497
3569.77276	1.07650
3567.84419	1.08760
3565.91563	1.10321
3563.98707	1.10842
3562.05850	1.11010
3560.12994	1.11448
3558.20137	1.11945
3556.27281	1.12212
3554.34424	1.12542
3552.41568	1.13294
3550.48711	1.13979
3548.55855	1.14387
3546.62999	1.15082
3544.70142	1.16104
3542.77286	1.16876
3540.84429	1.17296
3538.91573	1.17634
3536.98716	1.18114
3535.05860	1.18657
3533.13003	1.18997
3531.20147	1.19285
3529.27291	1.19840
3527.34434	1.20459
3525.41578	1.20984
3523.48721	1.21707
3521.55865	1.22491
3519.63008	1.23083
3517.70152	1.23712
3515.77295	1.24542
3513.84439	1.25330
3511.91583	1.25865
3509.98726	1.26423
3508.05870	1.27070
3506.13013	1.27523
3504.20157	1.28203
3502.27300	1.29461
3500.34444	1.30617
3498.41587	1.31349
3496.48731	1.32043
3494.55875	1.32783
3492.63018	1.33226
3490.70162	1.33387
3488.77305	1.33623
3486.84449	1.34157
3484.91592	1.34845
3482.98736	1.35583
3481.05879	1.36346
3479.13023	1.36744
3477.20167	1.36662
3475.27310	1.36595
3473.34454	1.37056
3471.41597	1.37850
3469.48741	1.38287
3467.55884	1.38236
3465.63028	1.38267
3463.70171	1.38868
3461.77315	1.39941
3459.84459	1.40899
3457.91602	1.41333
3455.98746	1.41309
3454.05889	1.41116
3452.13033	1.41131
3450.20176	1.41603
3448.27320	1.42503
3446.34464	1.43358
3444.41607	1.43511
3442.48751	1.43208
3440.55894	1.42942
3438.63038	1.42767
3436.70181	1.42815
3434.77325	1.42967
3432.84468	1.42857
3430.91612	1.42589
3428.98756	1.42701
3427.05899	1.43243
3425.13043	1.43607
3423.20186	1.43705
3421.27330	1.43619
3419.34473	1.43216
3417.41617	1.43144
3415.48760	1.43788
3413.55904	1.44406
3411.63048	1.44605
3409.70191	1.44618
3407.77335	1.44200
3405.84478	1.43656
3403.91622	1.43841
3401.98765	1.44327
3400.05909	1.44313
3398.13052	1.44364
3396.20196	1.44924
3394.27340	1.45220
3392.34483	1.44920
3390.41627	1.44634
3388.48770	1.44586
3386.55914	1.44638
3384.63057	1.44833
3382.70201	1.45228
3380.77344	1.45760
3378.84488	1.46144
3376.91632	1.46113
3374.98775	1.45857
3373.05919	1.45672
3371.13062	1.45759
3369.20206	1.46161
3367.27349	1.46425
3365.34493	1.46229
3363.41636	1.46099
3361.48780	1.46524
3359.55924	1.47047
3357.63067	1.47318
3355.70211	1.47733
3353.77354	1.48163
3351.84498	1.48192
3349.91641	1.48068
3347.98785	1.48195
3346.05928	1.48558
3344.13072	1.48841
3342.20216	1.48997
3340.27359	1.49221
3338.34503	1.49550
3336.41646	1.49914
3334.48790	1.50357
3332.55933	1.50855
3330.63077	1.50879
3328.70220	1.50421
3326.77364	1.50425
3324.84508	1.50989
3322.91651	1.51565
3320.98795	1.52267
3319.05938	1.53024
3317.13082	1.53402
3315.20225	1.53440
3313.27369	1.53500
3311.34513	1.53897
3309.41656	1.54546
3307.48800	1.55112
3305.55943	1.55434
3303.63087	1.55461
3301.70230	1.55378
3299.77374	1.55504
3297.84517	1.55885
3295.91661	1.56261
3293.98805	1.56404
3292.05948	1.56310
3290.13092	1.56154
3288.20235	1.56284
3286.27379	1.56808
3284.34522	1.57488
3282.41666	1.58032
3280.48809	1.58212
3278.55953	1.58093
3276.63097	1.57968
3274.70240	1.57932
3272.77384	1.57545
3270.84527	1.56588
3268.91671	1.55613
3266.98814	1.54995
3265.05958	1.54546
3263.13101	1.53800
3261.20245	1.52718
3259.27389	1.51856
3257.34532	1.51243
3255.41676	1.50611
3253.48819	1.50131
3251.55963	1.49621
3249.63106	1.48729
3247.70250	1.47688
3245.77393	1.46921
3243.84537	1.46559
3241.91681	1.46102
3239.98824	1.45233
3238.05968	1.44419
3236.13111	1.43807
3234.20255	1.43098
3232.27398	1.42207
3230.34542	1.41389
3228.41685	1.41129
3226.48829	1.41243
3224.55973	1.40945
3222.63116	1.40390
3220.70260	1.40348
3218.77403	1.40466
3216.84547	1.39884
3214.91690	1.38943
3212.98834	1.38435
3211.05977	1.38271
3209.13121	1.37940
3207.20265	1.37405
3205.27408	1.36832
3203.34552	1.36201
3201.41695	1.35617
3199.48839	1.35122
3197.55982	1.34552
3195.63126	1.33930
3193.70269	1.33338
3191.77413	1.32809
3189.84557	1.32331
3187.91700	1.31710
3185.98844	1.30980
3184.05987	1.30448
3182.13131	1.30194
3180.20274	1.29992
3178.27418	1.29608
3176.34562	1.29048
3174.41705	1.28550
3172.48849	1.28293
3170.55992	1.28117
3168.63136	1.27730
3166.70279	1.27170
3164.77423	1.26618
3162.84566	1.26007
3160.91710	1.25379
3158.98854	1.24970
3157.05997	1.24635
3155.13141	1.24222
3153.20284	1.23915
3151.27428	1.23655
3149.34571	1.23280
3147.41715	1.22847
3145.48858	1.22449
3143.56002	1.22136
3141.63146	1.21910
3139.70289	1.21858
3137.77433	1.21947
3135.84576	1.21958
3133.91720	1.21858
3131.98863	1.21619
3130.06007	1.21301
3128.13150	1.21182
3126.20294	1.21130
3124.27438	1.20896
3122.34581	1.20784
3120.41725	1.20895
3118.48868	1.20782
3116.56012	1.20401
3114.63155	1.20279
3112.70299	1.20570
3110.77442	1.20924
3108.84586	1.21016
3106.91730	1.20786
3104.98873	1.20496
3103.06017	1.20326
3101.13160	1.20182
3099.20304	1.20017
3097.27447	1.19825
3095.34591	1.19636
3093.41734	1.19521
3091.48878	1.19380
3089.56022	1.19154
3087.63165	1.18940
3085.70309	1.18699
3083.77452	1.18355
3081.84596	1.17998
3079.91739	1.17719
3077.98883	1.17510
3076.06026	1.17343
3074.13170	1.17178
3072.20314	1.16980
3070.27457	1.16789
3068.34601	1.16620
3066.41744	1.16346
3064.48888	1.15968
3062.56031	1.15668
3060.63175	1.15388
3058.70318	1.14950
3056.77462	1.14372
3054.84606	1.13752
3052.91749	1.13259
3050.98893	1.12983
3049.06036	1.12735
3047.13180	1.12430
3045.20323	1.12093
3043.27467	1.11589
3041.34610	1.10981
3039.41754	1.10467
3037.48898	1.10023
3035.56041	1.09587
3033.63185	1.09259
3031.70328	1.09103
3029.77472	1.08870
3027.84615	1.08429
3025.91759	1.08012
3023.98903	1.07690
3022.06046	1.07422
3020.13190	1.07224
3018.20333	1.06995
3016.27477	1.06714
3014.34620	1.06421
3012.41764	1.06096
3010.48907	1.05839
3008.56051	1.05657
3006.63195	1.05370
3004.70338	1.05016
3002.77482	1.04738
3000.84625	1.04494
2998.91769	1.04311
2996.98912	1.04329
2995.06056	1.04550
2993.13199	1.04805
2991.20343	1.04971
2989.27487	1.05209
2987.34630	1.05683
2985.41774	1.06177
2983.48917	1.06479
2981.56061	1.06826
2979.63204	1.07512
2977.70348	1.08385
2975.77491	1.09125
2973.84635	1.09754
2971.91779	1.10465
2969.98922	1.11157
2968.06066	1.11657
2966.13209	1.12080
2964.20353	1.12481
2962.27496	1.12718
2960.34640	1.12736
2958.41783	1.12570
2956.48927	1.12210
2954.56071	1.11548
2952.63214	1.10693
2950.70358	1.10099
2948.77501	1.09942
2946.84645	1.09996
2944.91788	1.10177
2942.98932	1.10611
2941.06075	1.11391
2939.13219	1.12483
2937.20363	1.13685
2935.27506	1.14838
2933.34650	1.15919
2931.41793	1.16864
2929.48937	1.17593
2927.56080	1.18182
2925.63224	1.18875
2923.70367	1.19656
2921.77511	1.20151
2919.84655	1.20246
2917.91798	1.19908
2915.98942	1.18792
2914.06085	1.16741
2912.13229	1.14161
2910.20372	1.11821
2908.27516	1.10180
2906.34659	1.09083
2904.41803	1.08247
2902.48947	1.07584
2900.56090	1.07083
2898.63234	1.06727
2896.70377	1.06419
2894.77521	1.05993
2892.84664	1.05495
2890.91808	1.05085
2888.98952	1.04709
2887.06095	1.04333
2885.13239	1.04015
2883.20382	1.03725
2881.27526	1.03527
2879.34669	1.03537
2877.41813	1.03608
2875.48956	1.03515
2873.56100	1.03236
2871.63244	1.02829
2869.70387	1.02272
2867.77531	1.01538
2865.84674	1.00781
2863.91818	1.00304
2861.98961	1.00241
2860.06105	1.00558
2858.13248	1.01252
2856.20392	1.02248
2854.27536	1.03343
2852.34679	1.04398
2850.41823	1.05045
2848.48966	1.04441
2846.56110	1.02305
2844.63253	0.99592
2842.70397	0.97320
2840.77540	0.95753
2838.84684	0.94713
2836.91828	0.93961
2834.98971	0.93376
2833.06115	0.92907
2831.13258	0.92458
2829.20402	0.92050
2827.27545	0.91729
2825.34689	0.91360
2823.41832	0.90938
2821.48976	0.90643
2819.56120	0.90389
2817.63263	0.90034
2815.70407	0.89726
2813.77550	0.89540
2811.84694	0.89334
2809.91837	0.89057
2807.98981	0.88744
2806.06124	0.88421
2804.13268	0.88125
2802.20412	0.87830
2800.27555	0.87526
2798.34699	0.87293
2796.41842	0.87152
2794.48986	0.87031
2792.56129	0.86841
2790.63273	0.86558
2788.70416	0.86262
2786.77560	0.86045
2784.84704	0.85895
2782.91847	0.85734
2780.98991	0.85530
2779.06134	0.85316
2777.13278	0.85121
2775.20421	0.84951
2773.27565	0.84804
2771.34708	0.84647
2769.41852	0.84465
2767.48996	0.84322
2765.56139	0.84223
2763.63283	0.84094
2761.70426	0.83918
2759.77570	0.83741
2757.84713	0.83599
2755.91857	0.83515
2753.99001	0.83464
2752.06144	0.83372
2750.13288	0.83206
2748.20431	0.83051
2746.27575	0.82979
2744.34718	0.82925
2742.41862	0.82831
2740.49005	0.82703
2738.56149	0.82524
2736.63293	0.82331
2734.70436	0.82199
2732.77580	0.82108
2730.84723	0.81976
2728.91867	0.81747
2726.99010	0.81457
2725.06154	0.81248
2723.13297	0.81180
2721.20441	0.81128
2719.27585	0.80987
2717.34728	0.80803
2715.41872	0.80647
2713.49015	0.80530
2711.56159	0.80406
2709.63302	0.80239
2707.70446	0.80074
2705.77589	0.79996
2703.84733	0.79955
2701.91877	0.79821
2699.99020	0.79621
2698.06164	0.79470
2696.13307	0.79364
2694.20451	0.79283
2692.27594	0.79243
2690.34738	0.79206
2688.41881	0.79140
2686.49025	0.79050
2684.56169	0.78920
2682.63312	0.78761
2680.70456	0.78611
2678.77599	0.78486
2676.84743	0.78374
2674.91886	0.78270
2672.99030	0.78181
2671.06173	0.78093
2669.13317	0.77986
2667.20461	0.77852
2665.27604	0.77736
2663.34748	0.77705
2661.41891	0.77700
2659.49035	0.77586
2657.56178	0.77389
2655.63322	0.77279
2653.70465	0.77287
2651.77609	0.77284
2649.84753	0.77215
2647.91896	0.77130
2645.99040	0.77027
2644.06183	0.76884
2642.13327	0.76760
2640.20470	0.76693
2638.27614	0.76637
2636.34757	0.76561
2634.41901	0.76430
2632.49045	0.76231
2630.56188	0.76054
2628.63332	0.75976
2626.70475	0.75942
2624.77619	0.75867
2622.84762	0.75750
2620.91906	0.75628
2618.99049	0.75513
2617.06193	0.75393
2615.13337	0.75239
2613.20480	0.75089
2611.27624	0.75008
2609.34767	0.74962
2607.41911	0.74897
2605.49054	0.74830
2603.56198	0.74759
2601.63342	0.74671
2599.70485	0.74607
2597.77629	0.74552
2595.84772	0.74472
2593.91916	0.74394
2591.99059	0.74326
2590.06203	0.74250
2588.13346	0.74182
2586.20490	0.74138
2584.27634	0.74088
2582.34777	0.74004
2580.41921	0.73907
2578.49064	0.73816
2576.56208	0.73704
2574.63351	0.73576
2572.70495	0.73458
2570.77638	0.73333
2568.84782	0.73196
2566.91926	0.73062
2564.99069	0.72951
2563.06213	0.72857
2561.13356	0.72769
2559.20500	0.72685
2557.27643	0.72582
2555.34787	0.72464
2553.41930	0.72353
2551.49074	0.72230
2549.56218	0.72106
2547.63361	0.72019
2545.70505	0.71941
2543.77648	0.71828
2541.84792	0.71702
2539.91935	0.71607
2537.99079	0.71539
2536.06222	0.71475
2534.13366	0.71402
2532.20510	0.71325
2530.27653	0.71240
2528.34797	0.71150
2526.41940	0.71079
2524.49084	0.71020
2522.56227	0.70962
2520.63371	0.70927
2518.70514	0.70912
2516.77658	0.70881
2514.84802	0.70835
2512.91945	0.70791
2510.99089	0.70749
2509.06232	0.70701
2507.13376	0.70647
2505.20519	0.70603
2503.27663	0.70579
2501.34806	0.70535
2499.41950	0.70438
2497.49094	0.70306
2495.56237	0.70171
2493.63381	0.70049
2491.70524	0.69933
2489.77668	0.69824
2487.84811	0.69743
2485.91955	0.69664
2483.99098	0.69533
2482.06242	0.69364
2480.13386	0.69217
2478.20529	0.69105
2476.27673	0.69009
2474.34816	0.68913
2472.41960	0.68799
2470.49103	0.68695
2468.56247	0.68622
2466.63391	0.68549
2464.70534	0.68465
2462.77678	0.68407
2460.84821	0.68378
2458.91965	0.68320
2456.99108	0.68242
2455.06252	0.68205
2453.13395	0.68194
2451.20539	0.68160
2449.27683	0.68112
2447.34826	0.68075
2445.41970	0.68044
2443.49113	0.67989
2441.56257	0.67920
2439.63400	0.67873
2437.70544	0.67857
2435.77687	0.67850
2433.84831	0.67795
2431.91975	0.67669
2429.99118	0.67556
2428.06262	0.67487
2426.13405	0.67409
2424.20549	0.67339
2422.27692	0.67296
2420.34836	0.67231
2418.41979	0.67139
2416.49123	0.67047
2414.56267	0.66948
2412.63410	0.66840
2410.70554	0.66726
2408.77697	0.66607
2406.84841	0.66503
2404.91984	0.66418
2402.99128	0.66350
2401.06271	0.66267
2399.13415	0.66146
2397.20559	0.66033
2395.27702	0.65931
2393.34846	0.65823
2391.41989	0.65742
2389.49133	0.65687
2387.56276	0.65593
2385.63420	0.65426
2383.70563	0.65262
2381.77707	0.65183
2379.84851	0.65145
2377.91994	0.65095
2375.99138	0.65068
2374.06281	0.65080
2372.13425	0.65038
2370.20568	0.64834
2368.27712	0.64592
2366.34855	0.64506
2364.41999	0.64321
2362.49143	0.63868
2360.56286	0.63819
2358.63430	0.64467
2356.70573	0.64983
2354.77717	0.65081
2352.84860	0.65208
2350.92004	0.65131
2348.99147	0.64666
2347.06291	0.64142
2345.13435	0.64009
2343.20578	0.64214
2341.27722	0.64220
2339.34865	0.64086
2337.42009	0.64005
2335.49152	0.63982
2333.56296	0.63972
2331.63440	0.63932
2329.70583	0.63851
2327.77727	0.63798
2325.84870	0.63824
2323.92014	0.63910
2321.99157	0.64034
2320.06301	0.64100
2318.13444	0.64030
2316.20588	0.63902
2314.27732	0.63817
2312.34875	0.63778
2310.42019	0.63742
2308.49162	0.63711
2306.56306	0.63718
2304.63449	0.63729
2302.70593	0.63678
2300.77736	0.63582
2298.84880	0.63512
2296.92024	0.63488
2294.99167	0.63489
2293.06311	0.63475
2291.13454	0.63420
2289.20598	0.63351
2287.27741	0.63276
2285.34885	0.63179
2283.42028	0.63088
2281.49172	0.63036
2279.56316	0.63023
2277.63459	0.63018
2275.70603	0.62962
2273.77746	0.62865
2271.84890	0.62813
2269.92033	0.62809
2267.99177	0.62788
2266.06320	0.62744
2264.13464	0.62720
2262.20608	0.62725
2260.27751	0.62712
2258.34895	0.62663
2256.42038	0.62599
2254.49182	0.62537
2252.56325	0.62497
2250.63469	0.62465
2248.70612	0.62416
2246.77756	0.62382
2244.84900	0.62359
2242.92043	0.62315
2240.99187	0.62278
2239.06330	0.62266
2237.13474	0.62249
2235.20617	0.62220
2233.27761	0.62191
2231.34904	0.62157
2229.42048	0.62126
2227.49192	0.62125
2225.56335	0.62136
2223.63479	0.62123
2221.70622	0.62082
2219.77766	0.62033
2217.84909	0.61998
2215.92053	0.61977
2213.99196	0.61948
2212.06340	0.61897
2210.13484	0.61837
2208.20627	0.61782
2206.27771	0.61726
2204.34914	0.61662
2202.42058	0.61625
2200.49201	0.61629
2198.56345	0.61619
2196.63488	0.61580
2194.70632	0.61552
2192.77776	0.61555
2190.84919	0.61572
2188.92063	0.61583
2186.99206	0.61571
2185.06350	0.61542
2183.13493	0.61522
2181.20637	0.61509
2179.27781	0.61492
2177.34924	0.61480
2175.42068	0.61477
2173.49211	0.61464
2171.56355	0.61417
2169.63498	0.61348
2167.70642	0.61294
2165.77785	0.61265
2163.84929	0.61244
2161.92073	0.61207
2159.99216	0.61142
2158.06360	0.61075
2156.13503	0.61038
2154.20647	0.61014
2152.27790	0.60980
2150.34934	0.60949
2148.42077	0.60926
2146.49221	0.60910
2144.56365	0.60914
2142.63508	0.60914
2140.70652	0.60883
2138.77795	0.60837
2136.84939	0.60780
2134.92082	0.60699
2132.99226	0.60610
2131.06369	0.60543
2129.13513	0.60504
2127.20657	0.60465
2125.27800	0.60402
2123.34944	0.60327
2121.42087	0.60266
2119.49231	0.60217
2117.56374	0.60174
2115.63518	0.60144
2113.70661	0.60125
2111.77805	0.60107
2109.84949	0.60086
2107.92092	0.60075
2105.99236	0.60073
2104.06379	0.60052
2102.13523	0.60021
2100.20666	0.60004
2098.27810	0.59982
2096.34953	0.59931
2094.42097	0.59861
2092.49241	0.59784
2090.56384	0.59700
2088.63528	0.59618
2086.70671	0.59521
2084.77815	0.59390
2082.84958	0.59249
2080.92102	0.59133
2078.99245	0.59044
2077.06389	0.58950
2075.13533	0.58825
2073.20676	0.58690
2071.27820	0.58590
2069.34963	0.58522
2067.42107	0.58454
2065.49250	0.58412
2063.56394	0.58412
2061.63537	0.58402
2059.70681	0.58371
2057.77825	0.58349
2055.84968	0.58332
2053.92112	0.58298
2051.99255	0.58246
2050.06399	0.58182
2048.13542	0.58121
2046.20686	0.58061
2044.27830	0.57989
2042.34973	0.57922
2040.42117	0.57866
2038.49260	0.57793
2036.56404	0.57703
2034.63547	0.57601
2032.70691	0.57494
2030.77834	0.57401
2028.84978	0.57319
2026.92122	0.57235
2024.99265	0.57143
2023.06409	0.57057
2021.13552	0.56983
2019.20696	0.56922
2017.27839	0.56885
2015.34983	0.56830
2013.42126	0.56715
2011.49270	0.56603
2009.56414	0.56536
2007.63557	0.56474
2005.70701	0.56392
2003.77844	0.56300
2001.84988	0.56209
1999.92131	0.56129
1997.99275	0.56044
1996.06418	0.55917
1994.13562	0.55782
1992.20706	0.55710
1990.27849	0.55666
1988.34993	0.55610
1986.42136	0.55562
1984.49280	0.55506
1982.56423	0.55437
1980.63567	0.55378
1978.70710	0.55346
1976.77854	0.55325
1974.84998	0.55284
1972.92141	0.55216
1970.99285	0.55135
1969.06428	0.55070
1967.13572	0.55044
1965.20715	0.54993
1963.27859	0.54889
1961.35002	0.54787
1959.42146	0.54678
1957.49290	0.54536
1955.56433	0.54403
1953.63577	0.54280
1951.70720	0.54136
1949.77864	0.53991
1947.85007	0.53873
1945.92151	0.53750
1943.99294	0.53642
1942.06438	0.53613
1940.13582	0.53566
1938.20725	0.53460
1936.27869	0.53381
1934.35012	0.53346
1932.42156	0.53309
1930.49299	0.53255
1928.56443	0.53203
1926.63586	0.53136
1924.70730	0.53063
1922.77874	0.53028
1920.85017	0.52973
1918.92161	0.52922
1916.99304	0.52926
1915.06448	0.52858
1913.13591	0.52703
1911.20735	0.52576
1909.27878	0.52522
1907.35022	0.52480
1905.42166	0.52393
1903.49309	0.52300
1901.56453	0.52242
1899.63596	0.52195
1897.70740	0.52134
1895.77883	0.52101
1893.85027	0.52078
1891.92171	0.52013
1889.99314	0.51985
1888.06458	0.51971
1886.13601	0.51869
1884.20745	0.51745
1882.27888	0.51648
1880.35032	0.51561
1878.42175	0.51484
1876.49319	0.51414
1874.56463	0.51291
1872.63606	0.51077
1870.70750	0.50884
1868.77893	0.50895
1866.85037	0.50950
1864.92180	0.50813
1862.99324	0.50616
1861.06467	0.50469
1859.13611	0.50361
1857.20755	0.50257
1855.27898	0.50155
1853.35042	0.50058
1851.42185	0.49940
1849.49329	0.49799
1847.56472	0.49649
1845.63616	0.49605
1843.70759	0.49764
1841.77903	0.49819
1839.85047	0.49695
1837.92190	0.49600
1835.99334	0.49567
1834.06477	0.49450
1832.13621	0.49273
1830.20764	0.49249
1828.27908	0.49303
1826.35051	0.49250
1824.42195	0.49211
1822.49339	0.49148
1820.56482	0.49004
1818.63626	0.48879
1816.70769	0.48784
1814.77913	0.48661
1812.85056	0.48531
1810.92200	0.48466
1808.99343	0.48437
1807.06487	0.48357
1805.13631	0.48228
1803.20774	0.48109
1801.27918	0.48093
1799.35061	0.48147
1797.42205	0.48120
1795.49348	0.48003
1793.56492	0.47971
1791.63635	0.48189
1789.70779	0.48287
1787.77923	0.48149
1785.85066	0.48017
1783.92210	0.47973
1781.99353	0.47980
1780.06497	0.48038
1778.13640	0.48030
1776.20784	0.47869
1774.27927	0.47727
1772.35071	0.47892
1770.42215	0.48174
1768.49358	0.48284
1766.56502	0.48294
1764.63645	0.48242
1762.70789	0.48321
1760.77932	0.48585
1758.85076	0.48786
1756.92220	0.49056
1754.99363	0.49339
1753.06507	0.49521
1751.13650	0.49957
1749.20794	0.50814
1747.27937	0.51579
1745.35081	0.52086
1743.42224	0.52505
1741.49368	0.52944
1739.56512	0.53379
1737.63655	0.53538
1735.70799	0.53553
1733.77942	0.54027
1731.85086	0.54543
1729.92229	0.54750
1727.99373	0.54958
1726.06516	0.55209
1724.13660	0.55641
1722.20804	0.56087
1720.27947	0.56380
1718.35091	0.57071
1716.42234	0.58773
1714.49378	0.60142
1712.56521	0.60937
1710.63665	0.61736
1708.70808	0.62716
1706.77952	0.64379
1704.85096	0.66779
1702.92239	0.68897
1700.99383	0.72055
1699.06526	0.77632
1697.13670	0.83291
1695.20813	0.88923
1693.27957	0.92886
1691.35100	0.95945
1689.42244	0.99970
1687.49388	1.03899
1685.56531	1.08122
1683.63675	1.15817
1681.70818	1.21794
1679.77962	1.25031
1677.85105	1.28086
1675.92249	1.31987
1673.99392	1.36430
1672.06536	1.39899
1670.13680	1.43911
1668.20823	1.48596
1666.27967	1.51055
1664.35110	1.52942
1662.42254	1.55918
1660.49397	1.58573
1658.56541	1.59982
1656.63684	1.60809
1654.70828	1.62238
1652.77972	1.64318
1650.85115	1.63819
1648.92259	1.62775
1646.99402	1.62366
1645.06546	1.62263
1643.13689	1.61777
1641.20833	1.61297
1639.27976	1.60909
1637.35120	1.60676
1635.42264	1.60343
1633.49407	1.59653
1631.56551	1.58865
1629.63694	1.57662
1627.70838	1.56050
1625.77981	1.54267
1623.85125	1.51995
1621.92269	1.49216
1619.99412	1.46628
1618.06556	1.43348
1616.13699	1.38700
1614.20843	1.35076
1612.27986	1.32205
1610.35130	1.29037
1608.42273	1.25678
1606.49417	1.22750
1604.56561	1.20540
1602.63704	1.18891
1600.70848	1.17661
1598.77991	1.16769
1596.85135	1.16110
1594.92278	1.15591
1592.99422	1.15269
1591.06565	1.15185
1589.13709	1.15318
1587.20853	1.15799
1585.27996	1.16725
1583.35140	1.18003
1581.42283	1.19320
1579.49427	1.20462
1577.56570	1.22118
1575.63714	1.24976
1573.70857	1.26914
1571.78001	1.28143
1569.85145	1.30406
1567.92288	1.33061
1565.99432	1.34963
1564.06575	1.36589
1562.13719	1.37461
1560.20862	1.38284
1558.28006	1.42247
1556.35149	1.44964
1554.42293	1.45701
1552.49437	1.46124
1550.56580	1.46459
1548.63724	1.46667
1546.70867	1.46580
1544.78011	1.46263
1542.85154	1.45617
1540.92298	1.44326
1538.99441	1.43109
1537.06585	1.42353
1535.13729	1.41464
1533.20872	1.40486
1531.28016	1.39545
1529.35159	1.38483
1527.42303	1.37189
1525.49446	1.35884
1523.56590	1.35024
1521.63733	1.34770
1519.70877	1.34675
1517.78021	1.33826
1515.85164	1.32140
1513.92308	1.30115
1511.99451	1.27969
1510.06595	1.25808
1508.13738	1.22756
1506.20882	1.17929
1504.28025	1.15094
1502.35169	1.13114
1500.42313	1.10948
1498.49456	1.08389
1496.56600	1.05493
1494.63743	1.03109
1492.70887	1.01315
1490.78030	0.99432
1488.85174	0.97373
1486.92317	0.95929
1484.99461	0.94992
1483.06605	0.94320
1481.13748	0.93882
1479.20892	0.93709
1477.28035	0.93921
1475.35179	0.94752
1473.42322	0.96677
1471.49466	0.99019
1469.56610	1.00227
1467.63753	1.00900
1465.70897	1.01843
1463.78040	1.02969
1461.85184	1.03515
1459.92327	1.03664
1457.99471	1.04382
1456.06614	1.05815
1454.13758	1.06192
1452.20902	1.06026
1450.28045	1.05815
1448.35189	1.05634
1446.42332	1.05329
1444.49476	1.04800
1442.56619	1.04067
1440.63763	1.03187
1438.70906	1.02193
1436.78050	1.01005
1434.85194	0.99790
1432.92337	0.98695
1430.99481	0.97630
1429.06624	0.96700
1427.13768	0.96033
1425.20911	0.95636
1423.28055	0.95504
1421.35198	0.95525
1419.42342	0.95862
1417.49486	0.96487
1415.56629	0.96780
1413.63773	0.96848
1411.70916	0.96916
1409.78060	0.97019
1407.85203	0.97174
1405.92347	0.97478
1403.99490	0.97858
1402.06634	0.98078
1400.13778	0.98267
1398.20921	0.98563
1396.28065	0.98856
1394.35208	0.99098
1392.42352	0.99277
1390.49495	0.99477
1388.56639	1.00030
1386.63782	1.01133
1384.70926	1.02270
1382.78070	1.03184
1380.85213	1.03895
1378.92357	1.04153
1376.99500	1.03802
1375.06644	1.02870
1373.13787	1.01476
1371.20931	0.99848
1369.28074	0.97960
1367.35218	0.95941
1365.42362	0.94099
1363.49505	0.92398
1361.56649	0.90989
1359.63792	0.90073
1357.70936	0.89407
1355.78079	0.88859
1353.85223	0.88474
1351.92366	0.88241
1349.99510	0.88093
1348.06654	0.87986
1346.13797	0.87909
1344.20941	0.87879
1342.28084	0.87921
1340.35228	0.88126
1338.42371	0.88525
1336.49515	0.88967
1334.56659	0.89449
1332.63802	0.90082
1330.70946	0.90845
1328.78089	0.91562
1326.85233	0.92103
1324.92376	0.92453
1322.99520	0.92683
1321.06663	0.92921
1319.13807	0.93232
1317.20951	0.93525
1315.28094	0.93718
1313.35238	0.93874
1311.42381	0.93993
1309.49525	0.94010
1307.56668	0.93936
1305.63812	0.93791
1303.70955	0.93589
1301.78099	0.93372
1299.85243	0.93139
1297.92386	0.92839
1295.99530	0.92486
1294.06673	0.92183
1292.13817	0.92016
1290.20960	0.91993
1288.28104	0.92083
1286.35247	0.92236
1284.42391	0.92371
1282.49535	0.92436
1280.56678	0.92463
1278.63822	0.92540
1276.70965	0.92740
1274.78109	0.93066
1272.85252	0.93519
1270.92396	0.94118
1268.99539	0.94838
1267.06683	0.95595
1265.13827	0.96298
1263.20970	0.96846
1261.28114	0.97166
1259.35257	0.97322
1257.42401	0.97469
1255.49544	0.97678
1253.56688	0.97906
1251.63831	0.98130
1249.70975	0.98363
1247.78119	0.98576
1245.85262	0.98741
1243.92406	0.98852
1241.99549	0.98856
1240.06693	0.98701
1238.13836	0.98436
1236.20980	0.98091
1234.28123	0.97580
1232.35267	0.96872
1230.42411	0.96038
1228.49554	0.95126
1226.56698	0.94142
1224.63841	0.93097
1222.70985	0.92032
1220.78128	0.90962
1218.85272	0.89902
1216.92415	0.88960
1214.99559	0.88280
1213.06703	0.87910
1211.13846	0.87810
1209.20990	0.87869
1207.28133	0.87880
1205.35277	0.87631
1203.42420	0.87075
1201.49564	0.86321
1199.56708	0.85463
1197.63851	0.84565
1195.70995	0.83718
1193.78138	0.82970
1191.85282	0.82330
1189.92425	0.81822
1187.99569	0.81473
1186.06712	0.81278
1184.13856	0.81219
1182.21000	0.81293
1180.28143	0.81537
1178.35287	0.81988
1176.42430	0.82617
1174.49574	0.83330
1172.56717	0.84066
1170.63861	0.84890
1168.71004	0.85938
1166.78148	0.87312
1164.85292	0.88967
1162.92435	0.90667
1160.99579	0.92117
1159.06722	0.93011
1157.13866	0.93107
1155.21009	0.92378
1153.28153	0.90965
1151.35296	0.89125
1149.42440	0.87172
1147.49584	0.85373
1145.56727	0.83876
1143.63871	0.82728
1141.71014	0.81984
1139.78158	0.81721
1137.85301	0.81935
1135.92445	0.82506
1133.99588	0.83359
1132.06732	0.84551
1130.13876	0.86115
1128.21019	0.87934
1126.28163	0.89805
1124.35306	0.91524
1122.42450	0.93000
1120.49593	0.94283
1118.56737	0.95344
1116.63880	0.96010
1114.71024	0.96174
1112.78168	0.95889
1110.85311	0.95283
1108.92455	0.94482
1106.99598	0.93647
1105.06742	0.92910
1103.13885	0.92269
1101.21029	0.91695
1099.28172	0.91325
1097.35316	0.91388
1095.42460	0.91958
1093.49603	0.92880
1091.56747	0.93998
1089.63890	0.95432
1087.71034	0.97381
1085.78177	0.99710
1083.85321	1.02112
1081.92464	1.04331
1079.99608	1.06080
1078.06752	1.07148
1076.13895	1.07496
1074.21039	1.07141
1072.28182	1.06121
1070.35326	1.04621
1068.42469	1.02901
1066.49613	1.01182
1064.56756	0.99590
1062.63900	0.98116
1060.71044	0.96733
1058.78187	0.95446
1056.85331	0.94264
1054.92474	0.93194
1052.99618	0.92248
1051.06761	0.91510
1049.13905	0.91125
1047.21049	0.91177
1045.28192	0.91642
1043.35336	0.92419
1041.42479	0.93338
1039.49623	0.94262
1037.56766	0.95126
1035.63910	0.95808
1033.71053	0.96223
1031.78197	0.96348
1029.85341	0.96141
1027.92484	0.95593
1025.99628	0.94712
1024.06771	0.93560
1022.13915	0.92347
1020.21058	0.91222
1018.28202	0.90159
1016.35345	0.89063
1014.42489	0.87758
1012.49633	0.86061
1010.56776	0.84018
1008.63920	0.81837
1006.71063	0.79695
1004.78207	0.77721
1002.85350	0.76030
1000.92494	0.74688
998.99637	0.73699
997.06781	0.73014
995.13925	0.72527
993.21068	0.72121
991.28212	0.71713
989.35355	0.71277
987.42499	0.70881
985.49642	0.70602
983.56786	0.70459
981.63929	0.70427
979.71073	0.70476
977.78217	0.70571
975.85360	0.70619
973.92504	0.70473
971.99647	0.70041
970.06791	0.69334
968.13934	0.68435
966.21078	0.67474
964.28221	0.66593
962.35365	0.65958
960.42509	0.65727
958.49652	0.65886
956.56796	0.66119
954.63939	0.66038
952.71083	0.65519
950.78226	0.64715
948.85370	0.63882
946.92513	0.63269
944.99657	0.62979
943.06801	0.62949
941.13944	0.63080
939.21088	0.63313
937.28231	0.63607
935.35375	0.63919
933.42518	0.64190
931.49662	0.64361
929.56805	0.64418
927.63949	0.64379
925.71093	0.64274
923.78236	0.64149
921.85380	0.63983
919.92523	0.63739
917.99667	0.63421
916.06810	0.63063
914.13954	0.62744
912.21098	0.62543
910.28241	0.62492
908.35385	0.62607
906.42528	0.62894
904.49672	0.63343
902.56815	0.63921
900.63959	0.64553
898.71102	0.65162
896.78246	0.65722
894.85390	0.66267
892.92533	0.66831
890.99677	0.67394
889.06820	0.67913
887.13964	0.68353
885.21107	0.68682
883.28251	0.68878
881.35394	0.68919
879.42538	0.68763
877.49682	0.68393
875.56825	0.67842
873.63969	0.67150
871.71112	0.66375
869.78256	0.65612
867.85399	0.64942
865.92543	0.64439
863.99686	0.64152
862.06830	0.64070
860.13974	0.64205
858.21117	0.64577
856.28261	0.65136
854.35404	0.65840
852.42548	0.66662
850.49691	0.67523
848.56835	0.68393
846.63978	0.69308
844.71122	0.70236
842.78266	0.71105
840.85409	0.71882
838.92553	0.72617
836.99696	0.73313
835.06840	0.73838
833.13983	0.74124
831.21127	0.74258
829.28270	0.74321
827.35414	0.74260
825.42558	0.74002
823.49701	0.73585
821.56845	0.73124
819.63988	0.72684
817.71132	0.72271
815.78275	0.71947
813.85419	0.71760
811.92562	0.71649
809.99706	0.71598
808.06850	0.71697
806.13993	0.72008
804.21137	0.72494
802.28280	0.73063
800.35424	0.73648
798.42567	0.74237
796.49711	0.74808
794.56854	0.75294
792.63998	0.75637
790.71142	0.75815
788.78285	0.75838
786.85429	0.75731
784.92572	0.75519
782.99716	0.75210
781.06859	0.74817
779.14003	0.74408
777.21147	0.74099
775.28290	0.73954
773.35434	0.73926
771.42577	0.73983
769.49721	0.74185
767.56864	0.74560
765.64008	0.75041
763.71151	0.75596
761.78295	0.76233
759.85439	0.76920
757.92582	0.77664
755.99726	0.78498
754.06869	0.79360
752.14013	0.80166
750.21156	0.80899
748.28300	0.81534
746.35443	0.81991
744.42587	0.82225
742.49731	0.82214
740.56874	0.81955
738.64018	0.81541
736.71161	0.81067
734.78305	0.80593
732.85448	0.80180
730.92592	0.79797
728.99735	0.79364
727.06879	0.78974
725.14023	0.78825
723.21166	0.79003
721.28310	0.79433
719.35453	0.79868
717.42597	0.80165
715.49740	0.80555
713.56884	0.81287
711.64027	0.82288
709.71171	0.83309
707.78315	0.84250
705.85458	0.85173
703.92602	0.86078
701.99745	0.86816
700.06889	0.87299
698.14032	0.87604
696.21176	0.87752
694.28319	0.87712
692.35463	0.87552
690.42607	0.87330
688.49750	0.87065
686.56894	0.86730
684.64037	0.86309
682.71181	0.85942
680.78324	0.85719
678.85468	0.85568
676.92611	0.85344
674.99755	0.84976
673.06899	0.84634
671.14042	0.84438
669.21186	0.84486
667.28329	0.84879
665.35473	0.85060
663.42616	0.85012
661.49760	0.84923
659.56903	0.84794
657.64047	0.84535
655.71191	0.84093
653.78334	0.83607
651.85478	0.83245
649.92621	0.82977
647.99765	0.82718
646.06908	0.82492
644.14052	0.82418
642.21195	0.82583
640.28339	0.82896
638.35483	0.83118
636.42626	0.83234
634.49770	0.83511
632.56913	0.83983
630.64057	0.84483
628.71200	0.84987
626.78344	0.85569
624.85488	0.86364
622.92631	0.87309
620.99775	0.88031
619.06918	0.88388
617.14062	0.88520
615.21205	0.88417
613.28349	0.88190
611.35492	0.88130
609.42636	0.88171
607.49780	0.87887
605.56923	0.87117
603.64067	0.86204
601.71210	0.85617
599.78354	0.85453
