3997.91406	1.24591
3995.98550	1.24512
3994.05693	1.24450
3992.12837	1.24667
3990.19980	1.24817
3988.27124	1.24615
3986.34268	1.24418
3984.41411	1.24336
3982.48555	1.24216
3980.55698	1.24083
3978.62842	1.24112
3976.69985	1.24499
3974.77129	1.24966
3972.84272	1.24808
3970.91416	1.24027
3968.98560	1.23324
3967.05703	1.23041
3965.12847	1.23054
3963.19990	1.23284
3961.27134	1.23587
3959.34277	1.23485
3957.41421	1.22833
3955.48564	1.22143
3953.55708	1.21858
3951.62852	1.21836
3949.69995	1.21741
3947.77139	1.21447
3945.84282	1.21148
3943.91426	1.21309
3941.98569	1.21716
3940.05713	1.21516
3938.12856	1.20975
3936.20000	1.20683
3934.27144	1.20663
3932.34287	1.20808
3930.41431	1.20901
3928.48574	1.20812
3926.55718	1.20998
3924.62861	1.21661
3922.70005	1.21921
3920.77148	1.21595
3918.84292	1.21409
3916.91436	1.21379
3914.98579	1.21001
3913.05723	1.20342
3911.12866	1.19839
3909.20010	1.19506
3907.27153	1.19041
3905.34297	1.18759
3903.41440	1.19155
3901.48584	1.19750
3899.55728	1.20164
3897.62871	1.19886
3895.70015	1.18740
3893.77158	1.17774
3891.84302	1.18227
3889.91445	1.18895
3887.98589	1.18559
3886.05733	1.18409
3884.12876	1.18746
3882.20020	1.18945
3880.27163	1.19049
3878.34307	1.18290
3876.41450	1.17381
3874.48594	1.17435
3872.55737	1.17782
3870.62881	1.18156
3868.70025	1.18556
3866.77168	1.18132
3864.84312	1.17884
3862.91455	1.18165
3860.98599	1.17705
3859.05742	1.16560
3857.12886	1.15504
3855.20029	1.15921
3853.27173	1.18901
3851.34317	1.19358
3849.41460	1.17918
3847.48604	1.16727
3845.55747	1.15920
3843.62891	1.15533
3841.70034	1.15607
3839.77178	1.16332
3837.84321	1.17289
3835.91465	1.17110
3833.98609	1.16415
3832.05752	1.15884
3830.12896	1.15246
3828.20039	1.14791
3826.27183	1.14795
3824.34326	1.14430
3822.41470	1.14008
3820.48613	1.14492
3818.55757	1.14579
3816.62901	1.15033
3814.70044	1.15736
3812.77188	1.15072
3810.84331	1.13963
3808.91475	1.13796
3806.98618	1.14903
3805.05762	1.15052
3803.12905	1.14343
3801.20049	1.14863
3799.27193	1.15155
3797.34336	1.14820
3795.41480	1.14737
3793.48623	1.14393
3791.55767	1.13864
3789.62910	1.13522
3787.70054	1.13298
3785.77197	1.13279
3783.84341	1.13258
3781.91485	1.12959
3779.98628	1.13278
3778.05772	1.14038
3776.12915	1.13822
3774.20059	1.13051
3772.27202	1.12620
3770.34346	1.12943
3768.41489	1.13166
3766.48633	1.12671
3764.55777	1.12203
3762.62920	1.11895
3760.70064	1.11837
3758.77207	1.12140
3756.84351	1.11882
3754.91494	1.11006
3752.98638	1.10632
3751.05781	1.11998
3749.12925	1.12682
3747.20069	1.11547
3745.27212	1.11035
3743.34356	1.11750
3741.41499	1.11834
3739.48643	1.11042
3737.55786	1.10111
3735.62930	1.10249
3733.70074	1.11487
3731.77217	1.12054
3729.84361	1.11817
3727.91504	1.11422
3725.98648	1.11332
3724.05791	1.11445
3722.12935	1.11459
3720.20078	1.11322
3718.27222	1.11001
3716.34366	1.10448
3714.41509	1.09791
3712.48653	1.10007
3710.55796	1.11585
3708.62940	1.12186
3706.70083	1.11652
3704.77227	1.10844
3702.84370	1.10410
3700.91514	1.10335
3698.98658	1.10029
3697.05801	1.09851
3695.12945	1.09706
3693.20088	1.09000
3691.27232	1.08477
3689.34375	1.09863
3687.41519	1.11374
3685.48662	1.11433
3683.55806	1.11026
3681.62950	1.10649
3679.70093	1.10245
3677.77237	1.09864
3675.84380	1.10458
3673.91524	1.11057
3671.98667	1.10896
3670.05811	1.11983
3668.12954	1.13227
3666.20098	1.13138
3664.27242	1.12929
3662.34385	1.13006
3660.41529	1.12999
3658.48672	1.13068
3656.55816	1.13791
3654.62959	1.14011
3652.70103	1.13167
3650.77246	1.13083
3648.84390	1.15628
3646.91534	1.17322
3644.98677	1.17252
3643.05821	1.16955
3641.12964	1.16809
3639.20108	1.16732
3637.27251	1.16784
3635.34395	1.16989
3633.41538	1.17062
3631.48682	1.16979
3629.55826	1.18170
3627.62969	1.20341
3625.70113	1.20567
3623.77256	1.19936
3621.84400	1.19644
3619.91543	1.20614
3617.98687	1.22021
3616.05830	1.22210
3614.12974	1.22430
3612.20118	1.22998
3610.27261	1.23277
3608.34405	1.24040
3606.41548	1.24928
3604.48692	1.24959
3602.55835	1.24760
3600.62979	1.24912
3598.70123	1.25221
3596.77266	1.25570
3594.84410	1.26131
3592.91553	1.26438
3590.98697	1.26179
3589.05840	1.26450
3587.12984	1.28170
3585.20127	1.29293
3583.27271	1.29235
3581.34415	1.29131
3579.41558	1.29317
3577.48702	1.29646
3575.55845	1.30028
3573.62989	1.30384
3571.70132	1.30483
3569.77276	1.30608
3567.84419	1.31973
3565.91563	1.33950
3563.98707	1.34350
3562.05850	1.34268
3560.12994	1.34421
3558.20137	1.34547
3556.27281	1.34727
3554.34424	1.35400
3552.41568	1.36680
3550.48711	1.37720
3548.55855	1.38180
3546.62999	1.38532
3544.70142	1.38787
3542.77286	1.39012
3540.84429	1.39380
3538.91573	1.39763
3536.98716	1.40233
3535.05860	1.40904
3533.13003	1.41508
3531.20147	1.41921
3529.27291	1.42434
3527.34434	1.43233
3525.41578	1.44305
3523.48721	1.45512
3521.55865	1.46189
3519.63008	1.46475
3517.70152	1.46934
3515.77295	1.47000
3513.84439	1.46758
3511.91583	1.47196
3509.98726	1.48218
3508.05870	1.48904
3506.13013	1.49340
3504.20157	1.50517
3502.27300	1.52191
3500.34444	1.53231
3498.41587	1.53781
3496.48731	1.54237
3494.55875	1.54835
3492.63018	1.55818
3490.70162	1.56827
3488.77305	1.57131
3486.84449	1.57101
3484.91592	1.57451
3482.98736	1.57926
3481.05879	1.58530
3479.13023	1.59194
3477.20167	1.59520
3475.27310	1.59626
3473.34454	1.59577
3471.41597	1.59413
3469.48741	1.59735
3467.55884	1.60825
3465.63028	1.61973
3463.70171	1.62853
3461.77315	1.63427
3459.84459	1.63361
3457.91602	1.63290
3455.98746	1.63755
3454.05889	1.64256
3452.13033	1.64571
3450.20176	1.65158
3448.27320	1.66097
3446.34464	1.66475
3444.41607	1.65839
3442.48751	1.65139
3440.55894	1.65166
3438.63038	1.65728
3436.70181	1.66408
3434.77325	1.66808
3432.84468	1.66481
3430.91612	1.65809
3428.98756	1.65508
3427.05899	1.65384
3425.13043	1.65320
3423.20186	1.65985
3421.27330	1.67229
3419.34473	1.67699
3417.41617	1.67048
3415.48760	1.66251
3413.55904	1.66240
3411.63048	1.66939
3409.70191	1.67119
3407.77335	1.66242
3405.84478	1.65308
3403.91622	1.65393
3401.98765	1.66469
3400.05909	1.67409
3398.13052	1.67271
3396.20196	1.66409
3394.27340	1.66087
3392.34483	1.66787
3390.41627	1.67417
3388.48770	1.67354
3386.55914	1.67243
3384.63057	1.67376
3382.70201	1.67557
3380.77344	1.67816
3378.84488	1.68089
3376.91632	1.68005
3374.98775	1.67745
3373.05919	1.67749
3371.13062	1.67721
3369.20206	1.67308
3367.27349	1.66852
3365.34493	1.66868
3363.41636	1.67432
3361.48780	1.68461
3359.55924	1.69690
3357.63067	1.70625
3355.70211	1.71334
3353.77354	1.71784
3351.84498	1.71689
3349.91641	1.71429
3347.98785	1.71323
3346.05928	1.71348
3344.13072	1.71354
3342.20216	1.71381
3340.27359	1.71897
3338.34503	1.72761
3336.41646	1.73258
3334.48790	1.73085
3332.55933	1.72659
3330.63077	1.72770
3328.70220	1.73529
3326.77364	1.74275
3324.84508	1.74604
3322.91651	1.74864
3320.98795	1.75615
3319.05938	1.76733
3317.13082	1.77497
3315.20225	1.77579
3313.27369	1.77676
3311.34513	1.78509
3309.41656	1.79250
3307.48800	1.78820
3305.55943	1.77969
3303.63087	1.77715
3301.70230	1.78078
3299.77374	1.78856
3297.84517	1.79321
3295.91661	1.78604
3293.98805	1.77922
3292.05948	1.79063
3290.13092	1.81217
3288.20235	1.82372
3286.27379	1.82291
3284.34522	1.81831
3282.41666	1.81577
3280.48809	1.82017
3278.55953	1.82793
3276.63097	1.82412
3274.70240	1.80600
3272.77384	1.78825
3270.84527	1.77962
3268.91671	1.77629
3266.98814	1.77241
3265.05958	1.76709
3263.13101	1.76039
3261.20245	1.75159
3259.27389	1.74206
3257.34532	1.73629
3255.41676	1.73443
3253.48819	1.73043
3251.55963	1.72137
3249.63106	1.71078
3247.70250	1.70567
3245.77393	1.70473
3243.84537	1.69893
3241.91681	1.68835
3239.98824	1.67874
3238.05968	1.67496
3236.13111	1.67582
3234.20255	1.67351
3232.27398	1.66642
3230.34542	1.65767
3228.41685	1.64990
3226.48829	1.64495
3224.55973	1.64126
3222.63116	1.63654
3220.70260	1.62732
3218.77403	1.61412
3216.84547	1.60551
3214.91690	1.60435
3212.98834	1.60471
3211.05977	1.60161
3209.13121	1.59519
3207.20265	1.58866
3205.27408	1.58273
3203.34552	1.57632
3201.41695	1.57095
3199.48839	1.56931
3197.55982	1.56796
3195.63126	1.55827
3193.70269	1.54508
3191.77413	1.53774
3189.84557	1.53237
3187.91700	1.52718
3185.98844	1.52499
3184.05987	1.52254
3182.13131	1.51857
3180.20274	1.51549
3178.27418	1.51231
3176.34562	1.50725
3174.41705	1.49895
3172.48849	1.48587
3170.55992	1.47309
3168.63136	1.46690
3166.70279	1.46444
3164.77423	1.46170
3162.84566	1.45975
3160.91710	1.45793
3158.98854	1.45537
3157.05997	1.45400
3155.13141	1.45239
3153.20284	1.45003
3151.27428	1.45051
3149.34571	1.44984
3147.41715	1.44305
3145.48858	1.43413
3143.56002	1.42589
3141.63146	1.41936
3139.70289	1.41577
3137.77433	1.41214
3135.84576	1.40784
3133.91720	1.40708
3131.98863	1.40852
3130.06007	1.40779
3128.13150	1.40717
3126.20294	1.40901
3124.27438	1.40978
3122.34581	1.40743
3120.41725	1.40478
3118.48868	1.40451
3116.56012	1.40653
3114.63155	1.40877
3112.70299	1.40929
3110.77442	1.40855
3108.84586	1.40782
3106.91730	1.40619
3104.98873	1.40220
3103.06017	1.39804
3101.13160	1.39665
3099.20304	1.39625
3097.27447	1.39523
3095.34591	1.39541
3093.41734	1.39651
3091.48878	1.39641
3089.56022	1.39487
3087.63165	1.39148
3085.70309	1.38574
3083.77452	1.38069
3081.84596	1.37970
3079.91739	1.38095
3077.98883	1.38096
3076.06026	1.37879
3074.13170	1.37426
3072.20314	1.36813
3070.27457	1.36315
3068.34601	1.36127
3066.41744	1.35987
3064.48888	1.35594
3062.56031	1.35123
3060.63175	1.34689
3058.70318	1.34205
3056.77462	1.33717
3054.84606	1.33242
3052.91749	1.32773
3050.98893	1.32416
3049.06036	1.32143
3047.13180	1.31666
3045.20323	1.30887
3043.27467	1.30186
3041.34610	1.29919
3039.41754	1.29896
3037.48898	1.29762
3035.56041	1.29444
3033.63185	1.28944
3031.70328	1.28423
3029.77472	1.28091
3027.84615	1.27763
3025.91759	1.27304
3023.98903	1.26886
3022.06046	1.26569
3020.13190	1.26281
3018.20333	1.26056
3016.27477	1.25972
3014.34620	1.25926
3012.41764	1.25717
3010.48907	1.25362
3008.56051	1.25079
3006.63195	1.24864
3004.70338	1.24517
3002.77482	1.24144
3000.84625	1.23989
2998.91769	1.23905
2996.98912	1.23711
2995.06056	1.23675
2993.13199	1.23990
2991.20343	1.24385
2989.27487	1.24676
2987.34630	1.25054
2985.41774	1.25615
2983.48917	1.26194
2981.56061	1.26656
2979.63204	1.27062
2977.70348	1.27579
2975.77491	1.28269
2973.84635	1.29165
2971.91779	1.30238
2969.98922	1.31111
2968.06066	1.31500
2966.13209	1.31704
2964.20353	1.32053
2962.27496	1.32268
2960.34640	1.31999
2958.41783	1.31538
2956.48927	1.31171
2954.56071	1.30707
2952.63214	1.30112
2950.70358	1.29648
2948.77501	1.29354
2946.84645	1.29187
2944.91788	1.29283
2942.98932	1.29747
2941.06075	1.30537
2939.13219	1.31417
2937.20363	1.32379
2935.27506	1.33597
2933.34650	1.34719
2931.41793	1.35546
2929.48937	1.36504
2927.56080	1.37635
2925.63224	1.38485
2923.70367	1.38883
2921.77511	1.39001
2919.84655	1.39081
2917.91798	1.39057
2915.98942	1.38193
2914.06085	1.36199
2912.13229	1.33942
2910.20372	1.32083
2908.27516	1.30459
2906.34659	1.28874
2904.41803	1.27552
2902.48947	1.26676
2900.56090	1.26111
2898.63234	1.25683
2896.70377	1.25361
2894.77521	1.25196
2892.84664	1.25048
2890.91808	1.24633
2888.98952	1.23919
2887.06095	1.23183
2885.13239	1.22752
2883.20382	1.22617
2881.27526	1.22556
2879.34669	1.22571
2877.41813	1.22580
2875.48956	1.22329
2873.56100	1.21892
2871.63244	1.21420
2869.70387	1.20762
2867.77531	1.19912
2865.84674	1.19232
2863.91818	1.18924
2861.98961	1.18983
2860.06105	1.19498
2858.13248	1.20398
2856.20392	1.21400
2854.27536	1.22408
2852.34679	1.23465
2850.41823	1.24142
2848.48966	1.23543
2846.56110	1.21475
2844.63253	1.18834
2842.70397	1.16537
2840.77540	1.14890
2838.84684	1.13735
2836.91828	1.12784
2834.98971	1.11957
2833.06115	1.11356
2831.13258	1.10949
2829.20402	1.10597
2827.27545	1.10209
2825.34689	1.09816
2823.41832	1.09500
2821.48976	1.09180
2819.56120	1.08770
2817.63263	1.08380
2815.70407	1.08117
2813.77550	1.07896
2811.84694	1.07575
2809.91837	1.07176
2807.98981	1.06783
2806.06124	1.06422
2804.13268	1.06137
2802.20412	1.05919
2800.27555	1.05681
2798.34699	1.05423
2796.41842	1.05179
2794.48986	1.04937
2792.56129	1.04671
2790.63273	1.04409
2788.70416	1.04241
2786.77560	1.04144
2784.84704	1.03990
2782.91847	1.03787
2780.98991	1.03575
2779.06134	1.03331
2777.13278	1.03096
2775.20421	1.02947
2773.27565	1.02853
2771.34708	1.02698
2769.41852	1.02447
2767.48996	1.02193
2765.56139	1.02034
2763.63283	1.01940
2761.70426	1.01743
2759.77570	1.01407
2757.84713	1.01108
2755.91857	1.00912
2753.99001	1.00724
2752.06144	1.00543
2750.13288	1.00442
2748.20431	1.00358
2746.27575	1.00193
2744.34718	0.99992
2742.41862	0.99814
2740.49005	0.99633
2738.56149	0.99430
2736.63293	0.99223
2734.70436	0.99023
2732.77580	0.98862
2730.84723	0.98782
2728.91867	0.98706
2726.99010	0.98519
2725.06154	0.98295
2723.13297	0.98147
2721.20441	0.98029
2719.27585	0.97891
2717.34728	0.97747
2715.41872	0.97619
2713.49015	0.97535
2711.56159	0.97455
2709.63302	0.97315
2707.70446	0.97201
2705.77589	0.97157
2703.84733	0.97046
2701.91877	0.96847
2699.99020	0.96667
2698.06164	0.96523
2696.13307	0.96359
2694.20451	0.96163
2692.27594	0.96007
2690.34738	0.95922
2688.41881	0.95806
2686.49025	0.95611
2684.56169	0.95400
2682.63312	0.95159
2680.70456	0.94878
2678.77599	0.94670
2676.84743	0.94555
2674.91886	0.94417
2672.99030	0.94216
2671.06173	0.94031
2669.13317	0.93918
2667.20461	0.93845
2665.27604	0.93759
2663.34748	0.93621
2661.41891	0.93459
2659.49035	0.93359
2657.56178	0.93324
2655.63322	0.93284
2653.70465	0.93215
2651.77609	0.93123
2649.84753	0.93024
2647.91896	0.92930
2645.99040	0.92810
2644.06183	0.92656
2642.13327	0.92480
2640.20470	0.92323
2638.27614	0.92246
2636.34757	0.92198
2634.41901	0.92089
2632.49045	0.91928
2630.56188	0.91734
2628.63332	0.91521
2626.70475	0.91336
2624.77619	0.91245
2622.84762	0.91229
2620.91906	0.91150
2618.99049	0.90975
2617.06193	0.90791
2615.13337	0.90609
2613.20480	0.90428
2611.27624	0.90301
2609.34767	0.90239
2607.41911	0.90171
2605.49054	0.90072
2603.56198	0.90012
2601.63342	0.89998
2599.70485	0.89949
2597.77629	0.89816
2595.84772	0.89650
2593.91916	0.89524
2591.99059	0.89424
2590.06203	0.89306
2588.13346	0.89185
2586.20490	0.89071
2584.27634	0.88938
2582.34777	0.88795
2580.41921	0.88646
2578.49064	0.88470
2576.56208	0.88299
2574.63351	0.88162
2572.70495	0.88038
2570.77638	0.87912
2568.84782	0.87743
2566.91926	0.87534
2564.99069	0.87381
2563.06213	0.87287
2561.13356	0.87156
2559.20500	0.86973
2557.27643	0.86794
2555.34787	0.86653
2553.41930	0.86526
2551.49074	0.86382
2549.56218	0.86245
2547.63361	0.86142
2545.70505	0.86049
2543.77648	0.85954
2541.84792	0.85892
2539.91935	0.85838
2537.99079	0.85715
2536.06222	0.85536
2534.13366	0.85372
2532.20510	0.85255
2530.27653	0.85194
2528.34797	0.85153
2526.41940	0.85051
2524.49084	0.84906
2522.56227	0.84800
2520.63371	0.84719
2518.70514	0.84607
2516.77658	0.84489
2514.84802	0.84390
2512.91945	0.84277
2510.99089	0.84146
2509.06232	0.84032
2507.13376	0.83928
2505.20519	0.83792
2503.27663	0.83607
2501.34806	0.83429
2499.41950	0.83294
2497.49094	0.83155
2495.56237	0.83003
2493.63381	0.82899
2491.70524	0.82813
2489.77668	0.82680
2487.84811	0.82558
2485.91955	0.82501
2483.99098	0.82452
2482.06242	0.82387
2480.13386	0.82344
2478.20529	0.82320
2476.27673	0.82259
2474.34816	0.82151
2472.41960	0.82047
2470.49103	0.81969
2468.56247	0.81911
2466.63391	0.81861
2464.70534	0.81796
2462.77678	0.81714
2460.84821	0.81613
2458.91965	0.81498
2456.99108	0.81384
2455.06252	0.81236
2453.13395	0.81062
2451.20539	0.80934
2449.27683	0.80828
2447.34826	0.80676
2445.41970	0.80481
2443.49113	0.80301
2441.56257	0.80177
2439.63400	0.80088
2437.70544	0.79994
2435.77687	0.79884
2433.84831	0.79761
2431.91975	0.79622
2429.99118	0.79478
2428.06262	0.79325
2426.13405	0.79154
2424.20549	0.79014
2422.27692	0.78933
2420.34836	0.78850
2418.41979	0.78751
2416.49123	0.78699
2414.56267	0.78697
2412.63410	0.78652
2410.70554	0.78540
2408.77697	0.78405
2406.84841	0.78262
2404.91984	0.78163
2402.99128	0.78139
2401.06271	0.78098
2399.13415	0.77978
2397.20559	0.77827
2395.27702	0.77691
2393.34846	0.77556
2391.41989	0.77400
2389.49133	0.77230
2387.56276	0.77065
2385.63420	0.76884
2383.70563	0.76659
2381.77707	0.76394
2379.84851	0.76103
2377.91994	0.75846
2375.99138	0.75674
2374.06281	0.75533
2372.13425	0.75451
2370.20568	0.75517
2368.27712	0.75474
2366.34855	0.75059
2364.41999	0.74813
2362.49143	0.75186
2360.56286	0.75532
2358.63430	0.75596
2356.70573	0.75752
2354.77717	0.75914
2352.84860	0.75975
2350.92004	0.75802
2348.99147	0.75398
2347.06291	0.74952
2345.13435	0.74708
2343.20578	0.74807
2341.27722	0.74994
2339.34865	0.75037
2337.42009	0.74942
2335.49152	0.74706
2333.56296	0.74445
2331.63440	0.74411
2329.70583	0.74524
2327.77727	0.74484
2325.84870	0.74295
2323.92014	0.74103
2321.99157	0.73995
2320.06301	0.73984
2318.13444	0.73965
2316.20588	0.73870
2314.27732	0.73750
2312.34875	0.73638
2310.42019	0.73557
2308.49162	0.73556
2306.56306	0.73573
2304.63449	0.73506
2302.70593	0.73382
2300.77736	0.73261
2298.84880	0.73146
2296.92024	0.73063
2294.99167	0.73035
2293.06311	0.72986
2291.13454	0.72884
2289.20598	0.72800
2287.27741	0.72764
2285.34885	0.72737
2283.42028	0.72699
2281.49172	0.72645
2279.56316	0.72576
2277.63459	0.72504
2275.70603	0.72448
2273.77746	0.72409
2271.84890	0.72333
2269.92033	0.72208
2267.99177	0.72091
2266.06320	0.72023
2264.13464	0.71995
2262.20608	0.71974
2260.27751	0.71937
2258.34895	0.71864
2256.42038	0.71761
2254.49182	0.71669
2252.56325	0.71597
2250.63469	0.71549
2248.70612	0.71555
2246.77756	0.71583
2244.84900	0.71562
2242.92043	0.71470
2240.99187	0.71364
2239.06330	0.71323
2237.13474	0.71332
2235.20617	0.71291
2233.27761	0.71186
2231.34904	0.71092
2229.42048	0.71032
2227.49192	0.70973
2225.56335	0.70916
2223.63479	0.70878
2221.70622	0.70827
2219.77766	0.70738
2217.84909	0.70643
2215.92053	0.70571
2213.99196	0.70500
2212.06340	0.70420
2210.13484	0.70345
2208.20627	0.70264
2206.27771	0.70189
2204.34914	0.70177
2202.42058	0.70205
2200.49201	0.70185
2198.56345	0.70094
2196.63488	0.69985
2194.70632	0.69904
2192.77776	0.69853
2190.84919	0.69809
2188.92063	0.69748
2186.99206	0.69672
2185.06350	0.69603
2183.13493	0.69536
2181.20637	0.69447
2179.27781	0.69350
2177.34924	0.69281
2175.42068	0.69234
2173.49211	0.69188
2171.56355	0.69119
2169.63498	0.69028
2167.70642	0.68960
2165.77785	0.68926
2163.84929	0.68906
2161.92073	0.68910
2159.99216	0.68924
2158.06360	0.68891
2156.13503	0.68820
2154.20647	0.68761
2152.27790	0.68725
2150.34934	0.68705
2148.42077	0.68692
2146.49221	0.68649
2144.56365	0.68565
2142.63508	0.68488
2140.70652	0.68451
2138.77795	0.68435
2136.84939	0.68405
2134.92082	0.68341
2132.99226	0.68257
2131.06369	0.68161
2129.13513	0.68052
2127.20657	0.67947
2125.27800	0.67858
2123.34944	0.67755
2121.42087	0.67635
2119.49231	0.67519
2117.56374	0.67420
2115.63518	0.67343
2113.70661	0.67263
2111.77805	0.67185
2109.84949	0.67148
2107.92092	0.67136
2105.99236	0.67103
2104.06379	0.67053
2102.13523	0.67001
2100.20666	0.66948
2098.27810	0.66890
2096.34953	0.66823
2094.42097	0.66751
2092.49241	0.66682
2090.56384	0.66623
2088.63528	0.66572
2086.70671	0.66520
2084.77815	0.66466
2082.84958	0.66383
2080.92102	0.66262
2078.99245	0.66125
2077.06389	0.65967
2075.13533	0.65787
2073.20676	0.65618
2071.27820	0.65485
2069.34963	0.65366
2067.42107	0.65237
2065.49250	0.65108
2063.56394	0.64996
2061.63537	0.64921
2059.70681	0.64870
2057.77825	0.64795
2055.84968	0.64688
2053.92112	0.64590
2051.99255	0.64509
2050.06399	0.64432
2048.13542	0.64354
2046.20686	0.64265
2044.27830	0.64175
2042.34973	0.64114
2040.42117	0.64075
2038.49260	0.64024
2036.56404	0.63973
2034.63547	0.63923
2032.70691	0.63855
2030.77834	0.63780
2028.84978	0.63713
2026.92122	0.63653
2024.99265	0.63583
2023.06409	0.63475
2021.13552	0.63347
2019.20696	0.63250
2017.27839	0.63193
2015.34983	0.63119
2013.42126	0.62982
2011.49270	0.62810
2009.56414	0.62646
2007.63557	0.62482
2005.70701	0.62299
2003.77844	0.62100
2001.84988	0.61904
1999.92131	0.61727
1997.99275	0.61572
1996.06418	0.61422
1994.13562	0.61323
1992.20706	0.61335
1990.27849	0.61367
1988.34993	0.61341
1986.42136	0.61300
1984.49280	0.61273
1982.56423	0.61274
1980.63567	0.61291
1978.70710	0.61295
1976.77854	0.61276
1974.84998	0.61223
1972.92141	0.61117
1970.99285	0.60957
1969.06428	0.60808
1967.13572	0.60726
1965.20715	0.60622
1963.27859	0.60441
1961.35002	0.60255
1959.42146	0.60086
1957.49290	0.59916
1955.56433	0.59761
1953.63577	0.59627
1951.70720	0.59504
1949.77864	0.59378
1947.85007	0.59237
1945.92151	0.59093
1943.99294	0.59007
1942.06438	0.58985
1940.13582	0.58900
1938.20725	0.58746
1936.27869	0.58609
1934.35012	0.58504
1932.42156	0.58408
1930.49299	0.58308
1928.56443	0.58196
1926.63586	0.58053
1924.70730	0.57929
1922.77874	0.57892
1920.85017	0.57850
1918.92161	0.57810
1916.99304	0.57827
1915.06448	0.57768
1913.13591	0.57654
1911.20735	0.57630
1909.27878	0.57722
1907.35022	0.57795
1905.42166	0.57757
1903.49309	0.57675
1901.56453	0.57603
1899.63596	0.57512
1897.70740	0.57409
1895.77883	0.57361
1893.85027	0.57304
1891.92171	0.57146
1889.99314	0.57021
1888.06458	0.56955
1886.13601	0.56821
1884.20745	0.56670
1882.27888	0.56545
1880.35032	0.56416
1878.42175	0.56297
1876.49319	0.56213
1874.56463	0.56126
1872.63606	0.55979
1870.70750	0.55870
1868.77893	0.56039
1866.85037	0.56280
1864.92180	0.56272
1862.99324	0.56188
1861.06467	0.56156
1859.13611	0.56157
1857.20755	0.56155
1855.27898	0.56126
1853.35042	0.56060
1851.42185	0.55956
1849.49329	0.55825
1847.56472	0.55661
1845.63616	0.55590
1843.70759	0.55724
1841.77903	0.55708
1839.85047	0.55490
1837.92190	0.55327
1835.99334	0.55249
1834.06477	0.55089
1832.13621	0.54889
1830.20764	0.54913
1828.27908	0.55055
1826.35051	0.55072
1824.42195	0.55114
1822.49339	0.55135
1820.56482	0.55070
1818.63626	0.55029
1816.70769	0.55010
1814.77913	0.54954
1812.85056	0.54905
1810.92200	0.54956
1808.99343	0.55029
1807.06487	0.55002
1805.13631	0.54899
1803.20774	0.54821
1801.27918	0.54911
1799.35061	0.55100
1797.42205	0.55162
1795.49348	0.55116
1793.56492	0.55210
1791.63635	0.55590
1789.70779	0.55738
1787.77923	0.55590
1785.85066	0.55486
1783.92210	0.55503
1781.99353	0.55583
1780.06497	0.55716
1778.13640	0.55739
1776.20784	0.55574
1774.27927	0.55465
1772.35071	0.55738
1770.42215	0.56089
1768.49358	0.56195
1766.56502	0.56206
1764.63645	0.56170
1762.70789	0.56313
1760.77932	0.56685
1758.85076	0.56974
1756.92220	0.57336
1754.99363	0.57702
1753.06507	0.57946
1751.13650	0.58513
1749.20794	0.59584
1747.27937	0.60501
1745.35081	0.61105
1743.42224	0.61643
1741.49368	0.62252
1739.56512	0.62876
1737.63655	0.63131
1735.70799	0.63229
1733.77942	0.63965
1731.85086	0.64664
1729.92229	0.64911
1727.99373	0.65202
1726.06516	0.65543
1724.13660	0.66035
1722.20804	0.66528
1720.27947	0.66874
1718.35091	0.67718
1716.42234	0.69713
1714.49378	0.71253
1712.56521	0.72097
1710.63665	0.72927
1708.70808	0.73970
1706.77952	0.75753
1704.85096	0.78331
1702.92239	0.80625
1700.99383	0.84003
1699.06526	0.89873
1697.13670	0.95669
1695.20813	1.01389
1693.27957	1.05451
1691.35100	1.08630
1689.42244	1.12871
1687.49388	1.17018
1685.56531	1.21312
1683.63675	1.28868
1681.70818	1.34676
1679.77962	1.37797
1677.85105	1.40741
1675.92249	1.44619
1673.99392	1.49148
1672.06536	1.52563
1670.13680	1.56251
1668.20823	1.60678
1666.27967	1.63043
1664.35110	1.64842
1662.42254	1.67751
1660.49397	1.70293
1658.56541	1.71508
1656.63684	1.71991
1654.70828	1.72456
1652.77972	1.73034
1650.85115	1.72832
1648.92259	1.72527
1646.99402	1.72651
1645.06546	1.72868
1643.13689	1.72430
1641.20833	1.71690
1639.27976	1.70719
1637.35120	1.69703
1635.42264	1.69002
1633.49407	1.68595
1631.56551	1.68179
1629.63694	1.67361
1627.70838	1.65859
1625.77981	1.63635
1623.85125	1.60682
1621.92269	1.57445
1619.99412	1.54775
1618.06556	1.51695
1616.13699	1.47066
1614.20843	1.43049
1612.27986	1.39754
1610.35130	1.36276
1608.42273	1.32929
1606.49417	1.30250
1604.56561	1.28193
1602.63704	1.26569
1600.70848	1.25314
1598.77991	1.24361
1596.85135	1.23742
1594.92278	1.23396
1592.99422	1.23183
1591.06565	1.23124
1589.13709	1.23342
1587.20853	1.23951
1585.27996	1.24900
1583.35140	1.26106
1581.42283	1.27478
1579.49427	1.28849
1577.56570	1.30754
1575.63714	1.33814
1573.70857	1.35861
1571.78001	1.37113
1569.85145	1.39454
1567.92288	1.42203
1565.99432	1.43942
1564.06575	1.45349
1562.13719	1.46274
1560.20862	1.47396
1558.28006	1.51566
1556.35149	1.54240
1554.42293	1.54843
1552.49437	1.55120
1550.56580	1.55469
1548.63724	1.55641
1546.70867	1.55212
1544.78011	1.54357
1542.85154	1.53490
1540.92298	1.52715
1538.99441	1.51620
1537.06585	1.50623
1535.13729	1.49616
1533.20872	1.48638
1531.28016	1.47765
1529.35159	1.46871
1527.42303	1.45902
1525.49446	1.44914
1523.56590	1.44105
1521.63733	1.43563
1519.70877	1.43203
1517.78021	1.42307
1515.85164	1.40602
1513.92308	1.38478
1511.99451	1.36102
1510.06595	1.33645
1508.13738	1.30278
1506.20882	1.25101
1504.28025	1.22046
1502.35169	1.19893
1500.42313	1.17573
1498.49456	1.14953
1496.56600	1.12180
1494.63743	1.09908
1492.70887	1.08137
1490.78030	1.06337
1488.85174	1.04421
1486.92317	1.02964
1484.99461	1.01936
1483.06605	1.01209
1481.13748	1.00793
1479.20892	1.00680
1477.28035	1.00916
1475.35179	1.01673
1473.42322	1.03432
1471.49466	1.05610
1469.56610	1.06615
1467.63753	1.07045
1465.70897	1.07799
1463.78040	1.08810
1461.85184	1.09241
1459.92327	1.09295
1457.99471	1.10032
1456.06614	1.11580
1454.13758	1.12004
1452.20902	1.11895
1450.28045	1.11725
1448.35189	1.11533
1446.42332	1.11244
1444.49476	1.10765
1442.56619	1.10113
1440.63763	1.09363
1438.70906	1.08498
1436.78050	1.07378
1434.85194	1.06105
1432.92337	1.04918
1430.99481	1.03773
1429.06624	1.02702
1427.13768	1.01884
1425.20911	1.01459
1423.28055	1.01384
1421.35198	1.01426
1419.42342	1.01807
1417.49486	1.02560
1415.56629	1.02943
1413.63773	1.03078
1411.70916	1.03249
1409.78060	1.03440
1407.85203	1.03626
1405.92347	1.04036
1403.99490	1.04635
1402.06634	1.04988
1400.13778	1.05199
1398.20921	1.05457
1396.28065	1.05665
1394.35208	1.05819
1392.42352	1.05871
1390.49495	1.05890
1388.56639	1.06224
1386.63782	1.07077
1384.70926	1.07946
1382.78070	1.08562
1380.85213	1.09015
1378.92357	1.09138
1376.99500	1.08716
1375.06644	1.07732
1373.13787	1.06334
1371.20931	1.04780
1369.28074	1.03045
1367.35218	1.01194
1365.42362	0.99515
1363.49505	0.98048
1361.56649	0.96865
1359.63792	0.96016
1357.70936	0.95408
1355.78079	0.95030
1353.85223	0.94813
1351.92366	0.94608
1349.99510	0.94414
1348.06654	0.94315
1346.13797	0.94310
1344.20941	0.94312
1342.28084	0.94287
1340.35228	0.94394
1338.42371	0.94723
1336.49515	0.95109
1334.56659	0.95557
1332.63802	0.96170
1330.70946	0.96929
1328.78089	0.97649
1326.85233	0.98154
1324.92376	0.98490
1322.99520	0.98805
1321.06663	0.99169
1319.13807	0.99545
1317.20951	0.99810
1315.28094	0.99977
1313.35238	1.00166
1311.42381	1.00305
1309.49525	1.00288
1307.56668	1.00186
1305.63812	1.00096
1303.70955	1.00017
1301.78099	0.99880
1299.85243	0.99674
1297.92386	0.99446
1295.99530	0.99260
1294.06673	0.99198
1292.13817	0.99290
1290.20960	0.99513
1288.28104	0.99839
1286.35247	1.00223
1284.42391	1.00595
1282.49535	1.00925
1280.56678	1.01211
1278.63822	1.01446
1276.70965	1.01706
1274.78109	1.02084
1272.85252	1.02564
1270.92396	1.03108
1268.99539	1.03698
1267.06683	1.04262
1265.13827	1.04707
1263.20970	1.04982
1261.28114	1.05101
1259.35257	1.05156
1257.42401	1.05212
1255.49544	1.05258
1253.56688	1.05321
1251.63831	1.05453
1249.70975	1.05653
1247.78119	1.05885
1245.85262	1.06091
1243.92406	1.06222
1241.99549	1.06244
1240.06693	1.06115
1238.13836	1.05833
1236.20980	1.05420
1234.28123	1.04875
1232.35267	1.04190
1230.42411	1.03386
1228.49554	1.02514
1226.56698	1.01607
1224.63841	1.00676
1222.70985	0.99732
1220.78128	0.98791
1218.85272	0.97915
1216.92415	0.97183
1214.99559	0.96648
1213.06703	0.96352
1211.13846	0.96306
1209.20990	0.96443
1207.28133	0.96564
1205.35277	0.96415
1203.42420	0.95897
1201.49564	0.95136
1199.56708	0.94289
1197.63851	0.93424
1195.70995	0.92578
1193.78138	0.91788
1191.85282	0.91108
1189.92425	0.90565
1187.99569	0.90139
1186.06712	0.89794
1184.13856	0.89554
1182.21000	0.89490
1180.28143	0.89641
1178.35287	0.90009
1176.42430	0.90578
1174.49574	0.91287
1172.56717	0.92070
1170.63861	0.92958
1168.71004	0.94114
1166.78148	0.95625
1164.85292	0.97363
1162.92435	0.99117
1160.99579	1.00606
1159.06722	1.01479
1157.13866	1.01516
1155.21009	1.00743
1153.28153	0.99347
1151.35296	0.97573
1149.42440	0.95668
1147.49584	0.93872
1145.56727	0.92360
1143.63871	0.91203
1141.71014	0.90422
1139.78158	0.90015
1137.85301	0.89932
1135.92445	0.90116
1133.99588	0.90572
1132.06732	0.91346
1130.13876	0.92447
1128.21019	0.93797
1126.28163	0.95223
1124.35306	0.96536
1122.42450	0.97728
1120.49593	0.98816
1118.56737	0.99598
1116.63880	0.99961
1114.71024	0.99999
1112.78168	0.99724
1110.85311	0.99199
1108.92455	0.98634
1106.99598	0.98134
1105.06742	0.97673
1103.13885	0.97318
1101.21029	0.97183
1099.28172	0.97306
1097.35316	0.97714
1095.42460	0.98468
1093.49603	0.99566
1091.56747	1.00879
1089.63890	1.02328
1087.71034	1.03986
1085.78177	1.05837
1083.85321	1.07758
1081.92464	1.09606
1079.99608	1.11086
1078.06752	1.11835
1076.13895	1.11728
1074.21039	1.11028
1072.28182	1.09990
1070.35326	1.08505
1068.42469	1.06621
1066.49613	1.04717
1064.56756	1.02986
1062.63900	1.01404
1060.71044	0.99909
1058.78187	0.98422
1056.85331	0.96998
1054.92474	0.95817
1052.99618	0.94960
1051.06761	0.94353
1049.13905	0.94000
1047.21049	0.94087
1045.28192	0.94709
1043.35336	0.95751
1041.42479	0.96940
1039.49623	0.97986
1037.56766	0.98755
1035.63910	0.99290
1033.71053	0.99664
1031.78197	0.99824
1029.85341	0.99652
1027.92484	0.99132
1025.99628	0.98301
1024.06771	0.97188
1022.13915	0.95899
1020.21058	0.94597
1018.28202	0.93322
1016.35345	0.92020
1014.42489	0.90620
1012.49633	0.88979
1010.56776	0.87042
1008.63920	0.84972
1006.71063	0.83005
1004.78207	0.81292
1002.85350	0.79868
1000.92494	0.78728
998.99637	0.77890
997.06781	0.77368
995.13925	0.77082
993.21068	0.76881
991.28212	0.76669
989.35355	0.76435
987.42499	0.76213
985.49642	0.76069
983.56786	0.76049
981.63929	0.76135
979.71073	0.76274
977.78217	0.76374
975.85360	0.76328
973.92504	0.76078
971.99647	0.75593
970.06791	0.74874
968.13934	0.74015
966.21078	0.73173
964.28221	0.72483
962.35365	0.72047
960.42509	0.71996
958.49652	0.72333
956.56796	0.72750
954.63939	0.72841
952.71083	0.72452
950.78226	0.71696
948.85370	0.70793
946.92513	0.69961
944.99657	0.69289
943.06801	0.68761
941.13944	0.68378
939.21088	0.68107
937.28231	0.67887
935.35375	0.67731
933.42518	0.67689
931.49662	0.67781
929.56805	0.68009
927.63949	0.68376
925.71093	0.68873
923.78236	0.69465
921.85380	0.70133
919.92523	0.70832
917.99667	0.71452
916.06810	0.71889
914.13954	0.72171
912.21098	0.72381
910.28241	0.72483
908.35385	0.72430
906.42528	0.72288
904.49672	0.72114
902.56815	0.71876
900.63959	0.71495
898.71102	0.70948
896.78246	0.70282
894.85390	0.69540
892.92533	0.68813
890.99677	0.68191
889.06820	0.67661
887.13964	0.67227
885.21107	0.66953
883.28251	0.66881
881.35394	0.67027
879.42538	0.67374
877.49682	0.67892
875.56825	0.68544
873.63969	0.69261
871.71112	0.69986
869.78256	0.70698
867.85399	0.71367
865.92543	0.71933
863.99686	0.72365
862.06830	0.72649
860.13974	0.72754
858.21117	0.72684
856.28261	0.72508
854.35404	0.72276
852.42548	0.71997
850.49691	0.71688
848.56835	0.71419
846.63978	0.71255
844.71122	0.71173
842.78266	0.71171
840.85409	0.71332
838.92553	0.71660
836.99696	0.72086
835.06840	0.72584
833.13983	0.73160
831.21127	0.73779
829.28270	0.74376
827.35414	0.74905
825.42558	0.75365
823.49701	0.75785
821.56845	0.76110
819.63988	0.76238
817.71132	0.76238
815.78275	0.76283
813.85419	0.76398
811.92562	0.76491
809.99706	0.76541
808.06850	0.76612
806.13993	0.76745
804.21137	0.76941
802.28280	0.77250
800.35424	0.77721
798.42567	0.78282
796.49711	0.78831
794.56854	0.79337
792.63998	0.79785
790.71142	0.80136
788.78285	0.80388
786.85429	0.80556
784.92572	0.80549
782.99716	0.80313
781.06859	0.79984
779.14003	0.79608
777.21147	0.79101
775.28290	0.78552
773.35434	0.78120
771.42577	0.77836
769.49721	0.77691
767.56864	0.77697
765.64008	0.77829
763.71151	0.78092
761.78295	0.78592
759.85439	0.79336
757.92582	0.80197
755.99726	0.81108
754.06869	0.82078
752.14013	0.83065
750.21156	0.83947
748.28300	0.84597
746.35443	0.84985
744.42587	0.85129
742.49731	0.84997
740.56874	0.84600
738.64018	0.84049
736.71161	0.83468
734.78305	0.82967
732.85448	0.82645
730.92592	0.82527
728.99735	0.82528
727.06879	0.82626
725.14023	0.82918
723.21166	0.83458
721.28310	0.84221
719.35453	0.85024
717.42597	0.85716
715.49740	0.86491
713.56884	0.87500
711.64027	0.88621
709.71171	0.89759
707.78315	0.90789
705.85458	0.91500
703.92602	0.91833
701.99745	0.91888
700.06889	0.91838
698.14032	0.91737
696.21176	0.91507
694.28319	0.91153
692.35463	0.90719
690.42607	0.90244
688.49750	0.89829
686.56894	0.89553
684.64037	0.89395
682.71181	0.89332
680.78324	0.89447
678.85468	0.89734
676.92611	0.90062
674.99755	0.90401
673.06899	0.90673
671.14042	0.90717
669.21186	0.90568
667.28329	0.90432
665.35473	0.90256
663.42616	0.89975
661.49760	0.89683
659.56903	0.89517
657.64047	0.89436
655.71191	0.89241
653.78334	0.89002
651.85478	0.88872
649.92621	0.88776
647.99765	0.88693
646.06908	0.88643
644.14052	0.88615
642.21195	0.88617
640.28339	0.88557
638.35483	0.88399
636.42626	0.88297
634.49770	0.88374
632.56913	0.88538
630.64057	0.88615
628.71200	0.88584
626.78344	0.88565
624.85488	0.88548
622.92631	0.88368
620.99775	0.88091
619.06918	0.88033
617.14062	0.88230
615.21205	0.88438
613.28349	0.88698
611.35492	0.89014
609.42636	0.89208
607.49780	0.89469
605.56923	0.89957
603.64067	0.90437
601.71210	0.90750
599.78354	0.90920
