3997.91406	1.09426
3995.98550	1.09505
3994.05693	1.09436
3992.12837	1.09308
3990.19980	1.09256
3988.27124	1.09275
3986.34268	1.09155
3984.41411	1.08882
3982.48555	1.08829
3980.55698	1.08952
3978.62842	1.08800
3976.69985	1.08487
3974.77129	1.08298
3972.84272	1.08262
3970.91416	1.08510
3968.98560	1.08791
3967.05703	1.08713
3965.12847	1.08506
3963.19990	1.08369
3961.27134	1.08111
3959.34277	1.07819
3957.41421	1.07782
3955.48564	1.07787
3953.55708	1.07548
3951.62852	1.07261
3949.69995	1.07204
3947.77139	1.07349
3945.84282	1.07489
3943.91426	1.07727
3941.98569	1.07986
3940.05713	1.07839
3938.12856	1.07306
3936.20000	1.06716
3934.27144	1.06623
3932.34287	1.07196
3930.41431	1.07553
3928.48574	1.07239
3926.55718	1.06888
3924.62861	1.07005
3922.70005	1.07150
3920.77148	1.06926
3918.84292	1.06895
3916.91436	1.07299
3914.98579	1.07444
3913.05723	1.07215
3911.12866	1.06978
3909.20010	1.06578
3907.27153	1.05919
3905.34297	1.05623
3903.41440	1.05945
3901.48584	1.06218
3899.55728	1.06621
3897.62871	1.06814
3895.70015	1.06223
3893.77158	1.05527
3891.84302	1.05514
3889.91445	1.05308
3887.98589	1.04631
3886.05733	1.04682
3884.12876	1.05109
3882.20020	1.05034
3880.27163	1.05253
3878.34307	1.05183
3876.41450	1.04653
3874.48594	1.04583
3872.55737	1.04845
3870.62881	1.04948
3868.70025	1.04541
3866.77168	1.03819
3864.84312	1.03947
3862.91455	1.04551
3860.98599	1.04252
3859.05742	1.03552
3857.12886	1.02742
3855.20029	1.02067
3853.27173	1.03356
3851.34317	1.04666
3849.41460	1.04036
3847.48604	1.02958
3845.55747	1.02321
3843.62891	1.02338
3841.70034	1.02527
3839.77178	1.02652
3837.84321	1.02958
3835.91465	1.03198
3833.98609	1.03407
3832.05752	1.03665
3830.12896	1.03605
3828.20039	1.03260
3826.27183	1.02826
3824.34326	1.02174
3822.41470	1.02058
3820.48613	1.03093
3818.55757	1.03394
3816.62901	1.03418
3814.70044	1.03546
3812.77188	1.03005
3810.84331	1.02230
3808.91475	1.01892
3806.98618	1.02229
3805.05762	1.02246
3803.12905	1.02247
3801.20049	1.03131
3799.27193	1.03145
3797.34336	1.02553
3795.41480	1.02302
3793.48623	1.02068
3791.55767	1.01884
3789.62910	1.01717
3787.70054	1.01406
3785.77197	1.01295
3783.84341	1.01256
3781.91485	1.00928
3779.98628	1.00898
3778.05772	1.01172
3776.12915	1.00973
3774.20059	1.00439
3772.27202	1.00076
3770.34346	1.00406
3768.41489	1.00927
3766.48633	1.00952
3764.55777	1.00791
3762.62920	1.00438
3760.70064	1.00299
3758.77207	1.00745
3756.84351	1.00652
3754.91494	0.99684
3752.98638	0.98877
3751.05781	0.99729
3749.12925	1.00677
3747.20069	1.00448
3745.27212	1.01075
3743.34356	1.01793
3741.41499	1.00953
3739.48643	0.99763
3737.55786	0.99280
3735.62930	1.00244
3733.70074	1.01521
3731.77217	1.01484
3729.84361	1.00825
3727.91504	1.00365
3725.98648	1.00412
3724.05791	1.00527
3722.12935	1.00355
3720.20078	1.00119
3718.27222	0.99951
3716.34366	0.99737
3714.41509	0.99430
3712.48653	0.99606
3710.55796	1.00410
3708.62940	1.00464
3706.70083	0.99979
3704.77227	0.99486
3702.84370	0.99371
3700.91514	0.99564
3698.98658	0.99479
3697.05801	0.99222
3695.12945	0.98808
3693.20088	0.98250
3691.27232	0.98368
3689.34375	0.99748
3687.41519	1.00466
3685.48662	1.00252
3683.55806	0.99917
3681.62950	0.99518
3679.70093	0.98941
3677.77237	0.98652
3675.84380	1.00190
3673.91524	1.01687
3671.98667	1.01600
3670.05811	1.02333
3668.12954	1.03103
3666.20098	1.02747
3664.27242	1.02461
3662.34385	1.02627
3660.41529	1.02818
3658.48672	1.03048
3656.55816	1.03766
3654.62959	1.03954
3652.70103	1.03134
3650.77246	1.03068
3648.84390	1.05609
3646.91534	1.07132
3644.98677	1.07134
3643.05821	1.07281
3641.12964	1.07759
3639.20108	1.08262
3637.27251	1.08648
3635.34395	1.08957
3633.41538	1.09112
3631.48682	1.09253
3629.55826	1.10684
3627.62969	1.12847
3625.70113	1.13190
3623.77256	1.12799
3621.84400	1.12678
3619.91543	1.13655
3617.98687	1.14925
3616.05830	1.15040
3614.12974	1.15194
3612.20118	1.15866
3610.27261	1.16535
3608.34405	1.17588
3606.41548	1.18530
3604.48692	1.18706
3602.55835	1.18903
3600.62979	1.19536
3598.70123	1.20148
3596.77266	1.20698
3594.84410	1.21479
3592.91553	1.21989
3590.98697	1.21865
3589.05840	1.22234
3587.12984	1.24395
3585.20127	1.26284
3583.27271	1.26606
3581.34415	1.26537
3579.41558	1.26708
3577.48702	1.27170
3575.55845	1.28227
3573.62989	1.29610
3571.70132	1.30223
3569.77276	1.30017
3567.84419	1.30634
3565.91563	1.32579
3563.98707	1.33414
3562.05850	1.33421
3560.12994	1.33660
3558.20137	1.34117
3556.27281	1.34630
3554.34424	1.35288
3552.41568	1.36101
3550.48711	1.36850
3548.55855	1.37654
3546.62999	1.38894
3544.70142	1.40298
3542.77286	1.41168
3540.84429	1.41585
3538.91573	1.42072
3536.98716	1.42890
3535.05860	1.43829
3533.13003	1.44662
3531.20147	1.45457
3529.27291	1.46164
3527.34434	1.46792
3525.41578	1.47643
3523.48721	1.48433
3521.55865	1.48529
3519.63008	1.48357
3517.70152	1.48791
3515.77295	1.49836
3513.84439	1.50915
3511.91583	1.51707
3509.98726	1.52407
3508.05870	1.53224
3506.13013	1.53889
3504.20157	1.54412
3502.27300	1.55085
3500.34444	1.56031
3498.41587	1.56955
3496.48731	1.57640
3494.55875	1.58614
3492.63018	1.59727
3490.70162	1.60517
3488.77305	1.61454
3486.84449	1.62373
3484.91592	1.62700
3482.98736	1.62582
3481.05879	1.62074
3479.13023	1.61768
3477.20167	1.62424
3475.27310	1.63472
3473.34454	1.64207
3471.41597	1.64783
3469.48741	1.65120
3467.55884	1.65372
3465.63028	1.65846
3463.70171	1.66150
3461.77315	1.66148
3459.84459	1.66110
3457.91602	1.66174
3455.98746	1.66308
3454.05889	1.66264
3452.13033	1.66196
3450.20176	1.66451
3448.27320	1.67021
3446.34464	1.67782
3444.41607	1.68405
3442.48751	1.68392
3440.55894	1.67757
3438.63038	1.67484
3436.70181	1.68126
3434.77325	1.68973
3432.84468	1.69366
3430.91612	1.69307
3428.98756	1.68901
3427.05899	1.68096
3425.13043	1.67289
3423.20186	1.67373
3421.27330	1.68378
3419.34473	1.69140
3417.41617	1.68914
3415.48760	1.68330
3413.55904	1.68217
3411.63048	1.68431
3409.70191	1.68425
3407.77335	1.68249
3405.84478	1.68150
3403.91622	1.68263
3401.98765	1.68828
3400.05909	1.69655
3398.13052	1.70279
3396.20196	1.70564
3394.27340	1.70226
3392.34483	1.69311
3390.41627	1.68742
3388.48770	1.68807
3386.55914	1.69213
3384.63057	1.70147
3382.70201	1.71084
3380.77344	1.71015
3378.84488	1.70046
3376.91632	1.68980
3374.98775	1.68729
3373.05919	1.69133
3371.13062	1.69185
3369.20206	1.69140
3367.27349	1.69566
3365.34493	1.70042
3363.41636	1.70145
3361.48780	1.69594
3359.55924	1.68387
3357.63067	1.67494
3355.70211	1.67732
3353.77354	1.68809
3351.84498	1.70158
3349.91641	1.71189
3347.98785	1.71508
3346.05928	1.71445
3344.13072	1.71236
3342.20216	1.71227
3340.27359	1.71738
3338.34503	1.71693
3336.41646	1.70570
3334.48790	1.69836
3332.55933	1.69947
3330.63077	1.70218
3328.70220	1.70791
3326.77364	1.71487
3324.84508	1.71584
3322.91651	1.71112
3320.98795	1.70223
3319.05938	1.69477
3317.13082	1.69873
3315.20225	1.71043
3313.27369	1.71529
3311.34513	1.71070
3309.41656	1.70752
3307.48800	1.70831
3305.55943	1.70757
3303.63087	1.70917
3301.70230	1.71675
3299.77374	1.72173
3297.84517	1.71702
3295.91661	1.70773
3293.98805	1.70159
3292.05948	1.69992
3290.13092	1.70032
3288.20235	1.70286
3286.27379	1.70498
3284.34522	1.70096
3282.41666	1.69289
3280.48809	1.68584
3278.55953	1.68076
3276.63097	1.67711
3274.70240	1.67362
3272.77384	1.67253
3270.84527	1.67482
3268.91671	1.67592
3266.98814	1.67383
3265.05958	1.66831
3263.13101	1.66145
3261.20245	1.65996
3259.27389	1.66397
3257.34532	1.66712
3255.41676	1.66623
3253.48819	1.66015
3251.55963	1.65080
3249.63106	1.64468
3247.70250	1.64256
3245.77393	1.63860
3243.84537	1.63337
3241.91681	1.63194
3239.98824	1.63378
3238.05968	1.63384
3236.13111	1.62719
3234.20255	1.61628
3232.27398	1.60754
3230.34542	1.60103
3228.41685	1.59652
3226.48829	1.59811
3224.55973	1.60302
3222.63116	1.60296
3220.70260	1.59751
3218.77403	1.59211
3216.84547	1.58901
3214.91690	1.58549
3212.98834	1.57870
3211.05977	1.57186
3209.13121	1.56882
3207.20265	1.56877
3205.27408	1.56773
3203.34552	1.56297
3201.41695	1.55945
3199.48839	1.56106
3197.55982	1.56119
3195.63126	1.55483
3193.70269	1.54600
3191.77413	1.53971
3189.84557	1.53706
3187.91700	1.53480
3185.98844	1.53139
3184.05987	1.52935
3182.13131	1.52812
3180.20274	1.52489
3178.27418	1.51988
3176.34562	1.51576
3174.41705	1.51219
3172.48849	1.50564
3170.55992	1.49900
3168.63136	1.49778
3166.70279	1.49919
3164.77423	1.49774
3162.84566	1.49409
3160.91710	1.48974
3158.98854	1.48295
3157.05997	1.47628
3155.13141	1.47165
3153.20284	1.46535
3151.27428	1.45950
3149.34571	1.46034
3147.41715	1.46630
3145.48858	1.46747
3143.56002	1.45993
3141.63146	1.45126
3139.70289	1.44738
3137.77433	1.44884
3135.84576	1.45249
3133.91720	1.45246
3131.98863	1.44737
3130.06007	1.44206
3128.13150	1.44062
3126.20294	1.44269
3124.27438	1.44516
3122.34581	1.44380
3120.41725	1.43752
3118.48868	1.42988
3116.56012	1.42481
3114.63155	1.42446
3112.70299	1.42632
3110.77442	1.42567
3108.84586	1.42301
3106.91730	1.42300
3104.98873	1.42739
3103.06017	1.43308
3101.13160	1.43594
3099.20304	1.43365
3097.27447	1.42851
3095.34591	1.42569
3093.41734	1.42519
3091.48878	1.42359
3089.56022	1.42155
3087.63165	1.42090
3085.70309	1.42094
3083.77452	1.42058
3081.84596	1.41847
3079.91739	1.41388
3077.98883	1.40888
3076.06026	1.40465
3074.13170	1.40008
3072.20314	1.39578
3070.27457	1.39336
3068.34601	1.39289
3066.41744	1.39266
3064.48888	1.39113
3062.56031	1.38936
3060.63175	1.38814
3058.70318	1.38489
3056.77462	1.37819
3054.84606	1.37159
3052.91749	1.36788
3050.98893	1.36548
3049.06036	1.36240
3047.13180	1.35892
3045.20323	1.35662
3043.27467	1.35407
3041.34610	1.34827
3039.41754	1.34179
3037.48898	1.33846
3035.56041	1.33718
3033.63185	1.33604
3031.70328	1.33389
3029.77472	1.32933
3027.84615	1.32334
3025.91759	1.31824
3023.98903	1.31456
3022.06046	1.31194
3020.13190	1.31028
3018.20333	1.30936
3016.27477	1.30875
3014.34620	1.30727
3012.41764	1.30325
3010.48907	1.29729
3008.56051	1.29294
3006.63195	1.29098
3004.70338	1.28888
3002.77482	1.28670
3000.84625	1.28532
2998.91769	1.28418
2996.98912	1.28430
2995.06056	1.28661
2993.13199	1.29065
2991.20343	1.29597
2989.27487	1.30177
2987.34630	1.30596
2985.41774	1.30690
2983.48917	1.30890
2981.56061	1.31624
2979.63204	1.32447
2977.70348	1.33017
2975.77491	1.33570
2973.84635	1.34257
2971.91779	1.35281
2969.98922	1.36645
2968.06066	1.37766
2966.13209	1.38349
2964.20353	1.38741
2962.27496	1.39082
2960.34640	1.39169
2958.41783	1.38923
2956.48927	1.38433
2954.56071	1.37858
2952.63214	1.37222
2950.70358	1.36457
2948.77501	1.35869
2946.84645	1.35837
2944.91788	1.36176
2942.98932	1.36694
2941.06075	1.37394
2939.13219	1.38107
2937.20363	1.39110
2935.27506	1.40697
2933.34650	1.42311
2931.41793	1.43375
2929.48937	1.44050
2927.56080	1.44842
2925.63224	1.45743
2923.70367	1.46247
2921.77511	1.46338
2919.84655	1.46317
2917.91798	1.45885
2915.98942	1.44334
2914.06085	1.41656
2912.13229	1.38622
2910.20372	1.36056
2908.27516	1.34371
2906.34659	1.33263
2904.41803	1.32325
2902.48947	1.31599
2900.56090	1.30976
2898.63234	1.30282
2896.70377	1.29680
2894.77521	1.29219
2892.84664	1.28787
2890.91808	1.28296
2888.98952	1.27624
2887.06095	1.26939
2885.13239	1.26726
2883.20382	1.27007
2881.27526	1.27193
2879.34669	1.27057
2877.41813	1.26918
2875.48956	1.26848
2873.56100	1.26742
2871.63244	1.26517
2869.70387	1.26067
2867.77531	1.25457
2865.84674	1.24825
2863.91818	1.24377
2861.98961	1.24377
2860.06105	1.24867
2858.13248	1.25649
2856.20392	1.26466
2854.27536	1.27264
2852.34679	1.28069
2850.41823	1.28260
2848.48966	1.26828
2846.56110	1.23926
2844.63253	1.20824
2842.70397	1.18400
2840.77540	1.16767
2838.84684	1.15644
2836.91828	1.14717
2834.98971	1.13923
2833.06115	1.13397
2831.13258	1.13075
2829.20402	1.12737
2827.27545	1.12391
2825.34689	1.12150
2823.41832	1.11971
2821.48976	1.11746
2819.56120	1.11375
2817.63263	1.10876
2815.70407	1.10432
2813.77550	1.10100
2811.84694	1.09763
2809.91837	1.09478
2807.98981	1.09275
2806.06124	1.08920
2804.13268	1.08399
2802.20412	1.07914
2800.27555	1.07521
2798.34699	1.07210
2796.41842	1.06956
2794.48986	1.06732
2792.56129	1.06506
2790.63273	1.06251
2788.70416	1.06033
2786.77560	1.05865
2784.84704	1.05588
2782.91847	1.05209
2780.98991	1.04937
2779.06134	1.04799
2777.13278	1.04651
2775.20421	1.04476
2773.27565	1.04400
2771.34708	1.04327
2769.41852	1.04033
2767.48996	1.03699
2765.56139	1.03551
2763.63283	1.03423
2761.70426	1.03177
2759.77570	1.02869
2757.84713	1.02571
2755.91857	1.02345
2753.99001	1.02176
2752.06144	1.01952
2750.13288	1.01642
2748.20431	1.01353
2746.27575	1.01194
2744.34718	1.01143
2742.41862	1.01077
2740.49005	1.00925
2738.56149	1.00781
2736.63293	1.00688
2734.70436	1.00560
2732.77580	1.00425
2730.84723	1.00313
2728.91867	1.00172
2726.99010	1.00046
2725.06154	0.99903
2723.13297	0.99704
2721.20441	0.99558
2719.27585	0.99435
2717.34728	0.99210
2715.41872	0.98915
2713.49015	0.98674
2711.56159	0.98505
2709.63302	0.98317
2707.70446	0.98131
2705.77589	0.98007
2703.84733	0.97858
2701.91877	0.97659
2699.99020	0.97531
2698.06164	0.97481
2696.13307	0.97390
2694.20451	0.97231
2692.27594	0.97088
2690.34738	0.97010
2688.41881	0.96954
2686.49025	0.96851
2684.56169	0.96720
2682.63312	0.96654
2680.70456	0.96644
2678.77599	0.96601
2676.84743	0.96492
2674.91886	0.96316
2672.99030	0.96164
2671.06173	0.96126
2669.13317	0.96066
2667.20461	0.95872
2665.27604	0.95641
2663.34748	0.95475
2661.41891	0.95388
2659.49035	0.95320
2657.56178	0.95249
2655.63322	0.95207
2653.70465	0.95113
2651.77609	0.94944
2649.84753	0.94819
2647.91896	0.94739
2645.99040	0.94670
2644.06183	0.94648
2642.13327	0.94639
2640.20470	0.94541
2638.27614	0.94391
2636.34757	0.94297
2634.41901	0.94188
2632.49045	0.94015
2630.56188	0.93892
2628.63332	0.93850
2626.70475	0.93830
2624.77619	0.93755
2622.84762	0.93590
2620.91906	0.93425
2618.99049	0.93321
2617.06193	0.93206
2615.13337	0.93063
2613.20480	0.92938
2611.27624	0.92830
2609.34767	0.92715
2607.41911	0.92585
2605.49054	0.92478
2603.56198	0.92383
2601.63342	0.92254
2599.70485	0.92143
2597.77629	0.92059
2595.84772	0.91962
2593.91916	0.91923
2591.99059	0.91936
2590.06203	0.91869
2588.13346	0.91737
2586.20490	0.91616
2584.27634	0.91489
2582.34777	0.91388
2580.41921	0.91346
2578.49064	0.91314
2576.56208	0.91231
2574.63351	0.91099
2572.70495	0.91000
2570.77638	0.90980
2568.84782	0.90966
2566.91926	0.90864
2564.99069	0.90679
2563.06213	0.90491
2561.13356	0.90339
2559.20500	0.90201
2557.27643	0.90046
2555.34787	0.89903
2553.41930	0.89838
2551.49074	0.89831
2549.56218	0.89752
2547.63361	0.89541
2545.70505	0.89302
2543.77648	0.89129
2541.84792	0.89052
2539.91935	0.89052
2537.99079	0.89019
2536.06222	0.88886
2534.13366	0.88725
2532.20510	0.88576
2530.27653	0.88438
2528.34797	0.88361
2526.41940	0.88318
2524.49084	0.88222
2522.56227	0.88095
2520.63371	0.87989
2518.70514	0.87902
2516.77658	0.87782
2514.84802	0.87602
2512.91945	0.87460
2510.99089	0.87413
2509.06232	0.87363
2507.13376	0.87275
2505.20519	0.87184
2503.27663	0.87084
2501.34806	0.87006
2499.41950	0.86973
2497.49094	0.86972
2495.56237	0.86983
2493.63381	0.86955
2491.70524	0.86895
2489.77668	0.86881
2487.84811	0.86913
2485.91955	0.86906
2483.99098	0.86839
2482.06242	0.86775
2480.13386	0.86706
2478.20529	0.86591
2476.27673	0.86485
2474.34816	0.86416
2472.41960	0.86301
2470.49103	0.86109
2468.56247	0.85907
2466.63391	0.85724
2464.70534	0.85561
2462.77678	0.85413
2460.84821	0.85251
2458.91965	0.85077
2456.99108	0.84888
2455.06252	0.84671
2453.13395	0.84501
2451.20539	0.84443
2449.27683	0.84402
2447.34826	0.84272
2445.41970	0.84084
2443.49113	0.83907
2441.56257	0.83767
2439.63400	0.83685
2437.70544	0.83656
2435.77687	0.83618
2433.84831	0.83559
2431.91975	0.83525
2429.99118	0.83495
2428.06262	0.83438
2426.13405	0.83401
2424.20549	0.83404
2422.27692	0.83392
2420.34836	0.83335
2418.41979	0.83272
2416.49123	0.83200
2414.56267	0.83084
2412.63410	0.82986
2410.70554	0.82971
2408.77697	0.82985
2406.84841	0.82948
2404.91984	0.82848
2402.99128	0.82732
2401.06271	0.82643
2399.13415	0.82560
2397.20559	0.82463
2395.27702	0.82371
2393.34846	0.82311
2391.41989	0.82282
2389.49133	0.82230
2387.56276	0.82098
2385.63420	0.81911
2383.70563	0.81742
2381.77707	0.81608
2379.84851	0.81480
2377.91994	0.81324
2375.99138	0.81083
2374.06281	0.80800
2372.13425	0.80627
2370.20568	0.80457
2368.27712	0.79998
2366.34855	0.79473
2364.41999	0.79307
2362.49143	0.79327
2360.56286	0.79513
2358.63430	0.79832
2356.70573	0.79784
2354.77717	0.79642
2352.84860	0.79906
2350.92004	0.80134
2348.99147	0.79942
2347.06291	0.79534
2345.13435	0.79346
2343.20578	0.79656
2341.27722	0.80009
2339.34865	0.79937
2337.42009	0.79648
2335.49152	0.79480
2333.56296	0.79447
2331.63440	0.79462
2329.70583	0.79585
2327.77727	0.79814
2325.84870	0.79930
2323.92014	0.79935
2321.99157	0.79980
2320.06301	0.80057
2318.13444	0.80062
2316.20588	0.79936
2314.27732	0.79795
2312.34875	0.79757
2310.42019	0.79758
2308.49162	0.79705
2306.56306	0.79602
2304.63449	0.79473
2302.70593	0.79378
2300.77736	0.79373
2298.84880	0.79387
2296.92024	0.79336
2294.99167	0.79265
2293.06311	0.79208
2291.13454	0.79129
2289.20598	0.79025
2287.27741	0.78910
2285.34885	0.78804
2283.42028	0.78744
2281.49172	0.78728
2279.56316	0.78696
2277.63459	0.78631
2275.70603	0.78572
2273.77746	0.78547
2271.84890	0.78540
2269.92033	0.78483
2267.99177	0.78377
2266.06320	0.78321
2264.13464	0.78329
2262.20608	0.78326
2260.27751	0.78309
2258.34895	0.78288
2256.42038	0.78224
2254.49182	0.78161
2252.56325	0.78116
2250.63469	0.78042
2248.70612	0.77960
2246.77756	0.77899
2244.84900	0.77840
2242.92043	0.77743
2240.99187	0.77629
2239.06330	0.77580
2237.13474	0.77587
2235.20617	0.77589
2233.27761	0.77599
2231.34904	0.77612
2229.42048	0.77619
2227.49192	0.77655
2225.56335	0.77716
2223.63479	0.77754
2221.70622	0.77789
2219.77766	0.77877
2217.84909	0.77976
2215.92053	0.78019
2213.99196	0.78022
2212.06340	0.78026
2210.13484	0.78046
2208.20627	0.78073
2206.27771	0.78063
2204.34914	0.77966
2202.42058	0.77817
2200.49201	0.77704
2198.56345	0.77625
2196.63488	0.77512
2194.70632	0.77368
2192.77776	0.77241
2190.84919	0.77128
2188.92063	0.77008
2186.99206	0.76905
2185.06350	0.76831
2183.13493	0.76764
2181.20637	0.76696
2179.27781	0.76623
2177.34924	0.76548
2175.42068	0.76490
2173.49211	0.76447
2171.56355	0.76404
2169.63498	0.76387
2167.70642	0.76413
2165.77785	0.76439
2163.84929	0.76452
2161.92073	0.76473
2159.99216	0.76485
2158.06360	0.76451
2156.13503	0.76382
2154.20647	0.76317
2152.27790	0.76261
2150.34934	0.76194
2148.42077	0.76138
2146.49221	0.76113
2144.56365	0.76067
2142.63508	0.75977
2140.70652	0.75899
2138.77795	0.75865
2136.84939	0.75854
2134.92082	0.75842
2132.99226	0.75833
2131.06369	0.75842
2129.13513	0.75875
2127.20657	0.75936
2125.27800	0.76006
2123.34944	0.76054
2121.42087	0.76087
2119.49231	0.76135
2117.56374	0.76196
2115.63518	0.76239
2113.70661	0.76235
2111.77805	0.76191
2109.84949	0.76133
2107.92092	0.76057
2105.99236	0.75936
2104.06379	0.75761
2102.13523	0.75563
2100.20666	0.75386
2098.27810	0.75210
2096.34953	0.75000
2094.42097	0.74798
2092.49241	0.74630
2090.56384	0.74456
2088.63528	0.74261
2086.70671	0.74093
2084.77815	0.73979
2082.84958	0.73883
2080.92102	0.73786
2078.99245	0.73697
2077.06389	0.73649
2075.13533	0.73648
2073.20676	0.73632
2071.27820	0.73600
2069.34963	0.73607
2067.42107	0.73635
2065.49250	0.73649
2063.56394	0.73621
2061.63537	0.73552
2059.70681	0.73500
2057.77825	0.73463
2055.84968	0.73396
2053.92112	0.73291
2051.99255	0.73146
2050.06399	0.72994
2048.13542	0.72873
2046.20686	0.72760
2044.27830	0.72641
2042.34973	0.72538
2040.42117	0.72445
2038.49260	0.72354
2036.56404	0.72298
2034.63547	0.72275
2032.70691	0.72248
2030.77834	0.72228
2028.84978	0.72230
2026.92122	0.72229
2024.99265	0.72218
2023.06409	0.72199
2021.13552	0.72146
2019.20696	0.72071
2017.27839	0.72001
2015.34983	0.71901
2013.42126	0.71744
2011.49270	0.71564
2009.56414	0.71357
2007.63557	0.71102
2005.70701	0.70830
2003.77844	0.70574
2001.84988	0.70340
1999.92131	0.70146
1997.99275	0.69977
1996.06418	0.69793
1994.13562	0.69622
1992.20706	0.69524
1990.27849	0.69450
1988.34993	0.69349
1986.42136	0.69254
1984.49280	0.69188
1982.56423	0.69160
1980.63567	0.69163
1978.70710	0.69165
1976.77854	0.69157
1974.84998	0.69145
1972.92141	0.69119
1970.99285	0.69054
1969.06428	0.68976
1967.13572	0.68927
1965.20715	0.68858
1963.27859	0.68713
1961.35002	0.68532
1959.42146	0.68359
1957.49290	0.68190
1955.56433	0.68021
1953.63577	0.67854
1951.70720	0.67670
1949.77864	0.67476
1947.85007	0.67304
1945.92151	0.67151
1943.99294	0.67055
1942.06438	0.67058
1940.13582	0.67041
1938.20725	0.66951
1936.27869	0.66881
1934.35012	0.66878
1932.42156	0.66903
1930.49299	0.66897
1928.56443	0.66845
1926.63586	0.66755
1924.70730	0.66666
1922.77874	0.66603
1920.85017	0.66506
1918.92161	0.66429
1916.99304	0.66409
1915.06448	0.66286
1913.13591	0.66069
1911.20735	0.65883
1909.27878	0.65758
1907.35022	0.65617
1905.42166	0.65424
1903.49309	0.65234
1901.56453	0.65074
1899.63596	0.64928
1897.70740	0.64814
1895.77883	0.64761
1893.85027	0.64694
1891.92171	0.64567
1889.99314	0.64505
1888.06458	0.64503
1886.13601	0.64452
1884.20745	0.64403
1882.27888	0.64379
1880.35032	0.64342
1878.42175	0.64297
1876.49319	0.64270
1874.56463	0.64221
1872.63606	0.64082
1870.70750	0.63944
1868.77893	0.64002
1866.85037	0.64083
1864.92180	0.63935
1862.99324	0.63715
1861.06467	0.63539
1859.13611	0.63394
1857.20755	0.63255
1855.27898	0.63121
1853.35042	0.62986
1851.42185	0.62823
1849.49329	0.62634
1847.56472	0.62425
1845.63616	0.62298
1843.70759	0.62357
1841.77903	0.62324
1839.85047	0.62136
1837.92190	0.61996
1835.99334	0.61937
1834.06477	0.61825
1832.13621	0.61694
1830.20764	0.61732
1828.27908	0.61828
1826.35051	0.61811
1824.42195	0.61808
1822.49339	0.61767
1820.56482	0.61665
1818.63626	0.61620
1816.70769	0.61618
1814.77913	0.61574
1812.85056	0.61505
1810.92200	0.61493
1808.99343	0.61494
1807.06487	0.61422
1805.13631	0.61296
1803.20774	0.61172
1801.27918	0.61144
1799.35061	0.61173
1797.42205	0.61116
1795.49348	0.60986
1793.56492	0.60970
1791.63635	0.61191
1789.70779	0.61255
1787.77923	0.61111
1785.85066	0.61030
1783.92210	0.61051
1781.99353	0.61106
1780.06497	0.61215
1778.13640	0.61272
1776.20784	0.61199
1774.27927	0.61191
1772.35071	0.61518
1770.42215	0.61892
1768.49358	0.62045
1766.56502	0.62120
1764.63645	0.62153
1762.70789	0.62318
1760.77932	0.62623
1758.85076	0.62817
1756.92220	0.63067
1754.99363	0.63347
1753.06507	0.63544
1751.13650	0.63983
1749.20794	0.64821
1747.27937	0.65576
1745.35081	0.66102
1743.42224	0.66597
1741.49368	0.67171
1739.56512	0.67752
1737.63655	0.68046
1735.70799	0.68267
1733.77942	0.69106
1731.85086	0.69912
1729.92229	0.70321
1727.99373	0.70806
1726.06516	0.71391
1724.13660	0.72159
1722.20804	0.72897
1720.27947	0.73431
1718.35091	0.74417
1716.42234	0.76549
1714.49378	0.78265
1712.56521	0.79270
1710.63665	0.80224
1708.70808	0.81401
1706.77952	0.83353
1704.85096	0.86017
1702.92239	0.88291
1700.99383	0.91679
1699.06526	0.97580
1697.13670	1.03355
1695.20813	1.09227
1693.27957	1.13627
1691.35100	1.17110
1689.42244	1.21528
1687.49388	1.25752
1685.56531	1.30106
1683.63675	1.37381
1681.70818	1.42678
1679.77962	1.45412
1677.85105	1.47900
1675.92249	1.51021
1673.99392	1.54451
1672.06536	1.56953
1670.13680	1.59477
1668.20823	1.62276
1666.27967	1.63850
1664.35110	1.65174
1662.42254	1.66789
1660.49397	1.67639
1658.56541	1.67839
1656.63684	1.67869
1654.70828	1.68440
1652.77972	1.70015
1650.85115	1.69933
1648.92259	1.69041
1646.99402	1.68414
1645.06546	1.68298
1643.13689	1.67962
1641.20833	1.67395
1639.27976	1.66566
1637.35120	1.65542
1635.42264	1.64836
1633.49407	1.64609
1631.56551	1.64191
1629.63694	1.63247
1627.70838	1.61877
1625.77981	1.60261
1623.85125	1.58314
1621.92269	1.56370
1619.99412	1.54791
1618.06556	1.52823
1616.13699	1.49855
1614.20843	1.47255
1612.27986	1.45036
1610.35130	1.42712
1608.42273	1.40485
1606.49417	1.38667
1604.56561	1.37245
1602.63704	1.36077
1600.70848	1.35162
1598.77991	1.34428
1596.85135	1.33858
1594.92278	1.33487
1592.99422	1.33231
1591.06565	1.33076
1589.13709	1.33157
1587.20853	1.33545
1585.27996	1.34148
1583.35140	1.34902
1581.42283	1.35732
1579.49427	1.36527
1577.56570	1.37775
1575.63714	1.40069
1573.70857	1.41639
1571.78001	1.42472
1569.85145	1.43951
1567.92288	1.45744
1565.99432	1.47164
1564.06575	1.48669
1562.13719	1.49785
1560.20862	1.50864
1558.28006	1.53511
1556.35149	1.54636
1554.42293	1.54945
1552.49437	1.55474
1550.56580	1.55893
1548.63724	1.55821
1546.70867	1.55461
1544.78011	1.55105
1542.85154	1.54420
1540.92298	1.53082
1538.99441	1.52447
1537.06585	1.52199
1535.13729	1.51398
1533.20872	1.50130
1531.28016	1.49182
1529.35159	1.48538
1527.42303	1.47607
1525.49446	1.46228
1523.56590	1.44958
1521.63733	1.44334
1519.70877	1.44312
1517.78021	1.43840
1515.85164	1.42535
1513.92308	1.40915
1511.99451	1.39353
1510.06595	1.37896
1508.13738	1.35701
1506.20882	1.31996
1504.28025	1.29811
1502.35169	1.28206
1500.42313	1.26407
1498.49456	1.24411
1496.56600	1.22175
1494.63743	1.20123
1492.70887	1.18450
1490.78030	1.16741
1488.85174	1.14973
1486.92317	1.13569
1484.99461	1.12433
1483.06605	1.11599
1481.13748	1.11132
1479.20892	1.10954
1477.28035	1.11058
1475.35179	1.11674
1473.42322	1.13353
1471.49466	1.15501
1469.56610	1.16587
1467.63753	1.17174
1465.70897	1.18020
1463.78040	1.19000
1461.85184	1.19429
1459.92327	1.19568
1457.99471	1.20438
1456.06614	1.21990
1454.13758	1.22340
1452.20902	1.22194
1450.28045	1.22027
1448.35189	1.21899
1446.42332	1.21659
1444.49476	1.21147
1442.56619	1.20398
1440.63763	1.19544
1438.70906	1.18640
1436.78050	1.17517
1434.85194	1.16211
1432.92337	1.14979
1430.99481	1.13843
1429.06624	1.12923
1427.13768	1.12323
1425.20911	1.12040
1423.28055	1.12043
1421.35198	1.12201
1419.42342	1.12735
1417.49486	1.13604
1415.56629	1.14104
1413.63773	1.14408
1411.70916	1.14815
1409.78060	1.15287
1407.85203	1.15694
1405.92347	1.16215
1403.99490	1.16910
1402.06634	1.17394
1400.13778	1.17691
1398.20921	1.17938
1396.28065	1.18036
1394.35208	1.18030
1392.42352	1.17954
1390.49495	1.17838
1388.56639	1.17935
1386.63782	1.18378
1384.70926	1.18792
1382.78070	1.18990
1380.85213	1.18967
1378.92357	1.18605
1376.99500	1.17848
1375.06644	1.16694
1373.13787	1.15287
1371.20931	1.13883
1369.28074	1.12408
1367.35218	1.10850
1365.42362	1.09397
1363.49505	1.08106
1361.56649	1.07159
1359.63792	1.06601
1357.70936	1.06247
1355.78079	1.06035
1353.85223	1.05951
1351.92366	1.05935
1349.99510	1.05898
1348.06654	1.05814
1346.13797	1.05739
1344.20941	1.05687
1342.28084	1.05609
1340.35228	1.05545
1338.42371	1.05544
1336.49515	1.05607
1334.56659	1.05791
1332.63802	1.06087
1330.70946	1.06435
1328.78089	1.06763
1326.85233	1.07011
1324.92376	1.07207
1322.99520	1.07410
1321.06663	1.07674
1319.13807	1.08077
1317.20951	1.08550
1315.28094	1.08955
1313.35238	1.09312
1311.42381	1.09622
1309.49525	1.09875
1307.56668	1.10128
1305.63812	1.10343
1303.70955	1.10422
1301.78099	1.10333
1299.85243	1.10107
1297.92386	1.09789
1295.99530	1.09434
1294.06673	1.09122
1292.13817	1.08869
1290.20960	1.08633
1288.28104	1.08410
1286.35247	1.08209
1284.42391	1.08024
1282.49535	1.07840
1280.56678	1.07642
1278.63822	1.07469
1276.70965	1.07435
1274.78109	1.07573
1272.85252	1.07820
1270.92396	1.08176
1268.99539	1.08687
1267.06683	1.09309
1265.13827	1.09933
1263.20970	1.10444
1261.28114	1.10815
1259.35257	1.11135
1257.42401	1.11434
1255.49544	1.11713
1253.56688	1.12045
1251.63831	1.12407
1249.70975	1.12684
1247.78119	1.12831
1245.85262	1.12845
1243.92406	1.12715
1241.99549	1.12485
1240.06693	1.12227
1238.13836	1.11910
1236.20980	1.11476
1234.28123	1.10903
1232.35267	1.10131
1230.42411	1.09182
1228.49554	1.08226
1226.56698	1.07358
1224.63841	1.06500
1222.70985	1.05615
1220.78128	1.04782
1218.85272	1.04059
1216.92415	1.03469
1214.99559	1.03063
1213.06703	1.02872
1211.13846	1.02867
1209.20990	1.03007
1207.28133	1.03169
1205.35277	1.03137
1203.42420	1.02784
1201.49564	1.02157
1199.56708	1.01388
1197.63851	1.00597
1195.70995	0.99848
1193.78138	0.99155
1191.85282	0.98531
1189.92425	0.97980
1187.99569	0.97456
1186.06712	0.96993
1184.13856	0.96696
1182.21000	0.96583
1180.28143	0.96600
1178.35287	0.96740
1176.42430	0.97024
1174.49574	0.97446
1172.56717	0.97927
1170.63861	0.98395
1168.71004	0.98986
1166.78148	0.99944
1164.85292	1.01287
1162.92435	1.02788
1160.99579	1.04141
1159.06722	1.05009
1157.13866	1.05161
1155.21009	1.04680
1153.28153	1.03792
1151.35296	1.02650
1149.42440	1.01375
1147.49584	1.00087
1145.56727	0.98960
1143.63871	0.98186
1141.71014	0.97746
1139.78158	0.97512
1137.85301	0.97521
1135.92445	0.97849
1133.99588	0.98396
1132.06732	0.99067
1130.13876	0.99961
1128.21019	1.01035
1126.28163	1.02036
1124.35306	1.02913
1122.42450	1.03768
1120.49593	1.04601
1118.56737	1.05291
1116.63880	1.05702
1114.71024	1.05826
1112.78168	1.05689
1110.85311	1.05327
1108.92455	1.04959
1106.99598	1.04770
1105.06742	1.04685
1103.13885	1.04629
1101.21029	1.04694
1099.28172	1.04962
1097.35316	1.05442
1095.42460	1.06161
1093.49603	1.07107
1091.56747	1.08151
1089.63890	1.09198
1087.71034	1.10264
1085.78177	1.11375
1083.85321	1.12491
1081.92464	1.13461
1079.99608	1.14084
1078.06752	1.14222
1076.13895	1.13842
1074.21039	1.13018
1072.28182	1.11883
1070.35326	1.10583
1068.42469	1.09256
1066.49613	1.07968
1064.56756	1.06802
1062.63900	1.05891
1060.71044	1.05187
1058.78187	1.04542
1056.85331	1.03994
1054.92474	1.03631
1052.99618	1.03474
1051.06761	1.03554
1049.13905	1.03832
1047.21049	1.04268
1045.28192	1.04895
1043.35336	1.05682
1041.42479	1.06463
1039.49623	1.07025
1037.56766	1.07290
1035.63910	1.07281
1033.71053	1.07003
1031.78197	1.06547
1029.85341	1.05918
1027.92484	1.04952
1025.99628	1.03680
1024.06771	1.02328
1022.13915	1.00989
1020.21058	0.99735
1018.28202	0.98698
1016.35345	0.97727
1014.42489	0.96560
1012.49633	0.95243
1010.56776	0.93865
1008.63920	0.92432
1006.71063	0.91107
1004.78207	0.90035
1002.85350	0.89187
1000.92494	0.88593
998.99637	0.88309
997.06781	0.88187
995.13925	0.88053
993.21068	0.87873
991.28212	0.87599
989.35355	0.87151
987.42499	0.86552
985.49642	0.85901
983.56786	0.85302
981.63929	0.84822
979.71073	0.84420
977.78217	0.83980
975.85360	0.83475
973.92504	0.82900
971.99647	0.82193
970.06791	0.81374
968.13934	0.80561
966.21078	0.79850
964.28221	0.79349
962.35365	0.79213
960.42509	0.79571
958.49652	0.80379
956.56796	0.81317
954.63939	0.82014
952.71083	0.82355
950.78226	0.82405
948.85370	0.82253
946.92513	0.82038
944.99657	0.81923
943.06801	0.81943
941.13944	0.81997
939.21088	0.81967
937.28231	0.81794
935.35375	0.81539
933.42518	0.81287
931.49662	0.81036
929.56805	0.80744
927.63949	0.80376
925.71093	0.79939
923.78236	0.79515
921.85380	0.79168
919.92523	0.78848
917.99667	0.78489
916.06810	0.78160
914.13954	0.77972
912.21098	0.77959
910.28241	0.78107
908.35385	0.78407
906.42528	0.78874
904.49672	0.79507
902.56815	0.80240
900.63959	0.80938
898.71102	0.81530
896.78246	0.82034
894.85390	0.82432
892.92533	0.82701
890.99677	0.82884
889.06820	0.83035
887.13964	0.83156
885.21107	0.83229
883.28251	0.83247
881.35394	0.83216
879.42538	0.83193
877.49682	0.83249
875.56825	0.83321
873.63969	0.83317
871.71112	0.83312
869.78256	0.83427
867.85399	0.83630
865.92543	0.83878
863.99686	0.84218
862.06830	0.84676
860.13974	0.85219
858.21117	0.85813
856.28261	0.86449
854.35404	0.87081
852.42548	0.87633
850.49691	0.88113
848.56835	0.88541
846.63978	0.88911
844.71122	0.89220
842.78266	0.89435
840.85409	0.89618
838.92553	0.89850
836.99696	0.90064
835.06840	0.90195
833.13983	0.90227
831.21127	0.90097
829.28270	0.89832
827.35414	0.89600
825.42558	0.89481
823.49701	0.89353
821.56845	0.89157
819.63988	0.89008
817.71132	0.88984
815.78275	0.89093
813.85419	0.89279
811.92562	0.89434
809.99706	0.89614
808.06850	0.89937
806.13993	0.90334
804.21137	0.90756
802.28280	0.91225
800.35424	0.91746
798.42567	0.92360
796.49711	0.93027
794.56854	0.93627
792.63998	0.94147
790.71142	0.94672
788.78285	0.95171
786.85429	0.95550
784.92572	0.95899
782.99716	0.96308
781.06859	0.96654
779.14003	0.96871
777.21147	0.97070
775.28290	0.97334
773.35434	0.97627
771.42577	0.97891
769.49721	0.98120
767.56864	0.98352
765.64008	0.98687
763.71151	0.99201
761.78295	0.99797
759.85439	1.00298
757.92582	1.00689
755.99726	1.01165
754.06869	1.01843
752.14013	1.02570
750.21156	1.03178
748.28300	1.03665
746.35443	1.04051
744.42587	1.04290
742.49731	1.04339
740.56874	1.04215
738.64018	1.03954
736.71161	1.03584
734.78305	1.03204
732.85448	1.02901
730.92592	1.02617
728.99735	1.02267
727.06879	1.01891
725.14023	1.01660
723.21166	1.01669
721.28310	1.01768
719.35453	1.01793
717.42597	1.01762
715.49740	1.01777
713.56884	1.01939
711.64027	1.02265
709.71171	1.02696
707.78315	1.03252
705.85458	1.04042
703.92602	1.05017
701.99745	1.05896
700.06889	1.06556
698.14032	1.07151
696.21176	1.07795
694.28319	1.08439
692.35463	1.09042
690.42607	1.09575
688.49750	1.09940
686.56894	1.10128
684.64037	1.10259
682.71181	1.10341
680.78324	1.10250
678.85468	1.09990
676.92611	1.09700
674.99755	1.09451
673.06899	1.09180
671.14042	1.08820
669.21186	1.08243
667.28329	1.07565
665.35473	1.07321
663.42616	1.07280
661.49760	1.07161
659.56903	1.06929
657.64047	1.06689
655.71191	1.06549
653.78334	1.06666
651.85478	1.06977
649.92621	1.07187
647.99765	1.07335
646.06908	1.07735
644.14052	1.08391
642.21195	1.09039
640.28339	1.09531
638.35483	1.09867
636.42626	1.10128
634.49770	1.10399
632.56913	1.10572
630.64057	1.10489
628.71200	1.10136
626.78344	1.09611
624.85488	1.09095
622.92631	1.08612
620.99775	1.07946
619.06918	1.07092
617.14062	1.06373
615.21205	1.05867
613.28349	1.05301
611.35492	1.04645
609.42636	1.04109
607.49780	1.03847
605.56923	1.03902
603.64067	1.04130
601.71210	1.04384
599.78354	1.04905
