3997.91406	1.25366
3995.98550	1.24941
3994.05693	1.24262
3992.12837	1.23849
3990.19980	1.23857
3988.27124	1.23951
3986.34268	1.24006
3984.41411	1.24091
3982.48555	1.23879
3980.55698	1.23433
3978.62842	1.23341
3976.69985	1.23331
3974.77129	1.22923
3972.84272	1.22743
3970.91416	1.23013
3968.98560	1.22989
3967.05703	1.22634
3965.12847	1.22427
3963.19990	1.22480
3961.27134	1.22737
3959.34277	1.22841
3957.41421	1.22494
3955.48564	1.22091
3953.55708	1.22170
3951.62852	1.22686
3949.69995	1.23014
3947.77139	1.22567
3945.84282	1.21833
3943.91426	1.21756
3941.98569	1.22242
3940.05713	1.22175
3938.12856	1.21473
3936.20000	1.20878
3934.27144	1.20658
3932.34287	1.20789
3930.41431	1.20999
3928.48574	1.20746
3926.55718	1.20313
3924.62861	1.20253
3922.70005	1.20281
3920.77148	1.20303
3918.84292	1.20697
3916.91436	1.20921
3914.98579	1.20421
3913.05723	1.19768
3911.12866	1.19390
3909.20010	1.19175
3907.27153	1.18906
3905.34297	1.18702
3903.41440	1.18857
3901.48584	1.19065
3899.55728	1.18951
3897.62871	1.18720
3895.70015	1.18514
3893.77158	1.18329
3891.84302	1.18345
3889.91445	1.18356
3887.98589	1.18348
3886.05733	1.18928
3884.12876	1.19247
3882.20020	1.18920
3880.27163	1.19197
3878.34307	1.19079
3876.41450	1.18327
3874.48594	1.18152
3872.55737	1.18548
3870.62881	1.19219
3868.70025	1.19492
3866.77168	1.18572
3864.84312	1.17859
3862.91455	1.18267
3860.98599	1.18313
3859.05742	1.17382
3857.12886	1.15929
3855.20029	1.14968
3853.27173	1.16635
3851.34317	1.18126
3849.41460	1.17583
3847.48604	1.16741
3845.55747	1.16342
3843.62891	1.16231
3841.70034	1.15909
3839.77178	1.16018
3837.84321	1.16960
3835.91465	1.17012
3833.98609	1.16167
3832.05752	1.15636
3830.12896	1.15482
3828.20039	1.15208
3826.27183	1.14832
3824.34326	1.14415
3822.41470	1.14644
3820.48613	1.15949
3818.55757	1.16361
3816.62901	1.16391
3814.70044	1.16377
3812.77188	1.15671
3810.84331	1.14678
3808.91475	1.14059
3806.98618	1.14374
3805.05762	1.14516
3803.12905	1.14403
3801.20049	1.15349
3799.27193	1.15732
3797.34336	1.15460
3795.41480	1.15346
3793.48623	1.14890
3791.55767	1.14275
3789.62910	1.13756
3787.70054	1.13344
3785.77197	1.13350
3783.84341	1.13493
3781.91485	1.13328
3779.98628	1.13443
3778.05772	1.13684
3776.12915	1.13261
3774.20059	1.12561
3772.27202	1.12147
3770.34346	1.12374
3768.41489	1.12760
3766.48633	1.12735
3764.55777	1.12565
3762.62920	1.12202
3760.70064	1.11880
3758.77207	1.11955
3756.84351	1.11767
3754.91494	1.11233
3752.98638	1.11294
3751.05781	1.12632
3749.12925	1.12834
3747.20069	1.11600
3745.27212	1.11402
3743.34356	1.12510
3741.41499	1.12517
3739.48643	1.11431
3737.55786	1.10519
3735.62930	1.11287
3733.70074	1.12848
3731.77217	1.12727
3729.84361	1.11617
3727.91504	1.10860
3725.98648	1.11204
3724.05791	1.11939
3722.12935	1.11973
3720.20078	1.11492
3718.27222	1.10820
3716.34366	1.10033
3714.41509	1.09426
3712.48653	1.09944
3710.55796	1.11621
3708.62940	1.12077
3706.70083	1.11497
3704.77227	1.10738
3702.84370	1.10356
3700.91514	1.10354
3698.98658	1.10122
3697.05801	1.09837
3695.12945	1.09681
3693.20088	1.09536
3691.27232	1.09770
3689.34375	1.11043
3687.41519	1.11993
3685.48662	1.11774
3683.55806	1.11069
3681.62950	1.10409
3679.70093	1.09944
3677.77237	1.09701
3675.84380	1.10447
3673.91524	1.11136
3671.98667	1.11052
3670.05811	1.12098
3668.12954	1.13118
3666.20098	1.12855
3664.27242	1.12557
3662.34385	1.12592
3660.41529	1.12620
3658.48672	1.12648
3656.55816	1.13288
3654.62959	1.13921
3652.70103	1.13661
3650.77246	1.13505
3648.84390	1.15249
3646.91534	1.16790
3644.98677	1.16792
3643.05821	1.16432
3641.12964	1.16466
3639.20108	1.16966
3637.27251	1.17463
3635.34395	1.17697
3633.41538	1.17599
3631.48682	1.17331
3629.55826	1.18624
3627.62969	1.21141
3625.70113	1.21194
3623.77256	1.20139
3621.84400	1.19532
3619.91543	1.20436
3617.98687	1.21991
3616.05830	1.22273
3614.12974	1.22612
3612.20118	1.23598
3610.27261	1.24248
3608.34405	1.24839
3606.41548	1.25488
3604.48692	1.25699
3602.55835	1.25811
3600.62979	1.26260
3598.70123	1.26725
3596.77266	1.26936
3594.84410	1.27317
3592.91553	1.27590
3590.98697	1.27229
3589.05840	1.27330
3587.12984	1.29171
3585.20127	1.30637
3583.27271	1.31009
3581.34415	1.31586
3579.41558	1.32239
3577.48702	1.32600
3575.55845	1.33181
3573.62989	1.33953
3571.70132	1.34266
3569.77276	1.34293
3567.84419	1.35305
3565.91563	1.37441
3563.98707	1.38523
3562.05850	1.38663
3560.12994	1.38715
3558.20137	1.38933
3556.27281	1.39312
3554.34424	1.39921
3552.41568	1.40875
3550.48711	1.41710
3548.55855	1.41952
3546.62999	1.42115
3544.70142	1.42893
3542.77286	1.43763
3540.84429	1.44105
3538.91573	1.44293
3536.98716	1.44938
3535.05860	1.46003
3533.13003	1.46954
3531.20147	1.47594
3529.27291	1.48133
3527.34434	1.48706
3525.41578	1.49491
3523.48721	1.50755
3521.55865	1.51690
3519.63008	1.51805
3517.70152	1.51970
3515.77295	1.52520
3513.84439	1.53384
3511.91583	1.54334
3509.98726	1.54913
3508.05870	1.55368
3506.13013	1.56048
3504.20157	1.57147
3502.27300	1.58433
3500.34444	1.59383
3498.41587	1.60034
3496.48731	1.60165
3494.55875	1.60215
3492.63018	1.60992
3490.70162	1.61864
3488.77305	1.62137
3486.84449	1.62142
3484.91592	1.62354
3482.98736	1.63335
3481.05879	1.64765
3479.13023	1.65343
3477.20167	1.65844
3475.27310	1.67245
3473.34454	1.68018
3471.41597	1.67520
3469.48741	1.67048
3467.55884	1.66883
3465.63028	1.66883
3463.70171	1.67383
3461.77315	1.68281
3459.84459	1.69140
3457.91602	1.69602
3455.98746	1.69588
3454.05889	1.69397
3452.13033	1.69208
3450.20176	1.69278
3448.27320	1.70120
3446.34464	1.71676
3444.41607	1.73063
3442.48751	1.73754
3440.55894	1.73765
3438.63038	1.73214
3436.70181	1.72543
3434.77325	1.72294
3432.84468	1.72674
3430.91612	1.73609
3428.98756	1.74413
3427.05899	1.73796
3425.13043	1.71739
3423.20186	1.70306
3421.27330	1.70817
3419.34473	1.71932
3417.41617	1.72271
3415.48760	1.72484
3413.55904	1.72960
3411.63048	1.73123
3409.70191	1.72973
3407.77335	1.72901
3405.84478	1.72886
3403.91622	1.72649
3401.98765	1.71934
3400.05909	1.71192
3398.13052	1.71686
3396.20196	1.73489
3394.27340	1.74698
3392.34483	1.74691
3390.41627	1.74598
3388.48770	1.74236
3386.55914	1.73426
3384.63057	1.73150
3382.70201	1.73616
3380.77344	1.74132
3378.84488	1.74242
3376.91632	1.74215
3374.98775	1.74684
3373.05919	1.75741
3371.13062	1.76914
3369.20206	1.77341
3367.27349	1.76476
3365.34493	1.75351
3363.41636	1.74942
3361.48780	1.74814
3359.55924	1.74799
3357.63067	1.75262
3355.70211	1.76080
3353.77354	1.76637
3351.84498	1.76395
3349.91641	1.75697
3347.98785	1.75261
3346.05928	1.75362
3344.13072	1.76022
3342.20216	1.77045
3340.27359	1.77878
3338.34503	1.77803
3336.41646	1.76942
3334.48790	1.76466
3332.55933	1.76699
3330.63077	1.76869
3328.70220	1.76885
3326.77364	1.77387
3324.84508	1.78541
3322.91651	1.79380
3320.98795	1.79014
3319.05938	1.78726
3317.13082	1.79836
3315.20225	1.81045
3313.27369	1.80681
3311.34513	1.79411
3309.41656	1.78988
3307.48800	1.79606
3305.55943	1.79832
3303.63087	1.79481
3301.70230	1.79277
3299.77374	1.79023
3297.84517	1.79159
3295.91661	1.80066
3293.98805	1.80347
3292.05948	1.79621
3290.13092	1.79318
3288.20235	1.79721
3286.27379	1.80028
3284.34522	1.80236
3282.41666	1.80478
3280.48809	1.80298
3278.55953	1.79655
3276.63097	1.78635
3274.70240	1.77256
3272.77384	1.76101
3270.84527	1.75647
3268.91671	1.75702
3266.98814	1.75891
3265.05958	1.75887
3263.13101	1.75355
3261.20245	1.74776
3259.27389	1.74812
3257.34532	1.74775
3255.41676	1.73971
3253.48819	1.73233
3251.55963	1.72937
3249.63106	1.71950
3247.70250	1.70314
3245.77393	1.69112
3243.84537	1.68093
3241.91681	1.67279
3239.98824	1.67515
3238.05968	1.68196
3236.13111	1.67958
3234.20255	1.67009
3232.27398	1.66671
3230.34542	1.67123
3228.41685	1.67255
3226.48829	1.66776
3224.55973	1.66326
3222.63116	1.66104
3220.70260	1.65691
3218.77403	1.64897
3216.84547	1.64335
3214.91690	1.64156
3212.98834	1.63980
3211.05977	1.63949
3209.13121	1.63915
3207.20265	1.63394
3205.27408	1.62733
3203.34552	1.62532
3201.41695	1.62471
3199.48839	1.61979
3197.55982	1.61399
3195.63126	1.61172
3193.70269	1.60921
3191.77413	1.60339
3189.84557	1.59824
3187.91700	1.59468
3185.98844	1.58784
3184.05987	1.57790
3182.13131	1.57076
3180.20274	1.56892
3178.27418	1.56778
3176.34562	1.56263
3174.41705	1.55598
3172.48849	1.55271
3170.55992	1.55193
3168.63136	1.54936
3166.70279	1.54410
3164.77423	1.53632
3162.84566	1.52935
3160.91710	1.52725
3158.98854	1.52548
3157.05997	1.51989
3155.13141	1.51305
3153.20284	1.50820
3151.27428	1.50705
3149.34571	1.50644
3147.41715	1.50205
3145.48858	1.49735
3143.56002	1.49633
3141.63146	1.49541
3139.70289	1.49139
3137.77433	1.48617
3135.84576	1.48339
3133.91720	1.48492
3131.98863	1.48728
3130.06007	1.48652
3128.13150	1.48360
3126.20294	1.48166
3124.27438	1.48285
3122.34581	1.48456
3120.41725	1.48218
3118.48868	1.47735
3116.56012	1.47534
3114.63155	1.47597
3112.70299	1.47460
3110.77442	1.47118
3108.84586	1.46856
3106.91730	1.46663
3104.98873	1.46519
3103.06017	1.46446
3101.13160	1.46454
3099.20304	1.46692
3097.27447	1.46959
3095.34591	1.46838
3093.41734	1.46416
3091.48878	1.45988
3089.56022	1.45689
3087.63165	1.45575
3085.70309	1.45549
3083.77452	1.45520
3081.84596	1.45408
3079.91739	1.44946
3077.98883	1.44375
3076.06026	1.44284
3074.13170	1.44475
3072.20314	1.44392
3070.27457	1.43891
3068.34601	1.43153
3066.41744	1.42498
3064.48888	1.42075
3062.56031	1.41795
3060.63175	1.41477
3058.70318	1.41040
3056.77462	1.40575
3054.84606	1.40133
3052.91749	1.39785
3050.98893	1.39576
3049.06036	1.39221
3047.13180	1.38524
3045.20323	1.37810
3043.27467	1.37298
3041.34610	1.36773
3039.41754	1.36185
3037.48898	1.35824
3035.56041	1.35775
3033.63185	1.35727
3031.70328	1.35486
3029.77472	1.35119
3027.84615	1.34623
3025.91759	1.34167
3023.98903	1.33975
3022.06046	1.33857
3020.13190	1.33570
3018.20333	1.33143
3016.27477	1.32709
3014.34620	1.32338
3012.41764	1.32116
3010.48907	1.32183
3008.56051	1.32248
3006.63195	1.31940
3004.70338	1.31498
3002.77482	1.31177
3000.84625	1.30890
2998.91769	1.30706
2996.98912	1.30687
2995.06056	1.30625
2993.13199	1.30501
2991.20343	1.30517
2989.27487	1.30708
2987.34630	1.31038
2985.41774	1.31468
2983.48917	1.31994
2981.56061	1.32641
2979.63204	1.33289
2977.70348	1.33871
2975.77491	1.34469
2973.84635	1.35167
2971.91779	1.35969
2969.98922	1.36718
2968.06066	1.37377
2966.13209	1.38150
2964.20353	1.38918
2962.27496	1.39255
2960.34640	1.39193
2958.41783	1.38976
2956.48927	1.38417
2954.56071	1.37530
2952.63214	1.36799
2950.70358	1.36445
2948.77501	1.36334
2946.84645	1.36352
2944.91788	1.36528
2942.98932	1.37054
2941.06075	1.37979
2939.13219	1.38983
2937.20363	1.39897
2935.27506	1.40861
2933.34650	1.41818
2931.41793	1.42645
2929.48937	1.43394
2927.56080	1.44189
2925.63224	1.45100
2923.70367	1.45905
2921.77511	1.46343
2919.84655	1.46394
2917.91798	1.45729
2915.98942	1.43924
2914.06085	1.41485
2912.13229	1.39234
2910.20372	1.37337
2908.27516	1.35668
2906.34659	1.34181
2904.41803	1.32925
2902.48947	1.32003
2900.56090	1.31390
2898.63234	1.30973
2896.70377	1.30683
2894.77521	1.30494
2892.84664	1.30192
2890.91808	1.29631
2888.98952	1.29153
2887.06095	1.28957
2885.13239	1.28787
2883.20382	1.28580
2881.27526	1.28468
2879.34669	1.28392
2877.41813	1.28247
2875.48956	1.28004
2873.56100	1.27686
2871.63244	1.27385
2869.70387	1.27109
2867.77531	1.26722
2865.84674	1.26233
2863.91818	1.25866
2861.98961	1.25737
2860.06105	1.25887
2858.13248	1.26427
2856.20392	1.27274
2854.27536	1.28256
2852.34679	1.29203
2850.41823	1.29593
2848.48966	1.28696
2846.56110	1.26465
2844.63253	1.23717
2842.70397	1.21322
2840.77540	1.19725
2838.84684	1.18766
2836.91828	1.18009
2834.98971	1.17355
2833.06115	1.16784
2831.13258	1.16199
2829.20402	1.15734
2827.27545	1.15437
2825.34689	1.15045
2823.41832	1.14499
2821.48976	1.14051
2819.56120	1.13741
2817.63263	1.13461
2815.70407	1.13198
2813.77550	1.12897
2811.84694	1.12523
2809.91837	1.12111
2807.98981	1.11734
2806.06124	1.11445
2804.13268	1.11160
2802.20412	1.10802
2800.27555	1.10422
2798.34699	1.10110
2796.41842	1.09903
2794.48986	1.09707
2792.56129	1.09421
2790.63273	1.09080
2788.70416	1.08756
2786.77560	1.08478
2784.84704	1.08244
2782.91847	1.08028
2780.98991	1.07811
2779.06134	1.07588
2777.13278	1.07408
2775.20421	1.07348
2773.27565	1.07307
2771.34708	1.07142
2769.41852	1.06953
2767.48996	1.06815
2765.56139	1.06612
2763.63283	1.06336
2761.70426	1.06128
2759.77570	1.05987
2757.84713	1.05771
2755.91857	1.05432
2753.99001	1.05075
2752.06144	1.04793
2750.13288	1.04544
2748.20431	1.04249
2746.27575	1.03965
2744.34718	1.03800
2742.41862	1.03751
2740.49005	1.03721
2738.56149	1.03647
2736.63293	1.03520
2734.70436	1.03378
2732.77580	1.03241
2730.84723	1.03052
2728.91867	1.02873
2726.99010	1.02770
2725.06154	1.02591
2723.13297	1.02274
2721.20441	1.02006
2719.27585	1.01892
2717.34728	1.01792
2715.41872	1.01574
2713.49015	1.01348
2711.56159	1.01176
2709.63302	1.00932
2707.70446	1.00626
2705.77589	1.00355
2703.84733	1.00110
2701.91877	0.99894
2699.99020	0.99727
2698.06164	0.99594
2696.13307	0.99469
2694.20451	0.99327
2692.27594	0.99207
2690.34738	0.99148
2688.41881	0.99101
2686.49025	0.98988
2684.56169	0.98771
2682.63312	0.98496
2680.70456	0.98298
2678.77599	0.98233
2676.84743	0.98193
2674.91886	0.98130
2672.99030	0.98063
2671.06173	0.97935
2669.13317	0.97731
2667.20461	0.97478
2665.27604	0.97194
2663.34748	0.96983
2661.41891	0.96937
2659.49035	0.96954
2657.56178	0.96851
2655.63322	0.96625
2653.70465	0.96419
2651.77609	0.96309
2649.84753	0.96265
2647.91896	0.96216
2645.99040	0.96125
2644.06183	0.96052
2642.13327	0.96016
2640.20470	0.95949
2638.27614	0.95889
2636.34757	0.95868
2634.41901	0.95794
2632.49045	0.95650
2630.56188	0.95490
2628.63332	0.95353
2626.70475	0.95261
2624.77619	0.95159
2622.84762	0.95023
2620.91906	0.94910
2618.99049	0.94805
2617.06193	0.94656
2615.13337	0.94506
2613.20480	0.94447
2611.27624	0.94471
2609.34767	0.94424
2607.41911	0.94207
2605.49054	0.93972
2603.56198	0.93857
2601.63342	0.93793
2599.70485	0.93739
2597.77629	0.93695
2595.84772	0.93577
2593.91916	0.93354
2591.99059	0.93126
2590.06203	0.92976
2588.13346	0.92864
2586.20490	0.92696
2584.27634	0.92489
2582.34777	0.92386
2580.41921	0.92403
2578.49064	0.92357
2576.56208	0.92183
2574.63351	0.92004
2572.70495	0.91860
2570.77638	0.91700
2568.84782	0.91560
2566.91926	0.91521
2564.99069	0.91536
2563.06213	0.91480
2561.13356	0.91315
2559.20500	0.91070
2557.27643	0.90814
2555.34787	0.90630
2553.41930	0.90482
2551.49074	0.90288
2549.56218	0.90054
2547.63361	0.89827
2545.70505	0.89618
2543.77648	0.89432
2541.84792	0.89309
2539.91935	0.89232
2537.99079	0.89114
2536.06222	0.88948
2534.13366	0.88814
2532.20510	0.88751
2530.27653	0.88694
2528.34797	0.88623
2526.41940	0.88592
2524.49084	0.88583
2522.56227	0.88565
2520.63371	0.88524
2518.70514	0.88454
2516.77658	0.88348
2514.84802	0.88193
2512.91945	0.88046
2510.99089	0.87967
2509.06232	0.87891
2507.13376	0.87728
2505.20519	0.87508
2503.27663	0.87321
2501.34806	0.87175
2499.41950	0.87045
2497.49094	0.86971
2495.56237	0.86961
2493.63381	0.86928
2491.70524	0.86814
2489.77668	0.86672
2487.84811	0.86556
2485.91955	0.86462
2483.99098	0.86387
2482.06242	0.86333
2480.13386	0.86303
2478.20529	0.86283
2476.27673	0.86213
2474.34816	0.86096
2472.41960	0.85960
2470.49103	0.85792
2468.56247	0.85662
2466.63391	0.85588
2464.70534	0.85462
2462.77678	0.85292
2460.84821	0.85134
2458.91965	0.84972
2456.99108	0.84835
2455.06252	0.84765
2453.13395	0.84735
2451.20539	0.84698
2449.27683	0.84635
2447.34826	0.84566
2445.41970	0.84510
2443.49113	0.84458
2441.56257	0.84365
2439.63400	0.84253
2437.70544	0.84166
2435.77687	0.84059
2433.84831	0.83895
2431.91975	0.83714
2429.99118	0.83547
2428.06262	0.83412
2426.13405	0.83308
2424.20549	0.83207
2422.27692	0.83090
2420.34836	0.82954
2418.41979	0.82821
2416.49123	0.82737
2414.56267	0.82678
2412.63410	0.82583
2410.70554	0.82447
2408.77697	0.82292
2406.84841	0.82118
2404.91984	0.81934
2402.99128	0.81788
2401.06271	0.81702
2399.13415	0.81615
2397.20559	0.81494
2395.27702	0.81370
2393.34846	0.81246
2391.41989	0.81077
2389.49133	0.80882
2387.56276	0.80695
2385.63420	0.80492
2383.70563	0.80282
2381.77707	0.80123
2379.84851	0.79987
2377.91994	0.79784
2375.99138	0.79573
2374.06281	0.79424
2372.13425	0.79201
2370.20568	0.78964
2368.27712	0.78972
2366.34855	0.78981
2364.41999	0.78604
2362.49143	0.78122
2360.56286	0.78002
2358.63430	0.78459
2356.70573	0.79063
2354.77717	0.79135
2352.84860	0.79053
2350.92004	0.78941
2348.99147	0.78530
2347.06291	0.78029
2345.13435	0.77931
2343.20578	0.78185
2341.27722	0.78108
2339.34865	0.77814
2337.42009	0.77625
2335.49152	0.77535
2333.56296	0.77479
2331.63440	0.77433
2329.70583	0.77499
2327.77727	0.77651
2325.84870	0.77706
2323.92014	0.77673
2321.99157	0.77672
2320.06301	0.77729
2318.13444	0.77796
2316.20588	0.77794
2314.27732	0.77717
2312.34875	0.77602
2310.42019	0.77482
2308.49162	0.77454
2306.56306	0.77517
2304.63449	0.77491
2302.70593	0.77338
2300.77736	0.77192
2298.84880	0.77108
2296.92024	0.77044
2294.99167	0.76981
2293.06311	0.76943
2291.13454	0.76935
2289.20598	0.76911
2287.27741	0.76860
2285.34885	0.76815
2283.42028	0.76752
2281.49172	0.76652
2279.56316	0.76558
2277.63459	0.76466
2275.70603	0.76325
2273.77746	0.76167
2271.84890	0.76065
2269.92033	0.76020
2267.99177	0.75976
2266.06320	0.75913
2264.13464	0.75848
2262.20608	0.75778
2260.27751	0.75706
2258.34895	0.75650
2256.42038	0.75593
2254.49182	0.75536
2252.56325	0.75518
2250.63469	0.75523
2248.70612	0.75509
2246.77756	0.75478
2244.84900	0.75438
2242.92043	0.75399
2240.99187	0.75389
2239.06330	0.75397
2237.13474	0.75393
2235.20617	0.75341
2233.27761	0.75225
2231.34904	0.75100
2229.42048	0.75026
2227.49192	0.74969
2225.56335	0.74879
2223.63479	0.74770
2221.70622	0.74654
2219.77766	0.74515
2217.84909	0.74374
2215.92053	0.74272
2213.99196	0.74208
2212.06340	0.74138
2210.13484	0.74050
2208.20627	0.73960
2206.27771	0.73874
2204.34914	0.73822
2202.42058	0.73822
2200.49201	0.73845
2198.56345	0.73877
2196.63488	0.73903
2194.70632	0.73881
2192.77776	0.73819
2190.84919	0.73783
2188.92063	0.73786
2186.99206	0.73799
2185.06350	0.73810
2183.13493	0.73800
2181.20637	0.73779
2179.27781	0.73781
2177.34924	0.73777
2175.42068	0.73747
2173.49211	0.73704
2171.56355	0.73635
2169.63498	0.73552
2167.70642	0.73490
2165.77785	0.73432
2163.84929	0.73349
2161.92073	0.73257
2159.99216	0.73190
2158.06360	0.73127
2156.13503	0.73027
2154.20647	0.72919
2152.27790	0.72849
2150.34934	0.72797
2148.42077	0.72746
2146.49221	0.72703
2144.56365	0.72659
2142.63508	0.72622
2140.70652	0.72597
2138.77795	0.72555
2136.84939	0.72498
2134.92082	0.72444
2132.99226	0.72382
2131.06369	0.72319
2129.13513	0.72272
2127.20657	0.72243
2125.27800	0.72228
2123.34944	0.72210
2121.42087	0.72179
2119.49231	0.72152
2117.56374	0.72136
2115.63518	0.72110
2113.70661	0.72060
2111.77805	0.71987
2109.84949	0.71905
2107.92092	0.71821
2105.99236	0.71731
2104.06379	0.71634
2102.13523	0.71535
2100.20666	0.71440
2098.27810	0.71328
2096.34953	0.71182
2094.42097	0.71048
2092.49241	0.70953
2090.56384	0.70879
2088.63528	0.70807
2086.70671	0.70734
2084.77815	0.70668
2082.84958	0.70598
2080.92102	0.70518
2078.99245	0.70484
2077.06389	0.70525
2075.13533	0.70568
2073.20676	0.70555
2071.27820	0.70521
2069.34963	0.70503
2067.42107	0.70495
2065.49250	0.70498
2063.56394	0.70498
2061.63537	0.70468
2059.70681	0.70402
2057.77825	0.70325
2055.84968	0.70256
2053.92112	0.70195
2051.99255	0.70125
2050.06399	0.70040
2048.13542	0.69968
2046.20686	0.69921
2044.27830	0.69858
2042.34973	0.69766
2040.42117	0.69674
2038.49260	0.69600
2036.56404	0.69527
2034.63547	0.69416
2032.70691	0.69265
2030.77834	0.69123
2028.84978	0.69007
2026.92122	0.68891
2024.99265	0.68775
2023.06409	0.68676
2021.13552	0.68572
2019.20696	0.68477
2017.27839	0.68435
2015.34983	0.68404
2013.42126	0.68321
2011.49270	0.68231
2009.56414	0.68206
2007.63557	0.68233
2005.70701	0.68245
2003.77844	0.68221
2001.84988	0.68179
1999.92131	0.68143
1997.99275	0.68116
1996.06418	0.68062
1994.13562	0.67990
1992.20706	0.67956
1990.27849	0.67912
1988.34993	0.67805
1986.42136	0.67666
1984.49280	0.67496
1982.56423	0.67297
1980.63567	0.67109
1978.70710	0.66953
1976.77854	0.66828
1974.84998	0.66708
1972.92141	0.66573
1970.99285	0.66427
1969.06428	0.66322
1967.13572	0.66284
1965.20715	0.66235
1963.27859	0.66140
1961.35002	0.66057
1959.42146	0.65999
1957.49290	0.65962
1955.56433	0.65970
1953.63577	0.65980
1951.70720	0.65931
1949.77864	0.65851
1947.85007	0.65783
1945.92151	0.65708
1943.99294	0.65648
1942.06438	0.65620
1940.13582	0.65505
1938.20725	0.65305
1936.27869	0.65131
1934.35012	0.64999
1932.42156	0.64871
1930.49299	0.64736
1928.56443	0.64587
1926.63586	0.64408
1924.70730	0.64240
1922.77874	0.64131
1920.85017	0.64017
1918.92161	0.63917
1916.99304	0.63888
1915.06448	0.63821
1913.13591	0.63692
1911.20735	0.63571
1909.27878	0.63502
1907.35022	0.63463
1905.42166	0.63395
1903.49309	0.63307
1901.56453	0.63232
1899.63596	0.63163
1897.70740	0.63130
1895.77883	0.63181
1893.85027	0.63206
1891.92171	0.63136
1889.99314	0.63128
1888.06458	0.63172
1886.13601	0.63123
1884.20745	0.63043
1882.27888	0.62997
1880.35032	0.62963
1878.42175	0.62921
1876.49319	0.62878
1874.56463	0.62819
1872.63606	0.62706
1870.70750	0.62611
1868.77893	0.62697
1866.85037	0.62814
1864.92180	0.62730
1862.99324	0.62590
1861.06467	0.62519
1859.13611	0.62512
1857.20755	0.62530
1855.27898	0.62538
1853.35042	0.62509
1851.42185	0.62456
1849.49329	0.62406
1847.56472	0.62333
1845.63616	0.62308
1843.70759	0.62430
1841.77903	0.62435
1839.85047	0.62282
1837.92190	0.62166
1835.99334	0.62095
1834.06477	0.61925
1832.13621	0.61712
1830.20764	0.61685
1828.27908	0.61736
1826.35051	0.61653
1824.42195	0.61574
1822.49339	0.61488
1820.56482	0.61347
1818.63626	0.61242
1816.70769	0.61171
1814.77913	0.61069
1812.85056	0.60972
1810.92200	0.60953
1808.99343	0.60947
1807.06487	0.60877
1805.13631	0.60769
1803.20774	0.60676
1801.27918	0.60705
1799.35061	0.60791
1797.42205	0.60744
1795.49348	0.60611
1793.56492	0.60604
1791.63635	0.60824
1789.70779	0.60887
1787.77923	0.60741
1785.85066	0.60642
1783.92210	0.60647
1781.99353	0.60693
1780.06497	0.60773
1778.13640	0.60792
1776.20784	0.60685
1774.27927	0.60635
1772.35071	0.60933
1770.42215	0.61321
1768.49358	0.61455
1766.56502	0.61459
1764.63645	0.61428
1762.70789	0.61546
1760.77932	0.61811
1758.85076	0.61986
1756.92220	0.62242
1754.99363	0.62529
1753.06507	0.62756
1751.13650	0.63336
1749.20794	0.64399
1747.27937	0.65275
1745.35081	0.65846
1743.42224	0.66374
1741.49368	0.66985
1739.56512	0.67629
1737.63655	0.67944
1735.70799	0.68091
1733.77942	0.68771
1731.85086	0.69430
1729.92229	0.69680
1727.99373	0.69898
1726.06516	0.70139
1724.13660	0.70552
1722.20804	0.70972
1720.27947	0.71230
1718.35091	0.71922
1716.42234	0.73649
1714.49378	0.74917
1712.56521	0.75593
1710.63665	0.76345
1708.70808	0.77328
1706.77952	0.78977
1704.85096	0.81314
1702.92239	0.83380
1700.99383	0.86493
1699.06526	0.91905
1697.13670	0.97278
1695.20813	1.02724
1693.27957	1.06698
1691.35100	1.09796
1689.42244	1.13721
1687.49388	1.17469
1685.56531	1.21539
1683.63675	1.28715
1681.70818	1.33929
1679.77962	1.36681
1677.85105	1.39382
1675.92249	1.42895
1673.99392	1.46929
1672.06536	1.50118
1670.13680	1.53826
1668.20823	1.58064
1666.27967	1.60181
1664.35110	1.61710
1662.42254	1.64022
1660.49397	1.66126
1658.56541	1.67524
1656.63684	1.68586
1654.70828	1.70106
1652.77972	1.72165
1650.85115	1.72047
1648.92259	1.71194
1646.99402	1.70431
1645.06546	1.70067
1643.13689	1.69728
1641.20833	1.69384
1639.27976	1.69101
1637.35120	1.69183
1635.42264	1.69160
1633.49407	1.68199
1631.56551	1.67275
1629.63694	1.66335
1627.70838	1.64979
1625.77981	1.63184
1623.85125	1.61134
1621.92269	1.58832
1619.99412	1.56606
1618.06556	1.53864
1616.13699	1.49833
1614.20843	1.46433
1612.27986	1.43898
1610.35130	1.41439
1608.42273	1.38890
1606.49417	1.36516
1604.56561	1.34576
1602.63704	1.33068
1600.70848	1.31953
1598.77991	1.31068
1596.85135	1.30365
1594.92278	1.29907
1592.99422	1.29668
1591.06565	1.29627
1589.13709	1.29791
1587.20853	1.30170
1585.27996	1.30821
1583.35140	1.31742
1581.42283	1.32700
1579.49427	1.33518
1577.56570	1.34744
1575.63714	1.37069
1573.70857	1.38783
1571.78001	1.39913
1569.85145	1.41972
1567.92288	1.44286
1565.99432	1.45784
1564.06575	1.47063
1562.13719	1.47852
1560.20862	1.48607
1558.28006	1.51772
1556.35149	1.54435
1554.42293	1.55482
1552.49437	1.55875
1550.56580	1.56157
1548.63724	1.56507
1546.70867	1.56634
1544.78011	1.56531
1542.85154	1.56327
1540.92298	1.55818
1538.99441	1.54700
1537.06585	1.53692
1535.13729	1.52547
1533.20872	1.51362
1531.28016	1.50498
1529.35159	1.49609
1527.42303	1.48447
1525.49446	1.47308
1523.56590	1.46488
1521.63733	1.45682
1519.70877	1.45036
1517.78021	1.44472
1515.85164	1.43444
1513.92308	1.41797
1511.99451	1.39773
1510.06595	1.37629
1508.13738	1.34605
1506.20882	1.30356
1504.28025	1.27984
1502.35169	1.26104
1500.42313	1.23940
1498.49456	1.21438
1496.56600	1.18699
1494.63743	1.16482
1492.70887	1.14831
1490.78030	1.13093
1488.85174	1.11082
1486.92317	1.09534
1484.99461	1.08485
1483.06605	1.07746
1481.13748	1.07333
1479.20892	1.07262
1477.28035	1.07549
1475.35179	1.08377
1473.42322	1.10221
1471.49466	1.12329
1469.56610	1.13254
1467.63753	1.13722
1465.70897	1.14528
1463.78040	1.15515
1461.85184	1.15908
1459.92327	1.15953
1457.99471	1.16590
1456.06614	1.17759
1454.13758	1.17906
1452.20902	1.17690
1450.28045	1.17510
1448.35189	1.17319
1446.42332	1.16961
1444.49476	1.16444
1442.56619	1.15828
1440.63763	1.15127
1438.70906	1.14375
1436.78050	1.13510
1434.85194	1.12484
1432.92337	1.11448
1430.99481	1.10474
1429.06624	1.09683
1427.13768	1.09170
1425.20911	1.08954
1423.28055	1.08982
1421.35198	1.09099
1419.42342	1.09533
1417.49486	1.10276
1415.56629	1.10650
1413.63773	1.10754
1411.70916	1.10828
1409.78060	1.10937
1407.85203	1.11076
1405.92347	1.11307
1403.99490	1.11535
1402.06634	1.11560
1400.13778	1.11549
1398.20921	1.11632
1396.28065	1.11700
1394.35208	1.11738
1392.42352	1.11708
1390.49495	1.11668
1388.56639	1.11966
1386.63782	1.12800
1384.70926	1.13661
1382.78070	1.14325
1380.85213	1.14846
1378.92357	1.14997
1376.99500	1.14600
1375.06644	1.13675
1373.13787	1.12406
1371.20931	1.11048
1369.28074	1.09488
1367.35218	1.07762
1365.42362	1.06192
1363.49505	1.04797
1361.56649	1.03611
1359.63792	1.02775
1357.70936	1.02223
1355.78079	1.01836
1353.85223	1.01527
1351.92366	1.01318
1349.99510	1.01231
1348.06654	1.01171
1346.13797	1.01108
1344.20941	1.01103
1342.28084	1.01174
1340.35228	1.01390
1338.42371	1.01727
1336.49515	1.02042
1334.56659	1.02365
1332.63802	1.02754
1330.70946	1.03249
1328.78089	1.03795
1326.85233	1.04185
1324.92376	1.04353
1322.99520	1.04447
1321.06663	1.04587
1319.13807	1.04851
1317.20951	1.05196
1315.28094	1.05467
1313.35238	1.05668
1311.42381	1.05829
1309.49525	1.05942
1307.56668	1.06070
1305.63812	1.06199
1303.70955	1.06262
1301.78099	1.06278
1299.85243	1.06220
1297.92386	1.06009
1295.99530	1.05705
1294.06673	1.05452
1292.13817	1.05280
1290.20960	1.05167
1288.28104	1.05108
1286.35247	1.05039
1284.42391	1.04903
1282.49535	1.04755
1280.56678	1.04690
1278.63822	1.04734
1276.70965	1.04873
1274.78109	1.05125
1272.85252	1.05518
1270.92396	1.06048
1268.99539	1.06692
1267.06683	1.07386
1265.13827	1.08033
1263.20970	1.08580
1261.28114	1.09041
1259.35257	1.09417
1257.42401	1.09684
1255.49544	1.09885
1253.56688	1.10098
1251.63831	1.10309
1249.70975	1.10413
1247.78119	1.10358
1245.85262	1.10222
1243.92406	1.10037
1241.99549	1.09741
1240.06693	1.09358
1238.13836	1.08959
1236.20980	1.08521
1234.28123	1.07995
1232.35267	1.07397
1230.42411	1.06764
1228.49554	1.06099
1226.56698	1.05423
1224.63841	1.04787
1222.70985	1.04188
1220.78128	1.03582
1218.85272	1.02974
1216.92415	1.02442
1214.99559	1.02072
1213.06703	1.01831
1211.13846	1.01669
1209.20990	1.01564
1207.28133	1.01415
1205.35277	1.01087
1203.42420	1.00481
1201.49564	0.99630
1199.56708	0.98683
1197.63851	0.97701
1195.70995	0.96704
1193.78138	0.95804
1191.85282	0.95089
1189.92425	0.94538
1187.99569	0.94088
1186.06712	0.93716
1184.13856	0.93494
1182.21000	0.93499
1180.28143	0.93731
1178.35287	0.94189
1176.42430	0.94801
1174.49574	0.95403
1172.56717	0.95961
1170.63861	0.96609
1168.71004	0.97426
1166.78148	0.98428
1164.85292	0.99661
1162.92435	1.01082
1160.99579	1.02437
1159.06722	1.03360
1157.13866	1.03598
1155.21009	1.03067
1153.28153	1.01879
1151.35296	1.00358
1149.42440	0.98806
1147.49584	0.97347
1145.56727	0.96097
1143.63871	0.95213
1141.71014	0.94757
1139.78158	0.94672
1137.85301	0.94913
1135.92445	0.95495
1133.99588	0.96359
1132.06732	0.97402
1130.13876	0.98645
1128.21019	1.00113
1126.28163	1.01574
1124.35306	1.02769
1122.42450	1.03786
1120.49593	1.04811
1118.56737	1.05673
1116.63880	1.06103
1114.71024	1.06133
1112.78168	1.05850
1110.85311	1.05297
1108.92455	1.04703
1106.99598	1.04231
1105.06742	1.03805
1103.13885	1.03408
1101.21029	1.03127
1099.28172	1.03044
1097.35316	1.03263
1095.42460	1.03834
1093.49603	1.04775
1091.56747	1.06066
1089.63890	1.07554
1087.71034	1.09227
1085.78177	1.11230
1083.85321	1.13353
1081.92464	1.15179
1079.99608	1.16498
1078.06752	1.17138
1076.13895	1.16974
1074.21039	1.16152
1072.28182	1.14949
1070.35326	1.13569
1068.42469	1.12185
1066.49613	1.10893
1064.56756	1.09679
1062.63900	1.08567
1060.71044	1.07563
1058.78187	1.06600
1056.85331	1.05708
1054.92474	1.04976
1052.99618	1.04411
1051.06761	1.03988
1049.13905	1.03767
1047.21049	1.03853
1045.28192	1.04259
1043.35336	1.04836
1041.42479	1.05415
1039.49623	1.05982
1037.56766	1.06503
1035.63910	1.06763
1033.71053	1.06645
1031.78197	1.06268
1029.85341	1.05722
1027.92484	1.04950
1025.99628	1.03887
1024.06771	1.02631
1022.13915	1.01422
1020.21058	1.00397
1018.28202	0.99513
1016.35345	0.98622
1014.42489	0.97582
1012.49633	0.96318
1010.56776	0.94813
1008.63920	0.93149
1006.71063	0.91479
1004.78207	0.89877
1002.85350	0.88415
1000.92494	0.87205
998.99637	0.86278
997.06781	0.85581
995.13925	0.85004
993.21068	0.84385
991.28212	0.83656
989.35355	0.82869
987.42499	0.82027
985.49642	0.81159
983.56786	0.80400
981.63929	0.79825
979.71073	0.79405
977.78217	0.79078
975.85360	0.78750
973.92504	0.78343
971.99647	0.77832
970.06791	0.77204
968.13934	0.76509
966.21078	0.75883
964.28221	0.75454
962.35365	0.75321
960.42509	0.75612
958.49652	0.76368
956.56796	0.77273
954.63939	0.77849
952.71083	0.77903
950.78226	0.77510
948.85370	0.76870
946.92513	0.76231
944.99657	0.75724
943.06801	0.75335
941.13944	0.74992
939.21088	0.74636
937.28231	0.74257
935.35375	0.73886
933.42518	0.73554
931.49662	0.73280
929.56805	0.73089
927.63949	0.72992
925.71093	0.72976
923.78236	0.73009
921.85380	0.73055
919.92523	0.73102
917.99667	0.73140
916.06810	0.73172
914.13954	0.73222
912.21098	0.73286
910.28241	0.73378
908.35385	0.73533
906.42528	0.73750
904.49672	0.73981
902.56815	0.74166
900.63959	0.74233
898.71102	0.74142
896.78246	0.73917
894.85390	0.73607
892.92533	0.73260
890.99677	0.72908
889.06820	0.72560
887.13964	0.72290
885.21107	0.72197
883.28251	0.72265
881.35394	0.72420
879.42538	0.72628
877.49682	0.72885
875.56825	0.73192
873.63969	0.73505
871.71112	0.73773
869.78256	0.74006
867.85399	0.74184
865.92543	0.74263
863.99686	0.74278
862.06830	0.74279
860.13974	0.74282
858.21117	0.74264
856.28261	0.74219
854.35404	0.74199
852.42548	0.74245
850.49691	0.74367
848.56835	0.74566
846.63978	0.74821
844.71122	0.75161
842.78266	0.75682
840.85409	0.76369
838.92553	0.77089
836.99696	0.77804
835.06840	0.78546
833.13983	0.79286
831.21127	0.79988
829.28270	0.80611
827.35414	0.81042
825.42558	0.81249
823.49701	0.81315
821.56845	0.81247
819.63988	0.81027
817.71132	0.80745
815.78275	0.80464
813.85419	0.80150
811.92562	0.79810
809.99706	0.79529
808.06850	0.79372
806.13993	0.79337
804.21137	0.79420
802.28280	0.79669
800.35424	0.80085
798.42567	0.80586
796.49711	0.81160
794.56854	0.81846
792.63998	0.82614
790.71142	0.83347
788.78285	0.83983
786.85429	0.84519
784.92572	0.84919
782.99716	0.85156
781.06859	0.85205
779.14003	0.85062
777.21147	0.84800
775.28290	0.84473
773.35434	0.84098
771.42577	0.83759
769.49721	0.83515
767.56864	0.83318
765.64008	0.83165
763.71151	0.83129
761.78295	0.83234
759.85439	0.83461
757.92582	0.83845
755.99726	0.84413
754.06869	0.85079
752.14013	0.85747
750.21156	0.86372
748.28300	0.86872
746.35443	0.87174
744.42587	0.87347
742.49731	0.87518
740.56874	0.87638
738.64018	0.87585
736.71161	0.87405
734.78305	0.87279
732.85448	0.87301
730.92592	0.87384
728.99735	0.87438
727.06879	0.87497
725.14023	0.87598
723.21166	0.87788
721.28310	0.88135
719.35453	0.88469
717.42597	0.88578
715.49740	0.88667
713.56884	0.88948
711.64027	0.89352
709.71171	0.89817
707.78315	0.90285
705.85458	0.90692
703.92602	0.91032
701.99745	0.91253
700.06889	0.91297
698.14032	0.91147
696.21176	0.90882
694.28319	0.90645
692.35463	0.90477
690.42607	0.90291
688.49750	0.90022
686.56894	0.89848
684.64037	0.89946
682.71181	0.90179
680.78324	0.90431
678.85468	0.90720
676.92611	0.90914
674.99755	0.90993
673.06899	0.91135
671.14042	0.91350
669.21186	0.91785
667.28329	0.92553
665.35473	0.92971
663.42616	0.93116
661.49760	0.93149
659.56903	0.93082
657.64047	0.93038
655.71191	0.93075
653.78334	0.93036
651.85478	0.92778
649.92621	0.92410
647.99765	0.92073
646.06908	0.91788
644.14052	0.91571
642.21195	0.91447
640.28339	0.91317
638.35483	0.91047
636.42626	0.90718
634.49770	0.90457
632.56913	0.90219
630.64057	0.89990
628.71200	0.89896
626.78344	0.90115
624.85488	0.90685
622.92631	0.91334
620.99775	0.91829
619.06918	0.92315
617.14062	0.92890
615.21205	0.93440
613.28349	0.94002
611.35492	0.94511
609.42636	0.94737
607.49780	0.94635
605.56923	0.94344
603.64067	0.94022
601.71210	0.93616
599.78354	0.92952
