3997.91406	1.15967
3995.98550	1.15886
3994.05693	1.15812
3992.12837	1.15695
3990.19980	1.15489
3988.27124	1.15296
3986.34268	1.15129
3984.41411	1.14926
3982.48555	1.14659
3980.55698	1.14482
3978.62842	1.14662
3976.69985	1.14897
3974.77129	1.14730
3972.84272	1.14414
3970.91416	1.14176
3968.98560	1.13922
3967.05703	1.13753
3965.12847	1.13593
3963.19990	1.13319
3961.27134	1.13255
3959.34277	1.13392
3957.41421	1.13309
3955.48564	1.13102
3953.55708	1.13010
3951.62852	1.12884
3949.69995	1.12636
3947.77139	1.12359
3945.84282	1.11995
3943.91426	1.11539
3941.98569	1.11174
3940.05713	1.11105
3938.12856	1.11252
3936.20000	1.11203
3934.27144	1.10978
3932.34287	1.11073
3930.41431	1.11334
3928.48574	1.11332
3926.55718	1.11207
3924.62861	1.11046
3922.70005	1.10716
3920.77148	1.10370
3918.84292	1.10206
3916.91436	1.10137
3914.98579	1.10011
3913.05723	1.09772
3911.12866	1.09446
3909.20010	1.09067
3907.27153	1.08641
3905.34297	1.08360
3903.41440	1.08455
3901.48584	1.08521
3899.55728	1.08447
3897.62871	1.08453
3895.70015	1.08212
3893.77158	1.07807
3891.84302	1.07868
3889.91445	1.07908
3887.98589	1.07378
3886.05733	1.07004
3884.12876	1.06907
3882.20020	1.06725
3880.27163	1.06811
3878.34307	1.06679
3876.41450	1.06209
3874.48594	1.05982
3872.55737	1.05788
3870.62881	1.05423
3868.70025	1.05233
3866.77168	1.05031
3864.84312	1.05047
3862.91455	1.05248
3860.98599	1.04900
3859.05742	1.04166
3857.12886	1.03328
3855.20029	1.02668
3853.27173	1.03616
3851.34317	1.04939
3849.41460	1.04890
3847.48604	1.04265
3845.55747	1.03595
3843.62891	1.03108
3841.70034	1.02688
3839.77178	1.02725
3837.84321	1.03614
3835.91465	1.03898
3833.98609	1.03435
3832.05752	1.03110
3830.12896	1.03022
3828.20039	1.03077
3826.27183	1.03026
3824.34326	1.02399
3822.41470	1.01807
3820.48613	1.02055
3818.55757	1.02045
3816.62901	1.02110
3814.70044	1.02554
3812.77188	1.02329
3810.84331	1.01668
3808.91475	1.01358
3806.98618	1.01626
3805.05762	1.01363
3803.12905	1.00759
3801.20049	1.01123
3799.27193	1.01444
3797.34336	1.01233
3795.41480	1.01202
3793.48623	1.01138
3791.55767	1.00885
3789.62910	1.00575
3787.70054	1.00324
3785.77197	1.00249
3783.84341	1.00121
3781.91485	0.99734
3779.98628	0.99436
3778.05772	0.99377
3776.12915	0.99336
3774.20059	0.99332
3772.27202	0.99345
3770.34346	0.99267
3768.41489	0.99051
3766.48633	0.98897
3764.55777	0.98916
3762.62920	0.98877
3760.70064	0.98906
3758.77207	0.99172
3756.84351	0.99038
3754.91494	0.98283
3752.98638	0.97407
3751.05781	0.97431
3749.12925	0.97885
3747.20069	0.97549
3745.27212	0.97435
3743.34356	0.97857
3741.41499	0.97710
3739.48643	0.97014
3737.55786	0.96303
3735.62930	0.96328
3733.70074	0.97072
3731.77217	0.97483
3729.84361	0.97452
3727.91504	0.97375
3725.98648	0.97439
3724.05791	0.97361
3722.12935	0.97298
3720.20078	0.97624
3718.27222	0.97847
3716.34366	0.97455
3714.41509	0.96803
3712.48653	0.96933
3710.55796	0.98031
3708.62940	0.98206
3706.70083	0.97552
3704.77227	0.96903
3702.84370	0.96845
3700.91514	0.97257
3698.98658	0.97349
3697.05801	0.97216
3695.12945	0.97082
3693.20088	0.96899
3691.27232	0.97081
3689.34375	0.98166
3687.41519	0.98860
3685.48662	0.98695
3683.55806	0.98323
3681.62950	0.98060
3679.70093	0.97874
3677.77237	0.97773
3675.84380	0.98536
3673.91524	0.99257
3671.98667	0.99166
3670.05811	0.99928
3668.12954	1.00979
3666.20098	1.01012
3664.27242	1.00770
3662.34385	1.00764
3660.41529	1.00940
3658.48672	1.01300
3656.55816	1.02213
3654.62959	1.03002
3652.70103	1.03088
3650.77246	1.03553
3648.84390	1.05396
3646.91534	1.06455
3644.98677	1.06699
3643.05821	1.07098
3641.12964	1.07712
3639.20108	1.08250
3637.27251	1.08655
3635.34395	1.09069
3633.41538	1.09366
3631.48682	1.09585
3629.55826	1.10903
3627.62969	1.12857
3625.70113	1.13211
3623.77256	1.12996
3621.84400	1.13069
3619.91543	1.14065
3617.98687	1.15741
3616.05830	1.16930
3614.12974	1.17819
3612.20118	1.18350
3610.27261	1.18709
3608.34405	1.19855
3606.41548	1.21274
3604.48692	1.22029
3602.55835	1.22631
3600.62979	1.23598
3598.70123	1.24688
3596.77266	1.25658
3594.84410	1.26907
3592.91553	1.27998
3590.98697	1.28154
3589.05840	1.28088
3587.12984	1.28859
3585.20127	1.30112
3583.27271	1.31201
3581.34415	1.32051
3579.41558	1.32801
3577.48702	1.33849
3575.55845	1.35283
3573.62989	1.36499
3571.70132	1.36880
3569.77276	1.36810
3567.84419	1.37794
3565.91563	1.39975
3563.98707	1.40931
3562.05850	1.40878
3560.12994	1.41003
3558.20137	1.41903
3556.27281	1.43104
3554.34424	1.44007
3552.41568	1.45058
3550.48711	1.46436
3548.55855	1.47442
3546.62999	1.47764
3544.70142	1.47995
3542.77286	1.48691
3540.84429	1.49607
3538.91573	1.50325
3536.98716	1.50739
3535.05860	1.51310
3533.13003	1.52019
3531.20147	1.52556
3529.27291	1.53407
3527.34434	1.54818
3525.41578	1.56055
3523.48721	1.56781
3521.55865	1.57408
3519.63008	1.57937
3517.70152	1.57966
3515.77295	1.57664
3513.84439	1.57514
3511.91583	1.57718
3509.98726	1.58350
3508.05870	1.58933
3506.13013	1.58885
3504.20157	1.58624
3502.27300	1.59091
3500.34444	1.60421
3498.41587	1.61926
3496.48731	1.63356
3494.55875	1.64952
3492.63018	1.66122
3490.70162	1.66140
3488.77305	1.65634
3486.84449	1.65232
3484.91592	1.64904
3482.98736	1.65072
3481.05879	1.65956
3479.13023	1.66727
3477.20167	1.66588
3475.27310	1.65830
3473.34454	1.65705
3471.41597	1.66600
3469.48741	1.67336
3467.55884	1.67157
3465.63028	1.66998
3463.70171	1.67520
3461.77315	1.67889
3459.84459	1.67824
3457.91602	1.68132
3455.98746	1.68715
3454.05889	1.68746
3452.13033	1.68343
3450.20176	1.68327
3448.27320	1.68792
3446.34464	1.68977
3444.41607	1.68443
3442.48751	1.67858
3440.55894	1.67837
3438.63038	1.68071
3436.70181	1.68220
3434.77325	1.68399
3432.84468	1.68585
3430.91612	1.68982
3428.98756	1.69861
3427.05899	1.70286
3425.13043	1.69412
3423.20186	1.68198
3421.27330	1.67938
3419.34473	1.68500
3417.41617	1.68870
3415.48760	1.69175
3413.55904	1.69821
3411.63048	1.70221
3409.70191	1.70131
3407.77335	1.69674
3405.84478	1.69019
3403.91622	1.69005
3401.98765	1.69581
3400.05909	1.69372
3398.13052	1.68474
3396.20196	1.68257
3394.27340	1.68679
3392.34483	1.68750
3390.41627	1.68306
3388.48770	1.67593
3386.55914	1.66726
3384.63057	1.66360
3382.70201	1.66855
3380.77344	1.67660
3378.84488	1.68497
3376.91632	1.69022
3374.98775	1.68763
3373.05919	1.68403
3371.13062	1.68566
3369.20206	1.68525
3367.27349	1.67762
3365.34493	1.67369
3363.41636	1.68175
3361.48780	1.68939
3359.55924	1.68574
3357.63067	1.67964
3355.70211	1.67872
3353.77354	1.67975
3351.84498	1.67955
3349.91641	1.67900
3347.98785	1.67745
3346.05928	1.67383
3344.13072	1.67295
3342.20216	1.67563
3340.27359	1.67417
3338.34503	1.67037
3336.41646	1.67523
3334.48790	1.69072
3332.55933	1.70679
3330.63077	1.71429
3328.70220	1.71402
3326.77364	1.70958
3324.84508	1.70541
3322.91651	1.70825
3320.98795	1.71612
3319.05938	1.72189
3317.13082	1.72217
3315.20225	1.71496
3313.27369	1.70469
3311.34513	1.70046
3309.41656	1.70370
3307.48800	1.70696
3305.55943	1.70663
3303.63087	1.70889
3301.70230	1.71615
3299.77374	1.72020
3297.84517	1.71397
3295.91661	1.70378
3293.98805	1.69868
3292.05948	1.69581
3290.13092	1.69261
3288.20235	1.69377
3286.27379	1.69812
3284.34522	1.70044
3282.41666	1.69992
3280.48809	1.70015
3278.55953	1.70331
3276.63097	1.70388
3274.70240	1.69662
3272.77384	1.68678
3270.84527	1.68166
3268.91671	1.67906
3266.98814	1.67162
3265.05958	1.66176
3263.13101	1.65835
3261.20245	1.65961
3259.27389	1.65635
3257.34532	1.64981
3255.41676	1.64725
3253.48819	1.64639
3251.55963	1.64369
3249.63106	1.64180
3247.70250	1.63948
3245.77393	1.63368
3243.84537	1.62739
3241.91681	1.62420
3239.98824	1.62258
3238.05968	1.61888
3236.13111	1.61348
3234.20255	1.60788
3232.27398	1.60036
3230.34542	1.59432
3228.41685	1.59422
3226.48829	1.59370
3224.55973	1.58983
3222.63116	1.59005
3220.70260	1.59241
3218.77403	1.58848
3216.84547	1.58289
3214.91690	1.58307
3212.98834	1.58502
3211.05977	1.58333
3209.13121	1.57868
3207.20265	1.57103
3205.27408	1.56149
3203.34552	1.55531
3201.41695	1.55487
3199.48839	1.55883
3197.55982	1.56123
3195.63126	1.55329
3193.70269	1.53892
3191.77413	1.53087
3189.84557	1.53385
3187.91700	1.54079
3185.98844	1.54019
3184.05987	1.53131
3182.13131	1.52581
3180.20274	1.53031
3178.27418	1.53678
3176.34562	1.53367
3174.41705	1.52412
3172.48849	1.51794
3170.55992	1.51499
3168.63136	1.51091
3166.70279	1.50653
3164.77423	1.50117
3162.84566	1.49286
3160.91710	1.48621
3158.98854	1.48472
3157.05997	1.48530
3155.13141	1.48474
3153.20284	1.48229
3151.27428	1.47855
3149.34571	1.47523
3147.41715	1.47352
3145.48858	1.47108
3143.56002	1.46637
3141.63146	1.46175
3139.70289	1.45685
3137.77433	1.45142
3135.84576	1.44952
3133.91720	1.45152
3131.98863	1.45194
3130.06007	1.44824
3128.13150	1.44407
3126.20294	1.44242
3124.27438	1.44249
3122.34581	1.44296
3120.41725	1.44344
3118.48868	1.44291
3116.56012	1.44025
3114.63155	1.43721
3112.70299	1.43527
3110.77442	1.43417
3108.84586	1.43417
3106.91730	1.43231
3104.98873	1.42635
3103.06017	1.42158
3101.13160	1.42164
3099.20304	1.42220
3097.27447	1.42017
3095.34591	1.41812
3093.41734	1.41727
3091.48878	1.41672
3089.56022	1.41708
3087.63165	1.41810
3085.70309	1.41684
3083.77452	1.41274
3081.84596	1.41011
3079.91739	1.41072
3077.98883	1.41133
3076.06026	1.40983
3074.13170	1.40749
3072.20314	1.40573
3070.27457	1.40303
3068.34601	1.39827
3066.41744	1.39321
3064.48888	1.38800
3062.56031	1.38217
3060.63175	1.37749
3058.70318	1.37512
3056.77462	1.37437
3054.84606	1.37344
3052.91749	1.36969
3050.98893	1.36253
3049.06036	1.35542
3047.13180	1.35074
3045.20323	1.34685
3043.27467	1.34296
3041.34610	1.33894
3039.41754	1.33386
3037.48898	1.32830
3035.56041	1.32330
3033.63185	1.31923
3031.70328	1.31660
3029.77472	1.31435
3027.84615	1.31051
3025.91759	1.30557
3023.98903	1.30033
3022.06046	1.29455
3020.13190	1.29004
3018.20333	1.28744
3016.27477	1.28526
3014.34620	1.28334
3012.41764	1.28092
3010.48907	1.27704
3008.56051	1.27210
3006.63195	1.26736
3004.70338	1.26426
3002.77482	1.26175
3000.84625	1.25837
2998.91769	1.25568
2996.98912	1.25610
2995.06056	1.25874
2993.13199	1.25973
2991.20343	1.25942
2989.27487	1.26227
2987.34630	1.26838
2985.41774	1.27435
2983.48917	1.27934
2981.56061	1.28375
2979.63204	1.28795
2977.70348	1.29325
2975.77491	1.29979
2973.84635	1.30710
2971.91779	1.31507
2969.98922	1.32271
2968.06066	1.33057
2966.13209	1.33990
2964.20353	1.34737
2962.27496	1.35052
2960.34640	1.35239
2958.41783	1.35217
2956.48927	1.34745
2954.56071	1.34169
2952.63214	1.33678
2950.70358	1.33146
2948.77501	1.32712
2946.84645	1.32720
2944.91788	1.33193
2942.98932	1.33694
2941.06075	1.34133
2939.13219	1.35011
2937.20363	1.36381
2935.27506	1.37590
2933.34650	1.38305
2931.41793	1.38847
2929.48937	1.39636
2927.56080	1.40645
2925.63224	1.41376
2923.70367	1.41692
2921.77511	1.41902
2919.84655	1.41901
2917.91798	1.41221
2915.98942	1.39669
2914.06085	1.37487
2912.13229	1.34933
2910.20372	1.32273
2908.27516	1.30104
2906.34659	1.28834
2904.41803	1.28140
2902.48947	1.27541
2900.56090	1.26991
2898.63234	1.26525
2896.70377	1.25968
2894.77521	1.25245
2892.84664	1.24552
2890.91808	1.24037
2888.98952	1.23576
2887.06095	1.23030
2885.13239	1.22458
2883.20382	1.22130
2881.27526	1.22214
2879.34669	1.22411
2877.41813	1.22386
2875.48956	1.22248
2873.56100	1.22114
2871.63244	1.21777
2869.70387	1.21165
2867.77531	1.20543
2865.84674	1.20053
2863.91818	1.19698
2861.98961	1.19598
2860.06105	1.19873
2858.13248	1.20493
2856.20392	1.21342
2854.27536	1.22363
2852.34679	1.23368
2850.41823	1.23630
2848.48966	1.22196
2846.56110	1.19232
2844.63253	1.16184
2842.70397	1.13959
2840.77540	1.12356
2838.84684	1.11063
2836.91828	1.10042
2834.98971	1.09209
2833.06115	1.08431
2831.13258	1.07776
2829.20402	1.07377
2827.27545	1.07079
2825.34689	1.06627
2823.41832	1.06042
2821.48976	1.05519
2819.56120	1.05068
2817.63263	1.04601
2815.70407	1.04218
2813.77550	1.03973
2811.84694	1.03701
2809.91837	1.03345
2807.98981	1.03039
2806.06124	1.02822
2804.13268	1.02596
2802.20412	1.02293
2800.27555	1.01929
2798.34699	1.01577
2796.41842	1.01276
2794.48986	1.01008
2792.56129	1.00779
2790.63273	1.00573
2788.70416	1.00292
2786.77560	0.99943
2784.84704	0.99604
2782.91847	0.99265
2780.98991	0.98993
2779.06134	0.98856
2777.13278	0.98744
2775.20421	0.98552
2773.27565	0.98292
2771.34708	0.97999
2769.41852	0.97736
2767.48996	0.97520
2765.56139	0.97241
2763.63283	0.96872
2761.70426	0.96561
2759.77570	0.96366
2757.84713	0.96145
2755.91857	0.95801
2753.99001	0.95467
2752.06144	0.95275
2750.13288	0.95130
2748.20431	0.94958
2746.27575	0.94785
2744.34718	0.94578
2742.41862	0.94335
2740.49005	0.94129
2738.56149	0.93924
2736.63293	0.93622
2734.70436	0.93277
2732.77580	0.93013
2730.84723	0.92808
2728.91867	0.92581
2726.99010	0.92302
2725.06154	0.92000
2723.13297	0.91751
2721.20441	0.91548
2719.27585	0.91287
2717.34728	0.90985
2715.41872	0.90762
2713.49015	0.90610
2711.56159	0.90450
2709.63302	0.90262
2707.70446	0.90065
2705.77589	0.89887
2703.84733	0.89756
2701.91877	0.89641
2699.99020	0.89476
2698.06164	0.89282
2696.13307	0.89118
2694.20451	0.88965
2692.27594	0.88809
2690.34738	0.88648
2688.41881	0.88469
2686.49025	0.88296
2684.56169	0.88151
2682.63312	0.88004
2680.70456	0.87840
2678.77599	0.87661
2676.84743	0.87488
2674.91886	0.87329
2672.99030	0.87156
2671.06173	0.86971
2669.13317	0.86808
2667.20461	0.86660
2665.27604	0.86544
2663.34748	0.86496
2661.41891	0.86445
2659.49035	0.86311
2657.56178	0.86169
2655.63322	0.86076
2653.70465	0.85957
2651.77609	0.85774
2649.84753	0.85601
2647.91896	0.85490
2645.99040	0.85380
2644.06183	0.85223
2642.13327	0.85080
2640.20470	0.84951
2638.27614	0.84794
2636.34757	0.84644
2634.41901	0.84532
2632.49045	0.84423
2630.56188	0.84280
2628.63332	0.84096
2626.70475	0.83908
2624.77619	0.83760
2622.84762	0.83640
2620.91906	0.83519
2618.99049	0.83377
2617.06193	0.83190
2615.13337	0.82961
2613.20480	0.82749
2611.27624	0.82594
2609.34767	0.82472
2607.41911	0.82339
2605.49054	0.82155
2603.56198	0.81928
2601.63342	0.81738
2599.70485	0.81621
2597.77629	0.81514
2595.84772	0.81376
2593.91916	0.81223
2591.99059	0.81064
2590.06203	0.80895
2588.13346	0.80720
2586.20490	0.80562
2584.27634	0.80443
2582.34777	0.80373
2580.41921	0.80353
2578.49064	0.80309
2576.56208	0.80167
2574.63351	0.79971
2572.70495	0.79810
2570.77638	0.79712
2568.84782	0.79652
2566.91926	0.79583
2564.99069	0.79473
2563.06213	0.79326
2561.13356	0.79155
2559.20500	0.78969
2557.27643	0.78789
2555.34787	0.78627
2553.41930	0.78473
2551.49074	0.78311
2549.56218	0.78170
2547.63361	0.78051
2545.70505	0.77905
2543.77648	0.77759
2541.84792	0.77677
2539.91935	0.77610
2537.99079	0.77469
2536.06222	0.77285
2534.13366	0.77154
2532.20510	0.77072
2530.27653	0.76978
2528.34797	0.76876
2526.41940	0.76782
2524.49084	0.76690
2522.56227	0.76595
2520.63371	0.76500
2518.70514	0.76375
2516.77658	0.76219
2514.84802	0.76078
2512.91945	0.75942
2510.99089	0.75799
2509.06232	0.75685
2507.13376	0.75591
2505.20519	0.75484
2503.27663	0.75384
2501.34806	0.75297
2499.41950	0.75181
2497.49094	0.75020
2495.56237	0.74866
2493.63381	0.74749
2491.70524	0.74630
2489.77668	0.74459
2487.84811	0.74271
2485.91955	0.74146
2483.99098	0.74074
2482.06242	0.73953
2480.13386	0.73780
2478.20529	0.73638
2476.27673	0.73514
2474.34816	0.73361
2472.41960	0.73206
2470.49103	0.73085
2468.56247	0.72974
2466.63391	0.72830
2464.70534	0.72660
2462.77678	0.72510
2460.84821	0.72382
2458.91965	0.72245
2456.99108	0.72096
2455.06252	0.71944
2453.13395	0.71801
2451.20539	0.71680
2449.27683	0.71583
2447.34826	0.71499
2445.41970	0.71401
2443.49113	0.71281
2441.56257	0.71174
2439.63400	0.71073
2437.70544	0.70936
2435.77687	0.70745
2433.84831	0.70526
2431.91975	0.70361
2429.99118	0.70264
2428.06262	0.70125
2426.13405	0.69926
2424.20549	0.69761
2422.27692	0.69647
2420.34836	0.69540
2418.41979	0.69426
2416.49123	0.69337
2414.56267	0.69285
2412.63410	0.69207
2410.70554	0.69083
2408.77697	0.68972
2406.84841	0.68882
2404.91984	0.68773
2402.99128	0.68660
2401.06271	0.68567
2399.13415	0.68496
2397.20559	0.68450
2395.27702	0.68398
2393.34846	0.68302
2391.41989	0.68175
2389.49133	0.68037
2387.56276	0.67885
2385.63420	0.67699
2383.70563	0.67461
2381.77707	0.67188
2379.84851	0.66965
2377.91994	0.66826
2375.99138	0.66638
2374.06281	0.66361
2372.13425	0.66135
2370.20568	0.65972
2368.27712	0.65766
2366.34855	0.65561
2364.41999	0.65414
2362.49143	0.65231
2360.56286	0.65067
2358.63430	0.65109
2356.70573	0.65245
2354.77717	0.65342
2352.84860	0.65497
2350.92004	0.65505
2348.99147	0.65240
2347.06291	0.64878
2345.13435	0.64658
2343.20578	0.64654
2341.27722	0.64661
2339.34865	0.64585
2337.42009	0.64566
2335.49152	0.64567
2333.56296	0.64456
2331.63440	0.64393
2329.70583	0.64548
2327.77727	0.64761
2325.84870	0.64773
2323.92014	0.64638
2321.99157	0.64604
2320.06301	0.64650
2318.13444	0.64611
2316.20588	0.64488
2314.27732	0.64350
2312.34875	0.64214
2310.42019	0.64095
2308.49162	0.64026
2306.56306	0.63973
2304.63449	0.63881
2302.70593	0.63762
2300.77736	0.63651
2298.84880	0.63557
2296.92024	0.63472
2294.99167	0.63411
2293.06311	0.63371
2291.13454	0.63320
2289.20598	0.63260
2287.27741	0.63235
2285.34885	0.63253
2283.42028	0.63262
2281.49172	0.63231
2279.56316	0.63173
2277.63459	0.63105
2275.70603	0.63040
2273.77746	0.62977
2271.84890	0.62906
2269.92033	0.62805
2267.99177	0.62648
2266.06320	0.62475
2264.13464	0.62346
2262.20608	0.62261
2260.27751	0.62173
2258.34895	0.62059
2256.42038	0.61937
2254.49182	0.61824
2252.56325	0.61718
2250.63469	0.61614
2248.70612	0.61515
2246.77756	0.61420
2244.84900	0.61329
2242.92043	0.61236
2240.99187	0.61119
2239.06330	0.60986
2237.13474	0.60894
2235.20617	0.60857
2233.27761	0.60829
2231.34904	0.60800
2229.42048	0.60802
2227.49192	0.60816
2225.56335	0.60803
2223.63479	0.60768
2221.70622	0.60751
2219.77766	0.60762
2217.84909	0.60776
2215.92053	0.60793
2213.99196	0.60825
2212.06340	0.60861
2210.13484	0.60893
2208.20627	0.60900
2206.27771	0.60851
2204.34914	0.60787
2202.42058	0.60756
2200.49201	0.60724
2198.56345	0.60655
2196.63488	0.60568
2194.70632	0.60472
2192.77776	0.60365
2190.84919	0.60273
2188.92063	0.60229
2186.99206	0.60232
2185.06350	0.60245
2183.13493	0.60233
2181.20637	0.60202
2179.27781	0.60168
2177.34924	0.60135
2175.42068	0.60115
2173.49211	0.60105
2171.56355	0.60074
2169.63498	0.60019
2167.70642	0.59982
2165.77785	0.59982
2163.84929	0.59978
2161.92073	0.59935
2159.99216	0.59870
2158.06360	0.59802
2156.13503	0.59720
2154.20647	0.59648
2152.27790	0.59613
2150.34934	0.59570
2148.42077	0.59481
2146.49221	0.59379
2144.56365	0.59299
2142.63508	0.59228
2140.70652	0.59133
2138.77795	0.59013
2136.84939	0.58895
2134.92082	0.58792
2132.99226	0.58699
2131.06369	0.58606
2129.13513	0.58507
2127.20657	0.58404
2125.27800	0.58301
2123.34944	0.58199
2121.42087	0.58114
2119.49231	0.58026
2117.56374	0.57913
2115.63518	0.57800
2113.70661	0.57732
2111.77805	0.57688
2109.84949	0.57616
2107.92092	0.57547
2105.99236	0.57521
2104.06379	0.57498
2102.13523	0.57452
2100.20666	0.57408
2098.27810	0.57371
2096.34953	0.57329
2094.42097	0.57290
2092.49241	0.57253
2090.56384	0.57217
2088.63528	0.57183
2086.70671	0.57154
2084.77815	0.57134
2082.84958	0.57112
2080.92102	0.57076
2078.99245	0.57048
2077.06389	0.57051
2075.13533	0.57060
2073.20676	0.57029
2071.27820	0.56976
2069.34963	0.56925
2067.42107	0.56858
2065.49250	0.56796
2063.56394	0.56768
2061.63537	0.56730
2059.70681	0.56652
2057.77825	0.56554
2055.84968	0.56456
2053.92112	0.56363
2051.99255	0.56266
2050.06399	0.56159
2048.13542	0.56045
2046.20686	0.55931
2044.27830	0.55823
2042.34973	0.55724
2040.42117	0.55628
2038.49260	0.55523
2036.56404	0.55402
2034.63547	0.55273
2032.70691	0.55143
2030.77834	0.55011
2028.84978	0.54879
2026.92122	0.54757
2024.99265	0.54633
2023.06409	0.54499
2021.13552	0.54358
2019.20696	0.54239
2017.27839	0.54158
2015.34983	0.54071
2013.42126	0.53942
2011.49270	0.53792
2009.56414	0.53651
2007.63557	0.53531
2005.70701	0.53430
2003.77844	0.53343
2001.84988	0.53262
1999.92131	0.53177
1997.99275	0.53072
1996.06418	0.52939
1994.13562	0.52814
1992.20706	0.52730
1990.27849	0.52632
1988.34993	0.52495
1986.42136	0.52364
1984.49280	0.52233
1982.56423	0.52110
1980.63567	0.52016
1978.70710	0.51937
1976.77854	0.51866
1974.84998	0.51805
1972.92141	0.51737
1970.99285	0.51653
1969.06428	0.51588
1967.13572	0.51586
1965.20715	0.51594
1963.27859	0.51565
1961.35002	0.51541
1959.42146	0.51534
1957.49290	0.51519
1955.56433	0.51506
1953.63577	0.51497
1951.70720	0.51462
1949.77864	0.51403
1947.85007	0.51325
1945.92151	0.51215
1943.99294	0.51130
1942.06438	0.51126
1940.13582	0.51105
1938.20725	0.51038
1936.27869	0.50978
1934.35012	0.50914
1932.42156	0.50838
1930.49299	0.50770
1928.56443	0.50717
1926.63586	0.50650
1924.70730	0.50578
1922.77874	0.50534
1920.85017	0.50468
1918.92161	0.50423
1916.99304	0.50444
1915.06448	0.50396
1913.13591	0.50258
1911.20735	0.50117
1909.27878	0.50013
1907.35022	0.49911
1905.42166	0.49781
1903.49309	0.49645
1901.56453	0.49516
1899.63596	0.49379
1897.70740	0.49238
1895.77883	0.49143
1893.85027	0.49055
1891.92171	0.48917
1889.99314	0.48824
1888.06458	0.48768
1886.13601	0.48645
1884.20745	0.48524
1882.27888	0.48433
1880.35032	0.48311
1878.42175	0.48173
1876.49319	0.48064
1874.56463	0.47948
1872.63606	0.47762
1870.70750	0.47579
1868.77893	0.47582
1866.85037	0.47663
1864.92180	0.47605
1862.99324	0.47514
1861.06467	0.47482
1859.13611	0.47498
1857.20755	0.47524
1855.27898	0.47551
1853.35042	0.47579
1851.42185	0.47591
1849.49329	0.47595
1847.56472	0.47600
1845.63616	0.47689
1843.70759	0.47919
1841.77903	0.48023
1839.85047	0.47985
1837.92190	0.48012
1835.99334	0.48106
1834.06477	0.48092
1832.13621	0.47997
1830.20764	0.48060
1828.27908	0.48205
1826.35051	0.48222
1824.42195	0.48248
1822.49339	0.48268
1820.56482	0.48226
1818.63626	0.48205
1816.70769	0.48210
1814.77913	0.48191
1812.85056	0.48165
1810.92200	0.48213
1808.99343	0.48312
1807.06487	0.48373
1805.13631	0.48379
1803.20774	0.48367
1801.27918	0.48447
1799.35061	0.48584
1797.42205	0.48603
1795.49348	0.48516
1793.56492	0.48537
1791.63635	0.48793
1789.70779	0.48880
1787.77923	0.48736
1785.85066	0.48626
1783.92210	0.48610
1781.99353	0.48620
1780.06497	0.48667
1778.13640	0.48676
1776.20784	0.48568
1774.27927	0.48488
1772.35071	0.48699
1770.42215	0.49001
1768.49358	0.49109
1766.56502	0.49105
1764.63645	0.49053
1762.70789	0.49159
1760.77932	0.49457
1758.85076	0.49673
1756.92220	0.49927
1754.99363	0.50202
1753.06507	0.50417
1751.13650	0.50917
1749.20794	0.51855
1747.27937	0.52704
1745.35081	0.53328
1743.42224	0.53905
1741.49368	0.54522
1739.56512	0.55164
1737.63655	0.55516
1735.70799	0.55703
1733.77942	0.56455
1731.85086	0.57287
1729.92229	0.57729
1727.99373	0.58147
1726.06516	0.58583
1724.13660	0.59179
1722.20804	0.59783
1720.27947	0.60202
1718.35091	0.60981
1716.42234	0.62812
1714.49378	0.64350
1712.56521	0.65282
1710.63665	0.66199
1708.70808	0.67305
1706.77952	0.69089
1704.85096	0.71578
1702.92239	0.73793
1700.99383	0.77051
1699.06526	0.82662
1697.13670	0.88358
1695.20813	0.94197
1693.27957	0.98502
1691.35100	1.01952
1689.42244	1.06352
1687.49388	1.10571
1685.56531	1.15094
1683.63675	1.22821
1681.70818	1.28409
1679.77962	1.31351
1677.85105	1.34131
1675.92249	1.37514
1673.99392	1.41194
1672.06536	1.44100
1670.13680	1.47389
1668.20823	1.50950
1666.27967	1.52656
1664.35110	1.53909
1662.42254	1.55919
1660.49397	1.57696
1658.56541	1.58529
1656.63684	1.58611
1654.70828	1.58197
1652.77972	1.57857
1650.85115	1.58076
1648.92259	1.57879
1646.99402	1.57037
1645.06546	1.56379
1643.13689	1.55782
1641.20833	1.55082
1639.27976	1.54385
1637.35120	1.53721
1635.42264	1.52531
1633.49407	1.51141
1631.56551	1.50089
1629.63694	1.48775
1627.70838	1.46962
1625.77981	1.44878
1623.85125	1.42379
1621.92269	1.39729
1619.99412	1.37553
1618.06556	1.34847
1616.13699	1.30867
1614.20843	1.27618
1612.27986	1.25010
1610.35130	1.22310
1608.42273	1.19715
1606.49417	1.17582
1604.56561	1.15941
1602.63704	1.14700
1600.70848	1.13850
1598.77991	1.13258
1596.85135	1.12878
1594.92278	1.12788
1592.99422	1.12931
1591.06565	1.13225
1589.13709	1.13750
1587.20853	1.14613
1585.27996	1.15788
1583.35140	1.17227
1581.42283	1.18749
1579.49427	1.20109
1577.56570	1.21747
1575.63714	1.24251
1573.70857	1.26012
1571.78001	1.27079
1569.85145	1.28865
1567.92288	1.31128
1565.99432	1.32809
1564.06575	1.34109
1562.13719	1.34892
1560.20862	1.36119
1558.28006	1.39971
1556.35149	1.41598
1554.42293	1.41685
1552.49437	1.41877
1550.56580	1.42210
1548.63724	1.42449
1546.70867	1.42349
1544.78011	1.41920
1542.85154	1.41371
1540.92298	1.40729
1538.99441	1.39890
1537.06585	1.39321
1535.13729	1.38507
1533.20872	1.37178
1531.28016	1.35972
1529.35159	1.35068
1527.42303	1.33894
1525.49446	1.32365
1523.56590	1.30986
1521.63733	1.29903
1519.70877	1.29341
1517.78021	1.28431
1515.85164	1.26679
1513.92308	1.24777
1511.99451	1.22904
1510.06595	1.21022
1508.13738	1.18261
1506.20882	1.13510
1504.28025	1.10666
1502.35169	1.08750
1500.42313	1.06624
1498.49456	1.04018
1496.56600	1.01126
1494.63743	0.98946
1492.70887	0.97450
1490.78030	0.95913
1488.85174	0.94147
1486.92317	0.92882
1484.99461	0.92125
1483.06605	0.91693
1481.13748	0.91613
1479.20892	0.91839
1477.28035	0.92390
1475.35179	0.93503
1473.42322	0.95642
1471.49466	0.98046
1469.56610	0.99241
1467.63753	0.99934
1465.70897	1.00912
1463.78040	1.02005
1461.85184	1.02493
1459.92327	1.02635
1457.99471	1.03305
1456.06614	1.04630
1454.13758	1.05103
1452.20902	1.05097
1450.28045	1.05021
1448.35189	1.04974
1446.42332	1.04826
1444.49476	1.04478
1442.56619	1.04006
1440.63763	1.03480
1438.70906	1.02855
1436.78050	1.01999
1434.85194	1.01060
1432.92337	1.00247
1430.99481	0.99492
1429.06624	0.98806
1427.13768	0.98299
1425.20911	0.98075
1423.28055	0.98149
1421.35198	0.98374
1419.42342	0.98873
1417.49486	0.99508
1415.56629	0.99748
1413.63773	0.99826
1411.70916	0.99961
1409.78060	1.00143
1407.85203	1.00338
1405.92347	1.00612
1403.99490	1.00907
1402.06634	1.01017
1400.13778	1.00981
1398.20921	1.00901
1396.28065	1.00838
1394.35208	1.00818
1392.42352	1.00781
1390.49495	1.00725
1388.56639	1.00845
1386.63782	1.01315
1384.70926	1.01829
1382.78070	1.02125
1380.85213	1.02182
1378.92357	1.01922
1376.99500	1.01274
1375.06644	1.00199
1373.13787	0.98835
1371.20931	0.97478
1369.28074	0.96090
1367.35218	0.94687
1365.42362	0.93441
1363.49505	0.92318
1361.56649	0.91406
1359.63792	0.90836
1357.70936	0.90496
1355.78079	0.90316
1353.85223	0.90274
1351.92366	0.90287
1349.99510	0.90316
1348.06654	0.90388
1346.13797	0.90479
1344.20941	0.90545
1342.28084	0.90594
1340.35228	0.90742
1338.42371	0.91050
1336.49515	0.91390
1334.56659	0.91748
1332.63802	0.92219
1330.70946	0.92786
1328.78089	0.93293
1326.85233	0.93660
1324.92376	0.93954
1322.99520	0.94235
1321.06663	0.94539
1319.13807	0.94903
1317.20951	0.95284
1315.28094	0.95615
1313.35238	0.95917
1311.42381	0.96185
1309.49525	0.96385
1307.56668	0.96522
1305.63812	0.96588
1303.70955	0.96598
1301.78099	0.96555
1299.85243	0.96408
1297.92386	0.96156
1295.99530	0.95896
1294.06673	0.95718
1292.13817	0.95624
1290.20960	0.95580
1288.28104	0.95577
1286.35247	0.95610
1284.42391	0.95630
1282.49535	0.95595
1280.56678	0.95527
1278.63822	0.95496
1276.70965	0.95557
1274.78109	0.95699
1272.85252	0.95908
1270.92396	0.96172
1268.99539	0.96465
1267.06683	0.96776
1265.13827	0.97045
1263.20970	0.97193
1261.28114	0.97215
1259.35257	0.97178
1257.42401	0.97146
1255.49544	0.97141
1253.56688	0.97153
1251.63831	0.97183
1249.70975	0.97258
1247.78119	0.97370
1245.85262	0.97446
1243.92406	0.97445
1241.99549	0.97380
1240.06693	0.97217
1238.13836	0.96964
1236.20980	0.96704
1234.28123	0.96385
1232.35267	0.95912
1230.42411	0.95354
1228.49554	0.94771
1226.56698	0.94162
1224.63841	0.93562
1222.70985	0.92955
1220.78128	0.92300
1218.85272	0.91653
1216.92415	0.91098
1214.99559	0.90669
1213.06703	0.90412
1211.13846	0.90337
1209.20990	0.90349
1207.28133	0.90289
1205.35277	0.90006
1203.42420	0.89459
1201.49564	0.88766
1199.56708	0.88040
1197.63851	0.87328
1195.70995	0.86685
1193.78138	0.86139
1191.85282	0.85682
1189.92425	0.85315
1187.99569	0.85067
1186.06712	0.84937
1184.13856	0.84910
1182.21000	0.85010
1180.28143	0.85292
1178.35287	0.85815
1176.42430	0.86526
1174.49574	0.87293
1172.56717	0.88050
1170.63861	0.88810
1168.71004	0.89686
1166.78148	0.90814
1164.85292	0.92171
1162.92435	0.93551
1160.99579	0.94722
1159.06722	0.95490
1157.13866	0.95658
1155.21009	0.95139
1153.28153	0.94076
1151.35296	0.92688
1149.42440	0.91151
1147.49584	0.89648
1145.56727	0.88343
1143.63871	0.87335
1141.71014	0.86712
1139.78158	0.86513
1137.85301	0.86650
1135.92445	0.87017
1133.99588	0.87606
1132.06732	0.88451
1130.13876	0.89518
1128.21019	0.90665
1126.28163	0.91803
1124.35306	0.92910
1122.42450	0.93888
1120.49593	0.94675
1118.56737	0.95356
1116.63880	0.95926
1114.71024	0.96189
1112.78168	0.96052
1110.85311	0.95718
1108.92455	0.95431
1106.99598	0.95221
1105.06742	0.95039
1103.13885	0.94981
1101.21029	0.95159
1099.28172	0.95558
1097.35316	0.96182
1095.42460	0.97083
1093.49603	0.98214
1091.56747	0.99506
1089.63890	1.00984
1087.71034	1.02727
1085.78177	1.04691
1083.85321	1.06621
1081.92464	1.08244
1079.99608	1.09409
1078.06752	1.09966
1076.13895	1.09855
1074.21039	1.09206
1072.28182	1.08161
1070.35326	1.06894
1068.42469	1.05668
1066.49613	1.04613
1064.56756	1.03678
1062.63900	1.02886
1060.71044	1.02320
1058.78187	1.01869
1056.85331	1.01352
1054.92474	1.00782
1052.99618	1.00264
1051.06761	0.99858
1049.13905	0.99596
1047.21049	0.99516
1045.28192	0.99675
1043.35336	1.00066
1041.42479	1.00514
1039.49623	1.00813
1037.56766	1.00962
1035.63910	1.00998
1033.71053	1.00858
1031.78197	1.00538
1029.85341	1.00041
1027.92484	0.99280
1025.99628	0.98207
1024.06771	0.96929
1022.13915	0.95616
1020.21058	0.94332
1018.28202	0.93066
1016.35345	0.91769
1014.42489	0.90348
1012.49633	0.88775
1010.56776	0.87113
1008.63920	0.85377
1006.71063	0.83565
1004.78207	0.81788
1002.85350	0.80220
1000.92494	0.78940
998.99637	0.77887
997.06781	0.77002
995.13925	0.76291
993.21068	0.75692
991.28212	0.75096
989.35355	0.74477
987.42499	0.73879
985.49642	0.73361
983.56786	0.72990
981.63929	0.72817
979.71073	0.72832
977.78217	0.72939
975.85360	0.73040
973.92504	0.73045
971.99647	0.72885
970.06791	0.72599
968.13934	0.72242
966.21078	0.71823
964.28221	0.71434
962.35365	0.71259
960.42509	0.71461
958.49652	0.72015
956.56796	0.72593
954.63939	0.72792
952.71083	0.72484
950.78226	0.71812
948.85370	0.71018
946.92513	0.70313
944.99657	0.69789
943.06801	0.69428
941.13944	0.69165
939.21088	0.68934
937.28231	0.68728
935.35375	0.68560
933.42518	0.68411
931.49662	0.68270
929.56805	0.68158
927.63949	0.68086
925.71093	0.68066
923.78236	0.68103
921.85380	0.68152
919.92523	0.68147
917.99667	0.68083
916.06810	0.67996
914.13954	0.67909
912.21098	0.67826
910.28241	0.67725
908.35385	0.67646
906.42528	0.67660
904.49672	0.67743
902.56815	0.67796
900.63959	0.67752
898.71102	0.67623
896.78246	0.67445
894.85390	0.67184
892.92533	0.66835
890.99677	0.66487
889.06820	0.66202
887.13964	0.66013
885.21107	0.65970
883.28251	0.66060
881.35394	0.66197
879.42538	0.66334
877.49682	0.66530
875.56825	0.66800
873.63969	0.67062
871.71112	0.67276
869.78256	0.67455
867.85399	0.67614
865.92543	0.67798
863.99686	0.68021
862.06830	0.68251
860.13974	0.68504
858.21117	0.68816
856.28261	0.69165
854.35404	0.69528
852.42548	0.69944
850.49691	0.70425
848.56835	0.70938
846.63978	0.71482
844.71122	0.72044
842.78266	0.72573
840.85409	0.73038
838.92553	0.73465
836.99696	0.73895
835.06840	0.74306
833.13983	0.74626
831.21127	0.74787
829.28270	0.74746
827.35414	0.74562
825.42558	0.74343
823.49701	0.74113
821.56845	0.73910
819.63988	0.73794
817.71132	0.73756
815.78275	0.73795
813.85419	0.73944
811.92562	0.74214
809.99706	0.74604
808.06850	0.75093
806.13993	0.75671
804.21137	0.76312
802.28280	0.76959
800.35424	0.77597
798.42567	0.78181
796.49711	0.78604
794.56854	0.78851
792.63998	0.78981
790.71142	0.78984
788.78285	0.78840
786.85429	0.78597
784.92572	0.78331
782.99716	0.78119
781.06859	0.78020
779.14003	0.78015
777.21147	0.78045
775.28290	0.78149
773.35434	0.78432
771.42577	0.78904
769.49721	0.79473
767.56864	0.80021
765.64008	0.80514
763.71151	0.81032
761.78295	0.81586
759.85439	0.82048
757.92582	0.82306
755.99726	0.82375
754.06869	0.82331
752.14013	0.82179
750.21156	0.81952
748.28300	0.81742
746.35443	0.81499
744.42587	0.81186
742.49731	0.80936
740.56874	0.80814
738.64018	0.80790
736.71161	0.80879
734.78305	0.81128
732.85448	0.81618
730.92592	0.82389
728.99735	0.83324
727.06879	0.84288
725.14023	0.85244
723.21166	0.86191
721.28310	0.87097
719.35453	0.87781
717.42597	0.88163
715.49740	0.88434
713.56884	0.88684
711.64027	0.88825
709.71171	0.88855
707.78315	0.88843
705.85458	0.88845
703.92602	0.88939
701.99745	0.89135
700.06889	0.89310
698.14032	0.89427
696.21176	0.89635
694.28319	0.90074
692.35463	0.90736
690.42607	0.91518
688.49750	0.92354
686.56894	0.93215
684.64037	0.94036
682.71181	0.94666
680.78324	0.94928
678.85468	0.94829
676.92611	0.94527
674.99755	0.94085
673.06899	0.93486
671.14042	0.92759
669.21186	0.91727
667.28329	0.90699
665.35473	0.90331
663.42616	0.90076
661.49760	0.89727
659.56903	0.89428
657.64047	0.89224
655.71191	0.89108
653.78334	0.89175
651.85478	0.89524
649.92621	0.90019
647.99765	0.90292
646.06908	0.90257
644.14052	0.90117
642.21195	0.89869
640.28339	0.89453
638.35483	0.88864
636.42626	0.88047
634.49770	0.87162
632.56913	0.86431
630.64057	0.85872
628.71200	0.85511
626.78344	0.85297
624.85488	0.85115
622.92631	0.85136
620.99775	0.85461
619.06918	0.85927
617.14062	0.86527
615.21205	0.87162
613.28349	0.87605
611.35492	0.87995
609.42636	0.88507
607.49780	0.89074
605.56923	0.89548
603.64067	0.89734
601.71210	0.89636
599.78354	0.89528
