3997.91406	0.84150
3995.98550	0.84054
3994.05693	0.84046
3992.12837	0.84107
3990.19980	0.84215
3988.27124	0.84298
3986.34268	0.84265
3984.41411	0.84164
3982.48555	0.84109
3980.55698	0.84093
3978.62842	0.84103
3976.69985	0.84211
3974.77129	0.84271
3972.84272	0.84139
3970.91416	0.84009
3968.98560	0.84028
3967.05703	0.84047
3965.12847	0.83949
3963.19990	0.83857
3961.27134	0.83793
3959.34277	0.83663
3957.41421	0.83559
3955.48564	0.83542
3953.55708	0.83541
3951.62852	0.83522
3949.69995	0.83532
3947.77139	0.83580
3945.84282	0.83620
3943.91426	0.83710
3941.98569	0.83722
3940.05713	0.83475
3938.12856	0.83204
3936.20000	0.83075
3934.27144	0.83019
3932.34287	0.83026
3930.41431	0.83061
3928.48574	0.83066
3926.55718	0.83147
3924.62861	0.83283
3922.70005	0.83216
3920.77148	0.83064
3918.84292	0.83141
3916.91436	0.83300
3914.98579	0.83253
3913.05723	0.83128
3911.12866	0.83071
3909.20010	0.83022
3907.27153	0.82947
3905.34297	0.82955
3903.41440	0.82856
3901.48584	0.82469
3899.55728	0.82337
3897.62871	0.82366
3895.70015	0.82091
3893.77158	0.81774
3891.84302	0.81921
3889.91445	0.82032
3887.98589	0.81709
3886.05733	0.81601
3884.12876	0.81799
3882.20020	0.81844
3880.27163	0.81945
3878.34307	0.81906
3876.41450	0.81678
3874.48594	0.81610
3872.55737	0.81715
3870.62881	0.81912
3868.70025	0.81973
3866.77168	0.81768
3864.84312	0.81696
3862.91455	0.81666
3860.98599	0.81291
3859.05742	0.80778
3857.12886	0.80324
3855.20029	0.80160
3853.27173	0.80911
3851.34317	0.81473
3849.41460	0.81239
3847.48604	0.80835
3845.55747	0.80553
3843.62891	0.80402
3841.70034	0.80292
3839.77178	0.80430
3837.84321	0.80980
3835.91465	0.81328
3833.98609	0.81191
3832.05752	0.80838
3830.12896	0.80446
3828.20039	0.80154
3826.27183	0.80105
3824.34326	0.80067
3822.41470	0.80134
3820.48613	0.80592
3818.55757	0.80670
3816.62901	0.80615
3814.70044	0.80716
3812.77188	0.80558
3810.84331	0.80252
3808.91475	0.80160
3806.98618	0.80412
3805.05762	0.80388
3803.12905	0.80119
3801.20049	0.80294
3799.27193	0.80537
3797.34336	0.80660
3795.41480	0.80814
3793.48623	0.80716
3791.55767	0.80433
3789.62910	0.80179
3787.70054	0.79999
3785.77197	0.79918
3783.84341	0.79848
3781.91485	0.79729
3779.98628	0.79774
3778.05772	0.79869
3776.12915	0.79753
3774.20059	0.79570
3772.27202	0.79491
3770.34346	0.79721
3768.41489	0.80078
3766.48633	0.80179
3764.55777	0.80077
3762.62920	0.79867
3760.70064	0.79734
3758.77207	0.79758
3756.84351	0.79639
3754.91494	0.79413
3752.98638	0.79534
3751.05781	0.80324
3749.12925	0.80531
3747.20069	0.80077
3745.27212	0.80053
3743.34356	0.80269
3741.41499	0.79971
3739.48643	0.79457
3737.55786	0.79143
3735.62930	0.79369
3733.70074	0.79893
3731.77217	0.80020
3729.84361	0.79737
3727.91504	0.79401
3725.98648	0.79328
3724.05791	0.79445
3722.12935	0.79481
3720.20078	0.79410
3718.27222	0.79329
3716.34366	0.79227
3714.41509	0.78985
3712.48653	0.78694
3710.55796	0.78827
3708.62940	0.79149
3706.70083	0.79177
3704.77227	0.79018
3702.84370	0.79044
3700.91514	0.79229
3698.98658	0.79160
3697.05801	0.79028
3695.12945	0.78968
3693.20088	0.78853
3691.27232	0.78963
3689.34375	0.79761
3687.41519	0.80335
3685.48662	0.80332
3683.55806	0.80228
3681.62950	0.80195
3679.70093	0.80227
3677.77237	0.80363
3675.84380	0.80920
3673.91524	0.81227
3671.98667	0.81048
3670.05811	0.81559
3668.12954	0.82494
3666.20098	0.82936
3664.27242	0.83247
3662.34385	0.83607
3660.41529	0.83926
3658.48672	0.84250
3656.55816	0.84779
3654.62959	0.85148
3652.70103	0.85113
3650.77246	0.85322
3648.84390	0.86752
3646.91534	0.87925
3644.98677	0.88260
3643.05821	0.88600
3641.12964	0.89176
3639.20108	0.89883
3637.27251	0.90590
3635.34395	0.91204
3633.41538	0.91692
3631.48682	0.92208
3629.55826	0.93571
3627.62969	0.95187
3625.70113	0.95628
3623.77256	0.95801
3621.84400	0.96089
3619.91543	0.96836
3617.98687	0.98021
3616.05830	0.98836
3614.12974	0.99552
3612.20118	1.00379
3610.27261	1.01116
3608.34405	1.02062
3606.41548	1.02983
3604.48692	1.03420
3602.55835	1.03800
3600.62979	1.04539
3598.70123	1.05530
3596.77266	1.06642
3594.84410	1.07814
3592.91553	1.08479
3590.98697	1.08453
3589.05840	1.08728
3587.12984	1.10217
3585.20127	1.11459
3583.27271	1.11675
3581.34415	1.11714
3579.41558	1.12094
3577.48702	1.12726
3575.55845	1.13401
3573.62989	1.14020
3571.70132	1.14484
3569.77276	1.14912
3567.84419	1.16106
3565.91563	1.18000
3563.98707	1.18909
3562.05850	1.19295
3560.12994	1.19907
3558.20137	1.20738
3556.27281	1.21609
3554.34424	1.22368
3552.41568	1.23063
3550.48711	1.23796
3548.55855	1.24585
3546.62999	1.25495
3544.70142	1.26386
3542.77286	1.26903
3540.84429	1.27124
3538.91573	1.27500
3536.98716	1.28156
3535.05860	1.28695
3533.13003	1.28996
3531.20147	1.29343
3529.27291	1.29781
3527.34434	1.30410
3525.41578	1.31433
3523.48721	1.32596
3521.55865	1.33320
3519.63008	1.33408
3517.70152	1.33502
3515.77295	1.34210
3513.84439	1.35079
3511.91583	1.35467
3509.98726	1.35907
3508.05870	1.36970
3506.13013	1.38101
3504.20157	1.39087
3502.27300	1.40013
3500.34444	1.40827
3498.41587	1.41649
3496.48731	1.42530
3494.55875	1.43516
3492.63018	1.44328
3490.70162	1.44872
3488.77305	1.45429
3486.84449	1.45787
3484.91592	1.45739
3482.98736	1.45758
3481.05879	1.46337
3479.13023	1.47016
3477.20167	1.47312
3475.27310	1.47476
3473.34454	1.47554
3471.41597	1.47607
3469.48741	1.47850
3467.55884	1.48042
3465.63028	1.48119
3463.70171	1.48505
3461.77315	1.49139
3459.84459	1.49412
3457.91602	1.49256
3455.98746	1.49086
3454.05889	1.49074
3452.13033	1.49136
3450.20176	1.49335
3448.27320	1.50048
3446.34464	1.50867
3444.41607	1.50847
3442.48751	1.50832
3440.55894	1.51668
3438.63038	1.52293
3436.70181	1.52014
3434.77325	1.51380
3432.84468	1.50912
3430.91612	1.50988
3428.98756	1.51398
3427.05899	1.51430
3425.13043	1.51133
3423.20186	1.51052
3421.27330	1.51247
3419.34473	1.51230
3417.41617	1.50901
3415.48760	1.50873
3413.55904	1.51352
3411.63048	1.51885
3409.70191	1.52168
3407.77335	1.52383
3405.84478	1.52410
3403.91622	1.51736
3401.98765	1.50981
3400.05909	1.51005
3398.13052	1.51228
3396.20196	1.51222
3394.27340	1.51565
3392.34483	1.52109
3390.41627	1.52005
3388.48770	1.51395
3386.55914	1.51022
3384.63057	1.50984
3382.70201	1.51043
3380.77344	1.51154
3378.84488	1.51219
3376.91632	1.51293
3374.98775	1.51553
3373.05919	1.51565
3371.13062	1.50997
3369.20206	1.50508
3367.27349	1.50554
3365.34493	1.50713
3363.41636	1.50777
3361.48780	1.51027
3359.55924	1.51538
3357.63067	1.52128
3355.70211	1.52667
3353.77354	1.52977
3351.84498	1.52716
3349.91641	1.52235
3347.98785	1.52282
3346.05928	1.52536
3344.13072	1.52453
3342.20216	1.52357
3340.27359	1.52592
3338.34503	1.53018
3336.41646	1.53262
3334.48790	1.52997
3332.55933	1.52344
3330.63077	1.52043
3328.70220	1.52573
3326.77364	1.53362
3324.84508	1.53664
3322.91651	1.53480
3320.98795	1.53247
3319.05938	1.53303
3317.13082	1.53633
3315.20225	1.54088
3313.27369	1.54425
3311.34513	1.54411
3309.41656	1.54330
3307.48800	1.54401
3305.55943	1.54471
3303.63087	1.54605
3301.70230	1.54831
3299.77374	1.55190
3297.84517	1.55700
3295.91661	1.55799
3293.98805	1.55245
3292.05948	1.54888
3290.13092	1.55436
3288.20235	1.56127
3286.27379	1.55846
3284.34522	1.55141
3282.41666	1.54938
3280.48809	1.55164
3278.55953	1.55573
3276.63097	1.55642
3274.70240	1.55176
3272.77384	1.54807
3270.84527	1.54548
3268.91671	1.54233
3266.98814	1.53996
3265.05958	1.53728
3263.13101	1.53288
3261.20245	1.52553
3259.27389	1.51775
3257.34532	1.51338
3255.41676	1.51072
3253.48819	1.50746
3251.55963	1.50271
3249.63106	1.49617
3247.70250	1.49080
3245.77393	1.48716
3243.84537	1.48028
3241.91681	1.47122
3239.98824	1.46450
3238.05968	1.45806
3236.13111	1.45185
3234.20255	1.44941
3232.27398	1.44846
3230.34542	1.44587
3228.41685	1.44390
3226.48829	1.44343
3224.55973	1.44098
3222.63116	1.43585
3220.70260	1.43275
3218.77403	1.43309
3216.84547	1.43101
3214.91690	1.42380
3212.98834	1.41582
3211.05977	1.41107
3209.13121	1.40811
3207.20265	1.40325
3205.27408	1.39889
3203.34552	1.39753
3201.41695	1.39517
3199.48839	1.39191
3197.55982	1.39148
3195.63126	1.39071
3193.70269	1.38616
3191.77413	1.38087
3189.84557	1.37727
3187.91700	1.37426
3185.98844	1.36961
3184.05987	1.36254
3182.13131	1.35515
3180.20274	1.34908
3178.27418	1.34440
3176.34562	1.34034
3174.41705	1.33777
3172.48849	1.33758
3170.55992	1.33574
3168.63136	1.33036
3166.70279	1.32396
3164.77423	1.31650
3162.84566	1.30954
3160.91710	1.30692
3158.98854	1.30722
3157.05997	1.30580
3155.13141	1.30253
3153.20284	1.29986
3151.27428	1.29771
3149.34571	1.29468
3147.41715	1.29185
3145.48858	1.29037
3143.56002	1.28768
3141.63146	1.28363
3139.70289	1.28136
3137.77433	1.28062
3135.84576	1.27998
3133.91720	1.27888
3131.98863	1.27704
3130.06007	1.27603
3128.13150	1.27590
3126.20294	1.27394
3124.27438	1.27097
3122.34581	1.27031
3120.41725	1.27101
3118.48868	1.27020
3116.56012	1.26798
3114.63155	1.26611
3112.70299	1.26601
3110.77442	1.26720
3108.84586	1.26688
3106.91730	1.26463
3104.98873	1.26285
3103.06017	1.26144
3101.13160	1.25965
3099.20304	1.25925
3097.27447	1.26083
3095.34591	1.26122
3093.41734	1.25807
3091.48878	1.25366
3089.56022	1.25044
3087.63165	1.24780
3085.70309	1.24507
3083.77452	1.24251
3081.84596	1.23949
3079.91739	1.23643
3077.98883	1.23471
3076.06026	1.23267
3074.13170	1.22812
3072.20314	1.22229
3070.27457	1.21698
3068.34601	1.21238
3066.41744	1.20918
3064.48888	1.20716
3062.56031	1.20419
3060.63175	1.19976
3058.70318	1.19447
3056.77462	1.18864
3054.84606	1.18283
3052.91749	1.17727
3050.98893	1.17190
3049.06036	1.16715
3047.13180	1.16363
3045.20323	1.16095
3043.27467	1.15842
3041.34610	1.15535
3039.41754	1.15092
3037.48898	1.14546
3035.56041	1.14032
3033.63185	1.13727
3031.70328	1.13651
3029.77472	1.13614
3027.84615	1.13501
3025.91759	1.13283
3023.98903	1.12883
3022.06046	1.12379
3020.13190	1.11987
3018.20333	1.11740
3016.27477	1.11549
3014.34620	1.11415
3012.41764	1.11284
3010.48907	1.11110
3008.56051	1.10968
3006.63195	1.10812
3004.70338	1.10549
3002.77482	1.10323
3000.84625	1.10334
2998.91769	1.10455
2996.98912	1.10480
2995.06056	1.10576
2993.13199	1.10959
2991.20343	1.11513
2989.27487	1.12052
2987.34630	1.12503
2985.41774	1.12925
2983.48917	1.13483
2981.56061	1.14169
2979.63204	1.14820
2977.70348	1.15478
2975.77491	1.16262
2973.84635	1.17071
2971.91779	1.17825
2969.98922	1.18643
2968.06066	1.19476
2966.13209	1.20064
2964.20353	1.20386
2962.27496	1.20615
2960.34640	1.20696
2958.41783	1.20451
2956.48927	1.19951
2954.56071	1.19415
2952.63214	1.18902
2950.70358	1.18393
2948.77501	1.18123
2946.84645	1.18293
2944.91788	1.18685
2942.98932	1.19179
2941.06075	1.19914
2939.13219	1.20812
2937.20363	1.21748
2935.27506	1.22721
2933.34650	1.23650
2931.41793	1.24488
2929.48937	1.25195
2927.56080	1.25768
2925.63224	1.26490
2923.70367	1.27343
2921.77511	1.27847
2919.84655	1.27851
2917.91798	1.27376
2915.98942	1.26133
2914.06085	1.23974
2912.13229	1.21364
2910.20372	1.19030
2908.27516	1.17308
2906.34659	1.16049
2904.41803	1.15033
2902.48947	1.14230
2900.56090	1.13632
2898.63234	1.13140
2896.70377	1.12769
2894.77521	1.12568
2892.84664	1.12365
2890.91808	1.11933
2888.98952	1.11317
2887.06095	1.10767
2885.13239	1.10433
2883.20382	1.10194
2881.27526	1.09922
2879.34669	1.09772
2877.41813	1.09784
2875.48956	1.09703
2873.56100	1.09407
2871.63244	1.08929
2869.70387	1.08296
2867.77531	1.07591
2865.84674	1.06946
2863.91818	1.06490
2861.98961	1.06384
2860.06105	1.06751
2858.13248	1.07504
2856.20392	1.08433
2854.27536	1.09471
2852.34679	1.10602
2850.41823	1.11298
2848.48966	1.10459
2846.56110	1.07767
2844.63253	1.04468
2842.70397	1.01814
2840.77540	0.99985
2838.84684	0.98722
2836.91828	0.97788
2834.98971	0.96982
2833.06115	0.96341
2831.13258	0.95966
2829.20402	0.95699
2827.27545	0.95375
2825.34689	0.94974
2823.41832	0.94497
2821.48976	0.94039
2819.56120	0.93734
2817.63263	0.93530
2815.70407	0.93325
2813.77550	0.93122
2811.84694	0.92913
2809.91837	0.92665
2807.98981	0.92449
2806.06124	0.92289
2804.13268	0.92118
2802.20412	0.91942
2800.27555	0.91774
2798.34699	0.91634
2796.41842	0.91580
2794.48986	0.91549
2792.56129	0.91457
2790.63273	0.91326
2788.70416	0.91198
2786.77560	0.91070
2784.84704	0.90927
2782.91847	0.90756
2780.98991	0.90567
2779.06134	0.90407
2777.13278	0.90283
2775.20421	0.90169
2773.27565	0.90048
2771.34708	0.89900
2769.41852	0.89741
2767.48996	0.89628
2765.56139	0.89571
2763.63283	0.89494
2761.70426	0.89325
2759.77570	0.89099
2757.84713	0.88909
2755.91857	0.88765
2753.99001	0.88566
2752.06144	0.88300
2750.13288	0.88093
2748.20431	0.87973
2746.27575	0.87876
2744.34718	0.87796
2742.41862	0.87736
2740.49005	0.87638
2738.56149	0.87458
2736.63293	0.87256
2734.70436	0.87115
2732.77580	0.87011
2730.84723	0.86901
2728.91867	0.86785
2726.99010	0.86644
2725.06154	0.86480
2723.13297	0.86312
2721.20441	0.86155
2719.27585	0.86005
2717.34728	0.85811
2715.41872	0.85567
2713.49015	0.85324
2711.56159	0.85103
2709.63302	0.84890
2707.70446	0.84676
2705.77589	0.84452
2703.84733	0.84184
2701.91877	0.83884
2699.99020	0.83625
2698.06164	0.83396
2696.13307	0.83130
2694.20451	0.82840
2692.27594	0.82589
2690.34738	0.82364
2688.41881	0.82090
2686.49025	0.81768
2684.56169	0.81436
2682.63312	0.81121
2680.70456	0.80866
2678.77599	0.80698
2676.84743	0.80555
2674.91886	0.80347
2672.99030	0.80091
2671.06173	0.79881
2669.13317	0.79727
2667.20461	0.79578
2665.27604	0.79430
2663.34748	0.79276
2661.41891	0.79084
2659.49035	0.78862
2657.56178	0.78636
2655.63322	0.78464
2653.70465	0.78376
2651.77609	0.78300
2649.84753	0.78175
2647.91896	0.78021
2645.99040	0.77847
2644.06183	0.77645
2642.13327	0.77433
2640.20470	0.77233
2638.27614	0.77059
2636.34757	0.76878
2634.41901	0.76665
2632.49045	0.76480
2630.56188	0.76378
2628.63332	0.76308
2626.70475	0.76170
2624.77619	0.75946
2622.84762	0.75728
2620.91906	0.75596
2618.99049	0.75512
2617.06193	0.75413
2615.13337	0.75332
2613.20480	0.75283
2611.27624	0.75211
2609.34767	0.75139
2607.41911	0.75138
2605.49054	0.75178
2603.56198	0.75189
2601.63342	0.75193
2599.70485	0.75229
2597.77629	0.75273
2595.84772	0.75321
2593.91916	0.75381
2591.99059	0.75445
2590.06203	0.75522
2588.13346	0.75601
2586.20490	0.75665
2584.27634	0.75711
2582.34777	0.75727
2580.41921	0.75712
2578.49064	0.75685
2576.56208	0.75634
2574.63351	0.75541
2572.70495	0.75451
2570.77638	0.75402
2568.84782	0.75334
2566.91926	0.75167
2564.99069	0.74932
2563.06213	0.74734
2561.13356	0.74592
2559.20500	0.74429
2557.27643	0.74209
2555.34787	0.74009
2553.41930	0.73883
2551.49074	0.73783
2549.56218	0.73675
2547.63361	0.73569
2545.70505	0.73447
2543.77648	0.73293
2541.84792	0.73168
2539.91935	0.73119
2537.99079	0.73098
2536.06222	0.73073
2534.13366	0.73056
2532.20510	0.73046
2530.27653	0.73039
2528.34797	0.73038
2526.41940	0.73036
2524.49084	0.73020
2522.56227	0.72972
2520.63371	0.72884
2518.70514	0.72773
2516.77658	0.72661
2514.84802	0.72559
2512.91945	0.72455
2510.99089	0.72301
2509.06232	0.72078
2507.13376	0.71850
2505.20519	0.71654
2503.27663	0.71433
2501.34806	0.71159
2499.41950	0.70891
2497.49094	0.70656
2495.56237	0.70430
2493.63381	0.70208
2491.70524	0.69983
2489.77668	0.69724
2487.84811	0.69431
2485.91955	0.69138
2483.99098	0.68887
2482.06242	0.68690
2480.13386	0.68513
2478.20529	0.68349
2476.27673	0.68220
2474.34816	0.68095
2472.41960	0.67921
2470.49103	0.67730
2468.56247	0.67600
2466.63391	0.67520
2464.70534	0.67437
2462.77678	0.67329
2460.84821	0.67186
2458.91965	0.67026
2456.99108	0.66889
2455.06252	0.66776
2453.13395	0.66665
2451.20539	0.66543
2449.27683	0.66402
2447.34826	0.66263
2445.41970	0.66130
2443.49113	0.65983
2441.56257	0.65818
2439.63400	0.65649
2437.70544	0.65485
2435.77687	0.65331
2433.84831	0.65180
2431.91975	0.65027
2429.99118	0.64896
2428.06262	0.64813
2426.13405	0.64741
2424.20549	0.64630
2422.27692	0.64503
2420.34836	0.64404
2418.41979	0.64339
2416.49123	0.64306
2414.56267	0.64298
2412.63410	0.64306
2410.70554	0.64304
2408.77697	0.64264
2406.84841	0.64208
2404.91984	0.64191
2402.99128	0.64227
2401.06271	0.64296
2399.13415	0.64372
2397.20559	0.64436
2395.27702	0.64472
2393.34846	0.64489
2391.41989	0.64537
2389.49133	0.64614
2387.56276	0.64670
2385.63420	0.64704
2383.70563	0.64742
2381.77707	0.64761
2379.84851	0.64699
2377.91994	0.64557
2375.99138	0.64426
2374.06281	0.64355
2372.13425	0.64318
2370.20568	0.64240
2368.27712	0.64003
2366.34855	0.63721
2364.41999	0.63629
2362.49143	0.63575
2360.56286	0.63387
2358.63430	0.63238
2356.70573	0.63375
2354.77717	0.63765
2352.84860	0.64235
2350.92004	0.64457
2348.99147	0.64304
2347.06291	0.63962
2345.13435	0.63706
2343.20578	0.63678
2341.27722	0.63683
2339.34865	0.63682
2337.42009	0.63751
2335.49152	0.63685
2333.56296	0.63412
2331.63440	0.63247
2329.70583	0.63343
2327.77727	0.63507
2325.84870	0.63561
2323.92014	0.63499
2321.99157	0.63431
2320.06301	0.63403
2318.13444	0.63336
2316.20588	0.63184
2314.27732	0.62992
2312.34875	0.62832
2310.42019	0.62753
2308.49162	0.62727
2306.56306	0.62679
2304.63449	0.62554
2302.70593	0.62389
2300.77736	0.62272
2298.84880	0.62221
2296.92024	0.62180
2294.99167	0.62115
2293.06311	0.62044
2291.13454	0.61998
2289.20598	0.61960
2287.27741	0.61907
2285.34885	0.61831
2283.42028	0.61716
2281.49172	0.61584
2279.56316	0.61470
2277.63459	0.61367
2275.70603	0.61252
2273.77746	0.61103
2271.84890	0.60933
2269.92033	0.60777
2267.99177	0.60622
2266.06320	0.60464
2264.13464	0.60336
2262.20608	0.60214
2260.27751	0.60065
2258.34895	0.59911
2256.42038	0.59783
2254.49182	0.59681
2252.56325	0.59593
2250.63469	0.59512
2248.70612	0.59465
2246.77756	0.59436
2244.84900	0.59383
2242.92043	0.59330
2240.99187	0.59308
2239.06330	0.59316
2237.13474	0.59358
2235.20617	0.59441
2233.27761	0.59541
2231.34904	0.59611
2229.42048	0.59659
2227.49192	0.59705
2225.56335	0.59731
2223.63479	0.59755
2221.70622	0.59790
2219.77766	0.59795
2217.84909	0.59761
2215.92053	0.59710
2213.99196	0.59652
2212.06340	0.59589
2210.13484	0.59501
2208.20627	0.59386
2206.27771	0.59285
2204.34914	0.59217
2202.42058	0.59158
2200.49201	0.59072
2198.56345	0.58954
2196.63488	0.58852
2194.70632	0.58782
2192.77776	0.58722
2190.84919	0.58682
2188.92063	0.58671
2186.99206	0.58683
2185.06350	0.58721
2183.13493	0.58771
2181.20637	0.58806
2179.27781	0.58845
2177.34924	0.58926
2175.42068	0.59035
2173.49211	0.59141
2171.56355	0.59225
2169.63498	0.59298
2167.70642	0.59405
2165.77785	0.59552
2163.84929	0.59664
2161.92073	0.59726
2159.99216	0.59787
2158.06360	0.59842
2156.13503	0.59851
2154.20647	0.59825
2152.27790	0.59776
2150.34934	0.59695
2148.42077	0.59586
2146.49221	0.59462
2144.56365	0.59322
2142.63508	0.59143
2140.70652	0.58915
2138.77795	0.58666
2136.84939	0.58425
2134.92082	0.58179
2132.99226	0.57910
2131.06369	0.57632
2129.13513	0.57375
2127.20657	0.57148
2125.27800	0.56941
2123.34944	0.56753
2121.42087	0.56598
2119.49231	0.56475
2117.56374	0.56386
2115.63518	0.56320
2113.70661	0.56253
2111.77805	0.56199
2109.84949	0.56179
2107.92092	0.56189
2105.99236	0.56211
2104.06379	0.56221
2102.13523	0.56219
2100.20666	0.56219
2098.27810	0.56216
2096.34953	0.56204
2094.42097	0.56190
2092.49241	0.56165
2090.56384	0.56114
2088.63528	0.56027
2086.70671	0.55913
2084.77815	0.55794
2082.84958	0.55645
2080.92102	0.55442
2078.99245	0.55211
2077.06389	0.54989
2075.13533	0.54760
2073.20676	0.54497
2071.27820	0.54215
2069.34963	0.53962
2067.42107	0.53748
2065.49250	0.53542
2063.56394	0.53334
2061.63537	0.53150
2059.70681	0.53007
2057.77825	0.52905
2055.84968	0.52836
2053.92112	0.52805
2051.99255	0.52817
2050.06399	0.52860
2048.13542	0.52908
2046.20686	0.52946
2044.27830	0.52994
2042.34973	0.53082
2040.42117	0.53187
2038.49260	0.53288
2036.56404	0.53396
2034.63547	0.53491
2032.70691	0.53550
2030.77834	0.53584
2028.84978	0.53612
2026.92122	0.53631
2024.99265	0.53623
2023.06409	0.53586
2021.13552	0.53534
2019.20696	0.53486
2017.27839	0.53428
2015.34983	0.53307
2013.42126	0.53123
2011.49270	0.52941
2009.56414	0.52771
2007.63557	0.52566
2005.70701	0.52334
2003.77844	0.52118
2001.84988	0.51941
1999.92131	0.51793
1997.99275	0.51643
1996.06418	0.51488
1994.13562	0.51365
1992.20706	0.51300
1990.27849	0.51267
1988.34993	0.51238
1986.42136	0.51217
1984.49280	0.51214
1982.56423	0.51252
1980.63567	0.51334
1978.70710	0.51444
1976.77854	0.51550
1974.84998	0.51629
1972.92141	0.51702
1970.99285	0.51782
1969.06428	0.51870
1967.13572	0.51967
1965.20715	0.52019
1963.27859	0.52014
1961.35002	0.52011
1959.42146	0.51989
1957.49290	0.51910
1955.56433	0.51814
1953.63577	0.51708
1951.70720	0.51559
1949.77864	0.51384
1947.85007	0.51203
1945.92151	0.50985
1943.99294	0.50723
1942.06438	0.50456
1940.13582	0.50200
1938.20725	0.49947
1936.27869	0.49695
1934.35012	0.49445
1932.42156	0.49203
1930.49299	0.48977
1928.56443	0.48769
1926.63586	0.48585
1924.70730	0.48445
1922.77874	0.48368
1920.85017	0.48313
1918.92161	0.48286
1916.99304	0.48306
1915.06448	0.48297
1913.13591	0.48259
1911.20735	0.48254
1909.27878	0.48310
1907.35022	0.48391
1905.42166	0.48432
1903.49309	0.48441
1901.56453	0.48440
1899.63596	0.48421
1897.70740	0.48395
1895.77883	0.48398
1893.85027	0.48383
1891.92171	0.48295
1889.99314	0.48199
1888.06458	0.48103
1886.13601	0.47946
1884.20745	0.47772
1882.27888	0.47613
1880.35032	0.47423
1878.42175	0.47194
1876.49319	0.46970
1874.56463	0.46742
1872.63606	0.46485
1870.70750	0.46247
1868.77893	0.46125
1866.85037	0.46066
1864.92180	0.45955
1862.99324	0.45852
1861.06467	0.45813
1859.13611	0.45818
1857.20755	0.45835
1855.27898	0.45862
1853.35042	0.45905
1851.42185	0.45950
1849.49329	0.45996
1847.56472	0.46046
1845.63616	0.46153
1843.70759	0.46364
1841.77903	0.46487
1839.85047	0.46504
1837.92190	0.46540
1835.99334	0.46589
1834.06477	0.46572
1832.13621	0.46532
1830.20764	0.46605
1828.27908	0.46716
1826.35051	0.46715
1824.42195	0.46677
1822.49339	0.46601
1820.56482	0.46477
1818.63626	0.46359
1816.70769	0.46234
1814.77913	0.46068
1812.85056	0.45895
1810.92200	0.45764
1808.99343	0.45660
1807.06487	0.45538
1805.13631	0.45410
1803.20774	0.45317
1801.27918	0.45304
1799.35061	0.45332
1797.42205	0.45315
1795.49348	0.45252
1793.56492	0.45251
1791.63635	0.45414
1789.70779	0.45501
1787.77923	0.45464
1785.85066	0.45479
1783.92210	0.45568
1781.99353	0.45658
1780.06497	0.45766
1778.13640	0.45859
1776.20784	0.45874
1774.27927	0.45907
1772.35071	0.46122
1770.42215	0.46368
1768.49358	0.46466
1766.56502	0.46487
1764.63645	0.46472
1762.70789	0.46541
1760.77932	0.46728
1758.85076	0.46878
1756.92220	0.47066
1754.99363	0.47283
1753.06507	0.47491
1751.13650	0.47937
1749.20794	0.48706
1747.27937	0.49412
1745.35081	0.50001
1743.42224	0.50608
1741.49368	0.51259
1739.56512	0.51914
1737.63655	0.52335
1735.70799	0.52650
1733.77942	0.53429
1731.85086	0.54219
1729.92229	0.54730
1727.99373	0.55304
1726.06516	0.55948
1724.13660	0.56788
1722.20804	0.57682
1720.27947	0.58439
1718.35091	0.59602
1716.42234	0.61805
1714.49378	0.63662
1712.56521	0.64942
1710.63665	0.66252
1708.70808	0.67782
1706.77952	0.70088
1704.85096	0.73263
1702.92239	0.76157
1700.99383	0.80170
1699.06526	0.86774
1697.13670	0.93181
1695.20813	0.99390
1693.27957	1.03852
1691.35100	1.07281
1689.42244	1.11517
1687.49388	1.15539
1685.56531	1.19752
1683.63675	1.26506
1681.70818	1.31075
1679.77962	1.33215
1677.85105	1.35098
1675.92249	1.37471
1673.99392	1.39972
1672.06536	1.41575
1670.13680	1.43163
1668.20823	1.45151
1666.27967	1.46089
1664.35110	1.46534
1662.42254	1.47186
1660.49397	1.47671
1658.56541	1.47714
1656.63684	1.47290
1654.70828	1.47001
1652.77972	1.47760
1650.85115	1.47660
1648.92259	1.46908
1646.99402	1.46556
1645.06546	1.46489
1643.13689	1.46013
1641.20833	1.45470
1639.27976	1.44888
1637.35120	1.44236
1635.42264	1.43749
1633.49407	1.43372
1631.56551	1.42787
1629.63694	1.41872
1627.70838	1.40905
1625.77981	1.40050
1623.85125	1.38913
1621.92269	1.37355
1619.99412	1.35793
1618.06556	1.33877
1616.13699	1.31100
1614.20843	1.28616
1612.27986	1.26458
1610.35130	1.24192
1608.42273	1.21959
1606.49417	1.20017
1604.56561	1.18459
1602.63704	1.17288
1600.70848	1.16512
1598.77991	1.16012
1596.85135	1.15722
1594.92278	1.15653
1592.99422	1.15803
1591.06565	1.16227
1589.13709	1.16999
1587.20853	1.18097
1585.27996	1.19354
1583.35140	1.20712
1581.42283	1.22117
1579.49427	1.23359
1577.56570	1.24888
1575.63714	1.27344
1573.70857	1.28935
1571.78001	1.29670
1569.85145	1.30992
1567.92288	1.32679
1565.99432	1.33777
1564.06575	1.34554
1562.13719	1.34936
1560.20862	1.35314
1558.28006	1.36870
1556.35149	1.37792
1554.42293	1.37924
1552.49437	1.37682
1550.56580	1.37207
1548.63724	1.36647
1546.70867	1.36000
1544.78011	1.35298
1542.85154	1.34819
1540.92298	1.34524
1538.99441	1.33524
1537.06585	1.32587
1535.13729	1.31769
1533.20872	1.30892
1531.28016	1.30175
1529.35159	1.29747
1527.42303	1.29449
1525.49446	1.28979
1523.56590	1.28295
1521.63733	1.27619
1519.70877	1.27123
1517.78021	1.26338
1515.85164	1.25047
1513.92308	1.23528
1511.99451	1.21842
1510.06595	1.20120
1508.13738	1.17911
1506.20882	1.14315
1504.28025	1.12020
1502.35169	1.10440
1500.42313	1.08726
1498.49456	1.06599
1496.56600	1.04095
1494.63743	1.02067
1492.70887	1.00587
1490.78030	0.98988
1488.85174	0.97082
1486.92317	0.95630
1484.99461	0.94658
1483.06605	0.93995
1481.13748	0.93709
1479.20892	0.93843
1477.28035	0.94425
1475.35179	0.95620
1473.42322	0.97856
1471.49466	1.00376
1469.56610	1.01711
1467.63753	1.02589
1465.70897	1.03861
1463.78040	1.05346
1461.85184	1.06119
1459.92327	1.06473
1457.99471	1.07557
1456.06614	1.09348
1454.13758	1.09848
1452.20902	1.09753
1450.28045	1.09643
1448.35189	1.09634
1446.42332	1.09542
1444.49476	1.09248
1442.56619	1.08760
1440.63763	1.08103
1438.70906	1.07330
1436.78050	1.06338
1434.85194	1.05227
1432.92337	1.04223
1430.99481	1.03175
1429.06624	1.02133
1427.13768	1.01424
1425.20911	1.01110
1423.28055	1.01054
1421.35198	1.01105
1419.42342	1.01457
1417.49486	1.02025
1415.56629	1.02217
1413.63773	1.02224
1411.70916	1.02329
1409.78060	1.02527
1407.85203	1.02697
1405.92347	1.02965
1403.99490	1.03421
1402.06634	1.03805
1400.13778	1.04081
1398.20921	1.04328
1396.28065	1.04571
1394.35208	1.04849
1392.42352	1.05053
1390.49495	1.05249
1388.56639	1.05814
1386.63782	1.06937
1384.70926	1.08079
1382.78070	1.08924
1380.85213	1.09427
1378.92357	1.09395
1376.99500	1.08716
1375.06644	1.07340
1373.13787	1.05510
1371.20931	1.03680
1369.28074	1.01710
1367.35218	0.99566
1365.42362	0.97571
1363.49505	0.95710
1361.56649	0.94099
1359.63792	0.92976
1357.70936	0.92173
1355.78079	0.91580
1353.85223	0.91195
1351.92366	0.90958
1349.99510	0.90821
1348.06654	0.90792
1346.13797	0.90869
1344.20941	0.91024
1342.28084	0.91198
1340.35228	0.91424
1338.42371	0.91783
1336.49515	0.92269
1334.56659	0.92911
1332.63802	0.93707
1330.70946	0.94525
1328.78089	0.95197
1326.85233	0.95630
1324.92376	0.95833
1322.99520	0.95918
1321.06663	0.96001
1319.13807	0.96081
1317.20951	0.96069
1315.28094	0.95974
1313.35238	0.95892
1311.42381	0.95789
1309.49525	0.95579
1307.56668	0.95273
1305.63812	0.94924
1303.70955	0.94620
1301.78099	0.94395
1299.85243	0.94172
1297.92386	0.93890
1295.99530	0.93631
1294.06673	0.93570
1292.13817	0.93800
1290.20960	0.94245
1288.28104	0.94773
1286.35247	0.95325
1284.42391	0.95864
1282.49535	0.96391
1280.56678	0.96956
1278.63822	0.97653
1276.70965	0.98565
1274.78109	0.99651
1272.85252	1.00883
1270.92396	1.02260
1268.99539	1.03698
1267.06683	1.05095
1265.13827	1.06303
1263.20970	1.07211
1261.28114	1.07901
1259.35257	1.08462
1257.42401	1.08887
1255.49544	1.09198
1253.56688	1.09455
1251.63831	1.09691
1249.70975	1.09866
1247.78119	1.09896
1245.85262	1.09800
1243.92406	1.09653
1241.99549	1.09423
1240.06693	1.09000
1238.13836	1.08333
1236.20980	1.07551
1234.28123	1.06788
1232.35267	1.06004
1230.42411	1.05149
1228.49554	1.04228
1226.56698	1.03246
1224.63841	1.02278
1222.70985	1.01392
1220.78128	1.00621
1218.85272	1.00073
1216.92415	0.99792
1214.99559	0.99728
1213.06703	0.99919
1211.13846	1.00382
1209.20990	1.00972
1207.28133	1.01469
1205.35277	1.01639
1203.42420	1.01354
1201.49564	1.00718
1199.56708	0.99879
1197.63851	0.98907
1195.70995	0.97899
1193.78138	0.96957
1191.85282	0.96112
1189.92425	0.95366
1187.99569	0.94741
1186.06712	0.94264
1184.13856	0.93918
1182.21000	0.93682
1180.28143	0.93627
1178.35287	0.93834
1176.42430	0.94294
1174.49574	0.94952
1172.56717	0.95752
1170.63861	0.96733
1168.71004	0.98022
1166.78148	0.99693
1164.85292	1.01724
1162.92435	1.03911
1160.99579	1.05867
1159.06722	1.07194
1157.13866	1.07614
1155.21009	1.07098
1153.28153	1.05857
1151.35296	1.04168
1149.42440	1.02330
1147.49584	1.00583
1145.56727	0.99074
1143.63871	0.97950
1141.71014	0.97251
1139.78158	0.96872
1137.85301	0.96719
1135.92445	0.96740
1133.99588	0.96921
1132.06732	0.97373
1130.13876	0.98198
1128.21019	0.99236
1126.28163	1.00224
1124.35306	1.01094
1122.42450	1.01892
1120.49593	1.02568
1118.56737	1.02964
1116.63880	1.02898
1114.71024	1.02300
1112.78168	1.01338
1110.85311	1.00278
1108.92455	0.99341
1106.99598	0.98636
1105.06742	0.98210
1103.13885	0.98155
1101.21029	0.98543
1099.28172	0.99399
1097.35316	1.00726
1095.42460	1.02534
1093.49603	1.04863
1091.56747	1.07624
1089.63890	1.10576
1087.71034	1.13571
1085.78177	1.16556
1083.85321	1.19427
1081.92464	1.21953
1079.99608	1.23819
1078.06752	1.24888
1076.13895	1.25308
1074.21039	1.25199
1072.28182	1.24639
1070.35326	1.23775
1068.42469	1.22679
1066.49613	1.21437
1064.56756	1.20137
1062.63900	1.18709
1060.71044	1.17062
1058.78187	1.15231
1056.85331	1.13391
1054.92474	1.11730
1052.99618	1.10223
1051.06761	1.08779
1049.13905	1.07546
1047.21049	1.06784
1045.28192	1.06598
1043.35336	1.06901
1041.42479	1.07477
1039.49623	1.08069
1037.56766	1.08530
1035.63910	1.08899
1033.71053	1.09252
1031.78197	1.09555
1029.85341	1.09713
1027.92484	1.09634
1025.99628	1.09295
1024.06771	1.08832
1022.13915	1.08437
1020.21058	1.08221
1018.28202	1.08169
1016.35345	1.08064
1014.42489	1.07710
1012.49633	1.07095
1010.56776	1.06204
1008.63920	1.05061
1006.71063	1.03745
1004.78207	1.02288
1002.85350	1.00789
1000.92494	0.99329
998.99637	0.97864
997.06781	0.96390
995.13925	0.94915
993.21068	0.93373
991.28212	0.91746
989.35355	0.90096
987.42499	0.88558
985.49642	0.87280
983.56786	0.86300
981.63929	0.85633
979.71073	0.85301
977.78217	0.85220
975.85360	0.85260
973.92504	0.85284
971.99647	0.85173
970.06791	0.84950
968.13934	0.84771
966.21078	0.84801
964.28221	0.85168
962.35365	0.86012
960.42509	0.87462
958.49652	0.89366
956.56796	0.91147
954.63939	0.92245
952.71083	0.92539
950.78226	0.92220
948.85370	0.91593
946.92513	0.90841
944.99657	0.89937
943.06801	0.88877
941.13944	0.87690
939.21088	0.86311
937.28231	0.84695
935.35375	0.82911
933.42518	0.81083
931.49662	0.79317
929.56805	0.77657
927.63949	0.76099
925.71093	0.74651
923.78236	0.73362
921.85380	0.72259
919.92523	0.71312
917.99667	0.70510
916.06810	0.69903
914.13954	0.69540
912.21098	0.69436
910.28241	0.69599
908.35385	0.70065
906.42528	0.70837
904.49672	0.71864
902.56815	0.73097
900.63959	0.74429
898.71102	0.75710
896.78246	0.76911
894.85390	0.78088
892.92533	0.79245
890.99677	0.80368
889.06820	0.81493
887.13964	0.82688
885.21107	0.83979
883.28251	0.85293
881.35394	0.86498
879.42538	0.87528
877.49682	0.88398
875.56825	0.89055
873.63969	0.89365
871.71112	0.89303
869.78256	0.88973
867.85399	0.88394
865.92543	0.87563
863.99686	0.86604
862.06830	0.85629
860.13974	0.84688
858.21117	0.83830
856.28261	0.83095
854.35404	0.82537
852.42548	0.82227
850.49691	0.82178
848.56835	0.82325
846.63978	0.82643
844.71122	0.83189
842.78266	0.83984
840.85409	0.84973
838.92553	0.86120
836.99696	0.87444
835.06840	0.88820
833.13983	0.90064
831.21127	0.91260
829.28270	0.92520
827.35414	0.93691
825.42558	0.94586
823.49701	0.95201
821.56845	0.95607
819.63988	0.95771
817.71132	0.95638
815.78275	0.95246
813.85419	0.94641
811.92562	0.93789
809.99706	0.92632
808.06850	0.91250
806.13993	0.89837
804.21137	0.88469
802.28280	0.87112
800.35424	0.85828
798.42567	0.84681
796.49711	0.83673
794.56854	0.82896
792.63998	0.82401
790.71142	0.82150
788.78285	0.82167
786.85429	0.82456
784.92572	0.82981
782.99716	0.83736
781.06859	0.84677
779.14003	0.85738
777.21147	0.86902
775.28290	0.88142
773.35434	0.89413
771.42577	0.90767
769.49721	0.92219
767.56864	0.93591
765.64008	0.94735
763.71151	0.95637
761.78295	0.96262
759.85439	0.96599
757.92582	0.96679
755.99726	0.96476
754.06869	0.95995
752.14013	0.95362
750.21156	0.94608
748.28300	0.93574
746.35443	0.92163
744.42587	0.90504
742.49731	0.88856
740.56874	0.87349
738.64018	0.85951
736.71161	0.84696
734.78305	0.83627
732.85448	0.82711
730.92592	0.81981
728.99735	0.81476
727.06879	0.81195
725.14023	0.81132
723.21166	0.81308
721.28310	0.81775
719.35453	0.82412
717.42597	0.83059
715.49740	0.83798
713.56884	0.84786
711.64027	0.86102
709.71171	0.87696
707.78315	0.89426
705.85458	0.91271
703.92602	0.93289
701.99745	0.95344
700.06889	0.97250
698.14032	0.99066
696.21176	1.00967
694.28319	1.02940
692.35463	1.04781
690.42607	1.06437
688.49750	1.07891
686.56894	1.08906
684.64037	1.09479
682.71181	1.09750
680.78324	1.09615
678.85468	1.08941
676.92611	1.07844
674.99755	1.06579
673.06899	1.05192
671.14042	1.03707
669.21186	1.01803
667.28329	0.99677
665.35473	0.98418
663.42616	0.97416
661.49760	0.96394
659.56903	0.95536
657.64047	0.94950
655.71191	0.94711
653.78334	0.94779
651.85478	0.95096
649.92621	0.95686
647.99765	0.96608
646.06908	0.97907
644.14052	0.99537
642.21195	1.01412
640.28339	1.03454
638.35483	1.05416
636.42626	1.07065
634.49770	1.08537
632.56913	1.09880
630.64057	1.10760
628.71200	1.10999
626.78344	1.10706
624.85488	1.10016
622.92631	1.08886
620.99775	1.07248
619.06918	1.05246
617.14062	1.02961
615.21205	1.00555
613.28349	0.98317
611.35492	0.96217
609.42636	0.94051
607.49780	0.91887
605.56923	0.90018
603.64067	0.88540
601.71210	0.87421
599.78354	0.86759
