3997.91406	0.99500
3995.98550	0.99545
3994.05693	0.99378
3992.12837	0.99184
3990.19980	0.99139
3988.27124	0.99147
3986.34268	0.99024
3984.41411	0.98665
3982.48555	0.98294
3980.55698	0.98261
3978.62842	0.98458
3976.69985	0.98466
3974.77129	0.98261
3972.84272	0.98174
3970.91416	0.98246
3968.98560	0.98309
3967.05703	0.98333
3965.12847	0.98278
3963.19990	0.98127
3961.27134	0.97987
3959.34277	0.97843
3957.41421	0.97692
3955.48564	0.97718
3953.55708	0.97889
3951.62852	0.97955
3949.69995	0.97829
3947.77139	0.97594
3945.84282	0.97387
3943.91426	0.97315
3941.98569	0.97264
3940.05713	0.97127
3938.12856	0.97021
3936.20000	0.96925
3934.27144	0.96844
3932.34287	0.96888
3930.41431	0.96861
3928.48574	0.96646
3926.55718	0.96547
3924.62861	0.96677
3922.70005	0.96627
3920.77148	0.96342
3918.84292	0.96268
3916.91436	0.96428
3914.98579	0.96475
3913.05723	0.96463
3911.12866	0.96590
3909.20010	0.96731
3907.27153	0.96638
3905.34297	0.96476
3903.41440	0.96534
3901.48584	0.96488
3899.55728	0.96390
3897.62871	0.96494
3895.70015	0.96487
3893.77158	0.96159
3891.84302	0.95778
3889.91445	0.95732
3887.98589	0.95775
3886.05733	0.95820
3884.12876	0.95978
3882.20020	0.96099
3880.27163	0.96110
3878.34307	0.95927
3876.41450	0.95637
3874.48594	0.95464
3872.55737	0.95461
3870.62881	0.95561
3868.70025	0.95618
3866.77168	0.95471
3864.84312	0.95289
3862.91455	0.95252
3860.98599	0.95226
3859.05742	0.95079
3857.12886	0.94791
3855.20029	0.94465
3853.27173	0.94559
3851.34317	0.94724
3849.41460	0.94596
3847.48604	0.94465
3845.55747	0.94335
3843.62891	0.94120
3841.70034	0.93957
3839.77178	0.94067
3837.84321	0.94313
3835.91465	0.94276
3833.98609	0.94028
3832.05752	0.93816
3830.12896	0.93690
3828.20039	0.93792
3826.27183	0.94322
3824.34326	0.94827
3822.41470	0.94790
3820.48613	0.94234
3818.55757	0.93617
3816.62901	0.93367
3814.70044	0.93631
3812.77188	0.93790
3810.84331	0.93570
3808.91475	0.93216
3806.98618	0.93216
3805.05762	0.93415
3803.12905	0.93405
3801.20049	0.93419
3799.27193	0.93409
3797.34336	0.93499
3795.41480	0.93841
3793.48623	0.93952
3791.55767	0.93705
3789.62910	0.93395
3787.70054	0.93130
3785.77197	0.92848
3783.84341	0.92659
3781.91485	0.92739
3779.98628	0.93109
3778.05772	0.93381
3776.12915	0.93359
3774.20059	0.93311
3772.27202	0.93253
3770.34346	0.93142
3768.41489	0.93026
3766.48633	0.92878
3764.55777	0.92683
3762.62920	0.92498
3760.70064	0.92478
3758.77207	0.92650
3756.84351	0.92701
3754.91494	0.92545
3752.98638	0.92277
3751.05781	0.91953
3749.12925	0.91572
3747.20069	0.91236
3745.27212	0.91290
3743.34356	0.91821
3741.41499	0.92172
3739.48643	0.92231
3737.55786	0.92122
3735.62930	0.91908
3733.70074	0.91885
3731.77217	0.91948
3729.84361	0.91799
3727.91504	0.91572
3725.98648	0.91497
3724.05791	0.91532
3722.12935	0.91452
3720.20078	0.91415
3718.27222	0.91536
3716.34366	0.91527
3714.41509	0.91264
3712.48653	0.91010
3710.55796	0.91141
3708.62940	0.91394
3706.70083	0.91511
3704.77227	0.91486
3702.84370	0.91414
3700.91514	0.91421
3698.98658	0.91482
3697.05801	0.91624
3695.12945	0.91787
3693.20088	0.91940
3691.27232	0.92299
3689.34375	0.92897
3687.41519	0.93199
3685.48662	0.93210
3683.55806	0.93215
3681.62950	0.93371
3679.70093	0.93654
3677.77237	0.93962
3675.84380	0.94599
3673.91524	0.95187
3671.98667	0.95251
3670.05811	0.95662
3668.12954	0.96452
3666.20098	0.96951
3664.27242	0.97353
3662.34385	0.97816
3660.41529	0.98306
3658.48672	0.98773
3656.55816	0.99352
3654.62959	0.99844
3652.70103	1.00025
3650.77246	1.00444
3648.84390	1.01860
3646.91534	1.02944
3644.98677	1.03399
3643.05821	1.03914
3641.12964	1.04643
3639.20108	1.05533
3637.27251	1.06459
3635.34395	1.07206
3633.41538	1.07704
3631.48682	1.08007
3629.55826	1.08607
3627.62969	1.10070
3625.70113	1.11404
3623.77256	1.12246
3621.84400	1.12861
3619.91543	1.13917
3617.98687	1.14985
3616.05830	1.15051
3614.12974	1.15225
3612.20118	1.16374
3610.27261	1.17732
3608.34405	1.18844
3606.41548	1.19642
3604.48692	1.20008
3602.55835	1.20409
3600.62979	1.21408
3598.70123	1.22674
3596.77266	1.23404
3594.84410	1.23955
3592.91553	1.24927
3590.98697	1.25740
3589.05840	1.26158
3587.12984	1.26849
3585.20127	1.28097
3583.27271	1.29436
3581.34415	1.30487
3579.41558	1.30998
3577.48702	1.31322
3575.55845	1.31945
3573.62989	1.32762
3571.70132	1.33723
3569.77276	1.34974
3567.84419	1.36327
3565.91563	1.37394
3563.98707	1.38306
3562.05850	1.39212
3560.12994	1.39939
3558.20137	1.40413
3556.27281	1.41158
3554.34424	1.42810
3552.41568	1.44745
3550.48711	1.45650
3548.55855	1.45941
3546.62999	1.46665
3544.70142	1.47773
3542.77286	1.48481
3540.84429	1.49021
3538.91573	1.49601
3536.98716	1.49704
3535.05860	1.49674
3533.13003	1.50258
3531.20147	1.51156
3529.27291	1.51738
3527.34434	1.52278
3525.41578	1.53485
3523.48721	1.54934
3521.55865	1.55671
3519.63008	1.56009
3517.70152	1.56827
3515.77295	1.57963
3513.84439	1.58877
3511.91583	1.59723
3509.98726	1.60553
3508.05870	1.60880
3506.13013	1.61064
3504.20157	1.62072
3502.27300	1.63376
3500.34444	1.63964
3498.41587	1.64554
3496.48731	1.65826
3494.55875	1.67261
3492.63018	1.67986
3490.70162	1.68116
3488.77305	1.68593
3486.84449	1.69523
3484.91592	1.69870
3482.98736	1.69852
3481.05879	1.70469
3479.13023	1.71057
3477.20167	1.70692
3475.27310	1.70082
3473.34454	1.70472
3471.41597	1.71769
3469.48741	1.72842
3467.55884	1.72789
3465.63028	1.72012
3463.70171	1.71846
3461.77315	1.72414
3459.84459	1.73438
3457.91602	1.74940
3455.98746	1.75965
3454.05889	1.76109
3452.13033	1.76005
3450.20176	1.75936
3448.27320	1.76286
3446.34464	1.77115
3444.41607	1.77707
3442.48751	1.77845
3440.55894	1.77600
3438.63038	1.77389
3436.70181	1.77701
3434.77325	1.77834
3432.84468	1.77820
3430.91612	1.78523
3428.98756	1.79182
3427.05899	1.79173
3425.13043	1.78779
3423.20186	1.77938
3421.27330	1.76967
3419.34473	1.76338
3417.41617	1.76258
3415.48760	1.76632
3413.55904	1.77000
3411.63048	1.77199
3409.70191	1.77328
3407.77335	1.77482
3405.84478	1.77713
3403.91622	1.78126
3401.98765	1.78826
3400.05909	1.79131
3398.13052	1.78483
3396.20196	1.78163
3394.27340	1.79360
3392.34483	1.80488
3390.41627	1.80034
3388.48770	1.79599
3386.55914	1.79992
3384.63057	1.80001
3382.70201	1.79672
3380.77344	1.80280
3378.84488	1.81212
3376.91632	1.80779
3374.98775	1.79580
3373.05919	1.79086
3371.13062	1.79233
3369.20206	1.79471
3367.27349	1.79970
3365.34493	1.80585
3363.41636	1.80514
3361.48780	1.79989
3359.55924	1.79842
3357.63067	1.80291
3355.70211	1.80808
3353.77354	1.80851
3351.84498	1.80994
3349.91641	1.81420
3347.98785	1.81447
3346.05928	1.81214
3344.13072	1.80695
3342.20216	1.79834
3340.27359	1.79851
3338.34503	1.80695
3336.41646	1.80852
3334.48790	1.80615
3332.55933	1.80789
3330.63077	1.80919
3328.70220	1.81023
3326.77364	1.81827
3324.84508	1.83072
3322.91651	1.83320
3320.98795	1.82435
3319.05938	1.82182
3317.13082	1.83047
3315.20225	1.83706
3313.27369	1.84157
3311.34513	1.84523
3309.41656	1.83819
3307.48800	1.83684
3305.55943	1.85150
3303.63087	1.85800
3301.70230	1.85228
3299.77374	1.84990
3297.84517	1.85091
3295.91661	1.85009
3293.98805	1.84596
3292.05948	1.83926
3290.13092	1.83397
3288.20235	1.83683
3286.27379	1.84328
3284.34522	1.84293
3282.41666	1.83742
3280.48809	1.82925
3278.55953	1.82349
3276.63097	1.82766
3274.70240	1.83166
3272.77384	1.82237
3270.84527	1.80773
3268.91671	1.79801
3266.98814	1.79395
3265.05958	1.79665
3263.13101	1.80265
3261.20245	1.80229
3259.27389	1.79581
3257.34532	1.79343
3255.41676	1.79767
3253.48819	1.79880
3251.55963	1.79121
3249.63106	1.77868
3247.70250	1.76657
3245.77393	1.75670
3243.84537	1.74897
3241.91681	1.75021
3239.98824	1.75954
3238.05968	1.76291
3236.13111	1.75758
3234.20255	1.75116
3232.27398	1.74470
3230.34542	1.73575
3228.41685	1.72907
3226.48829	1.72747
3224.55973	1.72214
3222.63116	1.71436
3220.70260	1.71352
3218.77403	1.71281
3216.84547	1.70374
3214.91690	1.69445
3212.98834	1.69296
3211.05977	1.69504
3209.13121	1.69454
3207.20265	1.68997
3205.27408	1.68245
3203.34552	1.67835
3201.41695	1.67952
3199.48839	1.67748
3197.55982	1.67377
3195.63126	1.67512
3193.70269	1.67367
3191.77413	1.66466
3189.84557	1.65553
3187.91700	1.65213
3185.98844	1.65215
3184.05987	1.64617
3182.13131	1.63405
3180.20274	1.62569
3178.27418	1.62378
3176.34562	1.62548
3174.41705	1.62537
3172.48849	1.61916
3170.55992	1.60995
3168.63136	1.60120
3166.70279	1.59609
3164.77423	1.59568
3162.84566	1.59530
3160.91710	1.59371
3158.98854	1.58950
3157.05997	1.58001
3155.13141	1.57160
3153.20284	1.56853
3151.27428	1.56516
3149.34571	1.55873
3147.41715	1.55390
3145.48858	1.55239
3143.56002	1.55061
3141.63146	1.54961
3139.70289	1.55205
3137.77433	1.55381
3135.84576	1.55160
3133.91720	1.54734
3131.98863	1.54559
3130.06007	1.54689
3128.13150	1.54547
3126.20294	1.54195
3124.27438	1.54019
3122.34581	1.53987
3120.41725	1.54188
3118.48868	1.54356
3116.56012	1.54184
3114.63155	1.53963
3112.70299	1.53768
3110.77442	1.53594
3108.84586	1.53641
3106.91730	1.53671
3104.98873	1.53269
3103.06017	1.52560
3101.13160	1.51954
3099.20304	1.51821
3097.27447	1.52301
3095.34591	1.53075
3093.41734	1.53560
3091.48878	1.53242
3089.56022	1.52387
3087.63165	1.51967
3085.70309	1.52085
3083.77452	1.51995
3081.84596	1.51594
3079.91739	1.51071
3077.98883	1.50345
3076.06026	1.49876
3074.13170	1.50014
3072.20314	1.50223
3070.27457	1.50005
3068.34601	1.49407
3066.41744	1.48846
3064.48888	1.48589
3062.56031	1.48335
3060.63175	1.47950
3058.70318	1.47574
3056.77462	1.47119
3054.84606	1.46582
3052.91749	1.46122
3050.98893	1.45686
3049.06036	1.45095
3047.13180	1.44516
3045.20323	1.44286
3043.27467	1.44107
3041.34610	1.43408
3039.41754	1.42259
3037.48898	1.41181
3035.56041	1.40700
3033.63185	1.40756
3031.70328	1.40543
3029.77472	1.39728
3027.84615	1.38959
3025.91759	1.38756
3023.98903	1.38911
3022.06046	1.38906
3020.13190	1.38573
3018.20333	1.38222
3016.27477	1.37999
3014.34620	1.37767
3012.41764	1.37633
3010.48907	1.37587
3008.56051	1.37338
3006.63195	1.36948
3004.70338	1.36683
3002.77482	1.36644
3000.84625	1.36805
2998.91769	1.37054
2996.98912	1.37220
2995.06056	1.37199
2993.13199	1.37015
2991.20343	1.36898
2989.27487	1.37171
2987.34630	1.37788
2985.41774	1.38423
2983.48917	1.38983
2981.56061	1.39571
2979.63204	1.40225
2977.70348	1.40794
2975.77491	1.41305
2973.84635	1.42076
2971.91779	1.42964
2969.98922	1.43601
2968.06066	1.44214
2966.13209	1.44946
2964.20353	1.45407
2962.27496	1.45423
2960.34640	1.45165
2958.41783	1.44735
2956.48927	1.44137
2954.56071	1.43448
2952.63214	1.42865
2950.70358	1.42427
2948.77501	1.42103
2946.84645	1.42224
2944.91788	1.42928
2942.98932	1.43683
2941.06075	1.44333
2939.13219	1.45250
2937.20363	1.46256
2935.27506	1.47088
2933.34650	1.48025
2931.41793	1.49087
2929.48937	1.49786
2927.56080	1.50086
2925.63224	1.50498
2923.70367	1.50964
2921.77511	1.51242
2919.84655	1.51495
2917.91798	1.51202
2915.98942	1.49702
2914.06085	1.47385
2912.13229	1.44850
2910.20372	1.42502
2908.27516	1.40720
2906.34659	1.39480
2904.41803	1.38555
2902.48947	1.37976
2900.56090	1.37581
2898.63234	1.36939
2896.70377	1.36165
2894.77521	1.35723
2892.84664	1.35586
2890.91808	1.35392
2888.98952	1.35047
2887.06095	1.34683
2885.13239	1.34355
2883.20382	1.34063
2881.27526	1.33865
2879.34669	1.33882
2877.41813	1.34090
2875.48956	1.34256
2873.56100	1.34111
2871.63244	1.33569
2869.70387	1.32845
2867.77531	1.32139
2865.84674	1.31523
2863.91818	1.31087
2861.98961	1.30983
2860.06105	1.31357
2858.13248	1.32118
2856.20392	1.33040
2854.27536	1.33951
2852.34679	1.34693
2850.41823	1.34881
2848.48966	1.33774
2846.56110	1.31197
2844.63253	1.28147
2842.70397	1.25688
2840.77540	1.24011
2838.84684	1.22793
2836.91828	1.21779
2834.98971	1.20869
2833.06115	1.20070
2831.13258	1.19409
2829.20402	1.18866
2827.27545	1.18447
2825.34689	1.18138
2823.41832	1.17871
2821.48976	1.17600
2819.56120	1.17291
2817.63263	1.16912
2815.70407	1.16506
2813.77550	1.16144
2811.84694	1.15760
2809.91837	1.15327
2807.98981	1.15050
2806.06124	1.14956
2804.13268	1.14703
2802.20412	1.14207
2800.27555	1.13777
2798.34699	1.13482
2796.41842	1.13169
2794.48986	1.12858
2792.56129	1.12585
2790.63273	1.12327
2788.70416	1.12098
2786.77560	1.11813
2784.84704	1.11415
2782.91847	1.11076
2780.98991	1.10880
2779.06134	1.10613
2777.13278	1.10208
2775.20421	1.09918
2773.27565	1.09818
2771.34708	1.09652
2769.41852	1.09320
2767.48996	1.09038
2765.56139	1.08868
2763.63283	1.08693
2761.70426	1.08576
2759.77570	1.08530
2757.84713	1.08385
2755.91857	1.08152
2753.99001	1.07985
2752.06144	1.07868
2750.13288	1.07706
2748.20431	1.07495
2746.27575	1.07287
2744.34718	1.07115
2742.41862	1.06974
2740.49005	1.06843
2738.56149	1.06704
2736.63293	1.06535
2734.70436	1.06308
2732.77580	1.06099
2730.84723	1.05998
2728.91867	1.05873
2726.99010	1.05607
2725.06154	1.05318
2723.13297	1.05153
2721.20441	1.05149
2719.27585	1.05143
2717.34728	1.04938
2715.41872	1.04651
2713.49015	1.04429
2711.56159	1.04220
2709.63302	1.04006
2707.70446	1.03818
2705.77589	1.03635
2703.84733	1.03420
2701.91877	1.03153
2699.99020	1.02878
2698.06164	1.02665
2696.13307	1.02509
2694.20451	1.02372
2692.27594	1.02219
2690.34738	1.02062
2688.41881	1.01962
2686.49025	1.01890
2684.56169	1.01714
2682.63312	1.01395
2680.70456	1.01054
2678.77599	1.00805
2676.84743	1.00662
2674.91886	1.00591
2672.99030	1.00553
2671.06173	1.00453
2669.13317	1.00213
2667.20461	0.99948
2665.27604	0.99768
2663.34748	0.99629
2661.41891	0.99490
2659.49035	0.99333
2657.56178	0.99149
2655.63322	0.98956
2653.70465	0.98781
2651.77609	0.98648
2649.84753	0.98567
2647.91896	0.98514
2645.99040	0.98430
2644.06183	0.98294
2642.13327	0.98128
2640.20470	0.97934
2638.27614	0.97782
2636.34757	0.97708
2634.41901	0.97618
2632.49045	0.97499
2630.56188	0.97389
2628.63332	0.97267
2626.70475	0.97168
2624.77619	0.97085
2622.84762	0.96948
2620.91906	0.96821
2618.99049	0.96759
2617.06193	0.96711
2615.13337	0.96637
2613.20480	0.96515
2611.27624	0.96402
2609.34767	0.96349
2607.41911	0.96281
2605.49054	0.96172
2603.56198	0.96079
2601.63342	0.95991
2599.70485	0.95887
2597.77629	0.95822
2595.84772	0.95776
2593.91916	0.95630
2591.99059	0.95424
2590.06203	0.95306
2588.13346	0.95253
2586.20490	0.95161
2584.27634	0.95003
2582.34777	0.94820
2580.41921	0.94693
2578.49064	0.94614
2576.56208	0.94502
2574.63351	0.94351
2572.70495	0.94209
2570.77638	0.94100
2568.84782	0.93990
2566.91926	0.93827
2564.99069	0.93645
2563.06213	0.93488
2561.13356	0.93362
2559.20500	0.93291
2557.27643	0.93251
2555.34787	0.93182
2553.41930	0.93062
2551.49074	0.92901
2549.56218	0.92772
2547.63361	0.92714
2545.70505	0.92643
2543.77648	0.92513
2541.84792	0.92374
2539.91935	0.92232
2537.99079	0.92077
2536.06222	0.91945
2534.13366	0.91883
2532.20510	0.91896
2530.27653	0.91898
2528.34797	0.91817
2526.41940	0.91692
2524.49084	0.91539
2522.56227	0.91345
2520.63371	0.91177
2518.70514	0.91084
2516.77658	0.91019
2514.84802	0.90907
2512.91945	0.90720
2510.99089	0.90511
2509.06232	0.90336
2507.13376	0.90163
2505.20519	0.89999
2503.27663	0.89909
2501.34806	0.89832
2499.41950	0.89660
2497.49094	0.89433
2495.56237	0.89266
2493.63381	0.89148
2491.70524	0.88973
2489.77668	0.88719
2487.84811	0.88481
2485.91955	0.88345
2483.99098	0.88268
2482.06242	0.88140
2480.13386	0.87946
2478.20529	0.87754
2476.27673	0.87601
2474.34816	0.87475
2472.41960	0.87337
2470.49103	0.87153
2468.56247	0.86956
2466.63391	0.86806
2464.70534	0.86683
2462.77678	0.86558
2460.84821	0.86441
2458.91965	0.86322
2456.99108	0.86180
2455.06252	0.86028
2453.13395	0.85917
2451.20539	0.85827
2449.27683	0.85708
2447.34826	0.85595
2445.41970	0.85512
2443.49113	0.85445
2441.56257	0.85398
2439.63400	0.85370
2437.70544	0.85335
2435.77687	0.85277
2433.84831	0.85217
2431.91975	0.85143
2429.99118	0.85058
2428.06262	0.84979
2426.13405	0.84849
2424.20549	0.84662
2422.27692	0.84492
2420.34836	0.84351
2418.41979	0.84249
2416.49123	0.84188
2414.56267	0.84084
2412.63410	0.83893
2410.70554	0.83678
2408.77697	0.83502
2406.84841	0.83387
2404.91984	0.83275
2402.99128	0.83132
2401.06271	0.83004
2399.13415	0.82898
2397.20559	0.82788
2395.27702	0.82672
2393.34846	0.82579
2391.41989	0.82526
2389.49133	0.82490
2387.56276	0.82458
2385.63420	0.82417
2383.70563	0.82381
2381.77707	0.82377
2379.84851	0.82301
2377.91994	0.82093
2375.99138	0.81908
2374.06281	0.81870
2372.13425	0.81951
2370.20568	0.82037
2368.27712	0.81941
2366.34855	0.81572
2364.41999	0.80985
2362.49143	0.80416
2360.56286	0.80294
2358.63430	0.80576
2356.70573	0.80870
2354.77717	0.81079
2352.84860	0.81174
2350.92004	0.81075
2348.99147	0.80835
2347.06291	0.80570
2345.13435	0.80407
2343.20578	0.80342
2341.27722	0.80146
2339.34865	0.79772
2337.42009	0.79446
2335.49152	0.79436
2333.56296	0.79717
2331.63440	0.79887
2329.70583	0.79753
2327.77727	0.79691
2325.84870	0.79845
2323.92014	0.79901
2321.99157	0.79752
2320.06301	0.79592
2318.13444	0.79505
2316.20588	0.79434
2314.27732	0.79385
2312.34875	0.79374
2310.42019	0.79328
2308.49162	0.79220
2306.56306	0.79141
2304.63449	0.79086
2302.70593	0.78969
2300.77736	0.78841
2298.84880	0.78778
2296.92024	0.78746
2294.99167	0.78707
2293.06311	0.78653
2291.13454	0.78547
2289.20598	0.78376
2287.27741	0.78220
2285.34885	0.78138
2283.42028	0.78056
2281.49172	0.77943
2279.56316	0.77850
2277.63459	0.77756
2275.70603	0.77646
2273.77746	0.77563
2271.84890	0.77509
2269.92033	0.77469
2267.99177	0.77423
2266.06320	0.77353
2264.13464	0.77304
2262.20608	0.77329
2260.27751	0.77361
2258.34895	0.77318
2256.42038	0.77219
2254.49182	0.77112
2252.56325	0.77025
2250.63469	0.76978
2248.70612	0.76944
2246.77756	0.76899
2244.84900	0.76836
2242.92043	0.76726
2240.99187	0.76600
2239.06330	0.76532
2237.13474	0.76495
2235.20617	0.76420
2233.27761	0.76326
2231.34904	0.76248
2229.42048	0.76170
2227.49192	0.76074
2225.56335	0.75969
2223.63479	0.75888
2221.70622	0.75825
2219.77766	0.75741
2217.84909	0.75662
2215.92053	0.75626
2213.99196	0.75606
2212.06340	0.75560
2210.13484	0.75482
2208.20627	0.75425
2206.27771	0.75417
2204.34914	0.75416
2202.42058	0.75406
2200.49201	0.75399
2198.56345	0.75396
2196.63488	0.75429
2194.70632	0.75497
2192.77776	0.75540
2190.84919	0.75561
2188.92063	0.75613
2186.99206	0.75687
2185.06350	0.75740
2183.13493	0.75754
2181.20637	0.75747
2179.27781	0.75749
2177.34924	0.75755
2175.42068	0.75743
2173.49211	0.75716
2171.56355	0.75696
2169.63498	0.75686
2167.70642	0.75667
2165.77785	0.75637
2163.84929	0.75595
2161.92073	0.75546
2159.99216	0.75513
2158.06360	0.75505
2156.13503	0.75486
2154.20647	0.75412
2152.27790	0.75315
2150.34934	0.75268
2148.42077	0.75265
2146.49221	0.75258
2144.56365	0.75245
2142.63508	0.75215
2140.70652	0.75160
2138.77795	0.75115
2136.84939	0.75113
2134.92082	0.75126
2132.99226	0.75102
2131.06369	0.75058
2129.13513	0.75042
2127.20657	0.75056
2125.27800	0.75060
2123.34944	0.75039
2121.42087	0.75010
2119.49231	0.74957
2117.56374	0.74862
2115.63518	0.74754
2113.70661	0.74665
2111.77805	0.74577
2109.84949	0.74467
2107.92092	0.74355
2105.99236	0.74261
2104.06379	0.74157
2102.13523	0.74009
2100.20666	0.73837
2098.27810	0.73660
2096.34953	0.73480
2094.42097	0.73313
2092.49241	0.73159
2090.56384	0.73005
2088.63528	0.72855
2086.70671	0.72695
2084.77815	0.72517
2082.84958	0.72336
2080.92102	0.72169
2078.99245	0.72032
2077.06389	0.71915
2075.13533	0.71783
2073.20676	0.71628
2071.27820	0.71470
2069.34963	0.71333
2067.42107	0.71217
2065.49250	0.71111
2063.56394	0.71008
2061.63537	0.70912
2059.70681	0.70833
2057.77825	0.70760
2055.84968	0.70671
2053.92112	0.70578
2051.99255	0.70508
2050.06399	0.70471
2048.13542	0.70450
2046.20686	0.70411
2044.27830	0.70346
2042.34973	0.70270
2040.42117	0.70182
2038.49260	0.70086
2036.56404	0.70012
2034.63547	0.69961
2032.70691	0.69891
2030.77834	0.69786
2028.84978	0.69689
2026.92122	0.69634
2024.99265	0.69595
2023.06409	0.69530
2021.13552	0.69431
2019.20696	0.69336
2017.27839	0.69278
2015.34983	0.69218
2013.42126	0.69122
2011.49270	0.69024
2009.56414	0.68956
2007.63557	0.68899
2005.70701	0.68828
2003.77844	0.68753
2001.84988	0.68693
1999.92131	0.68636
1997.99275	0.68592
1996.06418	0.68565
1994.13562	0.68535
1992.20706	0.68514
1990.27849	0.68498
1988.34993	0.68480
1986.42136	0.68492
1984.49280	0.68517
1982.56423	0.68521
1980.63567	0.68521
1978.70710	0.68530
1976.77854	0.68523
1974.84998	0.68484
1972.92141	0.68412
1970.99285	0.68314
1969.06428	0.68227
1967.13572	0.68163
1965.20715	0.68074
1963.27859	0.67956
1961.35002	0.67842
1959.42146	0.67718
1957.49290	0.67568
1955.56433	0.67399
1953.63577	0.67200
1951.70720	0.66967
1949.77864	0.66735
1947.85007	0.66528
1945.92151	0.66336
1943.99294	0.66161
1942.06438	0.66022
1940.13582	0.65907
1938.20725	0.65782
1936.27869	0.65641
1934.35012	0.65506
1932.42156	0.65402
1930.49299	0.65310
1928.56443	0.65209
1926.63586	0.65101
1924.70730	0.64987
1922.77874	0.64888
1920.85017	0.64802
1918.92161	0.64744
1916.99304	0.64727
1915.06448	0.64689
1913.13591	0.64611
1911.20735	0.64538
1909.27878	0.64515
1907.35022	0.64527
1905.42166	0.64509
1903.49309	0.64459
1901.56453	0.64401
1899.63596	0.64326
1897.70740	0.64241
1895.77883	0.64188
1893.85027	0.64153
1891.92171	0.64084
1889.99314	0.64020
1888.06458	0.63972
1886.13601	0.63891
1884.20745	0.63802
1882.27888	0.63730
1880.35032	0.63631
1878.42175	0.63498
1876.49319	0.63370
1874.56463	0.63233
1872.63606	0.63063
1870.70750	0.62916
1868.77893	0.62891
1866.85037	0.62909
1864.92180	0.62826
1862.99324	0.62712
1861.06467	0.62642
1859.13611	0.62614
1857.20755	0.62596
1855.27898	0.62577
1853.35042	0.62561
1851.42185	0.62527
1849.49329	0.62460
1847.56472	0.62382
1845.63616	0.62386
1843.70759	0.62534
1841.77903	0.62627
1839.85047	0.62603
1837.92190	0.62579
1835.99334	0.62597
1834.06477	0.62574
1832.13621	0.62505
1830.20764	0.62516
1828.27908	0.62596
1826.35051	0.62634
1824.42195	0.62685
1822.49339	0.62729
1820.56482	0.62714
1818.63626	0.62690
1816.70769	0.62683
1814.77913	0.62659
1812.85056	0.62612
1810.92200	0.62606
1808.99343	0.62647
1807.06487	0.62660
1805.13631	0.62625
1803.20774	0.62554
1801.27918	0.62482
1799.35061	0.62420
1797.42205	0.62338
1795.49348	0.62247
1793.56492	0.62202
1791.63635	0.62237
1789.70779	0.62205
1787.77923	0.62074
1785.85066	0.61942
1783.92210	0.61853
1781.99353	0.61809
1780.06497	0.61809
1778.13640	0.61793
1776.20784	0.61706
1774.27927	0.61607
1772.35071	0.61631
1770.42215	0.61757
1768.49358	0.61837
1766.56502	0.61853
1764.63645	0.61819
1762.70789	0.61849
1760.77932	0.62013
1758.85076	0.62199
1756.92220	0.62452
1754.99363	0.62712
1753.06507	0.62925
1751.13650	0.63366
1749.20794	0.64176
1747.27937	0.64967
1745.35081	0.65598
1743.42224	0.66186
1741.49368	0.66794
1739.56512	0.67383
1737.63655	0.67727
1735.70799	0.67936
1733.77942	0.68502
1731.85086	0.69137
1729.92229	0.69581
1727.99373	0.70067
1726.06516	0.70603
1724.13660	0.71316
1722.20804	0.72071
1720.27947	0.72698
1718.35091	0.73733
1716.42234	0.75768
1714.49378	0.77522
1712.56521	0.78812
1710.63665	0.80198
1708.70808	0.81831
1706.77952	0.84228
1704.85096	0.87495
1702.92239	0.90524
1700.99383	0.94771
1699.06526	1.01663
1697.13670	1.08208
1695.20813	1.14536
1693.27957	1.19148
1691.35100	1.22729
1689.42244	1.27115
1687.49388	1.31178
1685.56531	1.34952
1683.63675	1.40397
1681.70818	1.44289
1679.77962	1.46511
1677.85105	1.48508
1675.92249	1.50664
1673.99392	1.52772
1672.06536	1.54356
1670.13680	1.55834
1668.20823	1.57111
1666.27967	1.57394
1664.35110	1.57318
1662.42254	1.57610
1660.49397	1.58210
1658.56541	1.58540
1656.63684	1.58370
1654.70828	1.58040
1652.77972	1.58223
1650.85115	1.58589
1648.92259	1.58654
1646.99402	1.58181
1645.06546	1.57419
1643.13689	1.56907
1641.20833	1.56455
1639.27976	1.55806
1637.35120	1.55328
1635.42264	1.55467
1633.49407	1.55277
1631.56551	1.54835
1629.63694	1.54352
1627.70838	1.53709
1625.77981	1.52871
1623.85125	1.51894
1621.92269	1.50726
1619.99412	1.49518
1618.06556	1.48096
1616.13699	1.46278
1614.20843	1.44805
1612.27986	1.43462
1610.35130	1.41939
1608.42273	1.40387
1606.49417	1.39020
1604.56561	1.37849
1602.63704	1.36799
1600.70848	1.36018
1598.77991	1.35540
1596.85135	1.35202
1594.92278	1.34868
1592.99422	1.34539
1591.06565	1.34391
1589.13709	1.34540
1587.20853	1.34953
1585.27996	1.35600
1583.35140	1.36530
1581.42283	1.37555
1579.49427	1.38405
1577.56570	1.39531
1575.63714	1.41489
1573.70857	1.42786
1571.78001	1.43480
1569.85145	1.44790
1567.92288	1.46328
1565.99432	1.47187
1564.06575	1.47699
1562.13719	1.47871
1560.20862	1.48234
1558.28006	1.50384
1556.35149	1.51577
1554.42293	1.51486
1552.49437	1.51147
1550.56580	1.50802
1548.63724	1.50380
1546.70867	1.49804
1544.78011	1.49120
1542.85154	1.48598
1540.92298	1.48374
1538.99441	1.47932
1537.06585	1.47458
1535.13729	1.47012
1533.20872	1.46567
1531.28016	1.45997
1529.35159	1.45255
1527.42303	1.44392
1525.49446	1.43685
1523.56590	1.43459
1521.63733	1.43439
1519.70877	1.43059
1517.78021	1.42298
1515.85164	1.41245
1513.92308	1.39913
1511.99451	1.38385
1510.06595	1.36838
1508.13738	1.34916
1506.20882	1.32291
1504.28025	1.30636
1502.35169	1.29188
1500.42313	1.27441
1498.49456	1.25516
1496.56600	1.23642
1494.63743	1.22065
1492.70887	1.20763
1490.78030	1.19364
1488.85174	1.17819
1486.92317	1.16698
1484.99461	1.15914
1483.06605	1.15338
1481.13748	1.15045
1479.20892	1.15046
1477.28035	1.15333
1475.35179	1.16075
1473.42322	1.17697
1471.49466	1.19652
1469.56610	1.20651
1467.63753	1.21180
1465.70897	1.21880
1463.78040	1.22642
1461.85184	1.22895
1459.92327	1.22824
1457.99471	1.23096
1456.06614	1.23944
1454.13758	1.24211
1452.20902	1.24070
1450.28045	1.23754
1448.35189	1.23300
1446.42332	1.22841
1444.49476	1.22453
1442.56619	1.21966
1440.63763	1.21301
1438.70906	1.20508
1436.78050	1.19526
1434.85194	1.18529
1432.92337	1.17710
1430.99481	1.16932
1429.06624	1.16208
1427.13768	1.15681
1425.20911	1.15468
1423.28055	1.15617
1421.35198	1.15926
1419.42342	1.16412
1417.49486	1.17008
1415.56629	1.17348
1413.63773	1.17594
1411.70916	1.17890
1409.78060	1.18197
1407.85203	1.18447
1405.92347	1.18692
1403.99490	1.18901
1402.06634	1.18914
1400.13778	1.18762
1398.20921	1.18558
1396.28065	1.18424
1394.35208	1.18424
1392.42352	1.18460
1390.49495	1.18497
1388.56639	1.18752
1386.63782	1.19404
1384.70926	1.20142
1382.78070	1.20718
1380.85213	1.21062
1378.92357	1.21062
1376.99500	1.20625
1375.06644	1.19688
1373.13787	1.18477
1371.20931	1.17287
1369.28074	1.15890
1367.35218	1.14215
1365.42362	1.12579
1363.49505	1.11102
1361.56649	1.09962
1359.63792	1.09244
1357.70936	1.08740
1355.78079	1.08364
1353.85223	1.08112
1351.92366	1.07970
1349.99510	1.07909
1348.06654	1.07875
1346.13797	1.07833
1344.20941	1.07786
1342.28084	1.07684
1340.35228	1.07543
1338.42371	1.07541
1336.49515	1.07774
1334.56659	1.08179
1332.63802	1.08686
1330.70946	1.09193
1328.78089	1.09607
1326.85233	1.09900
1324.92376	1.10093
1322.99520	1.10260
1321.06663	1.10504
1319.13807	1.10845
1317.20951	1.11164
1315.28094	1.11413
1313.35238	1.11671
1311.42381	1.11905
1309.49525	1.12062
1307.56668	1.12198
1305.63812	1.12318
1303.70955	1.12388
1301.78099	1.12389
1299.85243	1.12292
1297.92386	1.12125
1295.99530	1.11965
1294.06673	1.11854
1292.13817	1.11804
1290.20960	1.11851
1288.28104	1.11974
1286.35247	1.12072
1284.42391	1.12094
1282.49535	1.12022
1280.56678	1.11861
1278.63822	1.11746
1276.70965	1.11805
1274.78109	1.11980
1272.85252	1.12200
1270.92396	1.12495
1268.99539	1.12898
1267.06683	1.13355
1265.13827	1.13735
1263.20970	1.13966
1261.28114	1.14111
1259.35257	1.14292
1257.42401	1.14570
1255.49544	1.14863
1253.56688	1.15039
1251.63831	1.15138
1249.70975	1.15332
1247.78119	1.15629
1245.85262	1.15847
1243.92406	1.15906
1241.99549	1.15920
1240.06693	1.15891
1238.13836	1.15696
1236.20980	1.15376
1234.28123	1.15043
1232.35267	1.14670
1230.42411	1.14140
1228.49554	1.13403
1226.56698	1.12517
1224.63841	1.11512
1222.70985	1.10433
1220.78128	1.09389
1218.85272	1.08413
1216.92415	1.07489
1214.99559	1.06684
1213.06703	1.06102
1211.13846	1.05721
1209.20990	1.05432
1207.28133	1.05133
1205.35277	1.04681
1203.42420	1.03945
1201.49564	1.02943
1199.56708	1.01813
1197.63851	1.00731
1195.70995	0.99820
1193.78138	0.99109
1191.85282	0.98565
1189.92425	0.98142
1187.99569	0.97880
1186.06712	0.97882
1184.13856	0.98147
1182.21000	0.98629
1180.28143	0.99316
1178.35287	1.00153
1176.42430	1.01100
1174.49574	1.02138
1172.56717	1.03188
1170.63861	1.04218
1168.71004	1.05350
1166.78148	1.06717
1164.85292	1.08286
1162.92435	1.09910
1160.99579	1.11302
1159.06722	1.11988
1157.13866	1.11753
1155.21009	1.10829
1153.28153	1.09420
1151.35296	1.07615
1149.42440	1.05637
1147.49584	1.03764
1145.56727	1.02184
1143.63871	1.01047
1141.71014	1.00457
1139.78158	1.00429
1137.85301	1.00880
1135.92445	1.01657
1133.99588	1.02645
1132.06732	1.03931
1130.13876	1.05598
1128.21019	1.07486
1126.28163	1.09353
1124.35306	1.11062
1122.42450	1.12573
1120.49593	1.13870
1118.56737	1.14865
1116.63880	1.15430
1114.71024	1.15555
1112.78168	1.15371
1110.85311	1.15021
1108.92455	1.14619
1106.99598	1.14223
1105.06742	1.13817
1103.13885	1.13408
1101.21029	1.13073
1099.28172	1.12949
1097.35316	1.13137
1095.42460	1.13622
1093.49603	1.14346
1091.56747	1.15256
1089.63890	1.16302
1087.71034	1.17517
1085.78177	1.18987
1083.85321	1.20649
1081.92464	1.22136
1079.99608	1.22972
1078.06752	1.23053
1076.13895	1.22627
1074.21039	1.21839
1072.28182	1.20731
1070.35326	1.19415
1068.42469	1.17981
1066.49613	1.16569
1064.56756	1.15386
1062.63900	1.14423
1060.71044	1.13579
1058.78187	1.12897
1056.85331	1.12343
1054.92474	1.11833
1052.99618	1.11425
1051.06761	1.11229
1049.13905	1.11364
1047.21049	1.11875
1045.28192	1.12674
1043.35336	1.13664
1041.42479	1.14701
1039.49623	1.15515
1037.56766	1.16016
1035.63910	1.16322
1033.71053	1.16450
1031.78197	1.16290
1029.85341	1.15792
1027.92484	1.15023
1025.99628	1.14038
1024.06771	1.12886
1022.13915	1.11729
1020.21058	1.10709
1018.28202	1.09812
1016.35345	1.08889
1014.42489	1.07759
1012.49633	1.06321
1010.56776	1.04630
1008.63920	1.02858
1006.71063	1.01148
1004.78207	0.99610
1002.85350	0.98344
1000.92494	0.97375
998.99637	0.96672
997.06781	0.96193
995.13925	0.95875
993.21068	0.95561
991.28212	0.95140
989.35355	0.94671
987.42499	0.94237
985.49642	0.93900
983.56786	0.93717
981.63929	0.93665
979.71073	0.93712
977.78217	0.93785
975.85360	0.93679
973.92504	0.93224
971.99647	0.92425
970.06791	0.91388
968.13934	0.90221
966.21078	0.89060
964.28221	0.88061
962.35365	0.87356
960.42509	0.87091
958.49652	0.87284
956.56796	0.87553
954.63939	0.87339
952.71083	0.86492
950.78226	0.85283
948.85370	0.84027
946.92513	0.82952
944.99657	0.82181
943.06801	0.81736
941.13944	0.81535
939.21088	0.81478
937.28231	0.81553
935.35375	0.81794
933.42518	0.82193
931.49662	0.82704
929.56805	0.83301
927.63949	0.83984
925.71093	0.84753
923.78236	0.85590
921.85380	0.86436
919.92523	0.87179
917.99667	0.87740
916.06810	0.88181
914.13954	0.88620
912.21098	0.89110
910.28241	0.89615
908.35385	0.90098
906.42528	0.90583
904.49672	0.91113
902.56815	0.91662
900.63959	0.92082
898.71102	0.92263
896.78246	0.92243
894.85390	0.92044
892.92533	0.91724
890.99677	0.91410
889.06820	0.91162
887.13964	0.91025
885.21107	0.91008
883.28251	0.91072
881.35394	0.91213
879.42538	0.91443
877.49682	0.91756
875.56825	0.92140
873.63969	0.92565
871.71112	0.93018
869.78256	0.93459
867.85399	0.93874
865.92543	0.94331
863.99686	0.94855
862.06830	0.95406
860.13974	0.95957
858.21117	0.96511
856.28261	0.97074
854.35404	0.97617
852.42548	0.98104
850.49691	0.98473
848.56835	0.98673
846.63978	0.98773
844.71122	0.98890
842.78266	0.99056
840.85409	0.99233
838.92553	0.99359
836.99696	0.99450
835.06840	0.99609
833.13983	0.99818
831.21127	0.99907
829.28270	0.99890
827.35414	0.99891
825.42558	0.99866
823.49701	0.99783
821.56845	0.99750
819.63988	0.99812
817.71132	0.99902
815.78275	0.99974
813.85419	1.00069
811.92562	1.00260
809.99706	1.00470
808.06850	1.00549
806.13993	1.00556
804.21137	1.00628
802.28280	1.00814
800.35424	1.01143
798.42567	1.01462
796.49711	1.01593
794.56854	1.01692
792.63998	1.01895
790.71142	1.02081
788.78285	1.02192
786.85429	1.02300
784.92572	1.02477
782.99716	1.02697
781.06859	1.02814
779.14003	1.02747
777.21147	1.02638
775.28290	1.02664
773.35434	1.02763
771.42577	1.02834
769.49721	1.02934
767.56864	1.03107
765.64008	1.03350
763.71151	1.03608
761.78295	1.03792
759.85439	1.03965
757.92582	1.04287
755.99726	1.04794
754.06869	1.05413
752.14013	1.06066
750.21156	1.06644
748.28300	1.07079
746.35443	1.07486
744.42587	1.07988
742.49731	1.08505
740.56874	1.08946
738.64018	1.09391
736.71161	1.09889
734.78305	1.10338
732.85448	1.10728
730.92592	1.11261
728.99735	1.11990
727.06879	1.12667
725.14023	1.13215
723.21166	1.13707
721.28310	1.14063
719.35453	1.14309
717.42597	1.14545
715.49740	1.14729
713.56884	1.14963
711.64027	1.15415
709.71171	1.15987
707.78315	1.16513
705.85458	1.16976
703.92602	1.17443
701.99745	1.17916
700.06889	1.18260
698.14032	1.18366
696.21176	1.18332
694.28319	1.18258
692.35463	1.18006
690.42607	1.17636
688.49750	1.17509
686.56894	1.17443
684.64037	1.16986
682.71181	1.16312
680.78324	1.15795
678.85468	1.15369
676.92611	1.14761
674.99755	1.13980
673.06899	1.13277
671.14042	1.12713
669.21186	1.12065
667.28329	1.11396
665.35473	1.10952
663.42616	1.10528
661.49760	1.10121
659.56903	1.09773
657.64047	1.09381
655.71191	1.08879
653.78334	1.08407
651.85478	1.08217
649.92621	1.08286
647.99765	1.08343
646.06908	1.08307
644.14052	1.08325
642.21195	1.08590
640.28339	1.09041
638.35483	1.09322
636.42626	1.09427
634.49770	1.09601
632.56913	1.09616
630.64057	1.09358
628.71200	1.09254
626.78344	1.09390
624.85488	1.09458
622.92631	1.09455
620.99775	1.09572
619.06918	1.09961
617.14062	1.10471
615.21205	1.10581
613.28349	1.10370
611.35492	1.10230
609.42636	1.10201
607.49780	1.10332
605.56923	1.10530
603.64067	1.10648
601.71210	1.10945
599.78354	1.11370
