3997.91406	1.07413
3995.98550	1.07312
3994.05693	1.07128
3992.12837	1.06918
3990.19980	1.06664
3988.27124	1.06437
3986.34268	1.06422
3984.41411	1.06629
3982.48555	1.06884
3980.55698	1.06894
3978.62842	1.06654
3976.69985	1.06632
3974.77129	1.06883
3972.84272	1.06926
3970.91416	1.06709
3968.98560	1.06458
3967.05703	1.06253
3965.12847	1.06163
3963.19990	1.06189
3961.27134	1.06285
3959.34277	1.06357
3957.41421	1.06287
3955.48564	1.06198
3953.55708	1.06206
3951.62852	1.06069
3949.69995	1.05670
3947.77139	1.05359
3945.84282	1.05357
3943.91426	1.05628
3941.98569	1.05946
3940.05713	1.05927
3938.12856	1.05744
3936.20000	1.05683
3934.27144	1.05603
3932.34287	1.05517
3930.41431	1.05570
3928.48574	1.05441
3926.55718	1.05128
3924.62861	1.04983
3922.70005	1.04963
3920.77148	1.05038
3918.84292	1.05298
3916.91436	1.05363
3914.98579	1.05067
3913.05723	1.04692
3911.12866	1.04365
3909.20010	1.04094
3907.27153	1.03813
3905.34297	1.03628
3903.41440	1.03708
3901.48584	1.03752
3899.55728	1.03667
3897.62871	1.03587
3895.70015	1.03428
3893.77158	1.03174
3891.84302	1.02996
3889.91445	1.02875
3887.98589	1.02684
3886.05733	1.02694
3884.12876	1.02899
3882.20020	1.02909
3880.27163	1.02893
3878.34307	1.02818
3876.41450	1.02439
3874.48594	1.01945
3872.55737	1.01764
3870.62881	1.01966
3868.70025	1.02107
3866.77168	1.01885
3864.84312	1.01473
3862.91455	1.01262
3860.98599	1.01389
3859.05742	1.01586
3857.12886	1.01740
3855.20029	1.01931
3853.27173	1.01937
3851.34317	1.01632
3849.41460	1.01476
3847.48604	1.01378
3845.55747	1.01261
3843.62891	1.01164
3841.70034	1.01082
3839.77178	1.01003
3837.84321	1.00930
3835.91465	1.00920
3833.98609	1.00980
3832.05752	1.00846
3830.12896	1.00455
3828.20039	1.00187
3826.27183	1.00229
3824.34326	1.00283
3822.41470	1.00124
3820.48613	0.99850
3818.55757	0.99575
3816.62901	0.99458
3814.70044	0.99633
3812.77188	0.99817
3810.84331	0.99869
3808.91475	0.99869
3806.98618	0.99950
3805.05762	0.99887
3803.12905	0.99555
3801.20049	0.99414
3799.27193	0.99597
3797.34336	0.99785
3795.41480	0.99901
3793.48623	0.99905
3791.55767	0.99896
3789.62910	0.99892
3787.70054	0.99777
3785.77197	0.99517
3783.84341	0.99273
3781.91485	0.99145
3779.98628	0.99058
3778.05772	0.98916
3776.12915	0.98652
3774.20059	0.98351
3772.27202	0.98186
3770.34346	0.98247
3768.41489	0.98351
3766.48633	0.98360
3764.55777	0.98364
3762.62920	0.98352
3760.70064	0.98290
3758.77207	0.98056
3756.84351	0.97672
3754.91494	0.97376
3752.98638	0.97218
3751.05781	0.97501
3749.12925	0.98023
3747.20069	0.97935
3745.27212	0.97463
3743.34356	0.97228
3741.41499	0.97215
3739.48643	0.97103
3737.55786	0.96718
3735.62930	0.96123
3733.70074	0.96213
3731.77217	0.96793
3729.84361	0.97102
3727.91504	0.97246
3725.98648	0.97346
3724.05791	0.97255
3722.12935	0.97125
3720.20078	0.97193
3718.27222	0.97309
3716.34366	0.97304
3714.41509	0.97226
3712.48653	0.97217
3710.55796	0.97457
3708.62940	0.97757
3706.70083	0.97865
3704.77227	0.97776
3702.84370	0.97663
3700.91514	0.97756
3698.98658	0.97924
3697.05801	0.97999
3695.12945	0.97998
3693.20088	0.97946
3691.27232	0.97853
3689.34375	0.98012
3687.41519	0.98540
3685.48662	0.98874
3683.55806	0.99048
3681.62950	0.99413
3679.70093	0.99855
3677.77237	0.99902
3675.84380	0.99934
3673.91524	1.00406
3671.98667	1.00691
3670.05811	1.01126
3668.12954	1.01804
3666.20098	1.02414
3664.27242	1.03105
3662.34385	1.03793
3660.41529	1.04304
3658.48672	1.04734
3656.55816	1.05335
3654.62959	1.05946
3652.70103	1.06291
3650.77246	1.06556
3648.84390	1.07372
3646.91534	1.08478
3644.98677	1.09236
3643.05821	1.09940
3641.12964	1.10778
3639.20108	1.11710
3637.27251	1.12564
3635.34395	1.13086
3633.41538	1.13337
3631.48682	1.13773
3629.55826	1.15046
3627.62969	1.16637
3625.70113	1.17372
3623.77256	1.17863
3621.84400	1.18535
3619.91543	1.19592
3617.98687	1.20681
3616.05830	1.21448
3614.12974	1.22335
3612.20118	1.23158
3610.27261	1.23608
3608.34405	1.24545
3606.41548	1.25957
3604.48692	1.26590
3602.55835	1.26659
3600.62979	1.27032
3598.70123	1.27647
3596.77266	1.28381
3594.84410	1.29760
3592.91553	1.30971
3590.98697	1.31096
3589.05840	1.31116
3587.12984	1.32386
3585.20127	1.34019
3583.27271	1.34799
3581.34415	1.35159
3579.41558	1.35810
3577.48702	1.36812
3575.55845	1.37739
3573.62989	1.38537
3571.70132	1.39201
3569.77276	1.39572
3567.84419	1.40117
3565.91563	1.41232
3563.98707	1.42286
3562.05850	1.43435
3560.12994	1.44661
3558.20137	1.45548
3556.27281	1.46226
3554.34424	1.47176
3552.41568	1.48359
3550.48711	1.49251
3548.55855	1.50018
3546.62999	1.50827
3544.70142	1.51465
3542.77286	1.52070
3540.84429	1.52470
3538.91573	1.52605
3536.98716	1.53217
3535.05860	1.54397
3533.13003	1.55356
3531.20147	1.56081
3529.27291	1.56650
3527.34434	1.57179
3525.41578	1.58414
3523.48721	1.60246
3521.55865	1.61493
3519.63008	1.61613
3517.70152	1.61487
3515.77295	1.62000
3513.84439	1.62696
3511.91583	1.63024
3509.98726	1.63618
3508.05870	1.65065
3506.13013	1.66783
3504.20157	1.67905
3502.27300	1.68494
3500.34444	1.69449
3498.41587	1.70770
3496.48731	1.71610
3494.55875	1.71389
3492.63018	1.70884
3490.70162	1.71270
3488.77305	1.72311
3486.84449	1.73212
3484.91592	1.73812
3482.98736	1.74163
3481.05879	1.74575
3479.13023	1.75069
3477.20167	1.75245
3475.27310	1.75340
3473.34454	1.75878
3471.41597	1.76598
3469.48741	1.77029
3467.55884	1.77516
3465.63028	1.78132
3463.70171	1.77769
3461.77315	1.76271
3459.84459	1.75166
3457.91602	1.75246
3455.98746	1.76160
3454.05889	1.77228
3452.13033	1.77685
3450.20176	1.77730
3448.27320	1.78090
3446.34464	1.78262
3444.41607	1.78268
3442.48751	1.79348
3440.55894	1.81156
3438.63038	1.82381
3436.70181	1.83065
3434.77325	1.83856
3432.84468	1.84022
3430.91612	1.83095
3428.98756	1.82312
3427.05899	1.81506
3425.13043	1.80477
3423.20186	1.80163
3421.27330	1.79936
3419.34473	1.79613
3417.41617	1.80216
3415.48760	1.81357
3413.55904	1.82347
3411.63048	1.83105
3409.70191	1.83236
3407.77335	1.82737
3405.84478	1.82558
3403.91622	1.83023
3401.98765	1.83420
3400.05909	1.83534
3398.13052	1.83927
3396.20196	1.84621
3394.27340	1.85266
3392.34483	1.85837
3390.41627	1.85848
3388.48770	1.85088
3386.55914	1.84543
3384.63057	1.84513
3382.70201	1.84114
3380.77344	1.83237
3378.84488	1.82879
3376.91632	1.83686
3374.98775	1.84641
3373.05919	1.84933
3371.13062	1.85463
3369.20206	1.86006
3367.27349	1.85802
3365.34493	1.85250
3363.41636	1.84672
3361.48780	1.84772
3359.55924	1.85563
3357.63067	1.85827
3355.70211	1.85628
3353.77354	1.85681
3351.84498	1.85563
3349.91641	1.84905
3347.98785	1.84190
3346.05928	1.83997
3344.13072	1.84451
3342.20216	1.85329
3340.27359	1.86544
3338.34503	1.87443
3336.41646	1.87026
3334.48790	1.85899
3332.55933	1.85014
3330.63077	1.84531
3328.70220	1.84811
3326.77364	1.85732
3324.84508	1.86141
3322.91651	1.85519
3320.98795	1.85084
3319.05938	1.86061
3317.13082	1.87975
3315.20225	1.89370
3313.27369	1.89429
3311.34513	1.88246
3309.41656	1.87105
3307.48800	1.87500
3305.55943	1.88800
3303.63087	1.89732
3301.70230	1.89961
3299.77374	1.88791
3297.84517	1.87118
3295.91661	1.87482
3293.98805	1.89389
3292.05948	1.89720
3290.13092	1.88553
3288.20235	1.87956
3286.27379	1.87802
3284.34522	1.87845
3282.41666	1.88276
3280.48809	1.88415
3278.55953	1.88109
3276.63097	1.87862
3274.70240	1.87475
3272.77384	1.86597
3270.84527	1.85805
3268.91671	1.85825
3266.98814	1.86567
3265.05958	1.87133
3263.13101	1.86755
3261.20245	1.85853
3259.27389	1.85161
3257.34532	1.84721
3255.41676	1.83956
3253.48819	1.82602
3251.55963	1.81598
3249.63106	1.81477
3247.70250	1.81349
3245.77393	1.80938
3243.84537	1.81126
3241.91681	1.81531
3239.98824	1.81061
3238.05968	1.80207
3236.13111	1.79799
3234.20255	1.79178
3232.27398	1.77592
3230.34542	1.76222
3228.41685	1.75919
3226.48829	1.75584
3224.55973	1.74972
3222.63116	1.74839
3220.70260	1.75045
3218.77403	1.75248
3216.84547	1.75390
3214.91690	1.75557
3212.98834	1.75747
3211.05977	1.75329
3209.13121	1.74197
3207.20265	1.73362
3205.27408	1.73058
3203.34552	1.72640
3201.41695	1.71926
3199.48839	1.71256
3197.55982	1.70668
3195.63126	1.69714
3193.70269	1.69010
3191.77413	1.69363
3189.84557	1.69769
3187.91700	1.69394
3185.98844	1.69092
3184.05987	1.69362
3182.13131	1.69477
3180.20274	1.69034
3178.27418	1.68363
3176.34562	1.67551
3174.41705	1.66743
3172.48849	1.66113
3170.55992	1.65614
3168.63136	1.65436
3166.70279	1.65514
3164.77423	1.65465
3162.84566	1.65170
3160.91710	1.64510
3158.98854	1.63703
3157.05997	1.63346
3155.13141	1.63523
3153.20284	1.63729
3151.27428	1.63338
3149.34571	1.62536
3147.41715	1.61999
3145.48858	1.61532
3143.56002	1.60978
3141.63146	1.60626
3139.70289	1.60618
3137.77433	1.61069
3135.84576	1.61407
3133.91720	1.61117
3131.98863	1.60717
3130.06007	1.60521
3128.13150	1.60247
3126.20294	1.59692
3124.27438	1.59178
3122.34581	1.59175
3120.41725	1.59619
3118.48868	1.59939
3116.56012	1.59558
3114.63155	1.58763
3112.70299	1.58191
3110.77442	1.57946
3108.84586	1.58145
3106.91730	1.58801
3104.98873	1.59419
3103.06017	1.59576
3101.13160	1.59263
3099.20304	1.58757
3097.27447	1.58360
3095.34591	1.58228
3093.41734	1.58444
3091.48878	1.58978
3089.56022	1.59256
3087.63165	1.58776
3085.70309	1.58084
3083.77452	1.57589
3081.84596	1.57122
3079.91739	1.56968
3077.98883	1.57203
3076.06026	1.57203
3074.13170	1.57020
3072.20314	1.57234
3070.27457	1.57482
3068.34601	1.57032
3066.41744	1.56196
3064.48888	1.55707
3062.56031	1.55444
3060.63175	1.55123
3058.70318	1.55018
3056.77462	1.54832
3054.84606	1.54084
3052.91749	1.53403
3050.98893	1.53311
3049.06036	1.53279
3047.13180	1.52836
3045.20323	1.52344
3043.27467	1.51981
3041.34610	1.51565
3039.41754	1.51215
3037.48898	1.50798
3035.56041	1.50106
3033.63185	1.49283
3031.70328	1.48410
3029.77472	1.47801
3027.84615	1.47775
3025.91759	1.48009
3023.98903	1.47935
3022.06046	1.47541
3020.13190	1.47224
3018.20333	1.46956
3016.27477	1.46533
3014.34620	1.46068
3012.41764	1.45698
3010.48907	1.45423
3008.56051	1.45073
3006.63195	1.44700
3004.70338	1.44626
3002.77482	1.44670
3000.84625	1.44581
2998.91769	1.44516
2996.98912	1.44592
2995.06056	1.45008
2993.13199	1.45828
2991.20343	1.46520
2989.27487	1.46586
2987.34630	1.46298
2985.41774	1.46369
2983.48917	1.47119
2981.56061	1.48234
2979.63204	1.49175
2977.70348	1.49672
2975.77491	1.50004
2973.84635	1.50775
2971.91779	1.51826
2969.98922	1.52461
2968.06066	1.53013
2966.13209	1.53837
2964.20353	1.54443
2962.27496	1.54756
2960.34640	1.54934
2958.41783	1.54751
2956.48927	1.54007
2954.56071	1.52953
2952.63214	1.52155
2950.70358	1.51976
2948.77501	1.52176
2946.84645	1.52259
2944.91788	1.52404
2942.98932	1.52989
2941.06075	1.53922
2939.13219	1.55170
2937.20363	1.56633
2935.27506	1.57854
2933.34650	1.58548
2931.41793	1.58984
2929.48937	1.59610
2927.56080	1.60391
2925.63224	1.61045
2923.70367	1.61696
2921.77511	1.62359
2919.84655	1.62551
2917.91798	1.62016
2915.98942	1.60602
2914.06085	1.58124
2912.13229	1.55168
2910.20372	1.52640
2908.27516	1.50654
2906.34659	1.48834
2904.41803	1.47361
2902.48947	1.46623
2900.56090	1.46323
2898.63234	1.45936
2896.70377	1.45339
2894.77521	1.44777
2892.84664	1.44432
2890.91808	1.44090
2888.98952	1.43708
2887.06095	1.43472
2885.13239	1.43378
2883.20382	1.43398
2881.27526	1.43444
2879.34669	1.43489
2877.41813	1.43482
2875.48956	1.43147
2873.56100	1.42510
2871.63244	1.41831
2869.70387	1.41185
2867.77531	1.40603
2865.84674	1.40256
2863.91818	1.40201
2861.98961	1.40207
2860.06105	1.40314
2858.13248	1.40755
2856.20392	1.41509
2854.27536	1.42479
2852.34679	1.43462
2850.41823	1.43877
2848.48966	1.42842
2846.56110	1.40177
2844.63253	1.37002
2842.70397	1.34424
2840.77540	1.32575
2838.84684	1.31182
2836.91828	1.30179
2834.98971	1.29485
2833.06115	1.28856
2831.13258	1.28237
2829.20402	1.27742
2827.27545	1.27275
2825.34689	1.26619
2823.41832	1.25873
2821.48976	1.25353
2819.56120	1.25155
2817.63263	1.24992
2815.70407	1.24644
2813.77550	1.24249
2811.84694	1.23864
2809.91837	1.23456
2807.98981	1.23118
2806.06124	1.22843
2804.13268	1.22584
2802.20412	1.22286
2800.27555	1.21883
2798.34699	1.21475
2796.41842	1.21120
2794.48986	1.20756
2792.56129	1.20415
2790.63273	1.20121
2788.70416	1.19954
2786.77560	1.19965
2784.84704	1.19906
2782.91847	1.19665
2780.98991	1.19397
2779.06134	1.19103
2777.13278	1.18776
2775.20421	1.18485
2773.27565	1.18201
2771.34708	1.17842
2769.41852	1.17422
2767.48996	1.17101
2765.56139	1.16966
2763.63283	1.16822
2761.70426	1.16502
2759.77570	1.16134
2757.84713	1.15822
2755.91857	1.15497
2753.99001	1.15157
2752.06144	1.14894
2750.13288	1.14718
2748.20431	1.14546
2746.27575	1.14305
2744.34718	1.14091
2742.41862	1.14031
2740.49005	1.13973
2738.56149	1.13765
2736.63293	1.13498
2734.70436	1.13338
2732.77580	1.13294
2730.84723	1.13165
2728.91867	1.12931
2726.99010	1.12719
2725.06154	1.12543
2723.13297	1.12374
2721.20441	1.12095
2719.27585	1.11771
2717.34728	1.11625
2715.41872	1.11570
2713.49015	1.11379
2711.56159	1.11009
2709.63302	1.10574
2707.70446	1.10281
2705.77589	1.10187
2703.84733	1.10078
2701.91877	1.09859
2699.99020	1.09642
2698.06164	1.09475
2696.13307	1.09359
2694.20451	1.09215
2692.27594	1.08975
2690.34738	1.08705
2688.41881	1.08495
2686.49025	1.08392
2684.56169	1.08323
2682.63312	1.08121
2680.70456	1.07806
2678.77599	1.07620
2676.84743	1.07613
2674.91886	1.07584
2672.99030	1.07405
2671.06173	1.07126
2669.13317	1.06927
2667.20461	1.06861
2665.27604	1.06803
2663.34748	1.06688
2661.41891	1.06540
2659.49035	1.06402
2657.56178	1.06281
2655.63322	1.06151
2653.70465	1.06027
2651.77609	1.05906
2649.84753	1.05759
2647.91896	1.05608
2645.99040	1.05453
2644.06183	1.05228
2642.13327	1.04956
2640.20470	1.04708
2638.27614	1.04511
2636.34757	1.04397
2634.41901	1.04354
2632.49045	1.04260
2630.56188	1.04053
2628.63332	1.03860
2626.70475	1.03762
2624.77619	1.03688
2622.84762	1.03592
2620.91906	1.03487
2618.99049	1.03373
2617.06193	1.03244
2615.13337	1.03079
2613.20480	1.02883
2611.27624	1.02755
2609.34767	1.02716
2607.41911	1.02665
2605.49054	1.02576
2603.56198	1.02462
2601.63342	1.02327
2599.70485	1.02172
2597.77629	1.01952
2595.84772	1.01670
2593.91916	1.01382
2591.99059	1.01154
2590.06203	1.01002
2588.13346	1.00854
2586.20490	1.00638
2584.27634	1.00325
2582.34777	0.99954
2580.41921	0.99649
2578.49064	0.99427
2576.56208	0.99208
2574.63351	0.99002
2572.70495	0.98866
2570.77638	0.98777
2568.84782	0.98668
2566.91926	0.98513
2564.99069	0.98349
2563.06213	0.98238
2561.13356	0.98195
2559.20500	0.98135
2557.27643	0.97992
2555.34787	0.97834
2553.41930	0.97793
2551.49074	0.97834
2549.56218	0.97762
2547.63361	0.97559
2545.70505	0.97392
2543.77648	0.97331
2541.84792	0.97283
2539.91935	0.97135
2537.99079	0.96932
2536.06222	0.96762
2534.13366	0.96608
2532.20510	0.96459
2530.27653	0.96358
2528.34797	0.96273
2526.41940	0.96130
2524.49084	0.96000
2522.56227	0.95949
2520.63371	0.95880
2518.70514	0.95756
2516.77658	0.95639
2514.84802	0.95504
2512.91945	0.95339
2510.99089	0.95169
2509.06232	0.94999
2507.13376	0.94864
2505.20519	0.94774
2503.27663	0.94671
2501.34806	0.94519
2499.41950	0.94350
2497.49094	0.94216
2495.56237	0.94131
2493.63381	0.94047
2491.70524	0.93858
2489.77668	0.93554
2487.84811	0.93238
2485.91955	0.92949
2483.99098	0.92664
2482.06242	0.92409
2480.13386	0.92219
2478.20529	0.92040
2476.27673	0.91849
2474.34816	0.91680
2472.41960	0.91527
2470.49103	0.91400
2468.56247	0.91308
2466.63391	0.91210
2464.70534	0.91070
2462.77678	0.90897
2460.84821	0.90723
2458.91965	0.90566
2456.99108	0.90408
2455.06252	0.90232
2453.13395	0.90064
2451.20539	0.89907
2449.27683	0.89748
2447.34826	0.89606
2445.41970	0.89472
2443.49113	0.89321
2441.56257	0.89150
2439.63400	0.88932
2437.70544	0.88673
2435.77687	0.88477
2433.84831	0.88401
2431.91975	0.88352
2429.99118	0.88255
2428.06262	0.88158
2426.13405	0.88078
2424.20549	0.87959
2422.27692	0.87824
2420.34836	0.87771
2418.41979	0.87799
2416.49123	0.87810
2414.56267	0.87749
2412.63410	0.87646
2410.70554	0.87595
2408.77697	0.87620
2406.84841	0.87599
2404.91984	0.87485
2402.99128	0.87375
2401.06271	0.87277
2399.13415	0.87150
2397.20559	0.87033
2395.27702	0.86945
2393.34846	0.86872
2391.41989	0.86796
2389.49133	0.86687
2387.56276	0.86506
2385.63420	0.86278
2383.70563	0.86108
2381.77707	0.86016
2379.84851	0.85906
2377.91994	0.85728
2375.99138	0.85510
2374.06281	0.85347
2372.13425	0.85362
2370.20568	0.85342
2368.27712	0.84968
2366.34855	0.84384
2364.41999	0.83808
2362.49143	0.83555
2360.56286	0.83835
2358.63430	0.84198
2356.70573	0.84391
2354.77717	0.84392
2352.84860	0.84161
2350.92004	0.83851
2348.99147	0.83582
2347.06291	0.83352
2345.13435	0.83113
2343.20578	0.82932
2341.27722	0.82845
2339.34865	0.82703
2337.42009	0.82643
2335.49152	0.82783
2333.56296	0.82867
2331.63440	0.82781
2329.70583	0.82576
2327.77727	0.82329
2325.84870	0.82225
2323.92014	0.82228
2321.99157	0.82178
2320.06301	0.82099
2318.13444	0.82051
2316.20588	0.82041
2314.27732	0.82079
2312.34875	0.82141
2310.42019	0.82168
2308.49162	0.82156
2306.56306	0.82127
2304.63449	0.82056
2302.70593	0.81955
2300.77736	0.81891
2298.84880	0.81852
2296.92024	0.81775
2294.99167	0.81693
2293.06311	0.81659
2291.13454	0.81628
2289.20598	0.81561
2287.27741	0.81499
2285.34885	0.81454
2283.42028	0.81404
2281.49172	0.81352
2279.56316	0.81297
2277.63459	0.81240
2275.70603	0.81193
2273.77746	0.81162
2271.84890	0.81143
2269.92033	0.81120
2267.99177	0.81108
2266.06320	0.81131
2264.13464	0.81178
2262.20608	0.81231
2260.27751	0.81260
2258.34895	0.81232
2256.42038	0.81158
2254.49182	0.81067
2252.56325	0.80971
2250.63469	0.80892
2248.70612	0.80842
2246.77756	0.80780
2244.84900	0.80690
2242.92043	0.80593
2240.99187	0.80505
2239.06330	0.80448
2237.13474	0.80420
2235.20617	0.80404
2233.27761	0.80364
2231.34904	0.80262
2229.42048	0.80155
2227.49192	0.80093
2225.56335	0.80019
2223.63479	0.79941
2221.70622	0.79923
2219.77766	0.79918
2217.84909	0.79871
2215.92053	0.79802
2213.99196	0.79759
2212.06340	0.79763
2210.13484	0.79746
2208.20627	0.79675
2206.27771	0.79611
2204.34914	0.79587
2202.42058	0.79575
2200.49201	0.79531
2198.56345	0.79440
2196.63488	0.79337
2194.70632	0.79248
2192.77776	0.79154
2190.84919	0.79039
2188.92063	0.78919
2186.99206	0.78831
2185.06350	0.78772
2183.13493	0.78691
2181.20637	0.78575
2179.27781	0.78475
2177.34924	0.78410
2175.42068	0.78348
2173.49211	0.78272
2171.56355	0.78208
2169.63498	0.78181
2167.70642	0.78194
2165.77785	0.78208
2163.84929	0.78184
2161.92073	0.78134
2159.99216	0.78106
2158.06360	0.78102
2156.13503	0.78089
2154.20647	0.78077
2152.27790	0.78076
2150.34934	0.78051
2148.42077	0.77993
2146.49221	0.77938
2144.56365	0.77897
2142.63508	0.77855
2140.70652	0.77805
2138.77795	0.77762
2136.84939	0.77743
2134.92082	0.77709
2132.99226	0.77621
2131.06369	0.77514
2129.13513	0.77412
2127.20657	0.77325
2125.27800	0.77263
2123.34944	0.77199
2121.42087	0.77136
2119.49231	0.77101
2117.56374	0.77088
2115.63518	0.77074
2113.70661	0.77044
2111.77805	0.77009
2109.84949	0.77006
2107.92092	0.77037
2105.99236	0.77047
2104.06379	0.77016
2102.13523	0.76970
2100.20666	0.76940
2098.27810	0.76924
2096.34953	0.76874
2094.42097	0.76786
2092.49241	0.76712
2090.56384	0.76642
2088.63528	0.76548
2086.70671	0.76442
2084.77815	0.76340
2082.84958	0.76239
2080.92102	0.76129
2078.99245	0.76002
2077.06389	0.75867
2075.13533	0.75739
2073.20676	0.75621
2071.27820	0.75513
2069.34963	0.75434
2067.42107	0.75396
2065.49250	0.75358
2063.56394	0.75290
2061.63537	0.75233
2059.70681	0.75208
2057.77825	0.75166
2055.84968	0.75098
2053.92112	0.75020
2051.99255	0.74935
2050.06399	0.74867
2048.13542	0.74797
2046.20686	0.74677
2044.27830	0.74527
2042.34973	0.74399
2040.42117	0.74307
2038.49260	0.74226
2036.56404	0.74128
2034.63547	0.73964
2032.70691	0.73741
2030.77834	0.73553
2028.84978	0.73443
2026.92122	0.73350
2024.99265	0.73220
2023.06409	0.73067
2021.13552	0.72914
2019.20696	0.72786
2017.27839	0.72702
2015.34983	0.72628
2013.42126	0.72544
2011.49270	0.72481
2009.56414	0.72453
2007.63557	0.72436
2005.70701	0.72410
2003.77844	0.72381
2001.84988	0.72351
1999.92131	0.72334
1997.99275	0.72338
1996.06418	0.72337
1994.13562	0.72309
1992.20706	0.72280
1990.27849	0.72261
1988.34993	0.72200
1986.42136	0.72100
1984.49280	0.72013
1982.56423	0.71959
1980.63567	0.71904
1978.70710	0.71812
1976.77854	0.71681
1974.84998	0.71550
1972.92141	0.71459
1970.99285	0.71402
1969.06428	0.71354
1967.13572	0.71317
1965.20715	0.71282
1963.27859	0.71243
1961.35002	0.71216
1959.42146	0.71174
1957.49290	0.71113
1955.56433	0.71065
1953.63577	0.71013
1951.70720	0.70933
1949.77864	0.70862
1947.85007	0.70808
1945.92151	0.70732
1943.99294	0.70671
1942.06438	0.70658
1940.13582	0.70627
1938.20725	0.70554
1936.27869	0.70468
1934.35012	0.70385
1932.42156	0.70317
1930.49299	0.70269
1928.56443	0.70227
1926.63586	0.70163
1924.70730	0.70078
1922.77874	0.70001
1920.85017	0.69928
1918.92161	0.69846
1916.99304	0.69766
1915.06448	0.69661
1913.13591	0.69544
1911.20735	0.69451
1909.27878	0.69394
1907.35022	0.69377
1905.42166	0.69364
1903.49309	0.69323
1901.56453	0.69268
1899.63596	0.69212
1897.70740	0.69154
1895.77883	0.69113
1893.85027	0.69072
1891.92171	0.68984
1889.99314	0.68873
1888.06458	0.68790
1886.13601	0.68725
1884.20745	0.68656
1882.27888	0.68586
1880.35032	0.68504
1878.42175	0.68392
1876.49319	0.68269
1874.56463	0.68153
1872.63606	0.68023
1870.70750	0.67878
1868.77893	0.67797
1866.85037	0.67778
1864.92180	0.67686
1862.99324	0.67544
1861.06467	0.67418
1859.13611	0.67316
1857.20755	0.67208
1855.27898	0.67094
1853.35042	0.66978
1851.42185	0.66851
1849.49329	0.66723
1847.56472	0.66595
1845.63616	0.66487
1843.70759	0.66435
1841.77903	0.66375
1839.85047	0.66251
1837.92190	0.66103
1835.99334	0.65988
1834.06477	0.65882
1832.13621	0.65760
1830.20764	0.65674
1828.27908	0.65608
1826.35051	0.65521
1824.42195	0.65465
1822.49339	0.65404
1820.56482	0.65283
1818.63626	0.65165
1816.70769	0.65093
1814.77913	0.65044
1812.85056	0.64987
1810.92200	0.64939
1808.99343	0.64896
1807.06487	0.64817
1805.13631	0.64717
1803.20774	0.64635
1801.27918	0.64588
1799.35061	0.64558
1797.42205	0.64506
1795.49348	0.64413
1793.56492	0.64325
1791.63635	0.64361
1789.70779	0.64398
1787.77923	0.64338
1785.85066	0.64264
1783.92210	0.64225
1781.99353	0.64222
1780.06497	0.64265
1778.13640	0.64303
1776.20784	0.64260
1774.27927	0.64209
1772.35071	0.64316
1770.42215	0.64513
1768.49358	0.64655
1766.56502	0.64773
1764.63645	0.64861
1762.70789	0.65022
1760.77932	0.65318
1758.85076	0.65609
1756.92220	0.65994
1754.99363	0.66454
1753.06507	0.66894
1751.13650	0.67579
1749.20794	0.68648
1747.27937	0.69674
1745.35081	0.70495
1743.42224	0.71211
1741.49368	0.71885
1739.56512	0.72526
1737.63655	0.72933
1735.70799	0.73215
1733.77942	0.73869
1731.85086	0.74541
1729.92229	0.74961
1727.99373	0.75410
1726.06516	0.75926
1724.13660	0.76623
1722.20804	0.77354
1720.27947	0.77955
1718.35091	0.78945
1716.42234	0.80925
1714.49378	0.82680
1712.56521	0.83979
1710.63665	0.85336
1708.70808	0.86921
1706.77952	0.89295
1704.85096	0.92560
1702.92239	0.95538
1700.99383	0.99647
1699.06526	1.06413
1697.13670	1.13163
1695.20813	1.20102
1693.27957	1.25286
1691.35100	1.29198
1689.42244	1.33784
1687.49388	1.38070
1685.56531	1.42529
1683.63675	1.49156
1681.70818	1.53155
1679.77962	1.54872
1677.85105	1.56440
1675.92249	1.58351
1673.99392	1.60352
1672.06536	1.61703
1670.13680	1.62689
1668.20823	1.63827
1666.27967	1.64578
1664.35110	1.65167
1662.42254	1.65796
1660.49397	1.66138
1658.56541	1.66174
1656.63684	1.65808
1654.70828	1.65035
1652.77972	1.64394
1650.85115	1.64615
1648.92259	1.64628
1646.99402	1.63897
1645.06546	1.63095
1643.13689	1.62661
1641.20833	1.62234
1639.27976	1.61515
1637.35120	1.60653
1635.42264	1.60194
1633.49407	1.59995
1631.56551	1.59616
1629.63694	1.58933
1627.70838	1.58071
1625.77981	1.57170
1623.85125	1.56085
1621.92269	1.54933
1619.99412	1.54039
1618.06556	1.52900
1616.13699	1.50974
1614.20843	1.49364
1612.27986	1.48122
1610.35130	1.46765
1608.42273	1.45350
1606.49417	1.44071
1604.56561	1.42955
1602.63704	1.42071
1600.70848	1.41513
1598.77991	1.41075
1596.85135	1.40673
1594.92278	1.40327
1592.99422	1.40002
1591.06565	1.39877
1589.13709	1.40102
1587.20853	1.40590
1585.27996	1.41229
1583.35140	1.41995
1581.42283	1.42765
1579.49427	1.43480
1577.56570	1.44535
1575.63714	1.46263
1573.70857	1.47475
1571.78001	1.48145
1569.85145	1.49063
1567.92288	1.50153
1565.99432	1.51245
1564.06575	1.52325
1562.13719	1.52651
1560.20862	1.52412
1558.28006	1.53573
1556.35149	1.54623
1554.42293	1.54701
1552.49437	1.54644
1550.56580	1.54613
1548.63724	1.54545
1546.70867	1.54232
1544.78011	1.53634
1542.85154	1.53105
1540.92298	1.52455
1538.99441	1.51710
1537.06585	1.51490
1535.13729	1.51060
1533.20872	1.50263
1531.28016	1.49546
1529.35159	1.49107
1527.42303	1.48839
1525.49446	1.48363
1523.56590	1.47505
1521.63733	1.46840
1519.70877	1.46556
1517.78021	1.45697
1515.85164	1.44322
1513.92308	1.43129
1511.99451	1.42075
1510.06595	1.40974
1508.13738	1.39076
1506.20882	1.36058
1504.28025	1.34644
1502.35169	1.33644
1500.42313	1.32210
1498.49456	1.30252
1496.56600	1.28184
1494.63743	1.26658
1492.70887	1.25439
1490.78030	1.23995
1488.85174	1.22434
1486.92317	1.21371
1484.99461	1.20572
1483.06605	1.19939
1481.13748	1.19631
1479.20892	1.19705
1477.28035	1.20087
1475.35179	1.20801
1473.42322	1.22172
1471.49466	1.23936
1469.56610	1.24982
1467.63753	1.25594
1465.70897	1.26330
1463.78040	1.27067
1461.85184	1.27308
1459.92327	1.27272
1457.99471	1.27605
1456.06614	1.28613
1454.13758	1.29128
1452.20902	1.29240
1450.28045	1.29201
1448.35189	1.29048
1446.42332	1.28781
1444.49476	1.28415
1442.56619	1.27973
1440.63763	1.27511
1438.70906	1.26894
1436.78050	1.25846
1434.85194	1.24768
1432.92337	1.23973
1430.99481	1.23199
1429.06624	1.22510
1427.13768	1.22079
1425.20911	1.21895
1423.28055	1.21901
1421.35198	1.22004
1419.42342	1.22287
1417.49486	1.22689
1415.56629	1.22909
1413.63773	1.23065
1411.70916	1.23256
1409.78060	1.23462
1407.85203	1.23645
1405.92347	1.23827
1403.99490	1.24051
1402.06634	1.24301
1400.13778	1.24526
1398.20921	1.24612
1396.28065	1.24586
1394.35208	1.24614
1392.42352	1.24698
1390.49495	1.24818
1388.56639	1.25104
1386.63782	1.25716
1384.70926	1.26491
1382.78070	1.27163
1380.85213	1.27550
1378.92357	1.27540
1376.99500	1.27102
1375.06644	1.26177
1373.13787	1.24997
1371.20931	1.23860
1369.28074	1.22523
1367.35218	1.20965
1365.42362	1.19499
1363.49505	1.18058
1361.56649	1.16704
1359.63792	1.15793
1357.70936	1.15218
1355.78079	1.14754
1353.85223	1.14369
1351.92366	1.14102
1349.99510	1.13926
1348.06654	1.13792
1346.13797	1.13657
1344.20941	1.13499
1342.28084	1.13327
1340.35228	1.13283
1338.42371	1.13541
1336.49515	1.13965
1334.56659	1.14403
1332.63802	1.14879
1330.70946	1.15409
1328.78089	1.15916
1326.85233	1.16318
1324.92376	1.16667
1322.99520	1.17036
1321.06663	1.17377
1319.13807	1.17676
1317.20951	1.17976
1315.28094	1.18235
1313.35238	1.18466
1311.42381	1.18679
1309.49525	1.18791
1307.56668	1.18789
1305.63812	1.18785
1303.70955	1.18839
1301.78099	1.18826
1299.85243	1.18642
1297.92386	1.18365
1295.99530	1.18122
1294.06673	1.17961
1292.13817	1.17828
1290.20960	1.17714
1288.28104	1.17675
1286.35247	1.17695
1284.42391	1.17683
1282.49535	1.17619
1280.56678	1.17571
1278.63822	1.17580
1276.70965	1.17651
1274.78109	1.17817
1272.85252	1.18088
1270.92396	1.18382
1268.99539	1.18626
1267.06683	1.18826
1265.13827	1.18970
1263.20970	1.19046
1261.28114	1.19079
1259.35257	1.19070
1257.42401	1.19012
1255.49544	1.18939
1253.56688	1.18902
1251.63831	1.18883
1249.70975	1.18808
1247.78119	1.18689
1245.85262	1.18598
1243.92406	1.18511
1241.99549	1.18374
1240.06693	1.18137
1238.13836	1.17730
1236.20980	1.17170
1234.28123	1.16550
1232.35267	1.15913
1230.42411	1.15211
1228.49554	1.14453
1226.56698	1.13690
1224.63841	1.12894
1222.70985	1.12116
1220.78128	1.11452
1218.85272	1.10874
1216.92415	1.10354
1214.99559	1.09986
1213.06703	1.09899
1211.13846	1.10063
1209.20990	1.10319
1207.28133	1.10522
1205.35277	1.10481
1203.42420	1.10059
1201.49564	1.09411
1199.56708	1.08806
1197.63851	1.08327
1195.70995	1.07889
1193.78138	1.07421
1191.85282	1.06958
1189.92425	1.06588
1187.99569	1.06360
1186.06712	1.06274
1184.13856	1.06294
1182.21000	1.06386
1180.28143	1.06575
1178.35287	1.06928
1176.42430	1.07472
1174.49574	1.08083
1172.56717	1.08605
1170.63861	1.09087
1168.71004	1.09679
1166.78148	1.10505
1164.85292	1.11623
1162.92435	1.12835
1160.99579	1.13856
1159.06722	1.14499
1157.13866	1.14536
1155.21009	1.13863
1153.28153	1.12652
1151.35296	1.11185
1149.42440	1.09682
1147.49584	1.08250
1145.56727	1.07025
1143.63871	1.06184
1141.71014	1.05781
1139.78158	1.05751
1137.85301	1.06025
1135.92445	1.06510
1133.99588	1.07163
1132.06732	1.08107
1130.13876	1.09395
1128.21019	1.10771
1126.28163	1.11962
1124.35306	1.12994
1122.42450	1.13917
1120.49593	1.14606
1118.56737	1.15016
1116.63880	1.15205
1114.71024	1.15118
1112.78168	1.14695
1110.85311	1.14067
1108.92455	1.13494
1106.99598	1.13165
1105.06742	1.13057
1103.13885	1.13079
1101.21029	1.13319
1099.28172	1.13956
1097.35316	1.14988
1095.42460	1.16254
1093.49603	1.17581
1091.56747	1.19011
1089.63890	1.20784
1087.71034	1.22838
1085.78177	1.24791
1083.85321	1.26482
1081.92464	1.27901
1079.99608	1.28896
1078.06752	1.29308
1076.13895	1.29064
1074.21039	1.28154
1072.28182	1.26729
1070.35326	1.25002
1068.42469	1.23105
1066.49613	1.21175
1064.56756	1.19373
1062.63900	1.17706
1060.71044	1.16056
1058.78187	1.14456
1056.85331	1.13088
1054.92474	1.12032
1052.99618	1.11265
1051.06761	1.10783
1049.13905	1.10599
1047.21049	1.10740
1045.28192	1.11200
1043.35336	1.11911
1041.42479	1.12817
1039.49623	1.13811
1037.56766	1.14663
1035.63910	1.15250
1033.71053	1.15658
1031.78197	1.15897
1029.85341	1.15887
1027.92484	1.15591
1025.99628	1.14971
1024.06771	1.14121
1022.13915	1.13248
1020.21058	1.12437
1018.28202	1.11667
1016.35345	1.10809
1014.42489	1.09750
1012.49633	1.08443
1010.56776	1.06818
1008.63920	1.04947
1006.71063	1.03067
1004.78207	1.01336
1002.85350	0.99828
1000.92494	0.98601
998.99637	0.97673
997.06781	0.96979
995.13925	0.96372
993.21068	0.95767
991.28212	0.95200
989.35355	0.94699
987.42499	0.94236
985.49642	0.93813
983.56786	0.93517
981.63929	0.93418
979.71073	0.93467
977.78217	0.93523
975.85360	0.93426
973.92504	0.93039
971.99647	0.92295
970.06791	0.91235
968.13934	0.90011
966.21078	0.88793
964.28221	0.87727
962.35365	0.86967
960.42509	0.86715
958.49652	0.87012
956.56796	0.87423
954.63939	0.87371
952.71083	0.86729
950.78226	0.85737
948.85370	0.84656
946.92513	0.83728
944.99657	0.83126
943.06801	0.82836
941.13944	0.82752
939.21088	0.82802
937.28231	0.82932
935.35375	0.83110
933.42518	0.83331
931.49662	0.83575
929.56805	0.83843
927.63949	0.84166
925.71093	0.84526
923.78236	0.84881
921.85380	0.85229
919.92523	0.85554
917.99667	0.85808
916.06810	0.85955
914.13954	0.86005
912.21098	0.86041
910.28241	0.86220
908.35385	0.86622
906.42528	0.87158
904.49672	0.87748
902.56815	0.88343
900.63959	0.88875
898.71102	0.89291
896.78246	0.89555
894.85390	0.89709
892.92533	0.89828
890.99677	0.89849
889.06820	0.89715
887.13964	0.89565
885.21107	0.89533
883.28251	0.89579
881.35394	0.89626
879.42538	0.89697
877.49682	0.89791
875.56825	0.89821
873.63969	0.89760
871.71112	0.89605
869.78256	0.89411
867.85399	0.89317
865.92543	0.89321
863.99686	0.89358
862.06830	0.89379
860.13974	0.89385
858.21117	0.89501
856.28261	0.89734
854.35404	0.89960
852.42548	0.90147
850.49691	0.90298
848.56835	0.90399
846.63978	0.90478
844.71122	0.90582
842.78266	0.90743
840.85409	0.90957
838.92553	0.91215
836.99696	0.91538
835.06840	0.91898
833.13983	0.92212
831.21127	0.92499
829.28270	0.92827
827.35414	0.93198
825.42558	0.93566
823.49701	0.93868
821.56845	0.94117
819.63988	0.94368
817.71132	0.94636
815.78275	0.94911
813.85419	0.95133
811.92562	0.95345
809.99706	0.95664
808.06850	0.95962
806.13993	0.96044
804.21137	0.95993
802.28280	0.96007
800.35424	0.96083
798.42567	0.96079
796.49711	0.96065
794.56854	0.96251
792.63998	0.96606
790.71142	0.96947
788.78285	0.97196
786.85429	0.97424
784.92572	0.97732
782.99716	0.98170
781.06859	0.98736
779.14003	0.99316
777.21147	0.99783
775.28290	1.00190
773.35434	1.00678
771.42577	1.01279
769.49721	1.01938
767.56864	1.02636
765.64008	1.03364
763.71151	1.04092
761.78295	1.04805
759.85439	1.05515
757.92582	1.06304
755.99726	1.07206
754.06869	1.08104
752.14013	1.08886
750.21156	1.09613
748.28300	1.10366
746.35443	1.11046
744.42587	1.11500
742.49731	1.11748
740.56874	1.11891
738.64018	1.11950
736.71161	1.11991
734.78305	1.12102
732.85448	1.12277
730.92592	1.12462
728.99735	1.12564
727.06879	1.12591
725.14023	1.12667
723.21166	1.12781
721.28310	1.12794
719.35453	1.12711
717.42597	1.12744
715.49740	1.12969
713.56884	1.13242
711.64027	1.13528
709.71171	1.13978
707.78315	1.14630
705.85458	1.15269
703.92602	1.15737
701.99745	1.16119
700.06889	1.16564
698.14032	1.17067
696.21176	1.17450
694.28319	1.17657
692.35463	1.17789
690.42607	1.17869
688.49750	1.17925
686.56894	1.18014
684.64037	1.18062
682.71181	1.17968
680.78324	1.17707
678.85468	1.17281
676.92611	1.16866
674.99755	1.16680
673.06899	1.16532
671.14042	1.16143
669.21186	1.15481
667.28329	1.14986
665.35473	1.14970
663.42616	1.14899
661.49760	1.14517
659.56903	1.14110
657.64047	1.14089
655.71191	1.14377
653.78334	1.14725
651.85478	1.15094
649.92621	1.15574
647.99765	1.16324
646.06908	1.17456
644.14052	1.18828
642.21195	1.20204
640.28339	1.21383
638.35483	1.22220
636.42626	1.22849
634.49770	1.23386
632.56913	1.23664
630.64057	1.23762
628.71200	1.23945
626.78344	1.24116
624.85488	1.24198
622.92631	1.24282
620.99775	1.24179
619.06918	1.23656
617.14062	1.22598
615.21205	1.21330
613.28349	1.20425
611.35492	1.20033
609.42636	1.19878
607.49780	1.19419
605.56923	1.18683
603.64067	1.18345
601.71210	1.18408
599.78354	1.18377
