3997.91406	0.94066
3995.98550	0.93846
3994.05693	0.93710
3992.12837	0.93790
3990.19980	0.93840
3988.27124	0.93600
3986.34268	0.93276
3984.41411	0.93172
3982.48555	0.93215
3980.55698	0.93197
3978.62842	0.93140
3976.69985	0.93150
3974.77129	0.93169
3972.84272	0.93078
3970.91416	0.93009
3968.98560	0.93099
3967.05703	0.93090
3965.12847	0.92868
3963.19990	0.92780
3961.27134	0.92902
3959.34277	0.92903
3957.41421	0.92739
3955.48564	0.92609
3953.55708	0.92583
3951.62852	0.92648
3949.69995	0.92722
3947.77139	0.92660
3945.84282	0.92507
3943.91426	0.92500
3941.98569	0.92705
3940.05713	0.92753
3938.12856	0.92508
3936.20000	0.92276
3934.27144	0.92208
3932.34287	0.92209
3930.41431	0.92228
3928.48574	0.92215
3926.55718	0.92173
3924.62861	0.92226
3922.70005	0.92347
3920.77148	0.92319
3918.84292	0.92031
3916.91436	0.91671
3914.98579	0.91632
3913.05723	0.91925
3911.12866	0.92143
3909.20010	0.91948
3907.27153	0.91440
3905.34297	0.91002
3903.41440	0.90977
3901.48584	0.91213
3899.55728	0.91495
3897.62871	0.91627
3895.70015	0.91485
3893.77158	0.91251
3891.84302	0.91193
3889.91445	0.91280
3887.98589	0.91247
3886.05733	0.91102
3884.12876	0.90975
3882.20020	0.90884
3880.27163	0.90851
3878.34307	0.90760
3876.41450	0.90531
3874.48594	0.90247
3872.55737	0.89956
3870.62881	0.89807
3868.70025	0.89889
3866.77168	0.89936
3864.84312	0.89937
3862.91455	0.89874
3860.98599	0.89654
3859.05742	0.89387
3857.12886	0.89105
3855.20029	0.88888
3853.27173	0.89419
3851.34317	0.90116
3849.41460	0.90163
3847.48604	0.89965
3845.55747	0.89647
3843.62891	0.89189
3841.70034	0.88842
3839.77178	0.88982
3837.84321	0.89433
3835.91465	0.89599
3833.98609	0.89509
3832.05752	0.89368
3830.12896	0.89290
3828.20039	0.89319
3826.27183	0.89387
3824.34326	0.89306
3822.41470	0.88990
3820.48613	0.88688
3818.55757	0.88637
3816.62901	0.88725
3814.70044	0.88834
3812.77188	0.88855
3810.84331	0.88835
3808.91475	0.88792
3806.98618	0.88708
3805.05762	0.88527
3803.12905	0.88330
3801.20049	0.88352
3799.27193	0.88505
3797.34336	0.88677
3795.41480	0.88809
3793.48623	0.88801
3791.55767	0.88820
3789.62910	0.88823
3787.70054	0.88655
3785.77197	0.88535
3783.84341	0.88556
3781.91485	0.88475
3779.98628	0.88417
3778.05772	0.88529
3776.12915	0.88565
3774.20059	0.88507
3772.27202	0.88456
3770.34346	0.88311
3768.41489	0.88041
3766.48633	0.87903
3764.55777	0.87900
3762.62920	0.87795
3760.70064	0.87609
3758.77207	0.87509
3756.84351	0.87402
3754.91494	0.87207
3752.98638	0.87022
3751.05781	0.87024
3749.12925	0.87064
3747.20069	0.86799
3745.27212	0.86546
3743.34356	0.86889
3741.41499	0.87441
3739.48643	0.87818
3737.55786	0.87955
3735.62930	0.87686
3733.70074	0.87268
3731.77217	0.86983
3729.84361	0.86684
3727.91504	0.86533
3725.98648	0.86710
3724.05791	0.86921
3722.12935	0.86901
3720.20078	0.86846
3718.27222	0.86866
3716.34366	0.86817
3714.41509	0.86566
3712.48653	0.86266
3710.55796	0.86340
3708.62940	0.86512
3706.70083	0.86472
3704.77227	0.86359
3702.84370	0.86323
3700.91514	0.86372
3698.98658	0.86437
3697.05801	0.86577
3695.12945	0.86669
3693.20088	0.86580
3691.27232	0.86644
3689.34375	0.87342
3687.41519	0.87914
3685.48662	0.88018
3683.55806	0.88100
3681.62950	0.88267
3679.70093	0.88377
3677.77237	0.88443
3675.84380	0.88995
3673.91524	0.89600
3671.98667	0.89675
3670.05811	0.90203
3668.12954	0.91120
3666.20098	0.91562
3664.27242	0.91776
3662.34385	0.92016
3660.41529	0.92349
3658.48672	0.92769
3656.55816	0.93381
3654.62959	0.93969
3652.70103	0.94298
3650.77246	0.94848
3648.84390	0.96096
3646.91534	0.96849
3644.98677	0.97128
3643.05821	0.97587
3641.12964	0.98436
3639.20108	0.99443
3637.27251	1.00257
3635.34395	1.00914
3633.41538	1.01537
3631.48682	1.01984
3629.55826	1.02568
3627.62969	1.03692
3625.70113	1.04527
3623.77256	1.04972
3621.84400	1.05329
3619.91543	1.06062
3617.98687	1.07155
3616.05830	1.08057
3614.12974	1.08855
3612.20118	1.09462
3610.27261	1.09873
3608.34405	1.10580
3606.41548	1.11549
3604.48692	1.12407
3602.55835	1.13287
3600.62979	1.14141
3598.70123	1.14805
3596.77266	1.15433
3594.84410	1.16284
3592.91553	1.17395
3590.98697	1.18314
3589.05840	1.19022
3587.12984	1.19986
3585.20127	1.20794
3583.27271	1.21128
3581.34415	1.21492
3579.41558	1.22163
3577.48702	1.22977
3575.55845	1.23820
3573.62989	1.24534
3571.70132	1.24957
3569.77276	1.25184
3567.84419	1.25568
3565.91563	1.26642
3563.98707	1.28068
3562.05850	1.29360
3560.12994	1.30345
3558.20137	1.31107
3556.27281	1.31842
3554.34424	1.32645
3552.41568	1.33455
3550.48711	1.33953
3548.55855	1.34410
3546.62999	1.35481
3544.70142	1.36834
3542.77286	1.37612
3540.84429	1.38004
3538.91573	1.38510
3536.98716	1.39109
3535.05860	1.39432
3533.13003	1.39593
3531.20147	1.40075
3529.27291	1.41125
3527.34434	1.42409
3525.41578	1.43166
3523.48721	1.43372
3521.55865	1.43570
3519.63008	1.44087
3517.70152	1.45111
3515.77295	1.46267
3513.84439	1.46925
3511.91583	1.47301
3509.98726	1.48014
3508.05870	1.48927
3506.13013	1.49651
3504.20157	1.50415
3502.27300	1.51456
3500.34444	1.52594
3498.41587	1.53492
3496.48731	1.54030
3494.55875	1.54320
3492.63018	1.54500
3490.70162	1.54927
3488.77305	1.55911
3486.84449	1.57072
3484.91592	1.57607
3482.98736	1.57710
3481.05879	1.58191
3479.13023	1.58689
3477.20167	1.58417
3475.27310	1.57773
3473.34454	1.57971
3471.41597	1.59182
3469.48741	1.60437
3467.55884	1.61206
3465.63028	1.61369
3463.70171	1.61165
3461.77315	1.61456
3459.84459	1.62338
3457.91602	1.63075
3455.98746	1.63423
3454.05889	1.63394
3452.13033	1.63158
3450.20176	1.62773
3448.27320	1.62267
3446.34464	1.62273
3444.41607	1.62554
3442.48751	1.62798
3440.55894	1.63965
3438.63038	1.65671
3436.70181	1.66294
3434.77325	1.66389
3432.84468	1.67197
3430.91612	1.67699
3428.98756	1.67363
3427.05899	1.67280
3425.13043	1.67307
3423.20186	1.66690
3421.27330	1.65537
3419.34473	1.64567
3417.41617	1.64714
3415.48760	1.65950
3413.55904	1.67197
3411.63048	1.68025
3409.70191	1.68495
3407.77335	1.68335
3405.84478	1.67595
3403.91622	1.66773
3401.98765	1.66705
3400.05909	1.67025
3398.13052	1.66582
3396.20196	1.66145
3394.27340	1.66607
3392.34483	1.67495
3390.41627	1.68385
3388.48770	1.69093
3386.55914	1.69571
3384.63057	1.69668
3382.70201	1.69151
3380.77344	1.68415
3378.84488	1.67782
3376.91632	1.67204
3374.98775	1.67305
3373.05919	1.68344
3371.13062	1.69068
3369.20206	1.68818
3367.27349	1.68486
3365.34493	1.68658
3363.41636	1.69191
3361.48780	1.69806
3359.55924	1.70264
3357.63067	1.70528
3355.70211	1.70581
3353.77354	1.70478
3351.84498	1.70361
3349.91641	1.69913
3347.98785	1.69284
3346.05928	1.69184
3344.13072	1.69278
3342.20216	1.69451
3340.27359	1.70342
3338.34503	1.71564
3336.41646	1.72374
3334.48790	1.72651
3332.55933	1.72410
3330.63077	1.71660
3328.70220	1.71091
3326.77364	1.71618
3324.84508	1.72851
3322.91651	1.73700
3320.98795	1.73671
3319.05938	1.73234
3317.13082	1.73085
3315.20225	1.73226
3313.27369	1.73796
3311.34513	1.74811
3309.41656	1.75547
3307.48800	1.75448
3305.55943	1.74988
3303.63087	1.75070
3301.70230	1.75139
3299.77374	1.74622
3297.84517	1.74540
3295.91661	1.74713
3293.98805	1.74136
3292.05948	1.73476
3290.13092	1.73297
3288.20235	1.73112
3286.27379	1.72864
3284.34522	1.73053
3282.41666	1.73760
3280.48809	1.74211
3278.55953	1.74090
3276.63097	1.73694
3274.70240	1.72830
3272.77384	1.71846
3270.84527	1.71261
3268.91671	1.70932
3266.98814	1.71085
3265.05958	1.71656
3263.13101	1.71697
3261.20245	1.70987
3259.27389	1.70468
3257.34532	1.70412
3255.41676	1.69929
3253.48819	1.68656
3251.55963	1.67238
3249.63106	1.66127
3247.70250	1.65328
3245.77393	1.65042
3243.84537	1.65257
3241.91681	1.65083
3239.98824	1.64189
3238.05968	1.63678
3236.13111	1.64045
3234.20255	1.64141
3232.27398	1.63402
3230.34542	1.62649
3228.41685	1.62218
3226.48829	1.61911
3224.55973	1.61650
3222.63116	1.61336
3220.70260	1.61057
3218.77403	1.60854
3216.84547	1.60627
3214.91690	1.60403
3212.98834	1.60139
3211.05977	1.59801
3209.13121	1.59477
3207.20265	1.59312
3205.27408	1.59318
3203.34552	1.59078
3201.41695	1.58527
3199.48839	1.58170
3197.55982	1.57754
3195.63126	1.56932
3193.70269	1.56429
3191.77413	1.56512
3189.84557	1.56456
3187.91700	1.55880
3185.98844	1.55101
3184.05987	1.54552
3182.13131	1.54373
3180.20274	1.54366
3178.27418	1.54148
3176.34562	1.53509
3174.41705	1.52791
3172.48849	1.52505
3170.55992	1.52668
3168.63136	1.52655
3166.70279	1.51965
3164.77423	1.51016
3162.84566	1.50461
3160.91710	1.50260
3158.98854	1.49876
3157.05997	1.49147
3155.13141	1.48568
3153.20284	1.48244
3151.27428	1.47587
3149.34571	1.46607
3147.41715	1.46056
3145.48858	1.46011
3143.56002	1.45830
3141.63146	1.45485
3139.70289	1.45422
3137.77433	1.45582
3135.84576	1.45718
3133.91720	1.45809
3131.98863	1.45821
3130.06007	1.45612
3128.13150	1.45187
3126.20294	1.44724
3124.27438	1.44350
3122.34581	1.44361
3120.41725	1.44831
3118.48868	1.45066
3116.56012	1.44747
3114.63155	1.44521
3112.70299	1.44671
3110.77442	1.44803
3108.84586	1.44796
3106.91730	1.44799
3104.98873	1.44624
3103.06017	1.44192
3101.13160	1.43867
3099.20304	1.43821
3097.27447	1.43948
3095.34591	1.43995
3093.41734	1.43764
3091.48878	1.43596
3089.56022	1.43666
3087.63165	1.43553
3085.70309	1.43175
3083.77452	1.42975
3081.84596	1.42999
3079.91739	1.42807
3077.98883	1.42429
3076.06026	1.42166
3074.13170	1.41844
3072.20314	1.41427
3070.27457	1.41168
3068.34601	1.40980
3066.41744	1.40643
3064.48888	1.40137
3062.56031	1.39646
3060.63175	1.39461
3058.70318	1.39518
3056.77462	1.39310
3054.84606	1.38626
3052.91749	1.37821
3050.98893	1.37186
3049.06036	1.36675
3047.13180	1.36168
3045.20323	1.35655
3043.27467	1.35268
3041.34610	1.35085
3039.41754	1.34811
3037.48898	1.34264
3035.56041	1.33823
3033.63185	1.33559
3031.70328	1.33113
3029.77472	1.32609
3027.84615	1.32253
3025.91759	1.31857
3023.98903	1.31373
3022.06046	1.30963
3020.13190	1.30739
3018.20333	1.30703
3016.27477	1.30651
3014.34620	1.30413
3012.41764	1.30049
3010.48907	1.29575
3008.56051	1.29104
3006.63195	1.28918
3004.70338	1.28944
3002.77482	1.28936
3000.84625	1.28897
2998.91769	1.28765
2996.98912	1.28406
2995.06056	1.28135
2993.13199	1.28402
2991.20343	1.29040
2989.27487	1.29614
2987.34630	1.30022
2985.41774	1.30330
2983.48917	1.30762
2981.56061	1.31532
2979.63204	1.32399
2977.70348	1.33098
2975.77491	1.33737
2973.84635	1.34384
2971.91779	1.35000
2969.98922	1.35568
2968.06066	1.36121
2966.13209	1.36782
2964.20353	1.37410
2962.27496	1.37770
2960.34640	1.37977
2958.41783	1.37942
2956.48927	1.37330
2954.56071	1.36369
2952.63214	1.35700
2950.70358	1.35485
2948.77501	1.35418
2946.84645	1.35491
2944.91788	1.35908
2942.98932	1.36580
2941.06075	1.37381
2939.13219	1.38331
2937.20363	1.39343
2935.27506	1.40273
2933.34650	1.41160
2931.41793	1.42155
2929.48937	1.43077
2927.56080	1.43548
2925.63224	1.43851
2923.70367	1.44408
2921.77511	1.44886
2919.84655	1.44806
2917.91798	1.44051
2915.98942	1.42553
2914.06085	1.40250
2912.13229	1.37521
2910.20372	1.35113
2908.27516	1.33394
2906.34659	1.32191
2904.41803	1.31213
2902.48947	1.30317
2900.56090	1.29602
2898.63234	1.29175
2896.70377	1.28894
2894.77521	1.28618
2892.84664	1.28309
2890.91808	1.27822
2888.98952	1.27172
2887.06095	1.26651
2885.13239	1.26353
2883.20382	1.26217
2881.27526	1.26250
2879.34669	1.26265
2877.41813	1.26119
2875.48956	1.25903
2873.56100	1.25467
2871.63244	1.24742
2869.70387	1.24069
2867.77531	1.23608
2865.84674	1.23169
2863.91818	1.22772
2861.98961	1.22755
2860.06105	1.23169
2858.13248	1.23799
2856.20392	1.24508
2854.27536	1.25253
2852.34679	1.26074
2850.41823	1.26394
2848.48966	1.25140
2846.56110	1.22444
2844.63253	1.19466
2842.70397	1.16945
2840.77540	1.15062
2838.84684	1.13748
2836.91828	1.12877
2834.98971	1.12345
2833.06115	1.11949
2831.13258	1.11474
2829.20402	1.10940
2827.27545	1.10496
2825.34689	1.10118
2823.41832	1.09771
2821.48976	1.09520
2819.56120	1.09227
2817.63263	1.08778
2815.70407	1.08372
2813.77550	1.08146
2811.84694	1.07995
2809.91837	1.07793
2807.98981	1.07460
2806.06124	1.06960
2804.13268	1.06461
2802.20412	1.06094
2800.27555	1.05765
2798.34699	1.05426
2796.41842	1.05077
2794.48986	1.04756
2792.56129	1.04497
2790.63273	1.04218
2788.70416	1.03938
2786.77560	1.03686
2784.84704	1.03359
2782.91847	1.02962
2780.98991	1.02632
2779.06134	1.02412
2777.13278	1.02197
2775.20421	1.01963
2773.27565	1.01773
2771.34708	1.01598
2769.41852	1.01386
2767.48996	1.01134
2765.56139	1.00843
2763.63283	1.00526
2761.70426	1.00208
2759.77570	0.99931
2757.84713	0.99703
2755.91857	0.99466
2753.99001	0.99223
2752.06144	0.99047
2750.13288	0.98928
2748.20431	0.98750
2746.27575	0.98526
2744.34718	0.98388
2742.41862	0.98322
2740.49005	0.98237
2738.56149	0.98113
2736.63293	0.97959
2734.70436	0.97815
2732.77580	0.97675
2730.84723	0.97462
2728.91867	0.97188
2726.99010	0.96958
2725.06154	0.96793
2723.13297	0.96663
2721.20441	0.96585
2719.27585	0.96501
2717.34728	0.96356
2715.41872	0.96219
2713.49015	0.96086
2711.56159	0.95935
2709.63302	0.95809
2707.70446	0.95660
2705.77589	0.95471
2703.84733	0.95302
2701.91877	0.95105
2699.99020	0.94880
2698.06164	0.94725
2696.13307	0.94586
2694.20451	0.94382
2692.27594	0.94181
2690.34738	0.94024
2688.41881	0.93891
2686.49025	0.93818
2684.56169	0.93800
2682.63312	0.93728
2680.70456	0.93538
2678.77599	0.93297
2676.84743	0.93127
2674.91886	0.93076
2672.99030	0.93073
2671.06173	0.93026
2669.13317	0.92917
2667.20461	0.92760
2665.27604	0.92563
2663.34748	0.92383
2661.41891	0.92272
2659.49035	0.92192
2657.56178	0.92105
2655.63322	0.92038
2653.70465	0.91952
2651.77609	0.91785
2649.84753	0.91588
2647.91896	0.91430
2645.99040	0.91334
2644.06183	0.91279
2642.13327	0.91188
2640.20470	0.91053
2638.27614	0.90954
2636.34757	0.90887
2634.41901	0.90747
2632.49045	0.90527
2630.56188	0.90341
2628.63332	0.90214
2626.70475	0.90101
2624.77619	0.90003
2622.84762	0.89912
2620.91906	0.89795
2618.99049	0.89658
2617.06193	0.89581
2615.13337	0.89596
2613.20480	0.89597
2611.27624	0.89507
2609.34767	0.89360
2607.41911	0.89216
2605.49054	0.89102
2603.56198	0.88997
2601.63342	0.88861
2599.70485	0.88715
2597.77629	0.88614
2595.84772	0.88545
2593.91916	0.88450
2591.99059	0.88340
2590.06203	0.88253
2588.13346	0.88131
2586.20490	0.87931
2584.27634	0.87740
2582.34777	0.87625
2580.41921	0.87496
2578.49064	0.87301
2576.56208	0.87130
2574.63351	0.87011
2572.70495	0.86882
2570.77638	0.86721
2568.84782	0.86544
2566.91926	0.86353
2564.99069	0.86137
2563.06213	0.85924
2561.13356	0.85776
2559.20500	0.85695
2557.27643	0.85620
2555.34787	0.85542
2553.41930	0.85470
2551.49074	0.85388
2549.56218	0.85303
2547.63361	0.85253
2545.70505	0.85249
2543.77648	0.85213
2541.84792	0.85129
2539.91935	0.85111
2537.99079	0.85169
2536.06222	0.85186
2534.13366	0.85131
2532.20510	0.85076
2530.27653	0.85049
2528.34797	0.85014
2526.41940	0.84978
2524.49084	0.84966
2522.56227	0.84968
2520.63371	0.84965
2518.70514	0.84950
2516.77658	0.84927
2514.84802	0.84871
2512.91945	0.84770
2510.99089	0.84707
2509.06232	0.84718
2507.13376	0.84702
2505.20519	0.84609
2503.27663	0.84476
2501.34806	0.84315
2499.41950	0.84128
2497.49094	0.83950
2495.56237	0.83836
2493.63381	0.83784
2491.70524	0.83718
2489.77668	0.83607
2487.84811	0.83475
2485.91955	0.83331
2483.99098	0.83186
2482.06242	0.83038
2480.13386	0.82887
2478.20529	0.82741
2476.27673	0.82601
2474.34816	0.82467
2472.41960	0.82340
2470.49103	0.82233
2468.56247	0.82165
2466.63391	0.82102
2464.70534	0.81999
2462.77678	0.81872
2460.84821	0.81719
2458.91965	0.81544
2456.99108	0.81398
2455.06252	0.81262
2453.13395	0.81106
2451.20539	0.80989
2449.27683	0.80908
2447.34826	0.80775
2445.41970	0.80575
2443.49113	0.80401
2441.56257	0.80280
2439.63400	0.80145
2437.70544	0.79984
2435.77687	0.79836
2433.84831	0.79708
2431.91975	0.79567
2429.99118	0.79383
2428.06262	0.79207
2426.13405	0.79090
2424.20549	0.79004
2422.27692	0.78896
2420.34836	0.78740
2418.41979	0.78577
2416.49123	0.78505
2414.56267	0.78500
2412.63410	0.78442
2410.70554	0.78354
2408.77697	0.78321
2406.84841	0.78322
2404.91984	0.78299
2402.99128	0.78236
2401.06271	0.78170
2399.13415	0.78133
2397.20559	0.78120
2395.27702	0.78112
2393.34846	0.78103
2391.41989	0.78101
2389.49133	0.78101
2387.56276	0.78097
2385.63420	0.78085
2383.70563	0.78064
2381.77707	0.78024
2379.84851	0.77928
2377.91994	0.77767
2375.99138	0.77570
2374.06281	0.77358
2372.13425	0.77166
2370.20568	0.77011
2368.27712	0.76801
2366.34855	0.76440
2364.41999	0.76069
2362.49143	0.75919
2360.56286	0.75960
2358.63430	0.76159
2356.70573	0.76518
2354.77717	0.76687
2352.84860	0.76598
2350.92004	0.76455
2348.99147	0.76305
2347.06291	0.76153
2345.13435	0.76005
2343.20578	0.75900
2341.27722	0.75923
2339.34865	0.76050
2337.42009	0.76247
2335.49152	0.76426
2333.56296	0.76388
2331.63440	0.76106
2329.70583	0.75859
2327.77727	0.75943
2325.84870	0.76221
2323.92014	0.76332
2321.99157	0.76214
2320.06301	0.76060
2318.13444	0.75960
2316.20588	0.75909
2314.27732	0.75897
2312.34875	0.75839
2310.42019	0.75656
2308.49162	0.75421
2306.56306	0.75231
2304.63449	0.75073
2302.70593	0.74909
2300.77736	0.74739
2298.84880	0.74591
2296.92024	0.74464
2294.99167	0.74326
2293.06311	0.74174
2291.13454	0.74027
2289.20598	0.73883
2287.27741	0.73746
2285.34885	0.73625
2283.42028	0.73540
2281.49172	0.73502
2279.56316	0.73475
2277.63459	0.73420
2275.70603	0.73374
2273.77746	0.73377
2271.84890	0.73412
2269.92033	0.73445
2267.99177	0.73471
2266.06320	0.73502
2264.13464	0.73536
2262.20608	0.73578
2260.27751	0.73628
2258.34895	0.73670
2256.42038	0.73688
2254.49182	0.73670
2252.56325	0.73639
2250.63469	0.73650
2248.70612	0.73695
2246.77756	0.73711
2244.84900	0.73677
2242.92043	0.73625
2240.99187	0.73563
2239.06330	0.73489
2237.13474	0.73438
2235.20617	0.73413
2233.27761	0.73383
2231.34904	0.73343
2229.42048	0.73317
2227.49192	0.73292
2225.56335	0.73268
2223.63479	0.73266
2221.70622	0.73264
2219.77766	0.73229
2217.84909	0.73170
2215.92053	0.73122
2213.99196	0.73113
2212.06340	0.73114
2210.13484	0.73088
2208.20627	0.73062
2206.27771	0.73065
2204.34914	0.73064
2202.42058	0.73048
2200.49201	0.73015
2198.56345	0.72938
2196.63488	0.72831
2194.70632	0.72745
2192.77776	0.72696
2190.84919	0.72658
2188.92063	0.72601
2186.99206	0.72510
2185.06350	0.72406
2183.13493	0.72309
2181.20637	0.72197
2179.27781	0.72045
2177.34924	0.71872
2175.42068	0.71711
2173.49211	0.71559
2171.56355	0.71382
2169.63498	0.71188
2167.70642	0.71027
2165.77785	0.70899
2163.84929	0.70774
2161.92073	0.70641
2159.99216	0.70505
2158.06360	0.70371
2156.13503	0.70237
2154.20647	0.70113
2152.27790	0.70012
2150.34934	0.69904
2148.42077	0.69764
2146.49221	0.69633
2144.56365	0.69554
2142.63508	0.69510
2140.70652	0.69465
2138.77795	0.69401
2136.84939	0.69316
2134.92082	0.69253
2132.99226	0.69232
2131.06369	0.69206
2129.13513	0.69152
2127.20657	0.69101
2125.27800	0.69046
2123.34944	0.68980
2121.42087	0.68947
2119.49231	0.68940
2117.56374	0.68922
2115.63518	0.68907
2113.70661	0.68901
2111.77805	0.68889
2109.84949	0.68882
2107.92092	0.68882
2105.99236	0.68879
2104.06379	0.68867
2102.13523	0.68839
2100.20666	0.68803
2098.27810	0.68769
2096.34953	0.68726
2094.42097	0.68668
2092.49241	0.68586
2090.56384	0.68486
2088.63528	0.68396
2086.70671	0.68316
2084.77815	0.68232
2082.84958	0.68141
2080.92102	0.68047
2078.99245	0.67956
2077.06389	0.67884
2075.13533	0.67799
2073.20676	0.67658
2071.27820	0.67507
2069.34963	0.67397
2067.42107	0.67305
2065.49250	0.67196
2063.56394	0.67079
2061.63537	0.66969
2059.70681	0.66839
2057.77825	0.66678
2055.84968	0.66530
2053.92112	0.66413
2051.99255	0.66283
2050.06399	0.66118
2048.13542	0.65951
2046.20686	0.65800
2044.27830	0.65669
2042.34973	0.65569
2040.42117	0.65454
2038.49260	0.65292
2036.56404	0.65130
2034.63547	0.64998
2032.70691	0.64866
2030.77834	0.64718
2028.84978	0.64575
2026.92122	0.64455
2024.99265	0.64337
2023.06409	0.64184
2021.13552	0.64017
2019.20696	0.63890
2017.27839	0.63794
2015.34983	0.63669
2013.42126	0.63501
2011.49270	0.63343
2009.56414	0.63231
2007.63557	0.63145
2005.70701	0.63039
2003.77844	0.62895
2001.84988	0.62751
1999.92131	0.62642
1997.99275	0.62546
1996.06418	0.62428
1994.13562	0.62310
1992.20706	0.62227
1990.27849	0.62163
1988.34993	0.62087
1986.42136	0.61994
1984.49280	0.61883
1982.56423	0.61764
1980.63567	0.61657
1978.70710	0.61562
1976.77854	0.61471
1974.84998	0.61380
1972.92141	0.61290
1970.99285	0.61193
1969.06428	0.61091
1967.13572	0.61007
1965.20715	0.60947
1963.27859	0.60895
1961.35002	0.60850
1959.42146	0.60805
1957.49290	0.60743
1955.56433	0.60682
1953.63577	0.60631
1951.70720	0.60583
1949.77864	0.60535
1947.85007	0.60466
1945.92151	0.60357
1943.99294	0.60259
1942.06438	0.60236
1940.13582	0.60222
1938.20725	0.60155
1936.27869	0.60070
1934.35012	0.59986
1932.42156	0.59894
1930.49299	0.59802
1928.56443	0.59716
1926.63586	0.59606
1924.70730	0.59470
1922.77874	0.59360
1920.85017	0.59287
1918.92161	0.59240
1916.99304	0.59208
1915.06448	0.59137
1913.13591	0.59038
1911.20735	0.58960
1909.27878	0.58913
1907.35022	0.58878
1905.42166	0.58846
1903.49309	0.58810
1901.56453	0.58759
1899.63596	0.58695
1897.70740	0.58645
1895.77883	0.58642
1893.85027	0.58646
1891.92171	0.58599
1889.99314	0.58539
1888.06458	0.58483
1886.13601	0.58398
1884.20745	0.58304
1882.27888	0.58198
1880.35032	0.58044
1878.42175	0.57876
1876.49319	0.57736
1874.56463	0.57581
1872.63606	0.57382
1870.70750	0.57178
1868.77893	0.57033
1866.85037	0.56934
1864.92180	0.56795
1862.99324	0.56622
1861.06467	0.56447
1859.13611	0.56293
1857.20755	0.56158
1855.27898	0.56036
1853.35042	0.55911
1851.42185	0.55763
1849.49329	0.55604
1847.56472	0.55459
1845.63616	0.55390
1843.70759	0.55426
1841.77903	0.55410
1839.85047	0.55323
1837.92190	0.55287
1835.99334	0.55326
1834.06477	0.55337
1832.13621	0.55308
1830.20764	0.55373
1828.27908	0.55515
1826.35051	0.55595
1824.42195	0.55677
1822.49339	0.55750
1820.56482	0.55769
1818.63626	0.55779
1816.70769	0.55776
1814.77913	0.55739
1812.85056	0.55698
1810.92200	0.55686
1808.99343	0.55675
1807.06487	0.55642
1805.13631	0.55599
1803.20774	0.55550
1801.27918	0.55512
1799.35061	0.55496
1797.42205	0.55457
1795.49348	0.55380
1793.56492	0.55350
1791.63635	0.55473
1789.70779	0.55562
1787.77923	0.55550
1785.85066	0.55582
1783.92210	0.55677
1781.99353	0.55769
1780.06497	0.55881
1778.13640	0.55996
1776.20784	0.56047
1774.27927	0.56104
1772.35071	0.56312
1770.42215	0.56559
1768.49358	0.56692
1766.56502	0.56757
1764.63645	0.56778
1762.70789	0.56844
1760.77932	0.57006
1758.85076	0.57171
1756.92220	0.57416
1754.99363	0.57722
1753.06507	0.58028
1751.13650	0.58533
1749.20794	0.59315
1747.27937	0.60055
1745.35081	0.60660
1743.42224	0.61234
1741.49368	0.61822
1739.56512	0.62376
1737.63655	0.62703
1735.70799	0.62927
1733.77942	0.63521
1731.85086	0.64156
1729.92229	0.64587
1727.99373	0.65067
1726.06516	0.65582
1724.13660	0.66218
1722.20804	0.66892
1720.27947	0.67496
1718.35091	0.68464
1716.42234	0.70290
1714.49378	0.71890
1712.56521	0.73086
1710.63665	0.74357
1708.70808	0.75874
1706.77952	0.78198
1704.85096	0.81409
1702.92239	0.84338
1700.99383	0.88406
1699.06526	0.95139
1697.13670	1.01932
1695.20813	1.08896
1693.27957	1.13998
1691.35100	1.17771
1689.42244	1.22225
1687.49388	1.26394
1685.56531	1.30703
1683.63675	1.37827
1681.70818	1.43179
1679.77962	1.45931
1677.85105	1.48157
1675.92249	1.50786
1673.99392	1.53781
1672.06536	1.56077
1670.13680	1.58269
1668.20823	1.60428
1666.27967	1.61341
1664.35110	1.62138
1662.42254	1.63556
1660.49397	1.64500
1658.56541	1.64728
1656.63684	1.64702
1654.70828	1.64889
1652.77972	1.65268
1650.85115	1.64863
1648.92259	1.64171
1646.99402	1.63528
1645.06546	1.63381
1643.13689	1.63382
1641.20833	1.63357
1639.27976	1.62888
1637.35120	1.61856
1635.42264	1.61185
1633.49407	1.61186
1631.56551	1.61099
1629.63694	1.60672
1627.70838	1.59787
1625.77981	1.58660
1623.85125	1.57469
1621.92269	1.56064
1619.99412	1.54666
1618.06556	1.52944
1616.13699	1.50374
1614.20843	1.48143
1612.27986	1.46168
1610.35130	1.43892
1608.42273	1.41556
1606.49417	1.39557
1604.56561	1.37949
1602.63704	1.36668
1600.70848	1.35655
1598.77991	1.34836
1596.85135	1.34223
1594.92278	1.33750
1592.99422	1.33423
1591.06565	1.33315
1589.13709	1.33460
1587.20853	1.33973
1585.27996	1.34760
1583.35140	1.35611
1581.42283	1.36420
1579.49427	1.37185
1577.56570	1.38415
1575.63714	1.40502
1573.70857	1.41800
1571.78001	1.42535
1569.85145	1.44024
1567.92288	1.45808
1565.99432	1.47002
1564.06575	1.47956
1562.13719	1.48495
1560.20862	1.49234
1558.28006	1.51456
1556.35149	1.52149
1554.42293	1.52263
1552.49437	1.52614
1550.56580	1.52866
1548.63724	1.52871
1546.70867	1.52640
1544.78011	1.52165
1542.85154	1.51661
1540.92298	1.51084
1538.99441	1.49990
1537.06585	1.49323
1535.13729	1.48794
1533.20872	1.48077
1531.28016	1.47257
1529.35159	1.46511
1527.42303	1.45859
1525.49446	1.45325
1523.56590	1.44779
1521.63733	1.44153
1519.70877	1.43833
1517.78021	1.43344
1515.85164	1.42155
1513.92308	1.40690
1511.99451	1.39248
1510.06595	1.37784
1508.13738	1.35586
1506.20882	1.32043
1504.28025	1.29830
1502.35169	1.28163
1500.42313	1.26249
1498.49456	1.23876
1496.56600	1.21184
1494.63743	1.19054
1492.70887	1.17477
1490.78030	1.15703
1488.85174	1.13499
1486.92317	1.11728
1484.99461	1.10514
1483.06605	1.09668
1481.13748	1.09174
1479.20892	1.09048
1477.28035	1.09357
1475.35179	1.10265
1473.42322	1.12111
1471.49466	1.14323
1469.56610	1.15572
1467.63753	1.16306
1465.70897	1.17200
1463.78040	1.18210
1461.85184	1.18761
1459.92327	1.19058
1457.99471	1.19892
1456.06614	1.21144
1454.13758	1.21416
1452.20902	1.21215
1450.28045	1.20844
1448.35189	1.20352
1446.42332	1.19841
1444.49476	1.19362
1442.56619	1.18797
1440.63763	1.18117
1438.70906	1.17234
1436.78050	1.15832
1434.85194	1.14331
1432.92337	1.13203
1430.99481	1.12102
1429.06624	1.11059
1427.13768	1.10369
1425.20911	1.09944
1423.28055	1.09707
1421.35198	1.09724
1419.42342	1.10197
1417.49486	1.11024
1415.56629	1.11533
1413.63773	1.11812
1411.70916	1.12140
1409.78060	1.12532
1407.85203	1.12848
1405.92347	1.13122
1403.99490	1.13427
1402.06634	1.13667
1400.13778	1.13853
1398.20921	1.14012
1396.28065	1.14077
1394.35208	1.14115
1392.42352	1.14185
1390.49495	1.14309
1388.56639	1.14712
1386.63782	1.15513
1384.70926	1.16305
1382.78070	1.16932
1380.85213	1.17423
1378.92357	1.17585
1376.99500	1.17199
1375.06644	1.16200
1373.13787	1.14815
1371.20931	1.13355
1369.28074	1.11674
1367.35218	1.09805
1365.42362	1.08055
1363.49505	1.06394
1361.56649	1.04988
1359.63792	1.04105
1357.70936	1.03550
1355.78079	1.03206
1353.85223	1.03057
1351.92366	1.03005
1349.99510	1.03016
1348.06654	1.03100
1346.13797	1.03180
1344.20941	1.03214
1342.28084	1.03269
1340.35228	1.03492
1338.42371	1.03909
1336.49515	1.04357
1334.56659	1.04850
1332.63802	1.05488
1330.70946	1.06229
1328.78089	1.06889
1326.85233	1.07315
1324.92376	1.07502
1322.99520	1.07572
1321.06663	1.07686
1319.13807	1.07899
1317.20951	1.08082
1315.28094	1.08145
1313.35238	1.08183
1311.42381	1.08241
1309.49525	1.08215
1307.56668	1.08048
1305.63812	1.07832
1303.70955	1.07648
1301.78099	1.07449
1299.85243	1.07169
1297.92386	1.06801
1295.99530	1.06429
1294.06673	1.06188
1292.13817	1.06102
1290.20960	1.06122
1288.28104	1.06245
1286.35247	1.06467
1284.42391	1.06705
1282.49535	1.06915
1280.56678	1.07153
1278.63822	1.07474
1276.70965	1.07877
1274.78109	1.08334
1272.85252	1.08868
1270.92396	1.09510
1268.99539	1.10232
1267.06683	1.10972
1265.13827	1.11602
1263.20970	1.12017
1261.28114	1.12239
1259.35257	1.12321
1257.42401	1.12340
1255.49544	1.12398
1253.56688	1.12514
1251.63831	1.12618
1249.70975	1.12649
1247.78119	1.12662
1245.85262	1.12710
1243.92406	1.12692
1241.99549	1.12500
1240.06693	1.12194
1238.13836	1.11881
1236.20980	1.11503
1234.28123	1.10967
1232.35267	1.10313
1230.42411	1.09576
1228.49554	1.08750
1226.56698	1.07860
1224.63841	1.06973
1222.70985	1.06164
1220.78128	1.05384
1218.85272	1.04582
1216.92415	1.03853
1214.99559	1.03291
1213.06703	1.02972
1211.13846	1.02970
1209.20990	1.03145
1207.28133	1.03183
1205.35277	1.02932
1203.42420	1.02434
1201.49564	1.01686
1199.56708	1.00708
1197.63851	0.99683
1195.70995	0.98748
1193.78138	0.97854
1191.85282	0.97030
1189.92425	0.96436
1187.99569	0.96053
1186.06712	0.95763
1184.13856	0.95612
1182.21000	0.95706
1180.28143	0.96059
1178.35287	0.96626
1176.42430	0.97348
1174.49574	0.98197
1172.56717	0.99128
1170.63861	1.00123
1168.71004	1.01287
1166.78148	1.02773
1164.85292	1.04570
1162.92435	1.06452
1160.99579	1.08137
1159.06722	1.09264
1157.13866	1.09482
1155.21009	1.08837
1153.28153	1.07678
1151.35296	1.06276
1149.42440	1.04753
1147.49584	1.03259
1145.56727	1.02084
1143.63871	1.01405
1141.71014	1.01123
1139.78158	1.01156
1137.85301	1.01539
1135.92445	1.02228
1133.99588	1.03172
1132.06732	1.04449
1130.13876	1.06022
1128.21019	1.07651
1126.28163	1.09210
1124.35306	1.10656
1122.42450	1.11829
1120.49593	1.12716
1118.56737	1.13475
1116.63880	1.14012
1114.71024	1.14039
1112.78168	1.13575
1110.85311	1.12900
1108.92455	1.12216
1106.99598	1.11545
1105.06742	1.10914
1103.13885	1.10485
1101.21029	1.10294
1099.28172	1.10269
1097.35316	1.10516
1095.42460	1.11199
1093.49603	1.12308
1091.56747	1.13716
1089.63890	1.15349
1087.71034	1.17192
1085.78177	1.19151
1083.85321	1.21079
1081.92464	1.22829
1079.99608	1.24097
1078.06752	1.24631
1076.13895	1.24487
1074.21039	1.23791
1072.28182	1.22660
1070.35326	1.21191
1068.42469	1.19602
1066.49613	1.18155
1064.56756	1.16842
1062.63900	1.15602
1060.71044	1.14398
1058.78187	1.13171
1056.85331	1.12047
1054.92474	1.11228
1052.99618	1.10696
1051.06761	1.10318
1049.13905	1.10157
1047.21049	1.10320
1045.28192	1.10795
1043.35336	1.11559
1041.42479	1.12470
1039.49623	1.13290
1037.56766	1.13933
1035.63910	1.14417
1033.71053	1.14724
1031.78197	1.14790
1029.85341	1.14596
1027.92484	1.14154
1025.99628	1.13442
1024.06771	1.12562
1022.13915	1.11707
1020.21058	1.10925
1018.28202	1.10232
1016.35345	1.09619
1014.42489	1.08821
1012.49633	1.07528
1010.56776	1.05805
1008.63920	1.03897
1006.71063	1.01961
1004.78207	1.00168
1002.85350	0.98624
1000.92494	0.97309
998.99637	0.96221
997.06781	0.95369
995.13925	0.94654
993.21068	0.93963
991.28212	0.93295
989.35355	0.92644
987.42499	0.92002
985.49642	0.91424
983.56786	0.90983
981.63929	0.90771
979.71073	0.90791
977.78217	0.90894
975.85360	0.90851
973.92504	0.90479
971.99647	0.89772
970.06791	0.88837
968.13934	0.87762
966.21078	0.86686
964.28221	0.85776
962.35365	0.85144
960.42509	0.84962
958.49652	0.85327
956.56796	0.85864
954.63939	0.85917
952.71083	0.85264
950.78226	0.84204
948.85370	0.83044
946.92513	0.81983
944.99657	0.81226
943.06801	0.80838
941.13944	0.80691
939.21088	0.80644
937.28231	0.80686
935.35375	0.80859
933.42518	0.81125
931.49662	0.81464
929.56805	0.81940
927.63949	0.82542
925.71093	0.83171
923.78236	0.83800
921.85380	0.84447
919.92523	0.85031
917.99667	0.85446
916.06810	0.85720
914.13954	0.85944
912.21098	0.86144
910.28241	0.86320
908.35385	0.86552
906.42528	0.86965
904.49672	0.87525
902.56815	0.88070
900.63959	0.88495
898.71102	0.88720
896.78246	0.88737
894.85390	0.88670
892.92533	0.88579
890.99677	0.88447
889.06820	0.88303
887.13964	0.88220
885.21107	0.88251
883.28251	0.88346
881.35394	0.88435
879.42538	0.88579
877.49682	0.88866
875.56825	0.89241
873.63969	0.89604
871.71112	0.89990
869.78256	0.90450
867.85399	0.90927
865.92543	0.91409
863.99686	0.91966
862.06830	0.92615
860.13974	0.93295
858.21117	0.93924
856.28261	0.94434
854.35404	0.94826
852.42548	0.95152
850.49691	0.95375
848.56835	0.95374
846.63978	0.95151
844.71122	0.94817
842.78266	0.94424
840.85409	0.93994
838.92553	0.93556
836.99696	0.93110
835.06840	0.92673
833.13983	0.92267
831.21127	0.91891
829.28270	0.91568
827.35414	0.91322
825.42558	0.91129
823.49701	0.90998
821.56845	0.90919
819.63988	0.90848
817.71132	0.90854
815.78275	0.91065
813.85419	0.91485
811.92562	0.92008
809.99706	0.92534
808.06850	0.93077
806.13993	0.93726
804.21137	0.94457
802.28280	0.95168
800.35424	0.95868
798.42567	0.96604
796.49711	0.97335
794.56854	0.98047
792.63998	0.98757
790.71142	0.99417
788.78285	1.00062
786.85429	1.00764
784.92572	1.01430
782.99716	1.01964
781.06859	1.02331
779.14003	1.02513
777.21147	1.02612
775.28290	1.02725
773.35434	1.02790
771.42577	1.02711
769.49721	1.02541
767.56864	1.02416
765.64008	1.02367
763.71151	1.02412
761.78295	1.02535
759.85439	1.02645
757.92582	1.02749
755.99726	1.02906
754.06869	1.03146
752.14013	1.03488
750.21156	1.03925
748.28300	1.04520
746.35443	1.05313
744.42587	1.06136
742.49731	1.06814
740.56874	1.07354
738.64018	1.07891
736.71161	1.08558
734.78305	1.09318
732.85448	1.09948
730.92592	1.10363
728.99735	1.10732
727.06879	1.11028
725.14023	1.11000
723.21166	1.10667
721.28310	1.10172
719.35453	1.09501
717.42597	1.08625
715.49740	1.07552
713.56884	1.06418
711.64027	1.05444
709.71171	1.04652
707.78315	1.03915
705.85458	1.03241
703.92602	1.02732
701.99745	1.02356
700.06889	1.01984
698.14032	1.01650
696.21176	1.01541
694.28319	1.01650
692.35463	1.01793
690.42607	1.02024
688.49750	1.02524
686.56894	1.03149
684.64037	1.03643
682.71181	1.04165
680.78324	1.04909
678.85468	1.05641
676.92611	1.06229
674.99755	1.06868
673.06899	1.07569
671.14042	1.08207
669.21186	1.08895
667.28329	1.09273
665.35473	1.09053
663.42616	1.08884
661.49760	1.09101
659.56903	1.09558
657.64047	1.09763
655.71191	1.09615
653.78334	1.09451
651.85478	1.09374
649.92621	1.09221
647.99765	1.08870
646.06908	1.08308
644.14052	1.07841
642.21195	1.07741
640.28339	1.07746
638.35483	1.07610
636.42626	1.07322
634.49770	1.06769
632.56913	1.06143
630.64057	1.05856
628.71200	1.05807
626.78344	1.05784
624.85488	1.05915
622.92631	1.06175
620.99775	1.06475
619.06918	1.06938
617.14062	1.07601
615.21205	1.08338
613.28349	1.09117
611.35492	1.09861
609.42636	1.10342
607.49780	1.10786
605.56923	1.11567
603.64067	1.12471
601.71210	1.13196
599.78354	1.13564
