3997.91406	1.13376
3995.98550	1.13669
3994.05693	1.13681
3992.12837	1.13613
3990.19980	1.13752
3988.27124	1.13775
3986.34268	1.13636
3984.41411	1.13515
3982.48555	1.13368
3980.55698	1.13259
3978.62842	1.13139
3976.69985	1.12742
3974.77129	1.12222
3972.84272	1.12052
3970.91416	1.12274
3968.98560	1.12586
3967.05703	1.12686
3965.12847	1.12487
3963.19990	1.12330
3961.27134	1.12515
3959.34277	1.12778
3957.41421	1.12803
3955.48564	1.12704
3953.55708	1.12634
3951.62852	1.12543
3949.69995	1.12464
3947.77139	1.12501
3945.84282	1.12550
3943.91426	1.12432
3941.98569	1.12215
3940.05713	1.12192
3938.12856	1.12399
3936.20000	1.12515
3934.27144	1.12135
3932.34287	1.11443
3930.41431	1.11285
3928.48574	1.11702
3926.55718	1.12068
3924.62861	1.12079
3922.70005	1.11836
3920.77148	1.11524
3918.84292	1.11104
3916.91436	1.10831
3914.98579	1.11033
3913.05723	1.11272
3911.12866	1.11134
3909.20010	1.10899
3907.27153	1.10983
3905.34297	1.11151
3903.41440	1.10756
3901.48584	1.10239
3899.55728	1.10279
3897.62871	1.10507
3895.70015	1.10484
3893.77158	1.10312
3891.84302	1.10359
3889.91445	1.10510
3887.98589	1.10419
3886.05733	1.10265
3884.12876	1.10242
3882.20020	1.10185
3880.27163	1.10031
3878.34307	1.09887
3876.41450	1.09781
3874.48594	1.09772
3872.55737	1.09782
3870.62881	1.09634
3868.70025	1.09508
3866.77168	1.09494
3864.84312	1.09550
3862.91455	1.09616
3860.98599	1.09605
3859.05742	1.09519
3857.12886	1.09118
3855.20029	1.08252
3853.27173	1.08120
3851.34317	1.08915
3849.41460	1.09085
3847.48604	1.09028
3845.55747	1.09155
3843.62891	1.09311
3841.70034	1.09303
3839.77178	1.09363
3837.84321	1.09312
3835.91465	1.09053
3833.98609	1.08859
3832.05752	1.08664
3830.12896	1.08517
3828.20039	1.08462
3826.27183	1.08335
3824.34326	1.07941
3822.41470	1.07264
3820.48613	1.07002
3818.55757	1.07430
3816.62901	1.07863
3814.70044	1.07940
3812.77188	1.07745
3810.84331	1.07662
3808.91475	1.07681
3806.98618	1.07486
3805.05762	1.07299
3803.12905	1.07516
3801.20049	1.07888
3799.27193	1.07859
3797.34336	1.07882
3795.41480	1.08280
3793.48623	1.08620
3791.55767	1.08693
3789.62910	1.08594
3787.70054	1.08348
3785.77197	1.08027
3783.84341	1.07894
3781.91485	1.08014
3779.98628	1.08146
3778.05772	1.08098
3776.12915	1.08003
3774.20059	1.08047
3772.27202	1.08230
3770.34346	1.08296
3768.41489	1.08007
3766.48633	1.07509
3764.55777	1.06978
3762.62920	1.06654
3760.70064	1.06790
3758.77207	1.07231
3756.84351	1.07303
3754.91494	1.06982
3752.98638	1.06537
3751.05781	1.06387
3749.12925	1.06646
3747.20069	1.06782
3745.27212	1.07091
3743.34356	1.07525
3741.41499	1.07660
3739.48643	1.07445
3737.55786	1.06442
3735.62930	1.04998
3733.70074	1.05253
3731.77217	1.06254
3729.84361	1.06483
3727.91504	1.06393
3725.98648	1.06487
3724.05791	1.06575
3722.12935	1.06610
3720.20078	1.06817
3718.27222	1.06896
3716.34366	1.06705
3714.41509	1.06523
3712.48653	1.06528
3710.55796	1.06718
3708.62940	1.06930
3706.70083	1.06920
3704.77227	1.06608
3702.84370	1.06287
3700.91514	1.06438
3698.98658	1.06864
3697.05801	1.07080
3695.12945	1.06875
3693.20088	1.06469
3691.27232	1.06312
3689.34375	1.06574
3687.41519	1.06953
3685.48662	1.07417
3683.55806	1.07927
3681.62950	1.08183
3679.70093	1.08092
3677.77237	1.08041
3675.84380	1.08533
3673.91524	1.08962
3671.98667	1.08737
3670.05811	1.08686
3668.12954	1.09320
3666.20098	1.09809
3664.27242	1.10173
3662.34385	1.10761
3660.41529	1.11374
3658.48672	1.11749
3656.55816	1.12054
3654.62959	1.12254
3652.70103	1.12266
3650.77246	1.12386
3648.84390	1.13238
3646.91534	1.14324
3644.98677	1.15061
3643.05821	1.15767
3641.12964	1.16427
3639.20108	1.16842
3637.27251	1.17246
3635.34395	1.17824
3633.41538	1.18273
3631.48682	1.18421
3629.55826	1.18878
3627.62969	1.20009
3625.70113	1.20994
3623.77256	1.21896
3621.84400	1.22692
3619.91543	1.23270
3617.98687	1.23727
3616.05830	1.24117
3614.12974	1.24816
3612.20118	1.25878
3610.27261	1.26622
3608.34405	1.27030
3606.41548	1.27608
3604.48692	1.28366
3602.55835	1.29105
3600.62979	1.29489
3598.70123	1.29487
3596.77266	1.29713
3594.84410	1.30630
3592.91553	1.31867
3590.98697	1.32615
3589.05840	1.32971
3587.12984	1.33723
3585.20127	1.34770
3583.27271	1.35667
3581.34415	1.36520
3579.41558	1.37126
3577.48702	1.37365
3575.55845	1.37635
3573.62989	1.38344
3571.70132	1.39399
3569.77276	1.40228
3567.84419	1.40583
3565.91563	1.41008
3563.98707	1.41546
3562.05850	1.42073
3560.12994	1.42868
3558.20137	1.43930
3556.27281	1.44773
3554.34424	1.45330
3552.41568	1.46274
3550.48711	1.47530
3548.55855	1.48195
3546.62999	1.48084
3544.70142	1.48143
3542.77286	1.48948
3540.84429	1.49739
3538.91573	1.49884
3536.98716	1.49488
3535.05860	1.49169
3533.13003	1.49609
3531.20147	1.50888
3529.27291	1.52241
3527.34434	1.52941
3525.41578	1.53373
3523.48721	1.54040
3521.55865	1.54657
3519.63008	1.54896
3517.70152	1.55066
3515.77295	1.55587
3513.84439	1.56443
3511.91583	1.57173
3509.98726	1.57633
3508.05870	1.58390
3506.13013	1.59515
3504.20157	1.60549
3502.27300	1.61219
3500.34444	1.61788
3498.41587	1.62686
3496.48731	1.63605
3494.55875	1.63990
3492.63018	1.64244
3490.70162	1.64876
3488.77305	1.65585
3486.84449	1.66056
3484.91592	1.66390
3482.98736	1.66804
3481.05879	1.67180
3479.13023	1.67149
3477.20167	1.66852
3475.27310	1.66093
3473.34454	1.65294
3471.41597	1.66096
3469.48741	1.67935
3467.55884	1.68798
3465.63028	1.68938
3463.70171	1.69184
3461.77315	1.69481
3459.84459	1.69794
3457.91602	1.69842
3455.98746	1.69394
3454.05889	1.68796
3452.13033	1.68856
3450.20176	1.69840
3448.27320	1.70996
3446.34464	1.71416
3444.41607	1.71040
3442.48751	1.70815
3440.55894	1.71254
3438.63038	1.71919
3436.70181	1.72645
3434.77325	1.73239
3432.84468	1.73161
3430.91612	1.72776
3428.98756	1.73090
3427.05899	1.73735
3425.13043	1.73571
3423.20186	1.72971
3421.27330	1.72481
3419.34473	1.71586
3417.41617	1.70580
3415.48760	1.70643
3413.55904	1.71915
3411.63048	1.73166
3409.70191	1.73529
3407.77335	1.73251
3405.84478	1.73054
3403.91622	1.73518
3401.98765	1.74561
3400.05909	1.75316
3398.13052	1.74904
3396.20196	1.74107
3394.27340	1.74245
3392.34483	1.75077
3390.41627	1.75626
3388.48770	1.75540
3386.55914	1.75410
3384.63057	1.75821
3382.70201	1.76307
3380.77344	1.76310
3378.84488	1.76139
3376.91632	1.76042
3374.98775	1.75858
3373.05919	1.76011
3371.13062	1.76548
3369.20206	1.76578
3367.27349	1.76233
3365.34493	1.76098
3363.41636	1.76105
3361.48780	1.76272
3359.55924	1.76249
3357.63067	1.75848
3355.70211	1.75455
3353.77354	1.75079
3351.84498	1.75150
3349.91641	1.76119
3347.98785	1.77245
3346.05928	1.77941
3344.13072	1.78055
3342.20216	1.77346
3340.27359	1.76688
3338.34503	1.77191
3336.41646	1.78401
3334.48790	1.79244
3332.55933	1.79462
3330.63077	1.79599
3328.70220	1.80050
3326.77364	1.79920
3324.84508	1.79113
3322.91651	1.79029
3320.98795	1.79186
3319.05938	1.78608
3317.13082	1.78415
3315.20225	1.79138
3313.27369	1.79759
3311.34513	1.80062
3309.41656	1.80206
3307.48800	1.79695
3305.55943	1.79184
3303.63087	1.79436
3301.70230	1.79666
3299.77374	1.79487
3297.84517	1.79394
3295.91661	1.79534
3293.98805	1.79837
3292.05948	1.80242
3290.13092	1.80758
3288.20235	1.81415
3286.27379	1.81582
3284.34522	1.81091
3282.41666	1.81060
3280.48809	1.81107
3278.55953	1.80228
3276.63097	1.79616
3274.70240	1.79963
3272.77384	1.80199
3270.84527	1.79528
3268.91671	1.78306
3266.98814	1.77467
3265.05958	1.77064
3263.13101	1.76633
3261.20245	1.76600
3259.27389	1.77125
3257.34532	1.77147
3255.41676	1.76386
3253.48819	1.75915
3251.55963	1.75770
3249.63106	1.75039
3247.70250	1.73941
3245.77393	1.73449
3243.84537	1.73494
3241.91681	1.73247
3239.98824	1.72926
3238.05968	1.73092
3236.13111	1.73283
3234.20255	1.72934
3232.27398	1.71941
3230.34542	1.70627
3228.41685	1.69777
3226.48829	1.69326
3224.55973	1.68713
3222.63116	1.68212
3220.70260	1.67843
3218.77403	1.67298
3216.84547	1.66858
3214.91690	1.66739
3212.98834	1.66929
3211.05977	1.67327
3209.13121	1.67488
3207.20265	1.67003
3205.27408	1.66188
3203.34552	1.65597
3201.41695	1.65318
3199.48839	1.65143
3197.55982	1.64840
3195.63126	1.64503
3193.70269	1.64166
3191.77413	1.63632
3189.84557	1.63176
3187.91700	1.62855
3185.98844	1.62359
3184.05987	1.61752
3182.13131	1.61154
3180.20274	1.60705
3178.27418	1.60479
3176.34562	1.60067
3174.41705	1.59157
3172.48849	1.58293
3170.55992	1.58165
3168.63136	1.58493
3166.70279	1.58616
3164.77423	1.58370
3162.84566	1.57678
3160.91710	1.56590
3158.98854	1.55485
3157.05997	1.54781
3155.13141	1.54784
3153.20284	1.55247
3151.27428	1.55540
3149.34571	1.55349
3147.41715	1.54691
3145.48858	1.54066
3143.56002	1.53862
3141.63146	1.53669
3139.70289	1.53256
3137.77433	1.52906
3135.84576	1.52802
3133.91720	1.52952
3131.98863	1.52920
3130.06007	1.52314
3128.13150	1.51550
3126.20294	1.51198
3124.27438	1.51364
3122.34581	1.51631
3120.41725	1.51629
3118.48868	1.51441
3116.56012	1.51072
3114.63155	1.50714
3112.70299	1.50584
3110.77442	1.50365
3108.84586	1.50115
3106.91730	1.50152
3104.98873	1.50222
3103.06017	1.50231
3101.13160	1.50267
3099.20304	1.50065
3097.27447	1.49788
3095.34591	1.49884
3093.41734	1.50207
3091.48878	1.50436
3089.56022	1.50536
3087.63165	1.50562
3085.70309	1.50368
3083.77452	1.49685
3081.84596	1.48787
3079.91739	1.48241
3077.98883	1.47980
3076.06026	1.47676
3074.13170	1.47571
3072.20314	1.47789
3070.27457	1.47758
3068.34601	1.47198
3066.41744	1.46592
3064.48888	1.46323
3062.56031	1.46149
3060.63175	1.45681
3058.70318	1.44907
3056.77462	1.44050
3054.84606	1.43381
3052.91749	1.43162
3050.98893	1.43259
3049.06036	1.43273
3047.13180	1.43006
3045.20323	1.42418
3043.27467	1.41790
3041.34610	1.41558
3039.41754	1.41525
3037.48898	1.41104
3035.56041	1.40209
3033.63185	1.39395
3031.70328	1.39130
3029.77472	1.39093
3027.84615	1.38746
3025.91759	1.38238
3023.98903	1.37978
3022.06046	1.38005
3020.13190	1.37989
3018.20333	1.37667
3016.27477	1.37326
3014.34620	1.37251
3012.41764	1.37112
3010.48907	1.36665
3008.56051	1.36146
3006.63195	1.35746
3004.70338	1.35408
3002.77482	1.35139
3000.84625	1.35062
2998.91769	1.34976
2996.98912	1.34749
2995.06056	1.34806
2993.13199	1.35244
2991.20343	1.35563
2989.27487	1.35577
2987.34630	1.35639
2985.41774	1.36012
2983.48917	1.36541
2981.56061	1.37075
2979.63204	1.37660
2977.70348	1.38301
2975.77491	1.38914
2973.84635	1.39543
2971.91779	1.40346
2969.98922	1.41161
2968.06066	1.41702
2966.13209	1.42133
2964.20353	1.42658
2962.27496	1.43106
2960.34640	1.43207
2958.41783	1.42897
2956.48927	1.42421
2954.56071	1.42049
2952.63214	1.41656
2950.70358	1.41144
2948.77501	1.40805
2946.84645	1.40889
2944.91788	1.41286
2942.98932	1.41659
2941.06075	1.42056
2939.13219	1.42891
2937.20363	1.44083
2935.27506	1.45176
2933.34650	1.46016
2931.41793	1.46832
2929.48937	1.47795
2927.56080	1.48611
2925.63224	1.49044
2923.70367	1.49395
2921.77511	1.49721
2919.84655	1.49505
2917.91798	1.48567
2915.98942	1.47090
2914.06085	1.45143
2912.13229	1.42950
2910.20372	1.41025
2908.27516	1.39685
2906.34659	1.38652
2904.41803	1.37661
2902.48947	1.36813
2900.56090	1.36165
2898.63234	1.35717
2896.70377	1.35390
2894.77521	1.35098
2892.84664	1.34837
2890.91808	1.34429
2888.98952	1.33844
2887.06095	1.33420
2885.13239	1.33251
2883.20382	1.33075
2881.27526	1.32768
2879.34669	1.32436
2877.41813	1.32210
2875.48956	1.32080
2873.56100	1.31845
2871.63244	1.31320
2869.70387	1.30574
2867.77531	1.29958
2865.84674	1.29739
2863.91818	1.29774
2861.98961	1.29793
2860.06105	1.29922
2858.13248	1.30589
2856.20392	1.31790
2854.27536	1.32999
2852.34679	1.33837
2850.41823	1.33966
2848.48966	1.32729
2846.56110	1.30143
2844.63253	1.27323
2842.70397	1.25116
2840.77540	1.23535
2838.84684	1.22414
2836.91828	1.21644
2834.98971	1.21018
2833.06115	1.20415
2831.13258	1.19910
2829.20402	1.19535
2827.27545	1.19226
2825.34689	1.18908
2823.41832	1.18555
2821.48976	1.18192
2819.56120	1.17746
2817.63263	1.17162
2815.70407	1.16677
2813.77550	1.16473
2811.84694	1.16309
2809.91837	1.15950
2807.98981	1.15539
2806.06124	1.15241
2804.13268	1.15028
2802.20412	1.14870
2800.27555	1.14717
2798.34699	1.14448
2796.41842	1.14050
2794.48986	1.13671
2792.56129	1.13409
2790.63273	1.13191
2788.70416	1.12953
2786.77560	1.12755
2784.84704	1.12584
2782.91847	1.12380
2780.98991	1.12186
2779.06134	1.12068
2777.13278	1.12002
2775.20421	1.11847
2773.27565	1.11575
2771.34708	1.11316
2769.41852	1.11079
2767.48996	1.10852
2765.56139	1.10652
2763.63283	1.10402
2761.70426	1.10050
2759.77570	1.09615
2757.84713	1.09191
2755.91857	1.08891
2753.99001	1.08686
2752.06144	1.08487
2750.13288	1.08312
2748.20431	1.08201
2746.27575	1.08122
2744.34718	1.08026
2742.41862	1.07820
2740.49005	1.07488
2738.56149	1.07223
2736.63293	1.07122
2734.70436	1.07090
2732.77580	1.07055
2730.84723	1.06948
2728.91867	1.06713
2726.99010	1.06436
2725.06154	1.06244
2723.13297	1.06150
2721.20441	1.06105
2719.27585	1.06031
2717.34728	1.05808
2715.41872	1.05456
2713.49015	1.05205
2711.56159	1.05151
2709.63302	1.05099
2707.70446	1.04915
2705.77589	1.04720
2703.84733	1.04614
2701.91877	1.04510
2699.99020	1.04307
2698.06164	1.04058
2696.13307	1.03877
2694.20451	1.03769
2692.27594	1.03647
2690.34738	1.03495
2688.41881	1.03363
2686.49025	1.03251
2684.56169	1.03094
2682.63312	1.02885
2680.70456	1.02704
2678.77599	1.02540
2676.84743	1.02317
2674.91886	1.02088
2672.99030	1.01908
2671.06173	1.01742
2669.13317	1.01592
2667.20461	1.01484
2665.27604	1.01393
2663.34748	1.01237
2661.41891	1.00989
2659.49035	1.00777
2657.56178	1.00688
2655.63322	1.00633
2653.70465	1.00513
2651.77609	1.00311
2649.84753	1.00109
2647.91896	0.99986
2645.99040	0.99888
2644.06183	0.99765
2642.13327	0.99678
2640.20470	0.99668
2638.27614	0.99667
2636.34757	0.99580
2634.41901	0.99405
2632.49045	0.99211
2630.56188	0.99069
2628.63332	0.98986
2626.70475	0.98927
2624.77619	0.98857
2622.84762	0.98739
2620.91906	0.98575
2618.99049	0.98414
2617.06193	0.98240
2615.13337	0.98039
2613.20480	0.97896
2611.27624	0.97875
2609.34767	0.97894
2607.41911	0.97838
2605.49054	0.97647
2603.56198	0.97335
2601.63342	0.97028
2599.70485	0.96828
2597.77629	0.96683
2595.84772	0.96529
2593.91916	0.96372
2591.99059	0.96217
2590.06203	0.96102
2588.13346	0.96055
2586.20490	0.96004
2584.27634	0.95881
2582.34777	0.95726
2580.41921	0.95583
2578.49064	0.95409
2576.56208	0.95199
2574.63351	0.95023
2572.70495	0.94859
2570.77638	0.94677
2568.84782	0.94554
2566.91926	0.94496
2564.99069	0.94402
2563.06213	0.94237
2561.13356	0.94029
2559.20500	0.93827
2557.27643	0.93674
2555.34787	0.93517
2553.41930	0.93316
2551.49074	0.93113
2549.56218	0.92920
2547.63361	0.92750
2545.70505	0.92636
2543.77648	0.92553
2541.84792	0.92485
2539.91935	0.92431
2537.99079	0.92354
2536.06222	0.92258
2534.13366	0.92170
2532.20510	0.92088
2530.27653	0.91982
2528.34797	0.91876
2526.41940	0.91843
2524.49084	0.91832
2522.56227	0.91768
2520.63371	0.91689
2518.70514	0.91628
2516.77658	0.91547
2514.84802	0.91411
2512.91945	0.91228
2510.99089	0.91037
2509.06232	0.90877
2507.13376	0.90748
2505.20519	0.90613
2503.27663	0.90480
2501.34806	0.90356
2499.41950	0.90188
2497.49094	0.89966
2495.56237	0.89762
2493.63381	0.89669
2491.70524	0.89645
2489.77668	0.89536
2487.84811	0.89323
2485.91955	0.89152
2483.99098	0.89111
2482.06242	0.89113
2480.13386	0.89044
2478.20529	0.88941
2476.27673	0.88870
2474.34816	0.88768
2472.41960	0.88605
2470.49103	0.88461
2468.56247	0.88355
2466.63391	0.88225
2464.70534	0.88039
2462.77678	0.87830
2460.84821	0.87650
2458.91965	0.87493
2456.99108	0.87353
2455.06252	0.87210
2453.13395	0.87019
2451.20539	0.86793
2449.27683	0.86565
2447.34826	0.86338
2445.41970	0.86131
2443.49113	0.85954
2441.56257	0.85780
2439.63400	0.85606
2437.70544	0.85438
2435.77687	0.85286
2433.84831	0.85165
2431.91975	0.85051
2429.99118	0.84945
2428.06262	0.84893
2426.13405	0.84872
2424.20549	0.84792
2422.27692	0.84633
2420.34836	0.84503
2418.41979	0.84490
2416.49123	0.84526
2414.56267	0.84520
2412.63410	0.84493
2410.70554	0.84455
2408.77697	0.84351
2406.84841	0.84208
2404.91984	0.84100
2402.99128	0.84005
2401.06271	0.83863
2399.13415	0.83694
2397.20559	0.83523
2395.27702	0.83311
2393.34846	0.83096
2391.41989	0.82964
2389.49133	0.82870
2387.56276	0.82737
2385.63420	0.82566
2383.70563	0.82371
2381.77707	0.82170
2379.84851	0.81987
2377.91994	0.81793
2375.99138	0.81573
2374.06281	0.81385
2372.13425	0.81255
2370.20568	0.81114
2368.27712	0.80942
2366.34855	0.80739
2364.41999	0.80438
2362.49143	0.80169
2360.56286	0.80143
2358.63430	0.80416
2356.70573	0.80748
2354.77717	0.80791
2352.84860	0.80728
2350.92004	0.80602
2348.99147	0.80295
2347.06291	0.79888
2345.13435	0.79641
2343.20578	0.79814
2341.27722	0.80013
2339.34865	0.79853
2337.42009	0.79641
2335.49152	0.79499
2333.56296	0.79326
2331.63440	0.79224
2329.70583	0.79272
2327.77727	0.79398
2325.84870	0.79386
2323.92014	0.79183
2321.99157	0.79032
2320.06301	0.79067
2318.13444	0.79193
2316.20588	0.79260
2314.27732	0.79222
2312.34875	0.79118
2310.42019	0.78991
2308.49162	0.78932
2306.56306	0.78989
2304.63449	0.79049
2302.70593	0.79026
2300.77736	0.78956
2298.84880	0.78865
2296.92024	0.78777
2294.99167	0.78735
2293.06311	0.78680
2291.13454	0.78557
2289.20598	0.78461
2287.27741	0.78423
2285.34885	0.78323
2283.42028	0.78149
2281.49172	0.77985
2279.56316	0.77832
2277.63459	0.77669
2275.70603	0.77496
2273.77746	0.77340
2271.84890	0.77235
2269.92033	0.77125
2267.99177	0.76971
2266.06320	0.76837
2264.13464	0.76752
2262.20608	0.76691
2260.27751	0.76621
2258.34895	0.76529
2256.42038	0.76437
2254.49182	0.76353
2252.56325	0.76276
2250.63469	0.76198
2248.70612	0.76112
2246.77756	0.76055
2244.84900	0.76062
2242.92043	0.76093
2240.99187	0.76086
2239.06330	0.76020
2237.13474	0.75921
2235.20617	0.75845
2233.27761	0.75815
2231.34904	0.75790
2229.42048	0.75729
2227.49192	0.75644
2225.56335	0.75575
2223.63479	0.75496
2221.70622	0.75372
2219.77766	0.75272
2217.84909	0.75235
2215.92053	0.75190
2213.99196	0.75097
2212.06340	0.74990
2210.13484	0.74879
2208.20627	0.74755
2206.27771	0.74645
2204.34914	0.74555
2202.42058	0.74450
2200.49201	0.74341
2198.56345	0.74239
2196.63488	0.74123
2194.70632	0.74021
2192.77776	0.73966
2190.84919	0.73937
2188.92063	0.73914
2186.99206	0.73916
2185.06350	0.73931
2183.13493	0.73909
2181.20637	0.73856
2179.27781	0.73849
2177.34924	0.73886
2175.42068	0.73876
2173.49211	0.73814
2171.56355	0.73774
2169.63498	0.73767
2167.70642	0.73758
2165.77785	0.73731
2163.84929	0.73693
2161.92073	0.73636
2159.99216	0.73545
2158.06360	0.73450
2156.13503	0.73369
2154.20647	0.73275
2152.27790	0.73156
2150.34934	0.73045
2148.42077	0.72969
2146.49221	0.72920
2144.56365	0.72859
2142.63508	0.72765
2140.70652	0.72644
2138.77795	0.72532
2136.84939	0.72437
2134.92082	0.72325
2132.99226	0.72192
2131.06369	0.72078
2129.13513	0.72004
2127.20657	0.71925
2125.27800	0.71806
2123.34944	0.71681
2121.42087	0.71598
2119.49231	0.71530
2117.56374	0.71441
2115.63518	0.71354
2113.70661	0.71275
2111.77805	0.71193
2109.84949	0.71123
2107.92092	0.71047
2105.99236	0.70938
2104.06379	0.70819
2102.13523	0.70701
2100.20666	0.70585
2098.27810	0.70492
2096.34953	0.70420
2094.42097	0.70334
2092.49241	0.70246
2090.56384	0.70185
2088.63528	0.70120
2086.70671	0.70024
2084.77815	0.69933
2082.84958	0.69856
2080.92102	0.69769
2078.99245	0.69670
2077.06389	0.69563
2075.13533	0.69435
2073.20676	0.69280
2071.27820	0.69118
2069.34963	0.68977
2067.42107	0.68849
2065.49250	0.68723
2063.56394	0.68603
2061.63537	0.68472
2059.70681	0.68325
2057.77825	0.68194
2055.84968	0.68092
2053.92112	0.68002
2051.99255	0.67904
2050.06399	0.67806
2048.13542	0.67734
2046.20686	0.67687
2044.27830	0.67628
2042.34973	0.67562
2040.42117	0.67518
2038.49260	0.67483
2036.56404	0.67451
2034.63547	0.67423
2032.70691	0.67385
2030.77834	0.67318
2028.84978	0.67226
2026.92122	0.67143
2024.99265	0.67087
2023.06409	0.67009
2021.13552	0.66887
2019.20696	0.66776
2017.27839	0.66712
2015.34983	0.66645
2013.42126	0.66525
2011.49270	0.66379
2009.56414	0.66241
2007.63557	0.66107
2005.70701	0.65980
2003.77844	0.65849
2001.84988	0.65690
1999.92131	0.65522
1997.99275	0.65386
1996.06418	0.65270
1994.13562	0.65144
1992.20706	0.65017
1990.27849	0.64908
1988.34993	0.64817
1986.42136	0.64729
1984.49280	0.64651
1982.56423	0.64596
1980.63567	0.64566
1978.70710	0.64555
1976.77854	0.64542
1974.84998	0.64512
1972.92141	0.64468
1970.99285	0.64407
1969.06428	0.64342
1967.13572	0.64313
1965.20715	0.64292
1963.27859	0.64208
1961.35002	0.64105
1959.42146	0.64037
1957.49290	0.63974
1955.56433	0.63889
1953.63577	0.63781
1951.70720	0.63648
1949.77864	0.63497
1947.85007	0.63339
1945.92151	0.63174
1943.99294	0.63035
1942.06438	0.62940
1940.13582	0.62815
1938.20725	0.62624
1936.27869	0.62422
1934.35012	0.62268
1932.42156	0.62155
1930.49299	0.62026
1928.56443	0.61875
1926.63586	0.61746
1924.70730	0.61659
1922.77874	0.61599
1920.85017	0.61537
1918.92161	0.61505
1916.99304	0.61527
1915.06448	0.61533
1913.13591	0.61513
1911.20735	0.61524
1909.27878	0.61579
1907.35022	0.61631
1905.42166	0.61628
1903.49309	0.61592
1901.56453	0.61561
1899.63596	0.61532
1897.70740	0.61504
1895.77883	0.61495
1893.85027	0.61484
1891.92171	0.61416
1889.99314	0.61322
1888.06458	0.61232
1886.13601	0.61124
1884.20745	0.61018
1882.27888	0.60927
1880.35032	0.60804
1878.42175	0.60636
1876.49319	0.60469
1874.56463	0.60316
1872.63606	0.60141
1870.70750	0.59946
1868.77893	0.59825
1866.85037	0.59788
1864.92180	0.59703
1862.99324	0.59584
1861.06467	0.59486
1859.13611	0.59414
1857.20755	0.59357
1855.27898	0.59305
1853.35042	0.59238
1851.42185	0.59151
1849.49329	0.59069
1847.56472	0.58996
1845.63616	0.58962
1843.70759	0.58996
1841.77903	0.58993
1839.85047	0.58932
1837.92190	0.58878
1835.99334	0.58845
1834.06477	0.58788
1832.13621	0.58708
1830.20764	0.58673
1828.27908	0.58654
1826.35051	0.58572
1824.42195	0.58475
1822.49339	0.58355
1820.56482	0.58184
1818.63626	0.58007
1816.70769	0.57838
1814.77913	0.57668
1812.85056	0.57493
1810.92200	0.57325
1808.99343	0.57184
1807.06487	0.57052
1805.13631	0.56910
1803.20774	0.56768
1801.27918	0.56684
1799.35061	0.56651
1797.42205	0.56589
1795.49348	0.56499
1793.56492	0.56456
1791.63635	0.56552
1789.70779	0.56612
1787.77923	0.56559
1785.85066	0.56513
1783.92210	0.56522
1781.99353	0.56562
1780.06497	0.56621
1778.13640	0.56635
1776.20784	0.56557
1774.27927	0.56471
1772.35071	0.56509
1770.42215	0.56636
1768.49358	0.56725
1766.56502	0.56748
1764.63645	0.56713
1762.70789	0.56732
1760.77932	0.56875
1758.85076	0.57018
1756.92220	0.57198
1754.99363	0.57412
1753.06507	0.57608
1751.13650	0.57985
1749.20794	0.58674
1747.27937	0.59373
1745.35081	0.59955
1743.42224	0.60520
1741.49368	0.61100
1739.56512	0.61669
1737.63655	0.62047
1735.70799	0.62300
1733.77942	0.62889
1731.85086	0.63522
1729.92229	0.63940
1727.99373	0.64394
1726.06516	0.64916
1724.13660	0.65625
1722.20804	0.66372
1720.27947	0.66966
1718.35091	0.67827
1716.42234	0.69552
1714.49378	0.71123
1712.56521	0.72228
1710.63665	0.73321
1708.70808	0.74558
1706.77952	0.76431
1704.85096	0.79104
1702.92239	0.81705
1700.99383	0.85495
1699.06526	0.91686
1697.13670	0.97920
1695.20813	1.04389
1693.27957	1.09228
1691.35100	1.12972
1689.42244	1.17461
1687.49388	1.21643
1685.56531	1.26040
1683.63675	1.33715
1681.70818	1.39478
1679.77962	1.42393
1677.85105	1.44963
1675.92249	1.48071
1673.99392	1.51598
1672.06536	1.54506
1670.13680	1.57610
1668.20823	1.60850
1666.27967	1.62497
1664.35110	1.63746
1662.42254	1.65246
1660.49397	1.66076
1658.56541	1.66341
1656.63684	1.66404
1654.70828	1.66637
1652.77972	1.67348
1650.85115	1.67443
1648.92259	1.66919
1646.99402	1.66126
1645.06546	1.65991
1643.13689	1.66118
1641.20833	1.65917
1639.27976	1.65185
1637.35120	1.64283
1635.42264	1.63769
1633.49407	1.63365
1631.56551	1.62687
1629.63694	1.61699
1627.70838	1.60707
1625.77981	1.59896
1623.85125	1.58924
1621.92269	1.57412
1619.99412	1.55681
1618.06556	1.53500
1616.13699	1.50531
1614.20843	1.48139
1612.27986	1.46166
1610.35130	1.44001
1608.42273	1.41631
1606.49417	1.39466
1604.56561	1.37776
1602.63704	1.36427
1600.70848	1.35328
1598.77991	1.34442
1596.85135	1.33776
1594.92278	1.33295
1592.99422	1.32961
1591.06565	1.32846
1589.13709	1.33014
1587.20853	1.33477
1585.27996	1.34219
1583.35140	1.35228
1581.42283	1.36363
1579.49427	1.37472
1577.56570	1.38898
1575.63714	1.41049
1573.70857	1.42655
1571.78001	1.43757
1569.85145	1.45527
1567.92288	1.47531
1565.99432	1.48838
1564.06575	1.49978
1562.13719	1.50986
1560.20862	1.52579
1558.28006	1.55740
1556.35149	1.56505
1554.42293	1.56681
1552.49437	1.57160
1550.56580	1.57344
1548.63724	1.57080
1546.70867	1.56807
1544.78011	1.56683
1542.85154	1.56448
1540.92298	1.55471
1538.99441	1.53969
1537.06585	1.53178
1535.13729	1.52560
1533.20872	1.51907
1531.28016	1.51225
1529.35159	1.50453
1527.42303	1.49603
1525.49446	1.48885
1523.56590	1.48104
1521.63733	1.46754
1519.70877	1.45687
1517.78021	1.44867
1515.85164	1.43718
1513.92308	1.42426
1511.99451	1.40906
1510.06595	1.39088
1508.13738	1.36170
1506.20882	1.31991
1504.28025	1.30145
1502.35169	1.28989
1500.42313	1.27433
1498.49456	1.25169
1496.56600	1.22487
1494.63743	1.20508
1492.70887	1.19088
1490.78030	1.17335
1488.85174	1.15113
1486.92317	1.13452
1484.99461	1.12305
1483.06605	1.11371
1481.13748	1.10700
1479.20892	1.10390
1477.28035	1.10407
1475.35179	1.10901
1473.42322	1.12452
1471.49466	1.14460
1469.56610	1.15490
1467.63753	1.16052
1465.70897	1.16797
1463.78040	1.17715
1461.85184	1.18257
1459.92327	1.18519
1457.99471	1.19082
1456.06614	1.19916
1454.13758	1.20103
1452.20902	1.20008
1450.28045	1.19809
1448.35189	1.19507
1446.42332	1.19205
1444.49476	1.18878
1442.56619	1.18391
1440.63763	1.17799
1438.70906	1.17095
1436.78050	1.16018
1434.85194	1.14770
1432.92337	1.13744
1430.99481	1.12829
1429.06624	1.12028
1427.13768	1.11459
1425.20911	1.11173
1423.28055	1.11193
1421.35198	1.11444
1419.42342	1.12031
1417.49486	1.12801
1415.56629	1.13219
1413.63773	1.13434
1411.70916	1.13632
1409.78060	1.13872
1407.85203	1.14141
1405.92347	1.14444
1403.99490	1.14761
1402.06634	1.14969
1400.13778	1.15010
1398.20921	1.14880
1396.28065	1.14732
1394.35208	1.14697
1392.42352	1.14695
1390.49495	1.14708
1388.56639	1.14929
1386.63782	1.15485
1384.70926	1.16103
1382.78070	1.16615
1380.85213	1.16961
1378.92357	1.16964
1376.99500	1.16514
1375.06644	1.15562
1373.13787	1.14214
1371.20931	1.12746
1369.28074	1.11066
1367.35218	1.09222
1365.42362	1.07502
1363.49505	1.05835
1361.56649	1.04409
1359.63792	1.03534
1357.70936	1.02935
1355.78079	1.02411
1353.85223	1.02012
1351.92366	1.01760
1349.99510	1.01600
1348.06654	1.01483
1346.13797	1.01372
1344.20941	1.01277
1342.28084	1.01223
1340.35228	1.01248
1338.42371	1.01417
1336.49515	1.01747
1334.56659	1.02231
1332.63802	1.02853
1330.70946	1.03515
1328.78089	1.04075
1326.85233	1.04498
1324.92376	1.04847
1322.99520	1.05167
1321.06663	1.05459
1319.13807	1.05742
1317.20951	1.06018
1315.28094	1.06274
1313.35238	1.06491
1311.42381	1.06564
1309.49525	1.06487
1307.56668	1.06388
1305.63812	1.06312
1303.70955	1.06229
1301.78099	1.06069
1299.85243	1.05751
1297.92386	1.05265
1295.99530	1.04714
1294.06673	1.04274
1292.13817	1.04021
1290.20960	1.03871
1288.28104	1.03745
1286.35247	1.03656
1284.42391	1.03599
1282.49535	1.03526
1280.56678	1.03449
1278.63822	1.03442
1276.70965	1.03553
1274.78109	1.03760
1272.85252	1.04084
1270.92396	1.04587
1268.99539	1.05245
1267.06683	1.05937
1265.13827	1.06539
1263.20970	1.06988
1261.28114	1.07303
1259.35257	1.07593
1257.42401	1.07938
1255.49544	1.08345
1253.56688	1.08770
1251.63831	1.09114
1249.70975	1.09363
1247.78119	1.09598
1245.85262	1.09811
1243.92406	1.09917
1241.99549	1.09874
1240.06693	1.09694
1238.13836	1.09391
1236.20980	1.08959
1234.28123	1.08402
1232.35267	1.07735
1230.42411	1.06965
1228.49554	1.06091
1226.56698	1.05146
1224.63841	1.04178
1222.70985	1.03209
1220.78128	1.02265
1218.85272	1.01376
1216.92415	1.00576
1214.99559	0.99960
1213.06703	0.99620
1211.13846	0.99527
1209.20990	0.99553
1207.28133	0.99573
1205.35277	0.99439
1203.42420	0.99024
1201.49564	0.98359
1199.56708	0.97551
1197.63851	0.96656
1195.70995	0.95747
1193.78138	0.94945
1191.85282	0.94290
1189.92425	0.93720
1187.99569	0.93224
1186.06712	0.92818
1184.13856	0.92501
1182.21000	0.92329
1180.28143	0.92344
1178.35287	0.92549
1176.42430	0.92944
1174.49574	0.93469
1172.56717	0.94011
1170.63861	0.94563
1168.71004	0.95278
1166.78148	0.96319
1164.85292	0.97716
1162.92435	0.99275
1160.99579	1.00675
1159.06722	1.01637
1157.13866	1.01945
1155.21009	1.01529
1153.28153	1.00507
1151.35296	0.99117
1149.42440	0.97633
1147.49584	0.96248
1145.56727	0.95130
1143.63871	0.94400
1141.71014	0.94031
1139.78158	0.94002
1137.85301	0.94332
1135.92445	0.94971
1133.99588	0.95841
1132.06732	0.96897
1130.13876	0.98150
1128.21019	0.99594
1126.28163	1.01061
1124.35306	1.02354
1122.42450	1.03506
1120.49593	1.04595
1118.56737	1.05483
1116.63880	1.05985
1114.71024	1.06056
1112.78168	1.05771
1110.85311	1.05271
1108.92455	1.04721
1106.99598	1.04216
1105.06742	1.03745
1103.13885	1.03334
1101.21029	1.03187
1099.28172	1.03437
1097.35316	1.03957
1095.42460	1.04710
1093.49603	1.05822
1091.56747	1.07243
1089.63890	1.08820
1087.71034	1.10556
1085.78177	1.12520
1083.85321	1.14645
1081.92464	1.16569
1079.99608	1.17809
1078.06752	1.18329
1076.13895	1.18440
1074.21039	1.18073
1072.28182	1.17014
1070.35326	1.15521
1068.42469	1.13986
1066.49613	1.12608
1064.56756	1.11437
1062.63900	1.10327
1060.71044	1.09126
1058.78187	1.07851
1056.85331	1.06592
1054.92474	1.05450
1052.99618	1.04486
1051.06761	1.03684
1049.13905	1.03081
1047.21049	1.02830
1045.28192	1.02962
1043.35336	1.03341
1041.42479	1.03887
1039.49623	1.04461
1037.56766	1.04844
1035.63910	1.04958
1033.71053	1.04852
1031.78197	1.04606
1029.85341	1.04269
1027.92484	1.03789
1025.99628	1.03053
1024.06771	1.02067
1022.13915	1.01027
1020.21058	1.00145
1018.28202	0.99478
1016.35345	0.98848
1014.42489	0.97999
1012.49633	0.96816
1010.56776	0.95314
1008.63920	0.93610
1006.71063	0.91903
1004.78207	0.90330
1002.85350	0.88945
1000.92494	0.87803
998.99637	0.86949
997.06781	0.86345
995.13925	0.85869
993.21068	0.85395
991.28212	0.84846
989.35355	0.84224
987.42499	0.83578
985.49642	0.82976
983.56786	0.82536
981.63929	0.82322
979.71073	0.82259
977.78217	0.82263
975.85360	0.82280
973.92504	0.82184
971.99647	0.81822
970.06791	0.81198
968.13934	0.80455
966.21078	0.79720
964.28221	0.79095
962.35365	0.78717
960.42509	0.78746
958.49652	0.79195
956.56796	0.79739
954.63939	0.79929
952.71083	0.79603
950.78226	0.78902
948.85370	0.78059
946.92513	0.77322
944.99657	0.76839
943.06801	0.76588
941.13944	0.76477
939.21088	0.76432
937.28231	0.76435
935.35375	0.76492
933.42518	0.76567
931.49662	0.76648
929.56805	0.76762
927.63949	0.76912
925.71093	0.77114
923.78236	0.77373
921.85380	0.77644
919.92523	0.77881
917.99667	0.78009
916.06810	0.77976
914.13954	0.77874
912.21098	0.77849
910.28241	0.77920
908.35385	0.78033
906.42528	0.78224
904.49672	0.78527
902.56815	0.78876
900.63959	0.79213
898.71102	0.79482
896.78246	0.79625
894.85390	0.79655
892.92533	0.79626
890.99677	0.79568
889.06820	0.79487
887.13964	0.79413
885.21107	0.79386
883.28251	0.79384
881.35394	0.79400
879.42538	0.79485
877.49682	0.79641
875.56825	0.79816
873.63969	0.79961
871.71112	0.80112
869.78256	0.80338
867.85399	0.80622
865.92543	0.80941
863.99686	0.81307
862.06830	0.81694
860.13974	0.82107
858.21117	0.82592
856.28261	0.83117
854.35404	0.83593
852.42548	0.84005
850.49691	0.84363
848.56835	0.84697
846.63978	0.85054
844.71122	0.85375
842.78266	0.85595
840.85409	0.85758
838.92553	0.85945
836.99696	0.86199
835.06840	0.86462
833.13983	0.86614
831.21127	0.86644
829.28270	0.86677
827.35414	0.86779
825.42558	0.86908
823.49701	0.87042
821.56845	0.87178
819.63988	0.87307
817.71132	0.87487
815.78275	0.87762
813.85419	0.88090
811.92562	0.88449
809.99706	0.88835
808.06850	0.89177
806.13993	0.89360
804.21137	0.89400
802.28280	0.89464
800.35424	0.89615
798.42567	0.89818
796.49711	0.90079
794.56854	0.90349
792.63998	0.90551
790.71142	0.90692
788.78285	0.90823
786.85429	0.90965
784.92572	0.91134
782.99716	0.91374
781.06859	0.91632
779.14003	0.91770
777.21147	0.91808
775.28290	0.91873
773.35434	0.91957
771.42577	0.91973
769.49721	0.91968
767.56864	0.92047
765.64008	0.92169
763.71151	0.92254
761.78295	0.92347
759.85439	0.92532
757.92582	0.92835
755.99726	0.93211
754.06869	0.93562
752.14013	0.93904
750.21156	0.94368
748.28300	0.94957
746.35443	0.95578
744.42587	0.96167
742.49731	0.96672
740.56874	0.97095
738.64018	0.97547
736.71161	0.98089
734.78305	0.98653
732.85448	0.99181
730.92592	0.99693
728.99735	1.00210
727.06879	1.00693
725.14023	1.01057
723.21166	1.01289
721.28310	1.01415
719.35453	1.01391
717.42597	1.01225
715.49740	1.01067
713.56884	1.01013
711.64027	1.01014
709.71171	1.01041
707.78315	1.01107
705.85458	1.01167
703.92602	1.01181
701.99745	1.01127
700.06889	1.00993
698.14032	1.00867
696.21176	1.00843
694.28319	1.00835
692.35463	1.00751
690.42607	1.00714
688.49750	1.00822
686.56894	1.00860
684.64037	1.00724
682.71181	1.00782
680.78324	1.01158
678.85468	1.01417
676.92611	1.01381
674.99755	1.01251
673.06899	1.01208
671.14042	1.01419
669.21186	1.02069
667.28329	1.02679
665.35473	1.02680
663.42616	1.02572
661.49760	1.02574
659.56903	1.02780
657.64047	1.03012
655.71191	1.02863
653.78334	1.02339
651.85478	1.01732
649.92621	1.01215
647.99765	1.00905
646.06908	1.00732
644.14052	1.00511
642.21195	1.00246
640.28339	1.00034
638.35483	0.99822
636.42626	0.99564
634.49770	0.99522
632.56913	0.99786
630.64057	1.00004
628.71200	1.00047
626.78344	1.00184
624.85488	1.00567
622.92631	1.01039
620.99775	1.01482
619.06918	1.01954
617.14062	1.02434
615.21205	1.02815
613.28349	1.03093
611.35492	1.03261
609.42636	1.03333
607.49780	1.03528
605.56923	1.03892
603.64067	1.04063
601.71210	1.03948
599.78354	1.03944
