3997.91406	1.05995
3995.98550	1.06226
3994.05693	1.06389
3992.12837	1.06223
3990.19980	1.06019
3988.27124	1.06057
3986.34268	1.06128
3984.41411	1.05997
3982.48555	1.05804
3980.55698	1.05631
3978.62842	1.05484
3976.69985	1.05380
3974.77129	1.05230
3972.84272	1.05131
3970.91416	1.05135
3968.98560	1.05097
3967.05703	1.05122
3965.12847	1.05233
3963.19990	1.05256
3961.27134	1.05333
3959.34277	1.05543
3957.41421	1.05711
3955.48564	1.05827
3953.55708	1.05765
3951.62852	1.05395
3949.69995	1.05113
3947.77139	1.05248
3945.84282	1.05465
3943.91426	1.05449
3941.98569	1.05194
3940.05713	1.04859
3938.12856	1.04676
3936.20000	1.04737
3934.27144	1.04840
3932.34287	1.04861
3930.41431	1.04869
3928.48574	1.04694
3926.55718	1.04400
3924.62861	1.04371
3922.70005	1.04441
3920.77148	1.04225
3918.84292	1.03966
3916.91436	1.04123
3914.98579	1.04505
3913.05723	1.04682
3911.12866	1.04698
3909.20010	1.04526
3907.27153	1.04030
3905.34297	1.03504
3903.41440	1.03414
3901.48584	1.03622
3899.55728	1.03900
3897.62871	1.04071
3895.70015	1.03953
3893.77158	1.03665
3891.84302	1.03485
3889.91445	1.03404
3887.98589	1.03322
3886.05733	1.03376
3884.12876	1.03326
3882.20020	1.02988
3880.27163	1.02786
3878.34307	1.02685
3876.41450	1.02392
3874.48594	1.02167
3872.55737	1.02144
3870.62881	1.01980
3868.70025	1.01754
3866.77168	1.01596
3864.84312	1.01630
3862.91455	1.02042
3860.98599	1.02300
3859.05742	1.02155
3857.12886	1.01790
3855.20029	1.01263
3853.27173	1.01065
3851.34317	1.01623
3849.41460	1.01937
3847.48604	1.01911
3845.55747	1.01773
3843.62891	1.01681
3841.70034	1.01677
3839.77178	1.01786
3837.84321	1.02070
3835.91465	1.02158
3833.98609	1.01907
3832.05752	1.01616
3830.12896	1.01320
3828.20039	1.00909
3826.27183	1.00572
3824.34326	1.00432
3822.41470	1.00419
3820.48613	1.00335
3818.55757	0.99910
3816.62901	0.99734
3814.70044	1.00089
3812.77188	1.00245
3810.84331	1.00113
3808.91475	0.99988
3806.98618	1.00146
3805.05762	1.00475
3803.12905	1.00618
3801.20049	1.00365
3799.27193	0.99884
3797.34336	0.99805
3795.41480	1.00210
3793.48623	1.00456
3791.55767	1.00332
3789.62910	1.00038
3787.70054	0.99801
3785.77197	0.99859
3783.84341	1.00054
3781.91485	1.00136
3779.98628	1.00296
3778.05772	1.00373
3776.12915	1.00150
3774.20059	0.99897
3772.27202	0.99802
3770.34346	0.99956
3768.41489	1.00041
3766.48633	0.99793
3764.55777	0.99557
3762.62920	0.99391
3760.70064	0.99243
3758.77207	0.99288
3756.84351	0.99287
3754.91494	0.98953
3752.98638	0.98428
3751.05781	0.98214
3749.12925	0.98421
3747.20069	0.98550
3745.27212	0.98792
3743.34356	0.98949
3741.41499	0.98785
3739.48643	0.98520
3737.55786	0.98179
3735.62930	0.98062
3733.70074	0.98527
3731.77217	0.98863
3729.84361	0.98854
3727.91504	0.98705
3725.98648	0.98493
3724.05791	0.98315
3722.12935	0.98262
3720.20078	0.98348
3718.27222	0.98509
3716.34366	0.98662
3714.41509	0.98807
3712.48653	0.98930
3710.55796	0.98813
3708.62940	0.98543
3706.70083	0.98355
3704.77227	0.98268
3702.84370	0.98372
3700.91514	0.98619
3698.98658	0.98728
3697.05801	0.98743
3695.12945	0.98713
3693.20088	0.98459
3691.27232	0.98107
3689.34375	0.98573
3687.41519	0.99492
3685.48662	0.99771
3683.55806	0.99680
3681.62950	0.99553
3679.70093	0.99412
3677.77237	0.99271
3675.84380	0.99751
3673.91524	1.00553
3671.98667	1.00789
3670.05811	1.00996
3668.12954	1.01372
3666.20098	1.01713
3664.27242	1.02106
3662.34385	1.02572
3660.41529	1.02968
3658.48672	1.03234
3656.55816	1.03602
3654.62959	1.03930
3652.70103	1.03922
3650.77246	1.03829
3648.84390	1.04516
3646.91534	1.05607
3644.98677	1.06190
3643.05821	1.06569
3641.12964	1.06962
3639.20108	1.07400
3637.27251	1.07759
3635.34395	1.07941
3633.41538	1.08139
3631.48682	1.08507
3629.55826	1.09353
3627.62969	1.10571
3625.70113	1.11171
3623.77256	1.11381
3621.84400	1.11570
3619.91543	1.12025
3617.98687	1.12494
3616.05830	1.12686
3614.12974	1.13145
3612.20118	1.13861
3610.27261	1.14399
3608.34405	1.15090
3606.41548	1.15932
3604.48692	1.16519
3602.55835	1.17107
3600.62979	1.17802
3598.70123	1.18121
3596.77266	1.18127
3594.84410	1.18715
3592.91553	1.19904
3590.98697	1.20581
3589.05840	1.20548
3587.12984	1.20552
3585.20127	1.20957
3583.27271	1.21496
3581.34415	1.22057
3579.41558	1.22358
3577.48702	1.22425
3575.55845	1.22624
3573.62989	1.22860
3571.70132	1.22981
3569.77276	1.23196
3567.84419	1.23965
3565.91563	1.25296
3563.98707	1.26051
3562.05850	1.26110
3560.12994	1.26096
3558.20137	1.26385
3556.27281	1.26771
3554.34424	1.27108
3552.41568	1.27588
3550.48711	1.28083
3548.55855	1.28499
3546.62999	1.29297
3544.70142	1.30315
3542.77286	1.30878
3540.84429	1.31273
3538.91573	1.31752
3536.98716	1.32129
3535.05860	1.32271
3533.13003	1.32155
3531.20147	1.31943
3529.27291	1.32006
3527.34434	1.32564
3525.41578	1.33108
3523.48721	1.33176
3521.55865	1.33331
3519.63008	1.33994
3517.70152	1.34828
3515.77295	1.35697
3513.84439	1.36608
3511.91583	1.36933
3509.98726	1.36604
3508.05870	1.36761
3506.13013	1.37570
3504.20157	1.38427
3502.27300	1.39155
3500.34444	1.39605
3498.41587	1.39827
3496.48731	1.40056
3494.55875	1.40145
3492.63018	1.40083
3490.70162	1.40287
3488.77305	1.40635
3486.84449	1.40687
3484.91592	1.40611
3482.98736	1.40825
3481.05879	1.41453
3479.13023	1.42024
3477.20167	1.42051
3475.27310	1.41737
3473.34454	1.41648
3471.41597	1.42063
3469.48741	1.42759
3467.55884	1.43249
3465.63028	1.43156
3463.70171	1.42855
3461.77315	1.43014
3459.84459	1.43477
3457.91602	1.43910
3455.98746	1.44263
3454.05889	1.44415
3452.13033	1.44586
3450.20176	1.44784
3448.27320	1.44529
3446.34464	1.43991
3444.41607	1.43890
3442.48751	1.44272
3440.55894	1.44732
3438.63038	1.45236
3436.70181	1.45669
3434.77325	1.45565
3432.84468	1.45134
3430.91612	1.44909
3428.98756	1.44806
3427.05899	1.44688
3425.13043	1.44803
3423.20186	1.45045
3421.27330	1.44846
3419.34473	1.44443
3417.41617	1.44589
3415.48760	1.44967
3413.55904	1.45057
3411.63048	1.45168
3409.70191	1.45463
3407.77335	1.45599
3405.84478	1.45333
3403.91622	1.45004
3401.98765	1.45231
3400.05909	1.45739
3398.13052	1.45900
3396.20196	1.45753
3394.27340	1.45349
3392.34483	1.44703
3390.41627	1.44226
3388.48770	1.44278
3386.55914	1.44857
3384.63057	1.45532
3382.70201	1.45827
3380.77344	1.45757
3378.84488	1.45494
3376.91632	1.45315
3374.98775	1.45569
3373.05919	1.45975
3371.13062	1.46006
3369.20206	1.45771
3367.27349	1.45642
3365.34493	1.45731
3363.41636	1.45815
3361.48780	1.45605
3359.55924	1.45422
3357.63067	1.45666
3355.70211	1.45900
3353.77354	1.45799
3351.84498	1.45837
3349.91641	1.46316
3347.98785	1.46789
3346.05928	1.46758
3344.13072	1.46561
3342.20216	1.46541
3340.27359	1.46319
3338.34503	1.46030
3336.41646	1.46378
3334.48790	1.47099
3332.55933	1.47480
3330.63077	1.47619
3328.70220	1.47687
3326.77364	1.47468
3324.84508	1.46957
3322.91651	1.46506
3320.98795	1.46495
3319.05938	1.46820
3317.13082	1.46998
3315.20225	1.47023
3313.27369	1.47210
3311.34513	1.47459
3309.41656	1.47534
3307.48800	1.47361
3305.55943	1.46995
3303.63087	1.46675
3301.70230	1.46540
3299.77374	1.46585
3297.84517	1.47026
3295.91661	1.47767
3293.98805	1.47916
3292.05948	1.47226
3290.13092	1.46664
3288.20235	1.46704
3286.27379	1.46926
3284.34522	1.47010
3282.41666	1.46999
3280.48809	1.47113
3278.55953	1.47448
3276.63097	1.47480
3274.70240	1.46972
3272.77384	1.46678
3270.84527	1.46599
3268.91671	1.46086
3266.98814	1.45531
3265.05958	1.45531
3263.13101	1.45694
3261.20245	1.45361
3259.27389	1.44745
3257.34532	1.44429
3255.41676	1.44307
3253.48819	1.44112
3251.55963	1.43899
3249.63106	1.43404
3247.70250	1.42464
3245.77393	1.41691
3243.84537	1.41432
3241.91681	1.41269
3239.98824	1.41020
3238.05968	1.40813
3236.13111	1.40567
3234.20255	1.40191
3232.27398	1.39802
3230.34542	1.39527
3228.41685	1.39482
3226.48829	1.39564
3224.55973	1.39345
3222.63116	1.38899
3220.70260	1.38669
3218.77403	1.38575
3216.84547	1.38467
3214.91690	1.38311
3212.98834	1.37795
3211.05977	1.37021
3209.13121	1.36611
3207.20265	1.36602
3205.27408	1.36442
3203.34552	1.35932
3201.41695	1.35356
3199.48839	1.35090
3197.55982	1.35144
3195.63126	1.35008
3193.70269	1.34415
3191.77413	1.33829
3189.84557	1.33758
3187.91700	1.33874
3185.98844	1.33445
3184.05987	1.32776
3182.13131	1.32621
3180.20274	1.32612
3178.27418	1.32088
3176.34562	1.31368
3174.41705	1.31029
3172.48849	1.30993
3170.55992	1.30766
3168.63136	1.30172
3166.70279	1.29640
3164.77423	1.29429
3162.84566	1.29232
3160.91710	1.28944
3158.98854	1.28694
3157.05997	1.28501
3155.13141	1.28422
3153.20284	1.28314
3151.27428	1.28095
3149.34571	1.28002
3147.41715	1.27987
3145.48858	1.27785
3143.56002	1.27392
3141.63146	1.27060
3139.70289	1.26956
3137.77433	1.26903
3135.84576	1.26753
3133.91720	1.26689
3131.98863	1.26687
3130.06007	1.26482
3128.13150	1.26265
3126.20294	1.26384
3124.27438	1.26671
3122.34581	1.26739
3120.41725	1.26576
3118.48868	1.26403
3116.56012	1.26294
3114.63155	1.26264
3112.70299	1.26244
3110.77442	1.26075
3108.84586	1.25835
3106.91730	1.25703
3104.98873	1.25724
3103.06017	1.25937
3101.13160	1.26130
3099.20304	1.25900
3097.27447	1.25414
3095.34591	1.25114
3093.41734	1.25096
3091.48878	1.25291
3089.56022	1.25431
3087.63165	1.25188
3085.70309	1.24739
3083.77452	1.24466
3081.84596	1.24348
3079.91739	1.24143
3077.98883	1.23890
3076.06026	1.23698
3074.13170	1.23495
3072.20314	1.23352
3070.27457	1.23362
3068.34601	1.23295
3066.41744	1.22965
3064.48888	1.22598
3062.56031	1.22308
3060.63175	1.21899
3058.70318	1.21383
3056.77462	1.21008
3054.84606	1.20782
3052.91749	1.20394
3050.98893	1.19804
3049.06036	1.19298
3047.13180	1.18879
3045.20323	1.18409
3043.27467	1.18048
3041.34610	1.17971
3039.41754	1.18027
3037.48898	1.18003
3035.56041	1.17874
3033.63185	1.17682
3031.70328	1.17482
3029.77472	1.17270
3027.84615	1.17036
3025.91759	1.16825
3023.98903	1.16562
3022.06046	1.16226
3020.13190	1.15958
3018.20333	1.15788
3016.27477	1.15699
3014.34620	1.15698
3012.41764	1.15641
3010.48907	1.15441
3008.56051	1.15220
3006.63195	1.15099
3004.70338	1.15021
3002.77482	1.14844
3000.84625	1.14639
2998.91769	1.14612
2996.98912	1.14736
2995.06056	1.14851
2993.13199	1.14979
2991.20343	1.15172
2989.27487	1.15341
2987.34630	1.15525
2985.41774	1.15804
2983.48917	1.16178
2981.56061	1.16746
2979.63204	1.17451
2977.70348	1.18014
2975.77491	1.18381
2973.84635	1.18760
2971.91779	1.19296
2969.98922	1.19956
2968.06066	1.20562
2966.13209	1.20939
2964.20353	1.21141
2962.27496	1.21284
2960.34640	1.21287
2958.41783	1.21170
2956.48927	1.21075
2954.56071	1.20845
2952.63214	1.20342
2950.70358	1.19762
2948.77501	1.19351
2946.84645	1.19307
2944.91788	1.19730
2942.98932	1.20504
2941.06075	1.21323
2939.13219	1.22034
2937.20363	1.22831
2935.27506	1.23744
2933.34650	1.24649
2931.41793	1.25579
2929.48937	1.26602
2927.56080	1.27689
2925.63224	1.28559
2923.70367	1.29067
2921.77511	1.29415
2919.84655	1.29605
2917.91798	1.29315
2915.98942	1.28190
2914.06085	1.26193
2912.13229	1.23836
2910.20372	1.21826
2908.27516	1.20426
2906.34659	1.19437
2904.41803	1.18677
2902.48947	1.18105
2900.56090	1.17626
2898.63234	1.17130
2896.70377	1.16696
2894.77521	1.16368
2892.84664	1.15999
2890.91808	1.15523
2888.98952	1.15079
2887.06095	1.14845
2885.13239	1.14765
2883.20382	1.14637
2881.27526	1.14441
2879.34669	1.14340
2877.41813	1.14366
2875.48956	1.14339
2873.56100	1.14133
2871.63244	1.13749
2869.70387	1.13294
2867.77531	1.12888
2865.84674	1.12525
2863.91818	1.12331
2861.98961	1.12558
2860.06105	1.13234
2858.13248	1.14140
2856.20392	1.15019
2854.27536	1.15848
2852.34679	1.16758
2850.41823	1.17395
2848.48966	1.16703
2846.56110	1.14293
2844.63253	1.11355
2842.70397	1.09085
2840.77540	1.07592
2838.84684	1.06569
2836.91828	1.05809
2834.98971	1.05161
2833.06115	1.04605
2831.13258	1.04197
2829.20402	1.03857
2827.27545	1.03424
2825.34689	1.02948
2823.41832	1.02637
2821.48976	1.02474
2819.56120	1.02287
2817.63263	1.02036
2815.70407	1.01760
2813.77550	1.01469
2811.84694	1.01166
2809.91837	1.00842
2807.98981	1.00479
2806.06124	1.00117
2804.13268	0.99824
2802.20412	0.99608
2800.27555	0.99403
2798.34699	0.99164
2796.41842	0.98920
2794.48986	0.98685
2792.56129	0.98462
2790.63273	0.98237
2788.70416	0.97993
2786.77560	0.97773
2784.84704	0.97586
2782.91847	0.97436
2780.98991	0.97358
2779.06134	0.97282
2777.13278	0.97125
2775.20421	0.96951
2773.27565	0.96774
2771.34708	0.96535
2769.41852	0.96350
2767.48996	0.96319
2765.56139	0.96310
2763.63283	0.96175
2761.70426	0.95921
2759.77570	0.95663
2757.84713	0.95453
2755.91857	0.95245
2753.99001	0.95031
2752.06144	0.94844
2750.13288	0.94685
2748.20431	0.94507
2746.27575	0.94320
2744.34718	0.94198
2742.41862	0.94113
2740.49005	0.93980
2738.56149	0.93824
2736.63293	0.93713
2734.70436	0.93652
2732.77580	0.93637
2730.84723	0.93669
2728.91867	0.93668
2726.99010	0.93584
2725.06154	0.93475
2723.13297	0.93393
2721.20441	0.93322
2719.27585	0.93242
2717.34728	0.93181
2715.41872	0.93132
2713.49015	0.93035
2711.56159	0.92896
2709.63302	0.92739
2707.70446	0.92556
2705.77589	0.92349
2703.84733	0.92127
2701.91877	0.91893
2699.99020	0.91658
2698.06164	0.91424
2696.13307	0.91192
2694.20451	0.91008
2692.27594	0.90910
2690.34738	0.90804
2688.41881	0.90629
2686.49025	0.90465
2684.56169	0.90364
2682.63312	0.90289
2680.70456	0.90199
2678.77599	0.90112
2676.84743	0.90067
2674.91886	0.90051
2672.99030	0.90022
2671.06173	0.89981
2669.13317	0.89927
2667.20461	0.89851
2665.27604	0.89783
2663.34748	0.89727
2661.41891	0.89681
2659.49035	0.89652
2657.56178	0.89560
2655.63322	0.89403
2653.70465	0.89319
2651.77609	0.89309
2649.84753	0.89226
2647.91896	0.89033
2645.99040	0.88857
2644.06183	0.88770
2642.13327	0.88698
2640.20470	0.88608
2638.27614	0.88550
2636.34757	0.88525
2634.41901	0.88502
2632.49045	0.88478
2630.56188	0.88438
2628.63332	0.88357
2626.70475	0.88283
2624.77619	0.88274
2622.84762	0.88318
2620.91906	0.88376
2618.99049	0.88414
2617.06193	0.88423
2615.13337	0.88434
2613.20480	0.88432
2611.27624	0.88387
2609.34767	0.88312
2607.41911	0.88239
2605.49054	0.88177
2603.56198	0.88117
2601.63342	0.88041
2599.70485	0.87903
2597.77629	0.87736
2595.84772	0.87659
2593.91916	0.87649
2591.99059	0.87541
2590.06203	0.87346
2588.13346	0.87228
2586.20490	0.87212
2584.27634	0.87190
2582.34777	0.87122
2580.41921	0.87026
2578.49064	0.86891
2576.56208	0.86729
2574.63351	0.86632
2572.70495	0.86669
2570.77638	0.86751
2568.84782	0.86756
2566.91926	0.86681
2564.99069	0.86561
2563.06213	0.86397
2561.13356	0.86216
2559.20500	0.86061
2557.27643	0.85925
2555.34787	0.85789
2553.41930	0.85664
2551.49074	0.85532
2549.56218	0.85342
2547.63361	0.85125
2545.70505	0.84953
2543.77648	0.84785
2541.84792	0.84579
2539.91935	0.84400
2537.99079	0.84281
2536.06222	0.84164
2534.13366	0.84027
2532.20510	0.83933
2530.27653	0.83881
2528.34797	0.83801
2526.41940	0.83717
2524.49084	0.83672
2522.56227	0.83635
2520.63371	0.83592
2518.70514	0.83556
2516.77658	0.83499
2514.84802	0.83433
2512.91945	0.83375
2510.99089	0.83285
2509.06232	0.83143
2507.13376	0.82977
2505.20519	0.82838
2503.27663	0.82761
2501.34806	0.82708
2499.41950	0.82637
2497.49094	0.82559
2495.56237	0.82477
2493.63381	0.82392
2491.70524	0.82286
2489.77668	0.82164
2487.84811	0.82098
2485.91955	0.82119
2483.99098	0.82150
2482.06242	0.82126
2480.13386	0.82094
2478.20529	0.82106
2476.27673	0.82147
2474.34816	0.82177
2472.41960	0.82187
2470.49103	0.82215
2468.56247	0.82247
2466.63391	0.82243
2464.70534	0.82229
2462.77678	0.82194
2460.84821	0.82120
2458.91965	0.82045
2456.99108	0.81989
2455.06252	0.81922
2453.13395	0.81837
2451.20539	0.81780
2449.27683	0.81750
2447.34826	0.81688
2445.41970	0.81590
2443.49113	0.81511
2441.56257	0.81482
2439.63400	0.81479
2437.70544	0.81457
2435.77687	0.81403
2433.84831	0.81312
2431.91975	0.81184
2429.99118	0.81059
2428.06262	0.81007
2426.13405	0.81028
2424.20549	0.81053
2422.27692	0.81038
2420.34836	0.81004
2418.41979	0.80993
2416.49123	0.81004
2414.56267	0.80978
2412.63410	0.80881
2410.70554	0.80751
2408.77697	0.80635
2406.84841	0.80547
2404.91984	0.80454
2402.99128	0.80322
2401.06271	0.80134
2399.13415	0.79917
2397.20559	0.79709
2395.27702	0.79510
2393.34846	0.79310
2391.41989	0.79121
2389.49133	0.78936
2387.56276	0.78719
2385.63420	0.78454
2383.70563	0.78225
2381.77707	0.78118
2379.84851	0.78075
2377.91994	0.77975
2375.99138	0.77817
2374.06281	0.77676
2372.13425	0.77539
2370.20568	0.77403
2368.27712	0.77392
2366.34855	0.77565
2364.41999	0.77776
2362.49143	0.77703
2360.56286	0.77298
2358.63430	0.77142
2356.70573	0.77332
2354.77717	0.77375
2352.84860	0.77310
2350.92004	0.77143
2348.99147	0.76776
2347.06291	0.76354
2345.13435	0.76217
2343.20578	0.76531
2341.27722	0.76807
2339.34865	0.76818
2337.42009	0.76845
2335.49152	0.76859
2333.56296	0.76661
2331.63440	0.76449
2329.70583	0.76474
2327.77727	0.76642
2325.84870	0.76786
2323.92014	0.76906
2321.99157	0.77011
2320.06301	0.77027
2318.13444	0.76942
2316.20588	0.76804
2314.27732	0.76702
2312.34875	0.76713
2310.42019	0.76781
2308.49162	0.76791
2306.56306	0.76719
2304.63449	0.76626
2302.70593	0.76571
2300.77736	0.76514
2298.84880	0.76412
2296.92024	0.76288
2294.99167	0.76189
2293.06311	0.76130
2291.13454	0.76084
2289.20598	0.76030
2287.27741	0.75983
2285.34885	0.75926
2283.42028	0.75836
2281.49172	0.75736
2279.56316	0.75668
2277.63459	0.75659
2275.70603	0.75664
2273.77746	0.75624
2271.84890	0.75559
2269.92033	0.75502
2267.99177	0.75440
2266.06320	0.75401
2264.13464	0.75408
2262.20608	0.75393
2260.27751	0.75327
2258.34895	0.75278
2256.42038	0.75261
2254.49182	0.75229
2252.56325	0.75163
2250.63469	0.75099
2248.70612	0.75056
2246.77756	0.74999
2244.84900	0.74907
2242.92043	0.74785
2240.99187	0.74637
2239.06330	0.74473
2237.13474	0.74323
2235.20617	0.74200
2233.27761	0.74073
2231.34904	0.73933
2229.42048	0.73808
2227.49192	0.73696
2225.56335	0.73559
2223.63479	0.73422
2221.70622	0.73331
2219.77766	0.73255
2217.84909	0.73166
2215.92053	0.73087
2213.99196	0.73028
2212.06340	0.72986
2210.13484	0.72934
2208.20627	0.72868
2206.27771	0.72805
2204.34914	0.72756
2202.42058	0.72732
2200.49201	0.72711
2198.56345	0.72659
2196.63488	0.72591
2194.70632	0.72531
2192.77776	0.72479
2190.84919	0.72427
2188.92063	0.72373
2186.99206	0.72313
2185.06350	0.72265
2183.13493	0.72244
2181.20637	0.72207
2179.27781	0.72121
2177.34924	0.72005
2175.42068	0.71891
2173.49211	0.71807
2171.56355	0.71749
2169.63498	0.71706
2167.70642	0.71690
2165.77785	0.71696
2163.84929	0.71696
2161.92073	0.71687
2159.99216	0.71665
2158.06360	0.71613
2156.13503	0.71543
2154.20647	0.71480
2152.27790	0.71417
2150.34934	0.71342
2148.42077	0.71260
2146.49221	0.71176
2144.56365	0.71084
2142.63508	0.70964
2140.70652	0.70817
2138.77795	0.70673
2136.84939	0.70525
2134.92082	0.70348
2132.99226	0.70173
2131.06369	0.70024
2129.13513	0.69872
2127.20657	0.69700
2125.27800	0.69531
2123.34944	0.69389
2121.42087	0.69284
2119.49231	0.69207
2117.56374	0.69123
2115.63518	0.69006
2113.70661	0.68891
2111.77805	0.68812
2109.84949	0.68744
2107.92092	0.68667
2105.99236	0.68583
2104.06379	0.68499
2102.13523	0.68441
2100.20666	0.68397
2098.27810	0.68321
2096.34953	0.68213
2094.42097	0.68103
2092.49241	0.68004
2090.56384	0.67896
2088.63528	0.67762
2086.70671	0.67620
2084.77815	0.67495
2082.84958	0.67355
2080.92102	0.67171
2078.99245	0.66996
2077.06389	0.66879
2075.13533	0.66790
2073.20676	0.66670
2071.27820	0.66515
2069.34963	0.66354
2067.42107	0.66202
2065.49250	0.66097
2063.56394	0.66045
2061.63537	0.65975
2059.70681	0.65872
2057.77825	0.65792
2055.84968	0.65740
2053.92112	0.65669
2051.99255	0.65560
2050.06399	0.65447
2048.13542	0.65348
2046.20686	0.65239
2044.27830	0.65105
2042.34973	0.64948
2040.42117	0.64779
2038.49260	0.64614
2036.56404	0.64460
2034.63547	0.64306
2032.70691	0.64140
2030.77834	0.63972
2028.84978	0.63801
2026.92122	0.63620
2024.99265	0.63440
2023.06409	0.63289
2021.13552	0.63169
2019.20696	0.63064
2017.27839	0.62969
2015.34983	0.62869
2013.42126	0.62751
2011.49270	0.62634
2009.56414	0.62537
2007.63557	0.62457
2005.70701	0.62379
2003.77844	0.62290
2001.84988	0.62196
1999.92131	0.62122
1997.99275	0.62068
1996.06418	0.61987
1994.13562	0.61880
1992.20706	0.61802
1990.27849	0.61736
1988.34993	0.61636
1986.42136	0.61517
1984.49280	0.61385
1982.56423	0.61236
1980.63567	0.61107
1978.70710	0.61002
1976.77854	0.60874
1974.84998	0.60713
1972.92141	0.60557
1970.99285	0.60414
1969.06428	0.60281
1967.13572	0.60164
1965.20715	0.60042
1963.27859	0.59904
1961.35002	0.59777
1959.42146	0.59640
1957.49290	0.59488
1955.56433	0.59377
1953.63577	0.59289
1951.70720	0.59155
1949.77864	0.58995
1947.85007	0.58851
1945.92151	0.58710
1943.99294	0.58582
1942.06438	0.58496
1940.13582	0.58402
1938.20725	0.58264
1936.27869	0.58129
1934.35012	0.58029
1932.42156	0.57944
1930.49299	0.57839
1928.56443	0.57718
1926.63586	0.57588
1924.70730	0.57473
1922.77874	0.57399
1920.85017	0.57320
1918.92161	0.57242
1916.99304	0.57210
1915.06448	0.57158
1913.13591	0.57062
1911.20735	0.56973
1909.27878	0.56926
1907.35022	0.56890
1905.42166	0.56824
1903.49309	0.56736
1901.56453	0.56653
1899.63596	0.56576
1897.70740	0.56486
1895.77883	0.56410
1893.85027	0.56338
1891.92171	0.56217
1889.99314	0.56119
1888.06458	0.56069
1886.13601	0.55983
1884.20745	0.55892
1882.27888	0.55830
1880.35032	0.55764
1878.42175	0.55689
1876.49319	0.55615
1874.56463	0.55509
1872.63606	0.55342
1870.70750	0.55183
1868.77893	0.55161
1866.85037	0.55180
1864.92180	0.55074
1862.99324	0.54929
1861.06467	0.54815
1859.13611	0.54719
1857.20755	0.54617
1855.27898	0.54506
1853.35042	0.54379
1851.42185	0.54236
1849.49329	0.54092
1847.56472	0.53946
1845.63616	0.53865
1843.70759	0.53916
1841.77903	0.53920
1839.85047	0.53838
1837.92190	0.53793
1835.99334	0.53779
1834.06477	0.53702
1832.13621	0.53590
1830.20764	0.53590
1828.27908	0.53660
1826.35051	0.53670
1824.42195	0.53700
1822.49339	0.53725
1820.56482	0.53701
1818.63626	0.53681
1816.70769	0.53670
1814.77913	0.53633
1812.85056	0.53590
1810.92200	0.53582
1808.99343	0.53571
1807.06487	0.53512
1805.13631	0.53424
1803.20774	0.53339
1801.27918	0.53327
1799.35061	0.53361
1797.42205	0.53322
1795.49348	0.53214
1793.56492	0.53179
1791.63635	0.53341
1789.70779	0.53427
1787.77923	0.53367
1785.85066	0.53335
1783.92210	0.53365
1781.99353	0.53427
1780.06497	0.53542
1778.13640	0.53634
1776.20784	0.53621
1774.27927	0.53624
1772.35071	0.53866
1770.42215	0.54186
1768.49358	0.54336
1766.56502	0.54396
1764.63645	0.54419
1762.70789	0.54551
1760.77932	0.54819
1758.85076	0.55026
1756.92220	0.55250
1754.99363	0.55470
1753.06507	0.55631
1751.13650	0.55989
1749.20794	0.56665
1747.27937	0.57332
1745.35081	0.57896
1743.42224	0.58448
1741.49368	0.59039
1739.56512	0.59671
1737.63655	0.60078
1735.70799	0.60366
1733.77942	0.61120
1731.85086	0.61895
1729.92229	0.62370
1727.99373	0.62862
1726.06516	0.63374
1724.13660	0.64008
1722.20804	0.64635
1720.27947	0.65113
1718.35091	0.65862
1716.42234	0.67365
1714.49378	0.68671
1712.56521	0.69570
1710.63665	0.70438
1708.70808	0.71409
1706.77952	0.72919
1704.85096	0.75016
1702.92239	0.76866
1700.99383	0.79469
1699.06526	0.83762
1697.13670	0.87910
1695.20813	0.91953
1693.27957	0.94734
1691.35100	0.96772
1689.42244	0.99277
1687.49388	1.01556
1685.56531	1.03896
1683.63675	1.08011
1681.70818	1.10955
1679.77962	1.12424
1677.85105	1.13792
1675.92249	1.15567
1673.99392	1.17498
1672.06536	1.18929
1670.13680	1.20659
1668.20823	1.22615
1666.27967	1.23589
1664.35110	1.24423
1662.42254	1.25810
1660.49397	1.27054
1658.56541	1.27753
1656.63684	1.28125
1654.70828	1.28505
1652.77972	1.29200
1650.85115	1.29217
1648.92259	1.28946
1646.99402	1.29080
1645.06546	1.29387
1643.13689	1.29323
1641.20833	1.29154
1639.27976	1.28886
1637.35120	1.28741
1635.42264	1.29267
1633.49407	1.29572
1631.56551	1.29410
1629.63694	1.29191
1627.70838	1.28961
1625.77981	1.28512
1623.85125	1.27813
1621.92269	1.26959
1619.99412	1.25992
1618.06556	1.24629
1616.13699	1.22504
1614.20843	1.20397
1612.27986	1.18438
1610.35130	1.16323
1608.42273	1.14167
1606.49417	1.12307
1604.56561	1.10871
1602.63704	1.09760
1600.70848	1.08951
1598.77991	1.08392
1596.85135	1.07970
1594.92278	1.07641
1592.99422	1.07477
1591.06565	1.07563
1589.13709	1.07899
1587.20853	1.08449
1585.27996	1.09217
1583.35140	1.10215
1581.42283	1.11239
1579.49427	1.12067
1577.56570	1.13128
1575.63714	1.14866
1573.70857	1.15914
1571.78001	1.16357
1569.85145	1.17257
1567.92288	1.18541
1565.99432	1.19540
1564.06575	1.20341
1562.13719	1.20791
1560.20862	1.21248
1558.28006	1.22738
1556.35149	1.23616
1554.42293	1.24049
1552.49437	1.24389
1550.56580	1.24530
1548.63724	1.24510
1546.70867	1.24305
1544.78011	1.23902
1542.85154	1.23458
1540.92298	1.23456
1538.99441	1.23520
1537.06585	1.23106
1535.13729	1.22459
1533.20872	1.21684
1531.28016	1.21046
1529.35159	1.20524
1527.42303	1.19977
1525.49446	1.19482
1523.56590	1.19092
1521.63733	1.18689
1519.70877	1.18433
1517.78021	1.18197
1515.85164	1.17578
1513.92308	1.16552
1511.99451	1.15319
1510.06595	1.13965
1508.13738	1.12084
1506.20882	1.09460
1504.28025	1.07818
1502.35169	1.06465
1500.42313	1.04921
1498.49456	1.03118
1496.56600	1.01106
1494.63743	0.99418
1492.70887	0.98111
1490.78030	0.96709
1488.85174	0.95183
1486.92317	0.94077
1484.99461	0.93236
1483.06605	0.92512
1481.13748	0.91992
1479.20892	0.91767
1477.28035	0.91840
1475.35179	0.92313
1473.42322	0.93486
1471.49466	0.94856
1469.56610	0.95494
1467.63753	0.95812
1465.70897	0.96349
1463.78040	0.97091
1461.85184	0.97459
1459.92327	0.97507
1457.99471	0.97813
1456.06614	0.98606
1454.13758	0.98916
1452.20902	0.98884
1450.28045	0.98749
1448.35189	0.98649
1446.42332	0.98575
1444.49476	0.98335
1442.56619	0.97895
1440.63763	0.97360
1438.70906	0.96769
1436.78050	0.96030
1434.85194	0.95194
1432.92337	0.94391
1430.99481	0.93542
1429.06624	0.92661
1427.13768	0.91911
1425.20911	0.91365
1423.28055	0.91040
1421.35198	0.90883
1419.42342	0.90924
1417.49486	0.91103
1415.56629	0.91107
1413.63773	0.90985
1411.70916	0.90865
1409.78060	0.90798
1407.85203	0.90778
1405.92347	0.90877
1403.99490	0.91100
1402.06634	0.91268
1400.13778	0.91419
1398.20921	0.91668
1396.28065	0.92026
1394.35208	0.92533
1392.42352	0.93042
1390.49495	0.93508
1388.56639	0.94270
1386.63782	0.95597
1384.70926	0.96969
1382.78070	0.97968
1380.85213	0.98589
1378.92357	0.98761
1376.99500	0.98414
1375.06644	0.97537
1373.13787	0.96307
1371.20931	0.95012
1369.28074	0.93572
1367.35218	0.92009
1365.42362	0.90583
1363.49505	0.89308
1361.56649	0.88279
1359.63792	0.87593
1357.70936	0.87118
1355.78079	0.86827
1353.85223	0.86683
1351.92366	0.86576
1349.99510	0.86528
1348.06654	0.86605
1346.13797	0.86762
1344.20941	0.86939
1342.28084	0.87135
1340.35228	0.87453
1338.42371	0.87980
1336.49515	0.88611
1334.56659	0.89290
1332.63802	0.90032
1330.70946	0.90777
1328.78089	0.91398
1326.85233	0.91791
1324.92376	0.91975
1322.99520	0.92062
1321.06663	0.92136
1319.13807	0.92230
1317.20951	0.92280
1315.28094	0.92223
1313.35238	0.92120
1311.42381	0.92021
1309.49525	0.91864
1307.56668	0.91614
1305.63812	0.91330
1303.70955	0.91073
1301.78099	0.90834
1299.85243	0.90572
1297.92386	0.90289
1295.99530	0.90056
1294.06673	0.89951
1292.13817	0.90007
1290.20960	0.90220
1288.28104	0.90520
1286.35247	0.90775
1284.42391	0.90924
1282.49535	0.91036
1280.56678	0.91184
1278.63822	0.91386
1276.70965	0.91661
1274.78109	0.92043
1272.85252	0.92550
1270.92396	0.93136
1268.99539	0.93701
1267.06683	0.94166
1265.13827	0.94485
1263.20970	0.94620
1261.28114	0.94577
1259.35257	0.94446
1257.42401	0.94300
1255.49544	0.94143
1253.56688	0.93987
1251.63831	0.93869
1249.70975	0.93794
1247.78119	0.93734
1245.85262	0.93669
1243.92406	0.93554
1241.99549	0.93379
1240.06693	0.93198
1238.13836	0.93005
1236.20980	0.92747
1234.28123	0.92444
1232.35267	0.92115
1230.42411	0.91705
1228.49554	0.91207
1226.56698	0.90683
1224.63841	0.90175
1222.70985	0.89687
1220.78128	0.89198
1218.85272	0.88734
1216.92415	0.88394
1214.99559	0.88248
1213.06703	0.88292
1211.13846	0.88471
1209.20990	0.88691
1207.28133	0.88798
1205.35277	0.88644
1203.42420	0.88221
1201.49564	0.87625
1199.56708	0.86921
1197.63851	0.86180
1195.70995	0.85509
1193.78138	0.84936
1191.85282	0.84474
1189.92425	0.84199
1187.99569	0.84147
1186.06712	0.84283
1184.13856	0.84577
1182.21000	0.84994
1180.28143	0.85478
1178.35287	0.86054
1176.42430	0.86757
1174.49574	0.87485
1172.56717	0.88174
1170.63861	0.88951
1168.71004	0.89929
1166.78148	0.91015
1164.85292	0.92063
1162.92435	0.92974
1160.99579	0.93611
1159.06722	0.93838
1157.13866	0.93599
1155.21009	0.92904
1153.28153	0.91826
1151.35296	0.90540
1149.42440	0.89246
1147.49584	0.88050
1145.56727	0.87026
1143.63871	0.86264
1141.71014	0.85870
1139.78158	0.85926
1137.85301	0.86363
1135.92445	0.87029
1133.99588	0.87903
1132.06732	0.89042
1130.13876	0.90430
1128.21019	0.91935
1126.28163	0.93346
1124.35306	0.94491
1122.42450	0.95356
1120.49593	0.95985
1118.56737	0.96348
1116.63880	0.96375
1114.71024	0.96019
1112.78168	0.95334
1110.85311	0.94498
1108.92455	0.93693
1106.99598	0.92962
1105.06742	0.92318
1103.13885	0.91875
1101.21029	0.91712
1099.28172	0.91807
1097.35316	0.92147
1095.42460	0.92793
1093.49603	0.93746
1091.56747	0.94869
1089.63890	0.96066
1087.71034	0.97344
1085.78177	0.98702
1083.85321	0.99984
1081.92464	1.00947
1079.99608	1.01498
1078.06752	1.01662
1076.13895	1.01523
1074.21039	1.01160
1072.28182	1.00587
1070.35326	0.99887
1068.42469	0.99202
1066.49613	0.98571
1064.56756	0.97884
1062.63900	0.97019
1060.71044	0.96005
1058.78187	0.94979
1056.85331	0.94054
1054.92474	0.93258
1052.99618	0.92603
1051.06761	0.92150
1049.13905	0.91950
1047.21049	0.92026
1045.28192	0.92450
1043.35336	0.93263
1041.42479	0.94249
1039.49623	0.95072
1037.56766	0.95644
1035.63910	0.95993
1033.71053	0.96072
1031.78197	0.95928
1029.85341	0.95651
1027.92484	0.95213
1025.99628	0.94608
1024.06771	0.93946
1022.13915	0.93358
1020.21058	0.92937
1018.28202	0.92644
1016.35345	0.92230
1014.42489	0.91476
1012.49633	0.90377
1010.56776	0.88973
1008.63920	0.87296
1006.71063	0.85507
1004.78207	0.83832
1002.85350	0.82383
1000.92494	0.81140
998.99637	0.80116
997.06781	0.79346
995.13925	0.78727
993.21068	0.78114
991.28212	0.77458
989.35355	0.76780
987.42499	0.76179
985.49642	0.75789
983.56786	0.75623
981.63929	0.75596
979.71073	0.75692
977.78217	0.75877
975.85360	0.76003
973.92504	0.75895
971.99647	0.75496
970.06791	0.74890
968.13934	0.74215
966.21078	0.73603
964.28221	0.73203
962.35365	0.73200
960.42509	0.73789
958.49652	0.74935
956.56796	0.76143
954.63939	0.76786
952.71083	0.76621
950.78226	0.75867
948.85370	0.74921
946.92513	0.74088
944.99657	0.73513
943.06801	0.73176
941.13944	0.72990
939.21088	0.72894
937.28231	0.72831
935.35375	0.72782
933.42518	0.72786
931.49662	0.72824
929.56805	0.72863
927.63949	0.72940
925.71093	0.73047
923.78236	0.73123
921.85380	0.73141
919.92523	0.73060
917.99667	0.72806
916.06810	0.72444
914.13954	0.72122
912.21098	0.71889
910.28241	0.71796
908.35385	0.71897
906.42528	0.72145
904.49672	0.72455
902.56815	0.72801
900.63959	0.73148
898.71102	0.73416
896.78246	0.73587
894.85390	0.73719
892.92533	0.73809
890.99677	0.73817
889.06820	0.73808
887.13964	0.73884
885.21107	0.74032
883.28251	0.74227
881.35394	0.74464
879.42538	0.74674
877.49682	0.74851
875.56825	0.75078
873.63969	0.75332
871.71112	0.75510
869.78256	0.75623
867.85399	0.75734
865.92543	0.75826
863.99686	0.75883
862.06830	0.75961
860.13974	0.76104
858.21117	0.76296
856.28261	0.76517
854.35404	0.76761
852.42548	0.77029
850.49691	0.77320
848.56835	0.77588
846.63978	0.77816
844.71122	0.78058
842.78266	0.78345
840.85409	0.78704
838.92553	0.79136
836.99696	0.79596
835.06840	0.80029
833.13983	0.80381
831.21127	0.80688
829.28270	0.81045
827.35414	0.81400
825.42558	0.81591
823.49701	0.81589
821.56845	0.81474
819.63988	0.81332
817.71132	0.81224
815.78275	0.81160
813.85419	0.81110
811.92562	0.81017
809.99706	0.80846
808.06850	0.80660
806.13993	0.80514
804.21137	0.80391
802.28280	0.80311
800.35424	0.80351
798.42567	0.80498
796.49711	0.80702
794.56854	0.80981
792.63998	0.81342
790.71142	0.81747
788.78285	0.82158
786.85429	0.82558
784.92572	0.82940
782.99716	0.83310
781.06859	0.83681
779.14003	0.84021
777.21147	0.84304
775.28290	0.84522
773.35434	0.84647
771.42577	0.84699
769.49721	0.84707
767.56864	0.84661
765.64008	0.84594
763.71151	0.84530
761.78295	0.84392
759.85439	0.84161
757.92582	0.83953
755.99726	0.83806
754.06869	0.83683
752.14013	0.83626
750.21156	0.83648
748.28300	0.83682
746.35443	0.83704
744.42587	0.83700
742.49731	0.83691
740.56874	0.83769
738.64018	0.83964
736.71161	0.84233
734.78305	0.84592
732.85448	0.85041
730.92592	0.85502
728.99735	0.85912
727.06879	0.86273
725.14023	0.86624
723.21166	0.86984
721.28310	0.87331
719.35453	0.87568
717.42597	0.87656
715.49740	0.87700
713.56884	0.87735
711.64027	0.87714
709.71171	0.87664
707.78315	0.87608
705.85458	0.87515
703.92602	0.87404
701.99745	0.87287
700.06889	0.87143
698.14032	0.87036
696.21176	0.87015
694.28319	0.86976
692.35463	0.86898
690.42607	0.86909
688.49750	0.86973
686.56894	0.86937
684.64037	0.86855
682.71181	0.86860
680.78324	0.86916
678.85468	0.86996
676.92611	0.87140
674.99755	0.87297
673.06899	0.87420
671.14042	0.87499
669.21186	0.87469
667.28329	0.87312
665.35473	0.87200
663.42616	0.87173
661.49760	0.87219
659.56903	0.87207
657.64047	0.87034
655.71191	0.86791
653.78334	0.86533
651.85478	0.86286
649.92621	0.86215
647.99765	0.86323
646.06908	0.86312
644.14052	0.86163
642.21195	0.86183
640.28339	0.86468
638.35483	0.86839
636.42626	0.87123
634.49770	0.87223
632.56913	0.87080
630.64057	0.86846
628.71200	0.86759
626.78344	0.86750
624.85488	0.86679
622.92631	0.86621
620.99775	0.86627
619.06918	0.86646
617.14062	0.86608
615.21205	0.86478
613.28349	0.86349
611.35492	0.86246
609.42636	0.86147
607.49780	0.86131
605.56923	0.86213
603.64067	0.86293
601.71210	0.86272
599.78354	0.86221
