3997.91406	0.90872
3995.98550	0.90891
3994.05693	0.90947
3992.12837	0.90938
3990.19980	0.90988
3988.27124	0.91065
3986.34268	0.90999
3984.41411	0.90843
3982.48555	0.90735
3980.55698	0.90663
3978.62842	0.90567
3976.69985	0.90466
3974.77129	0.90430
3972.84272	0.90502
3970.91416	0.90597
3968.98560	0.90476
3967.05703	0.90104
3965.12847	0.89845
3963.19990	0.89939
3961.27134	0.90147
3959.34277	0.90148
3957.41421	0.89959
3955.48564	0.89687
3953.55708	0.89435
3951.62852	0.89332
3949.69995	0.89487
3947.77139	0.89765
3945.84282	0.89773
3943.91426	0.89632
3941.98569	0.89651
3940.05713	0.89601
3938.12856	0.89342
3936.20000	0.88946
3934.27144	0.88593
3932.34287	0.88705
3930.41431	0.89042
3928.48574	0.88812
3926.55718	0.88323
3924.62861	0.88290
3922.70005	0.88410
3920.77148	0.88182
3918.84292	0.88124
3916.91436	0.88675
3914.98579	0.89087
3913.05723	0.88849
3911.12866	0.88342
3909.20010	0.87831
3907.27153	0.87384
3905.34297	0.87301
3903.41440	0.87667
3901.48584	0.87997
3899.55728	0.88213
3897.62871	0.88064
3895.70015	0.87364
3893.77158	0.86739
3891.84302	0.87005
3889.91445	0.87335
3887.98589	0.86986
3886.05733	0.86908
3884.12876	0.87140
3882.20020	0.87029
3880.27163	0.87098
3878.34307	0.86981
3876.41450	0.86502
3874.48594	0.86283
3872.55737	0.86371
3870.62881	0.86740
3868.70025	0.86854
3866.77168	0.86336
3864.84312	0.86332
3862.91455	0.86891
3860.98599	0.86756
3859.05742	0.86082
3857.12886	0.85307
3855.20029	0.85059
3853.27173	0.86502
3851.34317	0.87176
3849.41460	0.86466
3847.48604	0.85646
3845.55747	0.85118
3843.62891	0.84916
3841.70034	0.84745
3839.77178	0.84975
3837.84321	0.85885
3835.91465	0.85988
3833.98609	0.85461
3832.05752	0.85300
3830.12896	0.85363
3828.20039	0.85358
3826.27183	0.85262
3824.34326	0.84809
3822.41470	0.84461
3820.48613	0.84765
3818.55757	0.84657
3816.62901	0.84768
3814.70044	0.85336
3812.77188	0.85229
3810.84331	0.84639
3808.91475	0.84163
3806.98618	0.84137
3805.05762	0.83832
3803.12905	0.83448
3801.20049	0.84147
3799.27193	0.84556
3797.34336	0.84309
3795.41480	0.84197
3793.48623	0.84077
3791.55767	0.84043
3789.62910	0.84093
3787.70054	0.83966
3785.77197	0.83862
3783.84341	0.83815
3781.91485	0.83538
3779.98628	0.83422
3778.05772	0.83572
3776.12915	0.83393
3774.20059	0.82930
3772.27202	0.82605
3770.34346	0.82785
3768.41489	0.83026
3766.48633	0.82969
3764.55777	0.82857
3762.62920	0.82495
3760.70064	0.82205
3758.77207	0.82407
3756.84351	0.82218
3754.91494	0.81262
3752.98638	0.80386
3751.05781	0.80999
3749.12925	0.81803
3747.20069	0.81335
3745.27212	0.81427
3743.34356	0.82249
3741.41499	0.82141
3739.48643	0.81474
3737.55786	0.80950
3735.62930	0.81117
3733.70074	0.81975
3731.77217	0.82281
3729.84361	0.81809
3727.91504	0.81322
3725.98648	0.81352
3724.05791	0.81520
3722.12935	0.81416
3720.20078	0.81288
3718.27222	0.81160
3716.34366	0.80770
3714.41509	0.80115
3712.48653	0.79907
3710.55796	0.80746
3708.62940	0.81237
3706.70083	0.80971
3704.77227	0.80457
3702.84370	0.80385
3700.91514	0.80864
3698.98658	0.81016
3697.05801	0.80854
3695.12945	0.80653
3693.20088	0.80323
3691.27232	0.80204
3689.34375	0.81110
3687.41519	0.81885
3685.48662	0.81732
3683.55806	0.81299
3681.62950	0.80906
3679.70093	0.80608
3677.77237	0.80546
3675.84380	0.81373
3673.91524	0.81936
3671.98667	0.81521
3670.05811	0.81824
3668.12954	0.82669
3666.20098	0.82860
3664.27242	0.82857
3662.34385	0.82926
3660.41529	0.82868
3658.48672	0.82787
3656.55816	0.83231
3654.62959	0.83501
3652.70103	0.82916
3650.77246	0.82703
3648.84390	0.84797
3646.91534	0.86551
3644.98677	0.86690
3643.05821	0.86567
3641.12964	0.86696
3639.20108	0.86955
3637.27251	0.87125
3635.34395	0.87302
3633.41538	0.87452
3631.48682	0.87409
3629.55826	0.88290
3627.62969	0.90220
3625.70113	0.90721
3623.77256	0.90482
3621.84400	0.90432
3619.91543	0.91063
3617.98687	0.91843
3616.05830	0.91862
3614.12974	0.91969
3612.20118	0.92724
3610.27261	0.93610
3608.34405	0.94535
3606.41548	0.95185
3604.48692	0.95200
3602.55835	0.95135
3600.62979	0.95521
3598.70123	0.96147
3596.77266	0.96698
3594.84410	0.97381
3592.91553	0.97980
3590.98697	0.98062
3589.05840	0.98279
3587.12984	0.99420
3585.20127	1.00347
3583.27271	1.00663
3581.34415	1.01002
3579.41558	1.01446
3577.48702	1.01964
3575.55845	1.02598
3573.62989	1.03025
3571.70132	1.02972
3569.77276	1.02894
3567.84419	1.03938
3565.91563	1.05811
3563.98707	1.06518
3562.05850	1.06787
3560.12994	1.07356
3558.20137	1.07833
3556.27281	1.08034
3554.34424	1.08370
3552.41568	1.09114
3550.48711	1.09795
3548.55855	1.10199
3546.62999	1.10847
3544.70142	1.11858
3542.77286	1.12671
3540.84429	1.13149
3538.91573	1.13561
3536.98716	1.14069
3535.05860	1.14687
3533.13003	1.15281
3531.20147	1.15796
3529.27291	1.16336
3527.34434	1.16827
3525.41578	1.17343
3523.48721	1.18212
3521.55865	1.19215
3519.63008	1.19931
3517.70152	1.20327
3515.77295	1.20650
3513.84439	1.21250
3511.91583	1.22050
3509.98726	1.22785
3508.05870	1.23441
3506.13013	1.24026
3504.20157	1.24868
3502.27300	1.26197
3500.34444	1.27328
3498.41587	1.27944
3496.48731	1.28589
3494.55875	1.29491
3492.63018	1.30191
3490.70162	1.30646
3488.77305	1.31256
3486.84449	1.31924
3484.91592	1.32251
3482.98736	1.32442
3481.05879	1.33083
3479.13023	1.34038
3477.20167	1.34713
3475.27310	1.35065
3473.34454	1.35376
3471.41597	1.35714
3469.48741	1.36074
3467.55884	1.36389
3465.63028	1.36559
3463.70171	1.36973
3461.77315	1.38013
3459.84459	1.39130
3457.91602	1.39742
3455.98746	1.40187
3454.05889	1.40814
3452.13033	1.41281
3450.20176	1.41186
3448.27320	1.40872
3446.34464	1.40921
3444.41607	1.41202
3442.48751	1.41547
3440.55894	1.41907
3438.63038	1.42142
3436.70181	1.42362
3434.77325	1.42568
3432.84468	1.42879
3430.91612	1.43346
3428.98756	1.43344
3427.05899	1.42853
3425.13043	1.42711
3423.20186	1.43170
3421.27330	1.43734
3419.34473	1.43804
3417.41617	1.43397
3415.48760	1.42921
3413.55904	1.42438
3411.63048	1.42107
3409.70191	1.42377
3407.77335	1.43149
3405.84478	1.43669
3403.91622	1.43542
3401.98765	1.43133
3400.05909	1.42874
3398.13052	1.43143
3396.20196	1.43844
3394.27340	1.44204
3392.34483	1.44214
3390.41627	1.44345
3388.48770	1.44381
3386.55914	1.44310
3384.63057	1.44419
3382.70201	1.44470
3380.77344	1.44569
3378.84488	1.45163
3376.91632	1.45867
3374.98775	1.46288
3373.05919	1.46547
3371.13062	1.46588
3369.20206	1.46479
3367.27349	1.46461
3365.34493	1.46671
3363.41636	1.47004
3361.48780	1.47127
3359.55924	1.47184
3357.63067	1.47491
3355.70211	1.47756
3353.77354	1.47826
3351.84498	1.47954
3349.91641	1.48264
3347.98785	1.48843
3346.05928	1.49440
3344.13072	1.49697
3342.20216	1.49763
3340.27359	1.49792
3338.34503	1.49868
3336.41646	1.50386
3334.48790	1.51270
3332.55933	1.51669
3330.63077	1.51531
3328.70220	1.51638
3326.77364	1.52046
3324.84508	1.52420
3322.91651	1.52826
3320.98795	1.53471
3319.05938	1.54339
3317.13082	1.55077
3315.20225	1.55210
3313.27369	1.54830
3311.34513	1.54869
3309.41656	1.55688
3307.48800	1.56634
3305.55943	1.57055
3303.63087	1.56851
3301.70230	1.56874
3299.77374	1.57607
3297.84517	1.58562
3295.91661	1.59663
3293.98805	1.60715
3292.05948	1.61120
3290.13092	1.61146
3288.20235	1.61405
3286.27379	1.61732
3284.34522	1.61812
3282.41666	1.61549
3280.48809	1.60759
3278.55953	1.59837
3276.63097	1.59259
3274.70240	1.58929
3272.77384	1.58806
3270.84527	1.58535
3268.91671	1.57549
3266.98814	1.56130
3265.05958	1.55108
3263.13101	1.54668
3261.20245	1.54424
3259.27389	1.54261
3257.34532	1.53940
3255.41676	1.52893
3253.48819	1.51310
3251.55963	1.49950
3249.63106	1.49052
3247.70250	1.48525
3245.77393	1.48196
3243.84537	1.47762
3241.91681	1.47085
3239.98824	1.46303
3238.05968	1.45651
3236.13111	1.44982
3234.20255	1.43982
3232.27398	1.42975
3230.34542	1.42255
3228.41685	1.41658
3226.48829	1.41303
3224.55973	1.41196
3222.63116	1.40861
3220.70260	1.40174
3218.77403	1.39387
3216.84547	1.38587
3214.91690	1.37793
3212.98834	1.37059
3211.05977	1.36456
3209.13121	1.35974
3207.20265	1.35568
3205.27408	1.35215
3203.34552	1.34763
3201.41695	1.34265
3199.48839	1.33966
3197.55982	1.33692
3195.63126	1.33127
3193.70269	1.32342
3191.77413	1.31584
3189.84557	1.31020
3187.91700	1.30557
3185.98844	1.30006
3184.05987	1.29478
3182.13131	1.29033
3180.20274	1.28525
3178.27418	1.28028
3176.34562	1.27507
3174.41705	1.26824
3172.48849	1.26162
3170.55992	1.25637
3168.63136	1.25203
3166.70279	1.24864
3164.77423	1.24605
3162.84566	1.24347
3160.91710	1.23962
3158.98854	1.23533
3157.05997	1.23198
3155.13141	1.22825
3153.20284	1.22407
3151.27428	1.22029
3149.34571	1.21530
3147.41715	1.20876
3145.48858	1.20332
3143.56002	1.20032
3141.63146	1.19755
3139.70289	1.19379
3137.77433	1.19098
3135.84576	1.18932
3133.91720	1.18705
3131.98863	1.18483
3130.06007	1.18401
3128.13150	1.18360
3126.20294	1.18214
3124.27438	1.18055
3122.34581	1.18080
3120.41725	1.18175
3118.48868	1.18084
3116.56012	1.17905
3114.63155	1.17819
3112.70299	1.17765
3110.77442	1.17791
3108.84586	1.18020
3106.91730	1.18260
3104.98873	1.18204
3103.06017	1.17927
3101.13160	1.17776
3099.20304	1.17796
3097.27447	1.17737
3095.34591	1.17468
3093.41734	1.17143
3091.48878	1.16981
3089.56022	1.16952
3087.63165	1.16920
3085.70309	1.16799
3083.77452	1.16558
3081.84596	1.16287
3079.91739	1.16082
3077.98883	1.15895
3076.06026	1.15673
3074.13170	1.15472
3072.20314	1.15254
3070.27457	1.14873
3068.34601	1.14322
3066.41744	1.13874
3064.48888	1.13706
3062.56031	1.13448
3060.63175	1.12835
3058.70318	1.12126
3056.77462	1.11540
3054.84606	1.11053
3052.91749	1.10620
3050.98893	1.10254
3049.06036	1.09821
3047.13180	1.09243
3045.20323	1.08760
3043.27467	1.08527
3041.34610	1.08432
3039.41754	1.08246
3037.48898	1.07874
3035.56041	1.07439
3033.63185	1.07011
3031.70328	1.06687
3029.77472	1.06519
3027.84615	1.06302
3025.91759	1.05969
3023.98903	1.05676
3022.06046	1.05399
3020.13190	1.05060
3018.20333	1.04735
3016.27477	1.04412
3014.34620	1.04101
3012.41764	1.03860
3010.48907	1.03586
3008.56051	1.03243
3006.63195	1.02936
3004.70338	1.02789
3002.77482	1.02800
3000.84625	1.02767
2998.91769	1.02681
2996.98912	1.02761
2995.06056	1.02932
2993.13199	1.02961
2991.20343	1.03046
2989.27487	1.03469
2987.34630	1.04066
2985.41774	1.04577
2983.48917	1.04991
2981.56061	1.05449
2979.63204	1.06070
2977.70348	1.06805
2975.77491	1.07487
2973.84635	1.08088
2971.91779	1.08749
2969.98922	1.09515
2968.06066	1.10312
2966.13209	1.11070
2964.20353	1.11644
2962.27496	1.11904
2960.34640	1.11876
2958.41783	1.11618
2956.48927	1.11156
2954.56071	1.10510
2952.63214	1.09760
2950.70358	1.09117
2948.77501	1.08742
2946.84645	1.08663
2944.91788	1.08870
2942.98932	1.09373
2941.06075	1.10245
2939.13219	1.11372
2937.20363	1.12451
2935.27506	1.13445
2933.34650	1.14495
2931.41793	1.15493
2929.48937	1.16307
2927.56080	1.17119
2925.63224	1.18043
2923.70367	1.18829
2921.77511	1.19219
2919.84655	1.19261
2917.91798	1.18933
2915.98942	1.17749
2914.06085	1.15465
2912.13229	1.12805
2910.20372	1.10682
2908.27516	1.09215
2906.34659	1.08077
2904.41803	1.07184
2902.48947	1.06513
2900.56090	1.05958
2898.63234	1.05483
2896.70377	1.05053
2894.77521	1.04622
2892.84664	1.04202
2890.91808	1.03792
2888.98952	1.03346
2887.06095	1.02922
2885.13239	1.02627
2883.20382	1.02441
2881.27526	1.02326
2879.34669	1.02300
2877.41813	1.02334
2875.48956	1.02331
2873.56100	1.02119
2871.63244	1.01623
2869.70387	1.00980
2867.77531	1.00340
2865.84674	0.99794
2863.91818	0.99470
2861.98961	0.99443
2860.06105	0.99725
2858.13248	1.00322
2856.20392	1.01172
2854.27536	1.02179
2852.34679	1.03205
2850.41823	1.03750
2848.48966	1.02994
2846.56110	1.00756
2844.63253	0.97987
2842.70397	0.95697
2840.77540	0.94100
2838.84684	0.92994
2836.91828	0.92201
2834.98971	0.91573
2833.06115	0.91043
2831.13258	0.90630
2829.20402	0.90305
2827.27545	0.90061
2825.34689	0.89896
2823.41832	0.89654
2821.48976	0.89264
2819.56120	0.88876
2817.63263	0.88593
2815.70407	0.88345
2813.77550	0.88051
2811.84694	0.87750
2809.91837	0.87485
2807.98981	0.87209
2806.06124	0.86914
2804.13268	0.86635
2802.20412	0.86352
2800.27555	0.86053
2798.34699	0.85764
2796.41842	0.85525
2794.48986	0.85347
2792.56129	0.85145
2790.63273	0.84856
2788.70416	0.84589
2786.77560	0.84413
2784.84704	0.84224
2782.91847	0.83988
2780.98991	0.83774
2779.06134	0.83581
2777.13278	0.83410
2775.20421	0.83286
2773.27565	0.83160
2771.34708	0.83001
2769.41852	0.82842
2767.48996	0.82708
2765.56139	0.82570
2763.63283	0.82414
2761.70426	0.82274
2759.77570	0.82139
2757.84713	0.81970
2755.91857	0.81811
2753.99001	0.81708
2752.06144	0.81625
2750.13288	0.81539
2748.20431	0.81439
2746.27575	0.81274
2744.34718	0.81069
2742.41862	0.80893
2740.49005	0.80732
2738.56149	0.80582
2736.63293	0.80470
2734.70436	0.80362
2732.77580	0.80214
2730.84723	0.80028
2728.91867	0.79833
2726.99010	0.79653
2725.06154	0.79504
2723.13297	0.79392
2721.20441	0.79321
2719.27585	0.79254
2717.34728	0.79129
2715.41872	0.78980
2713.49015	0.78894
2711.56159	0.78824
2709.63302	0.78670
2707.70446	0.78474
2705.77589	0.78356
2703.84733	0.78294
2701.91877	0.78156
2699.99020	0.77977
2698.06164	0.77865
2696.13307	0.77759
2694.20451	0.77591
2692.27594	0.77455
2690.34738	0.77399
2688.41881	0.77325
2686.49025	0.77187
2684.56169	0.77036
2682.63312	0.76889
2680.70456	0.76756
2678.77599	0.76655
2676.84743	0.76543
2674.91886	0.76411
2672.99030	0.76336
2671.06173	0.76323
2669.13317	0.76288
2667.20461	0.76201
2665.27604	0.76063
2663.34748	0.75904
2661.41891	0.75782
2659.49035	0.75686
2657.56178	0.75583
2655.63322	0.75482
2653.70465	0.75396
2651.77609	0.75333
2649.84753	0.75278
2647.91896	0.75184
2645.99040	0.75045
2644.06183	0.74907
2642.13327	0.74814
2640.20470	0.74747
2638.27614	0.74658
2636.34757	0.74567
2634.41901	0.74532
2632.49045	0.74524
2630.56188	0.74475
2628.63332	0.74385
2626.70475	0.74306
2624.77619	0.74250
2622.84762	0.74183
2620.91906	0.74091
2618.99049	0.73979
2617.06193	0.73865
2615.13337	0.73776
2613.20480	0.73698
2611.27624	0.73614
2609.34767	0.73511
2607.41911	0.73382
2605.49054	0.73270
2603.56198	0.73187
2601.63342	0.73094
2599.70485	0.73001
2597.77629	0.72925
2595.84772	0.72851
2593.91916	0.72787
2591.99059	0.72735
2590.06203	0.72657
2588.13346	0.72552
2586.20490	0.72435
2584.27634	0.72330
2582.34777	0.72278
2580.41921	0.72235
2578.49064	0.72127
2576.56208	0.72009
2574.63351	0.71940
2572.70495	0.71870
2570.77638	0.71745
2568.84782	0.71595
2566.91926	0.71460
2564.99069	0.71339
2563.06213	0.71235
2561.13356	0.71128
2559.20500	0.70978
2557.27643	0.70812
2555.34787	0.70685
2553.41930	0.70598
2551.49074	0.70532
2549.56218	0.70477
2547.63361	0.70413
2545.70505	0.70312
2543.77648	0.70187
2541.84792	0.70113
2539.91935	0.70090
2537.99079	0.70040
2536.06222	0.69948
2534.13366	0.69843
2532.20510	0.69750
2530.27653	0.69690
2528.34797	0.69643
2526.41940	0.69573
2524.49084	0.69486
2522.56227	0.69400
2520.63371	0.69310
2518.70514	0.69214
2516.77658	0.69137
2514.84802	0.69100
2512.91945	0.69074
2510.99089	0.69012
2509.06232	0.68905
2507.13376	0.68785
2505.20519	0.68665
2503.27663	0.68551
2501.34806	0.68453
2499.41950	0.68353
2497.49094	0.68268
2495.56237	0.68225
2493.63381	0.68167
2491.70524	0.68047
2489.77668	0.67906
2487.84811	0.67804
2485.91955	0.67727
2483.99098	0.67633
2482.06242	0.67501
2480.13386	0.67372
2478.20529	0.67314
2476.27673	0.67300
2474.34816	0.67262
2472.41960	0.67198
2470.49103	0.67132
2468.56247	0.67056
2466.63391	0.66985
2464.70534	0.66926
2462.77678	0.66827
2460.84821	0.66699
2458.91965	0.66594
2456.99108	0.66509
2455.06252	0.66436
2453.13395	0.66366
2451.20539	0.66276
2449.27683	0.66173
2447.34826	0.66068
2445.41970	0.65943
2443.49113	0.65806
2441.56257	0.65699
2439.63400	0.65620
2437.70544	0.65531
2435.77687	0.65431
2433.84831	0.65348
2431.91975	0.65276
2429.99118	0.65187
2428.06262	0.65088
2426.13405	0.65000
2424.20549	0.64934
2422.27692	0.64890
2420.34836	0.64843
2418.41979	0.64791
2416.49123	0.64759
2414.56267	0.64721
2412.63410	0.64646
2410.70554	0.64570
2408.77697	0.64490
2406.84841	0.64365
2404.91984	0.64225
2402.99128	0.64130
2401.06271	0.64068
2399.13415	0.63986
2397.20559	0.63891
2395.27702	0.63797
2393.34846	0.63698
2391.41989	0.63608
2389.49133	0.63521
2387.56276	0.63435
2385.63420	0.63365
2383.70563	0.63303
2381.77707	0.63229
2379.84851	0.63123
2377.91994	0.62993
2375.99138	0.62885
2374.06281	0.62774
2372.13425	0.62541
2370.20568	0.62235
2368.27712	0.62086
2366.34855	0.62106
2364.41999	0.62084
2362.49143	0.61938
2360.56286	0.61869
2358.63430	0.62052
2356.70573	0.62437
2354.77717	0.62791
2352.84860	0.62844
2350.92004	0.62581
2348.99147	0.62127
2347.06291	0.61594
2345.13435	0.61270
2343.20578	0.61434
2341.27722	0.61632
2339.34865	0.61510
2337.42009	0.61371
2335.49152	0.61389
2333.56296	0.61429
2331.63440	0.61438
2329.70583	0.61448
2327.77727	0.61496
2325.84870	0.61579
2323.92014	0.61653
2321.99157	0.61683
2320.06301	0.61609
2318.13444	0.61479
2316.20588	0.61395
2314.27732	0.61316
2312.34875	0.61202
2310.42019	0.61106
2308.49162	0.61057
2306.56306	0.61012
2304.63449	0.60925
2302.70593	0.60831
2300.77736	0.60784
2298.84880	0.60755
2296.92024	0.60704
2294.99167	0.60647
2293.06311	0.60600
2291.13454	0.60557
2289.20598	0.60517
2287.27741	0.60470
2285.34885	0.60412
2283.42028	0.60359
2281.49172	0.60317
2279.56316	0.60266
2277.63459	0.60202
2275.70603	0.60143
2273.77746	0.60091
2271.84890	0.60059
2269.92033	0.60042
2267.99177	0.59992
2266.06320	0.59919
2264.13464	0.59880
2262.20608	0.59854
2260.27751	0.59802
2258.34895	0.59746
2256.42038	0.59708
2254.49182	0.59667
2252.56325	0.59632
2250.63469	0.59637
2248.70612	0.59658
2246.77756	0.59638
2244.84900	0.59572
2242.92043	0.59510
2240.99187	0.59464
2239.06330	0.59402
2237.13474	0.59327
2235.20617	0.59262
2233.27761	0.59198
2231.34904	0.59117
2229.42048	0.59051
2227.49192	0.59012
2225.56335	0.58953
2223.63479	0.58853
2221.70622	0.58756
2219.77766	0.58713
2217.84909	0.58691
2215.92053	0.58629
2213.99196	0.58551
2212.06340	0.58502
2210.13484	0.58468
2208.20627	0.58421
2206.27771	0.58356
2204.34914	0.58297
2202.42058	0.58272
2200.49201	0.58253
2198.56345	0.58196
2196.63488	0.58111
2194.70632	0.58021
2192.77776	0.57928
2190.84919	0.57846
2188.92063	0.57787
2186.99206	0.57731
2185.06350	0.57642
2183.13493	0.57522
2181.20637	0.57435
2179.27781	0.57395
2177.34924	0.57363
2175.42068	0.57319
2173.49211	0.57250
2171.56355	0.57165
2169.63498	0.57128
2167.70642	0.57163
2165.77785	0.57204
2163.84929	0.57207
2161.92073	0.57195
2159.99216	0.57196
2158.06360	0.57205
2156.13503	0.57215
2154.20647	0.57217
2152.27790	0.57193
2150.34934	0.57149
2148.42077	0.57115
2146.49221	0.57095
2144.56365	0.57062
2142.63508	0.57027
2140.70652	0.56991
2138.77795	0.56914
2136.84939	0.56806
2134.92082	0.56711
2132.99226	0.56634
2131.06369	0.56561
2129.13513	0.56491
2127.20657	0.56423
2125.27800	0.56345
2123.34944	0.56240
2121.42087	0.56132
2119.49231	0.56053
2117.56374	0.55995
2115.63518	0.55932
2113.70661	0.55855
2111.77805	0.55770
2109.84949	0.55683
2107.92092	0.55612
2105.99236	0.55564
2104.06379	0.55515
2102.13523	0.55458
2100.20666	0.55407
2098.27810	0.55358
2096.34953	0.55313
2094.42097	0.55272
2092.49241	0.55210
2090.56384	0.55150
2088.63528	0.55117
2086.70671	0.55091
2084.77815	0.55044
2082.84958	0.54966
2080.92102	0.54864
2078.99245	0.54758
2077.06389	0.54673
2075.13533	0.54596
2073.20676	0.54480
2071.27820	0.54317
2069.34963	0.54149
2067.42107	0.54015
2065.49250	0.53923
2063.56394	0.53832
2061.63537	0.53706
2059.70681	0.53564
2057.77825	0.53447
2055.84968	0.53352
2053.92112	0.53258
2051.99255	0.53170
2050.06399	0.53101
2048.13542	0.53051
2046.20686	0.53001
2044.27830	0.52956
2042.34973	0.52939
2040.42117	0.52936
2038.49260	0.52920
2036.56404	0.52908
2034.63547	0.52908
2032.70691	0.52907
2030.77834	0.52893
2028.84978	0.52870
2026.92122	0.52854
2024.99265	0.52842
2023.06409	0.52798
2021.13552	0.52723
2019.20696	0.52673
2017.27839	0.52667
2015.34983	0.52631
2013.42126	0.52539
2011.49270	0.52430
2009.56414	0.52318
2007.63557	0.52207
2005.70701	0.52101
2003.77844	0.51987
2001.84988	0.51859
1999.92131	0.51717
1997.99275	0.51559
1996.06418	0.51387
1994.13562	0.51226
1992.20706	0.51107
1990.27849	0.50997
1988.34993	0.50866
1986.42136	0.50721
1984.49280	0.50557
1982.56423	0.50400
1980.63567	0.50275
1978.70710	0.50173
1976.77854	0.50070
1974.84998	0.49968
1972.92141	0.49897
1970.99285	0.49848
1969.06428	0.49804
1967.13572	0.49800
1965.20715	0.49800
1963.27859	0.49765
1961.35002	0.49735
1959.42146	0.49705
1957.49290	0.49661
1955.56433	0.49629
1953.63577	0.49578
1951.70720	0.49467
1949.77864	0.49333
1947.85007	0.49197
1945.92151	0.49040
1943.99294	0.48915
1942.06438	0.48870
1940.13582	0.48788
1938.20725	0.48621
1936.27869	0.48443
1934.35012	0.48294
1932.42156	0.48173
1930.49299	0.48066
1928.56443	0.47955
1926.63586	0.47812
1924.70730	0.47672
1922.77874	0.47593
1920.85017	0.47516
1918.92161	0.47450
1916.99304	0.47456
1915.06448	0.47419
1913.13591	0.47306
1911.20735	0.47211
1909.27878	0.47179
1907.35022	0.47161
1905.42166	0.47112
1903.49309	0.47068
1901.56453	0.47041
1899.63596	0.46998
1897.70740	0.46942
1895.77883	0.46923
1893.85027	0.46905
1891.92171	0.46841
1889.99314	0.46836
1888.06458	0.46876
1886.13601	0.46827
1884.20745	0.46725
1882.27888	0.46619
1880.35032	0.46500
1878.42175	0.46376
1876.49319	0.46249
1874.56463	0.46079
1872.63606	0.45829
1870.70750	0.45569
1868.77893	0.45475
1866.85037	0.45464
1864.92180	0.45315
1862.99324	0.45100
1861.06467	0.44900
1859.13611	0.44730
1857.20755	0.44593
1855.27898	0.44475
1853.35042	0.44351
1851.42185	0.44206
1849.49329	0.44057
1847.56472	0.43917
1845.63616	0.43869
1843.70759	0.43982
1841.77903	0.44017
1839.85047	0.43928
1837.92190	0.43893
1835.99334	0.43914
1834.06477	0.43837
1832.13621	0.43699
1830.20764	0.43716
1828.27908	0.43818
1826.35051	0.43802
1824.42195	0.43790
1822.49339	0.43771
1820.56482	0.43680
1818.63626	0.43592
1816.70769	0.43522
1814.77913	0.43419
1812.85056	0.43302
1810.92200	0.43249
1808.99343	0.43238
1807.06487	0.43181
1805.13631	0.43073
1803.20774	0.42953
1801.27918	0.42928
1799.35061	0.42989
1797.42205	0.42962
1795.49348	0.42825
1793.56492	0.42773
1791.63635	0.42982
1789.70779	0.43080
1787.77923	0.42956
1785.85066	0.42858
1783.92210	0.42844
1781.99353	0.42863
1780.06497	0.42935
1778.13640	0.42946
1776.20784	0.42789
1774.27927	0.42639
1772.35071	0.42823
1770.42215	0.43170
1768.49358	0.43339
1766.56502	0.43389
1764.63645	0.43361
1762.70789	0.43437
1760.77932	0.43691
1758.85076	0.43905
1756.92220	0.44182
1754.99363	0.44453
1753.06507	0.44620
1751.13650	0.45038
1749.20794	0.45858
1747.27937	0.46590
1745.35081	0.47086
1743.42224	0.47499
1741.49368	0.47928
1739.56512	0.48361
1737.63655	0.48528
1735.70799	0.48533
1733.77942	0.48969
1731.85086	0.49467
1729.92229	0.49693
1727.99373	0.49937
1726.06516	0.50194
1724.13660	0.50580
1722.20804	0.50984
1720.27947	0.51247
1718.35091	0.51838
1716.42234	0.53390
1714.49378	0.54723
1712.56521	0.55507
1710.63665	0.56264
1708.70808	0.57178
1706.77952	0.58745
1704.85096	0.61065
1702.92239	0.63176
1700.99383	0.66309
1699.06526	0.71738
1697.13670	0.77266
1695.20813	0.82948
1693.27957	0.87096
1691.35100	0.90338
1689.42244	0.94479
1687.49388	0.98518
1685.56531	1.02913
1683.63675	1.10594
1681.70818	1.16516
1679.77962	1.19947
1677.85105	1.23213
1675.92249	1.27322
1673.99392	1.32091
1672.06536	1.35967
1670.13680	1.40525
1668.20823	1.45844
1666.27967	1.48771
1664.35110	1.51018
1662.42254	1.54390
1660.49397	1.57553
1658.56541	1.59309
1656.63684	1.60074
1654.70828	1.60705
1652.77972	1.62199
1650.85115	1.63278
1648.92259	1.63796
1646.99402	1.64377
1645.06546	1.64371
1643.13689	1.63682
1641.20833	1.63155
1639.27976	1.62777
1637.35120	1.62438
1635.42264	1.62169
1633.49407	1.61633
1631.56551	1.60847
1629.63694	1.59849
1627.70838	1.58797
1625.77981	1.57299
1623.85125	1.54663
1621.92269	1.51341
1619.99412	1.48482
1618.06556	1.45012
1616.13699	1.39697
1614.20843	1.35084
1612.27986	1.31320
1610.35130	1.27390
1608.42273	1.23449
1606.49417	1.20087
1604.56561	1.17458
1602.63704	1.15324
1600.70848	1.13597
1598.77991	1.12218
1596.85135	1.11128
1594.92278	1.10377
1592.99422	1.09940
1591.06565	1.09712
1589.13709	1.09799
1587.20853	1.10343
1585.27996	1.11218
1583.35140	1.12319
1581.42283	1.13542
1579.49427	1.14725
1577.56570	1.16546
1575.63714	1.19828
1573.70857	1.22052
1571.78001	1.23238
1569.85145	1.25455
1567.92288	1.28270
1565.99432	1.30314
1564.06575	1.32156
1562.13719	1.33572
1560.20862	1.35395
1558.28006	1.40156
1556.35149	1.42590
1554.42293	1.43327
1552.49437	1.44049
1550.56580	1.44785
1548.63724	1.45269
1546.70867	1.45230
1544.78011	1.44751
1542.85154	1.43864
1540.92298	1.42753
1538.99441	1.42110
1537.06585	1.41674
1535.13729	1.40803
1533.20872	1.39414
1531.28016	1.37981
1529.35159	1.36681
1527.42303	1.35376
1525.49446	1.34247
1523.56590	1.33501
1521.63733	1.33185
1519.70877	1.33137
1517.78021	1.32459
1515.85164	1.30846
1513.92308	1.28704
1511.99451	1.26265
1510.06595	1.23684
1508.13738	1.19852
1506.20882	1.14039
1504.28025	1.10999
1502.35169	1.08935
1500.42313	1.06547
1498.49456	1.03657
1496.56600	1.00510
1494.63743	0.98054
1492.70887	0.96202
1490.78030	0.94177
1488.85174	0.91973
1486.92317	0.90405
1484.99461	0.89285
1483.06605	0.88424
1481.13748	0.87873
1479.20892	0.87677
1477.28035	0.87854
1475.35179	0.88558
1473.42322	0.90326
1471.49466	0.92593
1469.56610	0.93759
1467.63753	0.94374
1465.70897	0.95254
1463.78040	0.96339
1461.85184	0.96865
1459.92327	0.96997
1457.99471	0.97601
1456.06614	0.98835
1454.13758	0.99299
1452.20902	0.99320
1450.28045	0.99169
1448.35189	0.98924
1446.42332	0.98629
1444.49476	0.98242
1442.56619	0.97710
1440.63763	0.97004
1438.70906	0.96123
1436.78050	0.95002
1434.85194	0.93801
1432.92337	0.92729
1430.99481	0.91734
1429.06624	0.90883
1427.13768	0.90276
1425.20911	0.89937
1423.28055	0.89865
1421.35198	0.89951
1419.42342	0.90368
1417.49486	0.91059
1415.56629	0.91387
1413.63773	0.91452
1411.70916	0.91493
1409.78060	0.91577
1407.85203	0.91683
1405.92347	0.91919
1403.99490	0.92281
1402.06634	0.92470
1400.13778	0.92543
1398.20921	0.92675
1396.28065	0.92850
1394.35208	0.93085
1392.42352	0.93240
1390.49495	0.93307
1388.56639	0.93664
1386.63782	0.94608
1384.70926	0.95717
1382.78070	0.96643
1380.85213	0.97327
1378.92357	0.97593
1376.99500	0.97273
1375.06644	0.96285
1373.13787	0.94828
1371.20931	0.93258
1369.28074	0.91454
1367.35218	0.89440
1365.42362	0.87576
1363.49505	0.85909
1361.56649	0.84549
1359.63792	0.83640
1357.70936	0.83015
1355.78079	0.82569
1353.85223	0.82283
1351.92366	0.82108
1349.99510	0.81984
1348.06654	0.81896
1346.13797	0.81872
1344.20941	0.81896
1342.28084	0.81911
1340.35228	0.81985
1338.42371	0.82218
1336.49515	0.82559
1334.56659	0.82984
1332.63802	0.83527
1330.70946	0.84182
1328.78089	0.84821
1326.85233	0.85290
1324.92376	0.85572
1322.99520	0.85762
1321.06663	0.85956
1319.13807	0.86225
1317.20951	0.86516
1315.28094	0.86723
1313.35238	0.86884
1311.42381	0.87021
1309.49525	0.87083
1307.56668	0.87082
1305.63812	0.87043
1303.70955	0.86963
1301.78099	0.86850
1299.85243	0.86676
1297.92386	0.86407
1295.99530	0.86111
1294.06673	0.85885
1292.13817	0.85796
1290.20960	0.85879
1288.28104	0.86077
1286.35247	0.86274
1284.42391	0.86397
1282.49535	0.86457
1280.56678	0.86509
1278.63822	0.86618
1276.70965	0.86833
1274.78109	0.87149
1272.85252	0.87562
1270.92396	0.88111
1268.99539	0.88779
1267.06683	0.89448
1265.13827	0.90019
1263.20970	0.90443
1261.28114	0.90698
1259.35257	0.90853
1257.42401	0.91010
1255.49544	0.91198
1253.56688	0.91395
1251.63831	0.91606
1249.70975	0.91867
1247.78119	0.92141
1245.85262	0.92336
1243.92406	0.92431
1241.99549	0.92440
1240.06693	0.92338
1238.13836	0.92111
1236.20980	0.91762
1234.28123	0.91286
1232.35267	0.90682
1230.42411	0.89941
1228.49554	0.89081
1226.56698	0.88159
1224.63841	0.87183
1222.70985	0.86144
1220.78128	0.85117
1218.85272	0.84178
1216.92415	0.83349
1214.99559	0.82665
1213.06703	0.82214
1211.13846	0.82045
1209.20990	0.82045
1207.28133	0.82008
1205.35277	0.81763
1203.42420	0.81229
1201.49564	0.80461
1199.56708	0.79607
1197.63851	0.78762
1195.70995	0.77924
1193.78138	0.77152
1191.85282	0.76582
1189.92425	0.76203
1187.99569	0.75897
1186.06712	0.75657
1184.13856	0.75566
1182.21000	0.75663
1180.28143	0.75923
1178.35287	0.76323
1176.42430	0.76868
1174.49574	0.77506
1172.56717	0.78179
1170.63861	0.78943
1168.71004	0.79927
1166.78148	0.81219
1164.85292	0.82810
1162.92435	0.84544
1160.99579	0.86114
1159.06722	0.87119
1157.13866	0.87254
1155.21009	0.86538
1153.28153	0.85238
1151.35296	0.83601
1149.42440	0.81810
1147.49584	0.80076
1145.56727	0.78618
1143.63871	0.77586
1141.71014	0.77047
1139.78158	0.76945
1137.85301	0.77132
1135.92445	0.77524
1133.99588	0.78151
1132.06732	0.79102
1130.13876	0.80417
1128.21019	0.81958
1126.28163	0.83522
1124.35306	0.85031
1122.42450	0.86432
1120.49593	0.87666
1118.56737	0.88727
1116.63880	0.89530
1114.71024	0.89859
1112.78168	0.89643
1110.85311	0.89112
1108.92455	0.88568
1106.99598	0.88088
1105.06742	0.87594
1103.13885	0.87108
1101.21029	0.86778
1099.28172	0.86688
1097.35316	0.86836
1095.42460	0.87262
1093.49603	0.88062
1091.56747	0.89259
1089.63890	0.90741
1087.71034	0.92402
1085.78177	0.94276
1083.85321	0.96369
1081.92464	0.98427
1079.99608	1.00092
1078.06752	1.01170
1076.13895	1.01571
1074.21039	1.01207
1072.28182	1.00196
1070.35326	0.98836
1068.42469	0.97338
1066.49613	0.95825
1064.56756	0.94420
1062.63900	0.93150
1060.71044	0.91938
1058.78187	0.90717
1056.85331	0.89485
1054.92474	0.88338
1052.99618	0.87411
1051.06761	0.86702
1049.13905	0.86161
1047.21049	0.85903
1045.28192	0.86096
1043.35336	0.86727
1041.42479	0.87593
1039.49623	0.88455
1037.56766	0.89174
1035.63910	0.89686
1033.71053	0.89952
1031.78197	0.90002
1029.85341	0.89893
1027.92484	0.89579
1025.99628	0.89011
1024.06771	0.88235
1022.13915	0.87337
1020.21058	0.86425
1018.28202	0.85642
1016.35345	0.84935
1014.42489	0.84037
1012.49633	0.82750
1010.56776	0.81064
1008.63920	0.79122
1006.71063	0.77116
1004.78207	0.75203
1002.85350	0.73477
1000.92494	0.71957
998.99637	0.70667
997.06781	0.69660
995.13925	0.68884
993.21068	0.68198
991.28212	0.67520
989.35355	0.66848
987.42499	0.66239
985.49642	0.65818
983.56786	0.65617
981.63929	0.65541
979.71073	0.65535
977.78217	0.65589
975.85360	0.65641
973.92504	0.65551
971.99647	0.65178
970.06791	0.64534
968.13934	0.63747
966.21078	0.62904
964.28221	0.62117
962.35365	0.61590
960.42509	0.61510
958.49652	0.61859
956.56796	0.62300
954.63939	0.62405
952.71083	0.62023
950.78226	0.61290
948.85370	0.60451
946.92513	0.59750
944.99657	0.59312
943.06801	0.59133
941.13944	0.59179
939.21088	0.59392
937.28231	0.59690
935.35375	0.60025
933.42518	0.60375
931.49662	0.60704
929.56805	0.60979
927.63949	0.61164
925.71093	0.61243
923.78236	0.61225
921.85380	0.61078
919.92523	0.60765
917.99667	0.60316
916.06810	0.59794
914.13954	0.59279
912.21098	0.58860
910.28241	0.58581
908.35385	0.58461
906.42528	0.58535
904.49672	0.58801
902.56815	0.59195
900.63959	0.59653
898.71102	0.60135
896.78246	0.60602
894.85390	0.61027
892.92533	0.61421
890.99677	0.61788
889.06820	0.62109
887.13964	0.62412
885.21107	0.62704
883.28251	0.62910
881.35394	0.63014
879.42538	0.63046
877.49682	0.62980
875.56825	0.62762
873.63969	0.62373
871.71112	0.61863
869.78256	0.61316
867.85399	0.60798
865.92543	0.60361
863.99686	0.60062
862.06830	0.59960
860.13974	0.60065
858.21117	0.60362
856.28261	0.60864
854.35404	0.61557
852.42548	0.62347
850.49691	0.63138
848.56835	0.63906
846.63978	0.64661
844.71122	0.65393
842.78266	0.66066
840.85409	0.66601
838.92553	0.66975
836.99696	0.67259
835.06840	0.67456
833.13983	0.67516
831.21127	0.67445
829.28270	0.67290
827.35414	0.67100
825.42558	0.66859
823.49701	0.66508
821.56845	0.66118
819.63988	0.65832
817.71132	0.65706
815.78275	0.65719
813.85419	0.65845
811.92562	0.66076
809.99706	0.66389
808.06850	0.66766
806.13993	0.67236
804.21137	0.67811
802.28280	0.68457
800.35424	0.69102
798.42567	0.69655
796.49711	0.70050
794.56854	0.70237
792.63998	0.70227
790.71142	0.70096
788.78285	0.69881
786.85429	0.69577
784.92572	0.69193
782.99716	0.68792
781.06859	0.68445
779.14003	0.68200
777.21147	0.68101
775.28290	0.68149
773.35434	0.68324
771.42577	0.68644
769.49721	0.69100
767.56864	0.69640
765.64008	0.70239
763.71151	0.70914
761.78295	0.71676
759.85439	0.72490
757.92582	0.73299
755.99726	0.74105
754.06869	0.74914
752.14013	0.75590
750.21156	0.76036
748.28300	0.76317
746.35443	0.76451
744.42587	0.76384
742.49731	0.76103
740.56874	0.75634
738.64018	0.75053
736.71161	0.74472
734.78305	0.73957
732.85448	0.73595
730.92592	0.73495
728.99735	0.73589
727.06879	0.73750
725.14023	0.74054
723.21166	0.74651
721.28310	0.75534
719.35453	0.76480
717.42597	0.77271
715.49740	0.77977
713.56884	0.78733
711.64027	0.79511
709.71171	0.80255
707.78315	0.80973
705.85458	0.81617
703.92602	0.82038
701.99745	0.82131
700.06889	0.81972
698.14032	0.81673
696.21176	0.81276
694.28319	0.80866
692.35463	0.80536
690.42607	0.80203
688.49750	0.79740
686.56894	0.79225
684.64037	0.78812
682.71181	0.78531
680.78324	0.78376
678.85468	0.78298
676.92611	0.78226
674.99755	0.78234
673.06899	0.78355
671.14042	0.78494
669.21186	0.78764
667.28329	0.79203
665.35473	0.79394
663.42616	0.79466
661.49760	0.79507
659.56903	0.79492
657.64047	0.79514
655.71191	0.79531
653.78334	0.79411
651.85478	0.79296
649.92621	0.79342
647.99765	0.79467
646.06908	0.79642
644.14052	0.79907
642.21195	0.80271
640.28339	0.80718
638.35483	0.81151
636.42626	0.81565
634.49770	0.81951
632.56913	0.82186
630.64057	0.82372
628.71200	0.82594
626.78344	0.82729
624.85488	0.82793
622.92631	0.82875
620.99775	0.82875
619.06918	0.82762
617.14062	0.82685
615.21205	0.82599
613.28349	0.82298
611.35492	0.81757
609.42636	0.81145
607.49780	0.80701
605.56923	0.80557
603.64067	0.80613
601.71210	0.80703
599.78354	0.80814
