3997.91406	1.25742
3995.98550	1.25660
3994.05693	1.25687
3992.12837	1.25606
3990.19980	1.25640
3988.27124	1.25729
3986.34268	1.25578
3984.41411	1.25560
3982.48555	1.25661
3980.55698	1.25335
3978.62842	1.24870
3976.69985	1.24683
3974.77129	1.24722
3972.84272	1.24955
3970.91416	1.25172
3968.98560	1.25248
3967.05703	1.25285
3965.12847	1.25205
3963.19990	1.24979
3961.27134	1.24674
3959.34277	1.24302
3957.41421	1.24138
3955.48564	1.24430
3953.55708	1.24813
3951.62852	1.24847
3949.69995	1.24556
3947.77139	1.24262
3945.84282	1.24204
3943.91426	1.24218
3941.98569	1.24162
3940.05713	1.24126
3938.12856	1.24141
3936.20000	1.24246
3934.27144	1.24320
3932.34287	1.24194
3930.41431	1.24112
3928.48574	1.24177
3926.55718	1.24040
3924.62861	1.23695
3922.70005	1.23671
3920.77148	1.23891
3918.84292	1.23850
3916.91436	1.23471
3914.98579	1.23082
3913.05723	1.22927
3911.12866	1.22959
3909.20010	1.23008
3907.27153	1.22941
3905.34297	1.22719
3903.41440	1.22615
3901.48584	1.22726
3899.55728	1.22569
3897.62871	1.22073
3895.70015	1.21625
3893.77158	1.21500
3891.84302	1.21812
3889.91445	1.22094
3887.98589	1.22019
3886.05733	1.21846
3884.12876	1.21607
3882.20020	1.21132
3880.27163	1.20899
3878.34307	1.21210
3876.41450	1.21484
3874.48594	1.21450
3872.55737	1.21100
3870.62881	1.20673
3868.70025	1.20735
3866.77168	1.20960
3864.84312	1.20757
3862.91455	1.20286
3860.98599	1.19980
3859.05742	1.19799
3857.12886	1.19461
3855.20029	1.18838
3853.27173	1.19099
3851.34317	1.20117
3849.41460	1.20308
3847.48604	1.20097
3845.55747	1.19725
3843.62891	1.19088
3841.70034	1.18529
3839.77178	1.18530
3837.84321	1.18578
3835.91465	1.18411
3833.98609	1.18526
3832.05752	1.18788
3830.12896	1.18858
3828.20039	1.18881
3826.27183	1.19026
3824.34326	1.18911
3822.41470	1.18234
3820.48613	1.17576
3818.55757	1.17330
3816.62901	1.17204
3814.70044	1.17493
3812.77188	1.17834
3810.84331	1.17925
3808.91475	1.17921
3806.98618	1.17875
3805.05762	1.17390
3803.12905	1.16662
3801.20049	1.16939
3799.27193	1.17735
3797.34336	1.17822
3795.41480	1.17770
3793.48623	1.17890
3791.55767	1.17950
3789.62910	1.17769
3787.70054	1.17387
3785.77197	1.17208
3783.84341	1.17496
3781.91485	1.17940
3779.98628	1.18170
3778.05772	1.17927
3776.12915	1.17421
3774.20059	1.16960
3772.27202	1.16489
3770.34346	1.16083
3768.41489	1.16206
3766.48633	1.16711
3764.55777	1.16987
3762.62920	1.16745
3760.70064	1.16307
3758.77207	1.16237
3756.84351	1.16404
3754.91494	1.16254
3752.98638	1.15469
3751.05781	1.14315
3749.12925	1.14230
3747.20069	1.14777
3745.27212	1.15665
3743.34356	1.16537
3741.41499	1.16630
3739.48643	1.16482
3737.55786	1.16473
3735.62930	1.16290
3733.70074	1.16143
3731.77217	1.16289
3729.84361	1.16150
3727.91504	1.15760
3725.98648	1.15443
3724.05791	1.15315
3722.12935	1.15287
3720.20078	1.15418
3718.27222	1.15479
3716.34366	1.15204
3714.41509	1.14990
3712.48653	1.15390
3710.55796	1.15955
3708.62940	1.16003
3706.70083	1.16074
3704.77227	1.16208
3702.84370	1.16121
3700.91514	1.15896
3698.98658	1.15711
3697.05801	1.15543
3695.12945	1.15590
3693.20088	1.15809
3691.27232	1.15927
3689.34375	1.16249
3687.41519	1.16841
3685.48662	1.17078
3683.55806	1.17023
3681.62950	1.16942
3679.70093	1.17003
3677.77237	1.17231
3675.84380	1.17544
3673.91524	1.17827
3671.98667	1.18214
3670.05811	1.18897
3668.12954	1.19326
3666.20098	1.19251
3664.27242	1.19202
3662.34385	1.19542
3660.41529	1.20019
3658.48672	1.20467
3656.55816	1.21408
3654.62959	1.22499
3652.70103	1.23160
3650.77246	1.24073
3648.84390	1.25378
3646.91534	1.25556
3644.98677	1.25609
3643.05821	1.26269
3641.12964	1.27247
3639.20108	1.28064
3637.27251	1.28892
3635.34395	1.29975
3633.41538	1.30715
3631.48682	1.30343
3629.55826	1.29679
3627.62969	1.30760
3625.70113	1.32134
3623.77256	1.32891
3621.84400	1.33524
3619.91543	1.34313
3617.98687	1.34820
3616.05830	1.34934
3614.12974	1.35481
3612.20118	1.36355
3610.27261	1.36790
3608.34405	1.37550
3606.41548	1.38844
3604.48692	1.39496
3602.55835	1.39771
3600.62979	1.40598
3598.70123	1.41776
3596.77266	1.42562
3594.84410	1.43307
3592.91553	1.44298
3590.98697	1.44937
3589.05840	1.45481
3587.12984	1.46610
3585.20127	1.47434
3583.27271	1.47760
3581.34415	1.47988
3579.41558	1.47865
3577.48702	1.47860
3575.55845	1.48796
3573.62989	1.50087
3571.70132	1.50698
3569.77276	1.50910
3567.84419	1.52068
3565.91563	1.54118
3563.98707	1.55132
3562.05850	1.55562
3560.12994	1.56283
3558.20137	1.57180
3556.27281	1.57711
3554.34424	1.58027
3552.41568	1.58532
3550.48711	1.59008
3548.55855	1.59715
3546.62999	1.61115
3544.70142	1.62377
3542.77286	1.62924
3540.84429	1.63339
3538.91573	1.63648
3536.98716	1.63674
3535.05860	1.63941
3533.13003	1.64726
3531.20147	1.65369
3529.27291	1.65672
3527.34434	1.66284
3525.41578	1.67295
3523.48721	1.68303
3521.55865	1.69089
3519.63008	1.70175
3517.70152	1.71629
3515.77295	1.72045
3513.84439	1.71191
3511.91583	1.70390
3509.98726	1.70724
3508.05870	1.72695
3506.13013	1.75465
3504.20157	1.77751
3502.27300	1.78615
3500.34444	1.77910
3498.41587	1.77063
3496.48731	1.77548
3494.55875	1.78876
3492.63018	1.79586
3490.70162	1.79708
3488.77305	1.80364
3486.84449	1.81817
3484.91592	1.83147
3482.98736	1.83968
3481.05879	1.84033
3479.13023	1.83429
3477.20167	1.83181
3475.27310	1.83412
3473.34454	1.83877
3471.41597	1.84649
3469.48741	1.85116
3467.55884	1.85199
3465.63028	1.85810
3463.70171	1.86542
3461.77315	1.86546
3459.84459	1.86732
3457.91602	1.87706
3455.98746	1.88438
3454.05889	1.88411
3452.13033	1.88808
3450.20176	1.89632
3448.27320	1.88566
3446.34464	1.86248
3444.41607	1.86298
3442.48751	1.88598
3440.55894	1.90479
3438.63038	1.91324
3436.70181	1.91777
3434.77325	1.91612
3432.84468	1.90646
3430.91612	1.89193
3428.98756	1.88159
3427.05899	1.87758
3425.13043	1.87299
3423.20186	1.87251
3421.27330	1.88042
3419.34473	1.88715
3417.41617	1.89129
3415.48760	1.89713
3413.55904	1.90214
3411.63048	1.90586
3409.70191	1.90751
3407.77335	1.90398
3405.84478	1.89580
3403.91622	1.88772
3401.98765	1.88604
3400.05909	1.88749
3398.13052	1.88687
3396.20196	1.89035
3394.27340	1.90124
3392.34483	1.91393
3390.41627	1.91848
3388.48770	1.91121
3386.55914	1.90560
3384.63057	1.90802
3382.70201	1.90371
3380.77344	1.89176
3378.84488	1.88790
3376.91632	1.89240
3374.98775	1.89547
3373.05919	1.89569
3371.13062	1.89729
3369.20206	1.90325
3367.27349	1.91324
3365.34493	1.92368
3363.41636	1.93088
3361.48780	1.93592
3359.55924	1.93901
3357.63067	1.93564
3355.70211	1.93334
3353.77354	1.94146
3351.84498	1.94745
3349.91641	1.93999
3347.98785	1.92592
3346.05928	1.91395
3344.13072	1.91118
3342.20216	1.91946
3340.27359	1.92927
3338.34503	1.93177
3336.41646	1.93561
3334.48790	1.95224
3332.55933	1.97030
3330.63077	1.96960
3328.70220	1.95247
3326.77364	1.94324
3324.84508	1.95784
3322.91651	1.97845
3320.98795	1.97650
3319.05938	1.96331
3317.13082	1.96454
3315.20225	1.97474
3313.27369	1.97683
3311.34513	1.97051
3309.41656	1.96432
3307.48800	1.96161
3305.55943	1.96168
3303.63087	1.96771
3301.70230	1.98027
3299.77374	1.98760
3297.84517	1.98267
3295.91661	1.97928
3293.98805	1.98549
3292.05948	1.98644
3290.13092	1.97592
3288.20235	1.97044
3286.27379	1.97490
3284.34522	1.97502
3282.41666	1.96845
3280.48809	1.96773
3278.55953	1.97667
3276.63097	1.98656
3274.70240	1.98241
3272.77384	1.96057
3270.84527	1.93792
3268.91671	1.93290
3266.98814	1.94448
3265.05958	1.94807
3263.13101	1.93700
3261.20245	1.93497
3259.27389	1.94183
3257.34532	1.93755
3255.41676	1.92427
3253.48819	1.91401
3251.55963	1.91041
3249.63106	1.91025
3247.70250	1.90310
3245.77393	1.88644
3243.84537	1.87203
3241.91681	1.86345
3239.98824	1.85387
3238.05968	1.84293
3236.13111	1.83658
3234.20255	1.84034
3232.27398	1.85188
3230.34542	1.85538
3228.41685	1.83960
3226.48829	1.81857
3224.55973	1.81080
3222.63116	1.81595
3220.70260	1.82210
3218.77403	1.81850
3216.84547	1.80626
3214.91690	1.79703
3212.98834	1.79132
3211.05977	1.78311
3209.13121	1.77987
3207.20265	1.78379
3205.27408	1.78290
3203.34552	1.77508
3201.41695	1.76567
3199.48839	1.75608
3197.55982	1.74952
3195.63126	1.74715
3193.70269	1.74685
3191.77413	1.74858
3189.84557	1.74998
3187.91700	1.74582
3185.98844	1.73543
3184.05987	1.72493
3182.13131	1.71840
3180.20274	1.71321
3178.27418	1.70528
3176.34562	1.69706
3174.41705	1.69562
3172.48849	1.69709
3170.55992	1.69299
3168.63136	1.68649
3166.70279	1.68153
3164.77423	1.67788
3162.84566	1.67450
3160.91710	1.66748
3158.98854	1.65988
3157.05997	1.65957
3155.13141	1.66159
3153.20284	1.65608
3151.27428	1.64885
3149.34571	1.64789
3147.41715	1.64775
3145.48858	1.64357
3143.56002	1.63810
3141.63146	1.63365
3139.70289	1.63101
3137.77433	1.63050
3135.84576	1.63223
3133.91720	1.63390
3131.98863	1.62958
3130.06007	1.62298
3128.13150	1.62499
3126.20294	1.63165
3124.27438	1.63123
3122.34581	1.62680
3120.41725	1.62624
3118.48868	1.62796
3116.56012	1.62922
3114.63155	1.63013
3112.70299	1.63014
3110.77442	1.63121
3108.84586	1.63462
3106.91730	1.63587
3104.98873	1.63141
3103.06017	1.62459
3101.13160	1.62074
3099.20304	1.62059
3097.27447	1.62151
3095.34591	1.62236
3093.41734	1.62200
3091.48878	1.61828
3089.56022	1.61259
3087.63165	1.60839
3085.70309	1.60695
3083.77452	1.60776
3081.84596	1.60771
3079.91739	1.60430
3077.98883	1.59944
3076.06026	1.59514
3074.13170	1.59106
3072.20314	1.58756
3070.27457	1.58539
3068.34601	1.58232
3066.41744	1.57689
3064.48888	1.57038
3062.56031	1.56354
3060.63175	1.55834
3058.70318	1.55598
3056.77462	1.55466
3054.84606	1.55360
3052.91749	1.55348
3050.98893	1.55272
3049.06036	1.54916
3047.13180	1.54509
3045.20323	1.54291
3043.27467	1.54007
3041.34610	1.53355
3039.41754	1.52431
3037.48898	1.51727
3035.56041	1.51528
3033.63185	1.51441
3031.70328	1.51074
3029.77472	1.50673
3027.84615	1.50508
3025.91759	1.50423
3023.98903	1.50184
3022.06046	1.49856
3020.13190	1.49759
3018.20333	1.49861
3016.27477	1.49747
3014.34620	1.49367
3012.41764	1.48958
3010.48907	1.48631
3008.56051	1.48383
3006.63195	1.47952
3004.70338	1.47252
3002.77482	1.46800
3000.84625	1.46899
2998.91769	1.47163
2996.98912	1.47218
2995.06056	1.47190
2993.13199	1.47393
2991.20343	1.47937
2989.27487	1.48572
2987.34630	1.49024
2985.41774	1.49413
2983.48917	1.49889
2981.56061	1.50556
2979.63204	1.51431
2977.70348	1.52033
2975.77491	1.52318
2973.84635	1.52978
2971.91779	1.54183
2969.98922	1.55537
2968.06066	1.56659
2966.13209	1.57333
2964.20353	1.57742
2962.27496	1.58086
2960.34640	1.58123
2958.41783	1.57802
2956.48927	1.57391
2954.56071	1.56672
2952.63214	1.55505
2950.70358	1.54496
2948.77501	1.54101
2946.84645	1.54274
2944.91788	1.54840
2942.98932	1.55704
2941.06075	1.56854
2939.13219	1.57892
2937.20363	1.58589
2935.27506	1.59538
2933.34650	1.61012
2931.41793	1.62597
2929.48937	1.63801
2927.56080	1.64465
2925.63224	1.65205
2923.70367	1.66136
2921.77511	1.66489
2919.84655	1.66359
2917.91798	1.65815
2915.98942	1.63949
2914.06085	1.60981
2912.13229	1.58246
2910.20372	1.56205
2908.27516	1.54449
2906.34659	1.52847
2904.41803	1.51653
2902.48947	1.50821
2900.56090	1.50139
2898.63234	1.49570
2896.70377	1.49038
2894.77521	1.48517
2892.84664	1.48076
2890.91808	1.47635
2888.98952	1.47033
2887.06095	1.46416
2885.13239	1.46129
2883.20382	1.46059
2881.27526	1.45878
2879.34669	1.45621
2877.41813	1.45474
2875.48956	1.45452
2873.56100	1.45345
2871.63244	1.44985
2869.70387	1.44314
2867.77531	1.43368
2865.84674	1.42534
2863.91818	1.42209
2861.98961	1.42368
2860.06105	1.42850
2858.13248	1.43712
2856.20392	1.44902
2854.27536	1.46068
2852.34679	1.47138
2850.41823	1.47630
2848.48966	1.46208
2846.56110	1.42966
2844.63253	1.39690
2842.70397	1.37306
2840.77540	1.35584
2838.84684	1.34243
2836.91828	1.33154
2834.98971	1.32302
2833.06115	1.31646
2831.13258	1.31034
2829.20402	1.30513
2827.27545	1.30096
2825.34689	1.29605
2823.41832	1.29052
2821.48976	1.28561
2819.56120	1.28257
2817.63263	1.28092
2815.70407	1.27775
2813.77550	1.27270
2811.84694	1.26777
2809.91837	1.26316
2807.98981	1.25913
2806.06124	1.25704
2804.13268	1.25629
2802.20412	1.25463
2800.27555	1.25060
2798.34699	1.24488
2796.41842	1.23995
2794.48986	1.23691
2792.56129	1.23459
2790.63273	1.23188
2788.70416	1.22913
2786.77560	1.22704
2784.84704	1.22432
2782.91847	1.21989
2780.98991	1.21518
2779.06134	1.21217
2777.13278	1.21095
2775.20421	1.20924
2773.27565	1.20654
2771.34708	1.20512
2769.41852	1.20514
2767.48996	1.20494
2765.56139	1.20348
2763.63283	1.20000
2761.70426	1.19577
2759.77570	1.19324
2757.84713	1.19199
2755.91857	1.18980
2753.99001	1.18649
2752.06144	1.18294
2750.13288	1.17991
2748.20431	1.17830
2746.27575	1.17748
2744.34718	1.17598
2742.41862	1.17359
2740.49005	1.17044
2738.56149	1.16692
2736.63293	1.16393
2734.70436	1.16161
2732.77580	1.15909
2730.84723	1.15571
2728.91867	1.15234
2726.99010	1.15017
2725.06154	1.14830
2723.13297	1.14497
2721.20441	1.14128
2719.27585	1.13901
2717.34728	1.13713
2715.41872	1.13494
2713.49015	1.13314
2711.56159	1.13178
2709.63302	1.13060
2707.70446	1.12902
2705.77589	1.12643
2703.84733	1.12303
2701.91877	1.12008
2699.99020	1.11893
2698.06164	1.11933
2696.13307	1.11976
2694.20451	1.11881
2692.27594	1.11600
2690.34738	1.11221
2688.41881	1.10896
2686.49025	1.10703
2684.56169	1.10607
2682.63312	1.10509
2680.70456	1.10327
2678.77599	1.10086
2676.84743	1.09855
2674.91886	1.09658
2672.99030	1.09516
2671.06173	1.09440
2669.13317	1.09359
2667.20461	1.09207
2665.27604	1.09008
2663.34748	1.08799
2661.41891	1.08640
2659.49035	1.08541
2657.56178	1.08408
2655.63322	1.08205
2653.70465	1.07977
2651.77609	1.07803
2649.84753	1.07727
2647.91896	1.07648
2645.99040	1.07491
2644.06183	1.07299
2642.13327	1.07077
2640.20470	1.06821
2638.27614	1.06640
2636.34757	1.06558
2634.41901	1.06455
2632.49045	1.06288
2630.56188	1.06099
2628.63332	1.05882
2626.70475	1.05635
2624.77619	1.05412
2622.84762	1.05229
2620.91906	1.05019
2618.99049	1.04823
2617.06193	1.04731
2615.13337	1.04687
2613.20480	1.04605
2611.27624	1.04513
2609.34767	1.04426
2607.41911	1.04252
2605.49054	1.04001
2603.56198	1.03760
2601.63342	1.03546
2599.70485	1.03406
2597.77629	1.03322
2595.84772	1.03137
2593.91916	1.02827
2591.99059	1.02552
2590.06203	1.02406
2588.13346	1.02330
2586.20490	1.02263
2584.27634	1.02185
2582.34777	1.02055
2580.41921	1.01858
2578.49064	1.01641
2576.56208	1.01461
2574.63351	1.01293
2572.70495	1.01104
2570.77638	1.00970
2568.84782	1.00928
2566.91926	1.00867
2564.99069	1.00751
2563.06213	1.00618
2561.13356	1.00483
2559.20500	1.00376
2557.27643	1.00244
2555.34787	1.00034
2553.41930	0.99826
2551.49074	0.99675
2549.56218	0.99532
2547.63361	0.99369
2545.70505	0.99219
2543.77648	0.99054
2541.84792	0.98826
2539.91935	0.98637
2537.99079	0.98574
2536.06222	0.98523
2534.13366	0.98353
2532.20510	0.98126
2530.27653	0.97972
2528.34797	0.97864
2526.41940	0.97692
2524.49084	0.97476
2522.56227	0.97322
2520.63371	0.97254
2518.70514	0.97221
2516.77658	0.97144
2514.84802	0.97033
2512.91945	0.97007
2510.99089	0.97012
2509.06232	0.96880
2507.13376	0.96651
2505.20519	0.96431
2503.27663	0.96220
2501.34806	0.96030
2499.41950	0.95923
2497.49094	0.95869
2495.56237	0.95784
2493.63381	0.95635
2491.70524	0.95434
2489.77668	0.95220
2487.84811	0.95055
2485.91955	0.94944
2483.99098	0.94835
2482.06242	0.94724
2480.13386	0.94621
2478.20529	0.94539
2476.27673	0.94505
2474.34816	0.94458
2472.41960	0.94316
2470.49103	0.94106
2468.56247	0.93945
2466.63391	0.93908
2464.70534	0.93906
2462.77678	0.93783
2460.84821	0.93526
2458.91965	0.93248
2456.99108	0.93011
2455.06252	0.92817
2453.13395	0.92685
2451.20539	0.92596
2449.27683	0.92497
2447.34826	0.92363
2445.41970	0.92192
2443.49113	0.92025
2441.56257	0.91922
2439.63400	0.91875
2437.70544	0.91821
2435.77687	0.91700
2433.84831	0.91508
2431.91975	0.91343
2429.99118	0.91264
2428.06262	0.91195
2426.13405	0.91060
2424.20549	0.90896
2422.27692	0.90777
2420.34836	0.90686
2418.41979	0.90597
2416.49123	0.90519
2414.56267	0.90419
2412.63410	0.90280
2410.70554	0.90144
2408.77697	0.90028
2406.84841	0.89921
2404.91984	0.89808
2402.99128	0.89692
2401.06271	0.89569
2399.13415	0.89393
2397.20559	0.89183
2395.27702	0.89044
2393.34846	0.88971
2391.41989	0.88870
2389.49133	0.88709
2387.56276	0.88536
2385.63420	0.88388
2383.70563	0.88277
2381.77707	0.88207
2379.84851	0.88137
2377.91994	0.88052
2375.99138	0.87987
2374.06281	0.87844
2372.13425	0.87592
2370.20568	0.87304
2368.27712	0.86894
2366.34855	0.86771
2364.41999	0.87205
2362.49143	0.87177
2360.56286	0.86651
2358.63430	0.86679
2356.70573	0.87039
2354.77717	0.87180
2352.84860	0.87244
2350.92004	0.87235
2348.99147	0.86996
2347.06291	0.86614
2345.13435	0.86448
2343.20578	0.86691
2341.27722	0.86917
2339.34865	0.86754
2337.42009	0.86260
2335.49152	0.85994
2333.56296	0.86221
2331.63440	0.86557
2329.70583	0.86671
2327.77727	0.86627
2325.84870	0.86597
2323.92014	0.86570
2321.99157	0.86476
2320.06301	0.86360
2318.13444	0.86314
2316.20588	0.86336
2314.27732	0.86358
2312.34875	0.86357
2310.42019	0.86320
2308.49162	0.86209
2306.56306	0.86045
2304.63449	0.85900
2302.70593	0.85786
2300.77736	0.85639
2298.84880	0.85435
2296.92024	0.85204
2294.99167	0.84987
2293.06311	0.84815
2291.13454	0.84691
2289.20598	0.84567
2287.27741	0.84418
2285.34885	0.84256
2283.42028	0.84053
2281.49172	0.83834
2279.56316	0.83693
2277.63459	0.83624
2275.70603	0.83532
2273.77746	0.83382
2271.84890	0.83232
2269.92033	0.83134
2267.99177	0.83053
2266.06320	0.82961
2264.13464	0.82912
2262.20608	0.82918
2260.27751	0.82903
2258.34895	0.82839
2256.42038	0.82772
2254.49182	0.82721
2252.56325	0.82658
2250.63469	0.82598
2248.70612	0.82580
2246.77756	0.82585
2244.84900	0.82567
2242.92043	0.82514
2240.99187	0.82486
2239.06330	0.82523
2237.13474	0.82578
2235.20617	0.82624
2233.27761	0.82663
2231.34904	0.82697
2229.42048	0.82724
2227.49192	0.82742
2225.56335	0.82740
2223.63479	0.82716
2221.70622	0.82707
2219.77766	0.82729
2217.84909	0.82741
2215.92053	0.82727
2213.99196	0.82712
2212.06340	0.82713
2210.13484	0.82699
2208.20627	0.82649
2206.27771	0.82587
2204.34914	0.82513
2202.42058	0.82391
2200.49201	0.82238
2198.56345	0.82093
2196.63488	0.81952
2194.70632	0.81813
2192.77776	0.81672
2190.84919	0.81531
2188.92063	0.81396
2186.99206	0.81257
2185.06350	0.81130
2183.13493	0.81037
2181.20637	0.80963
2179.27781	0.80869
2177.34924	0.80744
2175.42068	0.80621
2173.49211	0.80514
2171.56355	0.80433
2169.63498	0.80391
2167.70642	0.80357
2165.77785	0.80294
2163.84929	0.80226
2161.92073	0.80216
2159.99216	0.80253
2158.06360	0.80251
2156.13503	0.80207
2154.20647	0.80153
2152.27790	0.80101
2150.34934	0.80091
2148.42077	0.80123
2146.49221	0.80147
2144.56365	0.80149
2142.63508	0.80109
2140.70652	0.80025
2138.77795	0.79946
2136.84939	0.79869
2134.92082	0.79783
2132.99226	0.79736
2131.06369	0.79733
2129.13513	0.79693
2127.20657	0.79601
2125.27800	0.79514
2123.34944	0.79425
2121.42087	0.79332
2119.49231	0.79265
2117.56374	0.79216
2115.63518	0.79164
2113.70661	0.79095
2111.77805	0.79041
2109.84949	0.79008
2107.92092	0.78940
2105.99236	0.78832
2104.06379	0.78734
2102.13523	0.78648
2100.20666	0.78552
2098.27810	0.78453
2096.34953	0.78364
2094.42097	0.78269
2092.49241	0.78151
2090.56384	0.78026
2088.63528	0.77895
2086.70671	0.77767
2084.77815	0.77684
2082.84958	0.77622
2080.92102	0.77521
2078.99245	0.77408
2077.06389	0.77317
2075.13533	0.77234
2073.20676	0.77161
2071.27820	0.77094
2069.34963	0.77011
2067.42107	0.76938
2065.49250	0.76905
2063.56394	0.76878
2061.63537	0.76804
2059.70681	0.76688
2057.77825	0.76572
2055.84968	0.76478
2053.92112	0.76381
2051.99255	0.76258
2050.06399	0.76129
2048.13542	0.76013
2046.20686	0.75903
2044.27830	0.75783
2042.34973	0.75641
2040.42117	0.75465
2038.49260	0.75278
2036.56404	0.75103
2034.63547	0.74925
2032.70691	0.74738
2030.77834	0.74555
2028.84978	0.74381
2026.92122	0.74214
2024.99265	0.74054
2023.06409	0.73890
2021.13552	0.73731
2019.20696	0.73616
2017.27839	0.73549
2015.34983	0.73464
2013.42126	0.73333
2011.49270	0.73203
2009.56414	0.73092
2007.63557	0.73002
2005.70701	0.72926
2003.77844	0.72832
2001.84988	0.72708
1999.92131	0.72580
1997.99275	0.72458
1996.06418	0.72336
1994.13562	0.72232
1992.20706	0.72160
1990.27849	0.72082
1988.34993	0.71970
1986.42136	0.71851
1984.49280	0.71757
1982.56423	0.71707
1980.63567	0.71667
1978.70710	0.71596
1976.77854	0.71502
1974.84998	0.71403
1972.92141	0.71300
1970.99285	0.71191
1969.06428	0.71100
1967.13572	0.71051
1965.20715	0.71006
1963.27859	0.70934
1961.35002	0.70868
1959.42146	0.70807
1957.49290	0.70730
1955.56433	0.70680
1953.63577	0.70659
1951.70720	0.70600
1949.77864	0.70499
1947.85007	0.70376
1945.92151	0.70200
1943.99294	0.70016
1942.06438	0.69917
1940.13582	0.69836
1938.20725	0.69693
1936.27869	0.69495
1934.35012	0.69268
1932.42156	0.69057
1930.49299	0.68874
1928.56443	0.68690
1926.63586	0.68473
1924.70730	0.68251
1922.77874	0.68091
1920.85017	0.67967
1918.92161	0.67865
1916.99304	0.67797
1915.06448	0.67682
1913.13591	0.67545
1911.20735	0.67468
1909.27878	0.67441
1907.35022	0.67395
1905.42166	0.67325
1903.49309	0.67257
1901.56453	0.67167
1899.63596	0.67031
1897.70740	0.66885
1895.77883	0.66793
1893.85027	0.66734
1891.92171	0.66635
1889.99314	0.66523
1888.06458	0.66395
1886.13601	0.66228
1884.20745	0.66101
1882.27888	0.66032
1880.35032	0.65952
1878.42175	0.65852
1876.49319	0.65759
1874.56463	0.65651
1872.63606	0.65486
1870.70750	0.65339
1868.77893	0.65389
1866.85037	0.65522
1864.92180	0.65498
1862.99324	0.65407
1861.06467	0.65345
1859.13611	0.65320
1857.20755	0.65315
1855.27898	0.65314
1853.35042	0.65285
1851.42185	0.65192
1849.49329	0.65055
1847.56472	0.64908
1845.63616	0.64823
1843.70759	0.64849
1841.77903	0.64792
1839.85047	0.64608
1837.92190	0.64444
1835.99334	0.64327
1834.06477	0.64143
1832.13621	0.63898
1830.20764	0.63732
1828.27908	0.63656
1826.35051	0.63554
1824.42195	0.63462
1822.49339	0.63384
1820.56482	0.63291
1818.63626	0.63233
1816.70769	0.63209
1814.77913	0.63172
1812.85056	0.63140
1810.92200	0.63170
1808.99343	0.63231
1807.06487	0.63253
1805.13631	0.63239
1803.20774	0.63217
1801.27918	0.63239
1799.35061	0.63282
1797.42205	0.63281
1795.49348	0.63246
1793.56492	0.63272
1791.63635	0.63473
1789.70779	0.63601
1787.77923	0.63543
1785.85066	0.63460
1783.92210	0.63443
1781.99353	0.63488
1780.06497	0.63578
1778.13640	0.63628
1776.20784	0.63571
1774.27927	0.63520
1772.35071	0.63708
1770.42215	0.64031
1768.49358	0.64236
1766.56502	0.64350
1764.63645	0.64393
1762.70789	0.64543
1760.77932	0.64867
1758.85076	0.65145
1756.92220	0.65481
1754.99363	0.65852
1753.06507	0.66188
1751.13650	0.66820
1749.20794	0.67846
1747.27937	0.68785
1745.35081	0.69519
1743.42224	0.70159
1741.49368	0.70783
1739.56512	0.71406
1737.63655	0.71750
1735.70799	0.71927
1733.77942	0.72559
1731.85086	0.73239
1729.92229	0.73625
1727.99373	0.74045
1726.06516	0.74518
1724.13660	0.75154
1722.20804	0.75805
1720.27947	0.76328
1718.35091	0.77306
1716.42234	0.79348
1714.49378	0.81010
1712.56521	0.82088
1710.63665	0.83221
1708.70808	0.84595
1706.77952	0.86734
1704.85096	0.89725
1702.92239	0.92423
1700.99383	0.96273
1699.06526	1.02954
1697.13670	1.09721
1695.20813	1.16311
1693.27957	1.21027
1691.35100	1.24705
1689.42244	1.29278
1687.49388	1.33573
1685.56531	1.38000
1683.63675	1.45199
1681.70818	1.50265
1679.77962	1.52916
1677.85105	1.55331
1675.92249	1.58181
1673.99392	1.61341
1672.06536	1.63888
1670.13680	1.66792
1668.20823	1.70065
1666.27967	1.71605
1664.35110	1.72541
1662.42254	1.73937
1660.49397	1.75095
1658.56541	1.75665
1656.63684	1.75873
1654.70828	1.76361
1652.77972	1.77331
1650.85115	1.77015
1648.92259	1.76385
1646.99402	1.76270
1645.06546	1.76072
1643.13689	1.75085
1641.20833	1.74121
1639.27976	1.73733
1637.35120	1.74172
1635.42264	1.74354
1633.49407	1.73344
1631.56551	1.72536
1629.63694	1.71902
1627.70838	1.71117
1625.77981	1.69950
1623.85125	1.68414
1621.92269	1.66713
1619.99412	1.65023
1618.06556	1.62757
1616.13699	1.59445
1614.20843	1.56581
1612.27986	1.54099
1610.35130	1.51466
1608.42273	1.48916
1606.49417	1.46758
1604.56561	1.44959
1602.63704	1.43471
1600.70848	1.42386
1598.77991	1.41570
1596.85135	1.41018
1594.92278	1.40874
1592.99422	1.40937
1591.06565	1.41043
1589.13709	1.41452
1587.20853	1.42302
1585.27996	1.43346
1583.35140	1.44459
1581.42283	1.45603
1579.49427	1.46645
1577.56570	1.48136
1575.63714	1.50729
1573.70857	1.52346
1571.78001	1.53075
1569.85145	1.54602
1567.92288	1.56554
1565.99432	1.57859
1564.06575	1.58969
1562.13719	1.59761
1560.20862	1.60905
1558.28006	1.63854
1556.35149	1.64905
1554.42293	1.64990
1552.49437	1.65128
1550.56580	1.65347
1548.63724	1.65514
1546.70867	1.65323
1544.78011	1.64732
1542.85154	1.63756
1540.92298	1.62530
1538.99441	1.62214
1537.06585	1.62200
1535.13729	1.61595
1533.20872	1.60351
1531.28016	1.59199
1529.35159	1.58490
1527.42303	1.57926
1525.49446	1.57422
1523.56590	1.56986
1521.63733	1.56268
1519.70877	1.55444
1517.78021	1.54400
1515.85164	1.52795
1513.92308	1.51139
1511.99451	1.49569
1510.06595	1.47966
1508.13738	1.45543
1506.20882	1.41506
1504.28025	1.39031
1502.35169	1.37301
1500.42313	1.35439
1498.49456	1.33268
1496.56600	1.30867
1494.63743	1.28830
1492.70887	1.27090
1490.78030	1.25028
1488.85174	1.22867
1486.92317	1.21591
1484.99461	1.20764
1483.06605	1.20112
1481.13748	1.19721
1479.20892	1.19572
1477.28035	1.19720
1475.35179	1.20509
1473.42322	1.22482
1471.49466	1.24741
1469.56610	1.25724
1467.63753	1.26119
1465.70897	1.26687
1463.78040	1.27429
1461.85184	1.27779
1459.92327	1.27962
1457.99471	1.28866
1456.06614	1.30038
1454.13758	1.30020
1452.20902	1.29723
1450.28045	1.29399
1448.35189	1.28958
1446.42332	1.28409
1444.49476	1.27728
1442.56619	1.26883
1440.63763	1.26003
1438.70906	1.25065
1436.78050	1.23845
1434.85194	1.22603
1432.92337	1.21575
1430.99481	1.20587
1429.06624	1.19704
1427.13768	1.19091
1425.20911	1.18776
1423.28055	1.18742
1421.35198	1.18930
1419.42342	1.19537
1417.49486	1.20394
1415.56629	1.20810
1413.63773	1.20986
1411.70916	1.21165
1409.78060	1.21363
1407.85203	1.21593
1405.92347	1.22011
1403.99490	1.22583
1402.06634	1.22970
1400.13778	1.23146
1398.20921	1.23191
1396.28065	1.23191
1394.35208	1.23318
1392.42352	1.23461
1390.49495	1.23525
1388.56639	1.23796
1386.63782	1.24509
1384.70926	1.25290
1382.78070	1.25851
1380.85213	1.26153
1378.92357	1.26123
1376.99500	1.25688
1375.06644	1.24702
1373.13787	1.23254
1371.20931	1.21730
1369.28074	1.20035
1367.35218	1.18166
1365.42362	1.16470
1363.49505	1.14968
1361.56649	1.13749
1359.63792	1.12994
1357.70936	1.12529
1355.78079	1.12184
1353.85223	1.11931
1351.92366	1.11788
1349.99510	1.11716
1348.06654	1.11693
1346.13797	1.11725
1344.20941	1.11769
1342.28084	1.11809
1340.35228	1.11970
1338.42371	1.12313
1336.49515	1.12691
1334.56659	1.13142
1332.63802	1.13783
1330.70946	1.14522
1328.78089	1.15141
1326.85233	1.15587
1324.92376	1.15945
1322.99520	1.16239
1321.06663	1.16473
1319.13807	1.16729
1317.20951	1.17036
1315.28094	1.17295
1313.35238	1.17431
1311.42381	1.17415
1309.49525	1.17326
1307.56668	1.17263
1305.63812	1.17179
1303.70955	1.17025
1301.78099	1.16834
1299.85243	1.16564
1297.92386	1.16180
1295.99530	1.15821
1294.06673	1.15617
1292.13817	1.15537
1290.20960	1.15505
1288.28104	1.15487
1286.35247	1.15452
1284.42391	1.15327
1282.49535	1.15151
1280.56678	1.15092
1278.63822	1.15177
1276.70965	1.15354
1274.78109	1.15660
1272.85252	1.16110
1270.92396	1.16674
1268.99539	1.17359
1267.06683	1.18129
1265.13827	1.18866
1263.20970	1.19468
1261.28114	1.19929
1259.35257	1.20326
1257.42401	1.20754
1255.49544	1.21212
1253.56688	1.21618
1251.63831	1.21989
1249.70975	1.22399
1247.78119	1.22829
1245.85262	1.23150
1243.92406	1.23247
1241.99549	1.23206
1240.06693	1.23165
1238.13836	1.23051
1236.20980	1.22740
1234.28123	1.22226
1232.35267	1.21532
1230.42411	1.20742
1228.49554	1.19965
1226.56698	1.19113
1224.63841	1.18086
1222.70985	1.17007
1220.78128	1.15917
1218.85272	1.14779
1216.92415	1.13704
1214.99559	1.12822
1213.06703	1.12168
1211.13846	1.11742
1209.20990	1.11489
1207.28133	1.11220
1205.35277	1.10704
1203.42420	1.09872
1201.49564	1.08815
1199.56708	1.07660
1197.63851	1.06487
1195.70995	1.05337
1193.78138	1.04298
1191.85282	1.03460
1189.92425	1.02835
1187.99569	1.02413
1186.06712	1.02173
1184.13856	1.02049
1182.21000	1.02055
1180.28143	1.02260
1178.35287	1.02687
1176.42430	1.03320
1174.49574	1.04083
1172.56717	1.04883
1170.63861	1.05746
1168.71004	1.06848
1166.78148	1.08305
1164.85292	1.10042
1162.92435	1.11849
1160.99579	1.13352
1159.06722	1.14168
1157.13866	1.14195
1155.21009	1.13464
1153.28153	1.12051
1151.35296	1.10249
1149.42440	1.08419
1147.49584	1.06787
1145.56727	1.05450
1143.63871	1.04454
1141.71014	1.03829
1139.78158	1.03572
1137.85301	1.03696
1135.92445	1.04168
1133.99588	1.04898
1132.06732	1.05884
1130.13876	1.07140
1128.21019	1.08576
1126.28163	1.10006
1124.35306	1.11261
1122.42450	1.12310
1120.49593	1.13156
1118.56737	1.13768
1116.63880	1.14082
1114.71024	1.13935
1112.78168	1.13260
1110.85311	1.12268
1108.92455	1.11315
1106.99598	1.10552
1105.06742	1.09844
1103.13885	1.09151
1101.21029	1.08675
1099.28172	1.08568
1097.35316	1.08877
1095.42460	1.09631
1093.49603	1.10764
1091.56747	1.12212
1089.63890	1.13993
1087.71034	1.16042
1085.78177	1.18229
1083.85321	1.20443
1081.92464	1.22512
1079.99608	1.24189
1078.06752	1.25189
1076.13895	1.25342
1074.21039	1.24838
1072.28182	1.23887
1070.35326	1.22513
1068.42469	1.20963
1066.49613	1.19570
1064.56756	1.18382
1062.63900	1.17228
1060.71044	1.15942
1058.78187	1.14611
1056.85331	1.13420
1054.92474	1.12393
1052.99618	1.11501
1051.06761	1.10746
1049.13905	1.10185
1047.21049	1.09898
1045.28192	1.09973
1043.35336	1.10458
1041.42479	1.11183
1039.49623	1.11852
1037.56766	1.12346
1035.63910	1.12628
1033.71053	1.12652
1031.78197	1.12444
1029.85341	1.12013
1027.92484	1.11343
1025.99628	1.10438
1024.06771	1.09358
1022.13915	1.08339
1020.21058	1.07544
1018.28202	1.06811
1016.35345	1.05928
1014.42489	1.04855
1012.49633	1.03542
1010.56776	1.01894
1008.63920	0.99949
1006.71063	0.97900
1004.78207	0.95983
1002.85350	0.94372
1000.92494	0.93054
998.99637	0.91959
997.06781	0.91087
995.13925	0.90388
993.21068	0.89740
991.28212	0.89045
989.35355	0.88320
987.42499	0.87691
985.49642	0.87257
983.56786	0.87056
981.63929	0.87094
979.71073	0.87280
977.78217	0.87469
975.85360	0.87582
973.92504	0.87587
971.99647	0.87411
970.06791	0.86999
968.13934	0.86446
966.21078	0.85950
964.28221	0.85637
962.35365	0.85570
960.42509	0.85903
958.49652	0.86682
956.56796	0.87515
954.63939	0.87862
952.71083	0.87551
950.78226	0.86725
948.85370	0.85627
946.92513	0.84540
944.99657	0.83655
943.06801	0.83004
941.13944	0.82528
939.21088	0.82118
937.28231	0.81726
935.35375	0.81419
933.42518	0.81216
931.49662	0.81044
929.56805	0.80890
927.63949	0.80819
925.71093	0.80870
923.78236	0.80997
921.85380	0.81134
919.92523	0.81263
917.99667	0.81339
916.06810	0.81360
914.13954	0.81407
912.21098	0.81513
910.28241	0.81690
908.35385	0.81989
906.42528	0.82455
904.49672	0.83080
902.56815	0.83748
900.63959	0.84295
898.71102	0.84668
896.78246	0.84927
894.85390	0.85139
892.92533	0.85324
890.99677	0.85449
889.06820	0.85502
887.13964	0.85557
885.21107	0.85672
883.28251	0.85794
881.35394	0.85902
879.42538	0.86041
877.49682	0.86229
875.56825	0.86465
873.63969	0.86691
871.71112	0.86839
869.78256	0.86933
867.85399	0.87022
865.92543	0.87138
863.99686	0.87265
862.06830	0.87337
860.13974	0.87368
858.21117	0.87424
856.28261	0.87498
854.35404	0.87550
852.42548	0.87579
850.49691	0.87570
848.56835	0.87476
846.63978	0.87321
844.71122	0.87219
842.78266	0.87252
840.85409	0.87403
838.92553	0.87628
836.99696	0.87915
835.06840	0.88277
833.13983	0.88694
831.21127	0.89115
829.28270	0.89567
827.35414	0.90069
825.42558	0.90547
823.49701	0.90993
821.56845	0.91443
819.63988	0.91890
817.71132	0.92372
815.78275	0.92911
813.85419	0.93430
811.92562	0.93877
809.99706	0.94291
808.06850	0.94694
806.13993	0.95074
804.21137	0.95460
802.28280	0.95819
800.35424	0.96123
798.42567	0.96461
796.49711	0.96829
794.56854	0.97176
792.63998	0.97571
790.71142	0.98045
788.78285	0.98520
786.85429	0.98951
784.92572	0.99362
782.99716	0.99702
781.06859	0.99876
779.14003	0.99933
777.21147	0.99997
775.28290	1.00086
773.35434	1.00167
771.42577	1.00224
769.49721	1.00204
767.56864	1.00064
765.64008	0.99902
763.71151	0.99841
761.78295	0.99818
759.85439	0.99695
757.92582	0.99493
755.99726	0.99329
754.06869	0.99290
752.14013	0.99360
750.21156	0.99417
748.28300	0.99455
746.35443	0.99623
744.42587	0.99894
742.49731	1.00038
740.56874	1.00118
738.64018	1.00414
736.71161	1.00891
734.78305	1.01345
732.85448	1.01802
730.92592	1.02390
728.99735	1.03117
727.06879	1.03974
725.14023	1.04976
723.21166	1.06055
721.28310	1.07113
719.35453	1.07930
717.42597	1.08393
715.49740	1.08860
713.56884	1.09589
711.64027	1.10403
709.71171	1.11116
707.78315	1.11745
705.85458	1.12352
703.92602	1.12898
701.99745	1.13263
700.06889	1.13321
698.14032	1.13045
696.21176	1.12686
694.28319	1.12533
692.35463	1.12426
690.42607	1.12003
688.49750	1.11383
686.56894	1.10937
684.64037	1.10728
682.71181	1.10562
680.78324	1.10167
678.85468	1.09517
676.92611	1.08901
674.99755	1.08449
673.06899	1.08097
671.14042	1.07804
669.21186	1.07508
667.28329	1.06962
665.35473	1.06223
663.42616	1.05616
661.49760	1.05354
659.56903	1.05266
657.64047	1.04903
655.71191	1.04319
653.78334	1.03853
651.85478	1.03644
649.92621	1.03762
647.99765	1.04124
646.06908	1.04373
644.14052	1.04541
642.21195	1.05028
640.28339	1.05839
638.35483	1.06593
636.42626	1.07088
634.49770	1.07426
632.56913	1.07807
630.64057	1.08379
628.71200	1.09078
626.78344	1.09760
624.85488	1.10351
622.92631	1.10731
620.99775	1.10979
619.06918	1.11340
617.14062	1.11805
615.21205	1.12362
613.28349	1.12966
611.35492	1.13288
609.42636	1.13230
607.49780	1.13120
605.56923	1.13257
603.64067	1.13478
601.71210	1.13421
599.78354	1.13066
