3997.91406	1.27083
3995.98550	1.27383
3994.05693	1.27521
3992.12837	1.27423
3990.19980	1.27052
3988.27124	1.26705
3986.34268	1.26511
3984.41411	1.26159
3982.48555	1.25873
3980.55698	1.26033
3978.62842	1.26414
3976.69985	1.26527
3974.77129	1.26282
3972.84272	1.26021
3970.91416	1.25851
3968.98560	1.25669
3967.05703	1.25472
3965.12847	1.25482
3963.19990	1.25758
3961.27134	1.25687
3959.34277	1.25202
3957.41421	1.25009
3955.48564	1.25090
3953.55708	1.25094
3951.62852	1.25006
3949.69995	1.24730
3947.77139	1.24312
3945.84282	1.24116
3943.91426	1.24132
3941.98569	1.23935
3940.05713	1.23600
3938.12856	1.23531
3936.20000	1.23516
3934.27144	1.23461
3932.34287	1.23768
3930.41431	1.24239
3928.48574	1.24432
3926.55718	1.24510
3924.62861	1.24524
3922.70005	1.24226
3920.77148	1.23618
3918.84292	1.23023
3916.91436	1.22922
3914.98579	1.23250
3913.05723	1.23380
3911.12866	1.23176
3909.20010	1.22864
3907.27153	1.22486
3905.34297	1.22008
3903.41440	1.21541
3901.48584	1.21379
3899.55728	1.21667
3897.62871	1.22010
3895.70015	1.22106
3893.77158	1.22199
3891.84302	1.22534
3889.91445	1.22509
3887.98589	1.22036
3886.05733	1.21939
3884.12876	1.22210
3882.20020	1.22214
3880.27163	1.22271
3878.34307	1.22341
3876.41450	1.22221
3874.48594	1.21807
3872.55737	1.20842
3870.62881	1.20273
3868.70025	1.20739
3866.77168	1.21005
3864.84312	1.21169
3862.91455	1.21707
3860.98599	1.21783
3859.05742	1.21161
3857.12886	1.20222
3855.20029	1.19489
3853.27173	1.19804
3851.34317	1.20301
3849.41460	1.20296
3847.48604	1.20150
3845.55747	1.19819
3843.62891	1.19322
3841.70034	1.19099
3839.77178	1.19397
3837.84321	1.19927
3835.91465	1.20152
3833.98609	1.19863
3832.05752	1.19398
3830.12896	1.19279
3828.20039	1.19586
3826.27183	1.19875
3824.34326	1.19668
3822.41470	1.19229
3820.48613	1.19015
3818.55757	1.19029
3816.62901	1.19359
3814.70044	1.19483
3812.77188	1.19107
3810.84331	1.18655
3808.91475	1.18239
3806.98618	1.18065
3805.05762	1.18024
3803.12905	1.17826
3801.20049	1.17987
3799.27193	1.18414
3797.34336	1.18696
3795.41480	1.18634
3793.48623	1.18066
3791.55767	1.17590
3789.62910	1.17659
3787.70054	1.17953
3785.77197	1.18034
3783.84341	1.17802
3781.91485	1.17456
3779.98628	1.17234
3778.05772	1.17019
3776.12915	1.16851
3774.20059	1.16944
3772.27202	1.17029
3770.34346	1.16956
3768.41489	1.16943
3766.48633	1.16858
3764.55777	1.16750
3762.62920	1.16724
3760.70064	1.16652
3758.77207	1.16410
3756.84351	1.15998
3754.91494	1.15683
3752.98638	1.15848
3751.05781	1.16644
3749.12925	1.16745
3747.20069	1.16222
3745.27212	1.16307
3743.34356	1.16748
3741.41499	1.16495
3739.48643	1.15976
3737.55786	1.15796
3735.62930	1.16197
3733.70074	1.16746
3731.77217	1.16816
3729.84361	1.16271
3727.91504	1.15528
3725.98648	1.15207
3724.05791	1.15315
3722.12935	1.15388
3720.20078	1.15434
3718.27222	1.15391
3716.34366	1.15006
3714.41509	1.14382
3712.48653	1.14178
3710.55796	1.14942
3708.62940	1.15712
3706.70083	1.15936
3704.77227	1.15569
3702.84370	1.15040
3700.91514	1.15028
3698.98658	1.15227
3697.05801	1.15248
3695.12945	1.15085
3693.20088	1.14909
3691.27232	1.15261
3689.34375	1.16425
3687.41519	1.17010
3685.48662	1.16894
3683.55806	1.16810
3681.62950	1.16801
3679.70093	1.16641
3677.77237	1.16572
3675.84380	1.17594
3673.91524	1.18667
3671.98667	1.18743
3670.05811	1.19238
3668.12954	1.19909
3666.20098	1.20094
3664.27242	1.20495
3662.34385	1.21119
3660.41529	1.21389
3658.48672	1.21664
3656.55816	1.22795
3654.62959	1.23681
3652.70103	1.23398
3650.77246	1.22965
3648.84390	1.24290
3646.91534	1.26335
3644.98677	1.27179
3643.05821	1.27561
3641.12964	1.28164
3639.20108	1.28916
3637.27251	1.29539
3635.34395	1.30211
3633.41538	1.30909
3631.48682	1.31356
3629.55826	1.32697
3627.62969	1.35022
3625.70113	1.35728
3623.77256	1.35572
3621.84400	1.35584
3619.91543	1.36621
3617.98687	1.38529
3616.05830	1.39838
3614.12974	1.40805
3612.20118	1.41652
3610.27261	1.42004
3608.34405	1.42506
3606.41548	1.43476
3604.48692	1.44183
3602.55835	1.44879
3600.62979	1.46060
3598.70123	1.47227
3596.77266	1.47934
3594.84410	1.48334
3592.91553	1.48655
3590.98697	1.49288
3589.05840	1.50833
3587.12984	1.52950
3585.20127	1.53942
3583.27271	1.54353
3581.34415	1.55045
3579.41558	1.55774
3577.48702	1.56316
3575.55845	1.57085
3573.62989	1.57823
3571.70132	1.57959
3569.77276	1.58091
3567.84419	1.59257
3565.91563	1.61051
3563.98707	1.62372
3562.05850	1.63482
3560.12994	1.64288
3558.20137	1.64723
3556.27281	1.64848
3554.34424	1.65019
3552.41568	1.65998
3550.48711	1.67349
3548.55855	1.68421
3546.62999	1.69820
3544.70142	1.71609
3542.77286	1.72656
3540.84429	1.73074
3538.91573	1.74124
3536.98716	1.75655
3535.05860	1.76232
3533.13003	1.75979
3531.20147	1.75972
3529.27291	1.76271
3527.34434	1.76860
3525.41578	1.78338
3523.48721	1.79751
3521.55865	1.79910
3519.63008	1.80454
3517.70152	1.82501
3515.77295	1.84686
3513.84439	1.85785
3511.91583	1.86115
3509.98726	1.86437
3508.05870	1.86816
3506.13013	1.86721
3504.20157	1.86849
3502.27300	1.88580
3500.34444	1.91522
3498.41587	1.94337
3496.48731	1.96157
3494.55875	1.96778
3492.63018	1.96728
3490.70162	1.96926
3488.77305	1.98350
3486.84449	2.00180
3484.91592	2.00690
3482.98736	2.00583
3481.05879	2.00850
3479.13023	2.00720
3477.20167	1.99502
3475.27310	1.98293
3473.34454	1.98768
3471.41597	2.00225
3469.48741	2.00893
3467.55884	2.00308
3465.63028	1.99409
3463.70171	1.99200
3461.77315	1.99018
3459.84459	1.98841
3457.91602	1.99206
3455.98746	1.99085
3454.05889	1.98862
3452.13033	1.99938
3450.20176	2.01082
3448.27320	2.00401
3446.34464	1.98871
3444.41607	1.97868
3442.48751	1.97647
3440.55894	1.99016
3438.63038	2.01648
3436.70181	2.03407
3434.77325	2.03066
3432.84468	2.01636
3430.91612	2.01037
3428.98756	2.02430
3427.05899	2.04184
3425.13043	2.03712
3423.20186	2.01955
3421.27330	2.00742
3419.34473	2.00017
3417.41617	1.99553
3415.48760	1.99853
3413.55904	2.00851
3411.63048	2.01180
3409.70191	2.00639
3407.77335	2.00052
3405.84478	1.99489
3403.91622	1.99567
3401.98765	2.00489
3400.05909	2.01246
3398.13052	2.01545
3396.20196	2.01411
3394.27340	2.00588
3392.34483	1.99889
3390.41627	2.00046
3388.48770	2.00466
3386.55914	2.01125
3384.63057	2.02184
3382.70201	2.02883
3380.77344	2.03040
3378.84488	2.02314
3376.91632	2.00784
3374.98775	2.00246
3373.05919	2.01231
3371.13062	2.02614
3369.20206	2.03050
3367.27349	2.01929
3365.34493	2.00993
3363.41636	2.01777
3361.48780	2.03599
3359.55924	2.04592
3357.63067	2.03221
3355.70211	2.00670
3353.77354	1.99012
3351.84498	1.98829
3349.91641	1.99943
3347.98785	2.01076
3346.05928	2.00770
3344.13072	1.99853
3342.20216	1.99683
3340.27359	2.00109
3338.34503	2.00357
3336.41646	1.99942
3334.48790	1.99586
3332.55933	1.99770
3330.63077	1.99754
3328.70220	1.99719
3326.77364	1.99595
3324.84508	1.99334
3322.91651	2.00721
3320.98795	2.02793
3319.05938	2.02023
3317.13082	1.99694
3315.20225	1.98576
3313.27369	1.98151
3311.34513	1.97785
3309.41656	1.97560
3307.48800	1.97731
3305.55943	1.98407
3303.63087	1.98448
3301.70230	1.97484
3299.77374	1.96534
3297.84517	1.96442
3295.91661	1.97185
3293.98805	1.97232
3292.05948	1.95752
3290.13092	1.94222
3288.20235	1.93985
3286.27379	1.94658
3284.34522	1.94996
3282.41666	1.94253
3280.48809	1.93413
3278.55953	1.93549
3276.63097	1.93515
3274.70240	1.92823
3272.77384	1.92708
3270.84527	1.92737
3268.91671	1.92039
3266.98814	1.91674
3265.05958	1.92580
3263.13101	1.93392
3261.20245	1.92553
3259.27389	1.91276
3257.34532	1.91825
3255.41676	1.94024
3253.48819	1.95075
3251.55963	1.93471
3249.63106	1.90996
3247.70250	1.89843
3245.77393	1.90145
3243.84537	1.90531
3241.91681	1.90458
3239.98824	1.90393
3238.05968	1.90709
3236.13111	1.91180
3234.20255	1.90986
3232.27398	1.89855
3230.34542	1.88615
3228.41685	1.88071
3226.48829	1.88260
3224.55973	1.88818
3222.63116	1.89440
3220.70260	1.89578
3218.77403	1.88615
3216.84547	1.87578
3214.91690	1.87863
3212.98834	1.88237
3211.05977	1.87222
3209.13121	1.85939
3207.20265	1.85161
3205.27408	1.84625
3203.34552	1.84473
3201.41695	1.84679
3199.48839	1.85455
3197.55982	1.86658
3195.63126	1.86563
3193.70269	1.84919
3191.77413	1.83713
3189.84557	1.83525
3187.91700	1.83341
3185.98844	1.82863
3184.05987	1.82346
3182.13131	1.81928
3180.20274	1.81878
3178.27418	1.81886
3176.34562	1.81571
3174.41705	1.81217
3172.48849	1.80771
3170.55992	1.79998
3168.63136	1.79145
3166.70279	1.78324
3164.77423	1.77449
3162.84566	1.76979
3160.91710	1.77059
3158.98854	1.77017
3157.05997	1.76671
3155.13141	1.76163
3153.20284	1.75387
3151.27428	1.74449
3149.34571	1.73695
3147.41715	1.73324
3145.48858	1.73279
3143.56002	1.73475
3141.63146	1.73512
3139.70289	1.73137
3137.77433	1.72647
3135.84576	1.71924
3133.91720	1.71074
3131.98863	1.70899
3130.06007	1.71355
3128.13150	1.71626
3126.20294	1.71392
3124.27438	1.70832
3122.34581	1.70046
3120.41725	1.69397
3118.48868	1.69684
3116.56012	1.70836
3114.63155	1.71596
3112.70299	1.71205
3110.77442	1.70106
3108.84586	1.69151
3106.91730	1.68757
3104.98873	1.68803
3103.06017	1.69245
3101.13160	1.70043
3099.20304	1.70628
3097.27447	1.70307
3095.34591	1.69286
3093.41734	1.68312
3091.48878	1.67684
3089.56022	1.67642
3087.63165	1.68144
3085.70309	1.68106
3083.77452	1.66944
3081.84596	1.65808
3079.91739	1.65695
3077.98883	1.66150
3076.06026	1.66228
3074.13170	1.65765
3072.20314	1.65220
3070.27457	1.64547
3068.34601	1.63814
3066.41744	1.63585
3064.48888	1.63324
3062.56031	1.62356
3060.63175	1.61484
3058.70318	1.61251
3056.77462	1.61230
3054.84606	1.61108
3052.91749	1.60666
3050.98893	1.59795
3049.06036	1.58977
3047.13180	1.58517
3045.20323	1.58041
3043.27467	1.57372
3041.34610	1.56732
3039.41754	1.56206
3037.48898	1.55789
3035.56041	1.55457
3033.63185	1.55084
3031.70328	1.54624
3029.77472	1.54090
3027.84615	1.53619
3025.91759	1.53233
3023.98903	1.52587
3022.06046	1.51737
3020.13190	1.50988
3018.20333	1.50350
3016.27477	1.49849
3014.34620	1.49492
3012.41764	1.49427
3010.48907	1.49786
3008.56051	1.50029
3006.63195	1.49778
3004.70338	1.49523
3002.77482	1.49494
3000.84625	1.49236
2998.91769	1.48816
2996.98912	1.48832
2995.06056	1.49179
2993.13199	1.49319
2991.20343	1.49440
2989.27487	1.50086
2987.34630	1.51043
2985.41774	1.51647
2983.48917	1.51977
2981.56061	1.52548
2979.63204	1.53324
2977.70348	1.54102
2975.77491	1.54932
2973.84635	1.55812
2971.91779	1.56789
2969.98922	1.57840
2968.06066	1.58657
2966.13209	1.59189
2964.20353	1.59542
2962.27496	1.59679
2960.34640	1.59789
2958.41783	1.59822
2956.48927	1.59400
2954.56071	1.58660
2952.63214	1.57875
2950.70358	1.57078
2948.77501	1.56543
2946.84645	1.56599
2944.91788	1.57130
2942.98932	1.58036
2941.06075	1.59334
2939.13219	1.60507
2937.20363	1.61457
2935.27506	1.62781
2933.34650	1.64313
2931.41793	1.65587
2929.48937	1.66629
2927.56080	1.67704
2925.63224	1.69112
2923.70367	1.70333
2921.77511	1.70428
2919.84655	1.69732
2917.91798	1.68827
2915.98942	1.67210
2914.06085	1.64542
2912.13229	1.61143
2910.20372	1.57737
2908.27516	1.55195
2906.34659	1.53703
2904.41803	1.52751
2902.48947	1.51825
2900.56090	1.50985
2898.63234	1.50414
2896.70377	1.49803
2894.77521	1.49062
2892.84664	1.48440
2890.91808	1.47952
2888.98952	1.47481
2887.06095	1.47126
2885.13239	1.47138
2883.20382	1.47368
2881.27526	1.47425
2879.34669	1.47359
2877.41813	1.47370
2875.48956	1.47313
2873.56100	1.47023
2871.63244	1.46519
2869.70387	1.45805
2867.77531	1.45003
2865.84674	1.44344
2863.91818	1.43944
2861.98961	1.43876
2860.06105	1.44209
2858.13248	1.44919
2856.20392	1.45975
2854.27536	1.47302
2852.34679	1.48512
2850.41823	1.48822
2848.48966	1.47390
2846.56110	1.44286
2844.63253	1.40766
2842.70397	1.37875
2840.77540	1.35725
2838.84684	1.34114
2836.91828	1.32995
2834.98971	1.32396
2833.06115	1.32099
2831.13258	1.31717
2829.20402	1.31183
2827.27545	1.30632
2825.34689	1.30018
2823.41832	1.29346
2821.48976	1.28846
2819.56120	1.28629
2817.63263	1.28466
2815.70407	1.28034
2813.77550	1.27371
2811.84694	1.26850
2809.91837	1.26660
2807.98981	1.26530
2806.06124	1.26192
2804.13268	1.25773
2802.20412	1.25452
2800.27555	1.25133
2798.34699	1.24696
2796.41842	1.24234
2794.48986	1.23791
2792.56129	1.23382
2790.63273	1.23169
2788.70416	1.23178
2786.77560	1.23228
2784.84704	1.23115
2782.91847	1.22826
2780.98991	1.22548
2779.06134	1.22357
2777.13278	1.22236
2775.20421	1.22192
2773.27565	1.22205
2771.34708	1.22173
2769.41852	1.22042
2767.48996	1.21937
2765.56139	1.21864
2763.63283	1.21609
2761.70426	1.21166
2759.77570	1.20812
2757.84713	1.20640
2755.91857	1.20380
2753.99001	1.19954
2752.06144	1.19627
2750.13288	1.19463
2748.20431	1.19282
2746.27575	1.19000
2744.34718	1.18613
2742.41862	1.18198
2740.49005	1.17868
2738.56149	1.17603
2736.63293	1.17343
2734.70436	1.17132
2732.77580	1.16979
2730.84723	1.16807
2728.91867	1.16614
2726.99010	1.16461
2725.06154	1.16386
2723.13297	1.16306
2721.20441	1.16142
2719.27585	1.16052
2717.34728	1.16114
2715.41872	1.16118
2713.49015	1.15947
2711.56159	1.15669
2709.63302	1.15390
2707.70446	1.15178
2705.77589	1.15008
2703.84733	1.14807
2701.91877	1.14542
2699.99020	1.14229
2698.06164	1.13908
2696.13307	1.13642
2694.20451	1.13457
2692.27594	1.13328
2690.34738	1.13179
2688.41881	1.12912
2686.49025	1.12583
2684.56169	1.12381
2682.63312	1.12310
2680.70456	1.12155
2678.77599	1.11874
2676.84743	1.11699
2674.91886	1.11708
2672.99030	1.11739
2671.06173	1.11757
2669.13317	1.11837
2667.20461	1.11918
2665.27604	1.11895
2663.34748	1.11757
2661.41891	1.11576
2659.49035	1.11469
2657.56178	1.11457
2655.63322	1.11437
2653.70465	1.11321
2651.77609	1.11109
2649.84753	1.10886
2647.91896	1.10724
2645.99040	1.10574
2644.06183	1.10379
2642.13327	1.10181
2640.20470	1.09948
2638.27614	1.09653
2636.34757	1.09451
2634.41901	1.09374
2632.49045	1.09224
2630.56188	1.08971
2628.63332	1.08771
2626.70475	1.08663
2624.77619	1.08603
2622.84762	1.08616
2620.91906	1.08673
2618.99049	1.08645
2617.06193	1.08557
2615.13337	1.08563
2613.20480	1.08632
2611.27624	1.08632
2609.34767	1.08550
2607.41911	1.08412
2605.49054	1.08239
2603.56198	1.08059
2601.63342	1.07889
2599.70485	1.07740
2597.77629	1.07575
2595.84772	1.07419
2593.91916	1.07318
2591.99059	1.07162
2590.06203	1.06912
2588.13346	1.06669
2586.20490	1.06440
2584.27634	1.06174
2582.34777	1.05912
2580.41921	1.05692
2578.49064	1.05461
2576.56208	1.05180
2574.63351	1.04932
2572.70495	1.04807
2570.77638	1.04774
2568.84782	1.04707
2566.91926	1.04575
2564.99069	1.04458
2563.06213	1.04378
2561.13356	1.04291
2559.20500	1.04188
2557.27643	1.04083
2555.34787	1.03985
2553.41930	1.03890
2551.49074	1.03742
2549.56218	1.03543
2547.63361	1.03442
2545.70505	1.03458
2543.77648	1.03378
2541.84792	1.03173
2539.91935	1.03010
2537.99079	1.02880
2536.06222	1.02684
2534.13366	1.02463
2532.20510	1.02324
2530.27653	1.02248
2528.34797	1.02128
2526.41940	1.01958
2524.49084	1.01762
2522.56227	1.01571
2520.63371	1.01499
2518.70514	1.01521
2516.77658	1.01479
2514.84802	1.01372
2512.91945	1.01318
2510.99089	1.01342
2509.06232	1.01369
2507.13376	1.01314
2505.20519	1.01181
2503.27663	1.01077
2501.34806	1.01026
2499.41950	1.00953
2497.49094	1.00836
2495.56237	1.00709
2493.63381	1.00608
2491.70524	1.00548
2489.77668	1.00466
2487.84811	1.00298
2485.91955	1.00092
2483.99098	0.99897
2482.06242	0.99711
2480.13386	0.99521
2478.20529	0.99324
2476.27673	0.99133
2474.34816	0.98957
2472.41960	0.98843
2470.49103	0.98765
2468.56247	0.98616
2466.63391	0.98460
2464.70534	0.98386
2462.77678	0.98271
2460.84821	0.98054
2458.91965	0.97851
2456.99108	0.97678
2455.06252	0.97495
2453.13395	0.97348
2451.20539	0.97218
2449.27683	0.97033
2447.34826	0.96798
2445.41970	0.96591
2443.49113	0.96472
2441.56257	0.96409
2439.63400	0.96322
2437.70544	0.96159
2435.77687	0.95908
2433.84831	0.95633
2431.91975	0.95468
2429.99118	0.95490
2428.06262	0.95555
2426.13405	0.95487
2424.20549	0.95365
2422.27692	0.95317
2420.34836	0.95331
2418.41979	0.95332
2416.49123	0.95235
2414.56267	0.95065
2412.63410	0.94926
2410.70554	0.94849
2408.77697	0.94810
2406.84841	0.94769
2404.91984	0.94688
2402.99128	0.94570
2401.06271	0.94449
2399.13415	0.94316
2397.20559	0.94145
2395.27702	0.93977
2393.34846	0.93831
2391.41989	0.93680
2389.49133	0.93537
2387.56276	0.93437
2385.63420	0.93351
2383.70563	0.93247
2381.77707	0.93176
2379.84851	0.93148
2377.91994	0.93062
2375.99138	0.92915
2374.06281	0.92734
2372.13425	0.92393
2370.20568	0.91914
2368.27712	0.91602
2366.34855	0.91513
2364.41999	0.91403
2362.49143	0.91269
2360.56286	0.91246
2358.63430	0.91620
2356.70573	0.92372
2354.77717	0.92633
2352.84860	0.92193
2350.92004	0.91667
2348.99147	0.91365
2347.06291	0.91289
2345.13435	0.91341
2343.20578	0.91331
2341.27722	0.91258
2339.34865	0.91118
2337.42009	0.90921
2335.49152	0.90745
2333.56296	0.90535
2331.63440	0.90268
2329.70583	0.89924
2327.77727	0.89601
2325.84870	0.89470
2323.92014	0.89489
2321.99157	0.89584
2320.06301	0.89663
2318.13444	0.89632
2316.20588	0.89593
2314.27732	0.89703
2312.34875	0.89867
2310.42019	0.89823
2308.49162	0.89634
2306.56306	0.89524
2304.63449	0.89458
2302.70593	0.89341
2300.77736	0.89152
2298.84880	0.88953
2296.92024	0.88834
2294.99167	0.88753
2293.06311	0.88607
2291.13454	0.88407
2289.20598	0.88225
2287.27741	0.88091
2285.34885	0.87965
2283.42028	0.87796
2281.49172	0.87618
2279.56316	0.87506
2277.63459	0.87439
2275.70603	0.87341
2273.77746	0.87219
2271.84890	0.87163
2269.92033	0.87188
2267.99177	0.87197
2266.06320	0.87191
2264.13464	0.87224
2262.20608	0.87280
2260.27751	0.87335
2258.34895	0.87391
2256.42038	0.87436
2254.49182	0.87453
2252.56325	0.87442
2250.63469	0.87421
2248.70612	0.87406
2246.77756	0.87374
2244.84900	0.87277
2242.92043	0.87119
2240.99187	0.86936
2239.06330	0.86727
2237.13474	0.86499
2235.20617	0.86283
2233.27761	0.86069
2231.34904	0.85830
2229.42048	0.85581
2227.49192	0.85308
2225.56335	0.85030
2223.63479	0.84835
2221.70622	0.84701
2219.77766	0.84559
2217.84909	0.84422
2215.92053	0.84324
2213.99196	0.84273
2212.06340	0.84247
2210.13484	0.84221
2208.20627	0.84206
2206.27771	0.84206
2204.34914	0.84223
2202.42058	0.84252
2200.49201	0.84252
2198.56345	0.84218
2196.63488	0.84186
2194.70632	0.84144
2192.77776	0.84048
2190.84919	0.83916
2188.92063	0.83805
2186.99206	0.83715
2185.06350	0.83614
2183.13493	0.83454
2181.20637	0.83218
2179.27781	0.82981
2177.34924	0.82816
2175.42068	0.82706
2173.49211	0.82585
2171.56355	0.82476
2169.63498	0.82449
2167.70642	0.82495
2165.77785	0.82561
2163.84929	0.82603
2161.92073	0.82598
2159.99216	0.82566
2158.06360	0.82565
2156.13503	0.82617
2154.20647	0.82680
2152.27790	0.82735
2150.34934	0.82799
2148.42077	0.82876
2146.49221	0.82955
2144.56365	0.83012
2142.63508	0.83023
2140.70652	0.82984
2138.77795	0.82930
2136.84939	0.82874
2134.92082	0.82784
2132.99226	0.82672
2131.06369	0.82563
2129.13513	0.82418
2127.20657	0.82210
2125.27800	0.81994
2123.34944	0.81808
2121.42087	0.81614
2119.49231	0.81377
2117.56374	0.81133
2115.63518	0.80949
2113.70661	0.80824
2111.77805	0.80699
2109.84949	0.80540
2107.92092	0.80374
2105.99236	0.80237
2104.06379	0.80127
2102.13523	0.80045
2100.20666	0.79989
2098.27810	0.79934
2096.34953	0.79869
2094.42097	0.79809
2092.49241	0.79764
2090.56384	0.79743
2088.63528	0.79718
2086.70671	0.79666
2084.77815	0.79605
2082.84958	0.79527
2080.92102	0.79418
2078.99245	0.79324
2077.06389	0.79252
2075.13533	0.79162
2073.20676	0.79074
2071.27820	0.79025
2069.34963	0.78972
2067.42107	0.78862
2065.49250	0.78727
2063.56394	0.78601
2061.63537	0.78490
2059.70681	0.78427
2057.77825	0.78393
2055.84968	0.78349
2053.92112	0.78302
2051.99255	0.78252
2050.06399	0.78214
2048.13542	0.78235
2046.20686	0.78314
2044.27830	0.78390
2042.34973	0.78427
2040.42117	0.78447
2038.49260	0.78485
2036.56404	0.78527
2034.63547	0.78514
2032.70691	0.78447
2030.77834	0.78361
2028.84978	0.78256
2026.92122	0.78122
2024.99265	0.77966
2023.06409	0.77786
2021.13552	0.77574
2019.20696	0.77347
2017.27839	0.77122
2015.34983	0.76885
2013.42126	0.76619
2011.49270	0.76358
2009.56414	0.76125
2007.63557	0.75893
2005.70701	0.75645
2003.77844	0.75421
2001.84988	0.75248
1999.92131	0.75114
1997.99275	0.74997
1996.06418	0.74877
1994.13562	0.74782
1992.20706	0.74755
1990.27849	0.74734
1988.34993	0.74659
1986.42136	0.74553
1984.49280	0.74450
1982.56423	0.74372
1980.63567	0.74313
1978.70710	0.74251
1976.77854	0.74165
1974.84998	0.74041
1972.92141	0.73896
1970.99285	0.73743
1969.06428	0.73600
1967.13572	0.73491
1965.20715	0.73376
1963.27859	0.73254
1961.35002	0.73171
1959.42146	0.73107
1957.49290	0.73055
1955.56433	0.73057
1953.63577	0.73079
1951.70720	0.73084
1949.77864	0.73103
1947.85007	0.73121
1945.92151	0.73096
1943.99294	0.73124
1942.06438	0.73278
1940.13582	0.73399
1938.20725	0.73430
1936.27869	0.73457
1934.35012	0.73500
1932.42156	0.73534
1930.49299	0.73569
1928.56443	0.73596
1926.63586	0.73562
1924.70730	0.73486
1922.77874	0.73418
1920.85017	0.73310
1918.92161	0.73184
1916.99304	0.73081
1915.06448	0.72897
1913.13591	0.72618
1911.20735	0.72355
1909.27878	0.72161
1907.35022	0.71964
1905.42166	0.71719
1903.49309	0.71481
1901.56453	0.71268
1899.63596	0.71050
1897.70740	0.70859
1895.77883	0.70746
1893.85027	0.70639
1891.92171	0.70468
1889.99314	0.70319
1888.06458	0.70212
1886.13601	0.70072
1884.20745	0.69925
1882.27888	0.69801
1880.35032	0.69673
1878.42175	0.69532
1876.49319	0.69398
1874.56463	0.69252
1872.63606	0.69048
1870.70750	0.68822
1868.77893	0.68710
1866.85037	0.68682
1864.92180	0.68577
1862.99324	0.68445
1861.06467	0.68340
1859.13611	0.68229
1857.20755	0.68111
1855.27898	0.68038
1853.35042	0.67993
1851.42185	0.67918
1849.49329	0.67837
1847.56472	0.67797
1845.63616	0.67870
1843.70759	0.68096
1841.77903	0.68221
1839.85047	0.68224
1837.92190	0.68301
1835.99334	0.68451
1834.06477	0.68501
1832.13621	0.68470
1830.20764	0.68585
1828.27908	0.68776
1826.35051	0.68843
1824.42195	0.68894
1822.49339	0.68886
1820.56482	0.68774
1818.63626	0.68653
1816.70769	0.68527
1814.77913	0.68349
1812.85056	0.68146
1810.92200	0.67986
1808.99343	0.67867
1807.06487	0.67720
1805.13631	0.67531
1803.20774	0.67336
1801.27918	0.67231
1799.35061	0.67211
1797.42205	0.67141
1795.49348	0.67008
1793.56492	0.66982
1791.63635	0.67190
1789.70779	0.67267
1787.77923	0.67157
1785.85066	0.67089
1783.92210	0.67088
1781.99353	0.67111
1780.06497	0.67194
1778.13640	0.67237
1776.20784	0.67140
1774.27927	0.67048
1772.35071	0.67238
1770.42215	0.67561
1768.49358	0.67715
1766.56502	0.67760
1764.63645	0.67764
1762.70789	0.67954
1760.77932	0.68406
1758.85076	0.68856
1756.92220	0.69439
1754.99363	0.70068
1753.06507	0.70628
1751.13650	0.71593
1749.20794	0.73153
1747.27937	0.74582
1745.35081	0.75688
1743.42224	0.76709
1741.49368	0.77736
1739.56512	0.78707
1737.63655	0.79257
1735.70799	0.79557
1733.77942	0.80289
1731.85086	0.80964
1729.92229	0.81300
1727.99373	0.81675
1726.06516	0.82103
1724.13660	0.82682
1722.20804	0.83264
1720.27947	0.83690
1718.35091	0.84482
1716.42234	0.86328
1714.49378	0.88004
1712.56521	0.89144
1710.63665	0.90289
1708.70808	0.91632
1706.77952	0.93701
1704.85096	0.96648
1702.92239	0.99418
1700.99383	1.03496
1699.06526	1.10556
1697.13670	1.17826
1695.20813	1.25237
1693.27957	1.30666
1691.35100	1.34952
1689.42244	1.40347
1687.49388	1.45318
1685.56531	1.50111
1683.63675	1.58260
1681.70818	1.64543
1679.77962	1.67857
1677.85105	1.71007
1675.92249	1.75025
1673.99392	1.79049
1672.06536	1.81825
1670.13680	1.85300
1668.20823	1.89495
1666.27967	1.91201
1664.35110	1.91832
1662.42254	1.93406
1660.49397	1.95531
1658.56541	1.96743
1656.63684	1.96726
1654.70828	1.96008
1652.77972	1.95027
1650.85115	1.94684
1648.92259	1.94584
1646.99402	1.94452
1645.06546	1.94463
1643.13689	1.94117
1641.20833	1.93311
1639.27976	1.92255
1637.35120	1.91472
1635.42264	1.90401
1633.49407	1.89199
1631.56551	1.88572
1629.63694	1.87614
1627.70838	1.86015
1625.77981	1.84344
1623.85125	1.82729
1621.92269	1.80935
1619.99412	1.79086
1618.06556	1.76615
1616.13699	1.73138
1614.20843	1.70313
1612.27986	1.67943
1610.35130	1.65529
1608.42273	1.63174
1606.49417	1.60968
1604.56561	1.59049
1602.63704	1.57438
1600.70848	1.56167
1598.77991	1.55283
1596.85135	1.54674
1594.92278	1.54114
1592.99422	1.53726
1591.06565	1.53678
1589.13709	1.53846
1587.20853	1.54257
1585.27996	1.55053
1583.35140	1.56355
1581.42283	1.57823
1579.49427	1.58962
1577.56570	1.60495
1575.63714	1.63311
1573.70857	1.65116
1571.78001	1.65918
1569.85145	1.67441
1567.92288	1.69528
1565.99432	1.71243
1564.06575	1.72903
1562.13719	1.74258
1560.20862	1.75735
1558.28006	1.78284
1556.35149	1.79450
1554.42293	1.80081
1552.49437	1.80378
1550.56580	1.80210
1548.63724	1.80081
1546.70867	1.80155
1544.78011	1.80091
1542.85154	1.79701
1540.92298	1.78097
1538.99441	1.75394
1537.06585	1.74201
1535.13729	1.73677
1533.20872	1.73428
1531.28016	1.72945
1529.35159	1.71945
1527.42303	1.70676
1525.49446	1.69722
1523.56590	1.69437
1521.63733	1.69569
1519.70877	1.69592
1517.78021	1.68779
1515.85164	1.67338
1513.92308	1.65963
1511.99451	1.64535
1510.06595	1.62750
1508.13738	1.59640
1506.20882	1.55313
1504.28025	1.53220
1502.35169	1.51586
1500.42313	1.49554
1498.49456	1.47063
1496.56600	1.44150
1494.63743	1.41650
1492.70887	1.39805
1490.78030	1.37912
1488.85174	1.35592
1486.92317	1.33686
1484.99461	1.32345
1483.06605	1.31321
1481.13748	1.30642
1479.20892	1.30347
1477.28035	1.30412
1475.35179	1.30969
1473.42322	1.32491
1471.49466	1.34544
1469.56610	1.35649
1467.63753	1.36219
1465.70897	1.37069
1463.78040	1.38078
1461.85184	1.38377
1459.92327	1.38280
1457.99471	1.38889
1456.06614	1.40262
1454.13758	1.40532
1452.20902	1.40195
1450.28045	1.39708
1448.35189	1.39222
1446.42332	1.38640
1444.49476	1.37875
1442.56619	1.37032
1440.63763	1.36211
1438.70906	1.35358
1436.78050	1.34247
1434.85194	1.32937
1432.92337	1.31696
1430.99481	1.30508
1429.06624	1.29511
1427.13768	1.28901
1425.20911	1.28665
1423.28055	1.28722
1421.35198	1.28943
1419.42342	1.29506
1417.49486	1.30332
1415.56629	1.30834
1413.63773	1.31119
1411.70916	1.31329
1409.78060	1.31573
1407.85203	1.31977
1405.92347	1.32615
1403.99490	1.33254
1402.06634	1.33516
1400.13778	1.33686
1398.20921	1.34208
1396.28065	1.35006
1394.35208	1.35759
1392.42352	1.36234
1390.49495	1.36549
1388.56639	1.37183
1386.63782	1.38458
1384.70926	1.39816
1382.78070	1.40850
1380.85213	1.41519
1378.92357	1.41636
1376.99500	1.41053
1375.06644	1.39690
1373.13787	1.37843
1371.20931	1.36019
1369.28074	1.33984
1367.35218	1.31709
1365.42362	1.29603
1363.49505	1.27563
1361.56649	1.25686
1359.63792	1.24363
1357.70936	1.23366
1355.78079	1.22474
1353.85223	1.21767
1351.92366	1.21312
1349.99510	1.21003
1348.06654	1.20734
1346.13797	1.20528
1344.20941	1.20426
1342.28084	1.20355
1340.35228	1.20360
1338.42371	1.20605
1336.49515	1.21033
1334.56659	1.21604
1332.63802	1.22415
1330.70946	1.23424
1328.78089	1.24352
1326.85233	1.24926
1324.92376	1.25203
1322.99520	1.25445
1321.06663	1.25751
1319.13807	1.26082
1317.20951	1.26411
1315.28094	1.26697
1313.35238	1.26929
1311.42381	1.27094
1309.49525	1.27119
1307.56668	1.27027
1305.63812	1.26937
1303.70955	1.26909
1301.78099	1.26881
1299.85243	1.26812
1297.92386	1.26740
1295.99530	1.26754
1294.06673	1.26897
1292.13817	1.27108
1290.20960	1.27407
1288.28104	1.27896
1286.35247	1.28493
1284.42391	1.29033
1282.49535	1.29530
1280.56678	1.30011
1278.63822	1.30431
1276.70965	1.30809
1274.78109	1.31218
1272.85252	1.31741
1270.92396	1.32411
1268.99539	1.33133
1267.06683	1.33763
1265.13827	1.34237
1263.20970	1.34497
1261.28114	1.34468
1259.35257	1.34254
1257.42401	1.34032
1255.49544	1.33768
1253.56688	1.33410
1251.63831	1.33065
1249.70975	1.32830
1247.78119	1.32684
1245.85262	1.32573
1243.92406	1.32386
1241.99549	1.31959
1240.06693	1.31343
1238.13836	1.30755
1236.20980	1.30153
1234.28123	1.29411
1232.35267	1.28596
1230.42411	1.27752
1228.49554	1.26861
1226.56698	1.25912
1224.63841	1.24912
1222.70985	1.23913
1220.78128	1.22977
1218.85272	1.22158
1216.92415	1.21469
1214.99559	1.20913
1213.06703	1.20577
1211.13846	1.20529
1209.20990	1.20610
1207.28133	1.20560
1205.35277	1.20288
1203.42420	1.19694
1201.49564	1.18742
1199.56708	1.17659
1197.63851	1.16602
1195.70995	1.15564
1193.78138	1.14613
1191.85282	1.13846
1189.92425	1.13284
1187.99569	1.12922
1186.06712	1.12716
1184.13856	1.12616
1182.21000	1.12688
1180.28143	1.13040
1178.35287	1.13686
1176.42430	1.14482
1174.49574	1.15300
1172.56717	1.16233
1170.63861	1.17354
1168.71004	1.18653
1166.78148	1.20213
1164.85292	1.22032
1162.92435	1.23911
1160.99579	1.25463
1159.06722	1.26181
1157.13866	1.25832
1155.21009	1.24601
1153.28153	1.22764
1151.35296	1.20523
1149.42440	1.18082
1147.49584	1.15702
1145.56727	1.13625
1143.63871	1.11990
1141.71014	1.10826
1139.78158	1.10141
1137.85301	1.09905
1135.92445	1.10062
1133.99588	1.10649
1132.06732	1.11679
1130.13876	1.13028
1128.21019	1.14623
1126.28163	1.16381
1124.35306	1.18090
1122.42450	1.19660
1120.49593	1.21072
1118.56737	1.22176
1116.63880	1.22879
1114.71024	1.23095
1112.78168	1.22748
1110.85311	1.22078
1108.92455	1.21463
1106.99598	1.21063
1105.06742	1.20816
1103.13885	1.20581
1101.21029	1.20316
1099.28172	1.20196
1097.35316	1.20482
1095.42460	1.21213
1093.49603	1.22205
1091.56747	1.23297
1089.63890	1.24501
1087.71034	1.25956
1085.78177	1.27691
1083.85321	1.29536
1081.92464	1.31197
1079.99608	1.32417
1078.06752	1.33059
1076.13895	1.33031
1074.21039	1.32379
1072.28182	1.31177
1070.35326	1.29577
1068.42469	1.27982
1066.49613	1.26633
1064.56756	1.25404
1062.63900	1.24132
1060.71044	1.22813
1058.78187	1.21509
1056.85331	1.20255
1054.92474	1.19127
1052.99618	1.18321
1051.06761	1.17893
1049.13905	1.17646
1047.21049	1.17564
1045.28192	1.17838
1043.35336	1.18334
1041.42479	1.18743
1039.49623	1.19124
1037.56766	1.19522
1035.63910	1.19603
1033.71053	1.19209
1031.78197	1.18558
1029.85341	1.17831
1027.92484	1.16960
1025.99628	1.15831
1024.06771	1.14519
1022.13915	1.13280
1020.21058	1.12353
1018.28202	1.11679
1016.35345	1.11001
1014.42489	1.10179
1012.49633	1.09174
1010.56776	1.07993
1008.63920	1.06650
1006.71063	1.05224
1004.78207	1.03896
1002.85350	1.02797
1000.92494	1.01968
998.99637	1.01390
997.06781	1.00998
995.13925	1.00692
993.21068	1.00313
991.28212	0.99729
989.35355	0.98970
987.42499	0.98181
985.49642	0.97489
983.56786	0.96903
981.63929	0.96356
979.71073	0.95835
977.78217	0.95322
975.85360	0.94724
973.92504	0.93999
971.99647	0.93117
970.06791	0.92043
968.13934	0.90909
966.21078	0.89942
964.28221	0.89268
962.35365	0.89000
960.42509	0.89328
958.49652	0.90236
956.56796	0.91281
954.63939	0.91871
952.71083	0.91754
950.78226	0.91143
948.85370	0.90348
946.92513	0.89555
944.99657	0.88881
943.06801	0.88334
941.13944	0.87819
939.21088	0.87256
937.28231	0.86606
935.35375	0.85871
933.42518	0.85105
931.49662	0.84373
929.56805	0.83693
927.63949	0.83068
925.71093	0.82551
923.78236	0.82199
921.85380	0.81987
919.92523	0.81835
917.99667	0.81697
916.06810	0.81627
914.13954	0.81734
912.21098	0.82065
910.28241	0.82630
908.35385	0.83433
906.42528	0.84429
904.49672	0.85552
902.56815	0.86752
900.63959	0.87974
898.71102	0.89187
896.78246	0.90298
894.85390	0.91202
892.92533	0.91935
890.99677	0.92546
889.06820	0.92974
887.13964	0.93167
885.21107	0.93167
883.28251	0.93047
881.35394	0.92842
879.42538	0.92571
877.49682	0.92229
875.56825	0.91763
873.63969	0.91163
871.71112	0.90532
869.78256	0.89988
867.85399	0.89579
865.92543	0.89277
863.99686	0.89069
862.06830	0.89018
860.13974	0.89147
858.21117	0.89412
856.28261	0.89795
854.35404	0.90256
852.42548	0.90699
850.49691	0.91056
848.56835	0.91341
846.63978	0.91607
844.71122	0.91890
842.78266	0.92187
840.85409	0.92426
838.92553	0.92566
836.99696	0.92634
835.06840	0.92595
833.13983	0.92398
831.21127	0.92102
829.28270	0.91727
827.35414	0.91244
825.42558	0.90723
823.49701	0.90208
821.56845	0.89715
819.63988	0.89335
817.71132	0.89112
815.78275	0.89069
813.85419	0.89244
811.92562	0.89580
809.99706	0.89985
808.06850	0.90480
806.13993	0.91186
804.21137	0.92110
802.28280	0.93151
800.35424	0.94261
798.42567	0.95392
796.49711	0.96567
794.56854	0.97896
792.63998	0.99354
790.71142	1.00797
788.78285	1.02100
786.85429	1.03276
784.92572	1.04379
782.99716	1.05253
781.06859	1.05757
779.14003	1.05951
777.21147	1.05915
775.28290	1.05694
773.35434	1.05275
771.42577	1.04692
769.49721	1.04120
767.56864	1.03638
765.64008	1.03148
763.71151	1.02652
761.78295	1.02302
759.85439	1.02142
757.92582	1.02143
755.99726	1.02344
754.06869	1.02637
752.14013	1.02933
750.21156	1.03436
748.28300	1.04116
746.35443	1.04670
744.42587	1.05112
742.49731	1.05548
740.56874	1.05918
738.64018	1.06207
736.71161	1.06427
734.78305	1.06510
732.85448	1.06469
730.92592	1.06406
728.99735	1.06231
727.06879	1.05855
725.14023	1.05408
723.21166	1.04942
721.28310	1.04394
719.35453	1.03672
717.42597	1.02763
715.49740	1.01926
713.56884	1.01408
711.64027	1.01178
709.71171	1.01098
707.78315	1.01117
705.85458	1.01361
703.92602	1.01962
701.99745	1.02792
700.06889	1.03687
698.14032	1.04593
696.21176	1.05594
694.28319	1.06923
692.35463	1.08549
690.42607	1.10227
688.49750	1.11959
686.56894	1.13826
684.64037	1.15646
682.71181	1.17102
680.78324	1.18085
678.85468	1.18775
676.92611	1.19198
674.99755	1.19163
673.06899	1.18829
671.14042	1.18379
669.21186	1.17240
667.28329	1.15395
665.35473	1.14290
663.42616	1.13442
661.49760	1.12458
659.56903	1.11494
657.64047	1.10688
655.71191	1.10005
653.78334	1.09387
651.85478	1.09044
649.92621	1.09188
647.99765	1.09590
646.06908	1.09987
644.14052	1.10631
642.21195	1.11620
640.28339	1.12570
638.35483	1.13352
636.42626	1.14170
634.49770	1.15024
632.56913	1.15599
630.64057	1.15605
628.71200	1.15121
626.78344	1.14543
624.85488	1.14106
622.92631	1.13729
620.99775	1.13207
619.06918	1.12318
617.14062	1.11078
615.21205	1.09738
613.28349	1.08288
611.35492	1.06697
609.42636	1.05355
607.49780	1.04569
605.56923	1.04021
603.64067	1.03424
601.71210	1.03085
599.78354	1.03179
