3997.91406	1.05698
3995.98550	1.05805
3994.05693	1.05614
3992.12837	1.05404
3990.19980	1.05416
3988.27124	1.05469
3986.34268	1.05376
3984.41411	1.05304
3982.48555	1.05415
3980.55698	1.05479
3978.62842	1.05242
3976.69985	1.04928
3974.77129	1.04749
3972.84272	1.04714
3970.91416	1.04998
3968.98560	1.05335
3967.05703	1.05130
3965.12847	1.04701
3963.19990	1.04724
3961.27134	1.04920
3959.34277	1.04733
3957.41421	1.04451
3955.48564	1.04353
3953.55708	1.04280
3951.62852	1.04330
3949.69995	1.04647
3947.77139	1.04738
3945.84282	1.04275
3943.91426	1.03890
3941.98569	1.04038
3940.05713	1.04266
3938.12856	1.04303
3936.20000	1.04248
3934.27144	1.04214
3932.34287	1.04356
3930.41431	1.04494
3928.48574	1.04249
3926.55718	1.03881
3924.62861	1.03865
3922.70005	1.03986
3920.77148	1.04011
3918.84292	1.04218
3916.91436	1.04508
3914.98579	1.04439
3913.05723	1.04058
3911.12866	1.03556
3909.20010	1.02889
3907.27153	1.02250
3905.34297	1.02192
3903.41440	1.02730
3901.48584	1.03130
3899.55728	1.03227
3897.62871	1.02901
3895.70015	1.02252
3893.77158	1.01895
3891.84302	1.02352
3889.91445	1.02614
3887.98589	1.02232
3886.05733	1.02270
3884.12876	1.02401
3882.20020	1.01967
3880.27163	1.02077
3878.34307	1.02227
3876.41450	1.01781
3874.48594	1.01471
3872.55737	1.01482
3870.62881	1.01862
3868.70025	1.02107
3866.77168	1.01658
3864.84312	1.01686
3862.91455	1.02211
3860.98599	1.01931
3859.05742	1.01292
3857.12886	1.00823
3855.20029	1.00934
3853.27173	1.02313
3851.34317	1.02486
3849.41460	1.01500
3847.48604	1.00661
3845.55747	1.00199
3843.62891	1.00127
3841.70034	1.00258
3839.77178	1.00512
3837.84321	1.00921
3835.91465	1.00858
3833.98609	1.00524
3832.05752	1.00493
3830.12896	1.00528
3828.20039	1.00379
3826.27183	1.00028
3824.34326	0.99308
3822.41470	0.99170
3820.48613	1.00455
3818.55757	1.00902
3816.62901	1.00843
3814.70044	1.00921
3812.77188	1.00385
3810.84331	0.99659
3808.91475	0.99426
3806.98618	0.99779
3805.05762	0.99501
3803.12905	0.98856
3801.20049	0.99322
3799.27193	0.99786
3797.34336	0.99832
3795.41480	1.00082
3793.48623	1.00040
3791.55767	0.99759
3789.62910	0.99483
3787.70054	0.99133
3785.77197	0.98996
3783.84341	0.99163
3781.91485	0.99229
3779.98628	0.99349
3778.05772	0.99349
3776.12915	0.98892
3774.20059	0.98434
3772.27202	0.98357
3770.34346	0.98738
3768.41489	0.98977
3766.48633	0.98848
3764.55777	0.98668
3762.62920	0.98211
3760.70064	0.97836
3758.77207	0.98106
3756.84351	0.98162
3754.91494	0.97489
3752.98638	0.96784
3751.05781	0.97384
3749.12925	0.98282
3747.20069	0.98084
3745.27212	0.98308
3743.34356	0.98812
3741.41499	0.98381
3739.48643	0.97514
3737.55786	0.96730
3735.62930	0.96829
3733.70074	0.97889
3731.77217	0.98206
3729.84361	0.97760
3727.91504	0.97386
3725.98648	0.97352
3724.05791	0.97376
3722.12935	0.97428
3720.20078	0.97530
3718.27222	0.97510
3716.34366	0.97212
3714.41509	0.96782
3712.48653	0.97117
3710.55796	0.98204
3708.62940	0.98163
3706.70083	0.97478
3704.77227	0.96930
3702.84370	0.97039
3700.91514	0.97541
3698.98658	0.97435
3697.05801	0.97014
3695.12945	0.96724
3693.20088	0.96497
3691.27232	0.96580
3689.34375	0.97662
3687.41519	0.98513
3685.48662	0.98202
3683.55806	0.97483
3681.62950	0.96981
3679.70093	0.96753
3677.77237	0.96810
3675.84380	0.98069
3673.91524	0.98930
3671.98667	0.98579
3670.05811	0.99351
3668.12954	1.00366
3666.20098	1.00215
3664.27242	1.00029
3662.34385	1.00191
3660.41529	1.00262
3658.48672	1.00271
3656.55816	1.01018
3654.62959	1.01814
3652.70103	1.01648
3650.77246	1.01749
3648.84390	1.03997
3646.91534	1.05500
3644.98677	1.05257
3643.05821	1.04818
3641.12964	1.04879
3639.20108	1.05407
3637.27251	1.05937
3635.34395	1.06338
3633.41538	1.06528
3631.48682	1.06393
3629.55826	1.07484
3627.62969	1.09923
3625.70113	1.10475
3623.77256	1.10231
3621.84400	1.10395
3619.91543	1.11374
3617.98687	1.12454
3616.05830	1.12661
3614.12974	1.12858
3612.20118	1.13202
3610.27261	1.13157
3608.34405	1.13542
3606.41548	1.14454
3604.48692	1.14928
3602.55835	1.15223
3600.62979	1.15690
3598.70123	1.16120
3596.77266	1.16616
3594.84410	1.17521
3592.91553	1.18321
3590.98697	1.18437
3589.05840	1.18742
3587.12984	1.20232
3585.20127	1.21440
3583.27271	1.21732
3581.34415	1.22140
3579.41558	1.22943
3577.48702	1.23461
3575.55845	1.23568
3573.62989	1.23904
3571.70132	1.24418
3569.77276	1.24826
3567.84419	1.26003
3565.91563	1.27908
3563.98707	1.28472
3562.05850	1.28476
3560.12994	1.28851
3558.20137	1.29174
3556.27281	1.29299
3554.34424	1.29842
3552.41568	1.30792
3550.48711	1.31302
3548.55855	1.31709
3546.62999	1.32845
3544.70142	1.34086
3542.77286	1.34438
3540.84429	1.34194
3538.91573	1.34056
3536.98716	1.34472
3535.05860	1.35239
3533.13003	1.35825
3531.20147	1.36501
3529.27291	1.37743
3527.34434	1.38967
3525.41578	1.39519
3523.48721	1.39745
3521.55865	1.39881
3519.63008	1.39909
3517.70152	1.40238
3515.77295	1.41051
3513.84439	1.41895
3511.91583	1.42479
3509.98726	1.42947
3508.05870	1.43541
3506.13013	1.44376
3504.20157	1.45318
3502.27300	1.45922
3500.34444	1.46375
3498.41587	1.47196
3496.48731	1.48094
3494.55875	1.48655
3492.63018	1.49025
3490.70162	1.49360
3488.77305	1.49779
3486.84449	1.50584
3484.91592	1.51516
3482.98736	1.52150
3481.05879	1.52572
3479.13023	1.52599
3477.20167	1.52436
3475.27310	1.52725
3473.34454	1.53274
3471.41597	1.53610
3469.48741	1.53864
3467.55884	1.54273
3465.63028	1.54883
3463.70171	1.55800
3461.77315	1.56738
3459.84459	1.57171
3457.91602	1.57352
3455.98746	1.57530
3454.05889	1.57350
3452.13033	1.56830
3450.20176	1.56568
3448.27320	1.57012
3446.34464	1.57671
3444.41607	1.57758
3442.48751	1.57806
3440.55894	1.58161
3438.63038	1.58151
3436.70181	1.57893
3434.77325	1.57943
3432.84468	1.58412
3430.91612	1.59133
3428.98756	1.59391
3427.05899	1.58997
3425.13043	1.58825
3423.20186	1.59196
3421.27330	1.59574
3419.34473	1.59524
3417.41617	1.58998
3415.48760	1.58527
3413.55904	1.58668
3411.63048	1.59221
3409.70191	1.59886
3407.77335	1.60285
3405.84478	1.60072
3403.91622	1.59864
3401.98765	1.60124
3400.05909	1.60450
3398.13052	1.60597
3396.20196	1.60693
3394.27340	1.60890
3392.34483	1.61131
3390.41627	1.61194
3388.48770	1.61055
3386.55914	1.60846
3384.63057	1.60925
3382.70201	1.61518
3380.77344	1.61904
3378.84488	1.61366
3376.91632	1.60556
3374.98775	1.60577
3373.05919	1.61536
3371.13062	1.62493
3369.20206	1.62721
3367.27349	1.62724
3365.34493	1.63291
3363.41636	1.64111
3361.48780	1.64153
3359.55924	1.63353
3357.63067	1.62774
3355.70211	1.62979
3353.77354	1.63735
3351.84498	1.64455
3349.91641	1.64467
3347.98785	1.64020
3346.05928	1.63951
3344.13072	1.64182
3342.20216	1.64194
3340.27359	1.64306
3338.34503	1.64957
3336.41646	1.65582
3334.48790	1.65552
3332.55933	1.65353
3330.63077	1.65657
3328.70220	1.66045
3326.77364	1.66057
3324.84508	1.66135
3322.91651	1.66150
3320.98795	1.65930
3319.05938	1.66014
3317.13082	1.66322
3315.20225	1.66434
3313.27369	1.66243
3311.34513	1.66232
3309.41656	1.67351
3307.48800	1.69227
3305.55943	1.70324
3303.63087	1.70347
3301.70230	1.69946
3299.77374	1.69473
3297.84517	1.69309
3295.91661	1.69479
3293.98805	1.69393
3292.05948	1.69191
3290.13092	1.69563
3288.20235	1.70299
3286.27379	1.70676
3284.34522	1.70550
3282.41666	1.69954
3280.48809	1.68906
3278.55953	1.67874
3276.63097	1.67030
3274.70240	1.66349
3272.77384	1.66361
3270.84527	1.66871
3268.91671	1.66917
3266.98814	1.66454
3265.05958	1.66166
3263.13101	1.66529
3261.20245	1.67106
3259.27389	1.66605
3257.34532	1.65025
3255.41676	1.63758
3253.48819	1.63477
3251.55963	1.63533
3249.63106	1.63104
3247.70250	1.62594
3245.77393	1.62412
3243.84537	1.61906
3241.91681	1.61123
3239.98824	1.60815
3238.05968	1.60813
3236.13111	1.60343
3234.20255	1.59401
3232.27398	1.58772
3230.34542	1.58723
3228.41685	1.58562
3226.48829	1.57911
3224.55973	1.57468
3222.63116	1.57342
3220.70260	1.56713
3218.77403	1.55732
3216.84547	1.55067
3214.91690	1.54773
3212.98834	1.54788
3211.05977	1.54850
3209.13121	1.54601
3207.20265	1.54066
3205.27408	1.53443
3203.34552	1.52862
3201.41695	1.52484
3199.48839	1.52233
3197.55982	1.51790
3195.63126	1.51471
3193.70269	1.51468
3191.77413	1.51184
3189.84557	1.50817
3187.91700	1.50760
3185.98844	1.50409
3184.05987	1.49647
3182.13131	1.49077
3180.20274	1.48785
3178.27418	1.48440
3176.34562	1.48047
3174.41705	1.47767
3172.48849	1.47353
3170.55992	1.46852
3168.63136	1.46652
3166.70279	1.46457
3164.77423	1.45816
3162.84566	1.45053
3160.91710	1.44733
3158.98854	1.44755
3157.05997	1.44564
3155.13141	1.44207
3153.20284	1.44009
3151.27428	1.43751
3149.34571	1.43379
3147.41715	1.43217
3145.48858	1.43218
3143.56002	1.43234
3141.63146	1.43129
3139.70289	1.42604
3137.77433	1.41871
3135.84576	1.41442
3133.91720	1.41290
3131.98863	1.41125
3130.06007	1.40990
3128.13150	1.41041
3126.20294	1.41151
3124.27438	1.41083
3122.34581	1.40645
3120.41725	1.39994
3118.48868	1.39551
3116.56012	1.39468
3114.63155	1.39723
3112.70299	1.40213
3110.77442	1.40692
3108.84586	1.40932
3106.91730	1.40876
3104.98873	1.40524
3103.06017	1.39938
3101.13160	1.39479
3099.20304	1.39252
3097.27447	1.39068
3095.34591	1.39127
3093.41734	1.39376
3091.48878	1.39401
3089.56022	1.39323
3087.63165	1.39343
3085.70309	1.39298
3083.77452	1.39228
3081.84596	1.39150
3079.91739	1.38866
3077.98883	1.38425
3076.06026	1.37937
3074.13170	1.37571
3072.20314	1.37450
3070.27457	1.37340
3068.34601	1.37109
3066.41744	1.36860
3064.48888	1.36673
3062.56031	1.36457
3060.63175	1.36087
3058.70318	1.35683
3056.77462	1.35260
3054.84606	1.34720
3052.91749	1.34250
3050.98893	1.34049
3049.06036	1.34019
3047.13180	1.33858
3045.20323	1.33415
3043.27467	1.32889
3041.34610	1.32540
3039.41754	1.32329
3037.48898	1.32019
3035.56041	1.31588
3033.63185	1.31237
3031.70328	1.30968
3029.77472	1.30570
3027.84615	1.30034
3025.91759	1.29550
3023.98903	1.29160
3022.06046	1.28813
3020.13190	1.28513
3018.20333	1.28265
3016.27477	1.28079
3014.34620	1.27873
3012.41764	1.27537
3010.48907	1.27174
3008.56051	1.26963
3006.63195	1.26948
3004.70338	1.27042
3002.77482	1.27089
3000.84625	1.26951
2998.91769	1.26680
2996.98912	1.26620
2995.06056	1.26995
2993.13199	1.27582
2991.20343	1.28026
2989.27487	1.28225
2987.34630	1.28361
2985.41774	1.28593
2983.48917	1.28930
2981.56061	1.29311
2979.63204	1.29624
2977.70348	1.29934
2975.77491	1.30517
2973.84635	1.31514
2971.91779	1.32645
2969.98922	1.33367
2968.06066	1.33691
2966.13209	1.34099
2964.20353	1.34637
2962.27496	1.35077
2960.34640	1.35294
2958.41783	1.35160
2956.48927	1.34709
2954.56071	1.34128
2952.63214	1.33637
2950.70358	1.33384
2948.77501	1.33212
2946.84645	1.33077
2944.91788	1.33162
2942.98932	1.33468
2941.06075	1.34136
2939.13219	1.35252
2937.20363	1.36397
2935.27506	1.37231
2933.34650	1.37660
2931.41793	1.37927
2929.48937	1.38648
2927.56080	1.39835
2925.63224	1.40815
2923.70367	1.41259
2921.77511	1.41510
2919.84655	1.41812
2917.91798	1.41523
2915.98942	1.39909
2914.06085	1.37411
2912.13229	1.34983
2910.20372	1.33008
2908.27516	1.31504
2906.34659	1.30406
2904.41803	1.29575
2902.48947	1.28940
2900.56090	1.28411
2898.63234	1.27883
2896.70377	1.27444
2894.77521	1.27154
2892.84664	1.26812
2890.91808	1.26260
2888.98952	1.25642
2887.06095	1.25202
2885.13239	1.24968
2883.20382	1.24824
2881.27526	1.24803
2879.34669	1.24985
2877.41813	1.25239
2875.48956	1.25251
2873.56100	1.24871
2871.63244	1.24306
2869.70387	1.23747
2867.77531	1.23188
2865.84674	1.22638
2863.91818	1.22289
2861.98961	1.22419
2860.06105	1.22976
2858.13248	1.23690
2856.20392	1.24530
2854.27536	1.25541
2852.34679	1.26492
2850.41823	1.26819
2848.48966	1.25792
2846.56110	1.23313
2844.63253	1.20455
2842.70397	1.18225
2840.77540	1.16651
2838.84684	1.15494
2836.91828	1.14651
2834.98971	1.13994
2833.06115	1.13476
2831.13258	1.13093
2829.20402	1.12729
2827.27545	1.12331
2825.34689	1.11997
2823.41832	1.11731
2821.48976	1.11429
2819.56120	1.11086
2817.63263	1.10832
2815.70407	1.10768
2813.77550	1.10715
2811.84694	1.10423
2809.91837	1.10012
2807.98981	1.09693
2806.06124	1.09437
2804.13268	1.09184
2802.20412	1.08847
2800.27555	1.08374
2798.34699	1.07922
2796.41842	1.07599
2794.48986	1.07295
2792.56129	1.06899
2790.63273	1.06448
2788.70416	1.06052
2786.77560	1.05754
2784.84704	1.05509
2782.91847	1.05313
2780.98991	1.05175
2779.06134	1.05071
2777.13278	1.05016
2775.20421	1.04940
2773.27565	1.04758
2771.34708	1.04500
2769.41852	1.04249
2767.48996	1.04133
2765.56139	1.04102
2763.63283	1.03913
2761.70426	1.03572
2759.77570	1.03312
2757.84713	1.03199
2755.91857	1.03086
2753.99001	1.02897
2752.06144	1.02696
2750.13288	1.02492
2748.20431	1.02264
2746.27575	1.02024
2744.34718	1.01748
2742.41862	1.01431
2740.49005	1.01115
2738.56149	1.00845
2736.63293	1.00637
2734.70436	1.00445
2732.77580	1.00246
2730.84723	1.00095
2728.91867	1.00025
2726.99010	0.99976
2725.06154	0.99851
2723.13297	0.99691
2721.20441	0.99617
2719.27585	0.99604
2717.34728	0.99552
2715.41872	0.99446
2713.49015	0.99326
2711.56159	0.99187
2709.63302	0.98987
2707.70446	0.98757
2705.77589	0.98580
2703.84733	0.98431
2701.91877	0.98202
2699.99020	0.97919
2698.06164	0.97701
2696.13307	0.97509
2694.20451	0.97231
2692.27594	0.96870
2690.34738	0.96490
2688.41881	0.96204
2686.49025	0.96022
2684.56169	0.95823
2682.63312	0.95605
2680.70456	0.95450
2678.77599	0.95384
2676.84743	0.95364
2674.91886	0.95274
2672.99030	0.95126
2671.06173	0.95057
2669.13317	0.95050
2667.20461	0.95018
2665.27604	0.94986
2663.34748	0.94936
2661.41891	0.94845
2659.49035	0.94765
2657.56178	0.94667
2655.63322	0.94500
2653.70465	0.94313
2651.77609	0.94146
2649.84753	0.93949
2647.91896	0.93671
2645.99040	0.93418
2644.06183	0.93295
2642.13327	0.93176
2640.20470	0.92948
2638.27614	0.92671
2636.34757	0.92420
2634.41901	0.92238
2632.49045	0.92173
2630.56188	0.92204
2628.63332	0.92225
2626.70475	0.92178
2624.77619	0.92134
2622.84762	0.92141
2620.91906	0.92100
2618.99049	0.91997
2617.06193	0.91952
2615.13337	0.91977
2613.20480	0.92012
2611.27624	0.92013
2609.34767	0.91939
2607.41911	0.91818
2605.49054	0.91695
2603.56198	0.91548
2601.63342	0.91336
2599.70485	0.91107
2597.77629	0.90932
2595.84772	0.90770
2593.91916	0.90570
2591.99059	0.90341
2590.06203	0.90086
2588.13346	0.89821
2586.20490	0.89552
2584.27634	0.89277
2582.34777	0.89069
2580.41921	0.88981
2578.49064	0.88915
2576.56208	0.88790
2574.63351	0.88660
2572.70495	0.88569
2570.77638	0.88493
2568.84782	0.88421
2566.91926	0.88366
2564.99069	0.88290
2563.06213	0.88156
2561.13356	0.88026
2559.20500	0.87937
2557.27643	0.87819
2555.34787	0.87655
2553.41930	0.87511
2551.49074	0.87391
2549.56218	0.87227
2547.63361	0.86988
2545.70505	0.86722
2543.77648	0.86492
2541.84792	0.86298
2539.91935	0.86090
2537.99079	0.85883
2536.06222	0.85720
2534.13366	0.85593
2532.20510	0.85486
2530.27653	0.85418
2528.34797	0.85373
2526.41940	0.85295
2524.49084	0.85186
2522.56227	0.85070
2520.63371	0.84965
2518.70514	0.84912
2516.77658	0.84898
2514.84802	0.84865
2512.91945	0.84806
2510.99089	0.84741
2509.06232	0.84657
2507.13376	0.84526
2505.20519	0.84394
2503.27663	0.84298
2501.34806	0.84202
2499.41950	0.84066
2497.49094	0.83881
2495.56237	0.83677
2493.63381	0.83489
2491.70524	0.83305
2489.77668	0.83107
2487.84811	0.82902
2485.91955	0.82713
2483.99098	0.82567
2482.06242	0.82465
2480.13386	0.82369
2478.20529	0.82254
2476.27673	0.82102
2474.34816	0.81919
2472.41960	0.81743
2470.49103	0.81601
2468.56247	0.81493
2466.63391	0.81416
2464.70534	0.81334
2462.77678	0.81215
2460.84821	0.81051
2458.91965	0.80818
2456.99108	0.80562
2455.06252	0.80387
2453.13395	0.80285
2451.20539	0.80159
2449.27683	0.79982
2447.34826	0.79800
2445.41970	0.79664
2443.49113	0.79577
2441.56257	0.79498
2439.63400	0.79379
2437.70544	0.79213
2435.77687	0.79040
2433.84831	0.78907
2431.91975	0.78810
2429.99118	0.78711
2428.06262	0.78597
2426.13405	0.78472
2424.20549	0.78336
2422.27692	0.78201
2420.34836	0.78096
2418.41979	0.78018
2416.49123	0.77937
2414.56267	0.77821
2412.63410	0.77665
2410.70554	0.77506
2408.77697	0.77384
2406.84841	0.77288
2404.91984	0.77159
2402.99128	0.77001
2401.06271	0.76858
2399.13415	0.76731
2397.20559	0.76625
2395.27702	0.76534
2393.34846	0.76422
2391.41989	0.76289
2389.49133	0.76152
2387.56276	0.76028
2385.63420	0.75887
2383.70563	0.75714
2381.77707	0.75554
2379.84851	0.75383
2377.91994	0.75135
2375.99138	0.74849
2374.06281	0.74579
2372.13425	0.74321
2370.20568	0.74195
2368.27712	0.74398
2366.34855	0.74746
2364.41999	0.74838
2362.49143	0.74567
2360.56286	0.74005
2358.63430	0.73629
2356.70573	0.73625
2354.77717	0.73682
2352.84860	0.73777
2350.92004	0.73707
2348.99147	0.73358
2347.06291	0.72916
2345.13435	0.72671
2343.20578	0.72724
2341.27722	0.72799
2339.34865	0.72822
2337.42009	0.72832
2335.49152	0.72764
2333.56296	0.72633
2331.63440	0.72575
2329.70583	0.72642
2327.77727	0.72714
2325.84870	0.72666
2323.92014	0.72531
2321.99157	0.72485
2320.06301	0.72565
2318.13444	0.72586
2316.20588	0.72480
2314.27732	0.72377
2312.34875	0.72356
2310.42019	0.72325
2308.49162	0.72217
2306.56306	0.72100
2304.63449	0.72031
2302.70593	0.71977
2300.77736	0.71900
2298.84880	0.71823
2296.92024	0.71781
2294.99167	0.71756
2293.06311	0.71726
2291.13454	0.71690
2289.20598	0.71637
2287.27741	0.71562
2285.34885	0.71485
2283.42028	0.71426
2281.49172	0.71375
2279.56316	0.71326
2277.63459	0.71273
2275.70603	0.71197
2273.77746	0.71093
2271.84890	0.71001
2269.92033	0.70911
2267.99177	0.70776
2266.06320	0.70635
2264.13464	0.70534
2262.20608	0.70421
2260.27751	0.70246
2258.34895	0.70066
2256.42038	0.69944
2254.49182	0.69841
2252.56325	0.69718
2250.63469	0.69597
2248.70612	0.69478
2246.77756	0.69344
2244.84900	0.69220
2242.92043	0.69126
2240.99187	0.69039
2239.06330	0.68951
2237.13474	0.68869
2235.20617	0.68790
2233.27761	0.68715
2231.34904	0.68672
2229.42048	0.68658
2227.49192	0.68640
2225.56335	0.68602
2223.63479	0.68539
2221.70622	0.68457
2219.77766	0.68385
2217.84909	0.68335
2215.92053	0.68296
2213.99196	0.68256
2212.06340	0.68199
2210.13484	0.68136
2208.20627	0.68099
2206.27771	0.68079
2204.34914	0.68060
2202.42058	0.68032
2200.49201	0.68009
2198.56345	0.68025
2196.63488	0.68045
2194.70632	0.68019
2192.77776	0.67978
2190.84919	0.67977
2188.92063	0.68003
2186.99206	0.68031
2185.06350	0.68052
2183.13493	0.68066
2181.20637	0.68095
2179.27781	0.68150
2177.34924	0.68190
2175.42068	0.68188
2173.49211	0.68170
2171.56355	0.68146
2169.63498	0.68114
2167.70642	0.68091
2165.77785	0.68057
2163.84929	0.67982
2161.92073	0.67880
2159.99216	0.67790
2158.06360	0.67708
2156.13503	0.67599
2154.20647	0.67469
2152.27790	0.67352
2150.34934	0.67242
2148.42077	0.67138
2146.49221	0.67058
2144.56365	0.67000
2142.63508	0.66953
2140.70652	0.66919
2138.77795	0.66904
2136.84939	0.66900
2134.92082	0.66889
2132.99226	0.66851
2131.06369	0.66794
2129.13513	0.66732
2127.20657	0.66661
2125.27800	0.66576
2123.34944	0.66487
2121.42087	0.66412
2119.49231	0.66340
2117.56374	0.66268
2115.63518	0.66186
2113.70661	0.66079
2111.77805	0.65963
2109.84949	0.65853
2107.92092	0.65750
2105.99236	0.65658
2104.06379	0.65571
2102.13523	0.65491
2100.20666	0.65431
2098.27810	0.65380
2096.34953	0.65330
2094.42097	0.65285
2092.49241	0.65236
2090.56384	0.65193
2088.63528	0.65167
2086.70671	0.65146
2084.77815	0.65130
2082.84958	0.65114
2080.92102	0.65087
2078.99245	0.65066
2077.06389	0.65067
2075.13533	0.65048
2073.20676	0.64978
2071.27820	0.64899
2069.34963	0.64827
2067.42107	0.64737
2065.49250	0.64665
2063.56394	0.64628
2061.63537	0.64580
2059.70681	0.64506
2057.77825	0.64424
2055.84968	0.64333
2053.92112	0.64221
2051.99255	0.64095
2050.06399	0.63978
2048.13542	0.63892
2046.20686	0.63833
2044.27830	0.63776
2042.34973	0.63711
2040.42117	0.63658
2038.49260	0.63634
2036.56404	0.63617
2034.63547	0.63554
2032.70691	0.63450
2030.77834	0.63378
2028.84978	0.63356
2026.92122	0.63314
2024.99265	0.63208
2023.06409	0.63077
2021.13552	0.62962
2019.20696	0.62873
2017.27839	0.62823
2015.34983	0.62771
2013.42126	0.62668
2011.49270	0.62535
2009.56414	0.62400
2007.63557	0.62261
2005.70701	0.62128
2003.77844	0.62009
2001.84988	0.61911
1999.92131	0.61857
1997.99275	0.61824
1996.06418	0.61743
1994.13562	0.61642
1992.20706	0.61624
1990.27849	0.61641
1988.34993	0.61604
1986.42136	0.61549
1984.49280	0.61513
1982.56423	0.61493
1980.63567	0.61480
1978.70710	0.61462
1976.77854	0.61420
1974.84998	0.61353
1972.92141	0.61285
1970.99285	0.61210
1969.06428	0.61139
1967.13572	0.61113
1965.20715	0.61095
1963.27859	0.61050
1961.35002	0.61002
1959.42146	0.60941
1957.49290	0.60873
1955.56433	0.60839
1953.63577	0.60817
1951.70720	0.60763
1949.77864	0.60684
1947.85007	0.60594
1945.92151	0.60487
1943.99294	0.60415
1942.06438	0.60412
1940.13582	0.60363
1938.20725	0.60229
1936.27869	0.60076
1934.35012	0.59931
1932.42156	0.59791
1930.49299	0.59649
1928.56443	0.59508
1926.63586	0.59347
1924.70730	0.59176
1922.77874	0.59057
1920.85017	0.58947
1918.92161	0.58839
1916.99304	0.58766
1915.06448	0.58645
1913.13591	0.58484
1911.20735	0.58391
1909.27878	0.58393
1907.35022	0.58383
1905.42166	0.58312
1903.49309	0.58255
1901.56453	0.58228
1899.63596	0.58170
1897.70740	0.58103
1895.77883	0.58117
1893.85027	0.58153
1891.92171	0.58121
1889.99314	0.58130
1888.06458	0.58180
1886.13601	0.58148
1884.20745	0.58095
1882.27888	0.58073
1880.35032	0.58058
1878.42175	0.58055
1876.49319	0.58048
1874.56463	0.57987
1872.63606	0.57855
1870.70750	0.57760
1868.77893	0.57885
1866.85037	0.58066
1864.92180	0.58065
1862.99324	0.58015
1861.06467	0.58004
1859.13611	0.57997
1857.20755	0.57975
1855.27898	0.57953
1853.35042	0.57918
1851.42185	0.57842
1849.49329	0.57739
1847.56472	0.57612
1845.63616	0.57547
1843.70759	0.57637
1841.77903	0.57623
1839.85047	0.57452
1837.92190	0.57336
1835.99334	0.57294
1834.06477	0.57154
1832.13621	0.56939
1830.20764	0.56875
1828.27908	0.56918
1826.35051	0.56878
1824.42195	0.56843
1822.49339	0.56780
1820.56482	0.56660
1818.63626	0.56594
1816.70769	0.56582
1814.77913	0.56540
1812.85056	0.56472
1810.92200	0.56457
1808.99343	0.56471
1807.06487	0.56449
1805.13631	0.56394
1803.20774	0.56333
1801.27918	0.56354
1799.35061	0.56435
1797.42205	0.56433
1795.49348	0.56349
1793.56492	0.56381
1791.63635	0.56685
1789.70779	0.56858
1787.77923	0.56805
1785.85066	0.56807
1783.92210	0.56924
1781.99353	0.57071
1780.06497	0.57261
1778.13640	0.57398
1776.20784	0.57382
1774.27927	0.57387
1772.35071	0.57728
1770.42215	0.58182
1768.49358	0.58425
1766.56502	0.58545
1764.63645	0.58586
1762.70789	0.58789
1760.77932	0.59219
1758.85076	0.59558
1756.92220	0.59943
1754.99363	0.60357
1753.06507	0.60704
1751.13650	0.61382
1749.20794	0.62516
1747.27937	0.63486
1745.35081	0.64207
1743.42224	0.64894
1741.49368	0.65611
1739.56512	0.66307
1737.63655	0.66654
1735.70799	0.66840
1733.77942	0.67641
1731.85086	0.68470
1729.92229	0.68861
1727.99373	0.69260
1726.06516	0.69727
1724.13660	0.70379
1722.20804	0.71018
1720.27947	0.71463
1718.35091	0.72378
1716.42234	0.74517
1714.49378	0.76334
1712.56521	0.77498
1710.63665	0.78633
1708.70808	0.79968
1706.77952	0.82152
1704.85096	0.85307
1702.92239	0.88149
1700.99383	0.92152
1699.06526	0.98903
1697.13670	1.05520
1695.20813	1.12144
1693.27957	1.16854
1691.35100	1.20251
1689.42244	1.24458
1687.49388	1.28406
1685.56531	1.32494
1683.63675	1.39879
1681.70818	1.45358
1679.77962	1.47973
1677.85105	1.50455
1675.92249	1.53954
1673.99392	1.58054
1672.06536	1.61065
1670.13680	1.64231
1668.20823	1.68014
1666.27967	1.70078
1664.35110	1.71881
1662.42254	1.74726
1660.49397	1.76612
1658.56541	1.76872
1656.63684	1.76506
1654.70828	1.76721
1652.77972	1.78846
1650.85115	1.79531
1648.92259	1.79183
1646.99402	1.79149
1645.06546	1.78684
1643.13689	1.77790
1641.20833	1.77069
1639.27976	1.76154
1637.35120	1.75210
1635.42264	1.75173
1633.49407	1.75102
1631.56551	1.74382
1629.63694	1.73316
1627.70838	1.72303
1625.77981	1.71373
1623.85125	1.69896
1621.92269	1.67649
1619.99412	1.65453
1618.06556	1.63102
1616.13699	1.60096
1614.20843	1.57453
1612.27986	1.54976
1610.35130	1.52335
1608.42273	1.49930
1606.49417	1.48024
1604.56561	1.46447
1602.63704	1.45096
1600.70848	1.43963
1598.77991	1.42880
1596.85135	1.41917
1594.92278	1.41249
1592.99422	1.40823
1591.06565	1.40583
1589.13709	1.40692
1587.20853	1.41176
1585.27996	1.41756
1583.35140	1.42357
1581.42283	1.43008
1579.49427	1.43635
1577.56570	1.44820
1575.63714	1.47213
1573.70857	1.48859
1571.78001	1.49840
1569.85145	1.51550
1567.92288	1.53172
1565.99432	1.54087
1564.06575	1.55178
1562.13719	1.56134
1560.20862	1.57508
1558.28006	1.61405
1556.35149	1.63373
1554.42293	1.63855
1552.49437	1.64062
1550.56580	1.64056
1548.63724	1.64048
1546.70867	1.63917
1544.78011	1.63409
1542.85154	1.62447
1540.92298	1.61379
1538.99441	1.60723
1537.06585	1.60316
1535.13729	1.59868
1533.20872	1.59183
1531.28016	1.58144
1529.35159	1.57018
1527.42303	1.55854
1525.49446	1.54827
1523.56590	1.54068
1521.63733	1.53524
1519.70877	1.53355
1517.78021	1.52837
1515.85164	1.51539
1513.92308	1.49896
1511.99451	1.48287
1510.06595	1.46888
1508.13738	1.44757
1506.20882	1.40569
1504.28025	1.37992
1502.35169	1.36203
1500.42313	1.34116
1498.49456	1.31667
1496.56600	1.29155
1494.63743	1.27045
1492.70887	1.25277
1490.78030	1.23249
1488.85174	1.20714
1486.92317	1.18658
1484.99461	1.17265
1483.06605	1.16270
1481.13748	1.15637
1479.20892	1.15422
1477.28035	1.15658
1475.35179	1.16475
1473.42322	1.18483
1471.49466	1.21055
1469.56610	1.22241
1467.63753	1.22734
1465.70897	1.23595
1463.78040	1.24823
1461.85184	1.25486
1459.92327	1.25712
1457.99471	1.26572
1456.06614	1.28180
1454.13758	1.28533
1452.20902	1.28229
1450.28045	1.27803
1448.35189	1.27389
1446.42332	1.26928
1444.49476	1.26244
1442.56619	1.25328
1440.63763	1.24350
1438.70906	1.23301
1436.78050	1.21963
1434.85194	1.20631
1432.92337	1.19532
1430.99481	1.18507
1429.06624	1.17707
1427.13768	1.17246
1425.20911	1.17062
1423.28055	1.17119
1421.35198	1.17369
1419.42342	1.18201
1417.49486	1.19462
1415.56629	1.20165
1413.63773	1.20625
1411.70916	1.21176
1409.78060	1.21688
1407.85203	1.21987
1405.92347	1.22266
1403.99490	1.22705
1402.06634	1.23009
1400.13778	1.23085
1398.20921	1.22984
1396.28065	1.22702
1394.35208	1.22410
1392.42352	1.22126
1390.49495	1.21764
1388.56639	1.21530
1386.63782	1.21715
1384.70926	1.22127
1382.78070	1.22470
1380.85213	1.22631
1378.92357	1.22449
1376.99500	1.21844
1375.06644	1.20858
1373.13787	1.19627
1371.20931	1.18343
1369.28074	1.16936
1367.35218	1.15412
1365.42362	1.13991
1363.49505	1.12769
1361.56649	1.11834
1359.63792	1.11157
1357.70936	1.10676
1355.78079	1.10413
1353.85223	1.10292
1351.92366	1.10200
1349.99510	1.10086
1348.06654	1.09916
1346.13797	1.09658
1344.20941	1.09329
1342.28084	1.09009
1340.35228	1.08808
1338.42371	1.08765
1336.49515	1.08836
1334.56659	1.09068
1332.63802	1.09525
1330.70946	1.10109
1328.78089	1.10663
1326.85233	1.11157
1324.92376	1.11612
1322.99520	1.12054
1321.06663	1.12564
1319.13807	1.13164
1317.20951	1.13702
1315.28094	1.14091
1313.35238	1.14475
1311.42381	1.14869
1309.49525	1.15133
1307.56668	1.15242
1305.63812	1.15220
1303.70955	1.15105
1301.78099	1.14914
1299.85243	1.14568
1297.92386	1.14021
1295.99530	1.13367
1294.06673	1.12746
1292.13817	1.12248
1290.20960	1.11933
1288.28104	1.11784
1286.35247	1.11656
1284.42391	1.11488
1282.49535	1.11349
1280.56678	1.11248
1278.63822	1.11222
1276.70965	1.11352
1274.78109	1.11630
1272.85252	1.12050
1270.92396	1.12641
1268.99539	1.13329
1267.06683	1.13978
1265.13827	1.14518
1263.20970	1.14886
1261.28114	1.15034
1259.35257	1.15057
1257.42401	1.15080
1255.49544	1.15112
1253.56688	1.15108
1251.63831	1.15056
1249.70975	1.14975
1247.78119	1.14873
1245.85262	1.14704
1243.92406	1.14439
1241.99549	1.14179
1240.06693	1.13984
1238.13836	1.13772
1236.20980	1.13485
1234.28123	1.13105
1232.35267	1.12642
1230.42411	1.12170
1228.49554	1.11698
1226.56698	1.11180
1224.63841	1.10630
1222.70985	1.10131
1220.78128	1.09692
1218.85272	1.09197
1216.92415	1.08621
1214.99559	1.08146
1213.06703	1.07879
1211.13846	1.07722
1209.20990	1.07577
1207.28133	1.07334
1205.35277	1.06795
1203.42420	1.05873
1201.49564	1.04674
1199.56708	1.03359
1197.63851	1.02005
1195.70995	1.00672
1193.78138	0.99485
1191.85282	0.98540
1189.92425	0.97825
1187.99569	0.97274
1186.06712	0.96932
1184.13856	0.96872
1182.21000	0.97058
1180.28143	0.97468
1178.35287	0.98141
1176.42430	0.99054
1174.49574	1.00064
1172.56717	1.00999
1170.63861	1.01863
1168.71004	1.02809
1166.78148	1.03937
1164.85292	1.05239
1162.92435	1.06549
1160.99579	1.07539
1159.06722	1.07903
1157.13866	1.07490
1155.21009	1.06336
1153.28153	1.04669
1151.35296	1.02736
1149.42440	1.00684
1147.49584	0.98686
1145.56727	0.96976
1143.63871	0.95740
1141.71014	0.95078
1139.78158	0.95015
1137.85301	0.95491
1135.92445	0.96400
1133.99588	0.97682
1132.06732	0.99328
1130.13876	1.01230
1128.21019	1.03213
1126.28163	1.05197
1124.35306	1.07044
1122.42450	1.08571
1120.49593	1.09809
1118.56737	1.10774
1116.63880	1.11280
1114.71024	1.11267
1112.78168	1.10818
1110.85311	1.09979
1108.92455	1.08902
1106.99598	1.07784
1105.06742	1.06704
1103.13885	1.05692
1101.21029	1.04772
1099.28172	1.04096
1097.35316	1.03963
1095.42460	1.04467
1093.49603	1.05435
1091.56747	1.06717
1089.63890	1.08235
1087.71034	1.09969
1085.78177	1.11995
1083.85321	1.14235
1081.92464	1.16336
1079.99608	1.17936
1078.06752	1.18932
1076.13895	1.19380
1074.21039	1.19274
1072.28182	1.18617
1070.35326	1.17584
1068.42469	1.16403
1066.49613	1.15202
1064.56756	1.14014
1062.63900	1.12770
1060.71044	1.11371
1058.78187	1.09850
1056.85331	1.08322
1054.92474	1.06852
1052.99618	1.05437
1051.06761	1.04073
1049.13905	1.02861
1047.21049	1.01964
1045.28192	1.01482
1043.35336	1.01395
1041.42479	1.01649
1039.49623	1.02161
1037.56766	1.02738
1035.63910	1.03209
1033.71053	1.03598
1031.78197	1.03944
1029.85341	1.04164
1027.92484	1.04141
1025.99628	1.03855
1024.06771	1.03427
1022.13915	1.02999
1020.21058	1.02612
1018.28202	1.02264
1016.35345	1.01851
1014.42489	1.01097
1012.49633	0.99772
1010.56776	0.97905
1008.63920	0.95666
1006.71063	0.93264
1004.78207	0.90866
1002.85350	0.88542
1000.92494	0.86387
998.99637	0.84539
997.06781	0.83033
995.13925	0.81775
993.21068	0.80654
991.28212	0.79667
989.35355	0.78893
987.42499	0.78385
985.49642	0.78188
983.56786	0.78330
981.63929	0.78776
979.71073	0.79458
977.78217	0.80283
975.85360	0.81110
973.92504	0.81770
971.99647	0.82078
970.06791	0.81984
968.13934	0.81642
966.21078	0.81186
964.28221	0.80663
962.35365	0.80160
960.42509	0.79836
958.49652	0.79744
956.56796	0.79632
954.63939	0.79056
952.71083	0.77803
950.78226	0.76055
948.85370	0.74207
946.92513	0.72598
944.99657	0.71357
943.06801	0.70444
941.13944	0.69819
939.21088	0.69484
937.28231	0.69413
935.35375	0.69540
933.42518	0.69830
931.49662	0.70288
929.56805	0.70901
927.63949	0.71648
925.71093	0.72544
923.78236	0.73564
921.85380	0.74553
919.92523	0.75339
917.99667	0.75863
916.06810	0.76170
914.13954	0.76301
912.21098	0.76247
910.28241	0.76036
908.35385	0.75736
906.42528	0.75364
904.49672	0.74939
902.56815	0.74523
900.63959	0.74123
898.71102	0.73696
896.78246	0.73243
894.85390	0.72824
892.92533	0.72506
890.99677	0.72348
889.06820	0.72396
887.13964	0.72661
885.21107	0.73143
883.28251	0.73881
881.35394	0.74852
879.42538	0.75980
877.49682	0.77219
875.56825	0.78513
873.63969	0.79764
871.71112	0.80927
869.78256	0.81996
867.85399	0.82906
865.92543	0.83584
863.99686	0.84013
862.06830	0.84192
860.13974	0.84147
858.21117	0.83919
856.28261	0.83520
854.35404	0.82975
852.42548	0.82356
850.49691	0.81733
848.56835	0.81160
846.63978	0.80703
844.71122	0.80416
842.78266	0.80352
840.85409	0.80540
838.92553	0.80938
836.99696	0.81476
835.06840	0.82133
833.13983	0.82953
831.21127	0.83984
829.28270	0.85165
827.35414	0.86368
825.42558	0.87535
823.49701	0.88614
821.56845	0.89557
819.63988	0.90379
817.71132	0.91100
815.78275	0.91618
813.85419	0.91785
811.92562	0.91613
809.99706	0.91169
808.06850	0.90476
806.13993	0.89631
804.21137	0.88779
802.28280	0.88014
800.35424	0.87362
798.42567	0.86838
796.49711	0.86457
794.56854	0.86278
792.63998	0.86382
790.71142	0.86759
788.78285	0.87400
786.85429	0.88343
784.92572	0.89573
782.99716	0.91035
781.06859	0.92620
779.14003	0.94207
777.21147	0.95813
775.28290	0.97449
773.35434	0.98979
771.42577	1.00320
769.49721	1.01451
767.56864	1.02305
765.64008	1.02876
763.71151	1.03241
761.78295	1.03380
759.85439	1.03235
757.92582	1.02920
755.99726	1.02523
754.06869	1.01960
752.14013	1.01265
750.21156	1.00656
748.28300	1.00263
746.35443	1.00075
744.42587	1.00077
742.49731	1.00231
740.56874	1.00474
738.64018	1.00872
736.71161	1.01559
734.78305	1.02612
732.85448	1.03999
730.92592	1.05498
728.99735	1.06836
727.06879	1.08022
725.14023	1.09235
723.21166	1.10441
721.28310	1.11460
719.35453	1.12170
717.42597	1.12507
715.49740	1.12518
713.56884	1.12235
711.64027	1.11665
709.71171	1.11027
707.78315	1.10482
705.85458	1.09851
703.92602	1.09062
701.99745	1.08311
700.06889	1.07650
698.14032	1.06995
696.21176	1.06423
694.28319	1.06008
692.35463	1.05702
690.42607	1.05609
688.49750	1.05857
686.56894	1.06271
684.64037	1.06604
682.71181	1.06961
680.78324	1.07596
678.85468	1.08454
676.92611	1.09236
674.99755	1.09796
673.06899	1.10127
671.14042	1.10245
669.21186	1.10625
667.28329	1.11802
665.35473	1.12666
663.42616	1.13026
661.49760	1.13056
659.56903	1.12886
657.64047	1.12732
655.71191	1.12579
653.78334	1.12580
651.85478	1.12778
649.92621	1.12746
647.99765	1.12475
646.06908	1.12475
644.14052	1.12908
642.21195	1.13570
640.28339	1.14175
638.35483	1.14624
636.42626	1.15161
634.49770	1.15930
632.56913	1.16811
630.64057	1.17601
628.71200	1.18118
626.78344	1.18540
624.85488	1.19057
622.92631	1.19365
620.99775	1.19351
619.06918	1.19459
617.14062	1.19813
615.21205	1.19908
613.28349	1.19499
611.35492	1.18769
609.42636	1.17933
607.49780	1.17304
605.56923	1.16987
603.64067	1.16726
601.71210	1.16598
599.78354	1.16586
