3997.91406	0.65570
3995.98550	0.65544
3994.05693	0.65449
3992.12837	0.65326
3990.19980	0.65292
3988.27124	0.65306
3986.34268	0.65267
3984.41411	0.65201
3982.48555	0.65133
3980.55698	0.65085
3978.62842	0.65178
3976.69985	0.65413
3974.77129	0.65587
3972.84272	0.65593
3970.91416	0.65570
3968.98560	0.65632
3967.05703	0.65689
3965.12847	0.65631
3963.19990	0.65497
3961.27134	0.65379
3959.34277	0.65316
3957.41421	0.65313
3955.48564	0.65332
3953.55708	0.65339
3951.62852	0.65384
3949.69995	0.65451
3947.77139	0.65435
3945.84282	0.65356
3943.91426	0.65261
3941.98569	0.65118
3940.05713	0.64987
3938.12856	0.64945
3936.20000	0.64930
3934.27144	0.64839
3932.34287	0.64752
3930.41431	0.64821
3928.48574	0.65003
3926.55718	0.65130
3924.62861	0.65023
3922.70005	0.64826
3920.77148	0.64826
3918.84292	0.64893
3916.91436	0.64807
3914.98579	0.64676
3913.05723	0.64648
3911.12866	0.64707
3909.20010	0.64767
3907.27153	0.64788
3905.34297	0.64769
3903.41440	0.64732
3901.48584	0.64773
3899.55728	0.64813
3897.62871	0.64758
3895.70015	0.64714
3893.77158	0.64744
3891.84302	0.64779
3889.91445	0.64802
3887.98589	0.64903
3886.05733	0.64968
3884.12876	0.64869
3882.20020	0.64709
3880.27163	0.64439
3878.34307	0.64192
3876.41450	0.64095
3874.48594	0.64090
3872.55737	0.64090
3870.62881	0.63909
3868.70025	0.63767
3866.77168	0.63873
3864.84312	0.63948
3862.91455	0.63927
3860.98599	0.63967
3859.05742	0.64034
3857.12886	0.64058
3855.20029	0.63943
3853.27173	0.63643
3851.34317	0.63504
3849.41460	0.63552
3847.48604	0.63693
3845.55747	0.63824
3843.62891	0.63793
3841.70034	0.63645
3839.77178	0.63552
3837.84321	0.63476
3835.91465	0.63418
3833.98609	0.63444
3832.05752	0.63476
3830.12896	0.63524
3828.20039	0.63617
3826.27183	0.63691
3824.34326	0.63762
3822.41470	0.63739
3820.48613	0.63451
3818.55757	0.63335
3816.62901	0.63396
3814.70044	0.63310
3812.77188	0.63155
3810.84331	0.63041
3808.91475	0.62959
3806.98618	0.62887
3805.05762	0.62917
3803.12905	0.63029
3801.20049	0.63124
3799.27193	0.63218
3797.34336	0.63159
3795.41480	0.62892
3793.48623	0.62683
3791.55767	0.62617
3789.62910	0.62590
3787.70054	0.62516
3785.77197	0.62411
3783.84341	0.62352
3781.91485	0.62331
3779.98628	0.62262
3778.05772	0.62173
3776.12915	0.62182
3774.20059	0.62306
3772.27202	0.62490
3770.34346	0.62613
3768.41489	0.62605
3766.48633	0.62490
3764.55777	0.62314
3762.62920	0.62258
3760.70064	0.62394
3758.77207	0.62565
3756.84351	0.62551
3754.91494	0.62470
3752.98638	0.62535
3751.05781	0.62684
3749.12925	0.62644
3747.20069	0.62606
3745.27212	0.62505
3743.34356	0.62356
3741.41499	0.62480
3739.48643	0.62736
3737.55786	0.62928
3735.62930	0.63005
3733.70074	0.62935
3731.77217	0.62760
3729.84361	0.62641
3727.91504	0.62629
3725.98648	0.62716
3724.05791	0.62799
3722.12935	0.62646
3720.20078	0.62359
3718.27222	0.62238
3716.34366	0.62266
3714.41509	0.62314
3712.48653	0.62362
3710.55796	0.62437
3708.62940	0.62497
3706.70083	0.62542
3704.77227	0.62609
3702.84370	0.62748
3700.91514	0.62982
3698.98658	0.63182
3697.05801	0.63310
3695.12945	0.63452
3693.20088	0.63738
3691.27232	0.64252
3689.34375	0.64683
3687.41519	0.64787
3685.48662	0.64915
3683.55806	0.65110
3681.62950	0.65334
3679.70093	0.65577
3677.77237	0.65758
3675.84380	0.66202
3673.91524	0.67085
3671.98667	0.67713
3670.05811	0.68199
3668.12954	0.68688
3666.20098	0.69159
3664.27242	0.69683
3662.34385	0.70255
3660.41529	0.70833
3658.48672	0.71355
3656.55816	0.71896
3654.62959	0.72519
3652.70103	0.73138
3650.77246	0.73883
3648.84390	0.74999
3646.91534	0.75951
3644.98677	0.76511
3643.05821	0.76976
3641.12964	0.77514
3639.20108	0.78103
3637.27251	0.78634
3635.34395	0.79222
3633.41538	0.80020
3631.48682	0.80907
3629.55826	0.82064
3627.62969	0.83366
3625.70113	0.84196
3623.77256	0.84907
3621.84400	0.85705
3619.91543	0.86568
3617.98687	0.87332
3616.05830	0.87994
3614.12974	0.88737
3612.20118	0.89734
3610.27261	0.91000
3608.34405	0.92361
3606.41548	0.93395
3604.48692	0.94017
3602.55835	0.94704
3600.62979	0.95740
3598.70123	0.96703
3596.77266	0.97194
3594.84410	0.97592
3592.91553	0.98258
3590.98697	0.99053
3589.05840	1.00152
3587.12984	1.01570
3585.20127	1.02592
3583.27271	1.03285
3581.34415	1.03894
3579.41558	1.04478
3577.48702	1.05100
3575.55845	1.05745
3573.62989	1.06425
3571.70132	1.07202
3569.77276	1.07993
3567.84419	1.08920
3565.91563	1.10140
3563.98707	1.11197
3562.05850	1.12153
3560.12994	1.13071
3558.20137	1.13771
3556.27281	1.14416
3554.34424	1.15276
3552.41568	1.16087
3550.48711	1.16675
3548.55855	1.17533
3546.62999	1.18614
3544.70142	1.19472
3542.77286	1.20269
3540.84429	1.21278
3538.91573	1.22409
3536.98716	1.23346
3535.05860	1.24031
3533.13003	1.24637
3531.20147	1.25110
3529.27291	1.25560
3527.34434	1.26364
3525.41578	1.27379
3523.48721	1.28276
3521.55865	1.28961
3519.63008	1.29493
3517.70152	1.30284
3515.77295	1.31306
3513.84439	1.32062
3511.91583	1.32585
3509.98726	1.33364
3508.05870	1.34442
3506.13013	1.35253
3504.20157	1.35813
3502.27300	1.36758
3500.34444	1.38086
3498.41587	1.39156
3496.48731	1.39801
3494.55875	1.40555
3492.63018	1.41692
3490.70162	1.42547
3488.77305	1.42577
3486.84449	1.42719
3484.91592	1.43791
3482.98736	1.45101
3481.05879	1.45684
3479.13023	1.45621
3477.20167	1.45868
3475.27310	1.46823
3473.34454	1.47909
3471.41597	1.48339
3469.48741	1.48185
3467.55884	1.48023
3465.63028	1.48017
3463.70171	1.48169
3461.77315	1.48398
3459.84459	1.48966
3457.91602	1.50069
3455.98746	1.50819
3454.05889	1.50720
3452.13033	1.50358
3450.20176	1.50257
3448.27320	1.50774
3446.34464	1.51536
3444.41607	1.51516
3442.48751	1.51291
3440.55894	1.51834
3438.63038	1.52480
3436.70181	1.52528
3434.77325	1.52070
3432.84468	1.51485
3430.91612	1.51376
3428.98756	1.51678
3427.05899	1.51921
3425.13043	1.52326
3423.20186	1.53077
3421.27330	1.53352
3419.34473	1.52558
3417.41617	1.51870
3415.48760	1.52267
3413.55904	1.52949
3411.63048	1.53121
3409.70191	1.53237
3407.77335	1.53407
3405.84478	1.53314
3403.91622	1.53225
3401.98765	1.53379
3400.05909	1.53704
3398.13052	1.54379
3396.20196	1.55462
3394.27340	1.56190
3392.34483	1.55787
3390.41627	1.54757
3388.48770	1.53929
3386.55914	1.53617
3384.63057	1.54017
3382.70201	1.54503
3380.77344	1.54354
3378.84488	1.54217
3376.91632	1.54265
3374.98775	1.53795
3373.05919	1.53212
3371.13062	1.53125
3369.20206	1.53425
3367.27349	1.54099
3365.34493	1.54967
3363.41636	1.55885
3361.48780	1.56863
3359.55924	1.57109
3357.63067	1.56317
3355.70211	1.55791
3353.77354	1.56069
3351.84498	1.55890
3349.91641	1.55013
3347.98785	1.54808
3346.05928	1.55587
3344.13072	1.56390
3342.20216	1.56436
3340.27359	1.55963
3338.34503	1.55981
3336.41646	1.56810
3334.48790	1.57573
3332.55933	1.57633
3330.63077	1.57593
3328.70220	1.58080
3326.77364	1.58977
3324.84508	1.59721
3322.91651	1.59484
3320.98795	1.58776
3319.05938	1.58654
3317.13082	1.58416
3315.20225	1.57683
3313.27369	1.57225
3311.34513	1.57156
3309.41656	1.57587
3307.48800	1.58796
3305.55943	1.59951
3303.63087	1.60024
3301.70230	1.59549
3299.77374	1.59210
3297.84517	1.58807
3295.91661	1.58685
3293.98805	1.59218
3292.05948	1.59871
3290.13092	1.59924
3288.20235	1.59420
3286.27379	1.59195
3284.34522	1.59333
3282.41666	1.59106
3280.48809	1.58729
3278.55953	1.58674
3276.63097	1.58700
3274.70240	1.58752
3272.77384	1.58898
3270.84527	1.59143
3268.91671	1.59525
3266.98814	1.59661
3265.05958	1.59310
3263.13101	1.58699
3261.20245	1.58161
3259.27389	1.58057
3257.34532	1.58055
3255.41676	1.57326
3253.48819	1.56218
3251.55963	1.55720
3249.63106	1.55788
3247.70250	1.55781
3245.77393	1.55114
3243.84537	1.53942
3241.91681	1.53230
3239.98824	1.53144
3238.05968	1.53038
3236.13111	1.52567
3234.20255	1.51815
3232.27398	1.51121
3230.34542	1.50792
3228.41685	1.50652
3226.48829	1.50254
3224.55973	1.49584
3222.63116	1.49005
3220.70260	1.48594
3218.77403	1.47980
3216.84547	1.47279
3214.91690	1.47231
3212.98834	1.47699
3211.05977	1.47639
3209.13121	1.46789
3207.20265	1.45781
3205.27408	1.45117
3203.34552	1.44862
3201.41695	1.44624
3199.48839	1.44191
3197.55982	1.43776
3195.63126	1.43282
3193.70269	1.42748
3191.77413	1.42357
3189.84557	1.41857
3187.91700	1.41303
3185.98844	1.41077
3184.05987	1.40977
3182.13131	1.40337
3180.20274	1.39199
3178.27418	1.38428
3176.34562	1.38372
3174.41705	1.38428
3172.48849	1.37934
3170.55992	1.37017
3168.63136	1.36266
3166.70279	1.35776
3164.77423	1.35469
3162.84566	1.35421
3160.91710	1.35246
3158.98854	1.34623
3157.05997	1.33907
3155.13141	1.33338
3153.20284	1.32923
3151.27428	1.32702
3149.34571	1.32507
3147.41715	1.32182
3145.48858	1.31873
3143.56002	1.31719
3141.63146	1.31661
3139.70289	1.31652
3137.77433	1.31618
3135.84576	1.31358
3133.91720	1.30916
3131.98863	1.30725
3130.06007	1.31012
3128.13150	1.31340
3126.20294	1.31193
3124.27438	1.30799
3122.34581	1.30756
3120.41725	1.31012
3118.48868	1.31104
3116.56012	1.31030
3114.63155	1.30921
3112.70299	1.30689
3110.77442	1.30382
3108.84586	1.30213
3106.91730	1.30340
3104.98873	1.30528
3103.06017	1.30495
3101.13160	1.30310
3099.20304	1.30048
3097.27447	1.29841
3095.34591	1.29764
3093.41734	1.29567
3091.48878	1.29277
3089.56022	1.29228
3087.63165	1.29302
3085.70309	1.29204
3083.77452	1.29101
3081.84596	1.29074
3079.91739	1.28796
3077.98883	1.28366
3076.06026	1.28293
3074.13170	1.28431
3072.20314	1.28129
3070.27457	1.27489
3068.34601	1.27177
3066.41744	1.27105
3064.48888	1.26712
3062.56031	1.26070
3060.63175	1.25520
3058.70318	1.25074
3056.77462	1.24593
3054.84606	1.24033
3052.91749	1.23481
3050.98893	1.22871
3049.06036	1.22104
3047.13180	1.21517
3045.20323	1.21376
3043.27467	1.21224
3041.34610	1.20629
3039.41754	1.19988
3037.48898	1.19647
3035.56041	1.19351
3033.63185	1.18963
3031.70328	1.18501
3029.77472	1.17976
3027.84615	1.17508
3025.91759	1.17118
3023.98903	1.16803
3022.06046	1.16609
3020.13190	1.16526
3018.20333	1.16367
3016.27477	1.15911
3014.34620	1.15378
3012.41764	1.15118
3010.48907	1.14959
3008.56051	1.14688
3006.63195	1.14432
3004.70338	1.14168
3002.77482	1.13811
3000.84625	1.13492
2998.91769	1.13246
2996.98912	1.13155
2995.06056	1.13475
2993.13199	1.14036
2991.20343	1.14415
2989.27487	1.14686
2987.34630	1.15040
2985.41774	1.15394
2983.48917	1.15796
2981.56061	1.16391
2979.63204	1.17188
2977.70348	1.18138
2975.77491	1.19100
2973.84635	1.19979
2971.91779	1.20879
2969.98922	1.21871
2968.06066	1.22804
2966.13209	1.23551
2964.20353	1.24218
2962.27496	1.24744
2960.34640	1.24874
2958.41783	1.24697
2956.48927	1.24327
2954.56071	1.23654
2952.63214	1.22854
2950.70358	1.22293
2948.77501	1.22170
2946.84645	1.22465
2944.91788	1.22920
2942.98932	1.23338
2941.06075	1.23885
2939.13219	1.24690
2937.20363	1.25576
2935.27506	1.26455
2933.34650	1.27413
2931.41793	1.28405
2929.48937	1.29282
2927.56080	1.29981
2925.63224	1.30497
2923.70367	1.30808
2921.77511	1.30906
2919.84655	1.30683
2917.91798	1.29900
2915.98942	1.28452
2914.06085	1.26535
2912.13229	1.24426
2910.20372	1.22403
2908.27516	1.20775
2906.34659	1.19541
2904.41803	1.18454
2902.48947	1.17538
2900.56090	1.16939
2898.63234	1.16577
2896.70377	1.16304
2894.77521	1.16006
2892.84664	1.15540
2890.91808	1.14883
2888.98952	1.14264
2887.06095	1.13894
2885.13239	1.13658
2883.20382	1.13477
2881.27526	1.13516
2879.34669	1.13713
2877.41813	1.13808
2875.48956	1.13662
2873.56100	1.13219
2871.63244	1.12582
2869.70387	1.11890
2867.77531	1.11103
2865.84674	1.10269
2863.91818	1.09613
2861.98961	1.09296
2860.06105	1.09402
2858.13248	1.09903
2856.20392	1.10572
2854.27536	1.11206
2852.34679	1.11696
2850.41823	1.11692
2848.48966	1.10562
2846.56110	1.08211
2844.63253	1.05519
2842.70397	1.03302
2840.77540	1.01669
2838.84684	1.00489
2836.91828	0.99673
2834.98971	0.99046
2833.06115	0.98446
2831.13258	0.97873
2829.20402	0.97360
2827.27545	0.96900
2825.34689	0.96491
2823.41832	0.96095
2821.48976	0.95665
2819.56120	0.95200
2817.63263	0.94741
2815.70407	0.94297
2813.77550	0.93846
2811.84694	0.93432
2809.91837	0.93067
2807.98981	0.92660
2806.06124	0.92178
2804.13268	0.91717
2802.20412	0.91349
2800.27555	0.91032
2798.34699	0.90733
2796.41842	0.90478
2794.48986	0.90224
2792.56129	0.89929
2790.63273	0.89670
2788.70416	0.89503
2786.77560	0.89392
2784.84704	0.89291
2782.91847	0.89141
2780.98991	0.88953
2779.06134	0.88804
2777.13278	0.88699
2775.20421	0.88618
2773.27565	0.88587
2771.34708	0.88593
2769.41852	0.88548
2767.48996	0.88434
2765.56139	0.88339
2763.63283	0.88240
2761.70426	0.88028
2759.77570	0.87725
2757.84713	0.87443
2755.91857	0.87190
2753.99001	0.86919
2752.06144	0.86614
2750.13288	0.86264
2748.20431	0.85892
2746.27575	0.85550
2744.34718	0.85234
2742.41862	0.84893
2740.49005	0.84520
2738.56149	0.84170
2736.63293	0.83882
2734.70436	0.83612
2732.77580	0.83305
2730.84723	0.82967
2728.91867	0.82626
2726.99010	0.82302
2725.06154	0.82040
2723.13297	0.81839
2721.20441	0.81616
2719.27585	0.81350
2717.34728	0.81099
2715.41872	0.80885
2713.49015	0.80729
2711.56159	0.80615
2709.63302	0.80490
2707.70446	0.80353
2705.77589	0.80206
2703.84733	0.80025
2701.91877	0.79821
2699.99020	0.79605
2698.06164	0.79416
2696.13307	0.79289
2694.20451	0.79115
2692.27594	0.78818
2690.34738	0.78508
2688.41881	0.78265
2686.49025	0.78026
2684.56169	0.77754
2682.63312	0.77489
2680.70456	0.77197
2678.77599	0.76827
2676.84743	0.76481
2674.91886	0.76228
2672.99030	0.76006
2671.06173	0.75798
2669.13317	0.75639
2667.20461	0.75505
2665.27604	0.75343
2663.34748	0.75151
2661.41891	0.74966
2659.49035	0.74837
2657.56178	0.74791
2655.63322	0.74803
2653.70465	0.74824
2651.77609	0.74821
2649.84753	0.74807
2647.91896	0.74823
2645.99040	0.74868
2644.06183	0.74940
2642.13327	0.75026
2640.20470	0.75084
2638.27614	0.75153
2636.34757	0.75252
2634.41901	0.75275
2632.49045	0.75208
2630.56188	0.75153
2628.63332	0.75117
2626.70475	0.75059
2624.77619	0.74994
2622.84762	0.74917
2620.91906	0.74757
2618.99049	0.74549
2617.06193	0.74429
2615.13337	0.74382
2613.20480	0.74303
2611.27624	0.74195
2609.34767	0.74099
2607.41911	0.74002
2605.49054	0.73877
2603.56198	0.73746
2601.63342	0.73633
2599.70485	0.73536
2597.77629	0.73473
2595.84772	0.73440
2593.91916	0.73399
2591.99059	0.73342
2590.06203	0.73302
2588.13346	0.73304
2586.20490	0.73341
2584.27634	0.73377
2582.34777	0.73388
2580.41921	0.73363
2578.49064	0.73300
2576.56208	0.73226
2574.63351	0.73167
2572.70495	0.73116
2570.77638	0.73050
2568.84782	0.72936
2566.91926	0.72781
2564.99069	0.72613
2563.06213	0.72405
2561.13356	0.72159
2559.20500	0.71925
2557.27643	0.71718
2555.34787	0.71489
2553.41930	0.71191
2551.49074	0.70858
2549.56218	0.70547
2547.63361	0.70269
2545.70505	0.70008
2543.77648	0.69725
2541.84792	0.69434
2539.91935	0.69177
2537.99079	0.68929
2536.06222	0.68674
2534.13366	0.68450
2532.20510	0.68268
2530.27653	0.68085
2528.34797	0.67879
2526.41940	0.67682
2524.49084	0.67496
2522.56227	0.67311
2520.63371	0.67138
2518.70514	0.66963
2516.77658	0.66791
2514.84802	0.66632
2512.91945	0.66449
2510.99089	0.66248
2509.06232	0.66074
2507.13376	0.65912
2505.20519	0.65711
2503.27663	0.65455
2501.34806	0.65190
2499.41950	0.64972
2497.49094	0.64779
2495.56237	0.64584
2493.63381	0.64387
2491.70524	0.64188
2489.77668	0.64004
2487.84811	0.63830
2485.91955	0.63646
2483.99098	0.63475
2482.06242	0.63344
2480.13386	0.63224
2478.20529	0.63114
2476.27673	0.63055
2474.34816	0.63025
2472.41960	0.62984
2470.49103	0.62953
2468.56247	0.62941
2466.63391	0.62911
2464.70534	0.62849
2462.77678	0.62792
2460.84821	0.62771
2458.91965	0.62792
2456.99108	0.62833
2455.06252	0.62875
2453.13395	0.62905
2451.20539	0.62907
2449.27683	0.62893
2447.34826	0.62897
2445.41970	0.62924
2443.49113	0.62959
2441.56257	0.62978
2439.63400	0.62967
2437.70544	0.62963
2435.77687	0.62991
2433.84831	0.63010
2431.91975	0.63008
2429.99118	0.63046
2428.06262	0.63120
2426.13405	0.63174
2424.20549	0.63229
2422.27692	0.63286
2420.34836	0.63311
2418.41979	0.63322
2416.49123	0.63334
2414.56267	0.63358
2412.63410	0.63396
2410.70554	0.63417
2408.77697	0.63427
2406.84841	0.63460
2404.91984	0.63516
2402.99128	0.63566
2401.06271	0.63572
2399.13415	0.63526
2397.20559	0.63463
2395.27702	0.63420
2393.34846	0.63392
2391.41989	0.63345
2389.49133	0.63268
2387.56276	0.63211
2385.63420	0.63189
2383.70563	0.63168
2381.77707	0.63141
2379.84851	0.63137
2377.91994	0.63180
2375.99138	0.63239
2374.06281	0.63228
2372.13425	0.63100
2370.20568	0.62953
2368.27712	0.62929
2366.34855	0.62960
2364.41999	0.62871
2362.49143	0.62723
2360.56286	0.62746
2358.63430	0.62741
2356.70573	0.62274
2354.77717	0.61641
2352.84860	0.61191
2350.92004	0.60935
2348.99147	0.60850
2347.06291	0.60791
2345.13435	0.60542
2343.20578	0.60138
2341.27722	0.59815
2339.34865	0.59567
2337.42009	0.59381
2335.49152	0.59235
2333.56296	0.59097
2331.63440	0.58985
2329.70583	0.58848
2327.77727	0.58586
2325.84870	0.58288
2323.92014	0.58083
2321.99157	0.57927
2320.06301	0.57742
2318.13444	0.57525
2316.20588	0.57297
2314.27732	0.57082
2312.34875	0.56904
2310.42019	0.56754
2308.49162	0.56609
2306.56306	0.56490
2304.63449	0.56416
2302.70593	0.56373
2300.77736	0.56323
2298.84880	0.56267
2296.92024	0.56242
2294.99167	0.56242
2293.06311	0.56240
2291.13454	0.56241
2289.20598	0.56253
2287.27741	0.56256
2285.34885	0.56244
2283.42028	0.56236
2281.49172	0.56240
2279.56316	0.56269
2277.63459	0.56330
2275.70603	0.56406
2273.77746	0.56467
2271.84890	0.56518
2269.92033	0.56587
2267.99177	0.56676
2266.06320	0.56769
2264.13464	0.56862
2262.20608	0.56949
2260.27751	0.57041
2258.34895	0.57153
2256.42038	0.57275
2254.49182	0.57387
2252.56325	0.57494
2250.63469	0.57623
2248.70612	0.57777
2246.77756	0.57926
2244.84900	0.58061
2242.92043	0.58206
2240.99187	0.58373
2239.06330	0.58536
2237.13474	0.58690
2235.20617	0.58867
2233.27761	0.59058
2231.34904	0.59216
2229.42048	0.59344
2227.49192	0.59500
2225.56335	0.59688
2223.63479	0.59852
2221.70622	0.59964
2219.77766	0.60040
2217.84909	0.60106
2215.92053	0.60191
2213.99196	0.60276
2212.06340	0.60321
2210.13484	0.60329
2208.20627	0.60320
2206.27771	0.60281
2204.34914	0.60199
2202.42058	0.60108
2200.49201	0.60029
2198.56345	0.59958
2196.63488	0.59887
2194.70632	0.59796
2192.77776	0.59677
2190.84919	0.59536
2188.92063	0.59390
2186.99206	0.59249
2185.06350	0.59109
2183.13493	0.58974
2181.20637	0.58852
2179.27781	0.58731
2177.34924	0.58604
2175.42068	0.58467
2173.49211	0.58307
2171.56355	0.58149
2169.63498	0.58020
2167.70642	0.57881
2165.77785	0.57711
2163.84929	0.57544
2161.92073	0.57411
2159.99216	0.57287
2158.06360	0.57144
2156.13503	0.56993
2154.20647	0.56843
2152.27790	0.56685
2150.34934	0.56516
2148.42077	0.56354
2146.49221	0.56203
2144.56365	0.56024
2142.63508	0.55821
2140.70652	0.55642
2138.77795	0.55486
2136.84939	0.55315
2134.92082	0.55133
2132.99226	0.54962
2131.06369	0.54802
2129.13513	0.54636
2127.20657	0.54465
2125.27800	0.54309
2123.34944	0.54176
2121.42087	0.54064
2119.49231	0.53974
2117.56374	0.53903
2115.63518	0.53853
2113.70661	0.53816
2111.77805	0.53780
2109.84949	0.53749
2107.92092	0.53738
2105.99236	0.53749
2104.06379	0.53768
2102.13523	0.53776
2100.20666	0.53798
2098.27810	0.53857
2096.34953	0.53932
2094.42097	0.53998
2092.49241	0.54054
2090.56384	0.54112
2088.63528	0.54180
2086.70671	0.54259
2084.77815	0.54346
2082.84958	0.54426
2080.92102	0.54486
2078.99245	0.54534
2077.06389	0.54578
2075.13533	0.54626
2073.20676	0.54686
2071.27820	0.54749
2069.34963	0.54810
2067.42107	0.54873
2065.49250	0.54914
2063.56394	0.54927
2061.63537	0.54945
2059.70681	0.54980
2057.77825	0.55017
2055.84968	0.55066
2053.92112	0.55130
2051.99255	0.55198
2050.06399	0.55272
2048.13542	0.55346
2046.20686	0.55424
2044.27830	0.55529
2042.34973	0.55649
2040.42117	0.55760
2038.49260	0.55860
2036.56404	0.55955
2034.63547	0.56054
2032.70691	0.56159
2030.77834	0.56245
2028.84978	0.56291
2026.92122	0.56322
2024.99265	0.56364
2023.06409	0.56403
2021.13552	0.56408
2019.20696	0.56386
2017.27839	0.56356
2015.34983	0.56316
2013.42126	0.56265
2011.49270	0.56200
2009.56414	0.56124
2007.63557	0.56033
2005.70701	0.55899
2003.77844	0.55704
2001.84988	0.55473
1999.92131	0.55235
1997.99275	0.54985
1996.06418	0.54720
1994.13562	0.54447
1992.20706	0.54164
1990.27849	0.53867
1988.34993	0.53557
1986.42136	0.53241
1984.49280	0.52936
1982.56423	0.52652
1980.63567	0.52392
1978.70710	0.52139
1976.77854	0.51892
1974.84998	0.51660
1972.92141	0.51450
1970.99285	0.51269
1969.06428	0.51103
1967.13572	0.50932
1965.20715	0.50777
1963.27859	0.50646
1961.35002	0.50518
1959.42146	0.50399
1957.49290	0.50292
1955.56433	0.50183
1953.63577	0.50069
1951.70720	0.49955
1949.77864	0.49855
1947.85007	0.49782
1945.92151	0.49715
1943.99294	0.49624
1942.06438	0.49500
1940.13582	0.49379
1938.20725	0.49282
1936.27869	0.49192
1934.35012	0.49098
1932.42156	0.49006
1930.49299	0.48937
1928.56443	0.48891
1926.63586	0.48850
1924.70730	0.48823
1922.77874	0.48813
1920.85017	0.48792
1918.92161	0.48757
1916.99304	0.48743
1915.06448	0.48781
1913.13591	0.48856
1911.20735	0.48961
1909.27878	0.49093
1907.35022	0.49226
1905.42166	0.49376
1903.49309	0.49561
1901.56453	0.49769
1899.63596	0.49974
1897.70740	0.50174
1895.77883	0.50385
1893.85027	0.50588
1891.92171	0.50788
1889.99314	0.51020
1888.06458	0.51250
1886.13601	0.51436
1884.20745	0.51620
1882.27888	0.51825
1880.35032	0.52005
1878.42175	0.52130
1876.49319	0.52218
1874.56463	0.52294
1872.63606	0.52375
1870.70750	0.52465
1868.77893	0.52534
1866.85037	0.52532
1864.92180	0.52482
1862.99324	0.52413
1861.06467	0.52334
1859.13611	0.52264
1857.20755	0.52201
1855.27898	0.52144
1853.35042	0.52098
1851.42185	0.52064
1849.49329	0.52037
1847.56472	0.52025
1845.63616	0.52054
1843.70759	0.52118
1841.77903	0.52185
1839.85047	0.52264
1837.92190	0.52383
1835.99334	0.52533
1834.06477	0.52684
1832.13621	0.52847
1830.20764	0.53044
1828.27908	0.53247
1826.35051	0.53421
1824.42195	0.53547
1822.49339	0.53593
1820.56482	0.53610
1818.63626	0.53649
1816.70769	0.53693
1814.77913	0.53730
1812.85056	0.53740
1810.92200	0.53685
1808.99343	0.53589
1807.06487	0.53495
1805.13631	0.53400
1803.20774	0.53304
1801.27918	0.53222
1799.35061	0.53137
1797.42205	0.53056
1795.49348	0.53000
1793.56492	0.52946
1791.63635	0.52860
1789.70779	0.52810
1787.77923	0.52849
1785.85066	0.52931
1783.92210	0.53036
1781.99353	0.53193
1780.06497	0.53395
1778.13640	0.53615
1776.20784	0.53848
1774.27927	0.54130
1772.35071	0.54507
1770.42215	0.54883
1768.49358	0.55180
1766.56502	0.55465
1764.63645	0.55780
1762.70789	0.56170
1760.77932	0.56606
1758.85076	0.57032
1756.92220	0.57573
1754.99363	0.58163
1753.06507	0.58754
1751.13650	0.59605
1749.20794	0.60731
1747.27937	0.61690
1745.35081	0.62454
1743.42224	0.63165
1741.49368	0.63834
1739.56512	0.64431
1737.63655	0.64841
1735.70799	0.65157
1733.77942	0.65651
1731.85086	0.66129
1729.92229	0.66521
1727.99373	0.67007
1726.06516	0.67609
1724.13660	0.68382
1722.20804	0.69176
1720.27947	0.69904
1718.35091	0.71023
1716.42234	0.72918
1714.49378	0.74517
1712.56521	0.75813
1710.63665	0.77297
1708.70808	0.79075
1706.77952	0.81592
1704.85096	0.84958
1702.92239	0.88123
1700.99383	0.92359
1699.06526	0.98932
1697.13670	1.05196
1695.20813	1.11380
1693.27957	1.15977
1691.35100	1.19572
1689.42244	1.23695
1687.49388	1.27209
1685.56531	1.30417
1683.63675	1.35291
1681.70818	1.38548
1679.77962	1.39975
1677.85105	1.41100
1675.92249	1.42462
1673.99392	1.44087
1672.06536	1.45389
1670.13680	1.46308
1668.20823	1.46852
1666.27967	1.46870
1664.35110	1.46852
1662.42254	1.47082
1660.49397	1.47269
1658.56541	1.47119
1656.63684	1.46646
1654.70828	1.46286
1652.77972	1.46345
1650.85115	1.46331
1648.92259	1.46309
1646.99402	1.46095
1645.06546	1.45406
1643.13689	1.44786
1641.20833	1.44485
1639.27976	1.44295
1637.35120	1.43973
1635.42264	1.43308
1633.49407	1.42711
1631.56551	1.42285
1629.63694	1.41663
1627.70838	1.40869
1625.77981	1.40029
1623.85125	1.38941
1621.92269	1.37738
1619.99412	1.36861
1618.06556	1.35813
1616.13699	1.33917
1614.20843	1.32191
1612.27986	1.30802
1610.35130	1.29306
1608.42273	1.27733
1606.49417	1.26329
1604.56561	1.25206
1602.63704	1.24264
1600.70848	1.23482
1598.77991	1.22853
1596.85135	1.22358
1594.92278	1.22041
1592.99422	1.21914
1591.06565	1.21910
1589.13709	1.22114
1587.20853	1.22668
1585.27996	1.23453
1583.35140	1.24378
1581.42283	1.25414
1579.49427	1.26410
1577.56570	1.27526
1575.63714	1.29039
1573.70857	1.30201
1571.78001	1.31107
1569.85145	1.32468
1567.92288	1.33856
1565.99432	1.34715
1564.06575	1.35459
1562.13719	1.36099
1560.20862	1.37029
1558.28006	1.38627
1556.35149	1.38781
1554.42293	1.38580
1552.49437	1.38506
1550.56580	1.38348
1548.63724	1.37981
1546.70867	1.37570
1544.78011	1.37148
1542.85154	1.36653
1540.92298	1.35956
1538.99441	1.35189
1537.06585	1.34834
1535.13729	1.34444
1533.20872	1.33820
1531.28016	1.33238
1529.35159	1.32877
1527.42303	1.32531
1525.49446	1.32030
1523.56590	1.31471
1521.63733	1.30780
1519.70877	1.30054
1517.78021	1.29054
1515.85164	1.27625
1513.92308	1.26289
1511.99451	1.25061
1510.06595	1.23778
1508.13738	1.21672
1506.20882	1.18101
1504.28025	1.16147
1502.35169	1.14881
1500.42313	1.13515
1498.49456	1.11829
1496.56600	1.09735
1494.63743	1.08057
1492.70887	1.06978
1490.78030	1.05919
1488.85174	1.04641
1486.92317	1.03778
1484.99461	1.03412
1483.06605	1.03326
1481.13748	1.03467
1479.20892	1.03840
1477.28035	1.04525
1475.35179	1.05651
1473.42322	1.07491
1471.49466	1.09523
1469.56610	1.10694
1467.63753	1.11474
1465.70897	1.12320
1463.78040	1.13120
1461.85184	1.13591
1459.92327	1.13934
1457.99471	1.14509
1456.06614	1.14975
1454.13758	1.14858
1452.20902	1.14557
1450.28045	1.14188
1448.35189	1.13747
1446.42332	1.13209
1444.49476	1.12597
1442.56619	1.11919
1440.63763	1.11272
1438.70906	1.10621
1436.78050	1.09592
1434.85194	1.08373
1432.92337	1.07474
1430.99481	1.06695
1429.06624	1.06030
1427.13768	1.05675
1425.20911	1.05593
1423.28055	1.05741
1421.35198	1.06059
1419.42342	1.06583
1417.49486	1.07193
1415.56629	1.07575
1413.63773	1.07848
1411.70916	1.08108
1409.78060	1.08356
1407.85203	1.08618
1405.92347	1.08982
1403.99490	1.09444
1402.06634	1.09868
1400.13778	1.10233
1398.20921	1.10475
1396.28065	1.10575
1394.35208	1.10691
1392.42352	1.10899
1390.49495	1.11182
1388.56639	1.11685
1386.63782	1.12547
1384.70926	1.13424
1382.78070	1.14089
1380.85213	1.14513
1378.92357	1.14512
1376.99500	1.13969
1375.06644	1.12820
1373.13787	1.11279
1371.20931	1.09830
1369.28074	1.08330
1367.35218	1.06729
1365.42362	1.05343
1363.49505	1.04092
1361.56649	1.02958
1359.63792	1.02241
1357.70936	1.01900
1355.78079	1.01771
1353.85223	1.01785
1351.92366	1.01901
1349.99510	1.02084
1348.06654	1.02309
1346.13797	1.02539
1344.20941	1.02794
1342.28084	1.03137
1340.35228	1.03601
1338.42371	1.04086
1336.49515	1.04535
1334.56659	1.05102
1332.63802	1.05850
1330.70946	1.06659
1328.78089	1.07312
1326.85233	1.07692
1324.92376	1.07873
1322.99520	1.07974
1321.06663	1.08064
1319.13807	1.08160
1317.20951	1.08191
1315.28094	1.08100
1313.35238	1.07955
1311.42381	1.07735
1309.49525	1.07354
1307.56668	1.06867
1305.63812	1.06367
1303.70955	1.05852
1301.78099	1.05287
1299.85243	1.04670
1297.92386	1.04015
1295.99530	1.03387
1294.06673	1.02880
1292.13817	1.02521
1290.20960	1.02306
1288.28104	1.02174
1286.35247	1.02095
1284.42391	1.02146
1282.49535	1.02318
1280.56678	1.02562
1278.63822	1.02886
1276.70965	1.03305
1274.78109	1.03855
1272.85252	1.04555
1270.92396	1.05344
1268.99539	1.06125
1267.06683	1.06848
1265.13827	1.07502
1263.20970	1.08067
1261.28114	1.08488
1259.35257	1.08690
1257.42401	1.08768
1255.49544	1.08911
1253.56688	1.09077
1251.63831	1.09110
1249.70975	1.09025
1247.78119	1.08880
1245.85262	1.08634
1243.92406	1.08256
1241.99549	1.07772
1240.06693	1.07197
1238.13836	1.06518
1236.20980	1.05715
1234.28123	1.04843
1232.35267	1.03937
1230.42411	1.02930
1228.49554	1.01821
1226.56698	1.00683
1224.63841	0.99579
1222.70985	0.98591
1220.78128	0.97760
1218.85272	0.97082
1216.92415	0.96589
1214.99559	0.96380
1213.06703	0.96536
1211.13846	0.96987
1209.20990	0.97564
1207.28133	0.98109
1205.35277	0.98473
1203.42420	0.98591
1201.49564	0.98546
1199.56708	0.98424
1197.63851	0.98281
1195.70995	0.98239
1193.78138	0.98365
1191.85282	0.98620
1189.92425	0.98984
1187.99569	0.99451
1186.06712	0.99999
1184.13856	1.00612
1182.21000	1.01293
1180.28143	1.02044
1178.35287	1.02851
1176.42430	1.03642
1174.49574	1.04321
1172.56717	1.04909
1170.63861	1.05505
1168.71004	1.06231
1166.78148	1.07214
1164.85292	1.08441
1162.92435	1.09680
1160.99579	1.10611
1159.06722	1.10972
1157.13866	1.10697
1155.21009	1.09929
1153.28153	1.08848
1151.35296	1.07545
1149.42440	1.06145
1147.49584	1.04902
1145.56727	1.04030
1143.63871	1.03571
1141.71014	1.03487
1139.78158	1.03778
1137.85301	1.04440
1135.92445	1.05390
1133.99588	1.06542
1132.06732	1.07873
1130.13876	1.09376
1128.21019	1.10929
1126.28163	1.12354
1124.35306	1.13556
1122.42450	1.14458
1120.49593	1.15053
1118.56737	1.15401
1116.63880	1.15430
1114.71024	1.15020
1112.78168	1.14186
1110.85311	1.13070
1108.92455	1.11853
1106.99598	1.10637
1105.06742	1.09473
1103.13885	1.08488
1101.21029	1.07793
1099.28172	1.07419
1097.35316	1.07414
1095.42460	1.07813
1093.49603	1.08583
1091.56747	1.09685
1089.63890	1.11124
1087.71034	1.12948
1085.78177	1.15035
1083.85321	1.16928
1081.92464	1.18251
1079.99608	1.19013
1078.06752	1.19345
1076.13895	1.19228
1074.21039	1.18543
1072.28182	1.17459
1070.35326	1.16462
1068.42469	1.15742
1066.49613	1.15105
1064.56756	1.14452
1062.63900	1.13877
1060.71044	1.13463
1058.78187	1.13162
1056.85331	1.12790
1054.92474	1.12254
1052.99618	1.11710
1051.06761	1.11280
1049.13905	1.10908
1047.21049	1.10645
1045.28192	1.10633
1043.35336	1.10805
1041.42479	1.10999
1039.49623	1.11114
1037.56766	1.11074
1035.63910	1.10794
1033.71053	1.10230
1031.78197	1.09417
1029.85341	1.08383
1027.92484	1.07160
1025.99628	1.05820
1024.06771	1.04430
1022.13915	1.03111
1020.21058	1.02026
1018.28202	1.01200
1016.35345	1.00458
1014.42489	0.99569
1012.49633	0.98493
1010.56776	0.97360
1008.63920	0.96295
1006.71063	0.95422
1004.78207	0.94865
1002.85350	0.94683
1000.92494	0.94874
998.99637	0.95374
997.06781	0.96085
995.13925	0.96884
993.21068	0.97595
991.28212	0.98085
989.35355	0.98353
987.42499	0.98487
985.49642	0.98579
983.56786	0.98677
981.63929	0.98771
979.71073	0.98799
977.78217	0.98646
975.85360	0.98229
973.92504	0.97530
971.99647	0.96571
970.06791	0.95401
968.13934	0.94076
966.21078	0.92771
964.28221	0.91745
962.35365	0.91134
960.42509	0.91023
958.49652	0.91425
956.56796	0.91963
954.63939	0.92083
952.71083	0.91649
950.78226	0.90941
948.85370	0.90281
946.92513	0.89843
944.99657	0.89670
943.06801	0.89720
941.13944	0.89890
939.21088	0.90104
937.28231	0.90317
935.35375	0.90444
933.42518	0.90479
931.49662	0.90500
929.56805	0.90473
927.63949	0.90305
925.71093	0.90044
923.78236	0.89730
921.85380	0.89231
919.92523	0.88439
917.99667	0.87425
916.06810	0.86301
914.13954	0.85154
912.21098	0.84063
910.28241	0.83065
908.35385	0.82189
906.42528	0.81479
904.49672	0.80906
902.56815	0.80406
900.63959	0.79968
898.71102	0.79549
896.78246	0.79033
894.85390	0.78437
892.92533	0.77919
890.99677	0.77534
889.06820	0.77241
887.13964	0.77078
885.21107	0.77108
883.28251	0.77353
881.35394	0.77788
879.42538	0.78326
877.49682	0.78931
875.56825	0.79664
873.63969	0.80522
871.71112	0.81439
869.78256	0.82382
867.85399	0.83311
865.92543	0.84208
863.99686	0.85084
862.06830	0.85939
860.13974	0.86788
858.21117	0.87594
856.28261	0.88272
854.35404	0.88808
852.42548	0.89182
850.49691	0.89372
848.56835	0.89428
846.63978	0.89405
844.71122	0.89376
842.78266	0.89429
840.85409	0.89560
838.92553	0.89720
836.99696	0.89921
835.06840	0.90216
833.13983	0.90608
831.21127	0.91104
829.28270	0.91755
827.35414	0.92529
825.42558	0.93353
823.49701	0.94275
821.56845	0.95367
819.63988	0.96616
817.71132	0.98007
815.78275	0.99524
813.85419	1.01118
811.92562	1.02798
809.99706	1.04517
808.06850	1.06147
806.13993	1.07681
804.21137	1.09121
802.28280	1.10437
800.35424	1.11668
798.42567	1.12736
796.49711	1.13541
794.56854	1.14126
792.63998	1.14530
790.71142	1.14868
788.78285	1.15203
786.85429	1.15364
784.92572	1.15251
782.99716	1.14919
781.06859	1.14526
779.14003	1.14235
777.21147	1.13894
775.28290	1.13393
773.35434	1.13021
771.42577	1.12894
769.49721	1.12708
767.56864	1.12313
765.64008	1.11893
763.71151	1.11477
761.78295	1.10991
759.85439	1.10505
757.92582	1.10017
755.99726	1.09521
754.06869	1.09092
752.14013	1.08642
750.21156	1.08042
748.28300	1.07345
746.35443	1.06667
744.42587	1.06091
742.49731	1.05617
740.56874	1.05151
738.64018	1.04667
736.71161	1.04221
734.78305	1.03828
732.85448	1.03516
730.92592	1.03328
728.99735	1.03270
727.06879	1.03365
725.14023	1.03643
723.21166	1.04017
721.28310	1.04343
719.35453	1.04628
717.42597	1.05024
715.49740	1.05606
713.56884	1.06262
711.64027	1.06823
709.71171	1.07346
707.78315	1.08069
705.85458	1.08960
703.92602	1.09607
701.99745	1.09967
700.06889	1.10458
698.14032	1.11091
696.21176	1.11552
694.28319	1.11788
692.35463	1.11893
690.42607	1.11962
688.49750	1.12098
686.56894	1.12280
684.64037	1.12355
682.71181	1.12214
680.78324	1.11902
678.85468	1.11584
676.92611	1.11404
674.99755	1.11296
673.06899	1.11061
671.14042	1.10831
669.21186	1.10882
667.28329	1.10807
665.35473	1.10383
663.42616	1.10049
661.49760	1.09809
659.56903	1.09551
657.64047	1.09346
655.71191	1.09373
653.78334	1.09673
651.85478	1.10154
649.92621	1.10578
647.99765	1.10854
646.06908	1.11224
644.14052	1.11735
642.21195	1.12324
640.28339	1.13094
638.35483	1.13841
636.42626	1.14209
634.49770	1.14416
632.56913	1.14928
630.64057	1.15535
628.71200	1.15829
626.78344	1.16187
624.85488	1.16933
622.92631	1.17348
620.99775	1.16950
619.06918	1.16428
617.14062	1.16330
615.21205	1.16166
613.28349	1.15448
611.35492	1.14592
609.42636	1.14022
607.49780	1.13628
605.56923	1.13186
603.64067	1.12549
601.71210	1.11925
599.78354	1.11596
