3997.91406	0.66817
3995.98550	0.66738
3994.05693	0.66446
3992.12837	0.66265
3990.19980	0.66363
3988.27124	0.66539
3986.34268	0.66505
3984.41411	0.66406
3982.48555	0.66547
3980.55698	0.66758
3978.62842	0.66745
3976.69985	0.66585
3974.77129	0.66449
3972.84272	0.66454
3970.91416	0.66608
3968.98560	0.66736
3967.05703	0.66714
3965.12847	0.66555
3963.19990	0.66388
3961.27134	0.66360
3959.34277	0.66398
3957.41421	0.66400
3955.48564	0.66410
3953.55708	0.66375
3951.62852	0.66282
3949.69995	0.66288
3947.77139	0.66347
3945.84282	0.66301
3943.91426	0.66184
3941.98569	0.66022
3940.05713	0.65824
3938.12856	0.65642
3936.20000	0.65544
3934.27144	0.65477
3932.34287	0.65300
3930.41431	0.65148
3928.48574	0.65221
3926.55718	0.65317
3924.62861	0.65232
3922.70005	0.65158
3920.77148	0.65236
3918.84292	0.65254
3916.91436	0.65026
3914.98579	0.64785
3913.05723	0.64796
3911.12866	0.64881
3909.20010	0.64842
3907.27153	0.64811
3905.34297	0.64881
3903.41440	0.64966
3901.48584	0.65095
3899.55728	0.65224
3897.62871	0.65253
3895.70015	0.65272
3893.77158	0.65276
3891.84302	0.65153
3889.91445	0.65053
3887.98589	0.65144
3886.05733	0.65329
3884.12876	0.65472
3882.20020	0.65489
3880.27163	0.65299
3878.34307	0.65130
3876.41450	0.65159
3874.48594	0.65217
3872.55737	0.65195
3870.62881	0.65177
3868.70025	0.65116
3866.77168	0.64919
3864.84312	0.64661
3862.91455	0.64546
3860.98599	0.64547
3859.05742	0.64514
3857.12886	0.64419
3855.20029	0.64131
3853.27173	0.63620
3851.34317	0.63540
3849.41460	0.63697
3847.48604	0.63864
3845.55747	0.64038
3843.62891	0.64175
3841.70034	0.64207
3839.77178	0.64072
3837.84321	0.63772
3835.91465	0.63591
3833.98609	0.63613
3832.05752	0.63695
3830.12896	0.63757
3828.20039	0.63812
3826.27183	0.63910
3824.34326	0.64062
3822.41470	0.64189
3820.48613	0.64127
3818.55757	0.63969
3816.62901	0.63899
3814.70044	0.63927
3812.77188	0.63901
3810.84331	0.63772
3808.91475	0.63619
3806.98618	0.63531
3805.05762	0.63537
3803.12905	0.63503
3801.20049	0.63359
3799.27193	0.63275
3797.34336	0.63198
3795.41480	0.63114
3793.48623	0.63132
3791.55767	0.63160
3789.62910	0.63091
3787.70054	0.62990
3785.77197	0.62898
3783.84341	0.62776
3781.91485	0.62712
3779.98628	0.62777
3778.05772	0.62859
3776.12915	0.62829
3774.20059	0.62747
3772.27202	0.62710
3770.34346	0.62714
3768.41489	0.62727
3766.48633	0.62734
3764.55777	0.62674
3762.62920	0.62569
3760.70064	0.62502
3758.77207	0.62550
3756.84351	0.62652
3754.91494	0.62718
3752.98638	0.62860
3751.05781	0.63102
3749.12925	0.63122
3747.20069	0.63085
3745.27212	0.63071
3743.34356	0.63084
3741.41499	0.63190
3739.48643	0.63220
3737.55786	0.63161
3735.62930	0.63257
3733.70074	0.63460
3731.77217	0.63493
3729.84361	0.63439
3727.91504	0.63353
3725.98648	0.63171
3724.05791	0.62875
3722.12935	0.62571
3720.20078	0.62384
3718.27222	0.62375
3716.34366	0.62478
3714.41509	0.62599
3712.48653	0.62610
3710.55796	0.62482
3708.62940	0.62457
3706.70083	0.62449
3704.77227	0.62365
3702.84370	0.62302
3700.91514	0.62364
3698.98658	0.62419
3697.05801	0.62372
3695.12945	0.62337
3693.20088	0.62518
3691.27232	0.63006
3689.34375	0.63370
3687.41519	0.63224
3685.48662	0.63055
3683.55806	0.63004
3681.62950	0.63022
3679.70093	0.63076
3677.77237	0.63148
3675.84380	0.63417
3673.91524	0.63947
3671.98667	0.64367
3670.05811	0.64715
3668.12954	0.65050
3666.20098	0.65331
3664.27242	0.65630
3662.34385	0.66030
3660.41529	0.66480
3658.48672	0.66944
3656.55816	0.67476
3654.62959	0.67872
3652.70103	0.68077
3650.77246	0.68224
3648.84390	0.68576
3646.91534	0.69254
3644.98677	0.69784
3643.05821	0.70163
3641.12964	0.70517
3639.20108	0.70982
3637.27251	0.71579
3635.34395	0.72110
3633.41538	0.72461
3631.48682	0.72775
3629.55826	0.73426
3627.62969	0.74211
3625.70113	0.74596
3623.77256	0.74953
3621.84400	0.75430
3619.91543	0.75995
3617.98687	0.76566
3616.05830	0.77041
3614.12974	0.77488
3612.20118	0.77970
3610.27261	0.78484
3608.34405	0.79157
3606.41548	0.79911
3604.48692	0.80434
3602.55835	0.80794
3600.62979	0.81256
3598.70123	0.81885
3596.77266	0.82458
3594.84410	0.82915
3592.91553	0.83386
3590.98697	0.83882
3589.05840	0.84473
3587.12984	0.85172
3585.20127	0.85702
3583.27271	0.86198
3581.34415	0.86857
3579.41558	0.87487
3577.48702	0.87906
3575.55845	0.88347
3573.62989	0.88956
3571.70132	0.89503
3569.77276	0.89811
3567.84419	0.90180
3565.91563	0.91112
3563.98707	0.92022
3562.05850	0.92508
3560.12994	0.92867
3558.20137	0.93399
3556.27281	0.94020
3554.34424	0.94594
3552.41568	0.95106
3550.48711	0.95522
3548.55855	0.95935
3546.62999	0.96507
3544.70142	0.97271
3542.77286	0.97964
3540.84429	0.98374
3538.91573	0.98666
3536.98716	0.99209
3535.05860	0.99968
3533.13003	1.00600
3531.20147	1.01123
3529.27291	1.01658
3527.34434	1.02212
3525.41578	1.02832
3523.48721	1.03621
3521.55865	1.04483
3519.63008	1.05165
3517.70152	1.05645
3515.77295	1.05955
3513.84439	1.06281
3511.91583	1.06943
3509.98726	1.07869
3508.05870	1.08783
3506.13013	1.09680
3504.20157	1.10623
3502.27300	1.11499
3500.34444	1.12201
3498.41587	1.12736
3496.48731	1.13194
3494.55875	1.13641
3492.63018	1.14123
3490.70162	1.14745
3488.77305	1.15345
3486.84449	1.15812
3484.91592	1.16221
3482.98736	1.16545
3481.05879	1.16957
3479.13023	1.17439
3477.20167	1.17686
3475.27310	1.17797
3473.34454	1.18014
3471.41597	1.18307
3469.48741	1.18711
3467.55884	1.19238
3465.63028	1.19661
3463.70171	1.19891
3461.77315	1.20048
3459.84459	1.20200
3457.91602	1.20313
3455.98746	1.20457
3454.05889	1.20760
3452.13033	1.21180
3450.20176	1.21519
3448.27320	1.21673
3446.34464	1.21957
3444.41607	1.22592
3442.48751	1.23168
3440.55894	1.23356
3438.63038	1.23450
3436.70181	1.23690
3434.77325	1.23908
3432.84468	1.24043
3430.91612	1.23993
3428.98756	1.23736
3427.05899	1.23572
3425.13043	1.23506
3423.20186	1.23300
3421.27330	1.22958
3419.34473	1.22728
3417.41617	1.22718
3415.48760	1.22793
3413.55904	1.22979
3411.63048	1.23312
3409.70191	1.23541
3407.77335	1.23576
3405.84478	1.23570
3403.91622	1.23485
3401.98765	1.23309
3400.05909	1.23279
3398.13052	1.23439
3396.20196	1.23473
3394.27340	1.23357
3392.34483	1.23517
3390.41627	1.23927
3388.48770	1.24151
3386.55914	1.24167
3384.63057	1.24218
3382.70201	1.24402
3380.77344	1.24539
3378.84488	1.24504
3376.91632	1.24472
3374.98775	1.24532
3373.05919	1.24754
3371.13062	1.25234
3369.20206	1.25695
3367.27349	1.25713
3365.34493	1.25414
3363.41636	1.25366
3361.48780	1.25636
3359.55924	1.25825
3357.63067	1.25779
3355.70211	1.25578
3353.77354	1.25389
3351.84498	1.25357
3349.91641	1.25548
3347.98785	1.25983
3346.05928	1.26360
3344.13072	1.26283
3342.20216	1.26034
3340.27359	1.26178
3338.34503	1.26577
3336.41646	1.26818
3334.48790	1.26974
3332.55933	1.27149
3330.63077	1.27322
3328.70220	1.27671
3326.77364	1.28138
3324.84508	1.28376
3322.91651	1.28413
3320.98795	1.28567
3319.05938	1.28986
3317.13082	1.29500
3315.20225	1.29930
3313.27369	1.30286
3311.34513	1.30387
3309.41656	1.30311
3307.48800	1.30505
3305.55943	1.30954
3303.63087	1.31491
3301.70230	1.31996
3299.77374	1.32214
3297.84517	1.32275
3295.91661	1.32363
3293.98805	1.32432
3292.05948	1.32693
3290.13092	1.33106
3288.20235	1.33248
3286.27379	1.33232
3284.34522	1.33502
3282.41666	1.33856
3280.48809	1.33547
3278.55953	1.32700
3276.63097	1.32160
3274.70240	1.31948
3272.77384	1.31694
3270.84527	1.31489
3268.91671	1.31257
3266.98814	1.30767
3265.05958	1.30258
3263.13101	1.29928
3261.20245	1.29590
3259.27389	1.29306
3257.34532	1.29155
3255.41676	1.28733
3253.48819	1.27830
3251.55963	1.26742
3249.63106	1.25696
3247.70250	1.24855
3245.77393	1.24317
3243.84537	1.23894
3241.91681	1.23514
3239.98824	1.23251
3238.05968	1.22971
3236.13111	1.22549
3234.20255	1.21963
3232.27398	1.21278
3230.34542	1.20654
3228.41685	1.20262
3226.48829	1.20180
3224.55973	1.20030
3222.63116	1.19432
3220.70260	1.18664
3218.77403	1.18139
3216.84547	1.17964
3214.91690	1.17985
3212.98834	1.17887
3211.05977	1.17519
3209.13121	1.17041
3207.20265	1.16650
3205.27408	1.16306
3203.34552	1.15923
3201.41695	1.15501
3199.48839	1.14925
3197.55982	1.14150
3195.63126	1.13462
3193.70269	1.13093
3191.77413	1.12919
3189.84557	1.12730
3187.91700	1.12379
3185.98844	1.11770
3184.05987	1.11040
3182.13131	1.10496
3180.20274	1.10218
3178.27418	1.09967
3176.34562	1.09568
3174.41705	1.09128
3172.48849	1.08698
3170.55992	1.08211
3168.63136	1.07740
3166.70279	1.07365
3164.77423	1.06978
3162.84566	1.06533
3160.91710	1.06157
3158.98854	1.05921
3157.05997	1.05745
3155.13141	1.05506
3153.20284	1.05222
3151.27428	1.04998
3149.34571	1.04750
3147.41715	1.04386
3145.48858	1.04117
3143.56002	1.04071
3141.63146	1.04035
3139.70289	1.03829
3137.77433	1.03512
3135.84576	1.03283
3133.91720	1.03216
3131.98863	1.03114
3130.06007	1.02907
3128.13150	1.02731
3126.20294	1.02642
3124.27438	1.02589
3122.34581	1.02476
3120.41725	1.02320
3118.48868	1.02287
3116.56012	1.02424
3114.63155	1.02555
3112.70299	1.02443
3110.77442	1.02091
3108.84586	1.01816
3106.91730	1.01795
3104.98873	1.01832
3103.06017	1.01757
3101.13160	1.01621
3099.20304	1.01487
3097.27447	1.01380
3095.34591	1.01344
3093.41734	1.01308
3091.48878	1.01165
3089.56022	1.01005
3087.63165	1.00934
3085.70309	1.00886
3083.77452	1.00794
3081.84596	1.00639
3079.91739	1.00375
3077.98883	1.00026
3076.06026	0.99673
3074.13170	0.99399
3072.20314	0.99236
3070.27457	0.99100
3068.34601	0.98934
3066.41744	0.98698
3064.48888	0.98329
3062.56031	0.97875
3060.63175	0.97439
3058.70318	0.97086
3056.77462	0.96815
3054.84606	0.96555
3052.91749	0.96169
3050.98893	0.95584
3049.06036	0.94989
3047.13180	0.94572
3045.20323	0.94229
3043.27467	0.93823
3041.34610	0.93368
3039.41754	0.92953
3037.48898	0.92662
3035.56041	0.92465
3033.63185	0.92252
3031.70328	0.92018
3029.77472	0.91741
3027.84615	0.91377
3025.91759	0.91065
3023.98903	0.90867
3022.06046	0.90634
3020.13190	0.90326
3018.20333	0.90070
3016.27477	0.89906
3014.34620	0.89706
3012.41764	0.89448
3010.48907	0.89227
3008.56051	0.89041
3006.63195	0.88872
3004.70338	0.88769
3002.77482	0.88709
3000.84625	0.88608
2998.91769	0.88511
2996.98912	0.88528
2995.06056	0.88670
2993.13199	0.88909
2991.20343	0.89189
2989.27487	0.89475
2987.34630	0.89814
2985.41774	0.90235
2983.48917	0.90719
2981.56061	0.91205
2979.63204	0.91685
2977.70348	0.92265
2975.77491	0.92950
2973.84635	0.93547
2971.91779	0.93995
2969.98922	0.94468
2968.06066	0.94988
2966.13209	0.95475
2964.20353	0.95961
2962.27496	0.96334
2960.34640	0.96363
2958.41783	0.96055
2956.48927	0.95603
2954.56071	0.95110
2952.63214	0.94568
2950.70358	0.94104
2948.77501	0.93897
2946.84645	0.93861
2944.91788	0.93863
2942.98932	0.94101
2941.06075	0.94806
2939.13219	0.95894
2937.20363	0.97075
2935.27506	0.98148
2933.34650	0.99103
2931.41793	0.99953
2929.48937	1.00732
2927.56080	1.01430
2925.63224	1.01950
2923.70367	1.02329
2921.77511	1.02613
2919.84655	1.02670
2917.91798	1.02300
2915.98942	1.01208
2914.06085	0.99355
2912.13229	0.97298
2910.20372	0.95560
2908.27516	0.94190
2906.34659	0.93135
2904.41803	0.92390
2902.48947	0.91798
2900.56090	0.91201
2898.63234	0.90683
2896.70377	0.90383
2894.77521	0.90228
2892.84664	0.90037
2890.91808	0.89701
2888.98952	0.89277
2887.06095	0.88927
2885.13239	0.88693
2883.20382	0.88518
2881.27526	0.88404
2879.34669	0.88326
2877.41813	0.88224
2875.48956	0.88109
2873.56100	0.87977
2871.63244	0.87744
2869.70387	0.87311
2867.77531	0.86695
2865.84674	0.86119
2863.91818	0.85823
2861.98961	0.85858
2860.06105	0.86169
2858.13248	0.86713
2856.20392	0.87442
2854.27536	0.88308
2852.34679	0.89171
2850.41823	0.89519
2848.48966	0.88666
2846.56110	0.86611
2844.63253	0.84210
2842.70397	0.82226
2840.77540	0.80847
2838.84684	0.79935
2836.91828	0.79287
2834.98971	0.78754
2833.06115	0.78242
2831.13258	0.77718
2829.20402	0.77264
2827.27545	0.76913
2825.34689	0.76585
2823.41832	0.76254
2821.48976	0.75973
2819.56120	0.75734
2817.63263	0.75475
2815.70407	0.75185
2813.77550	0.74858
2811.84694	0.74507
2809.91837	0.74230
2807.98981	0.74018
2806.06124	0.73790
2804.13268	0.73556
2802.20412	0.73321
2800.27555	0.73076
2798.34699	0.72827
2796.41842	0.72595
2794.48986	0.72441
2792.56129	0.72327
2790.63273	0.72132
2788.70416	0.71872
2786.77560	0.71662
2784.84704	0.71508
2782.91847	0.71354
2780.98991	0.71170
2779.06134	0.70934
2777.13278	0.70679
2775.20421	0.70491
2773.27565	0.70365
2771.34708	0.70218
2769.41852	0.70054
2767.48996	0.69920
2765.56139	0.69782
2763.63283	0.69630
2761.70426	0.69512
2759.77570	0.69425
2757.84713	0.69308
2755.91857	0.69158
2753.99001	0.69021
2752.06144	0.68877
2750.13288	0.68713
2748.20431	0.68594
2746.27575	0.68537
2744.34718	0.68491
2742.41862	0.68430
2740.49005	0.68364
2738.56149	0.68316
2736.63293	0.68283
2734.70436	0.68247
2732.77580	0.68212
2730.84723	0.68191
2728.91867	0.68163
2726.99010	0.68096
2725.06154	0.67988
2723.13297	0.67861
2721.20441	0.67745
2719.27585	0.67654
2717.34728	0.67558
2715.41872	0.67434
2713.49015	0.67318
2711.56159	0.67227
2709.63302	0.67115
2707.70446	0.66969
2705.77589	0.66849
2703.84733	0.66781
2701.91877	0.66705
2699.99020	0.66588
2698.06164	0.66461
2696.13307	0.66350
2694.20451	0.66269
2692.27594	0.66212
2690.34738	0.66146
2688.41881	0.66042
2686.49025	0.65908
2684.56169	0.65774
2682.63312	0.65645
2680.70456	0.65519
2678.77599	0.65422
2676.84743	0.65365
2674.91886	0.65337
2672.99030	0.65300
2671.06173	0.65213
2669.13317	0.65097
2667.20461	0.64986
2665.27604	0.64918
2663.34748	0.64896
2661.41891	0.64842
2659.49035	0.64745
2657.56178	0.64670
2655.63322	0.64627
2653.70465	0.64614
2651.77609	0.64620
2649.84753	0.64594
2647.91896	0.64520
2645.99040	0.64435
2644.06183	0.64377
2642.13327	0.64343
2640.20470	0.64316
2638.27614	0.64280
2636.34757	0.64197
2634.41901	0.64073
2632.49045	0.63969
2630.56188	0.63911
2628.63332	0.63878
2626.70475	0.63835
2624.77619	0.63755
2622.84762	0.63647
2620.91906	0.63524
2618.99049	0.63417
2617.06193	0.63351
2615.13337	0.63276
2613.20480	0.63186
2611.27624	0.63125
2609.34767	0.63052
2607.41911	0.62949
2605.49054	0.62869
2603.56198	0.62803
2601.63342	0.62720
2599.70485	0.62649
2597.77629	0.62592
2595.84772	0.62502
2593.91916	0.62392
2591.99059	0.62304
2590.06203	0.62237
2588.13346	0.62175
2586.20490	0.62102
2584.27634	0.62014
2582.34777	0.61944
2580.41921	0.61897
2578.49064	0.61830
2576.56208	0.61748
2574.63351	0.61684
2572.70495	0.61641
2570.77638	0.61622
2568.84782	0.61609
2566.91926	0.61560
2564.99069	0.61503
2563.06213	0.61476
2561.13356	0.61441
2559.20500	0.61374
2557.27643	0.61341
2555.34787	0.61333
2553.41930	0.61272
2551.49074	0.61187
2549.56218	0.61146
2547.63361	0.61129
2545.70505	0.61078
2543.77648	0.61000
2541.84792	0.60948
2539.91935	0.60934
2537.99079	0.60928
2536.06222	0.60881
2534.13366	0.60776
2532.20510	0.60666
2530.27653	0.60601
2528.34797	0.60555
2526.41940	0.60518
2524.49084	0.60486
2522.56227	0.60418
2520.63371	0.60324
2518.70514	0.60245
2516.77658	0.60173
2514.84802	0.60105
2512.91945	0.60051
2510.99089	0.60007
2509.06232	0.59965
2507.13376	0.59921
2505.20519	0.59858
2503.27663	0.59766
2501.34806	0.59681
2499.41950	0.59625
2497.49094	0.59571
2495.56237	0.59522
2493.63381	0.59480
2491.70524	0.59426
2489.77668	0.59357
2487.84811	0.59252
2485.91955	0.59121
2483.99098	0.59023
2482.06242	0.58943
2480.13386	0.58841
2478.20529	0.58747
2476.27673	0.58680
2474.34816	0.58622
2472.41960	0.58539
2470.49103	0.58420
2468.56247	0.58297
2466.63391	0.58177
2464.70534	0.58038
2462.77678	0.57895
2460.84821	0.57786
2458.91965	0.57721
2456.99108	0.57678
2455.06252	0.57634
2453.13395	0.57594
2451.20539	0.57568
2449.27683	0.57545
2447.34826	0.57505
2445.41970	0.57450
2443.49113	0.57405
2441.56257	0.57372
2439.63400	0.57337
2437.70544	0.57314
2435.77687	0.57301
2433.84831	0.57281
2431.91975	0.57279
2429.99118	0.57316
2428.06262	0.57345
2426.13405	0.57337
2424.20549	0.57317
2422.27692	0.57293
2420.34836	0.57269
2418.41979	0.57265
2416.49123	0.57281
2414.56267	0.57288
2412.63410	0.57267
2410.70554	0.57239
2408.77697	0.57208
2406.84841	0.57161
2404.91984	0.57118
2402.99128	0.57080
2401.06271	0.57014
2399.13415	0.56912
2397.20559	0.56805
2395.27702	0.56712
2393.34846	0.56623
2391.41989	0.56567
2389.49133	0.56562
2387.56276	0.56542
2385.63420	0.56486
2383.70563	0.56453
2381.77707	0.56465
2379.84851	0.56490
2377.91994	0.56471
2375.99138	0.56405
2374.06281	0.56430
2372.13425	0.56659
2370.20568	0.56914
2368.27712	0.56882
2366.34855	0.56628
2364.41999	0.56549
2362.49143	0.56760
2360.56286	0.56799
2358.63430	0.56309
2356.70573	0.55946
2354.77717	0.56070
2352.84860	0.56160
2350.92004	0.56071
2348.99147	0.56016
2347.06291	0.56062
2345.13435	0.56118
2343.20578	0.56056
2341.27722	0.56017
2339.34865	0.56148
2337.42009	0.56345
2335.49152	0.56447
2333.56296	0.56355
2331.63440	0.56203
2329.70583	0.56242
2327.77727	0.56359
2325.84870	0.56309
2323.92014	0.56138
2321.99157	0.55984
2320.06301	0.55925
2318.13444	0.55952
2316.20588	0.55980
2314.27732	0.55917
2312.34875	0.55767
2310.42019	0.55622
2308.49162	0.55530
2306.56306	0.55475
2304.63449	0.55430
2302.70593	0.55384
2300.77736	0.55355
2298.84880	0.55343
2296.92024	0.55314
2294.99167	0.55249
2293.06311	0.55174
2291.13454	0.55114
2289.20598	0.55050
2287.27741	0.54975
2285.34885	0.54933
2283.42028	0.54924
2281.49172	0.54907
2279.56316	0.54886
2277.63459	0.54880
2275.70603	0.54868
2273.77746	0.54834
2271.84890	0.54811
2269.92033	0.54825
2267.99177	0.54841
2266.06320	0.54842
2264.13464	0.54864
2262.20608	0.54907
2260.27751	0.54929
2258.34895	0.54932
2256.42038	0.54944
2254.49182	0.54947
2252.56325	0.54931
2250.63469	0.54911
2248.70612	0.54891
2246.77756	0.54865
2244.84900	0.54827
2242.92043	0.54791
2240.99187	0.54766
2239.06330	0.54727
2237.13474	0.54674
2235.20617	0.54635
2233.27761	0.54619
2231.34904	0.54602
2229.42048	0.54577
2227.49192	0.54553
2225.56335	0.54539
2223.63479	0.54531
2221.70622	0.54518
2219.77766	0.54468
2217.84909	0.54391
2215.92053	0.54345
2213.99196	0.54338
2212.06340	0.54331
2210.13484	0.54302
2208.20627	0.54262
2206.27771	0.54234
2204.34914	0.54232
2202.42058	0.54244
2200.49201	0.54247
2198.56345	0.54245
2196.63488	0.54264
2194.70632	0.54313
2192.77776	0.54374
2190.84919	0.54430
2188.92063	0.54479
2186.99206	0.54521
2185.06350	0.54567
2183.13493	0.54619
2181.20637	0.54668
2179.27781	0.54708
2177.34924	0.54723
2175.42068	0.54721
2173.49211	0.54726
2171.56355	0.54741
2169.63498	0.54765
2167.70642	0.54797
2165.77785	0.54801
2163.84929	0.54762
2161.92073	0.54716
2159.99216	0.54650
2158.06360	0.54547
2156.13503	0.54448
2154.20647	0.54354
2152.27790	0.54239
2150.34934	0.54105
2148.42077	0.53974
2146.49221	0.53876
2144.56365	0.53796
2142.63508	0.53674
2140.70652	0.53523
2138.77795	0.53405
2136.84939	0.53320
2134.92082	0.53256
2132.99226	0.53219
2131.06369	0.53193
2129.13513	0.53160
2127.20657	0.53116
2125.27800	0.53067
2123.34944	0.53041
2121.42087	0.53057
2119.49231	0.53087
2117.56374	0.53093
2115.63518	0.53085
2113.70661	0.53088
2111.77805	0.53100
2109.84949	0.53103
2107.92092	0.53113
2105.99236	0.53144
2104.06379	0.53166
2102.13523	0.53162
2100.20666	0.53152
2098.27810	0.53155
2096.34953	0.53143
2094.42097	0.53081
2092.49241	0.52995
2090.56384	0.52924
2088.63528	0.52870
2086.70671	0.52820
2084.77815	0.52744
2082.84958	0.52634
2080.92102	0.52517
2078.99245	0.52409
2077.06389	0.52301
2075.13533	0.52177
2073.20676	0.52041
2071.27820	0.51905
2069.34963	0.51793
2067.42107	0.51723
2065.49250	0.51674
2063.56394	0.51605
2061.63537	0.51530
2059.70681	0.51482
2057.77825	0.51454
2055.84968	0.51430
2053.92112	0.51416
2051.99255	0.51414
2050.06399	0.51419
2048.13542	0.51431
2046.20686	0.51445
2044.27830	0.51471
2042.34973	0.51506
2040.42117	0.51533
2038.49260	0.51553
2036.56404	0.51573
2034.63547	0.51599
2032.70691	0.51635
2030.77834	0.51656
2028.84978	0.51629
2026.92122	0.51559
2024.99265	0.51495
2023.06409	0.51459
2021.13552	0.51415
2019.20696	0.51312
2017.27839	0.51160
2015.34983	0.51015
2013.42126	0.50868
2011.49270	0.50682
2009.56414	0.50478
2007.63557	0.50292
2005.70701	0.50116
2003.77844	0.49930
2001.84988	0.49740
1999.92131	0.49572
1997.99275	0.49423
1996.06418	0.49292
1994.13562	0.49186
1992.20706	0.49092
1990.27849	0.48994
1988.34993	0.48908
1986.42136	0.48857
1984.49280	0.48826
1982.56423	0.48797
1980.63567	0.48785
1978.70710	0.48781
1976.77854	0.48767
1974.84998	0.48767
1972.92141	0.48795
1970.99285	0.48834
1969.06428	0.48865
1967.13572	0.48884
1965.20715	0.48884
1963.27859	0.48870
1961.35002	0.48861
1959.42146	0.48859
1957.49290	0.48840
1955.56433	0.48799
1953.63577	0.48744
1951.70720	0.48671
1949.77864	0.48586
1947.85007	0.48511
1945.92151	0.48437
1943.99294	0.48327
1942.06438	0.48176
1940.13582	0.48032
1938.20725	0.47909
1936.27869	0.47782
1934.35012	0.47654
1932.42156	0.47535
1930.49299	0.47424
1928.56443	0.47322
1926.63586	0.47235
1924.70730	0.47164
1922.77874	0.47105
1920.85017	0.47049
1918.92161	0.46986
1916.99304	0.46926
1915.06448	0.46882
1913.13591	0.46859
1911.20735	0.46860
1909.27878	0.46884
1907.35022	0.46911
1905.42166	0.46944
1903.49309	0.46992
1901.56453	0.47041
1899.63596	0.47087
1897.70740	0.47148
1895.77883	0.47214
1893.85027	0.47259
1891.92171	0.47284
1889.99314	0.47297
1888.06458	0.47281
1886.13601	0.47247
1884.20745	0.47204
1882.27888	0.47146
1880.35032	0.47071
1878.42175	0.46970
1876.49319	0.46853
1874.56463	0.46735
1872.63606	0.46631
1870.70750	0.46524
1868.77893	0.46370
1866.85037	0.46195
1864.92180	0.46051
1862.99324	0.45921
1861.06467	0.45784
1859.13611	0.45645
1857.20755	0.45508
1855.27898	0.45376
1853.35042	0.45262
1851.42185	0.45184
1849.49329	0.45130
1847.56472	0.45071
1845.63616	0.45008
1843.70759	0.44930
1841.77903	0.44849
1839.85047	0.44773
1837.92190	0.44699
1835.99334	0.44640
1834.06477	0.44598
1832.13621	0.44575
1830.20764	0.44552
1828.27908	0.44526
1826.35051	0.44506
1824.42195	0.44470
1822.49339	0.44434
1820.56482	0.44418
1818.63626	0.44412
1816.70769	0.44409
1814.77913	0.44420
1812.85056	0.44435
1810.92200	0.44431
1808.99343	0.44420
1807.06487	0.44407
1805.13631	0.44394
1803.20774	0.44393
1801.27918	0.44396
1799.35061	0.44382
1797.42205	0.44365
1795.49348	0.44362
1793.56492	0.44345
1791.63635	0.44276
1789.70779	0.44210
1787.77923	0.44194
1785.85066	0.44188
1783.92210	0.44183
1781.99353	0.44200
1780.06497	0.44218
1778.13640	0.44232
1776.20784	0.44258
1774.27927	0.44316
1772.35071	0.44400
1770.42215	0.44473
1768.49358	0.44536
1766.56502	0.44605
1764.63645	0.44701
1762.70789	0.44849
1760.77932	0.45044
1758.85076	0.45246
1756.92220	0.45508
1754.99363	0.45814
1753.06507	0.46132
1751.13650	0.46585
1749.20794	0.47216
1747.27937	0.47794
1745.35081	0.48252
1743.42224	0.48676
1741.49368	0.49076
1739.56512	0.49422
1737.63655	0.49671
1735.70799	0.49846
1733.77942	0.50074
1731.85086	0.50287
1729.92229	0.50461
1727.99373	0.50689
1726.06516	0.50990
1724.13660	0.51389
1722.20804	0.51796
1720.27947	0.52195
1718.35091	0.52857
1716.42234	0.53988
1714.49378	0.54921
1712.56521	0.55676
1710.63665	0.56577
1708.70808	0.57687
1706.77952	0.59310
1704.85096	0.61479
1702.92239	0.63499
1700.99383	0.66289
1699.06526	0.70627
1697.13670	0.74718
1695.20813	0.78654
1693.27957	0.81510
1691.35100	0.83768
1689.42244	0.86475
1687.49388	0.89012
1685.56531	0.91637
1683.63675	0.95762
1681.70818	0.98788
1679.77962	1.00613
1677.85105	1.02366
1675.92249	1.04464
1673.99392	1.06729
1672.06536	1.08492
1670.13680	1.10436
1668.20823	1.12517
1666.27967	1.13682
1664.35110	1.14713
1662.42254	1.16153
1660.49397	1.17346
1658.56541	1.18042
1656.63684	1.18493
1654.70828	1.18972
1652.77972	1.19789
1650.85115	1.20209
1648.92259	1.20299
1646.99402	1.20318
1645.06546	1.20282
1643.13689	1.20172
1641.20833	1.20087
1639.27976	1.20081
1637.35120	1.20221
1635.42264	1.20339
1633.49407	1.20224
1631.56551	1.20067
1629.63694	1.19779
1627.70838	1.19368
1625.77981	1.18880
1623.85125	1.18017
1621.92269	1.16758
1619.99412	1.15629
1618.06556	1.14062
1616.13699	1.11334
1614.20843	1.09031
1612.27986	1.07298
1610.35130	1.05372
1608.42273	1.03206
1606.49417	1.01258
1604.56561	0.99721
1602.63704	0.98405
1600.70848	0.97314
1598.77991	0.96521
1596.85135	0.95924
1594.92278	0.95424
1592.99422	0.95064
1591.06565	0.94903
1589.13709	0.94974
1587.20853	0.95329
1585.27996	0.95939
1583.35140	0.96729
1581.42283	0.97588
1579.49427	0.98450
1577.56570	0.99636
1575.63714	1.01365
1573.70857	1.02558
1571.78001	1.03469
1569.85145	1.04920
1567.92288	1.06424
1565.99432	1.07471
1564.06575	1.08444
1562.13719	1.09211
1560.20862	1.10085
1558.28006	1.12151
1556.35149	1.13417
1554.42293	1.13912
1552.49437	1.14226
1550.56580	1.14400
1548.63724	1.14401
1546.70867	1.14288
1544.78011	1.14102
1542.85154	1.13704
1540.92298	1.12875
1538.99441	1.12204
1537.06585	1.12045
1535.13729	1.11761
1533.20872	1.11169
1531.28016	1.10566
1529.35159	1.10058
1527.42303	1.09393
1525.49446	1.08617
1523.56590	1.08010
1521.63733	1.07503
1519.70877	1.07228
1517.78021	1.06859
1515.85164	1.05988
1513.92308	1.04830
1511.99451	1.03606
1510.06595	1.02433
1508.13738	1.00512
1506.20882	0.96844
1504.28025	0.94920
1502.35169	0.93790
1500.42313	0.92435
1498.49456	0.90621
1496.56600	0.88491
1494.63743	0.86912
1492.70887	0.85883
1490.78030	0.84646
1488.85174	0.82891
1486.92317	0.81586
1484.99461	0.80869
1483.06605	0.80398
1481.13748	0.80116
1479.20892	0.80112
1477.28035	0.80428
1475.35179	0.81111
1473.42322	0.82392
1471.49466	0.83862
1469.56610	0.84702
1467.63753	0.85255
1465.70897	0.85879
1463.78040	0.86507
1461.85184	0.86877
1459.92327	0.87126
1457.99471	0.87627
1456.06614	0.88223
1454.13758	0.88321
1452.20902	0.88259
1450.28045	0.88161
1448.35189	0.87968
1446.42332	0.87653
1444.49476	0.87303
1442.56619	0.86923
1440.63763	0.86503
1438.70906	0.86004
1436.78050	0.85237
1434.85194	0.84410
1432.92337	0.83793
1430.99481	0.83164
1429.06624	0.82517
1427.13768	0.82094
1425.20911	0.81944
1423.28055	0.82022
1421.35198	0.82220
1419.42342	0.82527
1417.49486	0.82851
1415.56629	0.83010
1413.63773	0.83097
1411.70916	0.83151
1409.78060	0.83172
1407.85203	0.83208
1405.92347	0.83315
1403.99490	0.83467
1402.06634	0.83589
1400.13778	0.83678
1398.20921	0.83711
1396.28065	0.83704
1394.35208	0.83751
1392.42352	0.83868
1390.49495	0.84034
1388.56639	0.84430
1386.63782	0.85266
1384.70926	0.86250
1382.78070	0.87124
1380.85213	0.87805
1378.92357	0.88110
1376.99500	0.87945
1375.06644	0.87269
1373.13787	0.86213
1371.20931	0.85089
1369.28074	0.83792
1367.35218	0.82329
1365.42362	0.81013
1363.49505	0.79775
1361.56649	0.78613
1359.63792	0.77801
1357.70936	0.77281
1355.78079	0.76916
1353.85223	0.76665
1351.92366	0.76516
1349.99510	0.76440
1348.06654	0.76398
1346.13797	0.76383
1344.20941	0.76405
1342.28084	0.76466
1340.35228	0.76591
1338.42371	0.76778
1336.49515	0.77048
1334.56659	0.77466
1332.63802	0.78014
1330.70946	0.78596
1328.78089	0.79100
1326.85233	0.79453
1324.92376	0.79663
1322.99520	0.79809
1321.06663	0.79964
1319.13807	0.80118
1317.20951	0.80221
1315.28094	0.80262
1313.35238	0.80284
1311.42381	0.80297
1309.49525	0.80245
1307.56668	0.80095
1305.63812	0.79910
1303.70955	0.79758
1301.78099	0.79602
1299.85243	0.79375
1297.92386	0.79072
1295.99530	0.78748
1294.06673	0.78473
1292.13817	0.78305
1290.20960	0.78254
1288.28104	0.78279
1286.35247	0.78336
1284.42391	0.78400
1282.49535	0.78463
1280.56678	0.78534
1278.63822	0.78644
1276.70965	0.78827
1274.78109	0.79107
1272.85252	0.79497
1270.92396	0.79995
1268.99539	0.80573
1267.06683	0.81169
1265.13827	0.81701
1263.20970	0.82108
1261.28114	0.82377
1259.35257	0.82561
1257.42401	0.82743
1255.49544	0.82946
1253.56688	0.83143
1251.63831	0.83326
1249.70975	0.83510
1247.78119	0.83707
1245.85262	0.83892
1243.92406	0.84006
1241.99549	0.84022
1240.06693	0.83961
1238.13836	0.83847
1236.20980	0.83658
1234.28123	0.83343
1232.35267	0.82897
1230.42411	0.82367
1228.49554	0.81762
1226.56698	0.81051
1224.63841	0.80260
1222.70985	0.79460
1220.78128	0.78671
1218.85272	0.77916
1216.92415	0.77272
1214.99559	0.76804
1213.06703	0.76535
1211.13846	0.76472
1209.20990	0.76546
1207.28133	0.76579
1205.35277	0.76407
1203.42420	0.75994
1201.49564	0.75405
1199.56708	0.74699
1197.63851	0.73935
1195.70995	0.73202
1193.78138	0.72573
1191.85282	0.72093
1189.92425	0.71790
1187.99569	0.71637
1186.06712	0.71583
1184.13856	0.71621
1182.21000	0.71805
1180.28143	0.72176
1178.35287	0.72700
1176.42430	0.73318
1174.49574	0.73993
1172.56717	0.74718
1170.63861	0.75521
1168.71004	0.76477
1166.78148	0.77644
1164.85292	0.78995
1162.92435	0.80428
1160.99579	0.81736
1159.06722	0.82654
1157.13866	0.83031
1155.21009	0.82852
1153.28153	0.82178
1151.35296	0.81149
1149.42440	0.79956
1147.49584	0.78770
1145.56727	0.77716
1143.63871	0.76911
1141.71014	0.76424
1139.78158	0.76230
1137.85301	0.76270
1135.92445	0.76492
1133.99588	0.76903
1132.06732	0.77545
1130.13876	0.78422
1128.21019	0.79480
1126.28163	0.80595
1124.35306	0.81626
1122.42450	0.82516
1120.49593	0.83279
1118.56737	0.83923
1116.63880	0.84394
1114.71024	0.84599
1112.78168	0.84532
1110.85311	0.84283
1108.92455	0.83949
1106.99598	0.83624
1105.06742	0.83376
1103.13885	0.83237
1101.21029	0.83245
1099.28172	0.83398
1097.35316	0.83676
1095.42460	0.84146
1093.49603	0.84867
1091.56747	0.85761
1089.63890	0.86750
1087.71034	0.87870
1085.78177	0.89144
1083.85321	0.90483
1081.92464	0.91715
1079.99608	0.92643
1078.06752	0.93141
1076.13895	0.93259
1074.21039	0.93114
1072.28182	0.92719
1070.35326	0.92076
1068.42469	0.91294
1066.49613	0.90492
1064.56756	0.89710
1062.63900	0.88931
1060.71044	0.88141
1058.78187	0.87349
1056.85331	0.86567
1054.92474	0.85852
1052.99618	0.85268
1051.06761	0.84786
1049.13905	0.84391
1047.21049	0.84201
1045.28192	0.84350
1043.35336	0.84831
1041.42479	0.85465
1039.49623	0.86062
1037.56766	0.86558
1035.63910	0.86938
1033.71053	0.87166
1031.78197	0.87215
1029.85341	0.87063
1027.92484	0.86691
1025.99628	0.86132
1024.06771	0.85466
1022.13915	0.84809
1020.21058	0.84290
1018.28202	0.83927
1016.35345	0.83547
1014.42489	0.82967
1012.49633	0.82155
1010.56776	0.81103
1008.63920	0.79816
1006.71063	0.78467
1004.78207	0.77264
1002.85350	0.76269
1000.92494	0.75441
998.99637	0.74752
997.06781	0.74201
995.13925	0.73733
993.21068	0.73239
991.28212	0.72664
989.35355	0.72052
987.42499	0.71454
985.49642	0.70898
983.56786	0.70432
981.63929	0.70079
979.71073	0.69836
977.78217	0.69705
975.85360	0.69604
973.92504	0.69396
971.99647	0.69039
970.06791	0.68562
968.13934	0.68009
966.21078	0.67471
964.28221	0.67072
962.35365	0.66958
960.42509	0.67258
958.49652	0.67924
956.56796	0.68622
954.63939	0.68973
952.71083	0.68882
950.78226	0.68464
948.85370	0.67890
946.92513	0.67357
944.99657	0.67006
943.06801	0.66851
941.13944	0.66832
939.21088	0.66882
937.28231	0.66975
935.35375	0.67117
933.42518	0.67318
931.49662	0.67587
929.56805	0.67899
927.63949	0.68232
925.71093	0.68589
923.78236	0.68973
921.85380	0.69355
919.92523	0.69668
917.99667	0.69894
916.06810	0.70070
914.13954	0.70207
912.21098	0.70325
910.28241	0.70488
908.35385	0.70740
906.42528	0.71053
904.49672	0.71344
902.56815	0.71533
900.63959	0.71586
898.71102	0.71533
896.78246	0.71416
894.85390	0.71221
892.92533	0.70924
890.99677	0.70561
889.06820	0.70175
887.13964	0.69797
885.21107	0.69472
883.28251	0.69218
881.35394	0.68993
879.42538	0.68769
877.49682	0.68557
875.56825	0.68374
873.63969	0.68199
871.71112	0.68026
869.78256	0.67893
867.85399	0.67796
865.92543	0.67718
863.99686	0.67678
862.06830	0.67683
860.13974	0.67723
858.21117	0.67780
856.28261	0.67869
854.35404	0.68026
852.42548	0.68229
850.49691	0.68416
848.56835	0.68580
846.63978	0.68758
844.71122	0.68952
842.78266	0.69189
840.85409	0.69501
838.92553	0.69854
836.99696	0.70231
835.06840	0.70630
833.13983	0.71027
831.21127	0.71413
829.28270	0.71799
827.35414	0.72156
825.42558	0.72443
823.49701	0.72702
821.56845	0.72999
819.63988	0.73322
817.71132	0.73603
815.78275	0.73837
813.85419	0.74072
811.92562	0.74286
809.99706	0.74421
808.06850	0.74479
806.13993	0.74505
804.21137	0.74529
802.28280	0.74540
800.35424	0.74505
798.42567	0.74394
796.49711	0.74252
794.56854	0.74179
792.63998	0.74145
790.71142	0.74031
788.78285	0.73891
786.85429	0.73845
784.92572	0.73854
782.99716	0.73878
781.06859	0.73970
779.14003	0.74116
777.21147	0.74218
775.28290	0.74310
773.35434	0.74534
771.42577	0.74891
769.49721	0.75258
767.56864	0.75617
765.64008	0.76064
763.71151	0.76606
761.78295	0.77137
759.85439	0.77644
757.92582	0.78180
755.99726	0.78649
754.06869	0.78970
752.14013	0.79248
750.21156	0.79557
748.28300	0.79801
746.35443	0.79834
744.42587	0.79667
742.49731	0.79397
740.56874	0.79019
738.64018	0.78520
736.71161	0.77953
734.78305	0.77360
732.85448	0.76763
730.92592	0.76162
728.99735	0.75517
727.06879	0.74859
725.14023	0.74274
723.21166	0.73808
721.28310	0.73467
719.35453	0.73178
717.42597	0.72876
715.49740	0.72647
713.56884	0.72572
711.64027	0.72622
709.71171	0.72779
707.78315	0.73049
705.85458	0.73409
703.92602	0.73870
701.99745	0.74409
700.06889	0.74980
698.14032	0.75610
696.21176	0.76291
694.28319	0.76981
692.35463	0.77699
690.42607	0.78424
688.49750	0.79050
686.56894	0.79645
684.64037	0.80335
682.71181	0.80999
680.78324	0.81485
678.85468	0.81768
676.92611	0.81872
674.99755	0.81828
673.06899	0.81635
671.14042	0.81299
669.21186	0.80624
667.28329	0.79626
665.35473	0.78965
663.42616	0.78353
661.49760	0.77525
659.56903	0.76526
657.64047	0.75428
655.71191	0.74388
653.78334	0.73554
651.85478	0.72835
649.92621	0.72067
647.99765	0.71304
646.06908	0.70736
644.14052	0.70472
642.21195	0.70448
640.28339	0.70556
638.35483	0.70767
636.42626	0.71024
634.49770	0.71288
632.56913	0.71630
630.64057	0.72140
628.71200	0.72765
626.78344	0.73465
624.85488	0.74311
622.92631	0.75228
620.99775	0.76145
619.06918	0.77155
617.14062	0.78286
615.21205	0.79382
613.28349	0.80356
611.35492	0.81254
609.42636	0.81964
607.49780	0.82316
605.56923	0.82457
603.64067	0.82750
601.71210	0.83286
599.78354	0.83679
