3997.91406	0.65980
3995.98550	0.65940
3994.05693	0.66044
3992.12837	0.66133
3990.19980	0.66131
3988.27124	0.66133
3986.34268	0.66097
3984.41411	0.66040
3982.48555	0.66122
3980.55698	0.66261
3978.62842	0.66280
3976.69985	0.66240
3974.77129	0.66250
3972.84272	0.66276
3970.91416	0.66229
3968.98560	0.66143
3967.05703	0.66091
3965.12847	0.66047
3963.19990	0.66034
3961.27134	0.66037
3959.34277	0.65944
3957.41421	0.65803
3955.48564	0.65642
3953.55708	0.65427
3951.62852	0.65271
3949.69995	0.65303
3947.77139	0.65408
3945.84282	0.65428
3943.91426	0.65469
3941.98569	0.65554
3940.05713	0.65517
3938.12856	0.65372
3936.20000	0.65194
3934.27144	0.65015
3932.34287	0.64947
3930.41431	0.65137
3928.48574	0.65400
3926.55718	0.65437
3924.62861	0.65199
3922.70005	0.64960
3920.77148	0.64968
3918.84292	0.65182
3916.91436	0.65375
3914.98579	0.65358
3913.05723	0.65221
3911.12866	0.65084
3909.20010	0.64945
3907.27153	0.64885
3905.34297	0.65108
3903.41440	0.65464
3901.48584	0.65431
3899.55728	0.65104
3897.62871	0.64739
3895.70015	0.64427
3893.77158	0.64380
3891.84302	0.64760
3889.91445	0.64995
3887.98589	0.64802
3886.05733	0.64584
3884.12876	0.64482
3882.20020	0.64428
3880.27163	0.64592
3878.34307	0.64707
3876.41450	0.64643
3874.48594	0.64590
3872.55737	0.64547
3870.62881	0.64685
3868.70025	0.64854
3866.77168	0.64673
3864.84312	0.64534
3862.91455	0.64660
3860.98599	0.64613
3859.05742	0.64322
3857.12886	0.63944
3855.20029	0.63764
3853.27173	0.64407
3851.34317	0.64741
3849.41460	0.64385
3847.48604	0.64105
3845.55747	0.64099
3843.62891	0.64195
3841.70034	0.64191
3839.77178	0.64179
3837.84321	0.64093
3835.91465	0.63896
3833.98609	0.63905
3832.05752	0.64040
3830.12896	0.64029
3828.20039	0.63903
3826.27183	0.63768
3824.34326	0.63661
3822.41470	0.63814
3820.48613	0.64146
3818.55757	0.64133
3816.62901	0.64198
3814.70044	0.64251
3812.77188	0.63999
3810.84331	0.63714
3808.91475	0.63598
3806.98618	0.63756
3805.05762	0.63905
3803.12905	0.64023
3801.20049	0.64349
3799.27193	0.64382
3797.34336	0.64185
3795.41480	0.64017
3793.48623	0.63817
3791.55767	0.63635
3789.62910	0.63496
3787.70054	0.63384
3785.77197	0.63386
3783.84341	0.63404
3781.91485	0.63274
3779.98628	0.63207
3778.05772	0.63337
3776.12915	0.63335
3774.20059	0.63134
3772.27202	0.62938
3770.34346	0.62891
3768.41489	0.62918
3766.48633	0.62930
3764.55777	0.62953
3762.62920	0.62916
3760.70064	0.62863
3758.77207	0.62980
3756.84351	0.63135
3754.91494	0.63011
3752.98638	0.62703
3751.05781	0.62981
3749.12925	0.63668
3747.20069	0.63777
3745.27212	0.63701
3743.34356	0.63530
3741.41499	0.63226
3739.48643	0.62966
3737.55786	0.62889
3735.62930	0.63136
3733.70074	0.63412
3731.77217	0.63405
3729.84361	0.63316
3727.91504	0.63266
3725.98648	0.63190
3724.05791	0.63042
3722.12935	0.62990
3720.20078	0.63061
3718.27222	0.63133
3716.34366	0.63195
3714.41509	0.63306
3712.48653	0.63536
3710.55796	0.63621
3708.62940	0.63341
3706.70083	0.63100
3704.77227	0.63075
3702.84370	0.63324
3700.91514	0.63681
3698.98658	0.63763
3697.05801	0.63650
3695.12945	0.63538
3693.20088	0.63508
3691.27232	0.63727
3689.34375	0.64269
3687.41519	0.64545
3685.48662	0.64502
3683.55806	0.64450
3681.62950	0.64550
3679.70093	0.64835
3677.77237	0.65177
3675.84380	0.65626
3673.91524	0.65964
3671.98667	0.66154
3670.05811	0.66864
3668.12954	0.67637
3666.20098	0.67937
3664.27242	0.68165
3662.34385	0.68487
3660.41529	0.68933
3658.48672	0.69466
3656.55816	0.70092
3654.62959	0.70565
3652.70103	0.70756
3650.77246	0.71149
3648.84390	0.72429
3646.91534	0.73458
3644.98677	0.73804
3643.05821	0.74120
3641.12964	0.74606
3639.20108	0.75121
3637.27251	0.75636
3635.34395	0.76318
3633.41538	0.77038
3631.48682	0.77525
3629.55826	0.78271
3627.62969	0.79395
3625.70113	0.80029
3623.77256	0.80470
3621.84400	0.80940
3619.91543	0.81643
3617.98687	0.82504
3616.05830	0.83132
3614.12974	0.83836
3612.20118	0.84765
3610.27261	0.85678
3608.34405	0.86602
3606.41548	0.87267
3604.48692	0.87594
3602.55835	0.88163
3600.62979	0.89080
3598.70123	0.89757
3596.77266	0.90215
3594.84410	0.90901
3592.91553	0.91692
3590.98697	0.92310
3589.05840	0.93059
3587.12984	0.94250
3585.20127	0.95274
3583.27271	0.95871
3581.34415	0.96391
3579.41558	0.97015
3577.48702	0.97661
3575.55845	0.98312
3573.62989	0.99010
3571.70132	0.99777
3569.77276	1.00616
3567.84419	1.01481
3565.91563	1.02305
3563.98707	1.03066
3562.05850	1.03939
3560.12994	1.04987
3558.20137	1.05978
3556.27281	1.06578
3554.34424	1.06955
3552.41568	1.07669
3550.48711	1.08698
3548.55855	1.09766
3546.62999	1.10846
3544.70142	1.11823
3542.77286	1.12582
3540.84429	1.13094
3538.91573	1.13572
3536.98716	1.14249
3535.05860	1.15044
3533.13003	1.15839
3531.20147	1.16645
3529.27291	1.17462
3527.34434	1.18444
3525.41578	1.19588
3523.48721	1.20525
3521.55865	1.21107
3519.63008	1.21527
3517.70152	1.22107
3515.77295	1.23105
3513.84439	1.24449
3511.91583	1.25663
3509.98726	1.26481
3508.05870	1.27417
3506.13013	1.28650
3504.20157	1.29877
3502.27300	1.31049
3500.34444	1.32128
3498.41587	1.33000
3496.48731	1.33806
3494.55875	1.34748
3492.63018	1.35659
3490.70162	1.36492
3488.77305	1.37192
3486.84449	1.37250
3484.91592	1.37064
3482.98736	1.37752
3481.05879	1.38942
3479.13023	1.39373
3477.20167	1.39251
3475.27310	1.39415
3473.34454	1.40064
3471.41597	1.40554
3469.48741	1.40526
3467.55884	1.40749
3465.63028	1.41509
3463.70171	1.42087
3461.77315	1.42206
3459.84459	1.42297
3457.91602	1.42759
3455.98746	1.43342
3454.05889	1.43526
3452.13033	1.43627
3450.20176	1.44268
3448.27320	1.45347
3446.34464	1.46010
3444.41607	1.45883
3442.48751	1.45965
3440.55894	1.46692
3438.63038	1.47564
3436.70181	1.48207
3434.77325	1.48129
3432.84468	1.47675
3430.91612	1.47526
3428.98756	1.47156
3427.05899	1.46592
3425.13043	1.46934
3423.20186	1.48073
3421.27330	1.48663
3419.34473	1.48264
3417.41617	1.47644
3415.48760	1.47455
3413.55904	1.47756
3411.63048	1.48257
3409.70191	1.48913
3407.77335	1.49526
3405.84478	1.49622
3403.91622	1.49301
3401.98765	1.49103
3400.05909	1.49281
3398.13052	1.49695
3396.20196	1.50166
3394.27340	1.50575
3392.34483	1.50622
3390.41627	1.50045
3388.48770	1.49185
3386.55914	1.48638
3384.63057	1.48630
3382.70201	1.49039
3380.77344	1.49527
3378.84488	1.49653
3376.91632	1.49494
3374.98775	1.49712
3373.05919	1.50270
3371.13062	1.50432
3369.20206	1.50305
3367.27349	1.50383
3365.34493	1.50657
3363.41636	1.51181
3361.48780	1.51722
3359.55924	1.51780
3357.63067	1.51725
3355.70211	1.52143
3353.77354	1.52716
3351.84498	1.52959
3349.91641	1.53076
3347.98785	1.53350
3346.05928	1.53574
3344.13072	1.53557
3342.20216	1.53437
3340.27359	1.53220
3338.34503	1.53101
3336.41646	1.53650
3334.48790	1.54519
3332.55933	1.54798
3330.63077	1.54803
3328.70220	1.55184
3326.77364	1.55804
3324.84508	1.56490
3322.91651	1.57029
3320.98795	1.57245
3319.05938	1.57392
3317.13082	1.57473
3315.20225	1.57690
3313.27369	1.58592
3311.34513	1.59820
3309.41656	1.60426
3307.48800	1.60126
3305.55943	1.59878
3303.63087	1.60492
3301.70230	1.61437
3299.77374	1.61915
3297.84517	1.61658
3295.91661	1.61443
3293.98805	1.62002
3292.05948	1.62213
3290.13092	1.61467
3288.20235	1.60901
3286.27379	1.60976
3284.34522	1.61406
3282.41666	1.61803
3280.48809	1.61733
3278.55953	1.61515
3276.63097	1.61513
3274.70240	1.61048
3272.77384	1.60044
3270.84527	1.59300
3268.91671	1.58782
3266.98814	1.58406
3265.05958	1.58317
3263.13101	1.58140
3261.20245	1.57682
3259.27389	1.56806
3257.34532	1.55491
3255.41676	1.54274
3253.48819	1.53340
3251.55963	1.52478
3249.63106	1.51685
3247.70250	1.50901
3245.77393	1.49984
3243.84537	1.48964
3241.91681	1.47845
3239.98824	1.46748
3238.05968	1.46007
3236.13111	1.45733
3234.20255	1.45760
3232.27398	1.45769
3230.34542	1.45505
3228.41685	1.44830
3226.48829	1.43781
3224.55973	1.42790
3222.63116	1.42055
3220.70260	1.41469
3218.77403	1.41008
3216.84547	1.40568
3214.91690	1.40128
3212.98834	1.39774
3211.05977	1.39507
3209.13121	1.39256
3207.20265	1.38831
3205.27408	1.38110
3203.34552	1.37297
3201.41695	1.36551
3199.48839	1.35835
3197.55982	1.35227
3195.63126	1.34711
3193.70269	1.34161
3191.77413	1.33571
3189.84557	1.33043
3187.91700	1.32751
3185.98844	1.32529
3184.05987	1.32050
3182.13131	1.31398
3180.20274	1.30804
3178.27418	1.30322
3176.34562	1.29755
3174.41705	1.29100
3172.48849	1.28777
3170.55992	1.28737
3168.63136	1.28390
3166.70279	1.27697
3164.77423	1.27073
3162.84566	1.26648
3160.91710	1.26278
3158.98854	1.25780
3157.05997	1.25165
3155.13141	1.24506
3153.20284	1.23781
3151.27428	1.23188
3149.34571	1.22986
3147.41715	1.22973
3145.48858	1.22779
3143.56002	1.22369
3141.63146	1.21916
3139.70289	1.21498
3137.77433	1.21153
3135.84576	1.20987
3133.91720	1.20989
3131.98863	1.21022
3130.06007	1.21004
3128.13150	1.20838
3126.20294	1.20550
3124.27438	1.20348
3122.34581	1.20275
3120.41725	1.20214
3118.48868	1.20079
3116.56012	1.19972
3114.63155	1.20127
3112.70299	1.20319
3110.77442	1.20115
3108.84586	1.19701
3106.91730	1.19479
3104.98873	1.19462
3103.06017	1.19426
3101.13160	1.19189
3099.20304	1.18880
3097.27447	1.18814
3095.34591	1.19033
3093.41734	1.19265
3091.48878	1.19301
3089.56022	1.19165
3087.63165	1.18915
3085.70309	1.18603
3083.77452	1.18326
3081.84596	1.18098
3079.91739	1.17804
3077.98883	1.17352
3076.06026	1.16934
3074.13170	1.16738
3072.20314	1.16545
3070.27457	1.16208
3068.34601	1.15895
3066.41744	1.15680
3064.48888	1.15449
3062.56031	1.15012
3060.63175	1.14372
3058.70318	1.13706
3056.77462	1.13075
3054.84606	1.12506
3052.91749	1.12002
3050.98893	1.11514
3049.06036	1.11017
3047.13180	1.10472
3045.20323	1.09918
3043.27467	1.09400
3041.34610	1.08916
3039.41754	1.08566
3037.48898	1.08332
3035.56041	1.07947
3033.63185	1.07365
3031.70328	1.06858
3029.77472	1.06510
3027.84615	1.06233
3025.91759	1.05977
3023.98903	1.05661
3022.06046	1.05326
3020.13190	1.05076
3018.20333	1.04852
3016.27477	1.04492
3014.34620	1.04002
3012.41764	1.03577
3010.48907	1.03306
3008.56051	1.03092
3006.63195	1.02839
3004.70338	1.02572
3002.77482	1.02367
3000.84625	1.02279
2998.91769	1.02308
2996.98912	1.02315
2995.06056	1.02248
2993.13199	1.02285
2991.20343	1.02598
2989.27487	1.03158
2987.34630	1.03798
2985.41774	1.04478
2983.48917	1.05226
2981.56061	1.05955
2979.63204	1.06649
2977.70348	1.07331
2975.77491	1.08034
2973.84635	1.08864
2971.91779	1.09750
2969.98922	1.10580
2968.06066	1.11388
2966.13209	1.12056
2964.20353	1.12496
2962.27496	1.12849
2960.34640	1.13073
2958.41783	1.12943
2956.48927	1.12393
2954.56071	1.11489
2952.63214	1.10524
2950.70358	1.09941
2948.77501	1.09792
2946.84645	1.09798
2944.91788	1.09939
2942.98932	1.10487
2941.06075	1.11440
2939.13219	1.12442
2937.20363	1.13368
2935.27506	1.14263
2933.34650	1.14988
2931.41793	1.15580
2929.48937	1.16280
2927.56080	1.16942
2925.63224	1.17270
2923.70367	1.17335
2921.77511	1.17129
2919.84655	1.16503
2917.91798	1.15561
2915.98942	1.14252
2914.06085	1.12450
2912.13229	1.10486
2910.20372	1.08788
2908.27516	1.07450
2906.34659	1.06352
2904.41803	1.05395
2902.48947	1.04685
2900.56090	1.04268
2898.63234	1.03874
2896.70377	1.03388
2894.77521	1.02987
2892.84664	1.02701
2890.91808	1.02424
2888.98952	1.02095
2887.06095	1.01702
2885.13239	1.01337
2883.20382	1.01173
2881.27526	1.01269
2879.34669	1.01484
2877.41813	1.01630
2875.48956	1.01570
2873.56100	1.01255
2871.63244	1.00678
2869.70387	0.99842
2867.77531	0.98854
2865.84674	0.97958
2863.91818	0.97337
2861.98961	0.96985
2860.06105	0.96930
2858.13248	0.97244
2856.20392	0.97767
2854.27536	0.98291
2852.34679	0.98687
2850.41823	0.98551
2848.48966	0.97379
2846.56110	0.95295
2844.63253	0.93062
2842.70397	0.91247
2840.77540	0.89909
2838.84684	0.88913
2836.91828	0.88144
2834.98971	0.87541
2833.06115	0.87021
2831.13258	0.86528
2829.20402	0.86107
2827.27545	0.85772
2825.34689	0.85450
2823.41832	0.85052
2821.48976	0.84641
2819.56120	0.84363
2817.63263	0.84133
2815.70407	0.83778
2813.77550	0.83339
2811.84694	0.82929
2809.91837	0.82573
2807.98981	0.82277
2806.06124	0.82019
2804.13268	0.81712
2802.20412	0.81361
2800.27555	0.81037
2798.34699	0.80713
2796.41842	0.80320
2794.48986	0.79906
2792.56129	0.79569
2790.63273	0.79338
2788.70416	0.79163
2786.77560	0.78968
2784.84704	0.78713
2782.91847	0.78454
2780.98991	0.78242
2779.06134	0.78028
2777.13278	0.77752
2775.20421	0.77474
2773.27565	0.77275
2771.34708	0.77105
2769.41852	0.76895
2767.48996	0.76670
2765.56139	0.76473
2763.63283	0.76291
2761.70426	0.76090
2759.77570	0.75884
2757.84713	0.75679
2755.91857	0.75453
2753.99001	0.75232
2752.06144	0.75058
2750.13288	0.74907
2748.20431	0.74750
2746.27575	0.74615
2744.34718	0.74501
2742.41862	0.74354
2740.49005	0.74160
2738.56149	0.73989
2736.63293	0.73880
2734.70436	0.73764
2732.77580	0.73579
2730.84723	0.73358
2728.91867	0.73171
2726.99010	0.73044
2725.06154	0.72942
2723.13297	0.72841
2721.20441	0.72730
2719.27585	0.72594
2717.34728	0.72465
2715.41872	0.72357
2713.49015	0.72197
2711.56159	0.71974
2709.63302	0.71774
2707.70446	0.71594
2705.77589	0.71365
2703.84733	0.71120
2701.91877	0.70944
2699.99020	0.70833
2698.06164	0.70719
2696.13307	0.70571
2694.20451	0.70414
2692.27594	0.70284
2690.34738	0.70169
2688.41881	0.70051
2686.49025	0.69932
2684.56169	0.69786
2682.63312	0.69611
2680.70456	0.69411
2678.77599	0.69170
2676.84743	0.68954
2674.91886	0.68814
2672.99030	0.68694
2671.06173	0.68558
2669.13317	0.68423
2667.20461	0.68291
2665.27604	0.68151
2663.34748	0.67999
2661.41891	0.67848
2659.49035	0.67698
2657.56178	0.67557
2655.63322	0.67439
2653.70465	0.67333
2651.77609	0.67218
2649.84753	0.67087
2647.91896	0.66952
2645.99040	0.66833
2644.06183	0.66749
2642.13327	0.66713
2640.20470	0.66690
2638.27614	0.66632
2636.34757	0.66549
2634.41901	0.66476
2632.49045	0.66410
2630.56188	0.66332
2628.63332	0.66261
2626.70475	0.66209
2624.77619	0.66126
2622.84762	0.66002
2620.91906	0.65881
2618.99049	0.65789
2617.06193	0.65692
2615.13337	0.65527
2613.20480	0.65329
2611.27624	0.65213
2609.34767	0.65171
2607.41911	0.65084
2605.49054	0.64943
2603.56198	0.64839
2601.63342	0.64772
2599.70485	0.64699
2597.77629	0.64585
2595.84772	0.64440
2593.91916	0.64332
2591.99059	0.64280
2590.06203	0.64200
2588.13346	0.64048
2586.20490	0.63866
2584.27634	0.63714
2582.34777	0.63602
2580.41921	0.63485
2578.49064	0.63327
2576.56208	0.63153
2574.63351	0.63001
2572.70495	0.62891
2570.77638	0.62790
2568.84782	0.62635
2566.91926	0.62441
2564.99069	0.62277
2563.06213	0.62154
2561.13356	0.62024
2559.20500	0.61885
2557.27643	0.61779
2555.34787	0.61698
2553.41930	0.61618
2551.49074	0.61539
2549.56218	0.61447
2547.63361	0.61341
2545.70505	0.61211
2543.77648	0.61052
2541.84792	0.60929
2539.91935	0.60878
2537.99079	0.60856
2536.06222	0.60820
2534.13366	0.60754
2532.20510	0.60681
2530.27653	0.60615
2528.34797	0.60542
2526.41940	0.60459
2524.49084	0.60372
2522.56227	0.60270
2520.63371	0.60167
2518.70514	0.60084
2516.77658	0.60007
2514.84802	0.59908
2512.91945	0.59798
2510.99089	0.59699
2509.06232	0.59593
2507.13376	0.59453
2505.20519	0.59302
2503.27663	0.59181
2501.34806	0.59088
2499.41950	0.58985
2497.49094	0.58853
2495.56237	0.58723
2493.63381	0.58613
2491.70524	0.58535
2489.77668	0.58481
2487.84811	0.58400
2485.91955	0.58264
2483.99098	0.58113
2482.06242	0.58007
2480.13386	0.57946
2478.20529	0.57874
2476.27673	0.57788
2474.34816	0.57715
2472.41960	0.57624
2470.49103	0.57502
2468.56247	0.57400
2466.63391	0.57294
2464.70534	0.57131
2462.77678	0.56948
2460.84821	0.56783
2458.91965	0.56643
2456.99108	0.56554
2455.06252	0.56483
2453.13395	0.56359
2451.20539	0.56197
2449.27683	0.56057
2447.34826	0.55951
2445.41970	0.55852
2443.49113	0.55735
2441.56257	0.55627
2439.63400	0.55532
2437.70544	0.55430
2435.77687	0.55332
2433.84831	0.55246
2431.91975	0.55153
2429.99118	0.55065
2428.06262	0.54986
2426.13405	0.54906
2424.20549	0.54830
2422.27692	0.54742
2420.34836	0.54633
2418.41979	0.54547
2416.49123	0.54490
2414.56267	0.54423
2412.63410	0.54335
2410.70554	0.54238
2408.77697	0.54135
2406.84841	0.54040
2404.91984	0.53969
2402.99128	0.53913
2401.06271	0.53840
2399.13415	0.53740
2397.20559	0.53642
2395.27702	0.53577
2393.34846	0.53535
2391.41989	0.53489
2389.49133	0.53426
2387.56276	0.53353
2385.63420	0.53275
2383.70563	0.53208
2381.77707	0.53170
2379.84851	0.53172
2377.91994	0.53229
2375.99138	0.53279
2374.06281	0.53230
2372.13425	0.53183
2370.20568	0.53261
2368.27712	0.53279
2366.34855	0.53075
2364.41999	0.52903
2362.49143	0.52977
2360.56286	0.53093
2358.63430	0.53084
2356.70573	0.53008
2354.77717	0.52844
2352.84860	0.52535
2350.92004	0.52206
2348.99147	0.51962
2347.06291	0.51761
2345.13435	0.51593
2343.20578	0.51602
2341.27722	0.51699
2339.34865	0.51644
2337.42009	0.51539
2335.49152	0.51573
2333.56296	0.51701
2331.63440	0.51744
2329.70583	0.51616
2327.77727	0.51399
2325.84870	0.51250
2323.92014	0.51198
2321.99157	0.51104
2320.06301	0.50974
2318.13444	0.50923
2316.20588	0.50910
2314.27732	0.50843
2312.34875	0.50699
2310.42019	0.50526
2308.49162	0.50408
2306.56306	0.50345
2304.63449	0.50269
2302.70593	0.50172
2300.77736	0.50080
2298.84880	0.50020
2296.92024	0.49987
2294.99167	0.49924
2293.06311	0.49815
2291.13454	0.49704
2289.20598	0.49615
2287.27741	0.49536
2285.34885	0.49465
2283.42028	0.49407
2281.49172	0.49348
2279.56316	0.49273
2277.63459	0.49194
2275.70603	0.49144
2273.77746	0.49104
2271.84890	0.49047
2269.92033	0.48999
2267.99177	0.48980
2266.06320	0.48959
2264.13464	0.48932
2262.20608	0.48905
2260.27751	0.48848
2258.34895	0.48768
2256.42038	0.48702
2254.49182	0.48636
2252.56325	0.48548
2250.63469	0.48458
2248.70612	0.48381
2246.77756	0.48293
2244.84900	0.48178
2242.92043	0.48054
2240.99187	0.47935
2239.06330	0.47815
2237.13474	0.47694
2235.20617	0.47582
2233.27761	0.47495
2231.34904	0.47431
2229.42048	0.47381
2227.49192	0.47342
2225.56335	0.47297
2223.63479	0.47232
2221.70622	0.47182
2219.77766	0.47162
2217.84909	0.47143
2215.92053	0.47123
2213.99196	0.47115
2212.06340	0.47126
2210.13484	0.47152
2208.20627	0.47177
2206.27771	0.47187
2204.34914	0.47175
2202.42058	0.47156
2200.49201	0.47137
2198.56345	0.47116
2196.63488	0.47097
2194.70632	0.47072
2192.77776	0.47039
2190.84919	0.47014
2188.92063	0.46994
2186.99206	0.46964
2185.06350	0.46927
2183.13493	0.46896
2181.20637	0.46868
2179.27781	0.46838
2177.34924	0.46816
2175.42068	0.46807
2173.49211	0.46821
2171.56355	0.46859
2169.63498	0.46896
2167.70642	0.46915
2165.77785	0.46922
2163.84929	0.46940
2161.92073	0.46972
2159.99216	0.46982
2158.06360	0.46964
2156.13503	0.46944
2154.20647	0.46928
2152.27790	0.46898
2150.34934	0.46851
2148.42077	0.46801
2146.49221	0.46754
2144.56365	0.46697
2142.63508	0.46625
2140.70652	0.46566
2138.77795	0.46522
2136.84939	0.46470
2134.92082	0.46409
2132.99226	0.46356
2131.06369	0.46325
2129.13513	0.46295
2127.20657	0.46257
2125.27800	0.46233
2123.34944	0.46226
2121.42087	0.46225
2119.49231	0.46221
2117.56374	0.46202
2115.63518	0.46176
2113.70661	0.46152
2111.77805	0.46123
2109.84949	0.46096
2107.92092	0.46069
2105.99236	0.46022
2104.06379	0.45950
2102.13523	0.45868
2100.20666	0.45797
2098.27810	0.45745
2096.34953	0.45679
2094.42097	0.45576
2092.49241	0.45455
2090.56384	0.45354
2088.63528	0.45286
2086.70671	0.45222
2084.77815	0.45144
2082.84958	0.45066
2080.92102	0.45001
2078.99245	0.44944
2077.06389	0.44885
2075.13533	0.44837
2073.20676	0.44814
2071.27820	0.44798
2069.34963	0.44789
2067.42107	0.44803
2065.49250	0.44822
2063.56394	0.44820
2061.63537	0.44812
2059.70681	0.44810
2057.77825	0.44798
2055.84968	0.44770
2053.92112	0.44733
2051.99255	0.44687
2050.06399	0.44650
2048.13542	0.44615
2046.20686	0.44567
2044.27830	0.44526
2042.34973	0.44503
2040.42117	0.44479
2038.49260	0.44440
2036.56404	0.44393
2034.63547	0.44349
2032.70691	0.44312
2030.77834	0.44272
2028.84978	0.44224
2026.92122	0.44180
2024.99265	0.44153
2023.06409	0.44144
2021.13552	0.44137
2019.20696	0.44126
2017.27839	0.44116
2015.34983	0.44107
2013.42126	0.44085
2011.49270	0.44055
2009.56414	0.44029
2007.63557	0.43998
2005.70701	0.43949
2003.77844	0.43893
2001.84988	0.43838
1999.92131	0.43780
1997.99275	0.43716
1996.06418	0.43652
1994.13562	0.43594
1992.20706	0.43541
1990.27849	0.43486
1988.34993	0.43421
1986.42136	0.43364
1984.49280	0.43327
1982.56423	0.43300
1980.63567	0.43261
1978.70710	0.43201
1976.77854	0.43134
1974.84998	0.43079
1972.92141	0.43049
1970.99285	0.43021
1969.06428	0.42978
1967.13572	0.42922
1965.20715	0.42853
1963.27859	0.42779
1961.35002	0.42712
1959.42146	0.42644
1957.49290	0.42568
1955.56433	0.42499
1953.63577	0.42442
1951.70720	0.42385
1949.77864	0.42335
1947.85007	0.42303
1945.92151	0.42294
1943.99294	0.42305
1942.06438	0.42323
1940.13582	0.42333
1938.20725	0.42345
1936.27869	0.42368
1934.35012	0.42400
1932.42156	0.42446
1930.49299	0.42504
1928.56443	0.42558
1926.63586	0.42601
1924.70730	0.42661
1922.77874	0.42742
1920.85017	0.42783
1918.92161	0.42792
1916.99304	0.42806
1915.06448	0.42786
1913.13591	0.42737
1911.20735	0.42707
1909.27878	0.42690
1907.35022	0.42640
1905.42166	0.42566
1903.49309	0.42496
1901.56453	0.42425
1899.63596	0.42352
1897.70740	0.42286
1895.77883	0.42243
1893.85027	0.42211
1891.92171	0.42181
1889.99314	0.42178
1888.06458	0.42174
1886.13601	0.42149
1884.20745	0.42144
1882.27888	0.42166
1880.35032	0.42182
1878.42175	0.42179
1876.49319	0.42164
1874.56463	0.42139
1872.63606	0.42108
1870.70750	0.42095
1868.77893	0.42124
1866.85037	0.42123
1864.92180	0.42059
1862.99324	0.41990
1861.06467	0.41929
1859.13611	0.41857
1857.20755	0.41776
1855.27898	0.41718
1853.35042	0.41692
1851.42185	0.41678
1849.49329	0.41669
1847.56472	0.41673
1845.63616	0.41722
1843.70759	0.41824
1841.77903	0.41884
1839.85047	0.41899
1837.92190	0.41938
1835.99334	0.42001
1834.06477	0.42041
1832.13621	0.42073
1830.20764	0.42136
1828.27908	0.42181
1826.35051	0.42173
1824.42195	0.42157
1822.49339	0.42134
1820.56482	0.42090
1818.63626	0.42042
1816.70769	0.41990
1814.77913	0.41933
1812.85056	0.41878
1810.92200	0.41833
1808.99343	0.41795
1807.06487	0.41755
1805.13631	0.41711
1803.20774	0.41672
1801.27918	0.41668
1799.35061	0.41683
1797.42205	0.41687
1795.49348	0.41713
1793.56492	0.41814
1791.63635	0.41975
1789.70779	0.42055
1787.77923	0.42095
1785.85066	0.42173
1783.92210	0.42270
1781.99353	0.42352
1780.06497	0.42432
1778.13640	0.42509
1776.20784	0.42562
1774.27927	0.42636
1772.35071	0.42775
1770.42215	0.42885
1768.49358	0.42930
1766.56502	0.42961
1764.63645	0.42997
1762.70789	0.43087
1760.77932	0.43253
1758.85076	0.43442
1756.92220	0.43700
1754.99363	0.43982
1753.06507	0.44249
1751.13650	0.44696
1749.20794	0.45389
1747.27937	0.46011
1745.35081	0.46490
1743.42224	0.46942
1741.49368	0.47406
1739.56512	0.47835
1737.63655	0.48110
1735.70799	0.48309
1733.77942	0.48703
1731.85086	0.49079
1729.92229	0.49318
1727.99373	0.49583
1726.06516	0.49894
1724.13660	0.50316
1722.20804	0.50759
1720.27947	0.51164
1718.35091	0.51841
1716.42234	0.53140
1714.49378	0.54352
1712.56521	0.55336
1710.63665	0.56433
1708.70808	0.57780
1706.77952	0.59856
1704.85096	0.62742
1702.92239	0.65446
1700.99383	0.69294
1699.06526	0.75645
1697.13670	0.81938
1695.20813	0.88192
1693.27957	0.92867
1691.35100	0.96686
1689.42244	1.01408
1687.49388	1.05816
1685.56531	1.10212
1683.63675	1.17623
1681.70818	1.23395
1679.77962	1.26482
1677.85105	1.29173
1675.92249	1.32460
1673.99392	1.36198
1672.06536	1.39154
1670.13680	1.42109
1668.20823	1.44930
1666.27967	1.46221
1664.35110	1.47235
1662.42254	1.48488
1660.49397	1.49282
1658.56541	1.49738
1656.63684	1.50044
1654.70828	1.50378
1652.77972	1.50562
1650.85115	1.50451
1648.92259	1.50285
1646.99402	1.49694
1645.06546	1.48931
1643.13689	1.48367
1641.20833	1.47965
1639.27976	1.47675
1637.35120	1.47455
1635.42264	1.46672
1633.49407	1.45663
1631.56551	1.45001
1629.63694	1.44108
1627.70838	1.42856
1625.77981	1.41592
1623.85125	1.39994
1621.92269	1.37720
1619.99412	1.35653
1618.06556	1.33177
1616.13699	1.29181
1614.20843	1.25792
1612.27986	1.23187
1610.35130	1.20429
1608.42273	1.17592
1606.49417	1.15169
1604.56561	1.13321
1602.63704	1.11885
1600.70848	1.10808
1598.77991	1.10056
1596.85135	1.09542
1594.92278	1.09233
1592.99422	1.09162
1591.06565	1.09350
1589.13709	1.09833
1587.20853	1.10643
1585.27996	1.11733
1583.35140	1.13081
1581.42283	1.14530
1579.49427	1.15845
1577.56570	1.17425
1575.63714	1.19852
1573.70857	1.21678
1571.78001	1.22889
1569.85145	1.24647
1567.92288	1.26629
1565.99432	1.28187
1564.06575	1.29690
1562.13719	1.30880
1560.20862	1.32070
1558.28006	1.34111
1556.35149	1.34989
1554.42293	1.35214
1552.49437	1.35210
1550.56580	1.34962
1548.63724	1.34474
1546.70867	1.33841
1544.78011	1.33117
1542.85154	1.32545
1540.92298	1.31947
1538.99441	1.30234
1537.06585	1.29029
1535.13729	1.28180
1533.20872	1.27218
1531.28016	1.26379
1529.35159	1.25796
1527.42303	1.25164
1525.49446	1.24488
1523.56590	1.24126
1521.63733	1.23917
1519.70877	1.23546
1517.78021	1.22655
1515.85164	1.21094
1513.92308	1.19353
1511.99451	1.17611
1510.06595	1.15931
1508.13738	1.13454
1506.20882	1.08904
1504.28025	1.06298
1502.35169	1.04679
1500.42313	1.02862
1498.49456	1.00548
1496.56600	0.97927
1494.63743	0.96007
1492.70887	0.94720
1490.78030	0.93297
1488.85174	0.91551
1486.92317	0.90314
1484.99461	0.89595
1483.06605	0.89127
1481.13748	0.88902
1479.20892	0.88992
1477.28035	0.89448
1475.35179	0.90360
1473.42322	0.92090
1471.49466	0.94158
1469.56610	0.95328
1467.63753	0.96083
1465.70897	0.97032
1463.78040	0.98081
1461.85184	0.98725
1459.92327	0.99176
1457.99471	1.00133
1456.06614	1.01371
1454.13758	1.01676
1452.20902	1.01642
1450.28045	1.01529
1448.35189	1.01273
1446.42332	1.00837
1444.49476	1.00325
1442.56619	0.99773
1440.63763	0.99214
1438.70906	0.98566
1436.78050	0.97495
1434.85194	0.96278
1432.92337	0.95374
1430.99481	0.94489
1429.06624	0.93585
1427.13768	0.92973
1425.20911	0.92683
1423.28055	0.92603
1421.35198	0.92659
1419.42342	0.92966
1417.49486	0.93413
1415.56629	0.93602
1413.63773	0.93664
1411.70916	0.93715
1409.78060	0.93767
1407.85203	0.93861
1405.92347	0.94096
1403.99490	0.94481
1402.06634	0.94839
1400.13778	0.95153
1398.20921	0.95460
1396.28065	0.95761
1394.35208	0.96121
1392.42352	0.96524
1390.49495	0.97052
1388.56639	0.98091
1386.63782	0.99811
1384.70926	1.01503
1382.78070	1.02844
1380.85213	1.03835
1378.92357	1.04191
1376.99500	1.03789
1375.06644	1.02562
1373.13787	1.00649
1371.20931	0.98627
1369.28074	0.96414
1367.35218	0.94011
1365.42362	0.91850
1363.49505	0.89830
1361.56649	0.88001
1359.63792	0.86752
1357.70936	0.85949
1355.78079	0.85384
1353.85223	0.85004
1351.92366	0.84763
1349.99510	0.84619
1348.06654	0.84565
1346.13797	0.84569
1344.20941	0.84610
1342.28084	0.84724
1340.35228	0.84979
1338.42371	0.85371
1336.49515	0.85883
1334.56659	0.86615
1332.63802	0.87557
1330.70946	0.88504
1328.78089	0.89258
1326.85233	0.89767
1324.92376	0.90050
1322.99520	0.90211
1321.06663	0.90386
1319.13807	0.90585
1317.20951	0.90746
1315.28094	0.90841
1313.35238	0.90898
1311.42381	0.90929
1309.49525	0.90879
1307.56668	0.90691
1305.63812	0.90406
1303.70955	0.90119
1301.78099	0.89843
1299.85243	0.89488
1297.92386	0.88978
1295.99530	0.88429
1294.06673	0.88046
1292.13817	0.87901
1290.20960	0.87959
1288.28104	0.88149
1286.35247	0.88401
1284.42391	0.88648
1282.49535	0.88868
1280.56678	0.89120
1278.63822	0.89454
1276.70965	0.89863
1274.78109	0.90384
1272.85252	0.91102
1270.92396	0.91992
1268.99539	0.92906
1267.06683	0.93746
1265.13827	0.94445
1263.20970	0.94901
1261.28114	0.95090
1259.35257	0.95109
1257.42401	0.95070
1255.49544	0.95056
1253.56688	0.95080
1251.63831	0.95067
1249.70975	0.95027
1247.78119	0.95043
1245.85262	0.95099
1243.92406	0.95110
1241.99549	0.95045
1240.06693	0.94896
1238.13836	0.94634
1236.20980	0.94247
1234.28123	0.93728
1232.35267	0.93055
1230.42411	0.92213
1228.49554	0.91205
1226.56698	0.90072
1224.63841	0.88904
1222.70985	0.87773
1220.78128	0.86680
1218.85272	0.85629
1216.92415	0.84690
1214.99559	0.83956
1213.06703	0.83522
1211.13846	0.83431
1209.20990	0.83562
1207.28133	0.83624
1205.35277	0.83300
1203.42420	0.82471
1201.49564	0.81306
1199.56708	0.80004
1197.63851	0.78653
1195.70995	0.77365
1193.78138	0.76262
1191.85282	0.75399
1189.92425	0.74778
1187.99569	0.74386
1186.06712	0.74198
1184.13856	0.74214
1182.21000	0.74464
1180.28143	0.74966
1178.35287	0.75711
1176.42430	0.76650
1174.49574	0.77729
1172.56717	0.78928
1170.63861	0.80292
1168.71004	0.81934
1166.78148	0.83952
1164.85292	0.86314
1162.92435	0.88792
1160.99579	0.91008
1159.06722	0.92528
1157.13866	0.93019
1155.21009	0.92465
1153.28153	0.91092
1151.35296	0.89168
1149.42440	0.87011
1147.49584	0.84940
1145.56727	0.83180
1143.63871	0.81886
1141.71014	0.81152
1139.78158	0.80942
1137.85301	0.81144
1135.92445	0.81701
1133.99588	0.82672
1132.06732	0.84112
1130.13876	0.85975
1128.21019	0.88139
1126.28163	0.90348
1124.35306	0.92336
1122.42450	0.94043
1120.49593	0.95501
1118.56737	0.96652
1116.63880	0.97415
1114.71024	0.97717
1112.78168	0.97517
1110.85311	0.96895
1108.92455	0.96052
1106.99598	0.95231
1105.06742	0.94546
1103.13885	0.93987
1101.21029	0.93645
1099.28172	0.93644
1097.35316	0.93961
1095.42460	0.94570
1093.49603	0.95530
1091.56747	0.96863
1089.63890	0.98544
1087.71034	1.00531
1085.78177	1.02684
1083.85321	1.04767
1081.92464	1.06603
1079.99608	1.08049
1078.06752	1.08896
1076.13895	1.09036
1074.21039	1.08544
1072.28182	1.07484
1070.35326	1.05914
1068.42469	1.04047
1066.49613	1.02152
1064.56756	1.00370
1062.63900	0.98729
1060.71044	0.97187
1058.78187	0.95718
1056.85331	0.94389
1054.92474	0.93282
1052.99618	0.92427
1051.06761	0.91869
1049.13905	0.91708
1047.21049	0.92033
1045.28192	0.92898
1043.35336	0.94229
1041.42479	0.95726
1039.49623	0.97056
1037.56766	0.98139
1035.63910	0.99023
1033.71053	0.99632
1031.78197	0.99864
1029.85341	0.99717
1027.92484	0.99177
1025.99628	0.98274
1024.06771	0.97176
1022.13915	0.96065
1020.21058	0.95076
1018.28202	0.94271
1016.35345	0.93485
1014.42489	0.92418
1012.49633	0.90838
1010.56776	0.88719
1008.63920	0.86307
1006.71063	0.83907
1004.78207	0.81669
1002.85350	0.79679
1000.92494	0.78037
998.99637	0.76763
997.06781	0.75755
995.13925	0.74882
993.21068	0.74019
991.28212	0.73071
989.35355	0.72064
987.42499	0.71091
985.49642	0.70203
983.56786	0.69485
981.63929	0.69036
979.71073	0.68843
977.78217	0.68778
975.85360	0.68651
973.92504	0.68276
971.99647	0.67564
970.06791	0.66568
968.13934	0.65470
966.21078	0.64505
964.28221	0.63880
962.35365	0.63782
960.42509	0.64345
958.49652	0.65461
956.56796	0.66613
954.63939	0.67128
952.71083	0.66786
950.78226	0.65915
948.85370	0.64944
946.92513	0.64134
944.99657	0.63591
943.06801	0.63285
941.13944	0.63116
939.21088	0.63024
937.28231	0.62989
935.35375	0.62995
933.42518	0.63043
931.49662	0.63135
929.56805	0.63229
927.63949	0.63332
925.71093	0.63494
923.78236	0.63676
921.85380	0.63789
919.92523	0.63783
917.99667	0.63670
916.06810	0.63515
914.13954	0.63394
912.21098	0.63374
910.28241	0.63515
908.35385	0.63850
906.42528	0.64349
904.49672	0.64943
902.56815	0.65554
900.63959	0.66115
898.71102	0.66595
896.78246	0.66963
894.85390	0.67205
892.92533	0.67360
890.99677	0.67465
889.06820	0.67563
887.13964	0.67711
885.21107	0.67950
883.28251	0.68291
881.35394	0.68712
879.42538	0.69159
877.49682	0.69575
875.56825	0.69923
873.63969	0.70216
871.71112	0.70473
869.78256	0.70680
867.85399	0.70835
865.92543	0.70996
863.99686	0.71208
862.06830	0.71456
860.13974	0.71750
858.21117	0.72118
856.28261	0.72551
854.35404	0.73024
852.42548	0.73505
850.49691	0.73964
848.56835	0.74416
846.63978	0.74944
844.71122	0.75578
842.78266	0.76259
840.85409	0.76956
838.92553	0.77672
836.99696	0.78359
835.06840	0.78976
833.13983	0.79535
831.21127	0.80014
829.28270	0.80344
827.35414	0.80477
825.42558	0.80424
823.49701	0.80259
821.56845	0.80061
819.63988	0.79828
817.71132	0.79525
815.78275	0.79176
813.85419	0.78830
811.92562	0.78523
809.99706	0.78304
808.06850	0.78211
806.13993	0.78221
804.21137	0.78313
802.28280	0.78526
800.35424	0.78920
798.42567	0.79534
796.49711	0.80323
794.56854	0.81226
792.63998	0.82252
790.71142	0.83378
788.78285	0.84518
786.85429	0.85649
784.92572	0.86773
782.99716	0.87826
781.06859	0.88771
779.14003	0.89610
777.21147	0.90316
775.28290	0.90869
773.35434	0.91251
771.42577	0.91412
769.49721	0.91388
767.56864	0.91330
765.64008	0.91258
763.71151	0.91133
761.78295	0.91025
759.85439	0.90947
757.92582	0.90888
755.99726	0.90902
754.06869	0.91003
752.14013	0.91195
750.21156	0.91478
748.28300	0.91800
746.35443	0.92123
744.42587	0.92484
742.49731	0.92907
740.56874	0.93348
738.64018	0.93782
736.71161	0.94202
734.78305	0.94620
732.85448	0.95097
730.92592	0.95594
728.99735	0.95917
727.06879	0.96003
725.14023	0.96013
723.21166	0.96039
721.28310	0.96018
719.35453	0.95901
717.42597	0.95714
715.49740	0.95519
713.56884	0.95364
711.64027	0.95241
709.71171	0.95151
707.78315	0.95141
705.85458	0.95227
703.92602	0.95424
701.99745	0.95699
700.06889	0.95975
698.14032	0.96246
696.21176	0.96462
694.28319	0.96609
692.35463	0.96841
690.42607	0.97160
688.49750	0.97414
686.56894	0.97601
684.64037	0.97759
682.71181	0.97874
680.78324	0.97976
678.85468	0.98043
676.92611	0.97950
674.99755	0.97618
673.06899	0.97167
671.14042	0.96765
669.21186	0.96286
667.28329	0.95665
665.35473	0.95268
663.42616	0.95034
661.49760	0.94884
659.56903	0.94740
657.64047	0.94556
655.71191	0.94412
653.78334	0.94397
651.85478	0.94570
649.92621	0.94826
647.99765	0.95058
646.06908	0.95427
644.14052	0.95985
642.21195	0.96495
640.28339	0.96885
638.35483	0.97191
636.42626	0.97329
634.49770	0.97409
632.56913	0.97585
630.64057	0.97713
628.71200	0.97623
626.78344	0.97499
624.85488	0.97681
622.92631	0.97974
620.99775	0.97933
619.06918	0.97641
617.14062	0.97266
615.21205	0.96869
613.28349	0.96760
611.35492	0.97079
609.42636	0.97665
607.49780	0.98368
605.56923	0.98976
603.64067	0.99261
601.71210	0.99331
599.78354	0.99537
