3997.91406	0.81545
3995.98550	0.81521
3994.05693	0.81390
3992.12837	0.81349
3990.19980	0.81495
3988.27124	0.81608
3986.34268	0.81558
3984.41411	0.81374
3982.48555	0.81118
3980.55698	0.81066
3978.62842	0.81342
3976.69985	0.81587
3974.77129	0.81615
3972.84272	0.81629
3970.91416	0.81632
3968.98560	0.81483
3967.05703	0.81304
3965.12847	0.81319
3963.19990	0.81525
3961.27134	0.81667
3959.34277	0.81671
3957.41421	0.81729
3955.48564	0.81822
3953.55708	0.81834
3951.62852	0.81771
3949.69995	0.81570
3947.77139	0.81329
3945.84282	0.81243
3943.91426	0.81203
3941.98569	0.81132
3940.05713	0.81119
3938.12856	0.81171
3936.20000	0.81135
3934.27144	0.80887
3932.34287	0.80632
3930.41431	0.80644
3928.48574	0.80774
3926.55718	0.80783
3924.62861	0.80641
3922.70005	0.80581
3920.77148	0.80625
3918.84292	0.80490
3916.91436	0.80163
3914.98579	0.79934
3913.05723	0.79854
3911.12866	0.79826
3909.20010	0.79825
3907.27153	0.79876
3905.34297	0.79862
3903.41440	0.79634
3901.48584	0.79531
3899.55728	0.79633
3897.62871	0.79684
3895.70015	0.79709
3893.77158	0.79735
3891.84302	0.79660
3889.91445	0.79525
3887.98589	0.79494
3886.05733	0.79556
3884.12876	0.79570
3882.20020	0.79492
3880.27163	0.79430
3878.34307	0.79495
3876.41450	0.79591
3874.48594	0.79600
3872.55737	0.79557
3870.62881	0.79538
3868.70025	0.79456
3866.77168	0.79281
3864.84312	0.79185
3862.91455	0.79347
3860.98599	0.79472
3859.05742	0.79383
3857.12886	0.79302
3855.20029	0.79333
3853.27173	0.78947
3851.34317	0.78462
3849.41460	0.78309
3847.48604	0.78178
3845.55747	0.78116
3843.62891	0.78195
3841.70034	0.78295
3839.77178	0.78435
3837.84321	0.78505
3835.91465	0.78170
3833.98609	0.77786
3832.05752	0.77739
3830.12896	0.77845
3828.20039	0.77766
3826.27183	0.77538
3824.34326	0.77471
3822.41470	0.77602
3820.48613	0.77614
3818.55757	0.77586
3816.62901	0.77614
3814.70044	0.77486
3812.77188	0.77399
3810.84331	0.77470
3808.91475	0.77584
3806.98618	0.77649
3805.05762	0.77688
3803.12905	0.77666
3801.20049	0.77598
3799.27193	0.77711
3797.34336	0.77752
3795.41480	0.77529
3793.48623	0.77356
3791.55767	0.77322
3789.62910	0.77249
3787.70054	0.77195
3785.77197	0.77279
3783.84341	0.77345
3781.91485	0.77354
3779.98628	0.77452
3778.05772	0.77526
3776.12915	0.77408
3774.20059	0.77217
3772.27202	0.77153
3770.34346	0.77256
3768.41489	0.77317
3766.48633	0.77165
3764.55777	0.76908
3762.62920	0.76800
3760.70064	0.76774
3758.77207	0.76660
3756.84351	0.76591
3754.91494	0.76613
3752.98638	0.76583
3751.05781	0.76462
3749.12925	0.76570
3747.20069	0.76745
3745.27212	0.76628
3743.34356	0.76496
3741.41499	0.76690
3739.48643	0.76851
3737.55786	0.76717
3735.62930	0.76577
3733.70074	0.76830
3731.77217	0.77012
3729.84361	0.77085
3727.91504	0.77139
3725.98648	0.77093
3724.05791	0.77004
3722.12935	0.76935
3720.20078	0.76858
3718.27222	0.76827
3716.34366	0.76797
3714.41509	0.76648
3712.48653	0.76475
3710.55796	0.76670
3708.62940	0.76905
3706.70083	0.76923
3704.77227	0.76917
3702.84370	0.76969
3700.91514	0.76981
3698.98658	0.76856
3697.05801	0.76820
3695.12945	0.77053
3693.20088	0.77360
3691.27232	0.77448
3689.34375	0.77280
3687.41519	0.77318
3685.48662	0.77536
3683.55806	0.77728
3681.62950	0.77900
3679.70093	0.78121
3677.77237	0.78347
3675.84380	0.78572
3673.91524	0.78928
3671.98667	0.79290
3670.05811	0.79737
3668.12954	0.80250
3666.20098	0.80833
3664.27242	0.81617
3662.34385	0.82423
3660.41529	0.82993
3658.48672	0.83388
3656.55816	0.83940
3654.62959	0.84799
3652.70103	0.85816
3650.77246	0.86870
3648.84390	0.87373
3646.91534	0.87592
3644.98677	0.88169
3643.05821	0.88982
3641.12964	0.89895
3639.20108	0.90725
3637.27251	0.91375
3635.34395	0.91913
3633.41538	0.92406
3631.48682	0.92841
3629.55826	0.93644
3627.62969	0.94830
3625.70113	0.95521
3623.77256	0.96036
3621.84400	0.96676
3619.91543	0.97544
3617.98687	0.98519
3616.05830	0.99352
3614.12974	1.00032
3612.20118	1.00536
3610.27261	1.01037
3608.34405	1.01630
3606.41548	1.02112
3604.48692	1.02555
3602.55835	1.03230
3600.62979	1.04150
3598.70123	1.04939
3596.77266	1.05465
3594.84410	1.06219
3592.91553	1.07092
3590.98697	1.07569
3589.05840	1.08152
3587.12984	1.09244
3585.20127	1.10113
3583.27271	1.10789
3581.34415	1.11593
3579.41558	1.12349
3577.48702	1.12919
3575.55845	1.13584
3573.62989	1.14512
3571.70132	1.15373
3569.77276	1.15873
3567.84419	1.16407
3565.91563	1.17524
3563.98707	1.18412
3562.05850	1.18816
3560.12994	1.19215
3558.20137	1.19743
3556.27281	1.20229
3554.34424	1.20888
3552.41568	1.21769
3550.48711	1.22400
3548.55855	1.23017
3546.62999	1.23912
3544.70142	1.24621
3542.77286	1.25082
3540.84429	1.25674
3538.91573	1.26307
3536.98716	1.26766
3535.05860	1.27048
3533.13003	1.27118
3531.20147	1.27099
3529.27291	1.27268
3527.34434	1.27858
3525.41578	1.28979
3523.48721	1.30146
3521.55865	1.30686
3519.63008	1.30791
3517.70152	1.31018
3515.77295	1.31524
3513.84439	1.31942
3511.91583	1.31944
3509.98726	1.32054
3508.05870	1.32956
3506.13013	1.34322
3504.20157	1.35306
3502.27300	1.35563
3500.34444	1.35914
3498.41587	1.36771
3496.48731	1.37648
3494.55875	1.38202
3492.63018	1.38377
3490.70162	1.38369
3488.77305	1.38840
3486.84449	1.39885
3484.91592	1.40587
3482.98736	1.40834
3481.05879	1.41067
3479.13023	1.41242
3477.20167	1.41419
3475.27310	1.41586
3473.34454	1.41866
3471.41597	1.42483
3469.48741	1.43171
3467.55884	1.43434
3465.63028	1.43080
3463.70171	1.42875
3461.77315	1.43550
3459.84459	1.44328
3457.91602	1.44355
3455.98746	1.44179
3454.05889	1.44374
3452.13033	1.44637
3450.20176	1.44589
3448.27320	1.44330
3446.34464	1.44211
3444.41607	1.44324
3442.48751	1.44612
3440.55894	1.44935
3438.63038	1.45024
3436.70181	1.44958
3434.77325	1.44994
3432.84468	1.45122
3430.91612	1.45166
3428.98756	1.45015
3427.05899	1.44698
3425.13043	1.44502
3423.20186	1.44570
3421.27330	1.44380
3419.34473	1.43789
3417.41617	1.43538
3415.48760	1.43941
3413.55904	1.44393
3411.63048	1.44244
3409.70191	1.43854
3407.77335	1.43830
3405.84478	1.44111
3403.91622	1.44697
3401.98765	1.45469
3400.05909	1.45474
3398.13052	1.44454
3396.20196	1.43542
3394.27340	1.43493
3392.34483	1.44282
3390.41627	1.45401
3388.48770	1.46043
3386.55914	1.45998
3384.63057	1.45604
3382.70201	1.45315
3380.77344	1.45337
3378.84488	1.45292
3376.91632	1.45046
3374.98775	1.45024
3373.05919	1.45388
3371.13062	1.45714
3369.20206	1.45615
3367.27349	1.45617
3365.34493	1.46069
3363.41636	1.46036
3361.48780	1.45134
3359.55924	1.44486
3357.63067	1.44708
3355.70211	1.45052
3353.77354	1.45041
3351.84498	1.44984
3349.91641	1.44886
3347.98785	1.44763
3346.05928	1.44847
3344.13072	1.45083
3342.20216	1.45332
3340.27359	1.45365
3338.34503	1.45029
3336.41646	1.44734
3334.48790	1.45011
3332.55933	1.45811
3330.63077	1.46623
3328.70220	1.47128
3326.77364	1.47377
3324.84508	1.47661
3322.91651	1.48188
3320.98795	1.48540
3319.05938	1.48420
3317.13082	1.48070
3315.20225	1.47595
3313.27369	1.47129
3311.34513	1.46920
3309.41656	1.47412
3307.48800	1.48545
3305.55943	1.49024
3303.63087	1.48405
3301.70230	1.47844
3299.77374	1.48054
3297.84517	1.48779
3295.91661	1.49333
3293.98805	1.48954
3292.05948	1.47765
3290.13092	1.47009
3288.20235	1.47383
3286.27379	1.48215
3284.34522	1.48452
3282.41666	1.47937
3280.48809	1.47351
3278.55953	1.47030
3276.63097	1.47044
3274.70240	1.47550
3272.77384	1.47919
3270.84527	1.47303
3268.91671	1.46206
3266.98814	1.45594
3265.05958	1.45650
3263.13101	1.45997
3261.20245	1.45984
3259.27389	1.45236
3257.34532	1.44317
3255.41676	1.43941
3253.48819	1.43867
3251.55963	1.43565
3249.63106	1.43375
3247.70250	1.43605
3245.77393	1.43561
3243.84537	1.42808
3241.91681	1.41963
3239.98824	1.41445
3238.05968	1.41222
3236.13111	1.41110
3234.20255	1.40590
3232.27398	1.39672
3230.34542	1.39132
3228.41685	1.39106
3226.48829	1.39050
3224.55973	1.38757
3222.63116	1.38306
3220.70260	1.37931
3218.77403	1.37766
3216.84547	1.37432
3214.91690	1.36884
3212.98834	1.36638
3211.05977	1.36687
3209.13121	1.36618
3207.20265	1.36362
3205.27408	1.35849
3203.34552	1.34919
3201.41695	1.34054
3199.48839	1.33755
3197.55982	1.33532
3195.63126	1.32881
3193.70269	1.32205
3191.77413	1.31876
3189.84557	1.31691
3187.91700	1.31504
3185.98844	1.31432
3184.05987	1.31422
3182.13131	1.31312
3180.20274	1.31038
3178.27418	1.30607
3176.34562	1.30104
3174.41705	1.29579
3172.48849	1.29129
3170.55992	1.28909
3168.63136	1.28986
3166.70279	1.29263
3164.77423	1.29433
3162.84566	1.29310
3160.91710	1.28951
3158.98854	1.28351
3157.05997	1.27778
3155.13141	1.27574
3153.20284	1.27398
3151.27428	1.27010
3149.34571	1.26800
3147.41715	1.26846
3145.48858	1.26875
3143.56002	1.26722
3141.63146	1.26415
3139.70289	1.26264
3137.77433	1.26296
3135.84576	1.26164
3133.91720	1.25890
3131.98863	1.25677
3130.06007	1.25493
3128.13150	1.25131
3126.20294	1.24593
3124.27438	1.24363
3122.34581	1.24561
3120.41725	1.24583
3118.48868	1.24220
3116.56012	1.23895
3114.63155	1.23838
3112.70299	1.23920
3110.77442	1.23933
3108.84586	1.23808
3106.91730	1.23658
3104.98873	1.23589
3103.06017	1.23684
3101.13160	1.23863
3099.20304	1.23867
3097.27447	1.23730
3095.34591	1.23633
3093.41734	1.23512
3091.48878	1.23322
3089.56022	1.23235
3087.63165	1.23305
3085.70309	1.23148
3083.77452	1.22545
3081.84596	1.22016
3079.91739	1.21940
3077.98883	1.22016
3076.06026	1.21981
3074.13170	1.21883
3072.20314	1.21779
3070.27457	1.21605
3068.34601	1.21282
3066.41744	1.20945
3064.48888	1.20811
3062.56031	1.20830
3060.63175	1.20789
3058.70318	1.20575
3056.77462	1.20176
3054.84606	1.19712
3052.91749	1.19313
3050.98893	1.18821
3049.06036	1.18124
3047.13180	1.17492
3045.20323	1.17085
3043.27467	1.16828
3041.34610	1.16708
3039.41754	1.16604
3037.48898	1.16361
3035.56041	1.16041
3033.63185	1.15559
3031.70328	1.14881
3029.77472	1.14356
3027.84615	1.14097
3025.91759	1.14004
3023.98903	1.13995
3022.06046	1.13816
3020.13190	1.13433
3018.20333	1.13162
3016.27477	1.13092
3014.34620	1.12984
3012.41764	1.12752
3010.48907	1.12560
3008.56051	1.12532
3006.63195	1.12572
3004.70338	1.12448
3002.77482	1.12145
3000.84625	1.11932
2998.91769	1.12014
2996.98912	1.12198
2995.06056	1.12281
2993.13199	1.12466
2991.20343	1.12815
2989.27487	1.13176
2987.34630	1.13562
2985.41774	1.13968
2983.48917	1.14336
2981.56061	1.14681
2979.63204	1.15074
2977.70348	1.15557
2975.77491	1.16089
2973.84635	1.16626
2971.91779	1.17125
2969.98922	1.17481
2968.06066	1.17784
2966.13209	1.18195
2964.20353	1.18515
2962.27496	1.18612
2960.34640	1.18597
2958.41783	1.18424
2956.48927	1.18032
2954.56071	1.17484
2952.63214	1.16910
2950.70358	1.16448
2948.77501	1.16171
2946.84645	1.16182
2944.91788	1.16545
2942.98932	1.17215
2941.06075	1.18175
2939.13219	1.19279
2937.20363	1.20161
2935.27506	1.20768
2933.34650	1.21379
2931.41793	1.22082
2929.48937	1.22671
2927.56080	1.23029
2925.63224	1.23480
2923.70367	1.24136
2921.77511	1.24581
2919.84655	1.24620
2917.91798	1.24199
2915.98942	1.23074
2914.06085	1.21262
2912.13229	1.19234
2910.20372	1.17583
2908.27516	1.16525
2906.34659	1.15768
2904.41803	1.15055
2902.48947	1.14488
2900.56090	1.14155
2898.63234	1.13938
2896.70377	1.13740
2894.77521	1.13579
2892.84664	1.13350
2890.91808	1.12962
2888.98952	1.12654
2887.06095	1.12514
2885.13239	1.12280
2883.20382	1.11987
2881.27526	1.11915
2879.34669	1.11999
2877.41813	1.11910
2875.48956	1.11601
2873.56100	1.11371
2871.63244	1.11285
2869.70387	1.10980
2867.77531	1.10306
2865.84674	1.09620
2863.91818	1.09252
2861.98961	1.09265
2860.06105	1.09611
2858.13248	1.10182
2856.20392	1.10932
2854.27536	1.11847
2852.34679	1.12669
2850.41823	1.12866
2848.48966	1.11866
2846.56110	1.09718
2844.63253	1.07346
2842.70397	1.05504
2840.77540	1.04214
2838.84684	1.03296
2836.91828	1.02683
2834.98971	1.02224
2833.06115	1.01700
2831.13258	1.01163
2829.20402	1.00781
2827.27545	1.00507
2825.34689	1.00261
2823.41832	1.00035
2821.48976	0.99812
2819.56120	0.99597
2817.63263	0.99418
2815.70407	0.99201
2813.77550	0.98852
2811.84694	0.98454
2809.91837	0.98167
2807.98981	0.97984
2806.06124	0.97751
2804.13268	0.97445
2802.20412	0.97147
2800.27555	0.96812
2798.34699	0.96437
2796.41842	0.96096
2794.48986	0.95809
2792.56129	0.95565
2790.63273	0.95324
2788.70416	0.95080
2786.77560	0.94870
2784.84704	0.94681
2782.91847	0.94505
2780.98991	0.94341
2779.06134	0.94144
2777.13278	0.93937
2775.20421	0.93795
2773.27565	0.93726
2771.34708	0.93680
2769.41852	0.93586
2767.48996	0.93427
2765.56139	0.93270
2763.63283	0.93184
2761.70426	0.93138
2759.77570	0.93071
2757.84713	0.92969
2755.91857	0.92853
2753.99001	0.92770
2752.06144	0.92701
2750.13288	0.92624
2748.20431	0.92561
2746.27575	0.92502
2744.34718	0.92450
2742.41862	0.92362
2740.49005	0.92179
2738.56149	0.92027
2736.63293	0.92048
2734.70436	0.92083
2732.77580	0.91938
2730.84723	0.91727
2728.91867	0.91631
2726.99010	0.91617
2725.06154	0.91519
2723.13297	0.91285
2721.20441	0.91031
2719.27585	0.90812
2717.34728	0.90578
2715.41872	0.90322
2713.49015	0.90109
2711.56159	0.89972
2709.63302	0.89872
2707.70446	0.89742
2705.77589	0.89551
2703.84733	0.89327
2701.91877	0.89111
2699.99020	0.88927
2698.06164	0.88755
2696.13307	0.88557
2694.20451	0.88367
2692.27594	0.88252
2690.34738	0.88220
2688.41881	0.88259
2686.49025	0.88314
2684.56169	0.88295
2682.63312	0.88220
2680.70456	0.88173
2678.77599	0.88167
2676.84743	0.88167
2674.91886	0.88114
2672.99030	0.87956
2671.06173	0.87749
2669.13317	0.87624
2667.20461	0.87579
2665.27604	0.87471
2663.34748	0.87269
2661.41891	0.87127
2659.49035	0.87094
2657.56178	0.86998
2655.63322	0.86797
2653.70465	0.86611
2651.77609	0.86444
2649.84753	0.86290
2647.91896	0.86192
2645.99040	0.86085
2644.06183	0.85962
2642.13327	0.85904
2640.20470	0.85860
2638.27614	0.85764
2636.34757	0.85671
2634.41901	0.85575
2632.49045	0.85455
2630.56188	0.85345
2628.63332	0.85266
2626.70475	0.85204
2624.77619	0.85152
2622.84762	0.85135
2620.91906	0.85152
2618.99049	0.85187
2617.06193	0.85216
2615.13337	0.85194
2613.20480	0.85119
2611.27624	0.85054
2609.34767	0.85048
2607.41911	0.85072
2605.49054	0.85108
2603.56198	0.85171
2601.63342	0.85200
2599.70485	0.85160
2597.77629	0.85134
2595.84772	0.85148
2593.91916	0.85114
2591.99059	0.84979
2590.06203	0.84766
2588.13346	0.84568
2586.20490	0.84452
2584.27634	0.84347
2582.34777	0.84194
2580.41921	0.84043
2578.49064	0.83924
2576.56208	0.83803
2574.63351	0.83649
2572.70495	0.83478
2570.77638	0.83301
2568.84782	0.83114
2566.91926	0.82925
2564.99069	0.82734
2563.06213	0.82550
2561.13356	0.82380
2559.20500	0.82230
2557.27643	0.82132
2555.34787	0.82086
2553.41930	0.82017
2551.49074	0.81894
2549.56218	0.81763
2547.63361	0.81645
2545.70505	0.81540
2543.77648	0.81462
2541.84792	0.81423
2539.91935	0.81392
2537.99079	0.81312
2536.06222	0.81185
2534.13366	0.81031
2532.20510	0.80848
2530.27653	0.80670
2528.34797	0.80516
2526.41940	0.80385
2524.49084	0.80258
2522.56227	0.80063
2520.63371	0.79804
2518.70514	0.79543
2516.77658	0.79284
2514.84802	0.79049
2512.91945	0.78846
2510.99089	0.78608
2509.06232	0.78325
2507.13376	0.78065
2505.20519	0.77821
2503.27663	0.77548
2501.34806	0.77272
2499.41950	0.77046
2497.49094	0.76870
2495.56237	0.76710
2493.63381	0.76562
2491.70524	0.76456
2489.77668	0.76379
2487.84811	0.76280
2485.91955	0.76171
2483.99098	0.76120
2482.06242	0.76120
2480.13386	0.76112
2478.20529	0.76084
2476.27673	0.76054
2474.34816	0.76039
2472.41960	0.76013
2470.49103	0.75950
2468.56247	0.75870
2466.63391	0.75797
2464.70534	0.75744
2462.77678	0.75702
2460.84821	0.75623
2458.91965	0.75493
2456.99108	0.75346
2455.06252	0.75198
2453.13395	0.75039
2451.20539	0.74888
2449.27683	0.74773
2447.34826	0.74654
2445.41970	0.74447
2443.49113	0.74181
2441.56257	0.73963
2439.63400	0.73809
2437.70544	0.73666
2435.77687	0.73504
2433.84831	0.73320
2431.91975	0.73130
2429.99118	0.72989
2428.06262	0.72905
2426.13405	0.72827
2424.20549	0.72748
2422.27692	0.72701
2420.34836	0.72692
2418.41979	0.72721
2416.49123	0.72779
2414.56267	0.72837
2412.63410	0.72892
2410.70554	0.72950
2408.77697	0.72996
2406.84841	0.73037
2404.91984	0.73076
2402.99128	0.73124
2401.06271	0.73170
2399.13415	0.73185
2397.20559	0.73206
2395.27702	0.73246
2393.34846	0.73253
2391.41989	0.73224
2389.49133	0.73182
2387.56276	0.73114
2385.63420	0.73048
2383.70563	0.73041
2381.77707	0.73047
2379.84851	0.72987
2377.91994	0.72870
2375.99138	0.72727
2374.06281	0.72575
2372.13425	0.72478
2370.20568	0.72540
2368.27712	0.72657
2366.34855	0.72607
2364.41999	0.72438
2362.49143	0.72209
2360.56286	0.71848
2358.63430	0.71475
2356.70573	0.71337
2354.77717	0.71171
2352.84860	0.70634
2350.92004	0.70167
2348.99147	0.70037
2347.06291	0.70019
2345.13435	0.69891
2343.20578	0.69701
2341.27722	0.69614
2339.34865	0.69695
2337.42009	0.69862
2335.49152	0.69930
2333.56296	0.69803
2331.63440	0.69502
2329.70583	0.69269
2327.77727	0.69270
2325.84870	0.69375
2323.92014	0.69456
2321.99157	0.69419
2320.06301	0.69230
2318.13444	0.69009
2316.20588	0.68851
2314.27732	0.68718
2312.34875	0.68567
2310.42019	0.68422
2308.49162	0.68301
2306.56306	0.68178
2304.63449	0.68032
2302.70593	0.67901
2300.77736	0.67791
2298.84880	0.67648
2296.92024	0.67468
2294.99167	0.67297
2293.06311	0.67163
2291.13454	0.67052
2289.20598	0.66934
2287.27741	0.66820
2285.34885	0.66739
2283.42028	0.66689
2281.49172	0.66635
2279.56316	0.66571
2277.63459	0.66528
2275.70603	0.66528
2273.77746	0.66577
2271.84890	0.66647
2269.92033	0.66703
2267.99177	0.66745
2266.06320	0.66781
2264.13464	0.66817
2262.20608	0.66860
2260.27751	0.66909
2258.34895	0.66956
2256.42038	0.67012
2254.49182	0.67092
2252.56325	0.67161
2250.63469	0.67211
2248.70612	0.67262
2246.77756	0.67300
2244.84900	0.67332
2242.92043	0.67382
2240.99187	0.67422
2239.06330	0.67420
2237.13474	0.67389
2235.20617	0.67360
2233.27761	0.67335
2231.34904	0.67297
2229.42048	0.67243
2227.49192	0.67190
2225.56335	0.67151
2223.63479	0.67113
2221.70622	0.67063
2219.77766	0.66993
2217.84909	0.66906
2215.92053	0.66833
2213.99196	0.66794
2212.06340	0.66773
2210.13484	0.66748
2208.20627	0.66706
2206.27771	0.66652
2204.34914	0.66604
2202.42058	0.66574
2200.49201	0.66553
2198.56345	0.66510
2196.63488	0.66444
2194.70632	0.66400
2192.77776	0.66405
2190.84919	0.66417
2188.92063	0.66391
2186.99206	0.66333
2185.06350	0.66283
2183.13493	0.66268
2181.20637	0.66262
2179.27781	0.66238
2177.34924	0.66199
2175.42068	0.66139
2173.49211	0.66075
2171.56355	0.66034
2169.63498	0.66019
2167.70642	0.66022
2165.77785	0.66013
2163.84929	0.65960
2161.92073	0.65880
2159.99216	0.65789
2158.06360	0.65699
2156.13503	0.65623
2154.20647	0.65554
2152.27790	0.65485
2150.34934	0.65416
2148.42077	0.65359
2146.49221	0.65312
2144.56365	0.65241
2142.63508	0.65119
2140.70652	0.64988
2138.77795	0.64896
2136.84939	0.64828
2134.92082	0.64747
2132.99226	0.64646
2131.06369	0.64547
2129.13513	0.64455
2127.20657	0.64359
2125.27800	0.64267
2123.34944	0.64213
2121.42087	0.64188
2119.49231	0.64139
2117.56374	0.64058
2115.63518	0.63983
2113.70661	0.63927
2111.77805	0.63874
2109.84949	0.63812
2107.92092	0.63755
2105.99236	0.63709
2104.06379	0.63633
2102.13523	0.63518
2100.20666	0.63424
2098.27810	0.63360
2096.34953	0.63299
2094.42097	0.63240
2092.49241	0.63168
2090.56384	0.63071
2088.63528	0.62971
2086.70671	0.62883
2084.77815	0.62800
2082.84958	0.62708
2080.92102	0.62621
2078.99245	0.62552
2077.06389	0.62493
2075.13533	0.62437
2073.20676	0.62373
2071.27820	0.62301
2069.34963	0.62254
2067.42107	0.62238
2065.49250	0.62209
2063.56394	0.62151
2061.63537	0.62096
2059.70681	0.62061
2057.77825	0.62028
2055.84968	0.61983
2053.92112	0.61942
2051.99255	0.61905
2050.06399	0.61856
2048.13542	0.61803
2046.20686	0.61761
2044.27830	0.61721
2042.34973	0.61667
2040.42117	0.61612
2038.49260	0.61576
2036.56404	0.61539
2034.63547	0.61484
2032.70691	0.61427
2030.77834	0.61366
2028.84978	0.61274
2026.92122	0.61166
2024.99265	0.61074
2023.06409	0.61012
2021.13552	0.60981
2019.20696	0.60945
2017.27839	0.60859
2015.34983	0.60755
2013.42126	0.60665
2011.49270	0.60553
2009.56414	0.60426
2007.63557	0.60347
2005.70701	0.60321
2003.77844	0.60271
2001.84988	0.60164
1999.92131	0.60054
1997.99275	0.59976
1996.06418	0.59926
1994.13562	0.59897
1992.20706	0.59861
1990.27849	0.59793
1988.34993	0.59698
1986.42136	0.59590
1984.49280	0.59489
1982.56423	0.59413
1980.63567	0.59358
1978.70710	0.59290
1976.77854	0.59189
1974.84998	0.59085
1972.92141	0.59001
1970.99285	0.58922
1969.06428	0.58838
1967.13572	0.58748
1965.20715	0.58653
1963.27859	0.58545
1961.35002	0.58425
1959.42146	0.58327
1957.49290	0.58261
1955.56433	0.58192
1953.63577	0.58098
1951.70720	0.57983
1949.77864	0.57873
1947.85007	0.57797
1945.92151	0.57744
1943.99294	0.57659
1942.06438	0.57531
1940.13582	0.57441
1938.20725	0.57397
1936.27869	0.57339
1934.35012	0.57259
1932.42156	0.57170
1930.49299	0.57077
1928.56443	0.56983
1926.63586	0.56909
1924.70730	0.56868
1922.77874	0.56811
1920.85017	0.56703
1918.92161	0.56578
1916.99304	0.56457
1915.06448	0.56367
1913.13591	0.56319
1911.20735	0.56274
1909.27878	0.56195
1907.35022	0.56101
1905.42166	0.56029
1903.49309	0.55967
1901.56453	0.55902
1899.63596	0.55854
1897.70740	0.55836
1895.77883	0.55822
1893.85027	0.55781
1891.92171	0.55724
1889.99314	0.55655
1888.06458	0.55575
1886.13601	0.55515
1884.20745	0.55471
1882.27888	0.55434
1880.35032	0.55403
1878.42175	0.55362
1876.49319	0.55320
1874.56463	0.55306
1872.63606	0.55323
1870.70750	0.55349
1868.77893	0.55357
1866.85037	0.55329
1864.92180	0.55290
1862.99324	0.55256
1861.06467	0.55227
1859.13611	0.55195
1857.20755	0.55160
1855.27898	0.55136
1853.35042	0.55131
1851.42185	0.55139
1849.49329	0.55150
1847.56472	0.55162
1845.63616	0.55173
1843.70759	0.55178
1841.77903	0.55179
1839.85047	0.55183
1837.92190	0.55196
1835.99334	0.55221
1834.06477	0.55278
1832.13621	0.55379
1830.20764	0.55499
1828.27908	0.55582
1826.35051	0.55635
1824.42195	0.55704
1822.49339	0.55790
1820.56482	0.55882
1818.63626	0.55986
1816.70769	0.56097
1814.77913	0.56229
1812.85056	0.56401
1810.92200	0.56586
1808.99343	0.56714
1807.06487	0.56785
1805.13631	0.56846
1803.20774	0.56913
1801.27918	0.56981
1799.35061	0.57033
1797.42205	0.57072
1795.49348	0.57114
1793.56492	0.57176
1791.63635	0.57220
1789.70779	0.57173
1787.77923	0.57124
1785.85066	0.57107
1783.92210	0.57106
1781.99353	0.57117
1780.06497	0.57132
1778.13640	0.57152
1776.20784	0.57189
1774.27927	0.57274
1772.35071	0.57387
1770.42215	0.57441
1768.49358	0.57491
1766.56502	0.57595
1764.63645	0.57743
1762.70789	0.57961
1760.77932	0.58255
1758.85076	0.58568
1756.92220	0.58977
1754.99363	0.59440
1753.06507	0.59919
1751.13650	0.60603
1749.20794	0.61504
1747.27937	0.62299
1745.35081	0.62955
1743.42224	0.63570
1741.49368	0.64156
1739.56512	0.64689
1737.63655	0.65085
1735.70799	0.65400
1733.77942	0.65830
1731.85086	0.66204
1729.92229	0.66493
1727.99373	0.66842
1726.06516	0.67268
1724.13660	0.67810
1722.20804	0.68369
1720.27947	0.68908
1718.35091	0.69754
1716.42234	0.71150
1714.49378	0.72317
1712.56521	0.73290
1710.63665	0.74451
1708.70808	0.75878
1706.77952	0.77909
1704.85096	0.80569
1702.92239	0.83031
1700.99383	0.86381
1699.06526	0.91622
1697.13670	0.96630
1695.20813	1.01381
1693.27957	1.04725
1691.35100	1.07344
1689.42244	1.10521
1687.49388	1.13381
1685.56531	1.15932
1683.63675	1.19685
1681.70818	1.22422
1679.77962	1.23884
1677.85105	1.25138
1675.92249	1.26568
1673.99392	1.28089
1672.06536	1.29295
1670.13680	1.30533
1668.20823	1.31840
1666.27967	1.32627
1664.35110	1.33348
1662.42254	1.34224
1660.49397	1.34775
1658.56541	1.34969
1656.63684	1.34983
1654.70828	1.35026
1652.77972	1.35348
1650.85115	1.35483
1648.92259	1.35271
1646.99402	1.34807
1645.06546	1.34599
1643.13689	1.34610
1641.20833	1.34645
1639.27976	1.34588
1637.35120	1.34331
1635.42264	1.33796
1633.49407	1.33361
1631.56551	1.33097
1629.63694	1.32675
1627.70838	1.32013
1625.77981	1.31406
1623.85125	1.30858
1621.92269	1.30054
1619.99412	1.29227
1618.06556	1.28189
1616.13699	1.26419
1614.20843	1.24933
1612.27986	1.23907
1610.35130	1.22853
1608.42273	1.21770
1606.49417	1.20917
1604.56561	1.20393
1602.63704	1.20102
1600.70848	1.19962
1598.77991	1.19889
1596.85135	1.19874
1594.92278	1.19974
1592.99422	1.20154
1591.06565	1.20358
1589.13709	1.20645
1587.20853	1.21101
1585.27996	1.21743
1583.35140	1.22495
1581.42283	1.23174
1579.49427	1.23720
1577.56570	1.24410
1575.63714	1.25458
1573.70857	1.26217
1571.78001	1.26711
1569.85145	1.27320
1567.92288	1.27909
1565.99432	1.28354
1564.06575	1.28792
1562.13719	1.29247
1560.20862	1.29986
1558.28006	1.30677
1556.35149	1.30329
1554.42293	1.30064
1552.49437	1.29949
1550.56580	1.29813
1548.63724	1.29572
1546.70867	1.29340
1544.78011	1.29190
1542.85154	1.29129
1540.92298	1.28852
1538.99441	1.28032
1537.06585	1.27527
1535.13729	1.27156
1533.20872	1.26599
1531.28016	1.25998
1529.35159	1.25607
1527.42303	1.25289
1525.49446	1.24943
1523.56590	1.24716
1521.63733	1.24644
1519.70877	1.24554
1517.78021	1.24125
1515.85164	1.23220
1513.92308	1.22230
1511.99451	1.21376
1510.06595	1.20653
1508.13738	1.19462
1506.20882	1.16720
1504.28025	1.15023
1502.35169	1.14001
1500.42313	1.12864
1498.49456	1.11417
1496.56600	1.09726
1494.63743	1.08422
1492.70887	1.07560
1490.78030	1.06632
1488.85174	1.05441
1486.92317	1.04654
1484.99461	1.04322
1483.06605	1.04190
1481.13748	1.04250
1479.20892	1.04570
1477.28035	1.05232
1475.35179	1.06327
1473.42322	1.07977
1471.49466	1.09606
1469.56610	1.10458
1467.63753	1.11042
1465.70897	1.11760
1463.78040	1.12507
1461.85184	1.13006
1459.92327	1.13394
1457.99471	1.14044
1456.06614	1.14828
1454.13758	1.15033
1452.20902	1.14994
1450.28045	1.14929
1448.35189	1.14854
1446.42332	1.14712
1444.49476	1.14497
1442.56619	1.14215
1440.63763	1.13880
1438.70906	1.13465
1436.78050	1.12803
1434.85194	1.11997
1432.92337	1.11346
1430.99481	1.10766
1429.06624	1.10233
1427.13768	1.09895
1425.20911	1.09804
1423.28055	1.09880
1421.35198	1.10018
1419.42342	1.10258
1417.49486	1.10500
1415.56629	1.10586
1413.63773	1.10611
1411.70916	1.10595
1409.78060	1.10539
1407.85203	1.10498
1405.92347	1.10544
1403.99490	1.10647
1402.06634	1.10700
1400.13778	1.10715
1398.20921	1.10750
1396.28065	1.10838
1394.35208	1.10940
1392.42352	1.11008
1390.49495	1.11158
1388.56639	1.11648
1386.63782	1.12531
1384.70926	1.13383
1382.78070	1.14059
1380.85213	1.14560
1378.92357	1.14750
1376.99500	1.14552
1375.06644	1.13881
1373.13787	1.12815
1371.20931	1.11659
1369.28074	1.10316
1367.35218	1.08788
1365.42362	1.07403
1363.49505	1.06089
1361.56649	1.04853
1359.63792	1.04003
1357.70936	1.03452
1355.78079	1.03055
1353.85223	1.02795
1351.92366	1.02629
1349.99510	1.02505
1348.06654	1.02426
1346.13797	1.02417
1344.20941	1.02479
1342.28084	1.02569
1340.35228	1.02676
1338.42371	1.02823
1336.49515	1.03084
1334.56659	1.03569
1332.63802	1.04254
1330.70946	1.04976
1328.78089	1.05564
1326.85233	1.05932
1324.92376	1.06120
1322.99520	1.06246
1321.06663	1.06364
1319.13807	1.06480
1317.20951	1.06620
1315.28094	1.06757
1313.35238	1.06834
1311.42381	1.06836
1309.49525	1.06781
1307.56668	1.06682
1305.63812	1.06515
1303.70955	1.06266
1301.78099	1.05980
1299.85243	1.05702
1297.92386	1.05395
1295.99530	1.05054
1294.06673	1.04794
1292.13817	1.04685
1290.20960	1.04692
1288.28104	1.04783
1286.35247	1.04906
1284.42391	1.04977
1282.49535	1.04985
1280.56678	1.04991
1278.63822	1.05054
1276.70965	1.05219
1274.78109	1.05505
1272.85252	1.05897
1270.92396	1.06391
1268.99539	1.06963
1267.06683	1.07540
1265.13827	1.08052
1263.20970	1.08420
1261.28114	1.08582
1259.35257	1.08551
1257.42401	1.08391
1255.49544	1.08225
1253.56688	1.08168
1251.63831	1.08209
1249.70975	1.08231
1247.78119	1.08165
1245.85262	1.08085
1243.92406	1.08063
1241.99549	1.08043
1240.06693	1.07979
1238.13836	1.07874
1236.20980	1.07714
1234.28123	1.07509
1232.35267	1.07273
1230.42411	1.06963
1228.49554	1.06565
1226.56698	1.06152
1224.63841	1.05729
1222.70985	1.05243
1220.78128	1.04738
1218.85272	1.04299
1216.92415	1.03965
1214.99559	1.03785
1213.06703	1.03786
1211.13846	1.03948
1209.20990	1.04206
1207.28133	1.04428
1205.35277	1.04461
1203.42420	1.04134
1201.49564	1.03356
1199.56708	1.02246
1197.63851	1.01005
1195.70995	0.99746
1193.78138	0.98525
1191.85282	0.97349
1189.92425	0.96220
1187.99569	0.95257
1186.06712	0.94554
1184.13856	0.94045
1182.21000	0.93706
1180.28143	0.93597
1178.35287	0.93701
1176.42430	0.93980
1174.49574	0.94466
1172.56717	0.95105
1170.63861	0.95829
1168.71004	0.96730
1166.78148	0.97896
1164.85292	0.99275
1162.92435	1.00666
1160.99579	1.01803
1159.06722	1.02558
1157.13866	1.02891
1155.21009	1.02761
1153.28153	1.02215
1151.35296	1.01400
1149.42440	1.00463
1147.49584	0.99516
1145.56727	0.98658
1143.63871	0.98009
1141.71014	0.97694
1139.78158	0.97688
1137.85301	0.97841
1135.92445	0.98138
1133.99588	0.98661
1132.06732	0.99419
1130.13876	1.00390
1128.21019	1.01483
1126.28163	1.02516
1124.35306	1.03356
1122.42450	1.03974
1120.49593	1.04410
1118.56737	1.04734
1116.63880	1.04921
1114.71024	1.04807
1112.78168	1.04249
1110.85311	1.03326
1108.92455	1.02315
1106.99598	1.01431
1105.06742	1.00650
1103.13885	0.99867
1101.21029	0.99203
1099.28172	0.98892
1097.35316	0.98929
1095.42460	0.99207
1093.49603	0.99781
1091.56747	1.00707
1089.63890	1.01898
1087.71034	1.03236
1085.78177	1.04636
1083.85321	1.05959
1081.92464	1.07013
1079.99608	1.07741
1078.06752	1.08254
1076.13895	1.08665
1074.21039	1.08886
1072.28182	1.08760
1070.35326	1.08446
1068.42469	1.08163
1066.49613	1.07849
1064.56756	1.07453
1062.63900	1.07041
1060.71044	1.06630
1058.78187	1.06172
1056.85331	1.05605
1054.92474	1.05000
1052.99618	1.04505
1051.06761	1.04137
1049.13905	1.03833
1047.21049	1.03620
1045.28192	1.03654
1043.35336	1.03981
1041.42479	1.04404
1039.49623	1.04744
1037.56766	1.04956
1035.63910	1.05045
1033.71053	1.05027
1031.78197	1.04826
1029.85341	1.04325
1027.92484	1.03565
1025.99628	1.02661
1024.06771	1.01660
1022.13915	1.00622
1020.21058	0.99701
1018.28202	0.98969
1016.35345	0.98303
1014.42489	0.97522
1012.49633	0.96426
1010.56776	0.94922
1008.63920	0.93185
1006.71063	0.91456
1004.78207	0.89879
1002.85350	0.88541
1000.92494	0.87498
998.99637	0.86749
997.06781	0.86242
995.13925	0.85904
993.21068	0.85613
991.28212	0.85259
989.35355	0.84877
987.42499	0.84553
985.49642	0.84273
983.56786	0.84008
981.63929	0.83799
979.71073	0.83728
977.78217	0.83775
975.85360	0.83759
973.92504	0.83478
971.99647	0.82816
970.06791	0.81777
968.13934	0.80518
966.21078	0.79227
964.28221	0.78076
962.35365	0.77307
960.42509	0.77141
958.49652	0.77552
956.56796	0.78098
954.63939	0.78153
952.71083	0.77471
950.78226	0.76268
948.85370	0.74884
946.92513	0.73594
944.99657	0.72571
943.06801	0.71852
941.13944	0.71373
939.21088	0.71050
937.28231	0.70845
935.35375	0.70770
933.42518	0.70834
931.49662	0.71026
929.56805	0.71348
927.63949	0.71789
925.71093	0.72332
923.78236	0.72928
921.85380	0.73486
919.92523	0.73984
917.99667	0.74437
916.06810	0.74826
914.13954	0.75169
912.21098	0.75532
910.28241	0.75965
908.35385	0.76441
906.42528	0.76890
904.49672	0.77280
902.56815	0.77582
900.63959	0.77733
898.71102	0.77661
896.78246	0.77335
894.85390	0.76821
892.92533	0.76194
890.99677	0.75446
889.06820	0.74634
887.13964	0.73895
885.21107	0.73250
883.28251	0.72672
881.35394	0.72219
879.42538	0.71889
877.49682	0.71632
875.56825	0.71478
873.63969	0.71458
871.71112	0.71502
869.78256	0.71584
867.85399	0.71756
865.92543	0.72042
863.99686	0.72450
862.06830	0.72984
860.13974	0.73655
858.21117	0.74479
856.28261	0.75387
854.35404	0.76313
852.42548	0.77262
850.49691	0.78197
848.56835	0.79079
846.63978	0.79979
844.71122	0.80939
842.78266	0.81891
840.85409	0.82757
838.92553	0.83503
836.99696	0.84155
835.06840	0.84739
833.13983	0.85228
831.21127	0.85587
829.28270	0.85757
827.35414	0.85738
825.42558	0.85644
823.49701	0.85529
821.56845	0.85345
819.63988	0.85065
817.71132	0.84760
815.78275	0.84568
813.85419	0.84521
811.92562	0.84482
809.99706	0.84383
808.06850	0.84370
806.13993	0.84550
804.21137	0.84832
802.28280	0.85116
800.35424	0.85440
798.42567	0.85886
796.49711	0.86468
794.56854	0.87152
792.63998	0.87902
790.71142	0.88715
788.78285	0.89586
786.85429	0.90488
784.92572	0.91424
782.99716	0.92397
781.06859	0.93323
779.14003	0.94089
777.21147	0.94684
775.28290	0.95150
773.35434	0.95525
771.42577	0.95852
769.49721	0.96121
767.56864	0.96273
765.64008	0.96319
763.71151	0.96336
761.78295	0.96333
759.85439	0.96248
757.92582	0.96031
755.99726	0.95724
754.06869	0.95487
752.14013	0.95377
750.21156	0.95313
748.28300	0.95285
746.35443	0.95334
744.42587	0.95470
742.49731	0.95717
740.56874	0.96090
738.64018	0.96503
736.71161	0.96848
734.78305	0.97205
732.85448	0.97775
730.92592	0.98556
728.99735	0.99338
727.06879	1.00021
725.14023	1.00699
723.21166	1.01437
721.28310	1.02113
719.35453	1.02619
717.42597	1.03012
715.49740	1.03286
713.56884	1.03373
711.64027	1.03344
709.71171	1.03238
707.78315	1.03015
705.85458	1.02677
703.92602	1.02176
701.99745	1.01516
700.06889	1.00835
698.14032	1.00203
696.21176	0.99626
694.28319	0.99032
692.35463	0.98294
690.42607	0.97493
688.49750	0.96799
686.56894	0.96245
684.64037	0.95848
682.71181	0.95640
680.78324	0.95490
678.85468	0.95207
676.92611	0.94866
674.99755	0.94647
673.06899	0.94548
671.14042	0.94532
669.21186	0.94703
667.28329	0.95046
665.35473	0.95184
663.42616	0.95244
661.49760	0.95512
659.56903	0.96030
657.64047	0.96441
655.71191	0.96581
653.78334	0.96775
651.85478	0.97238
649.92621	0.97850
647.99765	0.98501
646.06908	0.99224
644.14052	1.00022
642.21195	1.00892
640.28339	1.01852
638.35483	1.02736
636.42626	1.03355
634.49770	1.03750
632.56913	1.04136
630.64057	1.04528
628.71200	1.04678
626.78344	1.04635
624.85488	1.04726
622.92631	1.04911
620.99775	1.04862
619.06918	1.04595
617.14062	1.04196
615.21205	1.03662
613.28349	1.03304
611.35492	1.03273
609.42636	1.03145
607.49780	1.02526
605.56923	1.01674
603.64067	1.01090
601.71210	1.00951
599.78354	1.01093
