3997.91406	0.99743
3995.98550	0.99622
3994.05693	0.99767
3992.12837	1.00127
3990.19980	1.00260
3988.27124	1.00013
3986.34268	0.99753
3984.41411	0.99631
3982.48555	0.99501
3980.55698	0.99370
3978.62842	0.99359
3976.69985	0.99357
3974.77129	0.99188
3972.84272	0.99005
3970.91416	0.99058
3968.98560	0.99255
3967.05703	0.99217
3965.12847	0.98946
3963.19990	0.98972
3961.27134	0.99295
3959.34277	0.99355
3957.41421	0.99223
3955.48564	0.99167
3953.55708	0.98981
3951.62852	0.98623
3949.69995	0.98460
3947.77139	0.98562
3945.84282	0.98499
3943.91426	0.98240
3941.98569	0.98290
3940.05713	0.98571
3938.12856	0.98541
3936.20000	0.98306
3934.27144	0.98174
3932.34287	0.98048
3930.41431	0.97932
3928.48574	0.98039
3926.55718	0.98306
3924.62861	0.98544
3922.70005	0.98608
3920.77148	0.98486
3918.84292	0.98236
3916.91436	0.97903
3914.98579	0.97621
3913.05723	0.97611
3911.12866	0.97863
3909.20010	0.98127
3907.27153	0.98226
3905.34297	0.98128
3903.41440	0.97957
3901.48584	0.97720
3899.55728	0.97275
3897.62871	0.96993
3895.70015	0.97042
3893.77158	0.97187
3891.84302	0.97204
3889.91445	0.97268
3887.98589	0.97472
3886.05733	0.97456
3884.12876	0.97379
3882.20020	0.97604
3880.27163	0.97594
3878.34307	0.97278
3876.41450	0.97053
3874.48594	0.96915
3872.55737	0.96966
3870.62881	0.96995
3868.70025	0.96726
3866.77168	0.96534
3864.84312	0.96625
3862.91455	0.96975
3860.98599	0.97087
3859.05742	0.96734
3857.12886	0.96254
3855.20029	0.95994
3853.27173	0.95888
3851.34317	0.95496
3849.41460	0.95217
3847.48604	0.95362
3845.55747	0.95940
3843.62891	0.96811
3841.70034	0.97777
3839.77178	0.98501
3837.84321	0.98200
3835.91465	0.97199
3833.98609	0.96603
3832.05752	0.96373
3830.12896	0.96122
3828.20039	0.95910
3826.27183	0.95950
3824.34326	0.96014
3822.41470	0.95744
3820.48613	0.95390
3818.55757	0.95324
3816.62901	0.95312
3814.70044	0.95419
3812.77188	0.95543
3810.84331	0.95588
3808.91475	0.95533
3806.98618	0.95297
3805.05762	0.95118
3803.12905	0.95169
3801.20049	0.95454
3799.27193	0.95689
3797.34336	0.95552
3795.41480	0.95270
3793.48623	0.95183
3791.55767	0.95293
3789.62910	0.95444
3787.70054	0.95368
3785.77197	0.95012
3783.84341	0.94764
3781.91485	0.94855
3779.98628	0.95087
3778.05772	0.95078
3776.12915	0.94755
3774.20059	0.94425
3772.27202	0.94183
3770.34346	0.93996
3768.41489	0.94099
3766.48633	0.94342
3764.55777	0.94386
3762.62920	0.94360
3760.70064	0.94342
3758.77207	0.94300
3756.84351	0.94309
3754.91494	0.94321
3752.98638	0.94276
3751.05781	0.94177
3749.12925	0.94214
3747.20069	0.94337
3745.27212	0.94315
3743.34356	0.94162
3741.41499	0.93994
3739.48643	0.93838
3737.55786	0.93727
3735.62930	0.93731
3733.70074	0.94094
3731.77217	0.94464
3729.84361	0.94558
3727.91504	0.94493
3725.98648	0.94384
3724.05791	0.94284
3722.12935	0.94008
3720.20078	0.93714
3718.27222	0.93706
3716.34366	0.93785
3714.41509	0.93782
3712.48653	0.93723
3710.55796	0.93724
3708.62940	0.93808
3706.70083	0.93866
3704.77227	0.93876
3702.84370	0.93932
3700.91514	0.94188
3698.98658	0.94445
3697.05801	0.94528
3695.12945	0.94530
3693.20088	0.94537
3691.27232	0.94567
3689.34375	0.94685
3687.41519	0.94971
3685.48662	0.95292
3683.55806	0.95469
3681.62950	0.95428
3679.70093	0.95315
3677.77237	0.95247
3675.84380	0.95300
3673.91524	0.95701
3671.98667	0.96170
3670.05811	0.96488
3668.12954	0.96614
3666.20098	0.96802
3664.27242	0.97151
3662.34385	0.97613
3660.41529	0.98075
3658.48672	0.98390
3656.55816	0.98662
3654.62959	0.99039
3652.70103	0.99394
3650.77246	0.99846
3648.84390	1.00645
3646.91534	1.01338
3644.98677	1.01854
3643.05821	1.02245
3641.12964	1.02495
3639.20108	1.02825
3637.27251	1.03245
3635.34395	1.03531
3633.41538	1.03690
3631.48682	1.03828
3629.55826	1.04290
3627.62969	1.05253
3625.70113	1.06041
3623.77256	1.06638
3621.84400	1.07051
3619.91543	1.07452
3617.98687	1.08153
3616.05830	1.08598
3614.12974	1.08742
3612.20118	1.09261
3610.27261	1.10029
3608.34405	1.10700
3606.41548	1.11488
3604.48692	1.12312
3602.55835	1.13009
3600.62979	1.13609
3598.70123	1.14163
3596.77266	1.14553
3594.84410	1.14690
3592.91553	1.14753
3590.98697	1.14903
3589.05840	1.15339
3587.12984	1.16342
3585.20127	1.17402
3583.27271	1.18081
3581.34415	1.18618
3579.41558	1.19161
3577.48702	1.19621
3575.55845	1.20045
3573.62989	1.20545
3571.70132	1.21061
3569.77276	1.21579
3567.84419	1.22430
3565.91563	1.23674
3563.98707	1.24456
3562.05850	1.24655
3560.12994	1.24453
3558.20137	1.24114
3556.27281	1.24030
3554.34424	1.24323
3552.41568	1.25010
3550.48711	1.26231
3548.55855	1.27879
3546.62999	1.29432
3544.70142	1.30314
3542.77286	1.30667
3540.84429	1.30856
3538.91573	1.31135
3536.98716	1.31701
3535.05860	1.32182
3533.13003	1.32238
3531.20147	1.32382
3529.27291	1.33142
3527.34434	1.34220
3525.41578	1.34996
3523.48721	1.35492
3521.55865	1.35814
3519.63008	1.36000
3517.70152	1.36250
3515.77295	1.36394
3513.84439	1.36430
3511.91583	1.36885
3509.98726	1.37747
3508.05870	1.38353
3506.13013	1.38921
3504.20157	1.40092
3502.27300	1.41252
3500.34444	1.41943
3498.41587	1.42839
3496.48731	1.43822
3494.55875	1.44094
3492.63018	1.44007
3490.70162	1.44717
3488.77305	1.46193
3486.84449	1.47338
3484.91592	1.47381
3482.98736	1.46655
3481.05879	1.46388
3479.13023	1.46871
3477.20167	1.47372
3475.27310	1.47763
3473.34454	1.48428
3471.41597	1.49361
3469.48741	1.49999
3467.55884	1.50177
3465.63028	1.50048
3463.70171	1.49573
3461.77315	1.49336
3459.84459	1.49790
3457.91602	1.50239
3455.98746	1.50248
3454.05889	1.49987
3452.13033	1.49899
3450.20176	1.50706
3448.27320	1.52011
3446.34464	1.52388
3444.41607	1.51831
3442.48751	1.51496
3440.55894	1.52075
3438.63038	1.53231
3436.70181	1.53818
3434.77325	1.53514
3432.84468	1.53141
3430.91612	1.53308
3428.98756	1.53672
3427.05899	1.53366
3425.13043	1.52595
3423.20186	1.52114
3421.27330	1.52032
3419.34473	1.52550
3417.41617	1.53457
3415.48760	1.54133
3413.55904	1.54457
3411.63048	1.54640
3409.70191	1.55099
3407.77335	1.55491
3405.84478	1.55059
3403.91622	1.54333
3401.98765	1.54183
3400.05909	1.54489
3398.13052	1.54611
3396.20196	1.54396
3394.27340	1.54160
3392.34483	1.53835
3390.41627	1.53389
3388.48770	1.53242
3386.55914	1.53589
3384.63057	1.54044
3382.70201	1.54116
3380.77344	1.53998
3378.84488	1.54049
3376.91632	1.54203
3374.98775	1.54463
3373.05919	1.54897
3371.13062	1.55315
3369.20206	1.55436
3367.27349	1.55583
3365.34493	1.56159
3363.41636	1.56502
3361.48780	1.56268
3359.55924	1.55879
3357.63067	1.55187
3355.70211	1.54342
3353.77354	1.54207
3351.84498	1.54947
3349.91641	1.55822
3347.98785	1.56130
3346.05928	1.55996
3344.13072	1.56201
3342.20216	1.56662
3340.27359	1.56540
3338.34503	1.56274
3336.41646	1.56692
3334.48790	1.57273
3332.55933	1.57629
3330.63077	1.58203
3328.70220	1.58780
3326.77364	1.58752
3324.84508	1.58323
3322.91651	1.58261
3320.98795	1.58902
3319.05938	1.59551
3317.13082	1.59654
3315.20225	1.59732
3313.27369	1.60029
3311.34513	1.60260
3309.41656	1.60245
3307.48800	1.60118
3305.55943	1.60534
3303.63087	1.61432
3301.70230	1.62071
3299.77374	1.62310
3297.84517	1.61928
3295.91661	1.61140
3293.98805	1.60964
3292.05948	1.61463
3290.13092	1.61823
3288.20235	1.61670
3286.27379	1.61430
3284.34522	1.61462
3282.41666	1.61468
3280.48809	1.61492
3278.55953	1.62057
3276.63097	1.62917
3274.70240	1.63037
3272.77384	1.62314
3270.84527	1.61789
3268.91671	1.61752
3266.98814	1.61532
3265.05958	1.60978
3263.13101	1.60333
3261.20245	1.59235
3259.27389	1.57930
3257.34532	1.57328
3255.41676	1.57212
3253.48819	1.56938
3251.55963	1.56532
3249.63106	1.56387
3247.70250	1.56660
3245.77393	1.56500
3243.84537	1.55243
3241.91681	1.53693
3239.98824	1.52622
3238.05968	1.51995
3236.13111	1.51835
3234.20255	1.52192
3232.27398	1.52234
3230.34542	1.51345
3228.41685	1.50380
3226.48829	1.50012
3224.55973	1.49679
3222.63116	1.48890
3220.70260	1.48063
3218.77403	1.47756
3216.84547	1.47815
3214.91690	1.47687
3212.98834	1.47230
3211.05977	1.46719
3209.13121	1.46255
3207.20265	1.45815
3205.27408	1.45537
3203.34552	1.45397
3201.41695	1.45140
3199.48839	1.44744
3197.55982	1.44224
3195.63126	1.43535
3193.70269	1.43021
3191.77413	1.42668
3189.84557	1.42001
3187.91700	1.41304
3185.98844	1.41231
3184.05987	1.41553
3182.13131	1.41345
3180.20274	1.40442
3178.27418	1.39646
3176.34562	1.39317
3174.41705	1.39129
3172.48849	1.38840
3170.55992	1.38555
3168.63136	1.38350
3166.70279	1.37979
3164.77423	1.37455
3162.84566	1.37064
3160.91710	1.36770
3158.98854	1.36400
3157.05997	1.35938
3155.13141	1.35467
3153.20284	1.35014
3151.27428	1.34626
3149.34571	1.34376
3147.41715	1.34150
3145.48858	1.33881
3143.56002	1.33613
3141.63146	1.33196
3139.70289	1.32752
3137.77433	1.32518
3135.84576	1.32337
3133.91720	1.32301
3131.98863	1.32522
3130.06007	1.32514
3128.13150	1.32109
3126.20294	1.31773
3124.27438	1.31778
3122.34581	1.31885
3120.41725	1.31861
3118.48868	1.31814
3116.56012	1.31808
3114.63155	1.31667
3112.70299	1.31302
3110.77442	1.30923
3108.84586	1.30800
3106.91730	1.30922
3104.98873	1.30892
3103.06017	1.30493
3101.13160	1.30183
3099.20304	1.30253
3097.27447	1.30283
3095.34591	1.30086
3093.41734	1.30012
3091.48878	1.30101
3089.56022	1.30128
3087.63165	1.30124
3085.70309	1.30056
3083.77452	1.29715
3081.84596	1.29203
3079.91739	1.28842
3077.98883	1.28625
3076.06026	1.28381
3074.13170	1.28138
3072.20314	1.27845
3070.27457	1.27356
3068.34601	1.26786
3066.41744	1.26467
3064.48888	1.26448
3062.56031	1.26269
3060.63175	1.25759
3058.70318	1.25257
3056.77462	1.24834
3054.84606	1.24374
3052.91749	1.24073
3050.98893	1.23969
3049.06036	1.23687
3047.13180	1.23136
3045.20323	1.22522
3043.27467	1.21875
3041.34610	1.21437
3039.41754	1.21418
3037.48898	1.21371
3035.56041	1.21016
3033.63185	1.20688
3031.70328	1.20456
3029.77472	1.20107
3027.84615	1.19701
3025.91759	1.19416
3023.98903	1.19195
3022.06046	1.18876
3020.13190	1.18539
3018.20333	1.18277
3016.27477	1.18033
3014.34620	1.17837
3012.41764	1.17653
3010.48907	1.17346
3008.56051	1.16953
3006.63195	1.16619
3004.70338	1.16421
3002.77482	1.16342
3000.84625	1.16372
2998.91769	1.16481
2996.98912	1.16503
2995.06056	1.16386
2993.13199	1.16364
2991.20343	1.16597
2989.27487	1.17014
2987.34630	1.17497
2985.41774	1.17914
2983.48917	1.18291
2981.56061	1.18764
2979.63204	1.19286
2977.70348	1.19782
2975.77491	1.20194
2973.84635	1.20435
2971.91779	1.20521
2969.98922	1.20651
2968.06066	1.21084
2966.13209	1.21697
2964.20353	1.22239
2962.27496	1.22718
2960.34640	1.22936
2958.41783	1.22722
2956.48927	1.22390
2954.56071	1.22062
2952.63214	1.21539
2950.70358	1.20950
2948.77501	1.20623
2946.84645	1.20630
2944.91788	1.20877
2942.98932	1.21321
2941.06075	1.21918
2939.13219	1.22604
2937.20363	1.23362
2935.27506	1.24140
2933.34650	1.24856
2931.41793	1.25462
2929.48937	1.25901
2927.56080	1.26257
2925.63224	1.26777
2923.70367	1.27399
2921.77511	1.27663
2919.84655	1.27350
2917.91798	1.26670
2915.98942	1.25706
2914.06085	1.24312
2912.13229	1.22669
2910.20372	1.21277
2908.27516	1.20290
2906.34659	1.19432
2904.41803	1.18586
2902.48947	1.17935
2900.56090	1.17534
2898.63234	1.17216
2896.70377	1.16943
2894.77521	1.16801
2892.84664	1.16602
2890.91808	1.16092
2888.98952	1.15424
2887.06095	1.14844
2885.13239	1.14411
2883.20382	1.14195
2881.27526	1.14187
2879.34669	1.14214
2877.41813	1.14221
2875.48956	1.14213
2873.56100	1.14054
2871.63244	1.13746
2869.70387	1.13435
2867.77531	1.13075
2865.84674	1.12563
2863.91818	1.12081
2861.98961	1.11873
2860.06105	1.11966
2858.13248	1.12382
2856.20392	1.13077
2854.27536	1.13820
2852.34679	1.14393
2850.41823	1.14471
2848.48966	1.13647
2846.56110	1.11975
2844.63253	1.10055
2842.70397	1.08405
2840.77540	1.07136
2838.84684	1.06224
2836.91828	1.05555
2834.98971	1.04993
2833.06115	1.04551
2831.13258	1.04221
2829.20402	1.03909
2827.27545	1.03598
2825.34689	1.03337
2823.41832	1.03087
2821.48976	1.02759
2819.56120	1.02368
2817.63263	1.02015
2815.70407	1.01761
2813.77550	1.01560
2811.84694	1.01314
2809.91837	1.01056
2807.98981	1.00863
2806.06124	1.00634
2804.13268	1.00314
2802.20412	0.99978
2800.27555	0.99624
2798.34699	0.99307
2796.41842	0.99096
2794.48986	0.98925
2792.56129	0.98738
2790.63273	0.98568
2788.70416	0.98436
2786.77560	0.98302
2784.84704	0.98163
2782.91847	0.98003
2780.98991	0.97778
2779.06134	0.97570
2777.13278	0.97433
2775.20421	0.97289
2773.27565	0.97120
2771.34708	0.96969
2769.41852	0.96813
2767.48996	0.96634
2765.56139	0.96453
2763.63283	0.96280
2761.70426	0.96089
2759.77570	0.95861
2757.84713	0.95614
2755.91857	0.95371
2753.99001	0.95170
2752.06144	0.95036
2750.13288	0.94952
2748.20431	0.94913
2746.27575	0.94880
2744.34718	0.94795
2742.41862	0.94657
2740.49005	0.94479
2738.56149	0.94262
2736.63293	0.94034
2734.70436	0.93845
2732.77580	0.93681
2730.84723	0.93517
2728.91867	0.93431
2726.99010	0.93396
2725.06154	0.93243
2723.13297	0.93004
2721.20441	0.92835
2719.27585	0.92760
2717.34728	0.92729
2715.41872	0.92678
2713.49015	0.92564
2711.56159	0.92435
2709.63302	0.92361
2707.70446	0.92286
2705.77589	0.92094
2703.84733	0.91846
2701.91877	0.91674
2699.99020	0.91561
2698.06164	0.91480
2696.13307	0.91447
2694.20451	0.91413
2692.27594	0.91359
2690.34738	0.91334
2688.41881	0.91316
2686.49025	0.91216
2684.56169	0.91037
2682.63312	0.90861
2680.70456	0.90736
2678.77599	0.90618
2676.84743	0.90455
2674.91886	0.90292
2672.99030	0.90202
2671.06173	0.90176
2669.13317	0.90165
2667.20461	0.90118
2665.27604	0.89996
2663.34748	0.89799
2661.41891	0.89593
2659.49035	0.89490
2657.56178	0.89491
2655.63322	0.89474
2653.70465	0.89424
2651.77609	0.89381
2649.84753	0.89292
2647.91896	0.89140
2645.99040	0.89006
2644.06183	0.88915
2642.13327	0.88783
2640.20470	0.88601
2638.27614	0.88476
2636.34757	0.88432
2634.41901	0.88394
2632.49045	0.88322
2630.56188	0.88197
2628.63332	0.88024
2626.70475	0.87869
2624.77619	0.87764
2622.84762	0.87664
2620.91906	0.87525
2618.99049	0.87363
2617.06193	0.87229
2615.13337	0.87114
2613.20480	0.86964
2611.27624	0.86802
2609.34767	0.86678
2607.41911	0.86591
2605.49054	0.86514
2603.56198	0.86413
2601.63342	0.86302
2599.70485	0.86212
2597.77629	0.86088
2595.84772	0.85911
2593.91916	0.85781
2591.99059	0.85717
2590.06203	0.85622
2588.13346	0.85478
2586.20490	0.85356
2584.27634	0.85274
2582.34777	0.85213
2580.41921	0.85145
2578.49064	0.85028
2576.56208	0.84875
2574.63351	0.84747
2572.70495	0.84676
2570.77638	0.84638
2568.84782	0.84593
2566.91926	0.84536
2564.99069	0.84465
2563.06213	0.84386
2561.13356	0.84315
2559.20500	0.84216
2557.27643	0.84069
2555.34787	0.83924
2553.41930	0.83805
2551.49074	0.83701
2549.56218	0.83591
2547.63361	0.83448
2545.70505	0.83324
2543.77648	0.83269
2541.84792	0.83225
2539.91935	0.83142
2537.99079	0.83082
2536.06222	0.83077
2534.13366	0.83036
2532.20510	0.82924
2530.27653	0.82804
2528.34797	0.82724
2526.41940	0.82712
2524.49084	0.82728
2522.56227	0.82697
2520.63371	0.82577
2518.70514	0.82405
2516.77658	0.82287
2514.84802	0.82249
2512.91945	0.82178
2510.99089	0.82000
2509.06232	0.81809
2507.13376	0.81736
2505.20519	0.81738
2503.27663	0.81650
2501.34806	0.81473
2499.41950	0.81338
2497.49094	0.81264
2495.56237	0.81212
2493.63381	0.81169
2491.70524	0.81101
2489.77668	0.80981
2487.84811	0.80838
2485.91955	0.80710
2483.99098	0.80588
2482.06242	0.80448
2480.13386	0.80286
2478.20529	0.80106
2476.27673	0.79963
2474.34816	0.79901
2472.41960	0.79830
2470.49103	0.79680
2468.56247	0.79525
2466.63391	0.79405
2464.70534	0.79274
2462.77678	0.79145
2460.84821	0.79050
2458.91965	0.78978
2456.99108	0.78917
2455.06252	0.78862
2453.13395	0.78813
2451.20539	0.78751
2449.27683	0.78657
2447.34826	0.78541
2445.41970	0.78436
2443.49113	0.78386
2441.56257	0.78380
2439.63400	0.78332
2437.70544	0.78214
2435.77687	0.78083
2433.84831	0.77960
2431.91975	0.77835
2429.99118	0.77723
2428.06262	0.77623
2426.13405	0.77519
2424.20549	0.77447
2422.27692	0.77433
2420.34836	0.77411
2418.41979	0.77322
2416.49123	0.77208
2414.56267	0.77123
2412.63410	0.77058
2410.70554	0.76993
2408.77697	0.76914
2406.84841	0.76825
2404.91984	0.76746
2402.99128	0.76684
2401.06271	0.76621
2399.13415	0.76538
2397.20559	0.76443
2395.27702	0.76360
2393.34846	0.76280
2391.41989	0.76192
2389.49133	0.76139
2387.56276	0.76132
2385.63420	0.76104
2383.70563	0.76038
2381.77707	0.76023
2379.84851	0.76098
2377.91994	0.76205
2375.99138	0.76280
2374.06281	0.76280
2372.13425	0.76264
2370.20568	0.76354
2368.27712	0.76482
2366.34855	0.76488
2364.41999	0.76434
2362.49143	0.76306
2360.56286	0.75990
2358.63430	0.75863
2356.70573	0.76139
2354.77717	0.76162
2352.84860	0.75668
2350.92004	0.75204
2348.99147	0.75019
2347.06291	0.74991
2345.13435	0.75050
2343.20578	0.75197
2341.27722	0.75287
2339.34865	0.75252
2337.42009	0.75178
2335.49152	0.75067
2333.56296	0.74963
2331.63440	0.74936
2329.70583	0.74925
2327.77727	0.74840
2325.84870	0.74725
2323.92014	0.74594
2321.99157	0.74344
2320.06301	0.74061
2318.13444	0.73920
2316.20588	0.73834
2314.27732	0.73712
2312.34875	0.73616
2310.42019	0.73508
2308.49162	0.73301
2306.56306	0.73076
2304.63449	0.72954
2302.70593	0.72896
2300.77736	0.72804
2298.84880	0.72683
2296.92024	0.72576
2294.99167	0.72479
2293.06311	0.72382
2291.13454	0.72268
2289.20598	0.72148
2287.27741	0.72057
2285.34885	0.71953
2283.42028	0.71818
2281.49172	0.71711
2279.56316	0.71655
2277.63459	0.71634
2275.70603	0.71620
2273.77746	0.71567
2271.84890	0.71505
2269.92033	0.71482
2267.99177	0.71476
2266.06320	0.71445
2264.13464	0.71399
2262.20608	0.71353
2260.27751	0.71301
2258.34895	0.71248
2256.42038	0.71188
2254.49182	0.71101
2252.56325	0.70994
2250.63469	0.70897
2248.70612	0.70829
2246.77756	0.70764
2244.84900	0.70689
2242.92043	0.70607
2240.99187	0.70514
2239.06330	0.70454
2237.13474	0.70441
2235.20617	0.70428
2233.27761	0.70366
2231.34904	0.70275
2229.42048	0.70223
2227.49192	0.70219
2225.56335	0.70204
2223.63479	0.70171
2221.70622	0.70161
2219.77766	0.70173
2217.84909	0.70153
2215.92053	0.70064
2213.99196	0.69952
2212.06340	0.69870
2210.13484	0.69816
2208.20627	0.69769
2206.27771	0.69710
2204.34914	0.69627
2202.42058	0.69552
2200.49201	0.69501
2198.56345	0.69432
2196.63488	0.69322
2194.70632	0.69224
2192.77776	0.69179
2190.84919	0.69155
2188.92063	0.69123
2186.99206	0.69096
2185.06350	0.69081
2183.13493	0.69071
2181.20637	0.69059
2179.27781	0.69025
2177.34924	0.68961
2175.42068	0.68893
2173.49211	0.68841
2171.56355	0.68789
2169.63498	0.68717
2167.70642	0.68620
2165.77785	0.68518
2163.84929	0.68449
2161.92073	0.68410
2159.99216	0.68344
2158.06360	0.68248
2156.13503	0.68174
2154.20647	0.68140
2152.27790	0.68116
2150.34934	0.68064
2148.42077	0.67999
2146.49221	0.67973
2144.56365	0.67985
2142.63508	0.67962
2140.70652	0.67886
2138.77795	0.67812
2136.84939	0.67760
2134.92082	0.67691
2132.99226	0.67614
2131.06369	0.67579
2129.13513	0.67552
2127.20657	0.67462
2125.27800	0.67344
2123.34944	0.67272
2121.42087	0.67223
2119.49231	0.67157
2117.56374	0.67098
2115.63518	0.67067
2113.70661	0.67037
2111.77805	0.66993
2109.84949	0.66952
2107.92092	0.66929
2105.99236	0.66926
2104.06379	0.66915
2102.13523	0.66877
2100.20666	0.66825
2098.27810	0.66760
2096.34953	0.66685
2094.42097	0.66606
2092.49241	0.66527
2090.56384	0.66459
2088.63528	0.66395
2086.70671	0.66318
2084.77815	0.66224
2082.84958	0.66122
2080.92102	0.66031
2078.99245	0.65959
2077.06389	0.65885
2075.13533	0.65811
2073.20676	0.65743
2071.27820	0.65670
2069.34963	0.65608
2067.42107	0.65580
2065.49250	0.65553
2063.56394	0.65479
2061.63537	0.65389
2059.70681	0.65330
2057.77825	0.65274
2055.84968	0.65189
2053.92112	0.65080
2051.99255	0.64959
2050.06399	0.64847
2048.13542	0.64747
2046.20686	0.64648
2044.27830	0.64565
2042.34973	0.64505
2040.42117	0.64450
2038.49260	0.64390
2036.56404	0.64334
2034.63547	0.64296
2032.70691	0.64268
2030.77834	0.64220
2028.84978	0.64155
2026.92122	0.64097
2024.99265	0.64034
2023.06409	0.63943
2021.13552	0.63835
2019.20696	0.63736
2017.27839	0.63644
2015.34983	0.63528
2013.42126	0.63387
2011.49270	0.63254
2009.56414	0.63154
2007.63557	0.63071
2005.70701	0.62958
2003.77844	0.62804
2001.84988	0.62666
1999.92131	0.62582
1997.99275	0.62539
1996.06418	0.62499
1994.13562	0.62442
1992.20706	0.62373
1990.27849	0.62315
1988.34993	0.62263
1986.42136	0.62205
1984.49280	0.62135
1982.56423	0.62043
1980.63567	0.61934
1978.70710	0.61825
1976.77854	0.61723
1974.84998	0.61639
1972.92141	0.61580
1970.99285	0.61514
1969.06428	0.61438
1967.13572	0.61372
1965.20715	0.61301
1963.27859	0.61203
1961.35002	0.61099
1959.42146	0.61022
1957.49290	0.60976
1955.56433	0.60934
1953.63577	0.60864
1951.70720	0.60774
1949.77864	0.60687
1947.85007	0.60604
1945.92151	0.60517
1943.99294	0.60423
1942.06438	0.60293
1940.13582	0.60144
1938.20725	0.60022
1936.27869	0.59909
1934.35012	0.59795
1932.42156	0.59699
1930.49299	0.59609
1928.56443	0.59518
1926.63586	0.59444
1924.70730	0.59401
1922.77874	0.59387
1920.85017	0.59369
1918.92161	0.59325
1916.99304	0.59249
1915.06448	0.59152
1913.13591	0.59075
1911.20735	0.59035
1909.27878	0.58989
1907.35022	0.58890
1905.42166	0.58764
1903.49309	0.58654
1901.56453	0.58545
1899.63596	0.58433
1897.70740	0.58334
1895.77883	0.58236
1893.85027	0.58125
1891.92171	0.58039
1889.99314	0.57993
1888.06458	0.57943
1886.13601	0.57869
1884.20745	0.57799
1882.27888	0.57760
1880.35032	0.57731
1878.42175	0.57665
1876.49319	0.57578
1874.56463	0.57516
1872.63606	0.57480
1870.70750	0.57440
1868.77893	0.57371
1866.85037	0.57240
1864.92180	0.57073
1862.99324	0.56917
1861.06467	0.56783
1859.13611	0.56668
1857.20755	0.56564
1855.27898	0.56461
1853.35042	0.56369
1851.42185	0.56309
1849.49329	0.56270
1847.56472	0.56224
1845.63616	0.56187
1843.70759	0.56158
1841.77903	0.56104
1839.85047	0.56045
1837.92190	0.55983
1835.99334	0.55906
1834.06477	0.55825
1832.13621	0.55769
1830.20764	0.55726
1828.27908	0.55647
1826.35051	0.55545
1824.42195	0.55444
1822.49339	0.55332
1820.56482	0.55206
1818.63626	0.55090
1816.70769	0.54995
1814.77913	0.54924
1812.85056	0.54875
1810.92200	0.54836
1808.99343	0.54791
1807.06487	0.54724
1805.13631	0.54648
1803.20774	0.54600
1801.27918	0.54589
1799.35061	0.54550
1797.42205	0.54463
1795.49348	0.54367
1793.56492	0.54282
1791.63635	0.54201
1789.70779	0.54096
1787.77923	0.53984
1785.85066	0.53869
1783.92210	0.53774
1781.99353	0.53728
1780.06497	0.53675
1778.13640	0.53596
1776.20784	0.53540
1774.27927	0.53558
1772.35071	0.53612
1770.42215	0.53572
1768.49358	0.53488
1766.56502	0.53432
1764.63645	0.53425
1762.70789	0.53473
1760.77932	0.53539
1758.85076	0.53589
1756.92220	0.53686
1754.99363	0.53822
1753.06507	0.53983
1751.13650	0.54295
1749.20794	0.54748
1747.27937	0.55117
1745.35081	0.55377
1743.42224	0.55602
1741.49368	0.55819
1739.56512	0.56009
1737.63655	0.56125
1735.70799	0.56228
1733.77942	0.56485
1731.85086	0.56678
1729.92229	0.56742
1727.99373	0.56842
1726.06516	0.57031
1724.13660	0.57363
1722.20804	0.57727
1720.27947	0.58068
1718.35091	0.58673
1716.42234	0.59701
1714.49378	0.60420
1712.56521	0.60912
1710.63665	0.61521
1708.70808	0.62319
1706.77952	0.63618
1704.85096	0.65420
1702.92239	0.67065
1700.99383	0.69523
1699.06526	0.73706
1697.13670	0.77980
1695.20813	0.82230
1693.27957	0.85302
1691.35100	0.87835
1689.42244	0.91072
1687.49388	0.94223
1685.56531	0.97675
1683.63675	1.03444
1681.70818	1.07618
1679.77962	1.09974
1677.85105	1.12254
1675.92249	1.15101
1673.99392	1.18290
1672.06536	1.20777
1670.13680	1.23656
1668.20823	1.26911
1666.27967	1.28755
1664.35110	1.30423
1662.42254	1.32780
1660.49397	1.34645
1658.56541	1.35673
1656.63684	1.36435
1654.70828	1.37435
1652.77972	1.38808
1650.85115	1.39112
1648.92259	1.39043
1646.99402	1.39174
1645.06546	1.39293
1643.13689	1.39266
1641.20833	1.39348
1639.27976	1.39401
1637.35120	1.39392
1635.42264	1.39337
1633.49407	1.39017
1631.56551	1.38648
1629.63694	1.38205
1627.70838	1.37668
1625.77981	1.37046
1623.85125	1.35939
1621.92269	1.34159
1619.99412	1.32501
1618.06556	1.30442
1616.13699	1.26983
1614.20843	1.24021
1612.27986	1.21799
1610.35130	1.19396
1608.42273	1.16783
1606.49417	1.14436
1604.56561	1.12555
1602.63704	1.11018
1600.70848	1.09792
1598.77991	1.08842
1596.85135	1.08083
1594.92278	1.07463
1592.99422	1.06991
1591.06565	1.06691
1589.13709	1.06600
1587.20853	1.06797
1585.27996	1.07270
1583.35140	1.07907
1581.42283	1.08575
1579.49427	1.09242
1577.56570	1.10283
1575.63714	1.12053
1573.70857	1.13322
1571.78001	1.14208
1569.85145	1.15661
1567.92288	1.17186
1565.99432	1.18263
1564.06575	1.19384
1562.13719	1.20316
1560.20862	1.21350
1558.28006	1.23828
1556.35149	1.25288
1554.42293	1.25913
1552.49437	1.26515
1550.56580	1.27051
1548.63724	1.27315
1546.70867	1.27220
1544.78011	1.26857
1542.85154	1.26368
1540.92298	1.25955
1538.99441	1.25485
1537.06585	1.25115
1535.13729	1.24619
1533.20872	1.23725
1531.28016	1.22771
1529.35159	1.22141
1527.42303	1.21700
1525.49446	1.21264
1523.56590	1.20812
1521.63733	1.20357
1519.70877	1.19992
1517.78021	1.19429
1515.85164	1.18408
1513.92308	1.17061
1511.99451	1.15473
1510.06595	1.13791
1508.13738	1.11273
1506.20882	1.07286
1504.28025	1.05364
1502.35169	1.04182
1500.42313	1.02731
1498.49456	1.00759
1496.56600	0.98376
1494.63743	0.96616
1492.70887	0.95522
1490.78030	0.94317
1488.85174	0.92640
1486.92317	0.91273
1484.99461	0.90421
1483.06605	0.89852
1481.13748	0.89489
1479.20892	0.89360
1477.28035	0.89522
1475.35179	0.90081
1473.42322	0.91350
1471.49466	0.92918
1469.56610	0.93808
1467.63753	0.94388
1465.70897	0.95076
1463.78040	0.95707
1461.85184	0.95965
1459.92327	0.96099
1457.99471	0.96585
1456.06614	0.97350
1454.13758	0.97548
1452.20902	0.97477
1450.28045	0.97340
1448.35189	0.97132
1446.42332	0.96804
1444.49476	0.96397
1442.56619	0.95933
1440.63763	0.95466
1438.70906	0.94996
1436.78050	0.94308
1434.85194	0.93473
1432.92337	0.92786
1430.99481	0.92139
1429.06624	0.91529
1427.13768	0.91132
1425.20911	0.90991
1423.28055	0.91050
1421.35198	0.91233
1419.42342	0.91623
1417.49486	0.92082
1415.56629	0.92269
1413.63773	0.92296
1411.70916	0.92269
1409.78060	0.92256
1407.85203	0.92306
1405.92347	0.92463
1403.99490	0.92682
1402.06634	0.92817
1400.13778	0.92868
1398.20921	0.92885
1396.28065	0.92901
1394.35208	0.92900
1392.42352	0.92876
1390.49495	0.92924
1388.56639	0.93223
1386.63782	0.93919
1384.70926	0.94767
1382.78070	0.95521
1380.85213	0.96071
1378.92357	0.96290
1376.99500	0.96144
1375.06644	0.95520
1373.13787	0.94415
1371.20931	0.93209
1369.28074	0.91909
1367.35218	0.90504
1365.42362	0.89221
1363.49505	0.87941
1361.56649	0.86672
1359.63792	0.85764
1357.70936	0.85157
1355.78079	0.84675
1353.85223	0.84289
1351.92366	0.83992
1349.99510	0.83726
1348.06654	0.83485
1346.13797	0.83309
1344.20941	0.83204
1342.28084	0.83179
1340.35228	0.83244
1338.42371	0.83348
1336.49515	0.83501
1334.56659	0.83791
1332.63802	0.84225
1330.70946	0.84731
1328.78089	0.85197
1326.85233	0.85515
1324.92376	0.85671
1322.99520	0.85779
1321.06663	0.85955
1319.13807	0.86188
1317.20951	0.86359
1315.28094	0.86413
1313.35238	0.86426
1311.42381	0.86430
1309.49525	0.86377
1307.56668	0.86252
1305.63812	0.86078
1303.70955	0.85888
1301.78099	0.85685
1299.85243	0.85421
1297.92386	0.85041
1295.99530	0.84594
1294.06673	0.84173
1292.13817	0.83828
1290.20960	0.83592
1288.28104	0.83451
1286.35247	0.83338
1284.42391	0.83213
1282.49535	0.83087
1280.56678	0.82987
1278.63822	0.82934
1276.70965	0.82953
1274.78109	0.83086
1272.85252	0.83381
1270.92396	0.83820
1268.99539	0.84327
1267.06683	0.84860
1265.13827	0.85399
1263.20970	0.85885
1261.28114	0.86254
1259.35257	0.86510
1257.42401	0.86736
1255.49544	0.87016
1253.56688	0.87366
1251.63831	0.87714
1249.70975	0.87979
1247.78119	0.88155
1245.85262	0.88274
1243.92406	0.88341
1241.99549	0.88363
1240.06693	0.88328
1238.13836	0.88173
1236.20980	0.87909
1234.28123	0.87594
1232.35267	0.87205
1230.42411	0.86688
1228.49554	0.86055
1226.56698	0.85365
1224.63841	0.84659
1222.70985	0.83940
1220.78128	0.83232
1218.85272	0.82575
1216.92415	0.81983
1214.99559	0.81507
1213.06703	0.81234
1211.13846	0.81179
1209.20990	0.81258
1207.28133	0.81303
1205.35277	0.81150
1203.42420	0.80745
1201.49564	0.80147
1199.56708	0.79442
1197.63851	0.78666
1195.70995	0.77845
1193.78138	0.77045
1191.85282	0.76353
1189.92425	0.75819
1187.99569	0.75426
1186.06712	0.75145
1184.13856	0.74992
1182.21000	0.74999
1180.28143	0.75189
1178.35287	0.75557
1176.42430	0.76063
1174.49574	0.76641
1172.56717	0.77216
1170.63861	0.77805
1168.71004	0.78554
1166.78148	0.79595
1164.85292	0.80911
1162.92435	0.82345
1160.99579	0.83708
1159.06722	0.84811
1157.13866	0.85451
1155.21009	0.85504
1153.28153	0.85022
1151.35296	0.84161
1149.42440	0.83102
1147.49584	0.82000
1145.56727	0.80997
1143.63871	0.80252
1141.71014	0.79842
1139.78158	0.79727
1137.85301	0.79879
1135.92445	0.80311
1133.99588	0.80985
1132.06732	0.81834
1130.13876	0.82858
1128.21019	0.84032
1126.28163	0.85234
1124.35306	0.86385
1122.42450	0.87442
1120.49593	0.88372
1118.56737	0.89206
1116.63880	0.89863
1114.71024	0.90147
1112.78168	0.90063
1110.85311	0.89768
1108.92455	0.89381
1106.99598	0.89005
1105.06742	0.88678
1103.13885	0.88386
1101.21029	0.88205
1099.28172	0.88209
1097.35316	0.88381
1095.42460	0.88748
1093.49603	0.89394
1091.56747	0.90352
1089.63890	0.91556
1087.71034	0.92949
1085.78177	0.94520
1083.85321	0.96169
1081.92464	0.97692
1079.99608	0.98881
1078.06752	0.99597
1076.13895	0.99761
1074.21039	0.99369
1072.28182	0.98594
1070.35326	0.97675
1068.42469	0.96738
1066.49613	0.95817
1064.56756	0.94945
1062.63900	0.94134
1060.71044	0.93399
1058.78187	0.92770
1056.85331	0.92177
1054.92474	0.91581
1052.99618	0.91049
1051.06761	0.90592
1049.13905	0.90207
1047.21049	0.90024
1045.28192	0.90171
1043.35336	0.90581
1041.42479	0.91069
1039.49623	0.91534
1037.56766	0.91952
1035.63910	0.92277
1033.71053	0.92439
1031.78197	0.92396
1029.85341	0.92115
1027.92484	0.91566
1025.99628	0.90798
1024.06771	0.89933
1022.13915	0.89084
1020.21058	0.88384
1018.28202	0.87902
1016.35345	0.87510
1014.42489	0.87005
1012.49633	0.86267
1010.56776	0.85237
1008.63920	0.83969
1006.71063	0.82635
1004.78207	0.81358
1002.85350	0.80230
1000.92494	0.79362
998.99637	0.78751
997.06781	0.78282
995.13925	0.77861
993.21068	0.77389
991.28212	0.76748
989.35355	0.75911
987.42499	0.74956
985.49642	0.73977
983.56786	0.73073
981.63929	0.72332
979.71073	0.71800
977.78217	0.71458
975.85360	0.71199
973.92504	0.70883
971.99647	0.70453
970.06791	0.69942
968.13934	0.69408
966.21078	0.68916
964.28221	0.68543
962.35365	0.68382
960.42509	0.68515
958.49652	0.68964
956.56796	0.69558
954.63939	0.69982
952.71083	0.70010
950.78226	0.69641
948.85370	0.69060
946.92513	0.68480
944.99657	0.68015
943.06801	0.67670
941.13944	0.67396
939.21088	0.67150
937.28231	0.66926
935.35375	0.66736
933.42518	0.66583
931.49662	0.66471
929.56805	0.66402
927.63949	0.66381
925.71093	0.66417
923.78236	0.66481
921.85380	0.66523
919.92523	0.66512
917.99667	0.66443
916.06810	0.66323
914.13954	0.66170
912.21098	0.66018
910.28241	0.65912
908.35385	0.65886
906.42528	0.65927
904.49672	0.65996
902.56815	0.66080
900.63959	0.66169
898.71102	0.66234
896.78246	0.66260
894.85390	0.66241
892.92533	0.66172
890.99677	0.66069
889.06820	0.65945
887.13964	0.65808
885.21107	0.65713
883.28251	0.65703
881.35394	0.65747
879.42538	0.65789
877.49682	0.65798
875.56825	0.65796
873.63969	0.65778
871.71112	0.65690
869.78256	0.65579
867.85399	0.65530
865.92543	0.65518
863.99686	0.65515
862.06830	0.65543
860.13974	0.65609
858.21117	0.65739
856.28261	0.65960
854.35404	0.66241
852.42548	0.66543
850.49691	0.66839
848.56835	0.67109
846.63978	0.67373
844.71122	0.67656
842.78266	0.67931
840.85409	0.68178
838.92553	0.68402
836.99696	0.68593
835.06840	0.68766
833.13983	0.68964
831.21127	0.69156
829.28270	0.69267
827.35414	0.69249
825.42558	0.69149
823.49701	0.69057
821.56845	0.69000
819.63988	0.68986
817.71132	0.69037
815.78275	0.69133
813.85419	0.69221
811.92562	0.69320
809.99706	0.69500
808.06850	0.69741
806.13993	0.69961
804.21137	0.70106
802.28280	0.70178
800.35424	0.70227
798.42567	0.70271
796.49711	0.70288
794.56854	0.70303
792.63998	0.70323
790.71142	0.70340
788.78285	0.70383
786.85429	0.70481
784.92572	0.70618
782.99716	0.70754
781.06859	0.70892
779.14003	0.71055
777.21147	0.71258
775.28290	0.71494
773.35434	0.71726
771.42577	0.71982
769.49721	0.72265
767.56864	0.72529
765.64008	0.72789
763.71151	0.73053
761.78295	0.73307
759.85439	0.73557
757.92582	0.73808
755.99726	0.74047
754.06869	0.74275
752.14013	0.74513
750.21156	0.74700
748.28300	0.74782
746.35443	0.74815
744.42587	0.74832
742.49731	0.74795
740.56874	0.74696
738.64018	0.74624
736.71161	0.74651
734.78305	0.74705
732.85448	0.74725
730.92592	0.74780
728.99735	0.74914
727.06879	0.75123
725.14023	0.75451
723.21166	0.75864
721.28310	0.76251
719.35453	0.76591
717.42597	0.76930
715.49740	0.77248
713.56884	0.77519
711.64027	0.77796
709.71171	0.78117
707.78315	0.78395
705.85458	0.78575
703.92602	0.78743
701.99745	0.78880
700.06889	0.78851
698.14032	0.78700
696.21176	0.78537
694.28319	0.78417
692.35463	0.78428
690.42607	0.78580
688.49750	0.78688
686.56894	0.78616
684.64037	0.78494
682.71181	0.78478
680.78324	0.78569
678.85468	0.78704
676.92611	0.78776
674.99755	0.78731
673.06899	0.78670
671.14042	0.78710
669.21186	0.78841
667.28329	0.78848
665.35473	0.78699
663.42616	0.78565
661.49760	0.78511
659.56903	0.78502
657.64047	0.78400
655.71191	0.78241
653.78334	0.78175
651.85478	0.78208
649.92621	0.78263
647.99765	0.78234
646.06908	0.78200
644.14052	0.78399
642.21195	0.78787
640.28339	0.79132
638.35483	0.79399
636.42626	0.79624
634.49770	0.79761
632.56913	0.79889
630.64057	0.80070
628.71200	0.80057
626.78344	0.79804
624.85488	0.79637
622.92631	0.79625
620.99775	0.79601
619.06918	0.79501
617.14062	0.79292
615.21205	0.79032
613.28349	0.78838
611.35492	0.78723
609.42636	0.78615
607.49780	0.78505
605.56923	0.78498
603.64067	0.78590
601.71210	0.78678
599.78354	0.78748
