3997.91406	0.70801
3995.98550	0.70782
3994.05693	0.70719
3992.12837	0.70760
3990.19980	0.70919
3988.27124	0.70998
3986.34268	0.70908
3984.41411	0.70811
3982.48555	0.70863
3980.55698	0.70834
3978.62842	0.70585
3976.69985	0.70387
3974.77129	0.70361
3972.84272	0.70404
3970.91416	0.70454
3968.98560	0.70423
3967.05703	0.70264
3965.12847	0.70093
3963.19990	0.70088
3961.27134	0.70228
3959.34277	0.70217
3957.41421	0.70007
3955.48564	0.69850
3953.55708	0.69801
3951.62852	0.69752
3949.69995	0.69756
3947.77139	0.69897
3945.84282	0.70011
3943.91426	0.70017
3941.98569	0.69967
3940.05713	0.69826
3938.12856	0.69649
3936.20000	0.69529
3934.27144	0.69517
3932.34287	0.69634
3930.41431	0.69682
3928.48574	0.69553
3926.55718	0.69449
3924.62861	0.69465
3922.70005	0.69484
3920.77148	0.69437
3918.84292	0.69374
3916.91436	0.69386
3914.98579	0.69380
3913.05723	0.69206
3911.12866	0.69004
3909.20010	0.68928
3907.27153	0.68916
3905.34297	0.68933
3903.41440	0.69040
3901.48584	0.69194
3899.55728	0.69265
3897.62871	0.69123
3895.70015	0.68856
3893.77158	0.68772
3891.84302	0.69069
3889.91445	0.69284
3887.98589	0.69124
3886.05733	0.68866
3884.12876	0.68761
3882.20020	0.68767
3880.27163	0.68649
3878.34307	0.68312
3876.41450	0.68133
3874.48594	0.68356
3872.55737	0.68559
3870.62881	0.68487
3868.70025	0.68415
3866.77168	0.68283
3864.84312	0.68208
3862.91455	0.68259
3860.98599	0.68100
3859.05742	0.67765
3857.12886	0.67505
3855.20029	0.67548
3853.27173	0.67926
3851.34317	0.67894
3849.41460	0.67639
3847.48604	0.67481
3845.55747	0.67485
3843.62891	0.67673
3841.70034	0.67870
3839.77178	0.67900
3837.84321	0.67904
3835.91465	0.67988
3833.98609	0.68079
3832.05752	0.67985
3830.12896	0.67684
3828.20039	0.67474
3826.27183	0.67430
3824.34326	0.67471
3822.41470	0.67771
3820.48613	0.67940
3818.55757	0.67548
3816.62901	0.67373
3814.70044	0.67446
3812.77188	0.67420
3810.84331	0.67349
3808.91475	0.67296
3806.98618	0.67371
3805.05762	0.67429
3803.12905	0.67313
3801.20049	0.67174
3799.27193	0.67013
3797.34336	0.66861
3795.41480	0.66803
3793.48623	0.66784
3791.55767	0.66775
3789.62910	0.66743
3787.70054	0.66737
3785.77197	0.66834
3783.84341	0.66817
3781.91485	0.66670
3779.98628	0.66689
3778.05772	0.66760
3776.12915	0.66649
3774.20059	0.66503
3772.27202	0.66519
3770.34346	0.66746
3768.41489	0.66902
3766.48633	0.66843
3764.55777	0.66687
3762.62920	0.66536
3760.70064	0.66529
3758.77207	0.66663
3756.84351	0.66630
3754.91494	0.66444
3752.98638	0.66508
3751.05781	0.67175
3749.12925	0.67607
3747.20069	0.67648
3745.27212	0.67625
3743.34356	0.67106
3741.41499	0.66492
3739.48643	0.66214
3737.55786	0.66298
3735.62930	0.66671
3733.70074	0.66909
3731.77217	0.66810
3729.84361	0.66612
3727.91504	0.66555
3725.98648	0.66765
3724.05791	0.67052
3722.12935	0.67098
3720.20078	0.66923
3718.27222	0.66760
3716.34366	0.66667
3714.41509	0.66648
3712.48653	0.66887
3710.55796	0.67201
3708.62940	0.67081
3706.70083	0.66861
3704.77227	0.66775
3702.84370	0.66909
3700.91514	0.67115
3698.98658	0.67088
3697.05801	0.66979
3695.12945	0.66959
3693.20088	0.67029
3691.27232	0.67271
3689.34375	0.67565
3687.41519	0.67545
3685.48662	0.67453
3683.55806	0.67484
3681.62950	0.67686
3679.70093	0.68000
3677.77237	0.68364
3675.84380	0.68947
3673.91524	0.69192
3671.98667	0.69129
3670.05811	0.69779
3668.12954	0.70617
3666.20098	0.70784
3664.27242	0.70848
3662.34385	0.71147
3660.41529	0.71608
3658.48672	0.72094
3656.55816	0.72565
3654.62959	0.72874
3652.70103	0.73124
3650.77246	0.73700
3648.84390	0.74819
3646.91534	0.75669
3644.98677	0.76128
3643.05821	0.76476
3641.12964	0.76784
3639.20108	0.77155
3637.27251	0.77707
3635.34395	0.78442
3633.41538	0.79244
3631.48682	0.80071
3629.55826	0.81273
3627.62969	0.82180
3625.70113	0.82348
3623.77256	0.82591
3621.84400	0.82999
3619.91543	0.83602
3617.98687	0.84397
3616.05830	0.85094
3614.12974	0.85724
3612.20118	0.86208
3610.27261	0.86632
3608.34405	0.87420
3606.41548	0.88244
3604.48692	0.88606
3602.55835	0.88947
3600.62979	0.89618
3598.70123	0.90237
3596.77266	0.90572
3594.84410	0.91035
3592.91553	0.91729
3590.98697	0.92340
3589.05840	0.93149
3587.12984	0.94408
3585.20127	0.95171
3583.27271	0.95412
3581.34415	0.95802
3579.41558	0.96444
3577.48702	0.97144
3575.55845	0.97939
3573.62989	0.98726
3571.70132	0.99205
3569.77276	0.99432
3567.84419	0.99969
3565.91563	1.01082
3563.98707	1.02026
3562.05850	1.02791
3560.12994	1.03569
3558.20137	1.04134
3556.27281	1.04252
3554.34424	1.04295
3552.41568	1.04766
3550.48711	1.05408
3548.55855	1.06095
3546.62999	1.07161
3544.70142	1.08294
3542.77286	1.08851
3540.84429	1.09109
3538.91573	1.09541
3536.98716	1.10240
3535.05860	1.11141
3533.13003	1.11882
3531.20147	1.12215
3529.27291	1.12569
3527.34434	1.13279
3525.41578	1.14095
3523.48721	1.14863
3521.55865	1.15402
3519.63008	1.15664
3517.70152	1.16059
3515.77295	1.16828
3513.84439	1.17821
3511.91583	1.18746
3509.98726	1.19433
3508.05870	1.19989
3506.13013	1.20650
3504.20157	1.21616
3502.27300	1.22696
3500.34444	1.23774
3498.41587	1.24837
3496.48731	1.25370
3494.55875	1.25496
3492.63018	1.25870
3490.70162	1.26502
3488.77305	1.27215
3486.84449	1.27837
3484.91592	1.28191
3482.98736	1.28476
3481.05879	1.28874
3479.13023	1.29248
3477.20167	1.29408
3475.27310	1.29251
3473.34454	1.29274
3471.41597	1.29884
3469.48741	1.30552
3467.55884	1.30940
3465.63028	1.31407
3463.70171	1.32004
3461.77315	1.32348
3459.84459	1.32602
3457.91602	1.33144
3455.98746	1.33678
3454.05889	1.34037
3452.13033	1.34422
3450.20176	1.34659
3448.27320	1.34854
3446.34464	1.35424
3444.41607	1.35916
3442.48751	1.36005
3440.55894	1.36139
3438.63038	1.36358
3436.70181	1.36341
3434.77325	1.36243
3432.84468	1.36448
3430.91612	1.36870
3428.98756	1.37075
3427.05899	1.36744
3425.13043	1.36057
3423.20186	1.35561
3421.27330	1.35530
3419.34473	1.35945
3417.41617	1.36425
3415.48760	1.36415
3413.55904	1.36096
3411.63048	1.36072
3409.70191	1.36128
3407.77335	1.35872
3405.84478	1.35899
3403.91622	1.36545
3401.98765	1.36994
3400.05909	1.36909
3398.13052	1.36927
3396.20196	1.37360
3394.27340	1.37997
3392.34483	1.38327
3390.41627	1.37973
3388.48770	1.37691
3386.55914	1.38186
3384.63057	1.38755
3382.70201	1.38707
3380.77344	1.38557
3378.84488	1.38640
3376.91632	1.38579
3374.98775	1.38331
3373.05919	1.38221
3371.13062	1.38289
3369.20206	1.38312
3367.27349	1.38103
3365.34493	1.37940
3363.41636	1.38197
3361.48780	1.38523
3359.55924	1.38547
3357.63067	1.38674
3355.70211	1.38989
3353.77354	1.39069
3351.84498	1.39182
3349.91641	1.39698
3347.98785	1.40240
3346.05928	1.40419
3344.13072	1.40457
3342.20216	1.40710
3340.27359	1.41057
3338.34503	1.41149
3336.41646	1.40967
3334.48790	1.40932
3332.55933	1.41273
3330.63077	1.41695
3328.70220	1.41957
3326.77364	1.42116
3324.84508	1.42502
3322.91651	1.43035
3320.98795	1.43045
3319.05938	1.42691
3317.13082	1.42677
3315.20225	1.43035
3313.27369	1.43483
3311.34513	1.44054
3309.41656	1.44910
3307.48800	1.45794
3305.55943	1.46433
3303.63087	1.46876
3301.70230	1.47053
3299.77374	1.46752
3297.84517	1.46108
3295.91661	1.45977
3293.98805	1.46765
3292.05948	1.47572
3290.13092	1.47664
3288.20235	1.47352
3286.27379	1.47047
3284.34522	1.47014
3282.41666	1.47442
3280.48809	1.47782
3278.55953	1.47408
3276.63097	1.47041
3274.70240	1.47275
3272.77384	1.47210
3270.84527	1.46511
3268.91671	1.45932
3266.98814	1.45679
3265.05958	1.45581
3263.13101	1.45540
3261.20245	1.45420
3259.27389	1.45190
3257.34532	1.44676
3255.41676	1.43713
3253.48819	1.42769
3251.55963	1.42278
3249.63106	1.41916
3247.70250	1.41243
3245.77393	1.40303
3243.84537	1.39704
3241.91681	1.39918
3239.98824	1.40236
3238.05968	1.39714
3236.13111	1.38584
3234.20255	1.37425
3232.27398	1.36453
3230.34542	1.35780
3228.41685	1.35316
3226.48829	1.34916
3224.55973	1.34566
3222.63116	1.34215
3220.70260	1.33850
3218.77403	1.33481
3216.84547	1.33115
3214.91690	1.32975
3212.98834	1.33001
3211.05977	1.32576
3209.13121	1.31601
3207.20265	1.30885
3205.27408	1.30931
3203.34552	1.31182
3201.41695	1.30722
3199.48839	1.29614
3197.55982	1.28650
3195.63126	1.28010
3193.70269	1.27392
3191.77413	1.26751
3189.84557	1.26306
3187.91700	1.26099
3185.98844	1.25818
3184.05987	1.25326
3182.13131	1.24760
3180.20274	1.24166
3178.27418	1.23611
3176.34562	1.23107
3174.41705	1.22541
3172.48849	1.22068
3170.55992	1.21760
3168.63136	1.21224
3166.70279	1.20436
3164.77423	1.19852
3162.84566	1.19535
3160.91710	1.19193
3158.98854	1.18743
3157.05997	1.18350
3155.13141	1.18133
3153.20284	1.17975
3151.27428	1.17693
3149.34571	1.17318
3147.41715	1.16919
3145.48858	1.16479
3143.56002	1.16071
3141.63146	1.15789
3139.70289	1.15639
3137.77433	1.15504
3135.84576	1.15290
3133.91720	1.15040
3131.98863	1.14834
3130.06007	1.14845
3128.13150	1.15031
3126.20294	1.15015
3124.27438	1.14762
3122.34581	1.14589
3120.41725	1.14609
3118.48868	1.14692
3116.56012	1.14646
3114.63155	1.14463
3112.70299	1.14366
3110.77442	1.14448
3108.84586	1.14500
3106.91730	1.14315
3104.98873	1.14037
3103.06017	1.13845
3101.13160	1.13658
3099.20304	1.13490
3097.27447	1.13460
3095.34591	1.13451
3093.41734	1.13284
3091.48878	1.12947
3089.56022	1.12567
3087.63165	1.12373
3085.70309	1.12388
3083.77452	1.12344
3081.84596	1.12064
3079.91739	1.11584
3077.98883	1.11113
3076.06026	1.10820
3074.13170	1.10613
3072.20314	1.10385
3070.27457	1.10154
3068.34601	1.09988
3066.41744	1.09814
3064.48888	1.09485
3062.56031	1.09116
3060.63175	1.08735
3058.70318	1.08241
3056.77462	1.07830
3054.84606	1.07618
3052.91749	1.07309
3050.98893	1.06712
3049.06036	1.06056
3047.13180	1.05572
3045.20323	1.05212
3043.27467	1.04828
3041.34610	1.04407
3039.41754	1.04127
3037.48898	1.03919
3035.56041	1.03468
3033.63185	1.02873
3031.70328	1.02495
3029.77472	1.02272
3027.84615	1.01968
3025.91759	1.01642
3023.98903	1.01431
3022.06046	1.01258
3020.13190	1.00979
3018.20333	1.00656
3016.27477	1.00416
3014.34620	1.00182
3012.41764	0.99901
3010.48907	0.99658
3008.56051	0.99493
3006.63195	0.99371
3004.70338	0.99226
3002.77482	0.99052
3000.84625	0.98893
2998.91769	0.98758
2996.98912	0.98696
2995.06056	0.98766
2993.13199	0.98924
2991.20343	0.99169
2989.27487	0.99525
2987.34630	0.99918
2985.41774	1.00346
2983.48917	1.00865
2981.56061	1.01435
2979.63204	1.02032
2977.70348	1.02669
2975.77491	1.03336
2973.84635	1.04047
2971.91779	1.04775
2969.98922	1.05436
2968.06066	1.06009
2966.13209	1.06509
2964.20353	1.06945
2962.27496	1.07306
2960.34640	1.07436
2958.41783	1.07215
2956.48927	1.06743
2954.56071	1.06125
2952.63214	1.05542
2950.70358	1.05153
2948.77501	1.04859
2946.84645	1.04672
2944.91788	1.04806
2942.98932	1.05281
2941.06075	1.05960
2939.13219	1.06769
2937.20363	1.07598
2935.27506	1.08347
2933.34650	1.09094
2931.41793	1.09865
2929.48937	1.10502
2927.56080	1.10943
2925.63224	1.11372
2923.70367	1.11859
2921.77511	1.12199
2919.84655	1.12207
2917.91798	1.11783
2915.98942	1.10784
2914.06085	1.09143
2912.13229	1.07218
2910.20372	1.05591
2908.27516	1.04339
2906.34659	1.03234
2904.41803	1.02275
2902.48947	1.01577
2900.56090	1.01206
2898.63234	1.01006
2896.70377	1.00714
2894.77521	1.00315
2892.84664	0.99929
2890.91808	0.99523
2888.98952	0.99038
2887.06095	0.98642
2885.13239	0.98461
2883.20382	0.98379
2881.27526	0.98292
2879.34669	0.98171
2877.41813	0.98047
2875.48956	0.97969
2873.56100	0.97829
2871.63244	0.97477
2869.70387	0.96932
2867.77531	0.96307
2865.84674	0.95715
2863.91818	0.95286
2861.98961	0.95153
2860.06105	0.95346
2858.13248	0.95792
2856.20392	0.96371
2854.27536	0.96980
2852.34679	0.97519
2850.41823	0.97628
2848.48966	0.96731
2846.56110	0.94851
2844.63253	0.92746
2842.70397	0.90983
2840.77540	0.89631
2838.84684	0.88589
2836.91828	0.87767
2834.98971	0.87106
2833.06115	0.86546
2831.13258	0.86094
2829.20402	0.85770
2827.27545	0.85484
2825.34689	0.85179
2823.41832	0.84868
2821.48976	0.84552
2819.56120	0.84269
2817.63263	0.84029
2815.70407	0.83787
2813.77550	0.83534
2811.84694	0.83268
2809.91837	0.83009
2807.98981	0.82799
2806.06124	0.82632
2804.13268	0.82433
2802.20412	0.82133
2800.27555	0.81803
2798.34699	0.81554
2796.41842	0.81328
2794.48986	0.81030
2792.56129	0.80714
2790.63273	0.80452
2788.70416	0.80227
2786.77560	0.80011
2784.84704	0.79782
2782.91847	0.79530
2780.98991	0.79284
2779.06134	0.79039
2777.13278	0.78774
2775.20421	0.78527
2773.27565	0.78328
2771.34708	0.78164
2769.41852	0.77988
2767.48996	0.77758
2765.56139	0.77516
2763.63283	0.77323
2761.70426	0.77182
2759.77570	0.77066
2757.84713	0.76927
2755.91857	0.76762
2753.99001	0.76607
2752.06144	0.76464
2750.13288	0.76339
2748.20431	0.76266
2746.27575	0.76235
2744.34718	0.76152
2742.41862	0.75976
2740.49005	0.75779
2738.56149	0.75608
2736.63293	0.75464
2734.70436	0.75330
2732.77580	0.75177
2730.84723	0.75022
2728.91867	0.74889
2726.99010	0.74735
2725.06154	0.74520
2723.13297	0.74288
2721.20441	0.74106
2719.27585	0.73984
2717.34728	0.73864
2715.41872	0.73690
2713.49015	0.73489
2711.56159	0.73302
2709.63302	0.73114
2707.70446	0.72931
2705.77589	0.72791
2703.84733	0.72674
2701.91877	0.72546
2699.99020	0.72437
2698.06164	0.72366
2696.13307	0.72301
2694.20451	0.72211
2692.27594	0.72051
2690.34738	0.71847
2688.41881	0.71707
2686.49025	0.71642
2684.56169	0.71579
2682.63312	0.71496
2680.70456	0.71413
2678.77599	0.71315
2676.84743	0.71192
2674.91886	0.71065
2672.99030	0.70924
2671.06173	0.70748
2669.13317	0.70576
2667.20461	0.70439
2665.27604	0.70317
2663.34748	0.70197
2661.41891	0.70084
2659.49035	0.69984
2657.56178	0.69899
2655.63322	0.69800
2653.70465	0.69689
2651.77609	0.69620
2649.84753	0.69595
2647.91896	0.69578
2645.99040	0.69562
2644.06183	0.69560
2642.13327	0.69557
2640.20470	0.69519
2638.27614	0.69449
2636.34757	0.69362
2634.41901	0.69251
2632.49045	0.69141
2630.56188	0.69059
2628.63332	0.68981
2626.70475	0.68873
2624.77619	0.68708
2622.84762	0.68502
2620.91906	0.68307
2618.99049	0.68157
2617.06193	0.68030
2615.13337	0.67879
2613.20480	0.67712
2611.27624	0.67589
2609.34767	0.67494
2607.41911	0.67386
2605.49054	0.67292
2603.56198	0.67226
2601.63342	0.67181
2599.70485	0.67163
2597.77629	0.67156
2595.84772	0.67154
2593.91916	0.67164
2591.99059	0.67158
2590.06203	0.67114
2588.13346	0.67056
2586.20490	0.66998
2584.27634	0.66945
2582.34777	0.66905
2580.41921	0.66855
2578.49064	0.66780
2576.56208	0.66667
2574.63351	0.66499
2572.70495	0.66299
2570.77638	0.66111
2568.84782	0.65948
2566.91926	0.65800
2564.99069	0.65664
2563.06213	0.65558
2561.13356	0.65482
2559.20500	0.65411
2557.27643	0.65339
2555.34787	0.65274
2553.41930	0.65209
2551.49074	0.65134
2549.56218	0.65049
2547.63361	0.64982
2545.70505	0.64942
2543.77648	0.64889
2541.84792	0.64803
2539.91935	0.64725
2537.99079	0.64682
2536.06222	0.64644
2534.13366	0.64562
2532.20510	0.64454
2530.27653	0.64369
2528.34797	0.64287
2526.41940	0.64193
2524.49084	0.64090
2522.56227	0.63954
2520.63371	0.63796
2518.70514	0.63653
2516.77658	0.63519
2514.84802	0.63393
2512.91945	0.63281
2510.99089	0.63183
2509.06232	0.63101
2507.13376	0.63053
2505.20519	0.63044
2503.27663	0.63020
2501.34806	0.62962
2499.41950	0.62921
2497.49094	0.62908
2495.56237	0.62889
2493.63381	0.62883
2491.70524	0.62913
2489.77668	0.62932
2487.84811	0.62893
2485.91955	0.62828
2483.99098	0.62786
2482.06242	0.62760
2480.13386	0.62728
2478.20529	0.62682
2476.27673	0.62608
2474.34816	0.62507
2472.41960	0.62407
2470.49103	0.62324
2468.56247	0.62234
2466.63391	0.62089
2464.70534	0.61890
2462.77678	0.61713
2460.84821	0.61594
2458.91965	0.61482
2456.99108	0.61362
2455.06252	0.61265
2453.13395	0.61176
2451.20539	0.61072
2449.27683	0.60958
2447.34826	0.60844
2445.41970	0.60758
2443.49113	0.60717
2441.56257	0.60691
2439.63400	0.60662
2437.70544	0.60632
2435.77687	0.60586
2433.84831	0.60536
2431.91975	0.60494
2429.99118	0.60450
2428.06262	0.60426
2426.13405	0.60426
2424.20549	0.60400
2422.27692	0.60322
2420.34836	0.60244
2418.41979	0.60212
2416.49123	0.60188
2414.56267	0.60154
2412.63410	0.60122
2410.70554	0.60053
2408.77697	0.59926
2406.84841	0.59790
2404.91984	0.59692
2402.99128	0.59640
2401.06271	0.59590
2399.13415	0.59512
2397.20559	0.59428
2395.27702	0.59349
2393.34846	0.59264
2391.41989	0.59193
2389.49133	0.59170
2387.56276	0.59195
2385.63420	0.59232
2383.70563	0.59269
2381.77707	0.59320
2379.84851	0.59375
2377.91994	0.59417
2375.99138	0.59453
2374.06281	0.59515
2372.13425	0.59628
2370.20568	0.59771
2368.27712	0.59812
2366.34855	0.59723
2364.41999	0.59657
2362.49143	0.59551
2360.56286	0.59424
2358.63430	0.59563
2356.70573	0.59709
2354.77717	0.59522
2352.84860	0.59189
2350.92004	0.58894
2348.99147	0.58708
2347.06291	0.58675
2345.13435	0.58769
2343.20578	0.58872
2341.27722	0.58977
2339.34865	0.59135
2337.42009	0.59238
2335.49152	0.59204
2333.56296	0.59153
2331.63440	0.59181
2329.70583	0.59181
2327.77727	0.59154
2325.84870	0.59224
2323.92014	0.59302
2321.99157	0.59213
2320.06301	0.59024
2318.13444	0.58908
2316.20588	0.58863
2314.27732	0.58805
2312.34875	0.58707
2310.42019	0.58575
2308.49162	0.58407
2306.56306	0.58231
2304.63449	0.58069
2302.70593	0.57906
2300.77736	0.57741
2298.84880	0.57607
2296.92024	0.57503
2294.99167	0.57379
2293.06311	0.57242
2291.13454	0.57146
2289.20598	0.57058
2287.27741	0.56925
2285.34885	0.56799
2283.42028	0.56750
2281.49172	0.56739
2279.56316	0.56708
2277.63459	0.56671
2275.70603	0.56667
2273.77746	0.56688
2271.84890	0.56702
2269.92033	0.56701
2267.99177	0.56705
2266.06320	0.56721
2264.13464	0.56737
2262.20608	0.56746
2260.27751	0.56726
2258.34895	0.56682
2256.42038	0.56661
2254.49182	0.56681
2252.56325	0.56715
2250.63469	0.56733
2248.70612	0.56728
2246.77756	0.56715
2244.84900	0.56708
2242.92043	0.56708
2240.99187	0.56691
2239.06330	0.56634
2237.13474	0.56548
2235.20617	0.56484
2233.27761	0.56471
2231.34904	0.56473
2229.42048	0.56455
2227.49192	0.56439
2225.56335	0.56420
2223.63479	0.56368
2221.70622	0.56303
2219.77766	0.56248
2217.84909	0.56186
2215.92053	0.56115
2213.99196	0.56057
2212.06340	0.56016
2210.13484	0.55979
2208.20627	0.55942
2206.27771	0.55901
2204.34914	0.55842
2202.42058	0.55775
2200.49201	0.55743
2198.56345	0.55751
2196.63488	0.55758
2194.70632	0.55745
2192.77776	0.55734
2190.84919	0.55744
2188.92063	0.55755
2186.99206	0.55747
2185.06350	0.55739
2183.13493	0.55744
2181.20637	0.55748
2179.27781	0.55738
2177.34924	0.55718
2175.42068	0.55712
2173.49211	0.55731
2171.56355	0.55750
2169.63498	0.55766
2167.70642	0.55785
2165.77785	0.55789
2163.84929	0.55797
2161.92073	0.55838
2159.99216	0.55881
2158.06360	0.55886
2156.13503	0.55868
2154.20647	0.55859
2152.27790	0.55855
2150.34934	0.55834
2148.42077	0.55808
2146.49221	0.55795
2144.56365	0.55769
2142.63508	0.55705
2140.70652	0.55626
2138.77795	0.55556
2136.84939	0.55494
2134.92082	0.55431
2132.99226	0.55359
2131.06369	0.55260
2129.13513	0.55118
2127.20657	0.54967
2125.27800	0.54849
2123.34944	0.54754
2121.42087	0.54656
2119.49231	0.54544
2117.56374	0.54438
2115.63518	0.54372
2113.70661	0.54347
2111.77805	0.54345
2109.84949	0.54361
2107.92092	0.54401
2105.99236	0.54450
2104.06379	0.54491
2102.13523	0.54528
2100.20666	0.54579
2098.27810	0.54649
2096.34953	0.54730
2094.42097	0.54792
2092.49241	0.54832
2090.56384	0.54871
2088.63528	0.54894
2086.70671	0.54885
2084.77815	0.54869
2082.84958	0.54851
2080.92102	0.54806
2078.99245	0.54702
2077.06389	0.54547
2075.13533	0.54394
2073.20676	0.54271
2071.27820	0.54153
2069.34963	0.54033
2067.42107	0.53930
2065.49250	0.53834
2063.56394	0.53742
2061.63537	0.53671
2059.70681	0.53616
2057.77825	0.53570
2055.84968	0.53542
2053.92112	0.53535
2051.99255	0.53529
2050.06399	0.53520
2048.13542	0.53517
2046.20686	0.53512
2044.27830	0.53507
2042.34973	0.53501
2040.42117	0.53480
2038.49260	0.53446
2036.56404	0.53412
2034.63547	0.53363
2032.70691	0.53276
2030.77834	0.53160
2028.84978	0.53042
2026.92122	0.52937
2024.99265	0.52832
2023.06409	0.52716
2021.13552	0.52598
2019.20696	0.52487
2017.27839	0.52391
2015.34983	0.52316
2013.42126	0.52267
2011.49270	0.52260
2009.56414	0.52291
2007.63557	0.52328
2005.70701	0.52361
2003.77844	0.52386
2001.84988	0.52421
1999.92131	0.52492
1997.99275	0.52575
1996.06418	0.52626
1994.13562	0.52666
1992.20706	0.52708
1990.27849	0.52692
1988.34993	0.52615
1986.42136	0.52527
1984.49280	0.52441
1982.56423	0.52336
1980.63567	0.52193
1978.70710	0.52023
1976.77854	0.51850
1974.84998	0.51688
1972.92141	0.51532
1970.99285	0.51372
1969.06428	0.51223
1967.13572	0.51110
1965.20715	0.51007
1963.27859	0.50911
1961.35002	0.50857
1959.42146	0.50827
1957.49290	0.50799
1955.56433	0.50792
1953.63577	0.50810
1951.70720	0.50844
1949.77864	0.50899
1947.85007	0.50976
1945.92151	0.51060
1943.99294	0.51127
1942.06438	0.51163
1940.13582	0.51173
1938.20725	0.51163
1936.27869	0.51119
1934.35012	0.51042
1932.42156	0.50962
1930.49299	0.50886
1928.56443	0.50798
1926.63586	0.50711
1924.70730	0.50651
1922.77874	0.50580
1920.85017	0.50456
1918.92161	0.50316
1916.99304	0.50200
1915.06448	0.50099
1913.13591	0.50023
1911.20735	0.49989
1909.27878	0.49963
1907.35022	0.49899
1905.42166	0.49826
1903.49309	0.49793
1901.56453	0.49790
1899.63596	0.49787
1897.70740	0.49784
1895.77883	0.49793
1893.85027	0.49785
1891.92171	0.49758
1889.99314	0.49755
1888.06458	0.49758
1886.13601	0.49737
1884.20745	0.49717
1882.27888	0.49705
1880.35032	0.49677
1878.42175	0.49617
1876.49319	0.49535
1874.56463	0.49457
1872.63606	0.49404
1870.70750	0.49372
1868.77893	0.49326
1866.85037	0.49252
1864.92180	0.49170
1862.99324	0.49090
1861.06467	0.49012
1859.13611	0.48936
1857.20755	0.48858
1855.27898	0.48792
1853.35042	0.48748
1851.42185	0.48727
1849.49329	0.48732
1847.56472	0.48751
1845.63616	0.48773
1843.70759	0.48781
1841.77903	0.48752
1839.85047	0.48724
1837.92190	0.48726
1835.99334	0.48731
1834.06477	0.48693
1832.13621	0.48649
1830.20764	0.48647
1828.27908	0.48637
1826.35051	0.48577
1824.42195	0.48504
1822.49339	0.48421
1820.56482	0.48333
1818.63626	0.48268
1816.70769	0.48215
1814.77913	0.48151
1812.85056	0.48089
1810.92200	0.48037
1808.99343	0.47979
1807.06487	0.47911
1805.13631	0.47852
1803.20774	0.47827
1801.27918	0.47852
1799.35061	0.47870
1797.42205	0.47847
1795.49348	0.47839
1793.56492	0.47918
1791.63635	0.48070
1789.70779	0.48117
1787.77923	0.48096
1785.85066	0.48124
1783.92210	0.48209
1781.99353	0.48307
1780.06497	0.48400
1778.13640	0.48466
1776.20784	0.48501
1774.27927	0.48584
1772.35071	0.48757
1770.42215	0.48870
1768.49358	0.48901
1766.56502	0.48944
1764.63645	0.49022
1762.70789	0.49163
1760.77932	0.49358
1758.85076	0.49559
1756.92220	0.49837
1754.99363	0.50130
1753.06507	0.50413
1751.13650	0.50910
1749.20794	0.51659
1747.27937	0.52298
1745.35081	0.52775
1743.42224	0.53214
1741.49368	0.53646
1739.56512	0.54071
1737.63655	0.54394
1735.70799	0.54657
1733.77942	0.55093
1731.85086	0.55488
1729.92229	0.55780
1727.99373	0.56131
1726.06516	0.56547
1724.13660	0.57095
1722.20804	0.57655
1720.27947	0.58150
1718.35091	0.58960
1716.42234	0.60455
1714.49378	0.61702
1712.56521	0.62598
1710.63665	0.63576
1708.70808	0.64779
1706.77952	0.66616
1704.85096	0.69111
1702.92239	0.71383
1700.99383	0.74595
1699.06526	0.79906
1697.13670	0.85086
1695.20813	0.90011
1693.27957	0.93519
1691.35100	0.96310
1689.42244	0.99773
1687.49388	1.03021
1685.56531	1.06274
1683.63675	1.11382
1681.70818	1.15024
1679.77962	1.17040
1677.85105	1.18903
1675.92249	1.21058
1673.99392	1.23286
1672.06536	1.24825
1670.13680	1.26279
1668.20823	1.27906
1666.27967	1.28826
1664.35110	1.29567
1662.42254	1.30462
1660.49397	1.30984
1658.56541	1.31174
1656.63684	1.31235
1654.70828	1.31440
1652.77972	1.31826
1650.85115	1.31629
1648.92259	1.31374
1646.99402	1.31232
1645.06546	1.30770
1643.13689	1.30117
1641.20833	1.29719
1639.27976	1.29573
1637.35120	1.29443
1635.42264	1.29057
1633.49407	1.28626
1631.56551	1.28256
1629.63694	1.27683
1627.70838	1.26911
1625.77981	1.26095
1623.85125	1.25069
1621.92269	1.23776
1619.99412	1.22576
1618.06556	1.20999
1616.13699	1.18470
1614.20843	1.16269
1612.27986	1.14448
1610.35130	1.12490
1608.42273	1.10563
1606.49417	1.08956
1604.56561	1.07700
1602.63704	1.06725
1600.70848	1.06013
1598.77991	1.05506
1596.85135	1.05150
1594.92278	1.04963
1592.99422	1.05003
1591.06565	1.05272
1589.13709	1.05708
1587.20853	1.06302
1585.27996	1.07132
1583.35140	1.08233
1581.42283	1.09387
1579.49427	1.10368
1577.56570	1.11591
1575.63714	1.13541
1573.70857	1.14898
1571.78001	1.15728
1569.85145	1.16991
1567.92288	1.18298
1565.99432	1.19099
1564.06575	1.19843
1562.13719	1.20506
1560.20862	1.21329
1558.28006	1.22770
1556.35149	1.23089
1554.42293	1.22989
1552.49437	1.22927
1550.56580	1.22787
1548.63724	1.22483
1546.70867	1.22110
1544.78011	1.21680
1542.85154	1.21225
1540.92298	1.20720
1538.99441	1.19875
1537.06585	1.19257
1535.13729	1.18686
1533.20872	1.17922
1531.28016	1.17165
1529.35159	1.16591
1527.42303	1.16066
1525.49446	1.15565
1523.56590	1.15257
1521.63733	1.15089
1519.70877	1.14805
1517.78021	1.14140
1515.85164	1.13005
1513.92308	1.11646
1511.99451	1.10225
1510.06595	1.08913
1508.13738	1.07257
1506.20882	1.04048
1504.28025	1.01932
1502.35169	1.00618
1500.42313	0.99258
1498.49456	0.97561
1496.56600	0.95578
1494.63743	0.94056
1492.70887	0.93026
1490.78030	0.91939
1488.85174	0.90566
1486.92317	0.89443
1484.99461	0.88695
1483.06605	0.88249
1481.13748	0.88130
1479.20892	0.88277
1477.28035	0.88669
1475.35179	0.89486
1473.42322	0.91092
1471.49466	0.92903
1469.56610	0.93838
1467.63753	0.94394
1465.70897	0.95100
1463.78040	0.95921
1461.85184	0.96437
1459.92327	0.96805
1457.99471	0.97577
1456.06614	0.98457
1454.13758	0.98612
1452.20902	0.98540
1450.28045	0.98399
1448.35189	0.98222
1446.42332	0.98010
1444.49476	0.97706
1442.56619	0.97289
1440.63763	0.96804
1438.70906	0.96217
1436.78050	0.95360
1434.85194	0.94457
1432.92337	0.93747
1430.99481	0.93008
1429.06624	0.92273
1427.13768	0.91816
1425.20911	0.91667
1423.28055	0.91735
1421.35198	0.91920
1419.42342	0.92294
1417.49486	0.92699
1415.56629	0.92848
1413.63773	0.92937
1411.70916	0.93048
1409.78060	0.93169
1407.85203	0.93323
1405.92347	0.93594
1403.99490	0.93986
1402.06634	0.94323
1400.13778	0.94615
1398.20921	0.94885
1396.28065	0.95050
1394.35208	0.95174
1392.42352	0.95276
1390.49495	0.95388
1388.56639	0.95773
1386.63782	0.96628
1384.70926	0.97575
1382.78070	0.98300
1380.85213	0.98712
1378.92357	0.98667
1376.99500	0.98143
1375.06644	0.97126
1373.13787	0.95688
1371.20931	0.94195
1369.28074	0.92616
1367.35218	0.90934
1365.42362	0.89445
1363.49505	0.88136
1361.56649	0.87043
1359.63792	0.86347
1357.70936	0.85946
1355.78079	0.85742
1353.85223	0.85692
1351.92366	0.85720
1349.99510	0.85801
1348.06654	0.85946
1346.13797	0.86115
1344.20941	0.86286
1342.28084	0.86486
1340.35228	0.86754
1338.42371	0.87083
1336.49515	0.87468
1334.56659	0.87972
1332.63802	0.88591
1330.70946	0.89225
1328.78089	0.89744
1326.85233	0.90052
1324.92376	0.90180
1322.99520	0.90281
1321.06663	0.90453
1319.13807	0.90634
1317.20951	0.90739
1315.28094	0.90796
1313.35238	0.90867
1311.42381	0.90921
1309.49525	0.90886
1307.56668	0.90769
1305.63812	0.90639
1303.70955	0.90505
1301.78099	0.90290
1299.85243	0.89978
1297.92386	0.89645
1295.99530	0.89357
1294.06673	0.89151
1292.13817	0.89055
1290.20960	0.89033
1288.28104	0.89035
1286.35247	0.89071
1284.42391	0.89136
1282.49535	0.89206
1280.56678	0.89282
1278.63822	0.89382
1276.70965	0.89557
1274.78109	0.89856
1272.85252	0.90299
1270.92396	0.90854
1268.99539	0.91456
1267.06683	0.92061
1265.13827	0.92605
1263.20970	0.92994
1261.28114	0.93211
1259.35257	0.93369
1257.42401	0.93537
1255.49544	0.93674
1253.56688	0.93772
1251.63831	0.93890
1249.70975	0.94026
1247.78119	0.94122
1245.85262	0.94189
1243.92406	0.94256
1241.99549	0.94242
1240.06693	0.94075
1238.13836	0.93790
1236.20980	0.93409
1234.28123	0.92907
1232.35267	0.92332
1230.42411	0.91704
1228.49554	0.90932
1226.56698	0.90004
1224.63841	0.89058
1222.70985	0.88209
1220.78128	0.87472
1218.85272	0.86821
1216.92415	0.86249
1214.99559	0.85838
1213.06703	0.85683
1211.13846	0.85759
1209.20990	0.85946
1207.28133	0.86088
1205.35277	0.85981
1203.42420	0.85506
1201.49564	0.84780
1199.56708	0.83968
1197.63851	0.83109
1195.70995	0.82246
1193.78138	0.81497
1191.85282	0.80957
1189.92425	0.80613
1187.99569	0.80398
1186.06712	0.80297
1184.13856	0.80350
1182.21000	0.80589
1180.28143	0.81020
1178.35287	0.81619
1176.42430	0.82359
1174.49574	0.83199
1172.56717	0.84056
1170.63861	0.84950
1168.71004	0.86066
1166.78148	0.87512
1164.85292	0.89197
1162.92435	0.90904
1160.99579	0.92367
1159.06722	0.93325
1157.13866	0.93554
1155.21009	0.93009
1153.28153	0.91863
1151.35296	0.90332
1149.42440	0.88577
1147.49584	0.86778
1145.56727	0.85149
1143.63871	0.83883
1141.71014	0.83091
1139.78158	0.82798
1137.85301	0.82934
1135.92445	0.83378
1133.99588	0.84099
1132.06732	0.85159
1130.13876	0.86574
1128.21019	0.88221
1126.28163	0.89904
1124.35306	0.91501
1122.42450	0.92998
1120.49593	0.94406
1118.56737	0.95631
1116.63880	0.96478
1114.71024	0.96851
1112.78168	0.96805
1110.85311	0.96424
1108.92455	0.95861
1106.99598	0.95304
1105.06742	0.94795
1103.13885	0.94291
1101.21029	0.93821
1099.28172	0.93530
1097.35316	0.93539
1095.42460	0.93827
1093.49603	0.94360
1091.56747	0.95218
1089.63890	0.96480
1087.71034	0.98048
1085.78177	0.99746
1083.85321	1.01513
1081.92464	1.03222
1079.99608	1.04608
1078.06752	1.05475
1076.13895	1.05761
1074.21039	1.05492
1072.28182	1.04836
1070.35326	1.04031
1068.42469	1.03128
1066.49613	1.02114
1064.56756	1.01077
1062.63900	1.00054
1060.71044	0.99028
1058.78187	0.98006
1056.85331	0.96981
1054.92474	0.95989
1052.99618	0.95121
1051.06761	0.94427
1049.13905	0.93891
1047.21049	0.93558
1045.28192	0.93571
1043.35336	0.93921
1041.42479	0.94399
1039.49623	0.94939
1037.56766	0.95559
1035.63910	0.96124
1033.71053	0.96511
1031.78197	0.96698
1029.85341	0.96692
1027.92484	0.96466
1025.99628	0.95998
1024.06771	0.95410
1022.13915	0.94855
1020.21058	0.94389
1018.28202	0.94003
1016.35345	0.93542
1014.42489	0.92749
1012.49633	0.91456
1010.56776	0.89743
1008.63920	0.87827
1006.71063	0.85859
1004.78207	0.83972
1002.85350	0.82295
1000.92494	0.80861
998.99637	0.79664
997.06781	0.78663
995.13925	0.77753
993.21068	0.76812
991.28212	0.75776
989.35355	0.74686
987.42499	0.73634
985.49642	0.72672
983.56786	0.71907
981.63929	0.71457
979.71073	0.71318
977.78217	0.71389
975.85360	0.71530
973.92504	0.71611
971.99647	0.71557
970.06791	0.71352
968.13934	0.71082
966.21078	0.70903
964.28221	0.70924
962.35365	0.71255
960.42509	0.72029
958.49652	0.73148
956.56796	0.74178
954.63939	0.74656
952.71083	0.74437
950.78226	0.73719
948.85370	0.72801
946.92513	0.71871
944.99657	0.71054
943.06801	0.70407
941.13944	0.69866
939.21088	0.69402
937.28231	0.69056
935.35375	0.68820
933.42518	0.68695
931.49662	0.68727
929.56805	0.68912
927.63949	0.69212
925.71093	0.69601
923.78236	0.70030
921.85380	0.70424
919.92523	0.70722
917.99667	0.70908
916.06810	0.71001
914.13954	0.71006
912.21098	0.70946
910.28241	0.70886
908.35385	0.70862
906.42528	0.70849
904.49672	0.70830
902.56815	0.70787
900.63959	0.70654
898.71102	0.70389
896.78246	0.70026
894.85390	0.69620
892.92533	0.69213
890.99677	0.68848
889.06820	0.68599
887.13964	0.68546
885.21107	0.68688
883.28251	0.68990
881.35394	0.69463
879.42538	0.70077
877.49682	0.70745
875.56825	0.71454
873.63969	0.72209
871.71112	0.72960
869.78256	0.73680
867.85399	0.74324
865.92543	0.74817
863.99686	0.75176
862.06830	0.75456
860.13974	0.75634
858.21117	0.75681
856.28261	0.75629
854.35404	0.75529
852.42548	0.75391
850.49691	0.75173
848.56835	0.74854
846.63978	0.74541
844.71122	0.74393
842.78266	0.74413
840.85409	0.74542
838.92553	0.74794
836.99696	0.75146
835.06840	0.75544
833.13983	0.76000
831.21127	0.76499
829.28270	0.76951
827.35414	0.77347
825.42558	0.77763
823.49701	0.78178
821.56845	0.78508
819.63988	0.78748
817.71132	0.78924
815.78275	0.79060
813.85419	0.79207
811.92562	0.79375
809.99706	0.79559
808.06850	0.79780
806.13993	0.79970
804.21137	0.80030
802.28280	0.80010
800.35424	0.80028
798.42567	0.80103
796.49711	0.80213
794.56854	0.80391
792.63998	0.80657
790.71142	0.80963
788.78285	0.81224
786.85429	0.81465
784.92572	0.81798
782.99716	0.82173
781.06859	0.82464
779.14003	0.82701
777.21147	0.82939
775.28290	0.83105
773.35434	0.83148
771.42577	0.83144
769.49721	0.83147
767.56864	0.83172
765.64008	0.83223
763.71151	0.83254
761.78295	0.83293
759.85439	0.83416
757.92582	0.83598
755.99726	0.83756
754.06869	0.83877
752.14013	0.84062
750.21156	0.84327
748.28300	0.84560
746.35443	0.84763
744.42587	0.84995
742.49731	0.85199
740.56874	0.85321
738.64018	0.85396
736.71161	0.85469
734.78305	0.85545
732.85448	0.85635
730.92592	0.85778
728.99735	0.85944
727.06879	0.86072
725.14023	0.86161
723.21166	0.86237
721.28310	0.86352
719.35453	0.86518
717.42597	0.86656
715.49740	0.86759
713.56884	0.86900
711.64027	0.87125
709.71171	0.87444
707.78315	0.87827
705.85458	0.88194
703.92602	0.88502
701.99745	0.88726
700.06889	0.88802
698.14032	0.88756
696.21176	0.88676
694.28319	0.88600
692.35463	0.88508
690.42607	0.88307
688.49750	0.87973
686.56894	0.87600
684.64037	0.87215
682.71181	0.86880
680.78324	0.86682
678.85468	0.86576
676.92611	0.86517
674.99755	0.86492
673.06899	0.86526
671.14042	0.86674
669.21186	0.86942
667.28329	0.87319
665.35473	0.87678
663.42616	0.87955
661.49760	0.88154
659.56903	0.88336
657.64047	0.88542
655.71191	0.88756
653.78334	0.88916
651.85478	0.88949
649.92621	0.88842
647.99765	0.88515
646.06908	0.88027
644.14052	0.87739
642.21195	0.87749
640.28339	0.87718
638.35483	0.87463
636.42626	0.87178
634.49770	0.86990
632.56913	0.86765
630.64057	0.86428
628.71200	0.86089
626.78344	0.85924
624.85488	0.85970
622.92631	0.86086
620.99775	0.86315
619.06918	0.86734
617.14062	0.87221
615.21205	0.87736
613.28349	0.88275
611.35492	0.88636
609.42636	0.88727
607.49780	0.88806
605.56923	0.89047
603.64067	0.89326
601.71210	0.89621
599.78354	0.89828
