3997.91406	0.74378
3995.98550	0.74331
3994.05693	0.74457
3992.12837	0.74637
3990.19980	0.74690
3988.27124	0.74633
3986.34268	0.74585
3984.41411	0.74531
3982.48555	0.74387
3980.55698	0.74223
3978.62842	0.74122
3976.69985	0.74006
3974.77129	0.73922
3972.84272	0.73970
3970.91416	0.73974
3968.98560	0.73852
3967.05703	0.73755
3965.12847	0.73768
3963.19990	0.73949
3961.27134	0.74185
3959.34277	0.74127
3957.41421	0.73809
3955.48564	0.73594
3953.55708	0.73514
3951.62852	0.73469
3949.69995	0.73450
3947.77139	0.73406
3945.84282	0.73409
3943.91426	0.73417
3941.98569	0.73248
3940.05713	0.73006
3938.12856	0.72952
3936.20000	0.73142
3934.27144	0.73238
3932.34287	0.72932
3930.41431	0.72590
3928.48574	0.72677
3926.55718	0.72919
3924.62861	0.72809
3922.70005	0.72557
3920.77148	0.72579
3918.84292	0.72535
3916.91436	0.72197
3914.98579	0.72011
3913.05723	0.72056
3911.12866	0.72093
3909.20010	0.72175
3907.27153	0.72388
3905.34297	0.72550
3903.41440	0.72446
3901.48584	0.72232
3899.55728	0.71975
3897.62871	0.71779
3895.70015	0.71900
3893.77158	0.72165
3891.84302	0.72151
3889.91445	0.71982
3887.98589	0.71980
3886.05733	0.72048
3884.12876	0.72140
3882.20020	0.72061
3880.27163	0.71757
3878.34307	0.71765
3876.41450	0.71967
3874.48594	0.72006
3872.55737	0.71963
3870.62881	0.71758
3868.70025	0.71577
3866.77168	0.71780
3864.84312	0.71999
3862.91455	0.72009
3860.98599	0.72043
3859.05742	0.72119
3857.12886	0.72081
3855.20029	0.71669
3853.27173	0.70909
3851.34317	0.70796
3849.41460	0.70989
3847.48604	0.71150
3845.55747	0.71282
3843.62891	0.71405
3841.70034	0.71512
3839.77178	0.71325
3837.84321	0.70793
3835.91465	0.70644
3833.98609	0.70820
3832.05752	0.70851
3830.12896	0.70734
3828.20039	0.70652
3826.27183	0.70631
3824.34326	0.70779
3822.41470	0.70968
3820.48613	0.70793
3818.55757	0.70602
3816.62901	0.70332
3814.70044	0.69924
3812.77188	0.69889
3810.84331	0.70152
3808.91475	0.70379
3806.98618	0.70290
3805.05762	0.70336
3803.12905	0.70727
3801.20049	0.70744
3799.27193	0.70397
3797.34336	0.70112
3795.41480	0.69915
3793.48623	0.69974
3791.55767	0.70110
3789.62910	0.70079
3787.70054	0.69964
3785.77197	0.69918
3783.84341	0.69964
3781.91485	0.70040
3779.98628	0.69967
3778.05772	0.69832
3776.12915	0.69862
3774.20059	0.69981
3772.27202	0.70106
3770.34346	0.70091
3768.41489	0.69994
3766.48633	0.70000
3764.55777	0.70002
3762.62920	0.70002
3760.70064	0.70055
3758.77207	0.70162
3756.84351	0.70296
3754.91494	0.70419
3752.98638	0.70367
3751.05781	0.69731
3749.12925	0.69386
3747.20069	0.69904
3745.27212	0.70297
3743.34356	0.69942
3741.41499	0.69652
3739.48643	0.69697
3737.55786	0.69849
3735.62930	0.69809
3733.70074	0.69527
3731.77217	0.69440
3729.84361	0.69568
3727.91504	0.69753
3725.98648	0.69839
3724.05791	0.69769
3722.12935	0.69614
3720.20078	0.69463
3718.27222	0.69487
3716.34366	0.69678
3714.41509	0.69848
3712.48653	0.69760
3710.55796	0.69505
3708.62940	0.69507
3706.70083	0.69671
3704.77227	0.69886
3702.84370	0.70061
3700.91514	0.70221
3698.98658	0.70476
3697.05801	0.70772
3695.12945	0.71065
3693.20088	0.71393
3691.27232	0.71740
3689.34375	0.71735
3687.41519	0.71455
3685.48662	0.71488
3683.55806	0.71786
3681.62950	0.72161
3679.70093	0.72547
3677.77237	0.73012
3675.84380	0.73622
3673.91524	0.74176
3671.98667	0.74511
3670.05811	0.74597
3668.12954	0.74661
3666.20098	0.74995
3664.27242	0.75507
3662.34385	0.76107
3660.41529	0.76768
3658.48672	0.77477
3656.55816	0.78210
3654.62959	0.78899
3652.70103	0.79716
3650.77246	0.80792
3648.84390	0.81521
3646.91534	0.81973
3644.98677	0.82692
3643.05821	0.83435
3641.12964	0.84073
3639.20108	0.84692
3637.27251	0.85505
3635.34395	0.86448
3633.41538	0.87299
3631.48682	0.88130
3629.55826	0.89182
3627.62969	0.90022
3625.70113	0.90636
3623.77256	0.91445
3621.84400	0.92324
3619.91543	0.93008
3617.98687	0.93536
3616.05830	0.94196
3614.12974	0.94907
3612.20118	0.95598
3610.27261	0.96246
3608.34405	0.96792
3606.41548	0.97534
3604.48692	0.98604
3602.55835	0.99813
3600.62979	1.00965
3598.70123	1.01799
3596.77266	1.02292
3594.84410	1.02914
3592.91553	1.03764
3590.98697	1.04502
3589.05840	1.05363
3587.12984	1.06492
3585.20127	1.07445
3583.27271	1.08215
3581.34415	1.08964
3579.41558	1.09754
3577.48702	1.10480
3575.55845	1.11033
3573.62989	1.11559
3571.70132	1.12199
3569.77276	1.12889
3567.84419	1.13767
3565.91563	1.15017
3563.98707	1.16385
3562.05850	1.17714
3560.12994	1.18583
3558.20137	1.18940
3556.27281	1.19265
3554.34424	1.19705
3552.41568	1.20140
3550.48711	1.20607
3548.55855	1.21346
3546.62999	1.22292
3544.70142	1.23063
3542.77286	1.23568
3540.84429	1.24038
3538.91573	1.24566
3536.98716	1.25118
3535.05860	1.25928
3533.13003	1.26995
3531.20147	1.27743
3529.27291	1.28010
3527.34434	1.28527
3525.41578	1.29781
3523.48721	1.31186
3521.55865	1.31961
3519.63008	1.32507
3517.70152	1.33516
3515.77295	1.34623
3513.84439	1.35208
3511.91583	1.35452
3509.98726	1.35939
3508.05870	1.36583
3506.13013	1.37022
3504.20157	1.37561
3502.27300	1.38521
3500.34444	1.39853
3498.41587	1.41294
3496.48731	1.42502
3494.55875	1.43418
3492.63018	1.44185
3490.70162	1.44996
3488.77305	1.45895
3486.84449	1.46351
3484.91592	1.46121
3482.98736	1.46065
3481.05879	1.46493
3479.13023	1.46710
3477.20167	1.46884
3475.27310	1.47472
3473.34454	1.48250
3471.41597	1.48797
3469.48741	1.48781
3467.55884	1.48323
3465.63028	1.48235
3463.70171	1.49172
3461.77315	1.50793
3459.84459	1.51808
3457.91602	1.51526
3455.98746	1.50922
3454.05889	1.50856
3452.13033	1.51099
3450.20176	1.51377
3448.27320	1.51645
3446.34464	1.51886
3444.41607	1.52064
3442.48751	1.52315
3440.55894	1.52689
3438.63038	1.52833
3436.70181	1.52664
3434.77325	1.52470
3432.84468	1.52474
3430.91612	1.52631
3428.98756	1.52700
3427.05899	1.52512
3425.13043	1.51953
3423.20186	1.51189
3421.27330	1.50697
3419.34473	1.50643
3417.41617	1.51040
3415.48760	1.51986
3413.55904	1.52948
3411.63048	1.53191
3409.70191	1.52656
3407.77335	1.51928
3405.84478	1.51725
3403.91622	1.52112
3401.98765	1.52729
3400.05909	1.53133
3398.13052	1.53222
3396.20196	1.53464
3394.27340	1.53577
3392.34483	1.53016
3390.41627	1.52506
3388.48770	1.52641
3386.55914	1.52705
3384.63057	1.52265
3382.70201	1.52145
3380.77344	1.52548
3378.84488	1.52812
3376.91632	1.53059
3374.98775	1.53387
3373.05919	1.53270
3371.13062	1.52928
3369.20206	1.53060
3367.27349	1.53634
3365.34493	1.54019
3363.41636	1.53978
3361.48780	1.54010
3359.55924	1.54467
3357.63067	1.54864
3355.70211	1.54607
3353.77354	1.53902
3351.84498	1.53248
3349.91641	1.53089
3347.98785	1.53696
3346.05928	1.54635
3344.13072	1.55281
3342.20216	1.55519
3340.27359	1.55391
3338.34503	1.55049
3336.41646	1.55101
3334.48790	1.55628
3332.55933	1.55848
3330.63077	1.55468
3328.70220	1.54983
3326.77364	1.55027
3324.84508	1.55582
3322.91651	1.56139
3320.98795	1.56626
3319.05938	1.57141
3317.13082	1.57585
3315.20225	1.57950
3313.27369	1.58311
3311.34513	1.58411
3309.41656	1.58039
3307.48800	1.57717
3305.55943	1.57807
3303.63087	1.58166
3301.70230	1.58716
3299.77374	1.59071
3297.84517	1.58868
3295.91661	1.58439
3293.98805	1.58148
3292.05948	1.58007
3290.13092	1.57985
3288.20235	1.58204
3286.27379	1.58450
3284.34522	1.58179
3282.41666	1.57718
3280.48809	1.57660
3278.55953	1.57931
3276.63097	1.58280
3274.70240	1.58292
3272.77384	1.57860
3270.84527	1.57187
3268.91671	1.56232
3266.98814	1.55346
3265.05958	1.54950
3263.13101	1.54725
3261.20245	1.54709
3259.27389	1.55306
3257.34532	1.55487
3255.41676	1.54378
3253.48819	1.53026
3251.55963	1.52184
3249.63106	1.51781
3247.70250	1.51741
3245.77393	1.51785
3243.84537	1.51669
3241.91681	1.51102
3239.98824	1.49917
3238.05968	1.48843
3236.13111	1.48488
3234.20255	1.48323
3232.27398	1.47887
3230.34542	1.47396
3228.41685	1.46930
3226.48829	1.46229
3224.55973	1.45342
3222.63116	1.44821
3220.70260	1.44813
3218.77403	1.44872
3216.84547	1.44644
3214.91690	1.44171
3212.98834	1.43724
3211.05977	1.43140
3209.13121	1.42309
3207.20265	1.41853
3205.27408	1.41892
3203.34552	1.41711
3201.41695	1.41064
3199.48839	1.40392
3197.55982	1.39928
3195.63126	1.39571
3193.70269	1.39341
3191.77413	1.39134
3189.84557	1.38604
3187.91700	1.37896
3185.98844	1.37422
3184.05987	1.36968
3182.13131	1.36232
3180.20274	1.35579
3178.27418	1.35397
3176.34562	1.35351
3174.41705	1.34916
3172.48849	1.34183
3170.55992	1.33513
3168.63136	1.32890
3166.70279	1.32112
3164.77423	1.31434
3162.84566	1.31133
3160.91710	1.30866
3158.98854	1.30417
3157.05997	1.29951
3155.13141	1.29566
3153.20284	1.29370
3151.27428	1.29277
3149.34571	1.29098
3147.41715	1.28898
3145.48858	1.28700
3143.56002	1.28386
3141.63146	1.27956
3139.70289	1.27636
3137.77433	1.27709
3135.84576	1.28101
3133.91720	1.28398
3131.98863	1.28381
3130.06007	1.28165
3128.13150	1.27900
3126.20294	1.27707
3124.27438	1.27599
3122.34581	1.27524
3120.41725	1.27514
3118.48868	1.27501
3116.56012	1.27431
3114.63155	1.27556
3112.70299	1.27996
3110.77442	1.28352
3108.84586	1.28368
3106.91730	1.28247
3104.98873	1.27984
3103.06017	1.27520
3101.13160	1.27139
3099.20304	1.27017
3097.27447	1.27025
3095.34591	1.26995
3093.41734	1.26794
3091.48878	1.26358
3089.56022	1.25876
3087.63165	1.25631
3085.70309	1.25602
3083.77452	1.25480
3081.84596	1.25008
3079.91739	1.24300
3077.98883	1.23795
3076.06026	1.23649
3074.13170	1.23514
3072.20314	1.23157
3070.27457	1.22770
3068.34601	1.22502
3066.41744	1.22332
3064.48888	1.22171
3062.56031	1.21781
3060.63175	1.21096
3058.70318	1.20331
3056.77462	1.19653
3054.84606	1.19124
3052.91749	1.18752
3050.98893	1.18482
3049.06036	1.18292
3047.13180	1.18077
3045.20323	1.17665
3043.27467	1.17157
3041.34610	1.16771
3039.41754	1.16500
3037.48898	1.16264
3035.56041	1.15967
3033.63185	1.15504
3031.70328	1.14954
3029.77472	1.14457
3027.84615	1.14085
3025.91759	1.13827
3023.98903	1.13570
3022.06046	1.13307
3020.13190	1.13047
3018.20333	1.12694
3016.27477	1.12303
3014.34620	1.11980
3012.41764	1.11714
3010.48907	1.11509
3008.56051	1.11363
3006.63195	1.11332
3004.70338	1.11453
3002.77482	1.11511
3000.84625	1.11336
2998.91769	1.11143
2996.98912	1.11180
2995.06056	1.11379
2993.13199	1.11553
2991.20343	1.11726
2989.27487	1.12063
2987.34630	1.12577
2985.41774	1.13206
2983.48917	1.14015
2981.56061	1.14816
2979.63204	1.15296
2977.70348	1.15670
2975.77491	1.16216
2973.84635	1.16824
2971.91779	1.17393
2969.98922	1.17969
2968.06066	1.18584
2966.13209	1.19117
2964.20353	1.19426
2962.27496	1.19497
2960.34640	1.19407
2958.41783	1.19248
2956.48927	1.18913
2954.56071	1.18251
2952.63214	1.17468
2950.70358	1.16945
2948.77501	1.16757
2946.84645	1.16733
2944.91788	1.16834
2942.98932	1.17204
2941.06075	1.17867
2939.13219	1.18586
2937.20363	1.19216
2935.27506	1.19962
2933.34650	1.20891
2931.41793	1.21759
2929.48937	1.22511
2927.56080	1.23105
2925.63224	1.23363
2923.70367	1.23423
2921.77511	1.23444
2919.84655	1.23245
2917.91798	1.22651
2915.98942	1.21606
2914.06085	1.20157
2912.13229	1.18482
2910.20372	1.16855
2908.27516	1.15492
2906.34659	1.14412
2904.41803	1.13641
2902.48947	1.13160
2900.56090	1.12766
2898.63234	1.12415
2896.70377	1.12200
2894.77521	1.12031
2892.84664	1.11767
2890.91808	1.11349
2888.98952	1.10856
2887.06095	1.10494
2885.13239	1.10299
2883.20382	1.10210
2881.27526	1.10233
2879.34669	1.10240
2877.41813	1.10157
2875.48956	1.10062
2873.56100	1.09819
2871.63244	1.09294
2869.70387	1.08643
2867.77531	1.08052
2865.84674	1.07611
2863.91818	1.07309
2861.98961	1.07076
2860.06105	1.06964
2858.13248	1.07114
2856.20392	1.07561
2854.27536	1.08175
2852.34679	1.08806
2850.41823	1.09093
2848.48966	1.08330
2846.56110	1.06343
2844.63253	1.03951
2842.70397	1.01981
2840.77540	1.00621
2838.84684	0.99683
2836.91828	0.98948
2834.98971	0.98333
2833.06115	0.97830
2831.13258	0.97435
2829.20402	0.97145
2827.27545	0.96867
2825.34689	0.96543
2823.41832	0.96252
2821.48976	0.95962
2819.56120	0.95577
2817.63263	0.95175
2815.70407	0.94817
2813.77550	0.94412
2811.84694	0.93970
2809.91837	0.93614
2807.98981	0.93339
2806.06124	0.93077
2804.13268	0.92812
2802.20412	0.92536
2800.27555	0.92239
2798.34699	0.91913
2796.41842	0.91588
2794.48986	0.91297
2792.56129	0.90989
2790.63273	0.90630
2788.70416	0.90293
2786.77560	0.90018
2784.84704	0.89716
2782.91847	0.89326
2780.98991	0.88980
2779.06134	0.88821
2777.13278	0.88752
2775.20421	0.88657
2773.27565	0.88540
2771.34708	0.88384
2769.41852	0.88183
2767.48996	0.87993
2765.56139	0.87850
2763.63283	0.87693
2761.70426	0.87458
2759.77570	0.87198
2757.84713	0.86938
2755.91857	0.86669
2753.99001	0.86443
2752.06144	0.86258
2750.13288	0.86016
2748.20431	0.85747
2746.27575	0.85577
2744.34718	0.85478
2742.41862	0.85324
2740.49005	0.85097
2738.56149	0.84903
2736.63293	0.84809
2734.70436	0.84688
2732.77580	0.84463
2730.84723	0.84268
2728.91867	0.84144
2726.99010	0.83993
2725.06154	0.83833
2723.13297	0.83700
2721.20441	0.83576
2719.27585	0.83506
2717.34728	0.83472
2715.41872	0.83357
2713.49015	0.83196
2711.56159	0.83065
2709.63302	0.82938
2707.70446	0.82802
2705.77589	0.82674
2703.84733	0.82550
2701.91877	0.82410
2699.99020	0.82234
2698.06164	0.82037
2696.13307	0.81874
2694.20451	0.81753
2692.27594	0.81633
2690.34738	0.81468
2688.41881	0.81258
2686.49025	0.81042
2684.56169	0.80820
2682.63312	0.80592
2680.70456	0.80389
2678.77599	0.80211
2676.84743	0.80022
2674.91886	0.79804
2672.99030	0.79607
2671.06173	0.79481
2669.13317	0.79394
2667.20461	0.79275
2665.27604	0.79128
2663.34748	0.78988
2661.41891	0.78831
2659.49035	0.78690
2657.56178	0.78618
2655.63322	0.78531
2653.70465	0.78391
2651.77609	0.78286
2649.84753	0.78211
2647.91896	0.78104
2645.99040	0.77976
2644.06183	0.77861
2642.13327	0.77764
2640.20470	0.77661
2638.27614	0.77545
2636.34757	0.77443
2634.41901	0.77344
2632.49045	0.77213
2630.56188	0.77021
2628.63332	0.76826
2626.70475	0.76713
2624.77619	0.76594
2622.84762	0.76384
2620.91906	0.76141
2618.99049	0.75928
2617.06193	0.75759
2615.13337	0.75630
2613.20480	0.75509
2611.27624	0.75380
2609.34767	0.75235
2607.41911	0.75076
2605.49054	0.74963
2603.56198	0.74924
2601.63342	0.74888
2599.70485	0.74818
2597.77629	0.74752
2595.84772	0.74687
2593.91916	0.74616
2591.99059	0.74550
2590.06203	0.74467
2588.13346	0.74353
2586.20490	0.74245
2584.27634	0.74177
2582.34777	0.74146
2580.41921	0.74118
2578.49064	0.74053
2576.56208	0.73964
2574.63351	0.73882
2572.70495	0.73783
2570.77638	0.73662
2568.84782	0.73544
2566.91926	0.73401
2564.99069	0.73216
2563.06213	0.73027
2561.13356	0.72845
2559.20500	0.72678
2557.27643	0.72530
2555.34787	0.72346
2553.41930	0.72114
2551.49074	0.71900
2549.56218	0.71746
2547.63361	0.71626
2545.70505	0.71507
2543.77648	0.71376
2541.84792	0.71249
2539.91935	0.71149
2537.99079	0.71085
2536.06222	0.71063
2534.13366	0.71036
2532.20510	0.70947
2530.27653	0.70842
2528.34797	0.70788
2526.41940	0.70747
2524.49084	0.70658
2522.56227	0.70543
2520.63371	0.70435
2518.70514	0.70340
2516.77658	0.70240
2514.84802	0.70094
2512.91945	0.69923
2510.99089	0.69773
2509.06232	0.69644
2507.13376	0.69509
2505.20519	0.69334
2503.27663	0.69128
2501.34806	0.68953
2499.41950	0.68817
2497.49094	0.68681
2495.56237	0.68548
2493.63381	0.68418
2491.70524	0.68279
2489.77668	0.68144
2487.84811	0.68006
2485.91955	0.67862
2483.99098	0.67751
2482.06242	0.67674
2480.13386	0.67617
2478.20529	0.67589
2476.27673	0.67542
2474.34816	0.67449
2472.41960	0.67373
2470.49103	0.67338
2468.56247	0.67306
2466.63391	0.67270
2464.70534	0.67227
2462.77678	0.67162
2460.84821	0.67083
2458.91965	0.66997
2456.99108	0.66909
2455.06252	0.66830
2453.13395	0.66753
2451.20539	0.66664
2449.27683	0.66567
2447.34826	0.66458
2445.41970	0.66333
2443.49113	0.66189
2441.56257	0.66053
2439.63400	0.65956
2437.70544	0.65864
2435.77687	0.65735
2433.84831	0.65611
2431.91975	0.65533
2429.99118	0.65470
2428.06262	0.65372
2426.13405	0.65248
2424.20549	0.65158
2422.27692	0.65098
2420.34836	0.65016
2418.41979	0.64930
2416.49123	0.64874
2414.56267	0.64841
2412.63410	0.64812
2410.70554	0.64766
2408.77697	0.64671
2406.84841	0.64553
2404.91984	0.64476
2402.99128	0.64425
2401.06271	0.64335
2399.13415	0.64220
2397.20559	0.64120
2395.27702	0.64020
2393.34846	0.63910
2391.41989	0.63815
2389.49133	0.63743
2387.56276	0.63684
2385.63420	0.63642
2383.70563	0.63647
2381.77707	0.63701
2379.84851	0.63746
2377.91994	0.63745
2375.99138	0.63796
2374.06281	0.63969
2372.13425	0.64082
2370.20568	0.63982
2368.27712	0.63850
2366.34855	0.63932
2364.41999	0.64210
2362.49143	0.64480
2360.56286	0.64591
2358.63430	0.64451
2356.70573	0.64143
2354.77717	0.63836
2352.84860	0.63504
2350.92004	0.63254
2348.99147	0.63202
2347.06291	0.63296
2345.13435	0.63379
2343.20578	0.63350
2341.27722	0.63374
2339.34865	0.63459
2337.42009	0.63446
2335.49152	0.63301
2333.56296	0.63060
2331.63440	0.62820
2329.70583	0.62669
2327.77727	0.62593
2325.84870	0.62584
2323.92014	0.62577
2321.99157	0.62458
2320.06301	0.62270
2318.13444	0.62140
2316.20588	0.62118
2314.27732	0.62135
2312.34875	0.62090
2310.42019	0.61974
2308.49162	0.61832
2306.56306	0.61684
2304.63449	0.61548
2302.70593	0.61447
2300.77736	0.61372
2298.84880	0.61303
2296.92024	0.61231
2294.99167	0.61114
2293.06311	0.60952
2291.13454	0.60832
2289.20598	0.60773
2287.27741	0.60695
2285.34885	0.60580
2283.42028	0.60472
2281.49172	0.60373
2279.56316	0.60272
2277.63459	0.60187
2275.70603	0.60129
2273.77746	0.60078
2271.84890	0.60035
2269.92033	0.60006
2267.99177	0.59968
2266.06320	0.59908
2264.13464	0.59839
2262.20608	0.59762
2260.27751	0.59699
2258.34895	0.59685
2256.42038	0.59685
2254.49182	0.59635
2252.56325	0.59580
2250.63469	0.59572
2248.70612	0.59564
2246.77756	0.59522
2244.84900	0.59484
2242.92043	0.59469
2240.99187	0.59450
2239.06330	0.59415
2237.13474	0.59398
2235.20617	0.59413
2233.27761	0.59432
2231.34904	0.59443
2229.42048	0.59451
2227.49192	0.59446
2225.56335	0.59432
2223.63479	0.59425
2221.70622	0.59416
2219.77766	0.59383
2217.84909	0.59348
2215.92053	0.59333
2213.99196	0.59333
2212.06340	0.59337
2210.13484	0.59322
2208.20627	0.59283
2206.27771	0.59236
2204.34914	0.59202
2202.42058	0.59194
2200.49201	0.59185
2198.56345	0.59144
2196.63488	0.59094
2194.70632	0.59066
2192.77776	0.59035
2190.84919	0.58995
2188.92063	0.58981
2186.99206	0.58989
2185.06350	0.58981
2183.13493	0.58961
2181.20637	0.58943
2179.27781	0.58905
2177.34924	0.58853
2175.42068	0.58820
2173.49211	0.58802
2171.56355	0.58783
2169.63498	0.58768
2167.70642	0.58756
2165.77785	0.58737
2163.84929	0.58710
2161.92073	0.58679
2159.99216	0.58631
2158.06360	0.58568
2156.13503	0.58521
2154.20647	0.58507
2152.27790	0.58502
2150.34934	0.58486
2148.42077	0.58465
2146.49221	0.58449
2144.56365	0.58443
2142.63508	0.58432
2140.70652	0.58413
2138.77795	0.58409
2136.84939	0.58420
2134.92082	0.58429
2132.99226	0.58442
2131.06369	0.58468
2129.13513	0.58493
2127.20657	0.58515
2125.27800	0.58556
2123.34944	0.58601
2121.42087	0.58617
2119.49231	0.58610
2117.56374	0.58611
2115.63518	0.58619
2113.70661	0.58615
2111.77805	0.58593
2109.84949	0.58573
2107.92092	0.58578
2105.99236	0.58592
2104.06379	0.58591
2102.13523	0.58577
2100.20666	0.58557
2098.27810	0.58535
2096.34953	0.58505
2094.42097	0.58467
2092.49241	0.58433
2090.56384	0.58398
2088.63528	0.58367
2086.70671	0.58357
2084.77815	0.58338
2082.84958	0.58284
2080.92102	0.58224
2078.99245	0.58172
2077.06389	0.58117
2075.13533	0.58060
2073.20676	0.58004
2071.27820	0.57952
2069.34963	0.57927
2067.42107	0.57927
2065.49250	0.57894
2063.56394	0.57804
2061.63537	0.57720
2059.70681	0.57668
2057.77825	0.57630
2055.84968	0.57609
2053.92112	0.57592
2051.99255	0.57545
2050.06399	0.57494
2048.13542	0.57473
2046.20686	0.57463
2044.27830	0.57439
2042.34973	0.57402
2040.42117	0.57358
2038.49260	0.57319
2036.56404	0.57290
2034.63547	0.57254
2032.70691	0.57230
2030.77834	0.57245
2028.84978	0.57273
2026.92122	0.57272
2024.99265	0.57247
2023.06409	0.57226
2021.13552	0.57222
2019.20696	0.57231
2017.27839	0.57237
2015.34983	0.57229
2013.42126	0.57225
2011.49270	0.57244
2009.56414	0.57280
2007.63557	0.57308
2005.70701	0.57308
2003.77844	0.57280
2001.84988	0.57257
1999.92131	0.57270
1997.99275	0.57292
1996.06418	0.57293
1994.13562	0.57287
1992.20706	0.57286
1990.27849	0.57284
1988.34993	0.57281
1986.42136	0.57280
1984.49280	0.57276
1982.56423	0.57269
1980.63567	0.57257
1978.70710	0.57248
1976.77854	0.57260
1974.84998	0.57286
1972.92141	0.57297
1970.99285	0.57303
1969.06428	0.57335
1967.13572	0.57370
1965.20715	0.57353
1963.27859	0.57322
1961.35002	0.57319
1959.42146	0.57311
1957.49290	0.57290
1955.56433	0.57281
1953.63577	0.57260
1951.70720	0.57213
1949.77864	0.57184
1947.85007	0.57192
1945.92151	0.57218
1943.99294	0.57235
1942.06438	0.57213
1940.13582	0.57171
1938.20725	0.57157
1936.27869	0.57161
1934.35012	0.57152
1932.42156	0.57141
1930.49299	0.57152
1928.56443	0.57167
1926.63586	0.57187
1924.70730	0.57243
1922.77874	0.57311
1920.85017	0.57349
1918.92161	0.57362
1916.99304	0.57330
1915.06448	0.57264
1913.13591	0.57230
1911.20735	0.57241
1909.27878	0.57238
1907.35022	0.57199
1905.42166	0.57179
1903.49309	0.57191
1901.56453	0.57195
1899.63596	0.57187
1897.70740	0.57191
1895.77883	0.57203
1893.85027	0.57212
1891.92171	0.57221
1889.99314	0.57208
1888.06458	0.57151
1886.13601	0.57102
1884.20745	0.57075
1882.27888	0.57056
1880.35032	0.57037
1878.42175	0.57005
1876.49319	0.56962
1874.56463	0.56921
1872.63606	0.56914
1870.70750	0.56947
1868.77893	0.56947
1866.85037	0.56857
1864.92180	0.56757
1862.99324	0.56690
1861.06467	0.56665
1859.13611	0.56674
1857.20755	0.56668
1855.27898	0.56653
1853.35042	0.56684
1851.42185	0.56757
1849.49329	0.56827
1847.56472	0.56868
1845.63616	0.56894
1843.70759	0.56886
1841.77903	0.56864
1839.85047	0.56878
1837.92190	0.56897
1835.99334	0.56879
1834.06477	0.56856
1832.13621	0.56866
1830.20764	0.56853
1828.27908	0.56774
1826.35051	0.56703
1824.42195	0.56644
1822.49339	0.56565
1820.56482	0.56476
1818.63626	0.56389
1816.70769	0.56300
1814.77913	0.56232
1812.85056	0.56201
1810.92200	0.56149
1808.99343	0.56045
1807.06487	0.55944
1805.13631	0.55878
1803.20774	0.55841
1801.27918	0.55805
1799.35061	0.55745
1797.42205	0.55699
1795.49348	0.55693
1793.56492	0.55716
1791.63635	0.55724
1789.70779	0.55666
1787.77923	0.55614
1785.85066	0.55621
1783.92210	0.55689
1781.99353	0.55777
1780.06497	0.55835
1778.13640	0.55890
1776.20784	0.55980
1774.27927	0.56116
1772.35071	0.56225
1770.42215	0.56232
1768.49358	0.56225
1766.56502	0.56247
1764.63645	0.56323
1762.70789	0.56452
1760.77932	0.56588
1758.85076	0.56733
1756.92220	0.56949
1754.99363	0.57193
1753.06507	0.57470
1751.13650	0.57941
1749.20794	0.58622
1747.27937	0.59230
1745.35081	0.59712
1743.42224	0.60181
1741.49368	0.60652
1739.56512	0.61055
1737.63655	0.61348
1735.70799	0.61659
1733.77942	0.62157
1731.85086	0.62507
1729.92229	0.62701
1727.99373	0.62965
1726.06516	0.63355
1724.13660	0.63904
1722.20804	0.64472
1720.27947	0.65023
1718.35091	0.65900
1716.42234	0.67273
1714.49378	0.68337
1712.56521	0.69194
1710.63665	0.70227
1708.70808	0.71553
1706.77952	0.73587
1704.85096	0.76299
1702.92239	0.78801
1700.99383	0.82410
1699.06526	0.88263
1697.13670	0.93801
1695.20813	0.98964
1693.27957	1.02700
1691.35100	1.05782
1689.42244	1.09598
1687.49388	1.13196
1685.56531	1.16880
1683.63675	1.22478
1681.70818	1.26242
1679.77962	1.28240
1677.85105	1.30179
1675.92249	1.32431
1673.99392	1.34604
1672.06536	1.36165
1670.13680	1.37641
1668.20823	1.38846
1666.27967	1.39233
1664.35110	1.39464
1662.42254	1.39896
1660.49397	1.40329
1658.56541	1.40538
1656.63684	1.40498
1654.70828	1.40369
1652.77972	1.40015
1650.85115	1.39695
1648.92259	1.39460
1646.99402	1.39055
1645.06546	1.38729
1643.13689	1.38547
1641.20833	1.38512
1639.27976	1.38496
1637.35120	1.38262
1635.42264	1.37661
1633.49407	1.37177
1631.56551	1.36845
1629.63694	1.36341
1627.70838	1.35694
1625.77981	1.34992
1623.85125	1.33941
1621.92269	1.32612
1619.99412	1.31596
1618.06556	1.30378
1616.13699	1.28141
1614.20843	1.26011
1612.27986	1.24205
1610.35130	1.22247
1608.42273	1.20252
1606.49417	1.18552
1604.56561	1.17246
1602.63704	1.16161
1600.70848	1.15215
1598.77991	1.14482
1596.85135	1.14012
1594.92278	1.13715
1592.99422	1.13520
1591.06565	1.13517
1589.13709	1.13768
1587.20853	1.14260
1585.27996	1.14992
1583.35140	1.15977
1581.42283	1.17093
1579.49427	1.18163
1577.56570	1.19449
1575.63714	1.21198
1573.70857	1.22348
1571.78001	1.23159
1569.85145	1.24546
1567.92288	1.26084
1565.99432	1.27093
1564.06575	1.27875
1562.13719	1.28412
1560.20862	1.29122
1558.28006	1.30782
1556.35149	1.31458
1554.42293	1.31398
1552.49437	1.31197
1550.56580	1.31053
1548.63724	1.30899
1546.70867	1.30692
1544.78011	1.30456
1542.85154	1.30137
1540.92298	1.29300
1538.99441	1.27983
1537.06585	1.27432
1535.13729	1.27043
1533.20872	1.26337
1531.28016	1.25582
1529.35159	1.25108
1527.42303	1.24772
1525.49446	1.24458
1523.56590	1.24196
1521.63733	1.23927
1519.70877	1.23574
1517.78021	1.22902
1515.85164	1.21792
1513.92308	1.20591
1511.99451	1.19473
1510.06595	1.18576
1508.13738	1.17158
1506.20882	1.13537
1504.28025	1.11277
1502.35169	1.10008
1500.42313	1.08747
1498.49456	1.07285
1496.56600	1.05421
1494.63743	1.03799
1492.70887	1.02722
1490.78030	1.01576
1488.85174	0.99923
1486.92317	0.98535
1484.99461	0.97695
1483.06605	0.97116
1481.13748	0.96643
1479.20892	0.96394
1477.28035	0.96566
1475.35179	0.97217
1473.42322	0.98461
1471.49466	0.99882
1469.56610	1.00726
1467.63753	1.01316
1465.70897	1.02044
1463.78040	1.02882
1461.85184	1.03479
1459.92327	1.03991
1457.99471	1.04873
1456.06614	1.05679
1454.13758	1.05823
1452.20902	1.05875
1450.28045	1.05906
1448.35189	1.05827
1446.42332	1.05617
1444.49476	1.05313
1442.56619	1.04949
1440.63763	1.04628
1438.70906	1.04307
1436.78050	1.03633
1434.85194	1.02673
1432.92337	1.01858
1430.99481	1.01004
1429.06624	1.00076
1427.13768	0.99400
1425.20911	0.99013
1423.28055	0.98817
1421.35198	0.98780
1419.42342	0.98911
1417.49486	0.99053
1415.56629	0.99038
1413.63773	0.98934
1411.70916	0.98743
1409.78060	0.98526
1407.85203	0.98404
1405.92347	0.98404
1403.99490	0.98453
1402.06634	0.98504
1400.13778	0.98623
1398.20921	0.98827
1396.28065	0.99069
1394.35208	0.99382
1392.42352	0.99781
1390.49495	1.00365
1388.56639	1.01401
1386.63782	1.02881
1384.70926	1.04253
1382.78070	1.05405
1380.85213	1.06311
1378.92357	1.06691
1376.99500	1.06485
1375.06644	1.05647
1373.13787	1.04218
1371.20931	1.02684
1369.28074	1.01045
1367.35218	0.99256
1365.42362	0.97633
1363.49505	0.96066
1361.56649	0.94521
1359.63792	0.93412
1357.70936	0.92717
1355.78079	0.92199
1353.85223	0.91771
1351.92366	0.91449
1349.99510	0.91218
1348.06654	0.91069
1346.13797	0.91002
1344.20941	0.91021
1342.28084	0.91173
1340.35228	0.91514
1338.42371	0.91938
1336.49515	0.92378
1334.56659	0.93003
1332.63802	0.93856
1330.70946	0.94790
1328.78089	0.95589
1326.85233	0.96113
1324.92376	0.96408
1322.99520	0.96611
1321.06663	0.96830
1319.13807	0.97084
1317.20951	0.97295
1315.28094	0.97411
1313.35238	0.97464
1311.42381	0.97433
1309.49525	0.97286
1307.56668	0.97037
1305.63812	0.96719
1303.70955	0.96386
1301.78099	0.96049
1299.85243	0.95637
1297.92386	0.95120
1295.99530	0.94583
1294.06673	0.94162
1292.13817	0.93924
1290.20960	0.93862
1288.28104	0.93953
1286.35247	0.94128
1284.42391	0.94268
1282.49535	0.94356
1280.56678	0.94512
1278.63822	0.94858
1276.70965	0.95376
1274.78109	0.95978
1272.85252	0.96676
1270.92396	0.97479
1268.99539	0.98276
1267.06683	0.98980
1265.13827	0.99614
1263.20970	1.00162
1261.28114	1.00534
1259.35257	1.00703
1257.42401	1.00743
1255.49544	1.00750
1253.56688	1.00773
1251.63831	1.00798
1249.70975	1.00802
1247.78119	1.00798
1245.85262	1.00793
1243.92406	1.00739
1241.99549	1.00575
1240.06693	1.00279
1238.13836	0.99881
1236.20980	0.99404
1234.28123	0.98831
1232.35267	0.98165
1230.42411	0.97440
1228.49554	0.96666
1226.56698	0.95835
1224.63841	0.94966
1222.70985	0.94139
1220.78128	0.93423
1218.85272	0.92824
1216.92415	0.92351
1214.99559	0.92090
1213.06703	0.92142
1211.13846	0.92482
1209.20990	0.92921
1207.28133	0.93223
1205.35277	0.93217
1203.42420	0.92818
1201.49564	0.92088
1199.56708	0.91199
1197.63851	0.90277
1195.70995	0.89378
1193.78138	0.88569
1191.85282	0.87954
1189.92425	0.87591
1187.99569	0.87408
1186.06712	0.87324
1184.13856	0.87341
1182.21000	0.87533
1180.28143	0.87959
1178.35287	0.88593
1176.42430	0.89384
1174.49574	0.90302
1172.56717	0.91295
1170.63861	0.92411
1168.71004	0.93811
1166.78148	0.95534
1164.85292	0.97436
1162.92435	0.99290
1160.99579	1.00771
1159.06722	1.01570
1157.13866	1.01665
1155.21009	1.01202
1153.28153	1.00245
1151.35296	0.98922
1149.42440	0.97511
1147.49584	0.96216
1145.56727	0.95156
1143.63871	0.94488
1141.71014	0.94317
1139.78158	0.94639
1137.85301	0.95364
1135.92445	0.96381
1133.99588	0.97622
1132.06732	0.99097
1130.13876	1.00857
1128.21019	1.02837
1126.28163	1.04799
1124.35306	1.06449
1122.42450	1.07658
1120.49593	1.08558
1118.56737	1.09282
1116.63880	1.09742
1114.71024	1.09734
1112.78168	1.09256
1110.85311	1.08590
1108.92455	1.08011
1106.99598	1.07578
1105.06742	1.07212
1103.13885	1.06872
1101.21029	1.06687
1099.28172	1.06851
1097.35316	1.07402
1095.42460	1.08226
1093.49603	1.09229
1091.56747	1.10408
1089.63890	1.11781
1087.71034	1.13279
1085.78177	1.14824
1083.85321	1.16328
1081.92464	1.17451
1079.99608	1.17940
1078.06752	1.17961
1076.13895	1.17632
1074.21039	1.16892
1072.28182	1.15867
1070.35326	1.14795
1068.42469	1.13704
1066.49613	1.12501
1064.56756	1.11255
1062.63900	1.10139
1060.71044	1.09144
1058.78187	1.08193
1056.85331	1.07397
1054.92474	1.06866
1052.99618	1.06544
1051.06761	1.06360
1049.13905	1.06371
1047.21049	1.06649
1045.28192	1.07172
1043.35336	1.07931
1041.42479	1.08854
1039.49623	1.09707
1037.56766	1.10309
1035.63910	1.10579
1033.71053	1.10439
1031.78197	1.09973
1029.85341	1.09406
1027.92484	1.08783
1025.99628	1.07970
1024.06771	1.07011
1022.13915	1.06166
1020.21058	1.05563
1018.28202	1.05055
1016.35345	1.04442
1014.42489	1.03601
1012.49633	1.02476
1010.56776	1.01134
1008.63920	0.99684
1006.71063	0.98208
1004.78207	0.96863
1002.85350	0.95822
1000.92494	0.95082
998.99637	0.94537
997.06781	0.94155
995.13925	0.93826
993.21068	0.93348
991.28212	0.92657
989.35355	0.91803
987.42499	0.90839
985.49642	0.89872
983.56786	0.89064
981.63929	0.88515
979.71073	0.88188
977.78217	0.87973
975.85360	0.87737
973.92504	0.87346
971.99647	0.86751
970.06791	0.85998
968.13934	0.85195
966.21078	0.84533
964.28221	0.84196
962.35365	0.84290
960.42509	0.84885
958.49652	0.85887
956.56796	0.86851
954.63939	0.87260
952.71083	0.86976
950.78226	0.86261
948.85370	0.85456
946.92513	0.84773
944.99657	0.84291
943.06801	0.84009
941.13944	0.83910
939.21088	0.83970
937.28231	0.84129
935.35375	0.84350
933.42518	0.84665
931.49662	0.85102
929.56805	0.85614
927.63949	0.86165
925.71093	0.86801
923.78236	0.87487
921.85380	0.88069
919.92523	0.88458
917.99667	0.88664
916.06810	0.88767
914.13954	0.88872
912.21098	0.88990
910.28241	0.89080
908.35385	0.89178
906.42528	0.89316
904.49672	0.89438
902.56815	0.89509
900.63959	0.89544
898.71102	0.89460
896.78246	0.89158
894.85390	0.88739
892.92533	0.88344
890.99677	0.88000
889.06820	0.87743
887.13964	0.87613
885.21107	0.87647
883.28251	0.87894
881.35394	0.88308
879.42538	0.88810
877.49682	0.89398
875.56825	0.90065
873.63969	0.90754
871.71112	0.91503
869.78256	0.92330
867.85399	0.93077
865.92543	0.93701
863.99686	0.94346
862.06830	0.95036
860.13974	0.95727
858.21117	0.96397
856.28261	0.96931
854.35404	0.97251
852.42548	0.97486
850.49691	0.97682
848.56835	0.97672
846.63978	0.97480
844.71122	0.97313
842.78266	0.97189
840.85409	0.97005
838.92553	0.96731
836.99696	0.96409
835.06840	0.96152
833.13983	0.96017
831.21127	0.95988
829.28270	0.96087
827.35414	0.96285
825.42558	0.96460
823.49701	0.96585
821.56845	0.96832
819.63988	0.97292
817.71132	0.97846
815.78275	0.98445
813.85419	0.99070
811.92562	0.99713
809.99706	1.00430
808.06850	1.01083
806.13993	1.01494
804.21137	1.01753
802.28280	1.01986
800.35424	1.02128
798.42567	1.02071
796.49711	1.01847
794.56854	1.01541
792.63998	1.01150
790.71142	1.00645
788.78285	0.99997
786.85429	0.99194
784.92572	0.98346
782.99716	0.97582
781.06859	0.96874
779.14003	0.96128
777.21147	0.95392
775.28290	0.94803
773.35434	0.94392
771.42577	0.94110
769.49721	0.93902
767.56864	0.93806
765.64008	0.93951
763.71151	0.94324
761.78295	0.94836
759.85439	0.95510
757.92582	0.96400
755.99726	0.97500
754.06869	0.98725
752.14013	1.00013
750.21156	1.01375
748.28300	1.02803
746.35443	1.04259
744.42587	1.05630
742.49731	1.06857
740.56874	1.08071
738.64018	1.09301
736.71161	1.10347
734.78305	1.11093
732.85448	1.11612
730.92592	1.11916
728.99735	1.11897
727.06879	1.11544
725.14023	1.11030
723.21166	1.10521
721.28310	1.09920
719.35453	1.09122
717.42597	1.08298
715.49740	1.07476
713.56884	1.06595
711.64027	1.05859
709.71171	1.05429
707.78315	1.05174
705.85458	1.04940
703.92602	1.04744
701.99745	1.04682
700.06889	1.04837
698.14032	1.05192
696.21176	1.05714
694.28319	1.06423
692.35463	1.07264
690.42607	1.08159
688.49750	1.08998
686.56894	1.09679
684.64037	1.10313
682.71181	1.10964
680.78324	1.11427
678.85468	1.11474
676.92611	1.11082
674.99755	1.10442
673.06899	1.09785
671.14042	1.09092
669.21186	1.07600
667.28329	1.05143
665.35473	1.03497
663.42616	1.02162
661.49760	1.00589
659.56903	0.98887
657.64047	0.97179
655.71191	0.95644
653.78334	0.94355
651.85478	0.93206
649.92621	0.92214
647.99765	0.91486
646.06908	0.91076
644.14052	0.91103
642.21195	0.91541
640.28339	0.92114
638.35483	0.92682
636.42626	0.93330
634.49770	0.94211
632.56913	0.95378
630.64057	0.96690
628.71200	0.98104
626.78344	0.99854
624.85488	1.01893
622.92631	1.03704
620.99775	1.05160
619.06918	1.06694
617.14062	1.08442
615.21205	1.09950
613.28349	1.10966
611.35492	1.11605
609.42636	1.12039
607.49780	1.12476
605.56923	1.12781
603.64067	1.12480
601.71210	1.11600
599.78354	1.10648
