3997.91406	0.63722
3995.98550	0.63636
3994.05693	0.63532
3992.12837	0.63456
3990.19980	0.63448
3988.27124	0.63425
3986.34268	0.63347
3984.41411	0.63281
3982.48555	0.63261
3980.55698	0.63285
3978.62842	0.63298
3976.69985	0.63145
3974.77129	0.62916
3972.84272	0.62934
3970.91416	0.63103
3968.98560	0.63113
3967.05703	0.63024
3965.12847	0.63029
3963.19990	0.63134
3961.27134	0.63185
3959.34277	0.63064
3957.41421	0.62943
3955.48564	0.62986
3953.55708	0.63021
3951.62852	0.63000
3949.69995	0.63076
3947.77139	0.63144
3945.84282	0.63121
3943.91426	0.63106
3941.98569	0.63087
3940.05713	0.63005
3938.12856	0.62950
3936.20000	0.63055
3934.27144	0.63247
3932.34287	0.63311
3930.41431	0.63228
3928.48574	0.63148
3926.55718	0.63071
3924.62861	0.62993
3922.70005	0.63097
3920.77148	0.63329
3918.84292	0.63296
3916.91436	0.62902
3914.98579	0.62600
3913.05723	0.62566
3911.12866	0.62662
3909.20010	0.62772
3907.27153	0.62845
3905.34297	0.62806
3903.41440	0.62438
3901.48584	0.61874
3899.55728	0.61588
3897.62871	0.61647
3895.70015	0.61818
3893.77158	0.61970
3891.84302	0.62026
3889.91445	0.62063
3887.98589	0.62188
3886.05733	0.62197
3884.12876	0.61956
3882.20020	0.61760
3880.27163	0.61689
3878.34307	0.61710
3876.41450	0.61831
3874.48594	0.62020
3872.55737	0.62134
3870.62881	0.61982
3868.70025	0.61771
3866.77168	0.61723
3864.84312	0.61621
3862.91455	0.61440
3860.98599	0.61427
3859.05742	0.61608
3857.12886	0.61901
3855.20029	0.62024
3853.27173	0.61311
3851.34317	0.60747
3849.41460	0.60915
3847.48604	0.61240
3845.55747	0.61477
3843.62891	0.61626
3841.70034	0.61835
3839.77178	0.62008
3837.84321	0.61678
3835.91465	0.61170
3833.98609	0.60944
3832.05752	0.60816
3830.12896	0.60802
3828.20039	0.60945
3826.27183	0.61017
3824.34326	0.60966
3822.41470	0.60847
3820.48613	0.60737
3818.55757	0.60864
3816.62901	0.60864
3814.70044	0.60582
3812.77188	0.60456
3810.84331	0.60520
3808.91475	0.60578
3806.98618	0.60612
3805.05762	0.60870
3803.12905	0.61242
3801.20049	0.61303
3799.27193	0.61105
3797.34336	0.60947
3795.41480	0.60820
3793.48623	0.60765
3791.55767	0.60803
3789.62910	0.60889
3787.70054	0.60948
3785.77197	0.60899
3783.84341	0.60758
3781.91485	0.60710
3779.98628	0.60763
3778.05772	0.60767
3776.12915	0.60795
3774.20059	0.60951
3772.27202	0.61117
3770.34346	0.61072
3768.41489	0.60893
3766.48633	0.60766
3764.55777	0.60666
3762.62920	0.60649
3760.70064	0.60678
3758.77207	0.60658
3756.84351	0.60678
3754.91494	0.60779
3752.98638	0.60790
3751.05781	0.60452
3749.12925	0.60272
3747.20069	0.60585
3745.27212	0.60846
3743.34356	0.60717
3741.41499	0.60692
3739.48643	0.60918
3737.55786	0.61196
3735.62930	0.61168
3733.70074	0.60841
3731.77217	0.60762
3729.84361	0.60862
3727.91504	0.60968
3725.98648	0.60995
3724.05791	0.60919
3722.12935	0.60793
3720.20078	0.60696
3718.27222	0.60669
3716.34366	0.60697
3714.41509	0.60788
3712.48653	0.60848
3710.55796	0.60699
3708.62940	0.60520
3706.70083	0.60471
3704.77227	0.60524
3702.84370	0.60562
3700.91514	0.60527
3698.98658	0.60557
3697.05801	0.60705
3695.12945	0.60925
3693.20088	0.61196
3691.27232	0.61388
3689.34375	0.61168
3687.41519	0.60966
3685.48662	0.61069
3683.55806	0.61263
3681.62950	0.61533
3679.70093	0.61877
3677.77237	0.62163
3675.84380	0.62415
3673.91524	0.62905
3671.98667	0.63507
3670.05811	0.64134
3668.12954	0.64646
3666.20098	0.65101
3664.27242	0.65585
3662.34385	0.66073
3660.41529	0.66574
3658.48672	0.67076
3656.55816	0.67643
3654.62959	0.68302
3652.70103	0.69090
3650.77246	0.70221
3648.84390	0.71085
3646.91534	0.71113
3644.98677	0.71433
3643.05821	0.72128
3641.12964	0.72843
3639.20108	0.73387
3637.27251	0.73970
3635.34395	0.74726
3633.41538	0.75472
3631.48682	0.76018
3629.55826	0.76719
3627.62969	0.77826
3625.70113	0.78638
3623.77256	0.79266
3621.84400	0.79936
3619.91543	0.80804
3617.98687	0.81963
3616.05830	0.83027
3614.12974	0.83737
3612.20118	0.84229
3610.27261	0.84793
3608.34405	0.85604
3606.41548	0.86538
3604.48692	0.87292
3602.55835	0.88068
3600.62979	0.89176
3598.70123	0.90364
3596.77266	0.91297
3594.84410	0.92164
3592.91553	0.93093
3590.98697	0.93991
3589.05840	0.95047
3587.12984	0.96200
3585.20127	0.96876
3583.27271	0.97288
3581.34415	0.97832
3579.41558	0.98627
3577.48702	0.99676
3575.55845	1.00855
3573.62989	1.01750
3571.70132	1.02242
3569.77276	1.02693
3567.84419	1.03552
3565.91563	1.04699
3563.98707	1.05443
3562.05850	1.05984
3560.12994	1.06696
3558.20137	1.07690
3556.27281	1.08713
3554.34424	1.09559
3552.41568	1.10309
3550.48711	1.11110
3548.55855	1.12194
3546.62999	1.13644
3544.70142	1.14871
3542.77286	1.15361
3540.84429	1.15691
3538.91573	1.16294
3536.98716	1.16994
3535.05860	1.17696
3533.13003	1.18232
3531.20147	1.18598
3529.27291	1.19403
3527.34434	1.20918
3525.41578	1.22365
3523.48721	1.23250
3521.55865	1.23937
3519.63008	1.24529
3517.70152	1.24972
3515.77295	1.25533
3513.84439	1.26408
3511.91583	1.27457
3509.98726	1.28349
3508.05870	1.28942
3506.13013	1.29560
3504.20157	1.30628
3502.27300	1.31972
3500.34444	1.33045
3498.41587	1.34079
3496.48731	1.35555
3494.55875	1.36821
3492.63018	1.37061
3490.70162	1.37121
3488.77305	1.37728
3486.84449	1.38409
3484.91592	1.38876
3482.98736	1.39333
3481.05879	1.39918
3479.13023	1.40549
3477.20167	1.40983
3475.27310	1.41185
3473.34454	1.41587
3471.41597	1.42202
3469.48741	1.42484
3467.55884	1.42579
3465.63028	1.43041
3463.70171	1.43763
3461.77315	1.44292
3459.84459	1.44552
3457.91602	1.44714
3455.98746	1.44719
3454.05889	1.44458
3452.13033	1.44377
3450.20176	1.44851
3448.27320	1.45406
3446.34464	1.46002
3444.41607	1.46850
3442.48751	1.47125
3440.55894	1.46831
3438.63038	1.46833
3436.70181	1.46861
3434.77325	1.46499
3432.84468	1.46144
3430.91612	1.46089
3428.98756	1.46128
3427.05899	1.45929
3425.13043	1.45655
3423.20186	1.45590
3421.27330	1.45350
3419.34473	1.44717
3417.41617	1.44373
3415.48760	1.44699
3413.55904	1.45212
3411.63048	1.45760
3409.70191	1.46636
3407.77335	1.47296
3405.84478	1.47232
3403.91622	1.46887
3401.98765	1.46675
3400.05909	1.46443
3398.13052	1.45974
3396.20196	1.45652
3394.27340	1.45815
3392.34483	1.46220
3390.41627	1.46603
3388.48770	1.46666
3386.55914	1.46402
3384.63057	1.46216
3382.70201	1.46122
3380.77344	1.46019
3378.84488	1.46020
3376.91632	1.46090
3374.98775	1.46143
3373.05919	1.46193
3371.13062	1.46421
3369.20206	1.46850
3367.27349	1.46907
3365.34493	1.46308
3363.41636	1.45931
3361.48780	1.46341
3359.55924	1.46790
3357.63067	1.46731
3355.70211	1.46677
3353.77354	1.47123
3351.84498	1.47702
3349.91641	1.47677
3347.98785	1.47319
3346.05928	1.47579
3344.13072	1.48416
3342.20216	1.49162
3340.27359	1.49479
3338.34503	1.49164
3336.41646	1.48633
3334.48790	1.48588
3332.55933	1.48794
3330.63077	1.48777
3328.70220	1.48502
3326.77364	1.48254
3324.84508	1.48462
3322.91651	1.48998
3320.98795	1.49347
3319.05938	1.49238
3317.13082	1.48779
3315.20225	1.48474
3313.27369	1.48639
3311.34513	1.49125
3309.41656	1.49591
3307.48800	1.49628
3305.55943	1.49355
3303.63087	1.49468
3301.70230	1.50143
3299.77374	1.50686
3297.84517	1.50517
3295.91661	1.49871
3293.98805	1.49360
3292.05948	1.49347
3290.13092	1.49584
3288.20235	1.49717
3286.27379	1.49942
3284.34522	1.50349
3282.41666	1.50585
3280.48809	1.50385
3278.55953	1.49762
3276.63097	1.49067
3274.70240	1.48505
3272.77384	1.47922
3270.84527	1.47494
3268.91671	1.47436
3266.98814	1.47508
3265.05958	1.47324
3263.13101	1.46728
3261.20245	1.45891
3259.27389	1.45110
3257.34532	1.44487
3255.41676	1.43881
3253.48819	1.43532
3251.55963	1.43583
3249.63106	1.43379
3247.70250	1.42745
3245.77393	1.42069
3243.84537	1.41406
3241.91681	1.40975
3239.98824	1.40812
3238.05968	1.40420
3236.13111	1.39953
3234.20255	1.39876
3232.27398	1.39720
3230.34542	1.39080
3228.41685	1.38365
3226.48829	1.37923
3224.55973	1.37665
3222.63116	1.37210
3220.70260	1.36390
3218.77403	1.35564
3216.84547	1.35152
3214.91690	1.35207
3212.98834	1.35417
3211.05977	1.35393
3209.13121	1.35119
3207.20265	1.34801
3205.27408	1.34418
3203.34552	1.33959
3201.41695	1.33504
3199.48839	1.32949
3197.55982	1.32285
3195.63126	1.31692
3193.70269	1.31294
3191.77413	1.31073
3189.84557	1.30884
3187.91700	1.30648
3185.98844	1.30288
3184.05987	1.29732
3182.13131	1.29127
3180.20274	1.28551
3178.27418	1.27993
3176.34562	1.27610
3174.41705	1.27339
3172.48849	1.26933
3170.55992	1.26498
3168.63136	1.26252
3166.70279	1.26100
3164.77423	1.25840
3162.84566	1.25432
3160.91710	1.24977
3158.98854	1.24617
3157.05997	1.24323
3155.13141	1.23982
3153.20284	1.23771
3151.27428	1.23812
3149.34571	1.23787
3147.41715	1.23513
3145.48858	1.23155
3143.56002	1.22777
3141.63146	1.22360
3139.70289	1.22040
3137.77433	1.21929
3135.84576	1.21722
3133.91720	1.21219
3131.98863	1.20959
3130.06007	1.21083
3128.13150	1.21037
3126.20294	1.20775
3124.27438	1.20492
3122.34581	1.20103
3120.41725	1.19735
3118.48868	1.19599
3116.56012	1.19680
3114.63155	1.19858
3112.70299	1.19989
3110.77442	1.19974
3108.84586	1.19715
3106.91730	1.19311
3104.98873	1.19086
3103.06017	1.19057
3101.13160	1.19105
3099.20304	1.19270
3097.27447	1.19471
3095.34591	1.19541
3093.41734	1.19387
3091.48878	1.19185
3089.56022	1.19131
3087.63165	1.19050
3085.70309	1.18807
3083.77452	1.18501
3081.84596	1.18286
3079.91739	1.18228
3077.98883	1.18193
3076.06026	1.18068
3074.13170	1.17751
3072.20314	1.17210
3070.27457	1.16754
3068.34601	1.16567
3066.41744	1.16451
3064.48888	1.16232
3062.56031	1.15860
3060.63175	1.15350
3058.70318	1.14781
3056.77462	1.14144
3054.84606	1.13405
3052.91749	1.12782
3050.98893	1.12449
3049.06036	1.12151
3047.13180	1.11630
3045.20323	1.10993
3043.27467	1.10481
3041.34610	1.10215
3039.41754	1.10079
3037.48898	1.09837
3035.56041	1.09438
3033.63185	1.09048
3031.70328	1.08732
3029.77472	1.08422
3027.84615	1.08157
3025.91759	1.07966
3023.98903	1.07778
3022.06046	1.07612
3020.13190	1.07544
3018.20333	1.07493
3016.27477	1.07340
3014.34620	1.07142
3012.41764	1.06917
3010.48907	1.06600
3008.56051	1.06288
3006.63195	1.06004
3004.70338	1.05690
3002.77482	1.05472
3000.84625	1.05393
2998.91769	1.05394
2996.98912	1.05447
2995.06056	1.05397
2993.13199	1.05328
2991.20343	1.05561
2989.27487	1.05982
2987.34630	1.06340
2985.41774	1.06750
2983.48917	1.07325
2981.56061	1.07943
2979.63204	1.08496
2977.70348	1.09070
2975.77491	1.09757
2973.84635	1.10456
2971.91779	1.11125
2969.98922	1.11881
2968.06066	1.12637
2966.13209	1.13223
2964.20353	1.13755
2962.27496	1.14306
2960.34640	1.14594
2958.41783	1.14453
2956.48927	1.14075
2954.56071	1.13618
2952.63214	1.13159
2950.70358	1.12895
2948.77501	1.12860
2946.84645	1.12914
2944.91788	1.13089
2942.98932	1.13508
2941.06075	1.14186
2939.13219	1.14983
2937.20363	1.15710
2935.27506	1.16328
2933.34650	1.16809
2931.41793	1.17096
2929.48937	1.17236
2927.56080	1.17312
2925.63224	1.17467
2923.70367	1.17693
2921.77511	1.17703
2919.84655	1.17456
2917.91798	1.16942
2915.98942	1.15744
2914.06085	1.13866
2912.13229	1.11903
2910.20372	1.10264
2908.27516	1.09003
2906.34659	1.07972
2904.41803	1.07077
2902.48947	1.06426
2900.56090	1.06006
2898.63234	1.05660
2896.70377	1.05437
2894.77521	1.05356
2892.84664	1.05217
2890.91808	1.04920
2888.98952	1.04535
2887.06095	1.04230
2885.13239	1.04082
2883.20382	1.04088
2881.27526	1.04276
2879.34669	1.04446
2877.41813	1.04366
2875.48956	1.04132
2873.56100	1.03842
2871.63244	1.03359
2869.70387	1.02555
2867.77531	1.01595
2865.84674	1.00803
2863.91818	1.00282
2861.98961	0.99929
2860.06105	0.99696
2858.13248	0.99668
2856.20392	0.99917
2854.27536	1.00352
2852.34679	1.00770
2850.41823	1.00813
2848.48966	0.99905
2846.56110	0.98013
2844.63253	0.95926
2842.70397	0.94223
2840.77540	0.92961
2838.84684	0.92103
2836.91828	0.91551
2834.98971	0.91201
2833.06115	0.91011
2831.13258	0.90845
2829.20402	0.90583
2827.27545	0.90275
2825.34689	0.90025
2823.41832	0.89884
2821.48976	0.89802
2819.56120	0.89674
2817.63263	0.89437
2815.70407	0.89145
2813.77550	0.88903
2811.84694	0.88690
2809.91837	0.88435
2807.98981	0.88122
2806.06124	0.87769
2804.13268	0.87475
2802.20412	0.87273
2800.27555	0.87056
2798.34699	0.86810
2796.41842	0.86582
2794.48986	0.86270
2792.56129	0.85806
2790.63273	0.85301
2788.70416	0.84907
2786.77560	0.84673
2784.84704	0.84490
2782.91847	0.84243
2780.98991	0.83944
2779.06134	0.83637
2777.13278	0.83314
2775.20421	0.82986
2773.27565	0.82732
2771.34708	0.82612
2769.41852	0.82527
2767.48996	0.82373
2765.56139	0.82224
2763.63283	0.82127
2761.70426	0.81991
2759.77570	0.81821
2757.84713	0.81705
2755.91857	0.81622
2753.99001	0.81517
2752.06144	0.81384
2750.13288	0.81191
2748.20431	0.80927
2746.27575	0.80683
2744.34718	0.80473
2742.41862	0.80214
2740.49005	0.79909
2738.56149	0.79641
2736.63293	0.79419
2734.70436	0.79151
2732.77580	0.78772
2730.84723	0.78330
2728.91867	0.77938
2726.99010	0.77630
2725.06154	0.77312
2723.13297	0.76955
2721.20441	0.76645
2719.27585	0.76390
2717.34728	0.76128
2715.41872	0.75862
2713.49015	0.75646
2711.56159	0.75472
2709.63302	0.75307
2707.70446	0.75185
2705.77589	0.75114
2703.84733	0.75072
2701.91877	0.75063
2699.99020	0.75045
2698.06164	0.75007
2696.13307	0.75017
2694.20451	0.75086
2692.27594	0.75146
2690.34738	0.75170
2688.41881	0.75206
2686.49025	0.75285
2684.56169	0.75357
2682.63312	0.75396
2680.70456	0.75428
2678.77599	0.75431
2676.84743	0.75391
2674.91886	0.75319
2672.99030	0.75205
2671.06173	0.75059
2669.13317	0.74889
2667.20461	0.74683
2665.27604	0.74508
2663.34748	0.74389
2661.41891	0.74225
2659.49035	0.73996
2657.56178	0.73789
2655.63322	0.73623
2653.70465	0.73452
2651.77609	0.73251
2649.84753	0.73062
2647.91896	0.72925
2645.99040	0.72793
2644.06183	0.72668
2642.13327	0.72620
2640.20470	0.72614
2638.27614	0.72562
2636.34757	0.72478
2634.41901	0.72437
2632.49045	0.72437
2630.56188	0.72410
2628.63332	0.72363
2626.70475	0.72337
2624.77619	0.72302
2622.84762	0.72206
2620.91906	0.72044
2618.99049	0.71897
2617.06193	0.71833
2615.13337	0.71765
2613.20480	0.71583
2611.27624	0.71306
2609.34767	0.71009
2607.41911	0.70740
2605.49054	0.70479
2603.56198	0.70187
2601.63342	0.69864
2599.70485	0.69519
2597.77629	0.69173
2595.84772	0.68839
2593.91916	0.68524
2591.99059	0.68246
2590.06203	0.67982
2588.13346	0.67701
2586.20490	0.67427
2584.27634	0.67158
2582.34777	0.66890
2580.41921	0.66636
2578.49064	0.66397
2576.56208	0.66181
2574.63351	0.66011
2572.70495	0.65883
2570.77638	0.65755
2568.84782	0.65612
2566.91926	0.65488
2564.99069	0.65426
2563.06213	0.65410
2561.13356	0.65390
2559.20500	0.65378
2557.27643	0.65409
2555.34787	0.65452
2553.41930	0.65456
2551.49074	0.65426
2549.56218	0.65394
2547.63361	0.65366
2545.70505	0.65343
2543.77648	0.65358
2541.84792	0.65407
2539.91935	0.65439
2537.99079	0.65431
2536.06222	0.65415
2534.13366	0.65389
2532.20510	0.65324
2530.27653	0.65238
2528.34797	0.65170
2526.41940	0.65115
2524.49084	0.65058
2522.56227	0.64993
2520.63371	0.64906
2518.70514	0.64821
2516.77658	0.64776
2514.84802	0.64750
2512.91945	0.64703
2510.99089	0.64638
2509.06232	0.64568
2507.13376	0.64503
2505.20519	0.64436
2503.27663	0.64358
2501.34806	0.64294
2499.41950	0.64261
2497.49094	0.64221
2495.56237	0.64134
2493.63381	0.64030
2491.70524	0.63952
2489.77668	0.63877
2487.84811	0.63774
2485.91955	0.63672
2483.99098	0.63589
2482.06242	0.63480
2480.13386	0.63318
2478.20529	0.63140
2476.27673	0.62979
2474.34816	0.62827
2472.41960	0.62702
2470.49103	0.62602
2468.56247	0.62478
2466.63391	0.62325
2464.70534	0.62150
2462.77678	0.61950
2460.84821	0.61749
2458.91965	0.61564
2456.99108	0.61374
2455.06252	0.61157
2453.13395	0.60937
2451.20539	0.60745
2449.27683	0.60556
2447.34826	0.60337
2445.41970	0.60102
2443.49113	0.59863
2441.56257	0.59629
2439.63400	0.59423
2437.70544	0.59239
2435.77687	0.59053
2433.84831	0.58887
2431.91975	0.58769
2429.99118	0.58679
2428.06262	0.58577
2426.13405	0.58486
2424.20549	0.58467
2422.27692	0.58498
2420.34836	0.58519
2418.41979	0.58539
2416.49123	0.58572
2414.56267	0.58606
2412.63410	0.58663
2410.70554	0.58746
2408.77697	0.58834
2406.84841	0.58930
2404.91984	0.59023
2402.99128	0.59099
2401.06271	0.59169
2399.13415	0.59246
2397.20559	0.59310
2395.27702	0.59336
2393.34846	0.59341
2391.41989	0.59358
2389.49133	0.59388
2387.56276	0.59410
2385.63420	0.59427
2383.70563	0.59464
2381.77707	0.59544
2379.84851	0.59658
2377.91994	0.59752
2375.99138	0.59807
2374.06281	0.59869
2372.13425	0.59971
2370.20568	0.60094
2368.27712	0.60185
2366.34855	0.60202
2364.41999	0.60146
2362.49143	0.60021
2360.56286	0.59840
2358.63430	0.59765
2356.70573	0.59819
2354.77717	0.59679
2352.84860	0.59358
2350.92004	0.59170
2348.99147	0.59180
2347.06291	0.59299
2345.13435	0.59382
2343.20578	0.59326
2341.27722	0.59313
2339.34865	0.59409
2337.42009	0.59468
2335.49152	0.59462
2333.56296	0.59497
2331.63440	0.59641
2329.70583	0.59749
2327.77727	0.59648
2325.84870	0.59486
2323.92014	0.59415
2321.99157	0.59352
2320.06301	0.59251
2318.13444	0.59158
2316.20588	0.59067
2314.27732	0.58963
2312.34875	0.58853
2310.42019	0.58721
2308.49162	0.58566
2306.56306	0.58415
2304.63449	0.58264
2302.70593	0.58102
2300.77736	0.57940
2298.84880	0.57800
2296.92024	0.57676
2294.99167	0.57524
2293.06311	0.57347
2291.13454	0.57214
2289.20598	0.57146
2287.27741	0.57092
2285.34885	0.57031
2283.42028	0.56994
2281.49172	0.56993
2279.56316	0.57018
2277.63459	0.57082
2275.70603	0.57188
2273.77746	0.57305
2271.84890	0.57410
2269.92033	0.57515
2267.99177	0.57654
2266.06320	0.57810
2264.13464	0.57946
2262.20608	0.58064
2260.27751	0.58166
2258.34895	0.58244
2256.42038	0.58322
2254.49182	0.58399
2252.56325	0.58444
2250.63469	0.58471
2248.70612	0.58498
2246.77756	0.58497
2244.84900	0.58446
2242.92043	0.58340
2240.99187	0.58203
2239.06330	0.58064
2237.13474	0.57923
2235.20617	0.57782
2233.27761	0.57648
2231.34904	0.57505
2229.42048	0.57348
2227.49192	0.57196
2225.56335	0.57072
2223.63479	0.56984
2221.70622	0.56922
2219.77766	0.56859
2217.84909	0.56790
2215.92053	0.56749
2213.99196	0.56762
2212.06340	0.56820
2210.13484	0.56893
2208.20627	0.56959
2206.27771	0.57027
2204.34914	0.57105
2202.42058	0.57214
2200.49201	0.57366
2198.56345	0.57540
2196.63488	0.57714
2194.70632	0.57892
2192.77776	0.58076
2190.84919	0.58259
2188.92063	0.58416
2186.99206	0.58535
2185.06350	0.58643
2183.13493	0.58752
2181.20637	0.58821
2179.27781	0.58833
2177.34924	0.58803
2175.42068	0.58740
2173.49211	0.58654
2171.56355	0.58556
2169.63498	0.58433
2167.70642	0.58272
2165.77785	0.58083
2163.84929	0.57884
2161.92073	0.57692
2159.99216	0.57491
2158.06360	0.57254
2156.13503	0.57008
2154.20647	0.56792
2152.27790	0.56606
2150.34934	0.56456
2148.42077	0.56343
2146.49221	0.56255
2144.56365	0.56185
2142.63508	0.56130
2140.70652	0.56094
2138.77795	0.56081
2136.84939	0.56097
2134.92082	0.56147
2132.99226	0.56218
2131.06369	0.56292
2129.13513	0.56354
2127.20657	0.56392
2125.27800	0.56421
2123.34944	0.56459
2121.42087	0.56506
2119.49231	0.56539
2117.56374	0.56542
2115.63518	0.56515
2113.70661	0.56466
2111.77805	0.56407
2109.84949	0.56350
2107.92092	0.56289
2105.99236	0.56193
2104.06379	0.56041
2102.13523	0.55849
2100.20666	0.55660
2098.27810	0.55494
2096.34953	0.55328
2094.42097	0.55150
2092.49241	0.54968
2090.56384	0.54775
2088.63528	0.54570
2086.70671	0.54378
2084.77815	0.54217
2082.84958	0.54073
2080.92102	0.53936
2078.99245	0.53820
2077.06389	0.53736
2075.13533	0.53685
2073.20676	0.53668
2071.27820	0.53676
2069.34963	0.53716
2067.42107	0.53808
2065.49250	0.53922
2063.56394	0.54022
2061.63537	0.54124
2059.70681	0.54240
2057.77825	0.54352
2055.84968	0.54446
2053.92112	0.54525
2051.99255	0.54588
2050.06399	0.54637
2048.13542	0.54674
2046.20686	0.54696
2044.27830	0.54686
2042.34973	0.54619
2040.42117	0.54484
2038.49260	0.54309
2036.56404	0.54125
2034.63547	0.53922
2032.70691	0.53678
2030.77834	0.53400
2028.84978	0.53103
2026.92122	0.52785
2024.99265	0.52451
2023.06409	0.52116
2021.13552	0.51776
2019.20696	0.51432
2017.27839	0.51087
2015.34983	0.50754
2013.42126	0.50458
2011.49270	0.50201
2009.56414	0.49976
2007.63557	0.49779
2005.70701	0.49600
2003.77844	0.49436
2001.84988	0.49297
1999.92131	0.49197
1997.99275	0.49106
1996.06418	0.49014
1994.13562	0.48973
1992.20706	0.48987
1990.27849	0.48983
1988.34993	0.48948
1986.42136	0.48905
1984.49280	0.48855
1982.56423	0.48811
1980.63567	0.48778
1978.70710	0.48727
1976.77854	0.48644
1974.84998	0.48552
1972.92141	0.48459
1970.99285	0.48372
1969.06428	0.48297
1967.13572	0.48187
1965.20715	0.48007
1963.27859	0.47807
1961.35002	0.47626
1959.42146	0.47445
1957.49290	0.47251
1955.56433	0.47055
1953.63577	0.46868
1951.70720	0.46677
1949.77864	0.46493
1947.85007	0.46349
1945.92151	0.46246
1943.99294	0.46160
1942.06438	0.46069
1940.13582	0.45994
1938.20725	0.45957
1936.27869	0.45959
1934.35012	0.45990
1932.42156	0.46036
1930.49299	0.46101
1928.56443	0.46193
1926.63586	0.46310
1924.70730	0.46454
1922.77874	0.46601
1920.85017	0.46713
1918.92161	0.46808
1916.99304	0.46891
1915.06448	0.46937
1913.13591	0.46974
1911.20735	0.47024
1909.27878	0.47056
1907.35022	0.47040
1905.42166	0.46997
1903.49309	0.46936
1901.56453	0.46843
1899.63596	0.46731
1897.70740	0.46630
1895.77883	0.46527
1893.85027	0.46387
1891.92171	0.46231
1889.99314	0.46063
1888.06458	0.45864
1886.13601	0.45668
1884.20745	0.45492
1882.27888	0.45323
1880.35032	0.45147
1878.42175	0.44966
1876.49319	0.44803
1874.56463	0.44676
1872.63606	0.44615
1870.70750	0.44626
1868.77893	0.44638
1866.85037	0.44577
1864.92180	0.44504
1862.99324	0.44466
1861.06467	0.44454
1859.13611	0.44461
1857.20755	0.44479
1855.27898	0.44504
1853.35042	0.44544
1851.42185	0.44611
1849.49329	0.44692
1847.56472	0.44771
1845.63616	0.44839
1843.70759	0.44852
1841.77903	0.44815
1839.85047	0.44799
1837.92190	0.44810
1835.99334	0.44817
1834.06477	0.44815
1832.13621	0.44831
1830.20764	0.44850
1828.27908	0.44841
1826.35051	0.44826
1824.42195	0.44804
1822.49339	0.44775
1820.56482	0.44776
1818.63626	0.44821
1816.70769	0.44880
1814.77913	0.44951
1812.85056	0.45064
1810.92200	0.45210
1808.99343	0.45334
1807.06487	0.45448
1805.13631	0.45594
1803.20774	0.45784
1801.27918	0.46023
1799.35061	0.46260
1797.42205	0.46463
1795.49348	0.46663
1793.56492	0.46913
1791.63635	0.47204
1789.70779	0.47415
1787.77923	0.47600
1785.85066	0.47837
1783.92210	0.48102
1781.99353	0.48385
1780.06497	0.48696
1778.13640	0.48987
1776.20784	0.49245
1774.27927	0.49550
1772.35071	0.49922
1770.42215	0.50174
1768.49358	0.50316
1766.56502	0.50482
1764.63645	0.50688
1762.70789	0.50950
1760.77932	0.51242
1758.85076	0.51502
1756.92220	0.51800
1754.99363	0.52128
1753.06507	0.52492
1751.13650	0.53022
1749.20794	0.53678
1747.27937	0.54248
1745.35081	0.54766
1743.42224	0.55320
1741.49368	0.55923
1739.56512	0.56558
1737.63655	0.57094
1735.70799	0.57619
1733.77942	0.58460
1731.85086	0.59244
1729.92229	0.59848
1727.99373	0.60515
1726.06516	0.61260
1724.13660	0.62147
1722.20804	0.63036
1720.27947	0.63842
1718.35091	0.64945
1716.42234	0.66569
1714.49378	0.67798
1712.56521	0.68737
1710.63665	0.69832
1708.70808	0.71224
1706.77952	0.73313
1704.85096	0.76086
1702.92239	0.78698
1700.99383	0.82546
1699.06526	0.88865
1697.13670	0.95056
1695.20813	1.01216
1693.27957	1.05855
1691.35100	1.09649
1689.42244	1.14310
1687.49388	1.18742
1685.56531	1.23164
1683.63675	1.29662
1681.70818	1.34195
1679.77962	1.36719
1677.85105	1.39081
1675.92249	1.41707
1673.99392	1.44151
1672.06536	1.45835
1670.13680	1.47268
1668.20823	1.48345
1666.27967	1.48696
1664.35110	1.49054
1662.42254	1.49396
1660.49397	1.49320
1658.56541	1.49240
1656.63684	1.49232
1654.70828	1.49269
1652.77972	1.48591
1650.85115	1.47697
1648.92259	1.47106
1646.99402	1.46282
1645.06546	1.45750
1643.13689	1.45535
1641.20833	1.45412
1639.27976	1.45232
1637.35120	1.44769
1635.42264	1.43589
1633.49407	1.42355
1631.56551	1.41425
1629.63694	1.40273
1627.70838	1.38862
1625.77981	1.37462
1623.85125	1.35763
1621.92269	1.33742
1619.99412	1.32158
1618.06556	1.30326
1616.13699	1.27392
1614.20843	1.25082
1612.27986	1.23463
1610.35130	1.21742
1608.42273	1.19908
1606.49417	1.18329
1604.56561	1.17200
1602.63704	1.16399
1600.70848	1.15850
1598.77991	1.15585
1596.85135	1.15581
1594.92278	1.15682
1592.99422	1.15854
1591.06565	1.16235
1589.13709	1.16864
1587.20853	1.17736
1585.27996	1.18791
1583.35140	1.19970
1581.42283	1.21212
1579.49427	1.22406
1577.56570	1.23779
1575.63714	1.25550
1573.70857	1.26768
1571.78001	1.27606
1569.85145	1.28796
1567.92288	1.30062
1565.99432	1.31046
1564.06575	1.32021
1562.13719	1.32816
1560.20862	1.33592
1558.28006	1.34497
1556.35149	1.34467
1554.42293	1.34002
1552.49437	1.33386
1550.56580	1.32760
1548.63724	1.32151
1546.70867	1.31650
1544.78011	1.31160
1542.85154	1.30651
1540.92298	1.29547
1538.99441	1.27774
1537.06585	1.27184
1535.13729	1.26820
1533.20872	1.25853
1531.28016	1.24741
1529.35159	1.24052
1527.42303	1.23376
1525.49446	1.22481
1523.56590	1.21599
1521.63733	1.20802
1519.70877	1.20287
1517.78021	1.19382
1515.85164	1.17688
1513.92308	1.15968
1511.99451	1.14442
1510.06595	1.13078
1508.13738	1.11104
1506.20882	1.07219
1504.28025	1.05112
1502.35169	1.04000
1500.42313	1.02778
1498.49456	1.01155
1496.56600	0.99183
1494.63743	0.97751
1492.70887	0.96962
1490.78030	0.96226
1488.85174	0.95233
1486.92317	0.94538
1484.99461	0.94346
1483.06605	0.94514
1481.13748	0.94974
1479.20892	0.95663
1477.28035	0.96657
1475.35179	0.98072
1473.42322	1.00032
1471.49466	1.01918
1469.56610	1.02897
1467.63753	1.03546
1465.70897	1.04266
1463.78040	1.04897
1461.85184	1.05258
1459.92327	1.05576
1457.99471	1.06061
1456.06614	1.06296
1454.13758	1.06093
1452.20902	1.05775
1450.28045	1.05357
1448.35189	1.04808
1446.42332	1.04184
1444.49476	1.03574
1442.56619	1.02959
1440.63763	1.02385
1438.70906	1.01797
1436.78050	1.00942
1434.85194	1.00028
1432.92337	0.99383
1430.99481	0.98863
1429.06624	0.98479
1427.13768	0.98398
1425.20911	0.98692
1423.28055	0.99282
1421.35198	0.99981
1419.42342	1.00898
1417.49486	1.01801
1415.56629	1.02322
1413.63773	1.02802
1411.70916	1.03342
1409.78060	1.03832
1407.85203	1.04245
1405.92347	1.04679
1403.99490	1.05126
1402.06634	1.05473
1400.13778	1.05736
1398.20921	1.05928
1396.28065	1.06005
1394.35208	1.05979
1392.42352	1.05977
1390.49495	1.06058
1388.56639	1.06297
1386.63782	1.06788
1384.70926	1.07365
1382.78070	1.07849
1380.85213	1.08091
1378.92357	1.07956
1376.99500	1.07426
1375.06644	1.06385
1373.13787	1.04923
1371.20931	1.03521
1369.28074	1.02110
1367.35218	1.00619
1365.42362	0.99358
1363.49505	0.98317
1361.56649	0.97449
1359.63792	0.96919
1357.70936	0.96692
1355.78079	0.96662
1353.85223	0.96706
1351.92366	0.96710
1349.99510	0.96665
1348.06654	0.96639
1346.13797	0.96666
1344.20941	0.96707
1342.28084	0.96711
1340.35228	0.96648
1338.42371	0.96478
1336.49515	0.96300
1334.56659	0.96250
1332.63802	0.96325
1330.70946	0.96437
1328.78089	0.96440
1326.85233	0.96218
1324.92376	0.95860
1322.99520	0.95545
1321.06663	0.95330
1319.13807	0.95169
1317.20951	0.95017
1315.28094	0.94855
1313.35238	0.94693
1311.42381	0.94568
1309.49525	0.94496
1307.56668	0.94462
1305.63812	0.94471
1303.70955	0.94564
1301.78099	0.94718
1299.85243	0.94841
1297.92386	0.94890
1295.99530	0.94932
1294.06673	0.95080
1292.13817	0.95412
1290.20960	0.95920
1288.28104	0.96530
1286.35247	0.97180
1284.42391	0.97827
1282.49535	0.98446
1280.56678	0.99051
1278.63822	0.99695
1276.70965	1.00422
1274.78109	1.01218
1272.85252	1.02024
1270.92396	1.02769
1268.99539	1.03453
1267.06683	1.04084
1265.13827	1.04580
1263.20970	1.04881
1261.28114	1.04981
1259.35257	1.04882
1257.42401	1.04695
1255.49544	1.04550
1253.56688	1.04424
1251.63831	1.04264
1249.70975	1.04094
1247.78119	1.03933
1245.85262	1.03784
1243.92406	1.03657
1241.99549	1.03537
1240.06693	1.03371
1238.13836	1.03151
1236.20980	1.02929
1234.28123	1.02735
1232.35267	1.02553
1230.42411	1.02356
1228.49554	1.02124
1226.56698	1.01859
1224.63841	1.01553
1222.70985	1.01205
1220.78128	1.00831
1218.85272	1.00449
1216.92415	1.00091
1214.99559	0.99795
1213.06703	0.99536
1211.13846	0.99258
1209.20990	0.98916
1207.28133	0.98386
1205.35277	0.97520
1203.42420	0.96227
1201.49564	0.94573
1199.56708	0.92769
1197.63851	0.90961
1195.70995	0.89216
1193.78138	0.87641
1191.85282	0.86325
1189.92425	0.85274
1187.99569	0.84477
1186.06712	0.83951
1184.13856	0.83693
1182.21000	0.83695
1180.28143	0.84026
1178.35287	0.84753
1176.42430	0.85822
1174.49574	0.87144
1172.56717	0.88713
1170.63861	0.90582
1168.71004	0.92828
1166.78148	0.95467
1164.85292	0.98369
1162.92435	1.01280
1160.99579	1.03848
1159.06722	1.05736
1157.13866	1.06762
1155.21009	1.06914
1153.28153	1.06356
1151.35296	1.05347
1149.42440	1.04076
1147.49584	1.02665
1145.56727	1.01296
1143.63871	1.00184
1141.71014	0.99422
1139.78158	0.98988
1137.85301	0.98793
1135.92445	0.98708
1133.99588	0.98765
1132.06732	0.99132
1130.13876	0.99847
1128.21019	1.00709
1126.28163	1.01502
1124.35306	1.02258
1122.42450	1.03057
1120.49593	1.03730
1118.56737	1.04075
1116.63880	1.04081
1114.71024	1.03840
1112.78168	1.03501
1110.85311	1.03223
1108.92455	1.03058
1106.99598	1.03023
1105.06742	1.03229
1103.13885	1.03793
1101.21029	1.04705
1099.28172	1.05893
1097.35316	1.07365
1095.42460	1.09187
1093.49603	1.11316
1091.56747	1.13616
1089.63890	1.15939
1087.71034	1.18084
1085.78177	1.19887
1083.85321	1.21233
1081.92464	1.22027
1079.99608	1.22314
1078.06752	1.22157
1076.13895	1.21565
1074.21039	1.20629
1072.28182	1.19514
1070.35326	1.18323
1068.42469	1.16986
1066.49613	1.15424
1064.56756	1.13754
1062.63900	1.12121
1060.71044	1.10531
1058.78187	1.08968
1056.85331	1.07491
1054.92474	1.06180
1052.99618	1.05122
1051.06761	1.04420
1049.13905	1.04085
1047.21049	1.04090
1045.28192	1.04493
1043.35336	1.05322
1041.42479	1.06427
1039.49623	1.07565
1037.56766	1.08638
1035.63910	1.09633
1033.71053	1.10460
1031.78197	1.11035
1029.85341	1.11341
1027.92484	1.11364
1025.99628	1.11071
1024.06771	1.10498
1022.13915	1.09764
1020.21058	1.08943
1018.28202	1.08045
1016.35345	1.07001
1014.42489	1.05572
1012.49633	1.03544
1010.56776	1.00984
1008.63920	0.98089
1006.71063	0.95059
1004.78207	0.92097
1002.85350	0.89339
1000.92494	0.86824
998.99637	0.84570
997.06781	0.82598
995.13925	0.80852
993.21068	0.79212
991.28212	0.77555
989.35355	0.75838
987.42499	0.74130
985.49642	0.72543
983.56786	0.71227
981.63929	0.70308
979.71073	0.69775
977.78217	0.69518
975.85360	0.69410
973.92504	0.69352
971.99647	0.69271
970.06791	0.69167
968.13934	0.69172
966.21078	0.69456
964.28221	0.70143
962.35365	0.71353
960.42509	0.73171
958.49652	0.75456
956.56796	0.77685
954.63939	0.79315
952.71083	0.80307
950.78226	0.80967
948.85370	0.81529
946.92513	0.82121
944.99657	0.82784
943.06801	0.83429
941.13944	0.83930
939.21088	0.84175
937.28231	0.84082
935.35375	0.83690
933.42518	0.83121
931.49662	0.82465
929.56805	0.81757
927.63949	0.81019
925.71093	0.80311
923.78236	0.79713
921.85380	0.79262
919.92523	0.78937
917.99667	0.78696
916.06810	0.78563
914.13954	0.78614
912.21098	0.78888
910.28241	0.79355
908.35385	0.79977
906.42528	0.80745
904.49672	0.81631
902.56815	0.82527
900.63959	0.83289
898.71102	0.83803
896.78246	0.84032
894.85390	0.84000
892.92533	0.83733
890.99677	0.83241
889.06820	0.82512
887.13964	0.81577
885.21107	0.80494
883.28251	0.79270
881.35394	0.77942
879.42538	0.76557
877.49682	0.75107
875.56825	0.73615
873.63969	0.72139
871.71112	0.70734
869.78256	0.69460
867.85399	0.68372
865.92543	0.67522
863.99686	0.66915
862.06830	0.66523
860.13974	0.66358
858.21117	0.66442
856.28261	0.66740
854.35404	0.67224
852.42548	0.67904
850.49691	0.68753
848.56835	0.69712
846.63978	0.70774
844.71122	0.71984
842.78266	0.73355
840.85409	0.74835
838.92553	0.76394
836.99696	0.78051
835.06840	0.79809
833.13983	0.81673
831.21127	0.83623
829.28270	0.85606
827.35414	0.87590
825.42558	0.89520
823.49701	0.91310
821.56845	0.92953
819.63988	0.94497
817.71132	0.95902
815.78275	0.97008
813.85419	0.97651
811.92562	0.97847
809.99706	0.97710
808.06850	0.97230
806.13993	0.96410
804.21137	0.95353
802.28280	0.94175
800.35424	0.92979
798.42567	0.91823
796.49711	0.90777
794.56854	0.89945
792.63998	0.89477
790.71142	0.89456
788.78285	0.89733
786.85429	0.90148
784.92572	0.90731
782.99716	0.91544
781.06859	0.92584
779.14003	0.93775
777.21147	0.94989
775.28290	0.96136
773.35434	0.97179
771.42577	0.98133
769.49721	0.98991
767.56864	0.99619
765.64008	0.99880
763.71151	0.99779
761.78295	0.99404
759.85439	0.98849
757.92582	0.98099
755.99726	0.97025
754.06869	0.95571
752.14013	0.93874
750.21156	0.92108
748.28300	0.90331
746.35443	0.88591
744.42587	0.86942
742.49731	0.85378
740.56874	0.83942
738.64018	0.82743
736.71161	0.81827
734.78305	0.81170
732.85448	0.80798
730.92592	0.80766
728.99735	0.80969
727.06879	0.81295
725.14023	0.81861
723.21166	0.82755
721.28310	0.83930
719.35453	0.85268
717.42597	0.86633
715.49740	0.88066
713.56884	0.89711
711.64027	0.91616
709.71171	0.93713
707.78315	0.95843
705.85458	0.97903
703.92602	0.99858
701.99745	1.01632
700.06889	1.03242
698.14032	1.04788
696.21176	1.06159
694.28319	1.07158
692.35463	1.07775
690.42607	1.07968
688.49750	1.07689
686.56894	1.07019
684.64037	1.06138
682.71181	1.05088
680.78324	1.03768
678.85468	1.02201
676.92611	1.00505
674.99755	0.98823
673.06899	0.97345
671.14042	0.96125
669.21186	0.94691
667.28329	0.93135
665.35473	0.92461
663.42616	0.92149
661.49760	0.91998
659.56903	0.92189
657.64047	0.92608
655.71191	0.93122
653.78334	0.93911
651.85478	0.95073
649.92621	0.96536
647.99765	0.98297
646.06908	1.00253
644.14052	1.02271
642.21195	1.04230
640.28339	1.05931
638.35483	1.07275
636.42626	1.08290
634.49770	1.09091
632.56913	1.09641
630.64057	1.09611
628.71200	1.08866
626.78344	1.07458
624.85488	1.05569
622.92631	1.03544
620.99775	1.01447
619.06918	0.99077
617.14062	0.96357
615.21205	0.93589
613.28349	0.91004
611.35492	0.88619
609.42636	0.86492
607.49780	0.84631
605.56923	0.83125
603.64067	0.82092
601.71210	0.81427
599.78354	0.81063
