3997.91406	0.75667
3995.98550	0.75806
3994.05693	0.75712
3992.12837	0.75624
3990.19980	0.75725
3988.27124	0.75690
3986.34268	0.75438
3984.41411	0.75323
3982.48555	0.75386
3980.55698	0.75397
3978.62842	0.75382
3976.69985	0.75358
3974.77129	0.75322
3972.84272	0.75458
3970.91416	0.75633
3968.98560	0.75637
3967.05703	0.75551
3965.12847	0.75406
3963.19990	0.75242
3961.27134	0.75121
3959.34277	0.75012
3957.41421	0.74879
3955.48564	0.74793
3953.55708	0.74894
3951.62852	0.75065
3949.69995	0.75013
3947.77139	0.74761
3945.84282	0.74564
3943.91426	0.74468
3941.98569	0.74416
3940.05713	0.74392
3938.12856	0.74355
3936.20000	0.74279
3934.27144	0.74296
3932.34287	0.74547
3930.41431	0.74802
3928.48574	0.74866
3926.55718	0.74918
3924.62861	0.74926
3922.70005	0.74805
3920.77148	0.74733
3918.84292	0.74739
3916.91436	0.74701
3914.98579	0.74572
3913.05723	0.74375
3911.12866	0.74222
3909.20010	0.74196
3907.27153	0.74204
3905.34297	0.74125
3903.41440	0.74074
3901.48584	0.74229
3899.55728	0.74204
3897.62871	0.73804
3895.70015	0.73466
3893.77158	0.73391
3891.84302	0.73462
3889.91445	0.73548
3887.98589	0.73684
3886.05733	0.73905
3884.12876	0.74003
3882.20020	0.73870
3880.27163	0.73703
3878.34307	0.73683
3876.41450	0.73839
3874.48594	0.74105
3872.55737	0.74289
3870.62881	0.74285
3868.70025	0.74035
3866.77168	0.73676
3864.84312	0.73509
3862.91455	0.73588
3860.98599	0.73537
3859.05742	0.73375
3857.12886	0.73371
3855.20029	0.73776
3853.27173	0.74269
3851.34317	0.73829
3849.41460	0.73364
3847.48604	0.73171
3845.55747	0.73046
3843.62891	0.72945
3841.70034	0.72998
3839.77178	0.73183
3837.84321	0.73172
3835.91465	0.72895
3833.98609	0.72758
3832.05752	0.72782
3830.12896	0.72776
3828.20039	0.72762
3826.27183	0.72739
3824.34326	0.72616
3822.41470	0.72450
3820.48613	0.72343
3818.55757	0.72283
3816.62901	0.72256
3814.70044	0.72274
3812.77188	0.72272
3810.84331	0.72201
3808.91475	0.72154
3806.98618	0.72377
3805.05762	0.72756
3803.12905	0.73008
3801.20049	0.72995
3799.27193	0.72647
3797.34336	0.72324
3795.41480	0.72372
3793.48623	0.72696
3791.55767	0.72921
3789.62910	0.72924
3787.70054	0.72904
3785.77197	0.72943
3783.84341	0.72853
3781.91485	0.72782
3779.98628	0.72918
3778.05772	0.72953
3776.12915	0.72780
3774.20059	0.72675
3772.27202	0.72705
3770.34346	0.72678
3768.41489	0.72488
3766.48633	0.72339
3764.55777	0.72254
3762.62920	0.72141
3760.70064	0.72006
3758.77207	0.71902
3756.84351	0.71932
3754.91494	0.72197
3752.98638	0.72707
3751.05781	0.73030
3749.12925	0.72899
3747.20069	0.72980
3745.27212	0.73048
3743.34356	0.72810
3741.41499	0.72718
3739.48643	0.72811
3737.55786	0.72882
3735.62930	0.72760
3733.70074	0.72348
3731.77217	0.72000
3729.84361	0.71951
3727.91504	0.72066
3725.98648	0.72124
3724.05791	0.72014
3722.12935	0.71850
3720.20078	0.71739
3718.27222	0.71671
3716.34366	0.71644
3714.41509	0.71687
3712.48653	0.71802
3710.55796	0.71825
3708.62940	0.71683
3706.70083	0.71668
3704.77227	0.71829
3702.84370	0.71988
3700.91514	0.71968
3698.98658	0.71872
3697.05801	0.71886
3695.12945	0.71928
3693.20088	0.71812
3691.27232	0.71723
3689.34375	0.72243
3687.41519	0.72843
3685.48662	0.73002
3683.55806	0.73053
3681.62950	0.73074
3679.70093	0.73093
3677.77237	0.73242
3675.84380	0.73623
3673.91524	0.74069
3671.98667	0.74408
3670.05811	0.74806
3668.12954	0.75141
3666.20098	0.75346
3664.27242	0.75630
3662.34385	0.76064
3660.41529	0.76537
3658.48672	0.76963
3656.55816	0.77425
3654.62959	0.77882
3652.70103	0.78313
3650.77246	0.79016
3648.84390	0.79940
3646.91534	0.80234
3644.98677	0.80446
3643.05821	0.80865
3641.12964	0.81264
3639.20108	0.81594
3637.27251	0.82026
3635.34395	0.82564
3633.41538	0.83190
3631.48682	0.83871
3629.55826	0.84685
3627.62969	0.85617
3625.70113	0.86294
3623.77256	0.86710
3621.84400	0.87015
3619.91543	0.87514
3617.98687	0.88229
3616.05830	0.88915
3614.12974	0.89501
3612.20118	0.89770
3610.27261	0.90051
3608.34405	0.90900
3606.41548	0.91810
3604.48692	0.92197
3602.55835	0.92436
3600.62979	0.92838
3598.70123	0.93323
3596.77266	0.93808
3594.84410	0.94443
3592.91553	0.95168
3590.98697	0.95687
3589.05840	0.96155
3587.12984	0.96924
3585.20127	0.97651
3583.27271	0.98078
3581.34415	0.98432
3579.41558	0.98788
3577.48702	0.99221
3575.55845	0.99997
3573.62989	1.00910
3571.70132	1.01556
3569.77276	1.02182
3567.84419	1.03223
3565.91563	1.04150
3563.98707	1.04420
3562.05850	1.04585
3560.12994	1.04982
3558.20137	1.05707
3556.27281	1.06540
3554.34424	1.07201
3552.41568	1.07692
3550.48711	1.08131
3548.55855	1.08624
3546.62999	1.09314
3544.70142	1.10247
3542.77286	1.11073
3540.84429	1.11592
3538.91573	1.12027
3536.98716	1.12595
3535.05860	1.13240
3533.13003	1.13737
3531.20147	1.14065
3529.27291	1.14404
3527.34434	1.14893
3525.41578	1.15389
3523.48721	1.15775
3521.55865	1.16292
3519.63008	1.17056
3517.70152	1.17963
3515.77295	1.18782
3513.84439	1.19213
3511.91583	1.19530
3509.98726	1.20388
3508.05870	1.21604
3506.13013	1.22482
3504.20157	1.22980
3502.27300	1.23259
3500.34444	1.23555
3498.41587	1.24239
3496.48731	1.25222
3494.55875	1.26110
3492.63018	1.27036
3490.70162	1.28114
3488.77305	1.28757
3486.84449	1.28606
3484.91592	1.28189
3482.98736	1.28317
3481.05879	1.29041
3479.13023	1.29671
3477.20167	1.30008
3475.27310	1.29996
3473.34454	1.29897
3471.41597	1.30447
3469.48741	1.31460
3467.55884	1.31936
3465.63028	1.31653
3463.70171	1.31526
3461.77315	1.31974
3459.84459	1.32532
3457.91602	1.33041
3455.98746	1.33665
3454.05889	1.34391
3452.13033	1.35044
3450.20176	1.35519
3448.27320	1.35843
3446.34464	1.36055
3444.41607	1.36227
3442.48751	1.36379
3440.55894	1.36383
3438.63038	1.36104
3436.70181	1.35834
3434.77325	1.36142
3432.84468	1.36876
3430.91612	1.37319
3428.98756	1.37365
3427.05899	1.37278
3425.13043	1.37057
3423.20186	1.36907
3421.27330	1.37191
3419.34473	1.37540
3417.41617	1.37383
3415.48760	1.37124
3413.55904	1.37177
3411.63048	1.37230
3409.70191	1.37074
3407.77335	1.36817
3405.84478	1.36689
3403.91622	1.36906
3401.98765	1.37373
3400.05909	1.37763
3398.13052	1.37801
3396.20196	1.37616
3394.27340	1.37542
3392.34483	1.37675
3390.41627	1.37959
3388.48770	1.38308
3386.55914	1.38689
3384.63057	1.38972
3382.70201	1.38826
3380.77344	1.38305
3378.84488	1.38136
3376.91632	1.38621
3374.98775	1.38968
3373.05919	1.38700
3371.13062	1.38528
3369.20206	1.38966
3367.27349	1.39538
3365.34493	1.39670
3363.41636	1.39461
3361.48780	1.39420
3359.55924	1.39861
3357.63067	1.40476
3355.70211	1.40625
3353.77354	1.40238
3351.84498	1.39842
3349.91641	1.39556
3347.98785	1.39294
3346.05928	1.39401
3344.13072	1.39923
3342.20216	1.40400
3340.27359	1.40637
3338.34503	1.40764
3336.41646	1.40964
3334.48790	1.41387
3332.55933	1.41912
3330.63077	1.42264
3328.70220	1.42563
3326.77364	1.42757
3324.84508	1.42532
3322.91651	1.42543
3320.98795	1.43338
3319.05938	1.44309
3317.13082	1.45022
3315.20225	1.45288
3313.27369	1.44757
3311.34513	1.43994
3309.41656	1.44006
3307.48800	1.44843
3305.55943	1.45670
3303.63087	1.45888
3301.70230	1.45955
3299.77374	1.46522
3297.84517	1.47223
3295.91661	1.47416
3293.98805	1.47224
3292.05948	1.47069
3290.13092	1.47094
3288.20235	1.47196
3286.27379	1.47317
3284.34522	1.47465
3282.41666	1.47415
3280.48809	1.47059
3278.55953	1.46940
3276.63097	1.47339
3274.70240	1.47662
3272.77384	1.47682
3270.84527	1.47616
3268.91671	1.47129
3266.98814	1.46238
3265.05958	1.45552
3263.13101	1.45241
3261.20245	1.44925
3259.27389	1.44302
3257.34532	1.43704
3255.41676	1.43387
3253.48819	1.42981
3251.55963	1.42263
3249.63106	1.41494
3247.70250	1.40850
3245.77393	1.40120
3243.84537	1.39468
3241.91681	1.39125
3239.98824	1.38592
3238.05968	1.37797
3236.13111	1.37268
3234.20255	1.37068
3232.27398	1.36914
3230.34542	1.36559
3228.41685	1.35895
3226.48829	1.35138
3224.55973	1.34510
3222.63116	1.33992
3220.70260	1.33602
3218.77403	1.33268
3216.84547	1.32892
3214.91690	1.32603
3212.98834	1.32404
3211.05977	1.32158
3209.13121	1.31928
3207.20265	1.31767
3205.27408	1.31445
3203.34552	1.30928
3201.41695	1.30565
3199.48839	1.30382
3197.55982	1.29935
3195.63126	1.29115
3193.70269	1.28449
3191.77413	1.28099
3189.84557	1.27723
3187.91700	1.27341
3185.98844	1.26974
3184.05987	1.26394
3182.13131	1.25749
3180.20274	1.25344
3178.27418	1.25183
3176.34562	1.24996
3174.41705	1.24546
3172.48849	1.23973
3170.55992	1.23567
3168.63136	1.23363
3166.70279	1.23126
3164.77423	1.22640
3162.84566	1.21989
3160.91710	1.21404
3158.98854	1.20930
3157.05997	1.20481
3155.13141	1.20079
3153.20284	1.19700
3151.27428	1.19179
3149.34571	1.18540
3147.41715	1.18079
3145.48858	1.17998
3143.56002	1.18034
3141.63146	1.17821
3139.70289	1.17464
3137.77433	1.17172
3135.84576	1.16887
3133.91720	1.16602
3131.98863	1.16455
3130.06007	1.16345
3128.13150	1.16139
3126.20294	1.16044
3124.27438	1.16103
3122.34581	1.16097
3120.41725	1.15988
3118.48868	1.15861
3116.56012	1.15815
3114.63155	1.15879
3112.70299	1.15914
3110.77442	1.15797
3108.84586	1.15643
3106.91730	1.15672
3104.98873	1.15823
3103.06017	1.15794
3101.13160	1.15519
3099.20304	1.15236
3097.27447	1.15077
3095.34591	1.14998
3093.41734	1.14944
3091.48878	1.14818
3089.56022	1.14627
3087.63165	1.14517
3085.70309	1.14424
3083.77452	1.14220
3081.84596	1.14036
3079.91739	1.13907
3077.98883	1.13719
3076.06026	1.13563
3074.13170	1.13465
3072.20314	1.13183
3070.27457	1.12693
3068.34601	1.12250
3066.41744	1.11958
3064.48888	1.11790
3062.56031	1.11636
3060.63175	1.11291
3058.70318	1.10733
3056.77462	1.10084
3054.84606	1.09404
3052.91749	1.08898
3050.98893	1.08722
3049.06036	1.08576
3047.13180	1.08220
3045.20323	1.07798
3043.27467	1.07425
3041.34610	1.07126
3039.41754	1.06858
3037.48898	1.06520
3035.56041	1.06064
3033.63185	1.05559
3031.70328	1.05149
3029.77472	1.04842
3027.84615	1.04547
3025.91759	1.04280
3023.98903	1.04041
3022.06046	1.03792
3020.13190	1.03550
3018.20333	1.03245
3016.27477	1.02822
3014.34620	1.02393
3012.41764	1.02034
3010.48907	1.01734
3008.56051	1.01496
3006.63195	1.01347
3004.70338	1.01297
3002.77482	1.01222
3000.84625	1.01022
2998.91769	1.00853
2996.98912	1.00829
2995.06056	1.00826
2993.13199	1.00846
2991.20343	1.01055
2989.27487	1.01482
2987.34630	1.02013
2985.41774	1.02494
2983.48917	1.02862
2981.56061	1.03240
2979.63204	1.03738
2977.70348	1.04295
2975.77491	1.04844
2973.84635	1.05432
2971.91779	1.06093
2969.98922	1.06734
2968.06066	1.07223
2966.13209	1.07600
2964.20353	1.07973
2962.27496	1.08230
2960.34640	1.08233
2958.41783	1.08031
2956.48927	1.07678
2954.56071	1.07166
2952.63214	1.06595
2950.70358	1.06124
2948.77501	1.05830
2946.84645	1.05752
2944.91788	1.05934
2942.98932	1.06426
2941.06075	1.07197
2939.13219	1.08099
2937.20363	1.08937
2935.27506	1.09633
2933.34650	1.10375
2931.41793	1.11259
2929.48937	1.12109
2927.56080	1.12852
2925.63224	1.13564
2923.70367	1.14262
2921.77511	1.14747
2919.84655	1.14890
2917.91798	1.14725
2915.98942	1.13888
2914.06085	1.12161
2912.13229	1.10065
2910.20372	1.08158
2908.27516	1.06668
2906.34659	1.05555
2904.41803	1.04682
2902.48947	1.04021
2900.56090	1.03497
2898.63234	1.03119
2896.70377	1.02997
2894.77521	1.02948
2892.84664	1.02662
2890.91808	1.02118
2888.98952	1.01568
2887.06095	1.01211
2885.13239	1.00946
2883.20382	1.00695
2881.27526	1.00574
2879.34669	1.00541
2877.41813	1.00420
2875.48956	1.00181
2873.56100	0.99914
2871.63244	0.99651
2869.70387	0.99315
2867.77531	0.98815
2865.84674	0.98186
2863.91818	0.97623
2861.98961	0.97367
2860.06105	0.97494
2858.13248	0.97941
2856.20392	0.98695
2854.27536	0.99694
2852.34679	1.00637
2850.41823	1.00985
2848.48966	1.00200
2846.56110	0.98325
2844.63253	0.96081
2842.70397	0.94173
2840.77540	0.92819
2838.84684	0.91821
2836.91828	0.90961
2834.98971	0.90275
2833.06115	0.89796
2831.13258	0.89377
2829.20402	0.88911
2827.27545	0.88441
2825.34689	0.88023
2823.41832	0.87644
2821.48976	0.87321
2819.56120	0.87083
2817.63263	0.86853
2815.70407	0.86617
2813.77550	0.86392
2811.84694	0.86117
2809.91837	0.85829
2807.98981	0.85633
2806.06124	0.85498
2804.13268	0.85321
2802.20412	0.85048
2800.27555	0.84711
2798.34699	0.84385
2796.41842	0.84084
2794.48986	0.83826
2792.56129	0.83661
2790.63273	0.83535
2788.70416	0.83357
2786.77560	0.83133
2784.84704	0.82911
2782.91847	0.82720
2780.98991	0.82510
2779.06134	0.82262
2777.13278	0.82054
2775.20421	0.81919
2773.27565	0.81805
2771.34708	0.81657
2769.41852	0.81473
2767.48996	0.81282
2765.56139	0.81107
2763.63283	0.80950
2761.70426	0.80777
2759.77570	0.80587
2757.84713	0.80433
2755.91857	0.80326
2753.99001	0.80200
2752.06144	0.80038
2750.13288	0.79875
2748.20431	0.79714
2746.27575	0.79568
2744.34718	0.79448
2742.41862	0.79315
2740.49005	0.79139
2738.56149	0.78981
2736.63293	0.78882
2734.70436	0.78767
2732.77580	0.78608
2730.84723	0.78425
2728.91867	0.78216
2726.99010	0.78046
2725.06154	0.77934
2723.13297	0.77780
2721.20441	0.77560
2719.27585	0.77376
2717.34728	0.77247
2715.41872	0.77081
2713.49015	0.76892
2711.56159	0.76752
2709.63302	0.76634
2707.70446	0.76514
2705.77589	0.76412
2703.84733	0.76275
2701.91877	0.76073
2699.99020	0.75879
2698.06164	0.75722
2696.13307	0.75609
2694.20451	0.75568
2692.27594	0.75544
2690.34738	0.75463
2688.41881	0.75357
2686.49025	0.75262
2684.56169	0.75167
2682.63312	0.75042
2680.70456	0.74901
2678.77599	0.74798
2676.84743	0.74719
2674.91886	0.74645
2672.99030	0.74555
2671.06173	0.74424
2669.13317	0.74308
2667.20461	0.74216
2665.27604	0.74105
2663.34748	0.73989
2661.41891	0.73887
2659.49035	0.73790
2657.56178	0.73661
2655.63322	0.73482
2653.70465	0.73294
2651.77609	0.73149
2649.84753	0.73064
2647.91896	0.72979
2645.99040	0.72853
2644.06183	0.72742
2642.13327	0.72700
2640.20470	0.72694
2638.27614	0.72652
2636.34757	0.72536
2634.41901	0.72374
2632.49045	0.72202
2630.56188	0.72074
2628.63332	0.72027
2626.70475	0.72000
2624.77619	0.71913
2622.84762	0.71785
2620.91906	0.71694
2618.99049	0.71667
2617.06193	0.71646
2615.13337	0.71561
2613.20480	0.71442
2611.27624	0.71341
2609.34767	0.71210
2607.41911	0.71034
2605.49054	0.70903
2603.56198	0.70840
2601.63342	0.70784
2599.70485	0.70704
2597.77629	0.70609
2595.84772	0.70507
2593.91916	0.70402
2591.99059	0.70273
2590.06203	0.70112
2588.13346	0.69952
2586.20490	0.69813
2584.27634	0.69715
2582.34777	0.69645
2580.41921	0.69540
2578.49064	0.69403
2576.56208	0.69283
2574.63351	0.69173
2572.70495	0.69056
2570.77638	0.68934
2568.84782	0.68809
2566.91926	0.68678
2564.99069	0.68553
2563.06213	0.68450
2561.13356	0.68366
2559.20500	0.68282
2557.27643	0.68188
2555.34787	0.68084
2553.41930	0.67947
2551.49074	0.67770
2549.56218	0.67617
2547.63361	0.67537
2545.70505	0.67485
2543.77648	0.67397
2541.84792	0.67275
2539.91935	0.67151
2537.99079	0.67060
2536.06222	0.67011
2534.13366	0.66956
2532.20510	0.66868
2530.27653	0.66777
2528.34797	0.66694
2526.41940	0.66617
2524.49084	0.66560
2522.56227	0.66524
2520.63371	0.66491
2518.70514	0.66416
2516.77658	0.66329
2514.84802	0.66308
2512.91945	0.66302
2510.99089	0.66239
2509.06232	0.66170
2507.13376	0.66132
2505.20519	0.66096
2503.27663	0.66056
2501.34806	0.66014
2499.41950	0.65962
2497.49094	0.65903
2495.56237	0.65842
2493.63381	0.65779
2491.70524	0.65728
2489.77668	0.65687
2487.84811	0.65621
2485.91955	0.65509
2483.99098	0.65396
2482.06242	0.65307
2480.13386	0.65199
2478.20529	0.65066
2476.27673	0.64943
2474.34816	0.64828
2472.41960	0.64694
2470.49103	0.64540
2468.56247	0.64399
2466.63391	0.64289
2464.70534	0.64180
2462.77678	0.64036
2460.84821	0.63872
2458.91965	0.63724
2456.99108	0.63618
2455.06252	0.63547
2453.13395	0.63489
2451.20539	0.63420
2449.27683	0.63354
2447.34826	0.63295
2445.41970	0.63209
2443.49113	0.63104
2441.56257	0.63024
2439.63400	0.62983
2437.70544	0.62968
2435.77687	0.62941
2433.84831	0.62892
2431.91975	0.62824
2429.99118	0.62723
2428.06262	0.62601
2426.13405	0.62520
2424.20549	0.62493
2422.27692	0.62432
2420.34836	0.62294
2418.41979	0.62150
2416.49123	0.62024
2414.56267	0.61882
2412.63410	0.61728
2410.70554	0.61581
2408.77697	0.61452
2406.84841	0.61342
2404.91984	0.61242
2402.99128	0.61149
2401.06271	0.61052
2399.13415	0.60915
2397.20559	0.60759
2395.27702	0.60665
2393.34846	0.60631
2391.41989	0.60589
2389.49133	0.60538
2387.56276	0.60526
2385.63420	0.60573
2383.70563	0.60652
2381.77707	0.60726
2379.84851	0.60785
2377.91994	0.60870
2375.99138	0.61021
2374.06281	0.61196
2372.13425	0.61373
2370.20568	0.61575
2368.27712	0.61718
2366.34855	0.61702
2364.41999	0.61574
2362.49143	0.61456
2360.56286	0.61496
2358.63430	0.61763
2356.70573	0.61980
2354.77717	0.61835
2352.84860	0.61488
2350.92004	0.61182
2348.99147	0.61002
2347.06291	0.60948
2345.13435	0.60937
2343.20578	0.60894
2341.27722	0.60867
2339.34865	0.60834
2337.42009	0.60725
2335.49152	0.60508
2333.56296	0.60301
2331.63440	0.60269
2329.70583	0.60317
2327.77727	0.60236
2325.84870	0.60095
2323.92014	0.60013
2321.99157	0.59914
2320.06301	0.59772
2318.13444	0.59658
2316.20588	0.59593
2314.27732	0.59556
2312.34875	0.59531
2310.42019	0.59484
2308.49162	0.59378
2306.56306	0.59233
2304.63449	0.59112
2302.70593	0.59039
2300.77736	0.58973
2298.84880	0.58883
2296.92024	0.58778
2294.99167	0.58663
2293.06311	0.58539
2291.13454	0.58416
2289.20598	0.58292
2287.27741	0.58157
2285.34885	0.58016
2283.42028	0.57893
2281.49172	0.57795
2279.56316	0.57716
2277.63459	0.57650
2275.70603	0.57598
2273.77746	0.57564
2271.84890	0.57512
2269.92033	0.57426
2267.99177	0.57362
2266.06320	0.57359
2264.13464	0.57380
2262.20608	0.57379
2260.27751	0.57372
2258.34895	0.57401
2256.42038	0.57440
2254.49182	0.57459
2252.56325	0.57487
2250.63469	0.57521
2248.70612	0.57523
2246.77756	0.57501
2244.84900	0.57496
2242.92043	0.57531
2240.99187	0.57578
2239.06330	0.57593
2237.13474	0.57570
2235.20617	0.57514
2233.27761	0.57447
2231.34904	0.57399
2229.42048	0.57364
2227.49192	0.57315
2225.56335	0.57239
2223.63479	0.57153
2221.70622	0.57077
2219.77766	0.57005
2217.84909	0.56915
2215.92053	0.56817
2213.99196	0.56733
2212.06340	0.56666
2210.13484	0.56613
2208.20627	0.56571
2206.27771	0.56529
2204.34914	0.56494
2202.42058	0.56468
2200.49201	0.56441
2198.56345	0.56411
2196.63488	0.56377
2194.70632	0.56353
2192.77776	0.56368
2190.84919	0.56407
2188.92063	0.56432
2186.99206	0.56444
2185.06350	0.56466
2183.13493	0.56497
2181.20637	0.56515
2179.27781	0.56511
2177.34924	0.56511
2175.42068	0.56529
2173.49211	0.56544
2171.56355	0.56535
2169.63498	0.56513
2167.70642	0.56497
2165.77785	0.56473
2163.84929	0.56438
2161.92073	0.56411
2159.99216	0.56399
2158.06360	0.56383
2156.13503	0.56337
2154.20647	0.56265
2152.27790	0.56205
2150.34934	0.56170
2148.42077	0.56137
2146.49221	0.56101
2144.56365	0.56073
2142.63508	0.56036
2140.70652	0.55993
2138.77795	0.55979
2136.84939	0.55983
2134.92082	0.55974
2132.99226	0.55969
2131.06369	0.55980
2129.13513	0.55984
2127.20657	0.55968
2125.27800	0.55934
2123.34944	0.55912
2121.42087	0.55930
2119.49231	0.55949
2117.56374	0.55948
2115.63518	0.55952
2113.70661	0.55973
2111.77805	0.55999
2109.84949	0.56012
2107.92092	0.56021
2105.99236	0.56038
2104.06379	0.56042
2102.13523	0.56029
2100.20666	0.56026
2098.27810	0.56040
2096.34953	0.56055
2094.42097	0.56051
2092.49241	0.56014
2090.56384	0.55959
2088.63528	0.55905
2086.70671	0.55854
2084.77815	0.55806
2082.84958	0.55756
2080.92102	0.55704
2078.99245	0.55657
2077.06389	0.55601
2075.13533	0.55536
2073.20676	0.55472
2071.27820	0.55392
2069.34963	0.55313
2067.42107	0.55260
2065.49250	0.55191
2063.56394	0.55097
2061.63537	0.55029
2059.70681	0.54993
2057.77825	0.54945
2055.84968	0.54867
2053.92112	0.54796
2051.99255	0.54743
2050.06399	0.54692
2048.13542	0.54645
2046.20686	0.54608
2044.27830	0.54591
2042.34973	0.54589
2040.42117	0.54585
2038.49260	0.54583
2036.56404	0.54587
2034.63547	0.54583
2032.70691	0.54578
2030.77834	0.54581
2028.84978	0.54578
2026.92122	0.54563
2024.99265	0.54549
2023.06409	0.54544
2021.13552	0.54551
2019.20696	0.54563
2017.27839	0.54568
2015.34983	0.54564
2013.42126	0.54548
2011.49270	0.54525
2009.56414	0.54524
2007.63557	0.54546
2005.70701	0.54549
2003.77844	0.54522
2001.84988	0.54510
1999.92131	0.54519
1997.99275	0.54511
1996.06418	0.54500
1994.13562	0.54517
1992.20706	0.54534
1990.27849	0.54532
1988.34993	0.54529
1986.42136	0.54525
1984.49280	0.54512
1982.56423	0.54490
1980.63567	0.54456
1978.70710	0.54410
1976.77854	0.54356
1974.84998	0.54319
1972.92141	0.54307
1970.99285	0.54293
1969.06428	0.54270
1967.13572	0.54239
1965.20715	0.54193
1963.27859	0.54153
1961.35002	0.54134
1959.42146	0.54124
1957.49290	0.54096
1955.56433	0.54061
1953.63577	0.54046
1951.70720	0.54048
1949.77864	0.54053
1947.85007	0.54054
1945.92151	0.54049
1943.99294	0.54034
1942.06438	0.54004
1940.13582	0.53974
1938.20725	0.53960
1936.27869	0.53949
1934.35012	0.53916
1932.42156	0.53864
1930.49299	0.53811
1928.56443	0.53764
1926.63586	0.53719
1924.70730	0.53679
1922.77874	0.53638
1920.85017	0.53563
1918.92161	0.53459
1916.99304	0.53361
1915.06448	0.53297
1913.13591	0.53255
1911.20735	0.53214
1909.27878	0.53163
1907.35022	0.53101
1905.42166	0.53060
1903.49309	0.53066
1901.56453	0.53090
1899.63596	0.53104
1897.70740	0.53131
1895.77883	0.53181
1893.85027	0.53234
1891.92171	0.53299
1889.99314	0.53392
1888.06458	0.53459
1886.13601	0.53481
1884.20745	0.53492
1882.27888	0.53511
1880.35032	0.53535
1878.42175	0.53555
1876.49319	0.53567
1874.56463	0.53582
1872.63606	0.53624
1870.70750	0.53684
1868.77893	0.53713
1866.85037	0.53673
1864.92180	0.53612
1862.99324	0.53568
1861.06467	0.53538
1859.13611	0.53512
1857.20755	0.53465
1855.27898	0.53409
1853.35042	0.53373
1851.42185	0.53360
1849.49329	0.53360
1847.56472	0.53363
1845.63616	0.53365
1843.70759	0.53326
1841.77903	0.53231
1839.85047	0.53157
1837.92190	0.53137
1835.99334	0.53131
1834.06477	0.53103
1832.13621	0.53084
1830.20764	0.53075
1828.27908	0.53044
1826.35051	0.53007
1824.42195	0.52973
1822.49339	0.52929
1820.56482	0.52895
1818.63626	0.52893
1816.70769	0.52892
1814.77913	0.52880
1812.85056	0.52886
1810.92200	0.52900
1808.99343	0.52894
1807.06487	0.52874
1805.13631	0.52868
1803.20774	0.52882
1801.27918	0.52900
1799.35061	0.52900
1797.42205	0.52907
1795.49348	0.52935
1793.56492	0.52971
1791.63635	0.52986
1789.70779	0.52942
1787.77923	0.52905
1785.85066	0.52929
1783.92210	0.53016
1781.99353	0.53128
1780.06497	0.53206
1778.13640	0.53257
1776.20784	0.53347
1774.27927	0.53514
1772.35071	0.53735
1770.42215	0.53890
1768.49358	0.53979
1766.56502	0.54085
1764.63645	0.54245
1762.70789	0.54476
1760.77932	0.54720
1758.85076	0.54932
1756.92220	0.55229
1754.99363	0.55573
1753.06507	0.55927
1751.13650	0.56478
1749.20794	0.57256
1747.27937	0.57950
1745.35081	0.58495
1743.42224	0.58994
1741.49368	0.59466
1739.56512	0.59859
1737.63655	0.60123
1735.70799	0.60333
1733.77942	0.60600
1731.85086	0.60764
1729.92229	0.60855
1727.99373	0.61004
1726.06516	0.61271
1724.13660	0.61713
1722.20804	0.62192
1720.27947	0.62637
1718.35091	0.63358
1716.42234	0.64599
1714.49378	0.65647
1712.56521	0.66502
1710.63665	0.67496
1708.70808	0.68734
1706.77952	0.70618
1704.85096	0.73156
1702.92239	0.75436
1700.99383	0.78528
1699.06526	0.83455
1697.13670	0.88158
1695.20813	0.92676
1693.27957	0.95970
1691.35100	0.98586
1689.42244	1.01718
1687.49388	1.04628
1685.56531	1.07599
1683.63675	1.12159
1681.70818	1.15307
1679.77962	1.17071
1677.85105	1.18791
1675.92249	1.20791
1673.99392	1.22760
1672.06536	1.24235
1670.13680	1.25958
1668.20823	1.27792
1666.27967	1.28730
1664.35110	1.29493
1662.42254	1.30615
1660.49397	1.31603
1658.56541	1.32160
1656.63684	1.32509
1654.70828	1.33111
1652.77972	1.33830
1650.85115	1.33651
1648.92259	1.33458
1646.99402	1.33376
1645.06546	1.33128
1643.13689	1.32900
1641.20833	1.32845
1639.27976	1.32814
1637.35120	1.32777
1635.42264	1.32621
1633.49407	1.32217
1631.56551	1.31796
1629.63694	1.31303
1627.70838	1.30731
1625.77981	1.30109
1623.85125	1.29218
1621.92269	1.27901
1619.99412	1.26607
1618.06556	1.25023
1616.13699	1.22507
1614.20843	1.20307
1612.27986	1.18564
1610.35130	1.16671
1608.42273	1.14690
1606.49417	1.13014
1604.56561	1.11727
1602.63704	1.10657
1600.70848	1.09783
1598.77991	1.09175
1596.85135	1.08835
1594.92278	1.08660
1592.99422	1.08500
1591.06565	1.08402
1589.13709	1.08608
1587.20853	1.09201
1585.27996	1.09992
1583.35140	1.10872
1581.42283	1.11813
1579.49427	1.12737
1577.56570	1.13901
1575.63714	1.15604
1573.70857	1.16814
1571.78001	1.17633
1569.85145	1.18860
1567.92288	1.20202
1565.99432	1.21164
1564.06575	1.21972
1562.13719	1.22546
1560.20862	1.23349
1558.28006	1.25170
1556.35149	1.25806
1554.42293	1.25885
1552.49437	1.25966
1550.56580	1.25976
1548.63724	1.25860
1546.70867	1.25689
1544.78011	1.25476
1542.85154	1.25094
1540.92298	1.24512
1538.99441	1.23906
1537.06585	1.23506
1535.13729	1.23037
1533.20872	1.22337
1531.28016	1.21685
1529.35159	1.21215
1527.42303	1.20701
1525.49446	1.20150
1523.56590	1.19852
1521.63733	1.19710
1519.70877	1.19400
1517.78021	1.18679
1515.85164	1.17547
1513.92308	1.16334
1511.99451	1.15103
1510.06595	1.13925
1508.13738	1.12246
1506.20882	1.09028
1504.28025	1.07162
1502.35169	1.06051
1500.42313	1.04779
1498.49456	1.03098
1496.56600	1.01150
1494.63743	0.99726
1492.70887	0.98851
1490.78030	0.97919
1488.85174	0.96549
1486.92317	0.95356
1484.99461	0.94601
1483.06605	0.94120
1481.13748	0.93895
1479.20892	0.93991
1477.28035	0.94425
1475.35179	0.95235
1473.42322	0.96646
1471.49466	0.98162
1469.56610	0.98951
1467.63753	0.99474
1465.70897	1.00175
1463.78040	1.00940
1461.85184	1.01343
1459.92327	1.01595
1457.99471	1.02254
1456.06614	1.03036
1454.13758	1.03123
1452.20902	1.03071
1450.28045	1.03062
1448.35189	1.03000
1446.42332	1.02791
1444.49476	1.02472
1442.56619	1.02081
1440.63763	1.01671
1438.70906	1.01212
1436.78050	1.00548
1434.85194	0.99860
1432.92337	0.99325
1430.99481	0.98765
1429.06624	0.98222
1427.13768	0.97940
1425.20911	0.97927
1423.28055	0.98065
1421.35198	0.98313
1419.42342	0.98791
1417.49486	0.99266
1415.56629	0.99402
1413.63773	0.99437
1411.70916	0.99494
1409.78060	0.99580
1407.85203	0.99721
1405.92347	0.99947
1403.99490	1.00193
1402.06634	1.00374
1400.13778	1.00539
1398.20921	1.00668
1396.28065	1.00710
1394.35208	1.00670
1392.42352	1.00626
1390.49495	1.00718
1388.56639	1.01118
1386.63782	1.01909
1384.70926	1.02777
1382.78070	1.03505
1380.85213	1.04013
1378.92357	1.04137
1376.99500	1.03819
1375.06644	1.02984
1373.13787	1.01692
1371.20931	1.00370
1369.28074	0.98986
1367.35218	0.97484
1365.42362	0.96134
1363.49505	0.94864
1361.56649	0.93661
1359.63792	0.92824
1357.70936	0.92320
1355.78079	0.91994
1353.85223	0.91749
1351.92366	0.91542
1349.99510	0.91394
1348.06654	0.91325
1346.13797	0.91321
1344.20941	0.91370
1342.28084	0.91470
1340.35228	0.91650
1338.42371	0.91887
1336.49515	0.92140
1334.56659	0.92487
1332.63802	0.92991
1330.70946	0.93606
1328.78089	0.94176
1326.85233	0.94570
1324.92376	0.94821
1322.99520	0.95059
1321.06663	0.95351
1319.13807	0.95661
1317.20951	0.95910
1315.28094	0.96074
1313.35238	0.96211
1311.42381	0.96359
1309.49525	0.96473
1307.56668	0.96507
1305.63812	0.96493
1303.70955	0.96479
1301.78099	0.96457
1299.85243	0.96358
1297.92386	0.96153
1295.99530	0.95924
1294.06673	0.95753
1292.13817	0.95675
1290.20960	0.95704
1288.28104	0.95779
1286.35247	0.95830
1284.42391	0.95853
1282.49535	0.95866
1280.56678	0.95880
1278.63822	0.95892
1276.70965	0.95914
1274.78109	0.96004
1272.85252	0.96246
1270.92396	0.96648
1268.99539	0.97128
1267.06683	0.97579
1265.13827	0.97913
1263.20970	0.98082
1261.28114	0.98121
1259.35257	0.98123
1257.42401	0.98155
1255.49544	0.98226
1253.56688	0.98310
1251.63831	0.98394
1249.70975	0.98461
1247.78119	0.98503
1245.85262	0.98552
1243.92406	0.98617
1241.99549	0.98669
1240.06693	0.98680
1238.13836	0.98603
1236.20980	0.98381
1234.28123	0.98039
1232.35267	0.97620
1230.42411	0.97098
1228.49554	0.96489
1226.56698	0.95848
1224.63841	0.95161
1222.70985	0.94405
1220.78128	0.93636
1218.85272	0.92950
1216.92415	0.92396
1214.99559	0.91983
1213.06703	0.91741
1211.13846	0.91685
1209.20990	0.91756
1207.28133	0.91802
1205.35277	0.91604
1203.42420	0.91063
1201.49564	0.90322
1199.56708	0.89563
1197.63851	0.88820
1195.70995	0.88107
1193.78138	0.87511
1191.85282	0.87085
1189.92425	0.86839
1187.99569	0.86772
1186.06712	0.86840
1184.13856	0.87035
1182.21000	0.87412
1180.28143	0.87991
1178.35287	0.88746
1176.42430	0.89621
1174.49574	0.90555
1172.56717	0.91508
1170.63861	0.92491
1168.71004	0.93592
1166.78148	0.94898
1164.85292	0.96371
1162.92435	0.97802
1160.99579	0.98942
1159.06722	0.99591
1157.13866	0.99634
1155.21009	0.99092
1153.28153	0.98098
1151.35296	0.96826
1149.42440	0.95419
1147.49584	0.94012
1145.56727	0.92797
1143.63871	0.91959
1141.71014	0.91549
1139.78158	0.91465
1137.85301	0.91585
1135.92445	0.91903
1133.99588	0.92493
1132.06732	0.93403
1130.13876	0.94614
1128.21019	0.95980
1126.28163	0.97327
1124.35306	0.98567
1122.42450	0.99663
1120.49593	1.00599
1118.56737	1.01311
1116.63880	1.01716
1114.71024	1.01806
1112.78168	1.01663
1110.85311	1.01371
1108.92455	1.00978
1106.99598	1.00586
1105.06742	1.00275
1103.13885	1.00029
1101.21029	0.99843
1099.28172	0.99752
1097.35316	0.99844
1095.42460	1.00214
1093.49603	1.00850
1091.56747	1.01589
1089.63890	1.02316
1087.71034	1.03156
1085.78177	1.04242
1083.85321	1.05491
1081.92464	1.06628
1079.99608	1.07334
1078.06752	1.07565
1076.13895	1.07514
1074.21039	1.07219
1072.28182	1.06654
1070.35326	1.05918
1068.42469	1.05086
1066.49613	1.04229
1064.56756	1.03480
1062.63900	1.02839
1060.71044	1.02185
1058.78187	1.01515
1056.85331	1.00916
1054.92474	1.00448
1052.99618	1.00146
1051.06761	0.99950
1049.13905	0.99754
1047.21049	0.99651
1045.28192	0.99857
1043.35336	1.00371
1041.42479	1.00939
1039.49623	1.01415
1037.56766	1.01858
1035.63910	1.02224
1033.71053	1.02366
1031.78197	1.02276
1029.85341	1.01984
1027.92484	1.01449
1025.99628	1.00723
1024.06771	0.99912
1022.13915	0.99103
1020.21058	0.98406
1018.28202	0.97833
1016.35345	0.97235
1014.42489	0.96434
1012.49633	0.95325
1010.56776	0.93926
1008.63920	0.92384
1006.71063	0.90891
1004.78207	0.89514
1002.85350	0.88223
1000.92494	0.87060
998.99637	0.86100
997.06781	0.85355
995.13925	0.84755
993.21068	0.84166
991.28212	0.83492
989.35355	0.82778
987.42499	0.82128
985.49642	0.81583
983.56786	0.81159
981.63929	0.80891
979.71073	0.80793
977.78217	0.80852
975.85360	0.80966
973.92504	0.80957
971.99647	0.80733
970.06791	0.80347
968.13934	0.79942
966.21078	0.79629
964.28221	0.79452
962.35365	0.79532
960.42509	0.80015
958.49652	0.80831
956.56796	0.81639
954.63939	0.82033
952.71083	0.81869
950.78226	0.81294
948.85370	0.80542
946.92513	0.79793
944.99657	0.79124
943.06801	0.78581
941.13944	0.78169
939.21088	0.77816
937.28231	0.77479
935.35375	0.77167
933.42518	0.76911
931.49662	0.76745
929.56805	0.76641
927.63949	0.76591
925.71093	0.76648
923.78236	0.76758
921.85380	0.76841
919.92523	0.76923
917.99667	0.77019
916.06810	0.77126
914.13954	0.77279
912.21098	0.77470
910.28241	0.77679
908.35385	0.77960
906.42528	0.78356
904.49672	0.78829
902.56815	0.79265
900.63959	0.79563
898.71102	0.79727
896.78246	0.79789
894.85390	0.79751
892.92533	0.79627
890.99677	0.79441
889.06820	0.79208
887.13964	0.78926
885.21107	0.78638
883.28251	0.78417
881.35394	0.78247
879.42538	0.78044
877.49682	0.77815
875.56825	0.77670
873.63969	0.77628
871.71112	0.77598
869.78256	0.77547
867.85399	0.77543
865.92543	0.77664
863.99686	0.77880
862.06830	0.78101
860.13974	0.78338
858.21117	0.78646
856.28261	0.79024
854.35404	0.79464
852.42548	0.79921
850.49691	0.80315
848.56835	0.80623
846.63978	0.80904
844.71122	0.81249
842.78266	0.81671
840.85409	0.82088
838.92553	0.82457
836.99696	0.82802
835.06840	0.83179
833.13983	0.83621
831.21127	0.84053
829.28270	0.84405
827.35414	0.84692
825.42558	0.84935
823.49701	0.85196
821.56845	0.85531
819.63988	0.85841
817.71132	0.86029
815.78275	0.86136
813.85419	0.86247
811.92562	0.86403
809.99706	0.86545
808.06850	0.86604
806.13993	0.86560
804.21137	0.86403
802.28280	0.86169
800.35424	0.85944
798.42567	0.85767
796.49711	0.85537
794.56854	0.85182
792.63998	0.84819
790.71142	0.84565
788.78285	0.84372
786.85429	0.84141
784.92572	0.83879
782.99716	0.83712
781.06859	0.83721
779.14003	0.83797
777.21147	0.83829
775.28290	0.83841
773.35434	0.83867
771.42577	0.83968
769.49721	0.84175
767.56864	0.84375
765.64008	0.84524
763.71151	0.84731
761.78295	0.85048
759.85439	0.85343
757.92582	0.85522
755.99726	0.85724
754.06869	0.86066
752.14013	0.86414
750.21156	0.86583
748.28300	0.86526
746.35443	0.86334
744.42587	0.86120
742.49731	0.85817
740.56874	0.85362
738.64018	0.84881
736.71161	0.84435
734.78305	0.83936
732.85448	0.83372
730.92592	0.82825
728.99735	0.82299
727.06879	0.81789
725.14023	0.81383
723.21166	0.81130
721.28310	0.80987
719.35453	0.80882
717.42597	0.80761
715.49740	0.80643
713.56884	0.80644
711.64027	0.80878
709.71171	0.81298
707.78315	0.81785
705.85458	0.82327
703.92602	0.82971
701.99745	0.83687
700.06889	0.84453
698.14032	0.85321
696.21176	0.86259
694.28319	0.87169
692.35463	0.88049
690.42607	0.88943
688.49750	0.89826
686.56894	0.90639
684.64037	0.91364
682.71181	0.91966
680.78324	0.92396
678.85468	0.92727
676.92611	0.93016
674.99755	0.93181
673.06899	0.93180
671.14042	0.93038
669.21186	0.92556
667.28329	0.91677
665.35473	0.91044
663.42616	0.90452
661.49760	0.89690
659.56903	0.88905
657.64047	0.88141
655.71191	0.87405
653.78334	0.86804
651.85478	0.86319
649.92621	0.85918
647.99765	0.85631
646.06908	0.85515
644.14052	0.85647
642.21195	0.85952
640.28339	0.86322
638.35483	0.86827
636.42626	0.87478
634.49770	0.88040
632.56913	0.88363
630.64057	0.88600
628.71200	0.88776
626.78344	0.88846
624.85488	0.88950
622.92631	0.88968
620.99775	0.88678
619.06918	0.88275
617.14062	0.87952
615.21205	0.87540
613.28349	0.86844
611.35492	0.85812
609.42636	0.84642
607.49780	0.83631
605.56923	0.82630
603.64067	0.81401
601.71210	0.80213
599.78354	0.79298
