3997.91406	0.64657
3995.98550	0.64608
3994.05693	0.64528
3992.12837	0.64471
3990.19980	0.64434
3988.27124	0.64414
3986.34268	0.64410
3984.41411	0.64374
3982.48555	0.64287
3980.55698	0.64194
3978.62842	0.64126
3976.69985	0.64062
3974.77129	0.63991
3972.84272	0.63976
3970.91416	0.63978
3968.98560	0.63886
3967.05703	0.63749
3965.12847	0.63672
3963.19990	0.63702
3961.27134	0.63803
3959.34277	0.63839
3957.41421	0.63766
3955.48564	0.63660
3953.55708	0.63505
3951.62852	0.63318
3949.69995	0.63265
3947.77139	0.63370
3945.84282	0.63508
3943.91426	0.63570
3941.98569	0.63507
3940.05713	0.63455
3938.12856	0.63468
3936.20000	0.63473
3934.27144	0.63494
3932.34287	0.63542
3930.41431	0.63509
3928.48574	0.63367
3926.55718	0.63146
3924.62861	0.62938
3922.70005	0.62990
3920.77148	0.63241
3918.84292	0.63274
3916.91436	0.62950
3914.98579	0.62716
3913.05723	0.62774
3911.12866	0.62898
3909.20010	0.62935
3907.27153	0.62945
3905.34297	0.62971
3903.41440	0.63039
3901.48584	0.63105
3899.55728	0.62875
3897.62871	0.62500
3895.70015	0.62374
3893.77158	0.62439
3891.84302	0.62422
3889.91445	0.62411
3887.98589	0.62527
3886.05733	0.62542
3884.12876	0.62552
3882.20020	0.62601
3880.27163	0.62293
3878.34307	0.62006
3876.41450	0.62052
3874.48594	0.62231
3872.55737	0.62481
3870.62881	0.62642
3868.70025	0.62601
3866.77168	0.62621
3864.84312	0.62633
3862.91455	0.62466
3860.98599	0.62304
3859.05742	0.62228
3857.12886	0.62262
3855.20029	0.62518
3853.27173	0.62617
3851.34317	0.62177
3849.41460	0.61958
3847.48604	0.62056
3845.55747	0.62310
3843.62891	0.62515
3841.70034	0.62641
3839.77178	0.62617
3837.84321	0.62152
3835.91465	0.61725
3833.98609	0.61628
3832.05752	0.61540
3830.12896	0.61442
3828.20039	0.61503
3826.27183	0.61644
3824.34326	0.61778
3822.41470	0.61959
3820.48613	0.62036
3818.55757	0.61882
3816.62901	0.61545
3814.70044	0.61251
3812.77188	0.61279
3810.84331	0.61445
3808.91475	0.61517
3806.98618	0.61472
3805.05762	0.61557
3803.12905	0.61673
3801.20049	0.61547
3799.27193	0.61384
3797.34336	0.61226
3795.41480	0.61101
3793.48623	0.61129
3791.55767	0.61158
3789.62910	0.61112
3787.70054	0.61081
3785.77197	0.61115
3783.84341	0.61133
3781.91485	0.61065
3779.98628	0.60976
3778.05772	0.60967
3776.12915	0.60971
3774.20059	0.60952
3772.27202	0.60929
3770.34346	0.60829
3768.41489	0.60745
3766.48633	0.60724
3764.55777	0.60635
3762.62920	0.60620
3760.70064	0.60717
3758.77207	0.60745
3756.84351	0.60733
3754.91494	0.60816
3752.98638	0.60869
3751.05781	0.60497
3749.12925	0.60168
3747.20069	0.60442
3745.27212	0.60752
3743.34356	0.60725
3741.41499	0.60802
3739.48643	0.61004
3737.55786	0.61008
3735.62930	0.60662
3733.70074	0.60395
3731.77217	0.60414
3729.84361	0.60484
3727.91504	0.60552
3725.98648	0.60624
3724.05791	0.60653
3722.12935	0.60509
3720.20078	0.60251
3718.27222	0.60154
3716.34366	0.60282
3714.41509	0.60514
3712.48653	0.60660
3710.55796	0.60617
3708.62940	0.60695
3706.70083	0.60927
3704.77227	0.61155
3702.84370	0.61280
3700.91514	0.61304
3698.98658	0.61310
3697.05801	0.61372
3695.12945	0.61608
3693.20088	0.62063
3691.27232	0.62571
3689.34375	0.62647
3687.41519	0.62436
3685.48662	0.62480
3683.55806	0.62689
3681.62950	0.62917
3679.70093	0.63148
3677.77237	0.63461
3675.84380	0.63965
3673.91524	0.64534
3671.98667	0.64987
3670.05811	0.65382
3668.12954	0.65756
3666.20098	0.66177
3664.27242	0.66619
3662.34385	0.67085
3660.41529	0.67679
3658.48672	0.68393
3656.55816	0.69138
3654.62959	0.69789
3652.70103	0.70485
3650.77246	0.71476
3648.84390	0.72355
3646.91534	0.72812
3644.98677	0.73458
3643.05821	0.74263
3641.12964	0.75014
3639.20108	0.75625
3637.27251	0.76287
3635.34395	0.77164
3633.41538	0.78141
3631.48682	0.79102
3629.55826	0.80390
3627.62969	0.81812
3625.70113	0.82741
3623.77256	0.83540
3621.84400	0.84420
3619.91543	0.85399
3617.98687	0.86268
3616.05830	0.86909
3614.12974	0.87330
3612.20118	0.87844
3610.27261	0.88745
3608.34405	0.89767
3606.41548	0.90701
3604.48692	0.91614
3602.55835	0.92601
3600.62979	0.93548
3598.70123	0.94305
3596.77266	0.95032
3594.84410	0.95945
3592.91553	0.96880
3590.98697	0.97651
3589.05840	0.98454
3587.12984	0.99316
3585.20127	1.00158
3583.27271	1.01004
3581.34415	1.01864
3579.41558	1.02760
3577.48702	1.03561
3575.55845	1.04350
3573.62989	1.05327
3571.70132	1.06517
3569.77276	1.07797
3567.84419	1.08880
3565.91563	1.09751
3563.98707	1.10815
3562.05850	1.12021
3560.12994	1.13083
3558.20137	1.13840
3556.27281	1.14370
3554.34424	1.15155
3552.41568	1.16428
3550.48711	1.17502
3548.55855	1.18286
3546.62999	1.19307
3544.70142	1.20451
3542.77286	1.21415
3540.84429	1.22439
3538.91573	1.23482
3536.98716	1.24153
3535.05860	1.24640
3533.13003	1.25364
3531.20147	1.26213
3529.27291	1.26912
3527.34434	1.27695
3525.41578	1.28897
3523.48721	1.30065
3521.55865	1.30669
3519.63008	1.31015
3517.70152	1.31756
3515.77295	1.32901
3513.84439	1.33887
3511.91583	1.34592
3509.98726	1.35465
3508.05870	1.36629
3506.13013	1.37880
3504.20157	1.39340
3502.27300	1.40874
3500.34444	1.42190
3498.41587	1.43274
3496.48731	1.44005
3494.55875	1.44305
3492.63018	1.44353
3490.70162	1.44593
3488.77305	1.45240
3486.84449	1.46091
3484.91592	1.47031
3482.98736	1.48201
3481.05879	1.49042
3479.13023	1.48887
3477.20167	1.48533
3475.27310	1.48586
3473.34454	1.48975
3471.41597	1.49756
3469.48741	1.50868
3467.55884	1.51925
3465.63028	1.52373
3463.70171	1.52255
3461.77315	1.51887
3459.84459	1.51374
3457.91602	1.51144
3455.98746	1.51587
3454.05889	1.52411
3452.13033	1.53087
3450.20176	1.53688
3448.27320	1.54654
3446.34464	1.55727
3444.41607	1.55829
3442.48751	1.54775
3440.55894	1.53567
3438.63038	1.53073
3436.70181	1.53378
3434.77325	1.54062
3432.84468	1.54780
3430.91612	1.55305
3428.98756	1.55327
3427.05899	1.54974
3425.13043	1.54997
3423.20186	1.55625
3421.27330	1.56000
3419.34473	1.55795
3417.41617	1.55866
3415.48760	1.56438
3413.55904	1.56759
3411.63048	1.56800
3409.70191	1.57172
3407.77335	1.57384
3405.84478	1.57094
3403.91622	1.57101
3401.98765	1.57638
3400.05909	1.58000
3398.13052	1.57685
3396.20196	1.57040
3394.27340	1.56794
3392.34483	1.56969
3390.41627	1.57118
3388.48770	1.57426
3386.55914	1.57830
3384.63057	1.57990
3382.70201	1.58535
3380.77344	1.59331
3378.84488	1.59359
3376.91632	1.58836
3374.98775	1.58177
3373.05919	1.57501
3371.13062	1.57376
3369.20206	1.57756
3367.27349	1.58016
3365.34493	1.57940
3363.41636	1.57686
3361.48780	1.57717
3359.55924	1.58144
3357.63067	1.58820
3355.70211	1.59680
3353.77354	1.59779
3351.84498	1.58840
3349.91641	1.58353
3347.98785	1.58963
3346.05928	1.59713
3344.13072	1.59807
3342.20216	1.59792
3340.27359	1.60390
3338.34503	1.61040
3336.41646	1.61002
3334.48790	1.60690
3332.55933	1.60772
3330.63077	1.61162
3328.70220	1.61615
3326.77364	1.62334
3324.84508	1.63294
3322.91651	1.63740
3320.98795	1.63515
3319.05938	1.63493
3317.13082	1.63612
3315.20225	1.63380
3313.27369	1.63155
3311.34513	1.62781
3309.41656	1.62316
3307.48800	1.62670
3305.55943	1.63577
3303.63087	1.64014
3301.70230	1.63961
3299.77374	1.63763
3297.84517	1.63409
3295.91661	1.63170
3293.98805	1.63245
3292.05948	1.63508
3290.13092	1.64014
3288.20235	1.64304
3286.27379	1.64003
3284.34522	1.63801
3282.41666	1.63851
3280.48809	1.63513
3278.55953	1.62874
3276.63097	1.62762
3274.70240	1.63246
3272.77384	1.63285
3270.84527	1.62876
3268.91671	1.62866
3266.98814	1.62849
3265.05958	1.62405
3263.13101	1.61817
3261.20245	1.61022
3259.27389	1.60409
3257.34532	1.60481
3255.41676	1.60467
3253.48819	1.59751
3251.55963	1.58946
3249.63106	1.58413
3247.70250	1.58194
3245.77393	1.58298
3243.84537	1.58014
3241.91681	1.56949
3239.98824	1.55802
3238.05968	1.55087
3236.13111	1.54726
3234.20255	1.54336
3232.27398	1.53517
3230.34542	1.52566
3228.41685	1.52048
3226.48829	1.51651
3224.55973	1.50922
3222.63116	1.50335
3220.70260	1.50279
3218.77403	1.50350
3216.84547	1.50086
3214.91690	1.49486
3212.98834	1.48988
3211.05977	1.48685
3209.13121	1.48254
3207.20265	1.47756
3205.27408	1.47309
3203.34552	1.47109
3201.41695	1.47286
3199.48839	1.47285
3197.55982	1.46714
3195.63126	1.46002
3193.70269	1.45550
3191.77413	1.45115
3189.84557	1.44562
3187.91700	1.44139
3185.98844	1.43737
3184.05987	1.43171
3182.13131	1.42621
3180.20274	1.42325
3178.27418	1.42053
3176.34562	1.41285
3174.41705	1.40058
3172.48849	1.38967
3170.55992	1.38468
3168.63136	1.38134
3166.70279	1.37284
3164.77423	1.36319
3162.84566	1.35833
3160.91710	1.35435
3158.98854	1.34751
3157.05997	1.34189
3155.13141	1.34008
3153.20284	1.33945
3151.27428	1.33641
3149.34571	1.33044
3147.41715	1.32460
3145.48858	1.31983
3143.56002	1.31595
3141.63146	1.31365
3139.70289	1.31194
3137.77433	1.31077
3135.84576	1.31005
3133.91720	1.30746
3131.98863	1.30393
3130.06007	1.30321
3128.13150	1.30438
3126.20294	1.30455
3124.27438	1.30415
3122.34581	1.30383
3120.41725	1.30290
3118.48868	1.30153
3116.56012	1.30201
3114.63155	1.30385
3112.70299	1.30222
3110.77442	1.29818
3108.84586	1.29572
3106.91730	1.29453
3104.98873	1.29479
3103.06017	1.29523
3101.13160	1.29222
3099.20304	1.28712
3097.27447	1.28431
3095.34591	1.28407
3093.41734	1.28420
3091.48878	1.28282
3089.56022	1.27902
3087.63165	1.27526
3085.70309	1.27356
3083.77452	1.27214
3081.84596	1.27006
3079.91739	1.26741
3077.98883	1.26406
3076.06026	1.26072
3074.13170	1.25788
3072.20314	1.25589
3070.27457	1.25609
3068.34601	1.25855
3066.41744	1.25953
3064.48888	1.25724
3062.56031	1.25448
3060.63175	1.25158
3058.70318	1.24693
3056.77462	1.24026
3054.84606	1.23338
3052.91749	1.22830
3050.98893	1.22391
3049.06036	1.21912
3047.13180	1.21375
3045.20323	1.20679
3043.27467	1.19966
3041.34610	1.19457
3039.41754	1.19012
3037.48898	1.18377
3035.56041	1.17588
3033.63185	1.16912
3031.70328	1.16413
3029.77472	1.15880
3027.84615	1.15283
3025.91759	1.14772
3023.98903	1.14407
3022.06046	1.14091
3020.13190	1.13615
3018.20333	1.13046
3016.27477	1.12639
3014.34620	1.12373
3012.41764	1.12130
3010.48907	1.11935
3008.56051	1.11774
3006.63195	1.11608
3004.70338	1.11485
3002.77482	1.11329
3000.84625	1.11068
2998.91769	1.10903
2996.98912	1.11022
2995.06056	1.11430
2993.13199	1.12020
2991.20343	1.12670
2989.27487	1.13361
2987.34630	1.14042
2985.41774	1.14671
2983.48917	1.15303
2981.56061	1.15986
2979.63204	1.16815
2977.70348	1.17781
2975.77491	1.18703
2973.84635	1.19484
2971.91779	1.20153
2969.98922	1.20830
2968.06066	1.21665
2966.13209	1.22519
2964.20353	1.23016
2962.27496	1.23061
2960.34640	1.22903
2958.41783	1.22599
2956.48927	1.21967
2954.56071	1.21098
2952.63214	1.20259
2950.70358	1.19603
2948.77501	1.19142
2946.84645	1.18862
2944.91788	1.18927
2942.98932	1.19397
2941.06075	1.20030
2939.13219	1.20741
2937.20363	1.21641
2935.27506	1.22597
2933.34650	1.23376
2931.41793	1.24030
2929.48937	1.24634
2927.56080	1.25088
2925.63224	1.25391
2923.70367	1.25599
2921.77511	1.25669
2919.84655	1.25479
2917.91798	1.24839
2915.98942	1.23514
2914.06085	1.21366
2912.13229	1.18771
2910.20372	1.16529
2908.27516	1.15017
2906.34659	1.13949
2904.41803	1.12983
2902.48947	1.12099
2900.56090	1.11418
2898.63234	1.10975
2896.70377	1.10717
2894.77521	1.10475
2892.84664	1.10108
2890.91808	1.09710
2888.98952	1.09328
2887.06095	1.08870
2885.13239	1.08470
2883.20382	1.08375
2881.27526	1.08556
2879.34669	1.08799
2877.41813	1.08973
2875.48956	1.09025
2873.56100	1.08904
2871.63244	1.08494
2869.70387	1.07742
2867.77531	1.06871
2865.84674	1.06085
2863.91818	1.05391
2861.98961	1.04891
2860.06105	1.04785
2858.13248	1.05132
2856.20392	1.05770
2854.27536	1.06454
2852.34679	1.06962
2850.41823	1.06838
2848.48966	1.05475
2846.56110	1.03041
2844.63253	1.00491
2842.70397	0.98503
2840.77540	0.97122
2838.84684	0.96105
2836.91828	0.95300
2834.98971	0.94681
2833.06115	0.94150
2831.13258	0.93660
2829.20402	0.93281
2827.27545	0.93009
2825.34689	0.92732
2823.41832	0.92337
2821.48976	0.91887
2819.56120	0.91530
2817.63263	0.91248
2815.70407	0.90953
2813.77550	0.90611
2811.84694	0.90216
2809.91837	0.89828
2807.98981	0.89506
2806.06124	0.89181
2804.13268	0.88787
2802.20412	0.88433
2800.27555	0.88162
2798.34699	0.87835
2796.41842	0.87429
2794.48986	0.87058
2792.56129	0.86752
2790.63273	0.86495
2788.70416	0.86249
2786.77560	0.85989
2784.84704	0.85743
2782.91847	0.85488
2780.98991	0.85197
2779.06134	0.84943
2777.13278	0.84695
2775.20421	0.84409
2773.27565	0.84239
2771.34708	0.84184
2769.41852	0.84040
2767.48996	0.83805
2765.56139	0.83633
2763.63283	0.83537
2761.70426	0.83377
2759.77570	0.83073
2757.84713	0.82777
2755.91857	0.82638
2753.99001	0.82516
2752.06144	0.82267
2750.13288	0.82003
2748.20431	0.81839
2746.27575	0.81713
2744.34718	0.81508
2742.41862	0.81197
2740.49005	0.80882
2738.56149	0.80655
2736.63293	0.80479
2734.70436	0.80289
2732.77580	0.80065
2730.84723	0.79779
2728.91867	0.79448
2726.99010	0.79138
2725.06154	0.78878
2723.13297	0.78632
2721.20441	0.78354
2719.27585	0.78054
2717.34728	0.77793
2715.41872	0.77624
2713.49015	0.77519
2711.56159	0.77378
2709.63302	0.77192
2707.70446	0.77034
2705.77589	0.76921
2703.84733	0.76848
2701.91877	0.76797
2699.99020	0.76715
2698.06164	0.76615
2696.13307	0.76548
2694.20451	0.76504
2692.27594	0.76457
2690.34738	0.76422
2688.41881	0.76400
2686.49025	0.76367
2684.56169	0.76313
2682.63312	0.76263
2680.70456	0.76216
2678.77599	0.76108
2676.84743	0.75933
2674.91886	0.75771
2672.99030	0.75651
2671.06173	0.75516
2669.13317	0.75344
2667.20461	0.75180
2665.27604	0.75058
2663.34748	0.74978
2661.41891	0.74896
2659.49035	0.74741
2657.56178	0.74533
2655.63322	0.74368
2653.70465	0.74265
2651.77609	0.74168
2649.84753	0.74082
2647.91896	0.74037
2645.99040	0.73970
2644.06183	0.73866
2642.13327	0.73819
2640.20470	0.73836
2638.27614	0.73864
2636.34757	0.73872
2634.41901	0.73833
2632.49045	0.73786
2630.56188	0.73764
2628.63332	0.73738
2626.70475	0.73695
2624.77619	0.73645
2622.84762	0.73588
2620.91906	0.73520
2618.99049	0.73438
2617.06193	0.73352
2615.13337	0.73254
2613.20480	0.73132
2611.27624	0.73006
2609.34767	0.72885
2607.41911	0.72735
2605.49054	0.72548
2603.56198	0.72334
2601.63342	0.72102
2599.70485	0.71911
2597.77629	0.71789
2595.84772	0.71682
2593.91916	0.71540
2591.99059	0.71342
2590.06203	0.71114
2588.13346	0.70914
2586.20490	0.70774
2584.27634	0.70674
2582.34777	0.70579
2580.41921	0.70489
2578.49064	0.70420
2576.56208	0.70348
2574.63351	0.70246
2572.70495	0.70146
2570.77638	0.70083
2568.84782	0.70028
2566.91926	0.69975
2564.99069	0.69957
2563.06213	0.69955
2561.13356	0.69929
2559.20500	0.69871
2557.27643	0.69804
2555.34787	0.69737
2553.41930	0.69647
2551.49074	0.69542
2549.56218	0.69449
2547.63361	0.69359
2545.70505	0.69249
2543.77648	0.69139
2541.84792	0.69041
2539.91935	0.68928
2537.99079	0.68794
2536.06222	0.68678
2534.13366	0.68561
2532.20510	0.68384
2530.27653	0.68184
2528.34797	0.68047
2526.41940	0.67947
2524.49084	0.67794
2522.56227	0.67620
2520.63371	0.67504
2518.70514	0.67428
2516.77658	0.67347
2514.84802	0.67249
2512.91945	0.67154
2510.99089	0.67081
2509.06232	0.67020
2507.13376	0.66958
2505.20519	0.66890
2503.27663	0.66794
2501.34806	0.66689
2499.41950	0.66610
2497.49094	0.66539
2495.56237	0.66450
2493.63381	0.66350
2491.70524	0.66260
2489.77668	0.66167
2487.84811	0.66049
2485.91955	0.65934
2483.99098	0.65858
2482.06242	0.65790
2480.13386	0.65676
2478.20529	0.65536
2476.27673	0.65425
2474.34816	0.65340
2472.41960	0.65242
2470.49103	0.65101
2468.56247	0.64942
2466.63391	0.64808
2464.70534	0.64681
2462.77678	0.64549
2460.84821	0.64447
2458.91965	0.64361
2456.99108	0.64239
2455.06252	0.64088
2453.13395	0.63977
2451.20539	0.63940
2449.27683	0.63929
2447.34826	0.63894
2445.41970	0.63824
2443.49113	0.63757
2441.56257	0.63741
2439.63400	0.63765
2437.70544	0.63781
2435.77687	0.63768
2433.84831	0.63746
2431.91975	0.63730
2429.99118	0.63702
2428.06262	0.63645
2426.13405	0.63587
2424.20549	0.63569
2422.27692	0.63559
2420.34836	0.63496
2418.41979	0.63393
2416.49123	0.63299
2414.56267	0.63226
2412.63410	0.63159
2410.70554	0.63092
2408.77697	0.63019
2406.84841	0.62926
2404.91984	0.62828
2402.99128	0.62727
2401.06271	0.62597
2399.13415	0.62456
2397.20559	0.62324
2395.27702	0.62196
2393.34846	0.62097
2391.41989	0.62054
2389.49133	0.62045
2387.56276	0.62021
2385.63420	0.61999
2383.70563	0.62021
2381.77707	0.62092
2379.84851	0.62195
2377.91994	0.62289
2375.99138	0.62378
2374.06281	0.62523
2372.13425	0.62716
2370.20568	0.62903
2368.27712	0.63062
2366.34855	0.63213
2364.41999	0.63410
2362.49143	0.63546
2360.56286	0.63495
2358.63430	0.63395
2356.70573	0.63232
2354.77717	0.62980
2352.84860	0.62749
2350.92004	0.62588
2348.99147	0.62541
2347.06291	0.62600
2345.13435	0.62632
2343.20578	0.62473
2341.27722	0.62213
2339.34865	0.61982
2337.42009	0.61780
2335.49152	0.61674
2333.56296	0.61735
2331.63440	0.61873
2329.70583	0.61942
2327.77727	0.61879
2325.84870	0.61694
2323.92014	0.61453
2321.99157	0.61295
2320.06301	0.61283
2318.13444	0.61307
2316.20588	0.61296
2314.27732	0.61253
2312.34875	0.61174
2310.42019	0.61067
2308.49162	0.60967
2306.56306	0.60891
2304.63449	0.60828
2302.70593	0.60789
2300.77736	0.60789
2298.84880	0.60798
2296.92024	0.60789
2294.99167	0.60762
2293.06311	0.60733
2291.13454	0.60702
2289.20598	0.60649
2287.27741	0.60567
2285.34885	0.60473
2283.42028	0.60394
2281.49172	0.60322
2279.56316	0.60232
2277.63459	0.60123
2275.70603	0.60012
2273.77746	0.59909
2271.84890	0.59815
2269.92033	0.59721
2267.99177	0.59624
2266.06320	0.59516
2264.13464	0.59408
2262.20608	0.59332
2260.27751	0.59289
2258.34895	0.59266
2256.42038	0.59267
2254.49182	0.59274
2252.56325	0.59258
2250.63469	0.59228
2248.70612	0.59206
2246.77756	0.59207
2244.84900	0.59235
2242.92043	0.59283
2240.99187	0.59349
2239.06330	0.59414
2237.13474	0.59457
2235.20617	0.59505
2233.27761	0.59571
2231.34904	0.59651
2229.42048	0.59732
2227.49192	0.59792
2225.56335	0.59839
2223.63479	0.59887
2221.70622	0.59931
2219.77766	0.59978
2217.84909	0.60033
2215.92053	0.60081
2213.99196	0.60106
2212.06340	0.60090
2210.13484	0.60039
2208.20627	0.59991
2206.27771	0.59954
2204.34914	0.59913
2202.42058	0.59859
2200.49201	0.59794
2198.56345	0.59732
2196.63488	0.59667
2194.70632	0.59591
2192.77776	0.59517
2190.84919	0.59471
2188.92063	0.59472
2186.99206	0.59517
2185.06350	0.59575
2183.13493	0.59609
2181.20637	0.59603
2179.27781	0.59586
2177.34924	0.59592
2175.42068	0.59613
2173.49211	0.59648
2171.56355	0.59710
2169.63498	0.59794
2167.70642	0.59879
2165.77785	0.59928
2163.84929	0.59932
2161.92073	0.59945
2159.99216	0.59981
2158.06360	0.60005
2156.13503	0.60021
2154.20647	0.60029
2152.27790	0.59994
2150.34934	0.59932
2148.42077	0.59879
2146.49221	0.59822
2144.56365	0.59741
2142.63508	0.59636
2140.70652	0.59530
2138.77795	0.59435
2136.84939	0.59337
2134.92082	0.59220
2132.99226	0.59092
2131.06369	0.58967
2129.13513	0.58857
2127.20657	0.58769
2125.27800	0.58699
2123.34944	0.58635
2121.42087	0.58568
2119.49231	0.58506
2117.56374	0.58458
2115.63518	0.58413
2113.70661	0.58362
2111.77805	0.58303
2109.84949	0.58251
2107.92092	0.58232
2105.99236	0.58249
2104.06379	0.58269
2102.13523	0.58257
2100.20666	0.58225
2098.27810	0.58187
2096.34953	0.58149
2094.42097	0.58118
2092.49241	0.58100
2090.56384	0.58095
2088.63528	0.58096
2086.70671	0.58092
2084.77815	0.58073
2082.84958	0.58053
2080.92102	0.58033
2078.99245	0.57985
2077.06389	0.57905
2075.13533	0.57834
2073.20676	0.57789
2071.27820	0.57741
2069.34963	0.57692
2067.42107	0.57672
2065.49250	0.57656
2063.56394	0.57612
2061.63537	0.57569
2059.70681	0.57557
2057.77825	0.57556
2055.84968	0.57543
2053.92112	0.57530
2051.99255	0.57516
2050.06399	0.57500
2048.13542	0.57501
2046.20686	0.57530
2044.27830	0.57585
2042.34973	0.57645
2040.42117	0.57691
2038.49260	0.57720
2036.56404	0.57733
2034.63547	0.57742
2032.70691	0.57772
2030.77834	0.57819
2028.84978	0.57846
2026.92122	0.57852
2024.99265	0.57857
2023.06409	0.57856
2021.13552	0.57840
2019.20696	0.57807
2017.27839	0.57753
2015.34983	0.57689
2013.42126	0.57625
2011.49270	0.57558
2009.56414	0.57496
2007.63557	0.57409
2005.70701	0.57270
2003.77844	0.57111
2001.84988	0.56958
1999.92131	0.56813
1997.99275	0.56678
1996.06418	0.56559
1994.13562	0.56460
1992.20706	0.56378
1990.27849	0.56296
1988.34993	0.56223
1986.42136	0.56170
1984.49280	0.56123
1982.56423	0.56082
1980.63567	0.56055
1978.70710	0.56036
1976.77854	0.56026
1974.84998	0.56049
1972.92141	0.56102
1970.99285	0.56155
1969.06428	0.56208
1967.13572	0.56241
1965.20715	0.56223
1963.27859	0.56197
1961.35002	0.56196
1959.42146	0.56197
1957.49290	0.56186
1955.56433	0.56160
1953.63577	0.56110
1951.70720	0.56036
1949.77864	0.55949
1947.85007	0.55864
1945.92151	0.55788
1943.99294	0.55675
1942.06438	0.55461
1940.13582	0.55220
1938.20725	0.55029
1936.27869	0.54850
1934.35012	0.54651
1932.42156	0.54445
1930.49299	0.54255
1928.56443	0.54089
1926.63586	0.53961
1924.70730	0.53863
1922.77874	0.53736
1920.85017	0.53581
1918.92161	0.53431
1916.99304	0.53296
1915.06448	0.53193
1913.13591	0.53113
1911.20735	0.53055
1909.27878	0.53013
1907.35022	0.52966
1905.42166	0.52929
1903.49309	0.52902
1901.56453	0.52848
1899.63596	0.52776
1897.70740	0.52723
1895.77883	0.52687
1893.85027	0.52639
1891.92171	0.52588
1889.99314	0.52545
1888.06458	0.52494
1886.13601	0.52443
1884.20745	0.52386
1882.27888	0.52313
1880.35032	0.52221
1878.42175	0.52109
1876.49319	0.51982
1874.56463	0.51859
1872.63606	0.51777
1870.70750	0.51710
1868.77893	0.51541
1866.85037	0.51288
1864.92180	0.51085
1862.99324	0.50924
1861.06467	0.50766
1859.13611	0.50603
1857.20755	0.50451
1855.27898	0.50335
1853.35042	0.50240
1851.42185	0.50144
1849.49329	0.50073
1847.56472	0.50043
1845.63616	0.50015
1843.70759	0.49900
1841.77903	0.49763
1839.85047	0.49697
1837.92190	0.49674
1835.99334	0.49655
1834.06477	0.49636
1832.13621	0.49633
1830.20764	0.49626
1828.27908	0.49596
1826.35051	0.49574
1824.42195	0.49556
1822.49339	0.49535
1820.56482	0.49517
1818.63626	0.49505
1816.70769	0.49496
1814.77913	0.49501
1812.85056	0.49515
1810.92200	0.49495
1808.99343	0.49444
1807.06487	0.49400
1805.13631	0.49372
1803.20774	0.49356
1801.27918	0.49340
1799.35061	0.49296
1797.42205	0.49250
1795.49348	0.49236
1793.56492	0.49215
1791.63635	0.49114
1789.70779	0.48978
1787.77923	0.48892
1785.85066	0.48844
1783.92210	0.48822
1781.99353	0.48806
1780.06497	0.48763
1778.13640	0.48743
1776.20784	0.48776
1774.27927	0.48843
1772.35071	0.48912
1770.42215	0.48964
1768.49358	0.49022
1766.56502	0.49098
1764.63645	0.49225
1762.70789	0.49449
1760.77932	0.49751
1758.85076	0.50081
1756.92220	0.50518
1754.99363	0.51012
1753.06507	0.51540
1751.13650	0.52312
1749.20794	0.53314
1747.27937	0.54186
1745.35081	0.54908
1743.42224	0.55575
1741.49368	0.56197
1739.56512	0.56750
1737.63655	0.57158
1735.70799	0.57505
1733.77942	0.57980
1731.85086	0.58341
1729.92229	0.58591
1727.99373	0.58930
1726.06516	0.59379
1724.13660	0.59986
1722.20804	0.60658
1720.27947	0.61340
1718.35091	0.62406
1716.42234	0.64199
1714.49378	0.65812
1712.56521	0.67212
1710.63665	0.68856
1708.70808	0.70888
1706.77952	0.73856
1704.85096	0.77830
1702.92239	0.81471
1700.99383	0.86338
1699.06526	0.94155
1697.13670	1.01633
1695.20813	1.08802
1693.27957	1.14045
1691.35100	1.18058
1689.42244	1.22744
1687.49388	1.26918
1685.56531	1.30571
1683.63675	1.35433
1681.70818	1.38569
1679.77962	1.40080
1677.85105	1.41338
1675.92249	1.42505
1673.99392	1.43322
1672.06536	1.43682
1670.13680	1.43856
1668.20823	1.44220
1666.27967	1.44422
1664.35110	1.44421
1662.42254	1.44212
1660.49397	1.43971
1658.56541	1.43888
1656.63684	1.43655
1654.70828	1.43097
1652.77972	1.42233
1650.85115	1.42126
1648.92259	1.42321
1646.99402	1.42447
1645.06546	1.42371
1643.13689	1.41958
1641.20833	1.41454
1639.27976	1.41020
1637.35120	1.40661
1635.42264	1.40117
1633.49407	1.39576
1631.56551	1.39220
1629.63694	1.38766
1627.70838	1.38113
1625.77981	1.37289
1623.85125	1.36232
1621.92269	1.35076
1619.99412	1.34282
1618.06556	1.33485
1616.13699	1.31792
1614.20843	1.29912
1612.27986	1.28301
1610.35130	1.26565
1608.42273	1.24658
1606.49417	1.22943
1604.56561	1.21650
1602.63704	1.20711
1600.70848	1.20100
1598.77991	1.19718
1596.85135	1.19448
1594.92278	1.19264
1592.99422	1.19270
1591.06565	1.19537
1589.13709	1.20009
1587.20853	1.20689
1585.27996	1.21513
1583.35140	1.22400
1581.42283	1.23333
1579.49427	1.24290
1577.56570	1.25467
1575.63714	1.26935
1573.70857	1.27883
1571.78001	1.28553
1569.85145	1.29532
1567.92288	1.30510
1565.99432	1.31219
1564.06575	1.31861
1562.13719	1.32209
1560.20862	1.32506
1558.28006	1.33708
1556.35149	1.34422
1554.42293	1.34499
1552.49437	1.34477
1550.56580	1.34410
1548.63724	1.34221
1546.70867	1.34064
1544.78011	1.34054
1542.85154	1.34132
1540.92298	1.33720
1538.99441	1.32450
1537.06585	1.31769
1535.13729	1.31287
1533.20872	1.30612
1531.28016	1.29989
1529.35159	1.29584
1527.42303	1.29195
1525.49446	1.28780
1523.56590	1.28510
1521.63733	1.28303
1519.70877	1.28058
1517.78021	1.27433
1515.85164	1.26323
1513.92308	1.25257
1511.99451	1.24264
1510.06595	1.23143
1508.13738	1.21153
1506.20882	1.17835
1504.28025	1.16113
1502.35169	1.14952
1500.42313	1.13496
1498.49456	1.11481
1496.56600	1.08992
1494.63743	1.07047
1492.70887	1.05676
1490.78030	1.03965
1488.85174	1.01534
1486.92317	0.99541
1484.99461	0.98252
1483.06605	0.97338
1481.13748	0.96699
1479.20892	0.96438
1477.28035	0.96660
1475.35179	0.97401
1473.42322	0.98849
1471.49466	1.00553
1469.56610	1.01577
1467.63753	1.02311
1465.70897	1.03215
1463.78040	1.04174
1461.85184	1.04811
1459.92327	1.05370
1457.99471	1.06453
1456.06614	1.07632
1454.13758	1.07900
1452.20902	1.07955
1450.28045	1.07996
1448.35189	1.07906
1446.42332	1.07650
1444.49476	1.07313
1442.56619	1.06883
1440.63763	1.06406
1438.70906	1.05835
1436.78050	1.04887
1434.85194	1.03799
1432.92337	1.02961
1430.99481	1.02130
1429.06624	1.01286
1427.13768	1.00713
1425.20911	1.00437
1423.28055	1.00382
1421.35198	1.00512
1419.42342	1.00812
1417.49486	1.01061
1415.56629	1.01101
1413.63773	1.01145
1411.70916	1.01293
1409.78060	1.01511
1407.85203	1.01770
1405.92347	1.02156
1403.99490	1.02622
1402.06634	1.02989
1400.13778	1.03305
1398.20921	1.03625
1396.28065	1.03949
1394.35208	1.04302
1392.42352	1.04631
1390.49495	1.05004
1388.56639	1.05674
1386.63782	1.06740
1384.70926	1.07759
1382.78070	1.08488
1380.85213	1.08897
1378.92357	1.08912
1376.99500	1.08524
1375.06644	1.07590
1373.13787	1.06183
1371.20931	1.04735
1369.28074	1.03071
1367.35218	1.01170
1365.42362	0.99461
1363.49505	0.97788
1361.56649	0.96092
1359.63792	0.94871
1357.70936	0.94059
1355.78079	0.93382
1353.85223	0.92824
1351.92366	0.92432
1349.99510	0.92155
1348.06654	0.91956
1346.13797	0.91848
1344.20941	0.91845
1342.28084	0.91959
1340.35228	0.92229
1338.42371	0.92658
1336.49515	0.93206
1334.56659	0.93918
1332.63802	0.94818
1330.70946	0.95811
1328.78089	0.96731
1326.85233	0.97504
1324.92376	0.98186
1322.99520	0.98850
1321.06663	0.99516
1319.13807	1.00169
1317.20951	1.00753
1315.28094	1.01215
1313.35238	1.01524
1311.42381	1.01634
1309.49525	1.01582
1307.56668	1.01421
1305.63812	1.01156
1303.70955	1.00798
1301.78099	1.00310
1299.85243	0.99632
1297.92386	0.98750
1295.99530	0.97739
1294.06673	0.96763
1292.13817	0.95924
1290.20960	0.95213
1288.28104	0.94589
1286.35247	0.93989
1284.42391	0.93398
1282.49535	0.92879
1280.56678	0.92462
1278.63822	0.92157
1276.70965	0.92041
1274.78109	0.92179
1272.85252	0.92564
1270.92396	0.93164
1268.99539	0.93911
1267.06683	0.94720
1265.13827	0.95522
1263.20970	0.96259
1261.28114	0.96908
1259.35257	0.97517
1257.42401	0.98176
1255.49544	0.98925
1253.56688	0.99709
1251.63831	1.00474
1249.70975	1.01219
1247.78119	1.01892
1245.85262	1.02438
1243.92406	1.02887
1241.99549	1.03257
1240.06693	1.03507
1238.13836	1.03581
1236.20980	1.03433
1234.28123	1.03076
1232.35267	1.02560
1230.42411	1.01859
1228.49554	1.00945
1226.56698	0.99872
1224.63841	0.98698
1222.70985	0.97447
1220.78128	0.96145
1218.85272	0.94870
1216.92415	0.93718
1214.99559	0.92760
1213.06703	0.92057
1211.13846	0.91607
1209.20990	0.91289
1207.28133	0.90912
1205.35277	0.90328
1203.42420	0.89516
1201.49564	0.88603
1199.56708	0.87765
1197.63851	0.87079
1195.70995	0.86560
1193.78138	0.86269
1191.85282	0.86268
1189.92425	0.86573
1187.99569	0.87146
1186.06712	0.87925
1184.13856	0.88883
1182.21000	0.90022
1180.28143	0.91338
1178.35287	0.92831
1176.42430	0.94443
1174.49574	0.96059
1172.56717	0.97599
1170.63861	0.99058
1168.71004	1.00506
1166.78148	1.02027
1164.85292	1.03563
1162.92435	1.04922
1160.99579	1.05862
1159.06722	1.06110
1157.13866	1.05544
1155.21009	1.04314
1153.28153	1.02688
1151.35296	1.00820
1149.42440	0.98846
1147.49584	0.97040
1145.56727	0.95614
1143.63871	0.94606
1141.71014	0.94043
1139.78158	0.93928
1137.85301	0.94188
1135.92445	0.94805
1133.99588	0.95831
1132.06732	0.97268
1130.13876	0.98995
1128.21019	1.00809
1126.28163	1.02592
1124.35306	1.04318
1122.42450	1.05881
1120.49593	1.07195
1118.56737	1.08230
1116.63880	1.08837
1114.71024	1.08935
1112.78168	1.08743
1110.85311	1.08455
1108.92455	1.08035
1106.99598	1.07480
1105.06742	1.06902
1103.13885	1.06404
1101.21029	1.06066
1099.28172	1.05880
1097.35316	1.05810
1095.42460	1.05957
1093.49603	1.06374
1091.56747	1.06941
1089.63890	1.07592
1087.71034	1.08364
1085.78177	1.09313
1083.85321	1.10377
1081.92464	1.11242
1079.99608	1.11522
1078.06752	1.11017
1076.13895	1.09883
1074.21039	1.08454
1072.28182	1.06853
1070.35326	1.05104
1068.42469	1.03405
1066.49613	1.01924
1064.56756	1.00642
1062.63900	0.99511
1060.71044	0.98511
1058.78187	0.97665
1056.85331	0.97034
1054.92474	0.96662
1052.99618	0.96610
1051.06761	0.96896
1049.13905	0.97455
1047.21049	0.98285
1045.28192	0.99461
1043.35336	1.00928
1041.42479	1.02398
1039.49623	1.03627
1037.56766	1.04559
1035.63910	1.05165
1033.71053	1.05521
1031.78197	1.05664
1029.85341	1.05398
1027.92484	1.04621
1025.99628	1.03534
1024.06771	1.02378
1022.13915	1.01168
1020.21058	0.99884
1018.28202	0.98622
1016.35345	0.97280
1014.42489	0.95550
1012.49633	0.93352
1010.56776	0.90871
1008.63920	0.88302
1006.71063	0.85811
1004.78207	0.83557
1002.85350	0.81669
1000.92494	0.80246
998.99637	0.79290
997.06781	0.78713
995.13925	0.78416
993.21068	0.78303
991.28212	0.78320
989.35355	0.78510
987.42499	0.78934
985.49642	0.79595
983.56786	0.80498
981.63929	0.81636
979.71073	0.82955
977.78217	0.84325
975.85360	0.85552
973.92504	0.86502
971.99647	0.87151
970.06791	0.87561
968.13934	0.87891
966.21078	0.88313
964.28221	0.88941
962.35365	0.89879
960.42509	0.91219
958.49652	0.92863
956.56796	0.94356
954.63939	0.95125
952.71083	0.95042
950.78226	0.94392
948.85370	0.93464
946.92513	0.92521
944.99657	0.91760
943.06801	0.91209
941.13944	0.90819
939.21088	0.90536
937.28231	0.90320
935.35375	0.90179
933.42518	0.90144
931.49662	0.90223
929.56805	0.90435
927.63949	0.90776
925.71093	0.91213
923.78236	0.91753
921.85380	0.92374
919.92523	0.92959
917.99667	0.93413
916.06810	0.93767
914.13954	0.94156
912.21098	0.94613
910.28241	0.95078
908.35385	0.95588
906.42528	0.96155
904.49672	0.96678
902.56815	0.97067
900.63959	0.97277
898.71102	0.97264
896.78246	0.96993
894.85390	0.96491
892.92533	0.95840
890.99677	0.95091
889.06820	0.94290
887.13964	0.93536
885.21107	0.92813
883.28251	0.92062
881.35394	0.91421
879.42538	0.91008
877.49682	0.90735
875.56825	0.90472
873.63969	0.90183
871.71112	0.89952
869.78256	0.89839
867.85399	0.89836
865.92543	0.89977
863.99686	0.90267
862.06830	0.90640
860.13974	0.91061
858.21117	0.91516
856.28261	0.91957
854.35404	0.92340
852.42548	0.92674
850.49691	0.92981
848.56835	0.93210
846.63978	0.93307
844.71122	0.93312
842.78266	0.93241
840.85409	0.93043
838.92553	0.92770
836.99696	0.92555
835.06840	0.92390
833.13983	0.92182
831.21127	0.91915
829.28270	0.91590
827.35414	0.91146
825.42558	0.90621
823.49701	0.90189
821.56845	0.89920
819.63988	0.89709
817.71132	0.89483
815.78275	0.89345
813.85419	0.89394
811.92562	0.89581
809.99706	0.89852
808.06850	0.90223
806.13993	0.90721
804.21137	0.91346
802.28280	0.92107
800.35424	0.93020
798.42567	0.94034
796.49711	0.95090
794.56854	0.96196
792.63998	0.97372
790.71142	0.98676
788.78285	1.00158
786.85429	1.01726
784.92572	1.03225
782.99716	1.04567
781.06859	1.05755
779.14003	1.06833
777.21147	1.07747
775.28290	1.08430
773.35434	1.08976
771.42577	1.09460
769.49721	1.09796
767.56864	1.09930
765.64008	1.09927
763.71151	1.09847
761.78295	1.09717
759.85439	1.09528
757.92582	1.09298
755.99726	1.09200
754.06869	1.09312
752.14013	1.09472
750.21156	1.09567
748.28300	1.09719
746.35443	1.10060
744.42587	1.10480
742.49731	1.10851
740.56874	1.11266
738.64018	1.11805
736.71161	1.12429
734.78305	1.13165
732.85448	1.14119
730.92592	1.15293
728.99735	1.16472
727.06879	1.17428
725.14023	1.18223
723.21166	1.19001
721.28310	1.19639
719.35453	1.20000
717.42597	1.20191
715.49740	1.20197
713.56884	1.19941
711.64027	1.19582
709.71171	1.19136
707.78315	1.18431
705.85458	1.17475
703.92602	1.16351
701.99745	1.15189
700.06889	1.14195
698.14032	1.13414
696.21176	1.12684
694.28319	1.11847
692.35463	1.10992
690.42607	1.10314
688.49750	1.09811
686.56894	1.09470
684.64037	1.09411
682.71181	1.09579
680.78324	1.09790
678.85468	1.10122
676.92611	1.10672
674.99755	1.11238
673.06899	1.11732
671.14042	1.12372
669.21186	1.13584
667.28329	1.14997
665.35473	1.15650
663.42616	1.16166
661.49760	1.16690
659.56903	1.17028
657.64047	1.17243
655.71191	1.17299
653.78334	1.17035
651.85478	1.16442
649.92621	1.15544
647.99765	1.14512
646.06908	1.13529
644.14052	1.12368
642.21195	1.10936
640.28339	1.09525
638.35483	1.08287
636.42626	1.07207
634.49770	1.06298
632.56913	1.05438
630.64057	1.04448
628.71200	1.03356
626.78344	1.02280
624.85488	1.01473
622.92631	1.01148
620.99775	1.01177
619.06918	1.01275
617.14062	1.01220
615.21205	1.01073
613.28349	1.00983
611.35492	1.01079
609.42636	1.01605
607.49780	1.02457
605.56923	1.03248
603.64067	1.04012
601.71210	1.05063
599.78354	1.06442
