3997.91406	0.70694
3995.98550	0.70677
3994.05693	0.70729
3992.12837	0.70787
3990.19980	0.70782
3988.27124	0.70692
3986.34268	0.70608
3984.41411	0.70606
3982.48555	0.70574
3980.55698	0.70518
3978.62842	0.70608
3976.69985	0.70727
3974.77129	0.70625
3972.84272	0.70395
3970.91416	0.70294
3968.98560	0.70381
3967.05703	0.70481
3965.12847	0.70418
3963.19990	0.70299
3961.27134	0.70315
3959.34277	0.70406
3957.41421	0.70418
3955.48564	0.70391
3953.55708	0.70442
3951.62852	0.70461
3949.69995	0.70274
3947.77139	0.70030
3945.84282	0.69912
3943.91426	0.69857
3941.98569	0.69869
3940.05713	0.69923
3938.12856	0.69890
3936.20000	0.69842
3934.27144	0.69832
3932.34287	0.69742
3930.41431	0.69637
3928.48574	0.69682
3926.55718	0.69789
3924.62861	0.69748
3922.70005	0.69594
3920.77148	0.69510
3918.84292	0.69401
3916.91436	0.69273
3914.98579	0.69335
3913.05723	0.69463
3911.12866	0.69455
3909.20010	0.69438
3907.27153	0.69601
3905.34297	0.69717
3903.41440	0.69423
3901.48584	0.69169
3899.55728	0.69216
3897.62871	0.69111
3895.70015	0.68839
3893.77158	0.68600
3891.84302	0.68439
3889.91445	0.68516
3887.98589	0.68859
3886.05733	0.69106
3884.12876	0.68867
3882.20020	0.68447
3880.27163	0.68244
3878.34307	0.68334
3876.41450	0.68494
3874.48594	0.68524
3872.55737	0.68367
3870.62881	0.68162
3868.70025	0.68045
3866.77168	0.67999
3864.84312	0.68038
3862.91455	0.68157
3860.98599	0.68201
3859.05742	0.68182
3857.12886	0.68123
3855.20029	0.67985
3853.27173	0.67883
3851.34317	0.67893
3849.41460	0.67874
3847.48604	0.67853
3845.55747	0.67854
3843.62891	0.67931
3841.70034	0.68131
3839.77178	0.68288
3837.84321	0.68181
3835.91465	0.68118
3833.98609	0.68270
3832.05752	0.68276
3830.12896	0.68026
3828.20039	0.67870
3826.27183	0.67890
3824.34326	0.67879
3822.41470	0.67816
3820.48613	0.67735
3818.55757	0.67685
3816.62901	0.67632
3814.70044	0.67463
3812.77188	0.67313
3810.84331	0.67293
3808.91475	0.67369
3806.98618	0.67479
3805.05762	0.67597
3803.12905	0.67648
3801.20049	0.67479
3799.27193	0.67204
3797.34336	0.67056
3795.41480	0.67141
3793.48623	0.67258
3791.55767	0.67171
3789.62910	0.66971
3787.70054	0.66880
3785.77197	0.66959
3783.84341	0.67064
3781.91485	0.67083
3779.98628	0.67045
3778.05772	0.67019
3776.12915	0.66960
3774.20059	0.66875
3772.27202	0.66933
3770.34346	0.67111
3768.41489	0.67148
3766.48633	0.67071
3764.55777	0.66971
3762.62920	0.66857
3760.70064	0.66755
3758.77207	0.66694
3756.84351	0.66682
3754.91494	0.66663
3752.98638	0.66567
3751.05781	0.66488
3749.12925	0.66633
3747.20069	0.66755
3745.27212	0.66810
3743.34356	0.66892
3741.41499	0.66979
3739.48643	0.67044
3737.55786	0.67046
3735.62930	0.66823
3733.70074	0.66586
3731.77217	0.66761
3729.84361	0.67079
3727.91504	0.67249
3725.98648	0.67145
3724.05791	0.66926
3722.12935	0.66850
3720.20078	0.66898
3718.27222	0.66937
3716.34366	0.66864
3714.41509	0.66733
3712.48653	0.66675
3710.55796	0.66751
3708.62940	0.66884
3706.70083	0.67015
3704.77227	0.67114
3702.84370	0.67176
3700.91514	0.67197
3698.98658	0.67186
3697.05801	0.67201
3695.12945	0.67264
3693.20088	0.67443
3691.27232	0.67936
3689.34375	0.68607
3687.41519	0.68843
3685.48662	0.68856
3683.55806	0.68904
3681.62950	0.69037
3679.70093	0.69283
3677.77237	0.69748
3675.84380	0.70700
3673.91524	0.71462
3671.98667	0.71652
3670.05811	0.71940
3668.12954	0.72453
3666.20098	0.72919
3664.27242	0.73440
3662.34385	0.74106
3660.41529	0.74854
3658.48672	0.75546
3656.55816	0.76169
3654.62959	0.76766
3652.70103	0.77386
3650.77246	0.78121
3648.84390	0.79126
3646.91534	0.80205
3644.98677	0.80976
3643.05821	0.81562
3641.12964	0.82196
3639.20108	0.83035
3637.27251	0.83985
3635.34395	0.84919
3633.41538	0.85835
3631.48682	0.86691
3629.55826	0.87854
3627.62969	0.89200
3625.70113	0.90000
3623.77256	0.90715
3621.84400	0.91598
3619.91543	0.92757
3617.98687	0.94003
3616.05830	0.94859
3614.12974	0.95506
3612.20118	0.96289
3610.27261	0.97218
3608.34405	0.98467
3606.41548	0.99840
3604.48692	1.00667
3602.55835	1.01278
3600.62979	1.02266
3598.70123	1.03453
3596.77266	1.04496
3594.84410	1.05576
3592.91553	1.06756
3590.98697	1.07832
3589.05840	1.08853
3587.12984	1.09875
3585.20127	1.10760
3583.27271	1.11577
3581.34415	1.12566
3579.41558	1.13778
3577.48702	1.14987
3575.55845	1.16082
3573.62989	1.16941
3571.70132	1.17581
3569.77276	1.18216
3567.84419	1.19255
3565.91563	1.20974
3563.98707	1.22415
3562.05850	1.23378
3560.12994	1.24328
3558.20137	1.25302
3556.27281	1.25987
3554.34424	1.26735
3552.41568	1.28086
3550.48711	1.29449
3548.55855	1.30398
3546.62999	1.31401
3544.70142	1.32483
3542.77286	1.33100
3540.84429	1.33567
3538.91573	1.34621
3536.98716	1.36123
3535.05860	1.37239
3533.13003	1.37753
3531.20147	1.37965
3529.27291	1.38040
3527.34434	1.38415
3525.41578	1.39522
3523.48721	1.41125
3521.55865	1.42472
3519.63008	1.43239
3517.70152	1.43711
3515.77295	1.44210
3513.84439	1.45050
3511.91583	1.45850
3509.98726	1.46445
3508.05870	1.47654
3506.13013	1.49149
3504.20157	1.50138
3502.27300	1.51022
3500.34444	1.52356
3498.41587	1.53622
3496.48731	1.54342
3494.55875	1.54849
3492.63018	1.55592
3490.70162	1.56843
3488.77305	1.58048
3486.84449	1.58286
3484.91592	1.58146
3482.98736	1.58513
3481.05879	1.59045
3479.13023	1.59489
3477.20167	1.60297
3475.27310	1.61153
3473.34454	1.61616
3471.41597	1.62423
3469.48741	1.63768
3467.55884	1.64034
3465.63028	1.62936
3463.70171	1.62313
3461.77315	1.62407
3459.84459	1.62619
3457.91602	1.62882
3455.98746	1.62650
3454.05889	1.61977
3452.13033	1.62253
3450.20176	1.63973
3448.27320	1.65460
3446.34464	1.65264
3444.41607	1.64021
3442.48751	1.62934
3440.55894	1.62773
3438.63038	1.63242
3436.70181	1.63894
3434.77325	1.64904
3432.84468	1.66041
3430.91612	1.66258
3428.98756	1.65239
3427.05899	1.64346
3425.13043	1.64441
3423.20186	1.65072
3421.27330	1.65609
3419.34473	1.65650
3417.41617	1.65384
3415.48760	1.65209
3413.55904	1.65097
3411.63048	1.65164
3409.70191	1.65532
3407.77335	1.65608
3405.84478	1.65405
3403.91622	1.65939
3401.98765	1.67108
3400.05909	1.67795
3398.13052	1.67670
3396.20196	1.67350
3394.27340	1.67409
3392.34483	1.67295
3390.41627	1.66551
3388.48770	1.66082
3386.55914	1.66190
3384.63057	1.66411
3382.70201	1.66678
3380.77344	1.66656
3378.84488	1.66238
3376.91632	1.66041
3374.98775	1.66236
3373.05919	1.66745
3371.13062	1.67611
3369.20206	1.68419
3367.27349	1.68799
3365.34493	1.68577
3363.41636	1.67617
3361.48780	1.66504
3359.55924	1.66167
3357.63067	1.66726
3355.70211	1.67379
3353.77354	1.67851
3351.84498	1.68772
3349.91641	1.69971
3347.98785	1.70429
3346.05928	1.70139
3344.13072	1.69999
3342.20216	1.70037
3340.27359	1.69622
3338.34503	1.68927
3336.41646	1.68876
3334.48790	1.69710
3332.55933	1.70322
3330.63077	1.70171
3328.70220	1.70053
3326.77364	1.70270
3324.84508	1.70404
3322.91651	1.70222
3320.98795	1.69933
3319.05938	1.69960
3317.13082	1.70265
3315.20225	1.70531
3313.27369	1.70911
3311.34513	1.71267
3309.41656	1.70912
3307.48800	1.70089
3305.55943	1.69468
3303.63087	1.69242
3301.70230	1.69619
3299.77374	1.70057
3297.84517	1.70099
3295.91661	1.70762
3293.98805	1.71971
3292.05948	1.72384
3290.13092	1.72327
3288.20235	1.72296
3286.27379	1.71787
3284.34522	1.70995
3282.41666	1.70412
3280.48809	1.70357
3278.55953	1.70846
3276.63097	1.71011
3274.70240	1.70329
3272.77384	1.69660
3270.84527	1.69319
3268.91671	1.68590
3266.98814	1.67906
3265.05958	1.67875
3263.13101	1.67602
3261.20245	1.66843
3259.27389	1.66414
3257.34532	1.66313
3255.41676	1.66032
3253.48819	1.65504
3251.55963	1.64903
3249.63106	1.64264
3247.70250	1.63671
3245.77393	1.63346
3243.84537	1.63282
3241.91681	1.63102
3239.98824	1.62631
3238.05968	1.62044
3236.13111	1.61497
3234.20255	1.61102
3232.27398	1.60596
3230.34542	1.59663
3228.41685	1.58714
3226.48829	1.58248
3224.55973	1.58234
3222.63116	1.58308
3220.70260	1.58153
3218.77403	1.57832
3216.84547	1.57634
3214.91690	1.57518
3212.98834	1.57152
3211.05977	1.56634
3209.13121	1.56230
3207.20265	1.55956
3205.27408	1.55723
3203.34552	1.55123
3201.41695	1.54148
3199.48839	1.53536
3197.55982	1.53380
3195.63126	1.53035
3193.70269	1.52564
3191.77413	1.52423
3189.84557	1.52373
3187.91700	1.52062
3185.98844	1.51629
3184.05987	1.51109
3182.13131	1.50359
3180.20274	1.49564
3178.27418	1.49011
3176.34562	1.48688
3174.41705	1.48474
3172.48849	1.48249
3170.55992	1.47980
3168.63136	1.47641
3166.70279	1.47152
3164.77423	1.46795
3162.84566	1.46625
3160.91710	1.46253
3158.98854	1.45655
3157.05997	1.45061
3155.13141	1.44534
3153.20284	1.43978
3151.27428	1.43522
3149.34571	1.43230
3147.41715	1.42825
3145.48858	1.42514
3143.56002	1.42569
3141.63146	1.42676
3139.70289	1.42484
3137.77433	1.42046
3135.84576	1.41761
3133.91720	1.41676
3131.98863	1.41712
3130.06007	1.42049
3128.13150	1.42229
3126.20294	1.41767
3124.27438	1.41223
3122.34581	1.40914
3120.41725	1.40455
3118.48868	1.40047
3116.56012	1.39994
3114.63155	1.39887
3112.70299	1.39531
3110.77442	1.39307
3108.84586	1.39323
3106.91730	1.39409
3104.98873	1.39587
3103.06017	1.39657
3101.13160	1.39361
3099.20304	1.38984
3097.27447	1.38657
3095.34591	1.38292
3093.41734	1.38097
3091.48878	1.38031
3089.56022	1.37835
3087.63165	1.37727
3085.70309	1.37859
3083.77452	1.37751
3081.84596	1.37224
3079.91739	1.36725
3077.98883	1.36434
3076.06026	1.36088
3074.13170	1.35661
3072.20314	1.35458
3070.27457	1.35461
3068.34601	1.35349
3066.41744	1.35016
3064.48888	1.34650
3062.56031	1.34562
3060.63175	1.34567
3058.70318	1.34085
3056.77462	1.33137
3054.84606	1.32278
3052.91749	1.31759
3050.98893	1.31377
3049.06036	1.30933
3047.13180	1.30470
3045.20323	1.29994
3043.27467	1.29519
3041.34610	1.29141
3039.41754	1.28912
3037.48898	1.28729
3035.56041	1.28348
3033.63185	1.27797
3031.70328	1.27231
3029.77472	1.26627
3027.84615	1.26104
3025.91759	1.25751
3023.98903	1.25517
3022.06046	1.25378
3020.13190	1.25117
3018.20333	1.24557
3016.27477	1.23998
3014.34620	1.23810
3012.41764	1.23820
3010.48907	1.23524
3008.56051	1.22922
3006.63195	1.22470
3004.70338	1.22184
3002.77482	1.21784
3000.84625	1.21436
2998.91769	1.21423
2996.98912	1.21633
2995.06056	1.21785
2993.13199	1.21849
2991.20343	1.22062
2989.27487	1.22579
2987.34630	1.23176
2985.41774	1.23560
2983.48917	1.23959
2981.56061	1.24655
2979.63204	1.25418
2977.70348	1.26149
2975.77491	1.27039
2973.84635	1.27893
2971.91779	1.28429
2969.98922	1.28894
2968.06066	1.29558
2966.13209	1.30265
2964.20353	1.30908
2962.27496	1.31329
2960.34640	1.31265
2958.41783	1.30964
2956.48927	1.30611
2954.56071	1.30011
2952.63214	1.29329
2950.70358	1.28805
2948.77501	1.28394
2946.84645	1.28195
2944.91788	1.28458
2942.98932	1.29210
2941.06075	1.30251
2939.13219	1.31267
2937.20363	1.32015
2935.27506	1.32623
2933.34650	1.33220
2931.41793	1.33768
2929.48937	1.34229
2927.56080	1.34570
2925.63224	1.34934
2923.70367	1.35250
2921.77511	1.35227
2919.84655	1.34839
2917.91798	1.34030
2915.98942	1.32616
2914.06085	1.30719
2912.13229	1.28781
2910.20372	1.27056
2908.27516	1.25563
2906.34659	1.24315
2904.41803	1.23274
2902.48947	1.22472
2900.56090	1.21952
2898.63234	1.21607
2896.70377	1.21317
2894.77521	1.20948
2892.84664	1.20390
2890.91808	1.19764
2888.98952	1.19282
2887.06095	1.18996
2885.13239	1.18863
2883.20382	1.18799
2881.27526	1.18670
2879.34669	1.18525
2877.41813	1.18559
2875.48956	1.18642
2873.56100	1.18433
2871.63244	1.17984
2869.70387	1.17507
2867.77531	1.16919
2865.84674	1.16177
2863.91818	1.15503
2861.98961	1.15094
2860.06105	1.15020
2858.13248	1.15274
2856.20392	1.15779
2854.27536	1.16388
2852.34679	1.16802
2850.41823	1.16595
2848.48966	1.15403
2846.56110	1.13340
2844.63253	1.11069
2842.70397	1.09103
2840.77540	1.07499
2838.84684	1.06173
2836.91828	1.05110
2834.98971	1.04310
2833.06115	1.03714
2831.13258	1.03262
2829.20402	1.02823
2827.27545	1.02290
2825.34689	1.01810
2823.41832	1.01458
2821.48976	1.01073
2819.56120	1.00654
2817.63263	1.00316
2815.70407	1.00009
2813.77550	0.99659
2811.84694	0.99256
2809.91837	0.98809
2807.98981	0.98401
2806.06124	0.98104
2804.13268	0.97870
2802.20412	0.97579
2800.27555	0.97208
2798.34699	0.96862
2796.41842	0.96561
2794.48986	0.96234
2792.56129	0.95830
2790.63273	0.95417
2788.70416	0.95112
2786.77560	0.94895
2784.84704	0.94657
2782.91847	0.94332
2780.98991	0.93979
2779.06134	0.93718
2777.13278	0.93489
2775.20421	0.93205
2773.27565	0.92958
2771.34708	0.92791
2769.41852	0.92601
2767.48996	0.92366
2765.56139	0.92137
2763.63283	0.91897
2761.70426	0.91667
2759.77570	0.91503
2757.84713	0.91381
2755.91857	0.91223
2753.99001	0.90981
2752.06144	0.90730
2750.13288	0.90517
2748.20431	0.90328
2746.27575	0.90233
2744.34718	0.90182
2742.41862	0.90038
2740.49005	0.89846
2738.56149	0.89658
2736.63293	0.89440
2734.70436	0.89216
2732.77580	0.89031
2730.84723	0.88856
2728.91867	0.88643
2726.99010	0.88403
2725.06154	0.88172
2723.13297	0.87946
2721.20441	0.87666
2719.27585	0.87349
2717.34728	0.87116
2715.41872	0.86951
2713.49015	0.86744
2711.56159	0.86495
2709.63302	0.86256
2707.70446	0.86022
2705.77589	0.85777
2703.84733	0.85563
2701.91877	0.85406
2699.99020	0.85257
2698.06164	0.85066
2696.13307	0.84843
2694.20451	0.84636
2692.27594	0.84475
2690.34738	0.84364
2688.41881	0.84278
2686.49025	0.84183
2684.56169	0.84097
2682.63312	0.84025
2680.70456	0.83922
2678.77599	0.83758
2676.84743	0.83554
2674.91886	0.83399
2672.99030	0.83334
2671.06173	0.83278
2669.13317	0.83175
2667.20461	0.83053
2665.27604	0.82906
2663.34748	0.82718
2661.41891	0.82518
2659.49035	0.82316
2657.56178	0.82124
2655.63322	0.81962
2653.70465	0.81809
2651.77609	0.81650
2649.84753	0.81474
2647.91896	0.81295
2645.99040	0.81151
2644.06183	0.80989
2642.13327	0.80781
2640.20470	0.80609
2638.27614	0.80513
2636.34757	0.80425
2634.41901	0.80279
2632.49045	0.80134
2630.56188	0.80061
2628.63332	0.80003
2626.70475	0.79899
2624.77619	0.79774
2622.84762	0.79647
2620.91906	0.79516
2618.99049	0.79391
2617.06193	0.79257
2615.13337	0.79093
2613.20480	0.78922
2611.27624	0.78786
2609.34767	0.78689
2607.41911	0.78581
2605.49054	0.78420
2603.56198	0.78231
2601.63342	0.78055
2599.70485	0.77895
2597.77629	0.77711
2595.84772	0.77479
2593.91916	0.77275
2591.99059	0.77153
2590.06203	0.77003
2588.13346	0.76764
2586.20490	0.76547
2584.27634	0.76422
2582.34777	0.76340
2580.41921	0.76255
2578.49064	0.76127
2576.56208	0.75954
2574.63351	0.75805
2572.70495	0.75701
2570.77638	0.75600
2568.84782	0.75475
2566.91926	0.75340
2564.99069	0.75225
2563.06213	0.75125
2561.13356	0.75007
2559.20500	0.74888
2557.27643	0.74797
2555.34787	0.74700
2553.41930	0.74568
2551.49074	0.74433
2549.56218	0.74299
2547.63361	0.74141
2545.70505	0.74002
2543.77648	0.73954
2541.84792	0.73937
2539.91935	0.73833
2537.99079	0.73667
2536.06222	0.73538
2534.13366	0.73424
2532.20510	0.73279
2530.27653	0.73163
2528.34797	0.73102
2526.41940	0.73020
2524.49084	0.72874
2522.56227	0.72697
2520.63371	0.72520
2518.70514	0.72373
2516.77658	0.72270
2514.84802	0.72193
2512.91945	0.72121
2510.99089	0.72045
2509.06232	0.71972
2507.13376	0.71911
2505.20519	0.71836
2503.27663	0.71731
2501.34806	0.71616
2499.41950	0.71518
2497.49094	0.71426
2495.56237	0.71308
2493.63381	0.71171
2491.70524	0.71064
2489.77668	0.70999
2487.84811	0.70912
2485.91955	0.70773
2483.99098	0.70628
2482.06242	0.70488
2480.13386	0.70347
2478.20529	0.70212
2476.27673	0.70063
2474.34816	0.69890
2472.41960	0.69714
2470.49103	0.69567
2468.56247	0.69453
2466.63391	0.69322
2464.70534	0.69143
2462.77678	0.68967
2460.84821	0.68832
2458.91965	0.68704
2456.99108	0.68548
2455.06252	0.68373
2453.13395	0.68177
2451.20539	0.67989
2449.27683	0.67849
2447.34826	0.67729
2445.41970	0.67585
2443.49113	0.67443
2441.56257	0.67348
2439.63400	0.67288
2437.70544	0.67204
2435.77687	0.67073
2433.84831	0.66934
2431.91975	0.66819
2429.99118	0.66729
2428.06262	0.66638
2426.13405	0.66542
2424.20549	0.66462
2422.27692	0.66372
2420.34836	0.66261
2418.41979	0.66165
2416.49123	0.66079
2414.56267	0.65993
2412.63410	0.65905
2410.70554	0.65811
2408.77697	0.65721
2406.84841	0.65627
2404.91984	0.65516
2402.99128	0.65395
2401.06271	0.65274
2399.13415	0.65161
2397.20559	0.65068
2395.27702	0.64980
2393.34846	0.64877
2391.41989	0.64766
2389.49133	0.64671
2387.56276	0.64612
2385.63420	0.64601
2383.70563	0.64649
2381.77707	0.64755
2379.84851	0.64888
2377.91994	0.65016
2375.99138	0.65124
2374.06281	0.65238
2372.13425	0.65372
2370.20568	0.65504
2368.27712	0.65736
2366.34855	0.66045
2364.41999	0.66152
2362.49143	0.66227
2360.56286	0.66427
2358.63430	0.66413
2356.70573	0.66146
2354.77717	0.65758
2352.84860	0.65320
2350.92004	0.65013
2348.99147	0.64915
2347.06291	0.64981
2345.13435	0.65126
2343.20578	0.65273
2341.27722	0.65410
2339.34865	0.65371
2337.42009	0.65057
2335.49152	0.64653
2333.56296	0.64345
2331.63440	0.64255
2329.70583	0.64364
2327.77727	0.64373
2325.84870	0.64180
2323.92014	0.64006
2321.99157	0.63898
2320.06301	0.63705
2318.13444	0.63462
2316.20588	0.63304
2314.27732	0.63205
2312.34875	0.63078
2310.42019	0.62937
2308.49162	0.62821
2306.56306	0.62688
2304.63449	0.62524
2302.70593	0.62383
2300.77736	0.62274
2298.84880	0.62174
2296.92024	0.62058
2294.99167	0.61904
2293.06311	0.61730
2291.13454	0.61577
2289.20598	0.61455
2287.27741	0.61343
2285.34885	0.61203
2283.42028	0.61044
2281.49172	0.60903
2279.56316	0.60791
2277.63459	0.60682
2275.70603	0.60548
2273.77746	0.60401
2271.84890	0.60275
2269.92033	0.60172
2267.99177	0.60062
2266.06320	0.59936
2264.13464	0.59815
2262.20608	0.59710
2260.27751	0.59599
2258.34895	0.59498
2256.42038	0.59419
2254.49182	0.59330
2252.56325	0.59224
2250.63469	0.59140
2248.70612	0.59078
2246.77756	0.59000
2244.84900	0.58916
2242.92043	0.58853
2240.99187	0.58793
2239.06330	0.58697
2237.13474	0.58569
2235.20617	0.58451
2233.27761	0.58371
2231.34904	0.58295
2229.42048	0.58185
2227.49192	0.58053
2225.56335	0.57917
2223.63479	0.57773
2221.70622	0.57646
2219.77766	0.57548
2217.84909	0.57433
2215.92053	0.57294
2213.99196	0.57158
2212.06340	0.57017
2210.13484	0.56876
2208.20627	0.56762
2206.27771	0.56657
2204.34914	0.56533
2202.42058	0.56407
2200.49201	0.56308
2198.56345	0.56242
2196.63488	0.56172
2194.70632	0.56080
2192.77776	0.55999
2190.84919	0.55946
2188.92063	0.55909
2186.99206	0.55873
2185.06350	0.55823
2183.13493	0.55760
2181.20637	0.55696
2179.27781	0.55637
2177.34924	0.55583
2175.42068	0.55541
2173.49211	0.55526
2171.56355	0.55527
2169.63498	0.55515
2167.70642	0.55482
2165.77785	0.55430
2163.84929	0.55367
2161.92073	0.55312
2159.99216	0.55273
2158.06360	0.55239
2156.13503	0.55203
2154.20647	0.55155
2152.27790	0.55086
2150.34934	0.55008
2148.42077	0.54930
2146.49221	0.54854
2144.56365	0.54782
2142.63508	0.54712
2140.70652	0.54643
2138.77795	0.54571
2136.84939	0.54488
2134.92082	0.54410
2132.99226	0.54335
2131.06369	0.54248
2129.13513	0.54158
2127.20657	0.54073
2125.27800	0.53972
2123.34944	0.53878
2121.42087	0.53831
2119.49231	0.53800
2117.56374	0.53738
2115.63518	0.53648
2113.70661	0.53572
2111.77805	0.53534
2109.84949	0.53512
2107.92092	0.53483
2105.99236	0.53457
2104.06379	0.53446
2102.13523	0.53437
2100.20666	0.53433
2098.27810	0.53449
2096.34953	0.53445
2094.42097	0.53400
2092.49241	0.53348
2090.56384	0.53300
2088.63528	0.53254
2086.70671	0.53220
2084.77815	0.53185
2082.84958	0.53114
2080.92102	0.53016
2078.99245	0.52924
2077.06389	0.52836
2075.13533	0.52734
2073.20676	0.52627
2071.27820	0.52529
2069.34963	0.52442
2067.42107	0.52376
2065.49250	0.52313
2063.56394	0.52227
2061.63537	0.52117
2059.70681	0.52006
2057.77825	0.51921
2055.84968	0.51855
2053.92112	0.51783
2051.99255	0.51699
2050.06399	0.51622
2048.13542	0.51560
2046.20686	0.51498
2044.27830	0.51437
2042.34973	0.51379
2040.42117	0.51322
2038.49260	0.51273
2036.56404	0.51232
2034.63547	0.51179
2032.70691	0.51119
2030.77834	0.51067
2028.84978	0.51007
2026.92122	0.50933
2024.99265	0.50864
2023.06409	0.50790
2021.13552	0.50685
2019.20696	0.50563
2017.27839	0.50437
2015.34983	0.50287
2013.42126	0.50122
2011.49270	0.49974
2009.56414	0.49855
2007.63557	0.49749
2005.70701	0.49628
2003.77844	0.49492
2001.84988	0.49350
1999.92131	0.49222
1997.99275	0.49122
1996.06418	0.49044
1994.13562	0.48977
1992.20706	0.48898
1990.27849	0.48788
1988.34993	0.48684
1986.42136	0.48626
1984.49280	0.48585
1982.56423	0.48525
1980.63567	0.48451
1978.70710	0.48387
1976.77854	0.48342
1974.84998	0.48312
1972.92141	0.48292
1970.99285	0.48274
1969.06428	0.48258
1967.13572	0.48237
1965.20715	0.48201
1963.27859	0.48162
1961.35002	0.48130
1959.42146	0.48084
1957.49290	0.48016
1955.56433	0.47952
1953.63577	0.47890
1951.70720	0.47810
1949.77864	0.47720
1947.85007	0.47648
1945.92151	0.47594
1943.99294	0.47528
1942.06438	0.47431
1940.13582	0.47327
1938.20725	0.47239
1936.27869	0.47162
1934.35012	0.47079
1932.42156	0.46990
1930.49299	0.46912
1928.56443	0.46843
1926.63586	0.46772
1924.70730	0.46731
1922.77874	0.46719
1920.85017	0.46673
1918.92161	0.46595
1916.99304	0.46531
1915.06448	0.46484
1913.13591	0.46452
1911.20735	0.46454
1909.27878	0.46480
1907.35022	0.46493
1905.42166	0.46498
1903.49309	0.46517
1901.56453	0.46538
1899.63596	0.46552
1897.70740	0.46559
1895.77883	0.46568
1893.85027	0.46584
1891.92171	0.46614
1889.99314	0.46649
1888.06458	0.46652
1886.13601	0.46628
1884.20745	0.46607
1882.27888	0.46598
1880.35032	0.46600
1878.42175	0.46607
1876.49319	0.46606
1874.56463	0.46598
1872.63606	0.46602
1870.70750	0.46634
1868.77893	0.46690
1866.85037	0.46713
1864.92180	0.46690
1862.99324	0.46658
1861.06467	0.46637
1859.13611	0.46631
1857.20755	0.46630
1855.27898	0.46632
1853.35042	0.46645
1851.42185	0.46687
1849.49329	0.46758
1847.56472	0.46816
1845.63616	0.46862
1843.70759	0.46923
1841.77903	0.46946
1839.85047	0.46945
1837.92190	0.46984
1835.99334	0.47054
1834.06477	0.47094
1832.13621	0.47122
1830.20764	0.47193
1828.27908	0.47276
1826.35051	0.47324
1824.42195	0.47362
1822.49339	0.47386
1820.56482	0.47417
1818.63626	0.47484
1816.70769	0.47567
1814.77913	0.47657
1812.85056	0.47773
1810.92200	0.47917
1808.99343	0.48042
1807.06487	0.48137
1805.13631	0.48239
1803.20774	0.48377
1801.27918	0.48538
1799.35061	0.48658
1797.42205	0.48743
1795.49348	0.48841
1793.56492	0.48982
1791.63635	0.49135
1789.70779	0.49205
1787.77923	0.49251
1785.85066	0.49328
1783.92210	0.49432
1781.99353	0.49561
1780.06497	0.49709
1778.13640	0.49849
1776.20784	0.49979
1774.27927	0.50149
1772.35071	0.50394
1770.42215	0.50610
1768.49358	0.50773
1766.56502	0.50939
1764.63645	0.51125
1762.70789	0.51414
1760.77932	0.51813
1758.85076	0.52220
1756.92220	0.52737
1754.99363	0.53311
1753.06507	0.53903
1751.13650	0.54792
1749.20794	0.56007
1747.27937	0.57063
1745.35081	0.57883
1743.42224	0.58639
1741.49368	0.59379
1739.56512	0.60054
1737.63655	0.60518
1735.70799	0.60892
1733.77942	0.61485
1731.85086	0.61997
1729.92229	0.62321
1727.99373	0.62690
1726.06516	0.63167
1724.13660	0.63823
1722.20804	0.64533
1720.27947	0.65212
1718.35091	0.66237
1716.42234	0.67924
1714.49378	0.69355
1712.56521	0.70505
1710.63665	0.71789
1708.70808	0.73349
1706.77952	0.75660
1704.85096	0.78766
1702.92239	0.81604
1700.99383	0.85422
1699.06526	0.91462
1697.13670	0.97177
1695.20813	1.02720
1693.27957	1.06745
1691.35100	1.09810
1689.42244	1.13443
1687.49388	1.16765
1685.56531	1.19819
1683.63675	1.24079
1681.70818	1.26911
1679.77962	1.28244
1677.85105	1.29353
1675.92249	1.30592
1673.99392	1.31765
1672.06536	1.32530
1670.13680	1.33032
1668.20823	1.33467
1666.27967	1.33704
1664.35110	1.33921
1662.42254	1.34112
1660.49397	1.34037
1658.56541	1.33874
1656.63684	1.33674
1654.70828	1.33276
1652.77972	1.32423
1650.85115	1.32179
1648.92259	1.32271
1646.99402	1.32029
1645.06546	1.31407
1643.13689	1.30882
1641.20833	1.30550
1639.27976	1.30311
1637.35120	1.29993
1635.42264	1.29299
1633.49407	1.28587
1631.56551	1.28035
1629.63694	1.27352
1627.70838	1.26611
1625.77981	1.25931
1623.85125	1.25014
1621.92269	1.23860
1619.99412	1.22967
1618.06556	1.21949
1616.13699	1.20138
1614.20843	1.18519
1612.27986	1.17353
1610.35130	1.16228
1608.42273	1.15125
1606.49417	1.14175
1604.56561	1.13429
1602.63704	1.12876
1600.70848	1.12516
1598.77991	1.12272
1596.85135	1.12163
1594.92278	1.12258
1592.99422	1.12517
1591.06565	1.12878
1589.13709	1.13327
1587.20853	1.13862
1585.27996	1.14470
1583.35140	1.15220
1581.42283	1.16072
1579.49427	1.16851
1577.56570	1.17774
1575.63714	1.19039
1573.70857	1.19803
1571.78001	1.20318
1569.85145	1.21277
1567.92288	1.22262
1565.99432	1.22788
1564.06575	1.23228
1562.13719	1.23564
1560.20862	1.23814
1558.28006	1.24338
1556.35149	1.24627
1554.42293	1.24574
1552.49437	1.24397
1550.56580	1.24147
1548.63724	1.23757
1546.70867	1.23292
1544.78011	1.22773
1542.85154	1.22240
1540.92298	1.21622
1538.99441	1.20861
1537.06585	1.20480
1535.13729	1.20059
1533.20872	1.19293
1531.28016	1.18563
1529.35159	1.18065
1527.42303	1.17446
1525.49446	1.16661
1523.56590	1.15970
1521.63733	1.15263
1519.70877	1.14752
1517.78021	1.14146
1515.85164	1.12951
1513.92308	1.11530
1511.99451	1.10177
1510.06595	1.09031
1508.13738	1.07459
1506.20882	1.04298
1504.28025	1.02556
1502.35169	1.01596
1500.42313	1.00552
1498.49456	0.99286
1496.56600	0.97769
1494.63743	0.96488
1492.70887	0.95597
1490.78030	0.94726
1488.85174	0.93706
1486.92317	0.92976
1484.99461	0.92647
1483.06605	0.92626
1481.13748	0.92909
1479.20892	0.93454
1477.28035	0.94273
1475.35179	0.95457
1473.42322	0.97254
1471.49466	0.99152
1469.56610	1.00112
1467.63753	1.00658
1465.70897	1.01371
1463.78040	1.02180
1461.85184	1.02642
1459.92327	1.02975
1457.99471	1.03680
1456.06614	1.04284
1454.13758	1.04171
1452.20902	1.03960
1450.28045	1.03778
1448.35189	1.03506
1446.42332	1.03123
1444.49476	1.02742
1442.56619	1.02305
1440.63763	1.01801
1438.70906	1.01264
1436.78050	1.00609
1434.85194	0.99971
1432.92337	0.99469
1430.99481	0.98983
1429.06624	0.98618
1427.13768	0.98551
1425.20911	0.98737
1423.28055	0.99099
1421.35198	0.99551
1419.42342	1.00195
1417.49486	1.00845
1415.56629	1.01152
1413.63773	1.01358
1411.70916	1.01600
1409.78060	1.01838
1407.85203	1.02067
1405.92347	1.02383
1403.99490	1.02748
1402.06634	1.03005
1400.13778	1.03168
1398.20921	1.03259
1396.28065	1.03259
1394.35208	1.03159
1392.42352	1.03062
1390.49495	1.03103
1388.56639	1.03422
1386.63782	1.04041
1384.70926	1.04584
1382.78070	1.04858
1380.85213	1.04859
1378.92357	1.04525
1376.99500	1.03848
1375.06644	1.02828
1373.13787	1.01640
1371.20931	1.00595
1369.28074	0.99513
1367.35218	0.98304
1365.42362	0.97229
1363.49505	0.96293
1361.56649	0.95508
1359.63792	0.95004
1357.70936	0.94695
1355.78079	0.94525
1353.85223	0.94504
1351.92366	0.94587
1349.99510	0.94724
1348.06654	0.94921
1346.13797	0.95180
1344.20941	0.95487
1342.28084	0.95857
1340.35228	0.96316
1338.42371	0.96806
1336.49515	0.97309
1334.56659	0.97930
1332.63802	0.98656
1330.70946	0.99390
1328.78089	1.00042
1326.85233	1.00529
1324.92376	1.00840
1322.99520	1.01070
1321.06663	1.01321
1319.13807	1.01611
1317.20951	1.01871
1315.28094	1.02021
1313.35238	1.02043
1311.42381	1.01967
1309.49525	1.01839
1307.56668	1.01692
1305.63812	1.01506
1303.70955	1.01264
1301.78099	1.01000
1299.85243	1.00709
1297.92386	1.00326
1295.99530	0.99868
1294.06673	0.99433
1292.13817	0.99121
1290.20960	0.98977
1288.28104	0.98939
1286.35247	0.98940
1284.42391	0.98982
1282.49535	0.99087
1280.56678	0.99247
1278.63822	0.99471
1276.70965	0.99788
1274.78109	1.00202
1272.85252	1.00727
1270.92396	1.01352
1268.99539	1.02035
1267.06683	1.02712
1265.13827	1.03277
1263.20970	1.03683
1261.28114	1.03972
1259.35257	1.04212
1257.42401	1.04449
1255.49544	1.04667
1253.56688	1.04849
1251.63831	1.05013
1249.70975	1.05192
1247.78119	1.05385
1245.85262	1.05532
1243.92406	1.05584
1241.99549	1.05540
1240.06693	1.05386
1238.13836	1.05146
1236.20980	1.04879
1234.28123	1.04537
1232.35267	1.04031
1230.42411	1.03419
1228.49554	1.02783
1226.56698	1.02088
1224.63841	1.01291
1222.70985	1.00478
1220.78128	0.99780
1218.85272	0.99224
1216.92415	0.98770
1214.99559	0.98460
1213.06703	0.98392
1211.13846	0.98569
1209.20990	0.98865
1207.28133	0.99111
1205.35277	0.99130
1203.42420	0.98843
1201.49564	0.98344
1199.56708	0.97782
1197.63851	0.97245
1195.70995	0.96764
1193.78138	0.96365
1191.85282	0.96075
1189.92425	0.95911
1187.99569	0.95912
1186.06712	0.96086
1184.13856	0.96402
1182.21000	0.96877
1180.28143	0.97512
1178.35287	0.98273
1176.42430	0.99143
1174.49574	1.00090
1172.56717	1.01089
1170.63861	1.02162
1168.71004	1.03389
1166.78148	1.04837
1164.85292	1.06438
1162.92435	1.08027
1160.99579	1.09428
1159.06722	1.10380
1157.13866	1.10652
1155.21009	1.10311
1153.28153	1.09582
1151.35296	1.08624
1149.42440	1.07616
1147.49584	1.06733
1145.56727	1.06027
1143.63871	1.05582
1141.71014	1.05502
1139.78158	1.05747
1137.85301	1.06280
1135.92445	1.07124
1133.99588	1.08250
1132.06732	1.09563
1130.13876	1.10928
1128.21019	1.12286
1126.28163	1.13654
1124.35306	1.14928
1122.42450	1.16000
1120.49593	1.16919
1118.56737	1.17663
1116.63880	1.18126
1114.71024	1.18305
1112.78168	1.18227
1110.85311	1.18009
1108.92455	1.17911
1106.99598	1.17904
1105.06742	1.17767
1103.13885	1.17623
1101.21029	1.17718
1099.28172	1.18031
1097.35316	1.18329
1095.42460	1.18486
1093.49603	1.18695
1091.56747	1.19133
1089.63890	1.19728
1087.71034	1.20366
1085.78177	1.20942
1083.85321	1.21378
1081.92464	1.21663
1079.99608	1.21689
1078.06752	1.21360
1076.13895	1.20803
1074.21039	1.20081
1072.28182	1.19231
1070.35326	1.18462
1068.42469	1.17818
1066.49613	1.17170
1064.56756	1.16523
1062.63900	1.15933
1060.71044	1.15414
1058.78187	1.14993
1056.85331	1.14654
1054.92474	1.14383
1052.99618	1.14186
1051.06761	1.13998
1049.13905	1.13861
1047.21049	1.13928
1045.28192	1.14190
1043.35336	1.14553
1041.42479	1.14916
1039.49623	1.15117
1037.56766	1.15200
1035.63910	1.15287
1033.71053	1.15224
1031.78197	1.14946
1029.85341	1.14609
1027.92484	1.14192
1025.99628	1.13589
1024.06771	1.12901
1022.13915	1.12251
1020.21058	1.11616
1018.28202	1.10957
1016.35345	1.10248
1014.42489	1.09401
1012.49633	1.08346
1010.56776	1.07084
1008.63920	1.05618
1006.71063	1.04027
1004.78207	1.02492
1002.85350	1.01098
1000.92494	0.99824
998.99637	0.98725
997.06781	0.97819
995.13925	0.96951
993.21068	0.95977
991.28212	0.94908
989.35355	0.93789
987.42499	0.92650
985.49642	0.91546
983.56786	0.90552
981.63929	0.89728
979.71073	0.89123
977.78217	0.88733
975.85360	0.88400
973.92504	0.87905
971.99647	0.87208
970.06791	0.86438
968.13934	0.85705
966.21078	0.85078
964.28221	0.84644
962.35365	0.84521
960.42509	0.84826
958.49652	0.85530
956.56796	0.86321
954.63939	0.86767
952.71083	0.86661
950.78226	0.86092
948.85370	0.85300
946.92513	0.84531
944.99657	0.83877
943.06801	0.83322
941.13944	0.82874
939.21088	0.82555
937.28231	0.82347
935.35375	0.82199
933.42518	0.82063
931.49662	0.81925
929.56805	0.81808
927.63949	0.81788
925.71093	0.81893
923.78236	0.82050
921.85380	0.82189
919.92523	0.82252
917.99667	0.82199
916.06810	0.82074
914.13954	0.81957
912.21098	0.81930
910.28241	0.82036
908.35385	0.82254
906.42528	0.82527
904.49672	0.82824
902.56815	0.83150
900.63959	0.83462
898.71102	0.83700
896.78246	0.83829
894.85390	0.83848
892.92533	0.83805
890.99677	0.83774
889.06820	0.83773
887.13964	0.83777
885.21107	0.83838
883.28251	0.84042
881.35394	0.84351
879.42538	0.84663
877.49682	0.84992
875.56825	0.85390
873.63969	0.85787
871.71112	0.86119
869.78256	0.86450
867.85399	0.86814
865.92543	0.87132
863.99686	0.87348
862.06830	0.87565
860.13974	0.87888
858.21117	0.88221
856.28261	0.88462
854.35404	0.88658
852.42548	0.88845
850.49691	0.88973
848.56835	0.89020
846.63978	0.89004
844.71122	0.88944
842.78266	0.88865
840.85409	0.88804
838.92553	0.88762
836.99696	0.88682
835.06840	0.88536
833.13983	0.88448
831.21127	0.88543
829.28270	0.88677
827.35414	0.88686
825.42558	0.88657
823.49701	0.88710
821.56845	0.88867
819.63988	0.89110
817.71132	0.89415
815.78275	0.89803
813.85419	0.90276
811.92562	0.90747
809.99706	0.91182
808.06850	0.91644
806.13993	0.92152
804.21137	0.92675
802.28280	0.93153
800.35424	0.93562
798.42567	0.93979
796.49711	0.94437
794.56854	0.94868
792.63998	0.95270
790.71142	0.95713
788.78285	0.96164
786.85429	0.96469
784.92572	0.96613
782.99716	0.96744
781.06859	0.96870
779.14003	0.96900
777.21147	0.96848
775.28290	0.96736
773.35434	0.96581
771.42577	0.96465
769.49721	0.96367
767.56864	0.96201
765.64008	0.95968
763.71151	0.95731
761.78295	0.95591
759.85439	0.95605
757.92582	0.95705
755.99726	0.95845
754.06869	0.96082
752.14013	0.96435
750.21156	0.96854
748.28300	0.97266
746.35443	0.97634
744.42587	0.98074
742.49731	0.98699
740.56874	0.99405
738.64018	1.00077
736.71161	1.00673
734.78305	1.01190
732.85448	1.01799
730.92592	1.02589
728.99735	1.03349
727.06879	1.03994
725.14023	1.04627
723.21166	1.05188
721.28310	1.05543
719.35453	1.05685
717.42597	1.05741
715.49740	1.05795
713.56884	1.05852
711.64027	1.05949
709.71171	1.06049
707.78315	1.06029
705.85458	1.05854
703.92602	1.05584
701.99745	1.05320
700.06889	1.05153
698.14032	1.05003
696.21176	1.04644
694.28319	1.04160
692.35463	1.03946
690.42607	1.04005
688.49750	1.04005
686.56894	1.04036
684.64037	1.04292
682.71181	1.04563
680.78324	1.04793
678.85468	1.05171
676.92611	1.05546
674.99755	1.05683
673.06899	1.05816
671.14042	1.06259
669.21186	1.07029
667.28329	1.07584
665.35473	1.07665
663.42616	1.07663
661.49760	1.07664
659.56903	1.07816
657.64047	1.07988
655.71191	1.07704
653.78334	1.07078
651.85478	1.06545
649.92621	1.05982
647.99765	1.05291
646.06908	1.04822
644.14052	1.04609
642.21195	1.04282
640.28339	1.03667
638.35483	1.02929
636.42626	1.02337
634.49770	1.02081
632.56913	1.02007
630.64057	1.01758
628.71200	1.01345
626.78344	1.01058
624.85488	1.00930
622.92631	1.00801
620.99775	1.00808
619.06918	1.01102
617.14062	1.01501
615.21205	1.01934
613.28349	1.02406
611.35492	1.02771
609.42636	1.03118
607.49780	1.03530
605.56923	1.03874
603.64067	1.04225
601.71210	1.04726
599.78354	1.05289
