3997.91406	0.81586
3995.98550	0.81532
3994.05693	0.81598
3992.12837	0.81787
3990.19980	0.81768
3988.27124	0.81481
3986.34268	0.81151
3984.41411	0.80928
3982.48555	0.80965
3980.55698	0.81127
3978.62842	0.81226
3976.69985	0.81400
3974.77129	0.81603
3972.84272	0.81693
3970.91416	0.81682
3968.98560	0.81545
3967.05703	0.81362
3965.12847	0.81220
3963.19990	0.81116
3961.27134	0.81042
3959.34277	0.80900
3957.41421	0.80732
3955.48564	0.80751
3953.55708	0.80955
3951.62852	0.81201
3949.69995	0.81364
3947.77139	0.81290
3945.84282	0.81072
3943.91426	0.80929
3941.98569	0.80856
3940.05713	0.80740
3938.12856	0.80682
3936.20000	0.80782
3934.27144	0.80909
3932.34287	0.80928
3930.41431	0.80839
3928.48574	0.80721
3926.55718	0.80628
3924.62861	0.80531
3922.70005	0.80442
3920.77148	0.80423
3918.84292	0.80424
3916.91436	0.80320
3914.98579	0.80186
3913.05723	0.80152
3911.12866	0.80209
3909.20010	0.80294
3907.27153	0.80242
3905.34297	0.80060
3903.41440	0.80156
3901.48584	0.80457
3899.55728	0.80408
3897.62871	0.80057
3895.70015	0.79811
3893.77158	0.79829
3891.84302	0.80006
3889.91445	0.80247
3887.98589	0.80568
3886.05733	0.80684
3884.12876	0.80273
3882.20020	0.79722
3880.27163	0.79445
3878.34307	0.79474
3876.41450	0.79490
3874.48594	0.79354
3872.55737	0.79305
3870.62881	0.79457
3868.70025	0.79403
3866.77168	0.79157
3864.84312	0.79059
3862.91455	0.79051
3860.98599	0.78888
3859.05742	0.78731
3857.12886	0.78707
3855.20029	0.78636
3853.27173	0.78165
3851.34317	0.77848
3849.41460	0.77955
3847.48604	0.78229
3845.55747	0.78528
3843.62891	0.78711
3841.70034	0.78749
3839.77178	0.78590
3837.84321	0.78050
3835.91465	0.77833
3833.98609	0.78130
3832.05752	0.78167
3830.12896	0.77867
3828.20039	0.77753
3826.27183	0.77859
3824.34326	0.77985
3822.41470	0.78165
3820.48613	0.78263
3818.55757	0.77990
3816.62901	0.77594
3814.70044	0.77406
3812.77188	0.77395
3810.84331	0.77372
3808.91475	0.77287
3806.98618	0.77266
3805.05762	0.77305
3803.12905	0.77059
3801.20049	0.76682
3799.27193	0.76744
3797.34336	0.76881
3795.41480	0.76830
3793.48623	0.76760
3791.55767	0.76774
3789.62910	0.76815
3787.70054	0.76826
3785.77197	0.76842
3783.84341	0.76870
3781.91485	0.76876
3779.98628	0.76961
3778.05772	0.77115
3776.12915	0.77108
3774.20059	0.76953
3772.27202	0.76792
3770.34346	0.76775
3768.41489	0.76873
3766.48633	0.76800
3764.55777	0.76543
3762.62920	0.76349
3760.70064	0.76393
3758.77207	0.76702
3756.84351	0.76868
3754.91494	0.76749
3752.98638	0.76751
3751.05781	0.77128
3749.12925	0.77121
3747.20069	0.76820
3745.27212	0.76673
3743.34356	0.76481
3741.41499	0.76159
3739.48643	0.75825
3737.55786	0.75572
3735.62930	0.75645
3733.70074	0.75960
3731.77217	0.75962
3729.84361	0.75820
3727.91504	0.75963
3725.98648	0.76393
3724.05791	0.76523
3722.12935	0.76143
3720.20078	0.75740
3718.27222	0.75651
3716.34366	0.75724
3714.41509	0.75721
3712.48653	0.75651
3710.55796	0.75701
3708.62940	0.75763
3706.70083	0.75764
3704.77227	0.75803
3702.84370	0.75937
3700.91514	0.76069
3698.98658	0.76100
3697.05801	0.76148
3695.12945	0.76258
3693.20088	0.76403
3691.27232	0.76628
3689.34375	0.76787
3687.41519	0.76738
3685.48662	0.76761
3683.55806	0.76902
3681.62950	0.77073
3679.70093	0.77218
3677.77237	0.77449
3675.84380	0.78138
3673.91524	0.78854
3671.98667	0.79229
3670.05811	0.79773
3668.12954	0.80228
3666.20098	0.80481
3664.27242	0.80819
3662.34385	0.81194
3660.41529	0.81566
3658.48672	0.82062
3656.55816	0.82762
3654.62959	0.83361
3652.70103	0.83777
3650.77246	0.84385
3648.84390	0.85318
3646.91534	0.86185
3644.98677	0.87017
3643.05821	0.87738
3641.12964	0.88274
3639.20108	0.88834
3637.27251	0.89575
3635.34395	0.90464
3633.41538	0.91336
3631.48682	0.92059
3629.55826	0.93140
3627.62969	0.94244
3625.70113	0.94571
3623.77256	0.94832
3621.84400	0.95229
3619.91543	0.95723
3617.98687	0.96460
3616.05830	0.97284
3614.12974	0.97967
3612.20118	0.98473
3610.27261	0.99068
3608.34405	1.00102
3606.41548	1.01121
3604.48692	1.01712
3602.55835	1.02392
3600.62979	1.03331
3598.70123	1.04227
3596.77266	1.05080
3594.84410	1.05735
3592.91553	1.06013
3590.98697	1.06254
3589.05840	1.06902
3587.12984	1.08085
3585.20127	1.09104
3583.27271	1.09685
3581.34415	1.10117
3579.41558	1.10707
3577.48702	1.11595
3575.55845	1.12569
3573.62989	1.13131
3571.70132	1.13095
3569.77276	1.12925
3567.84419	1.13475
3565.91563	1.14816
3563.98707	1.15830
3562.05850	1.16608
3560.12994	1.17342
3558.20137	1.17946
3556.27281	1.18399
3554.34424	1.18763
3552.41568	1.19256
3550.48711	1.19913
3548.55855	1.20730
3546.62999	1.21794
3544.70142	1.22774
3542.77286	1.23357
3540.84429	1.23766
3538.91573	1.24218
3536.98716	1.24846
3535.05860	1.25631
3533.13003	1.26219
3531.20147	1.26427
3529.27291	1.26542
3527.34434	1.27028
3525.41578	1.27911
3523.48721	1.28846
3521.55865	1.29645
3519.63008	1.30428
3517.70152	1.31251
3515.77295	1.31758
3513.84439	1.32022
3511.91583	1.32648
3509.98726	1.33599
3508.05870	1.34340
3506.13013	1.34924
3504.20157	1.35755
3502.27300	1.36375
3500.34444	1.36194
3498.41587	1.35899
3496.48731	1.36467
3494.55875	1.37860
3492.63018	1.38822
3490.70162	1.38948
3488.77305	1.39170
3486.84449	1.39920
3484.91592	1.40640
3482.98736	1.40840
3481.05879	1.40608
3479.13023	1.40161
3477.20167	1.39722
3475.27310	1.39759
3473.34454	1.40291
3471.41597	1.40867
3469.48741	1.41539
3467.55884	1.42347
3465.63028	1.42836
3463.70171	1.42991
3461.77315	1.43192
3459.84459	1.43558
3457.91602	1.43978
3455.98746	1.44330
3454.05889	1.44428
3452.13033	1.44235
3450.20176	1.44245
3448.27320	1.44532
3446.34464	1.44618
3444.41607	1.44654
3442.48751	1.45104
3440.55894	1.46045
3438.63038	1.46827
3436.70181	1.46597
3434.77325	1.45718
3432.84468	1.45173
3430.91612	1.45119
3428.98756	1.45178
3427.05899	1.45173
3425.13043	1.45088
3423.20186	1.44832
3421.27330	1.44518
3419.34473	1.44610
3417.41617	1.45052
3415.48760	1.45341
3413.55904	1.45425
3411.63048	1.45578
3409.70191	1.45822
3407.77335	1.45927
3405.84478	1.46095
3403.91622	1.46522
3401.98765	1.46798
3400.05909	1.46622
3398.13052	1.45991
3396.20196	1.45370
3394.27340	1.45366
3392.34483	1.45901
3390.41627	1.46458
3388.48770	1.46692
3386.55914	1.47001
3384.63057	1.47459
3382.70201	1.47292
3380.77344	1.46784
3378.84488	1.46694
3376.91632	1.46757
3374.98775	1.46453
3373.05919	1.45952
3371.13062	1.45936
3369.20206	1.46379
3367.27349	1.46443
3365.34493	1.45995
3363.41636	1.45700
3361.48780	1.45814
3359.55924	1.46126
3357.63067	1.46562
3355.70211	1.46995
3353.77354	1.47116
3351.84498	1.47150
3349.91641	1.47355
3347.98785	1.47482
3346.05928	1.47541
3344.13072	1.47607
3342.20216	1.47526
3340.27359	1.47464
3338.34503	1.47749
3336.41646	1.48120
3334.48790	1.47926
3332.55933	1.47430
3330.63077	1.47523
3328.70220	1.48188
3326.77364	1.48655
3324.84508	1.48673
3322.91651	1.48624
3320.98795	1.48635
3319.05938	1.48459
3317.13082	1.48292
3315.20225	1.48678
3313.27369	1.49390
3311.34513	1.49662
3309.41656	1.49615
3307.48800	1.50023
3305.55943	1.50830
3303.63087	1.51423
3301.70230	1.51689
3299.77374	1.51785
3297.84517	1.51871
3295.91661	1.51919
3293.98805	1.51762
3292.05948	1.51648
3290.13092	1.51783
3288.20235	1.51877
3286.27379	1.51606
3284.34522	1.51256
3282.41666	1.51314
3280.48809	1.51487
3278.55953	1.51452
3276.63097	1.51537
3274.70240	1.51738
3272.77384	1.51655
3270.84527	1.51387
3268.91671	1.51067
3266.98814	1.50522
3265.05958	1.49926
3263.13101	1.49544
3261.20245	1.49507
3259.27389	1.49802
3257.34532	1.49973
3255.41676	1.49783
3253.48819	1.49359
3251.55963	1.48713
3249.63106	1.48237
3247.70250	1.48159
3245.77393	1.47927
3243.84537	1.47419
3241.91681	1.46790
3239.98824	1.46032
3238.05968	1.45651
3236.13111	1.45744
3234.20255	1.45792
3232.27398	1.45443
3230.34542	1.44738
3228.41685	1.44221
3226.48829	1.43999
3224.55973	1.43540
3222.63116	1.42870
3220.70260	1.42554
3218.77403	1.42558
3216.84547	1.42402
3214.91690	1.42031
3212.98834	1.41583
3211.05977	1.41214
3209.13121	1.40950
3207.20265	1.40659
3205.27408	1.40350
3203.34552	1.39929
3201.41695	1.39401
3199.48839	1.39050
3197.55982	1.38881
3195.63126	1.38539
3193.70269	1.37944
3191.77413	1.37423
3189.84557	1.37149
3187.91700	1.37043
3185.98844	1.36835
3184.05987	1.36239
3182.13131	1.35491
3180.20274	1.34844
3178.27418	1.34257
3176.34562	1.33859
3174.41705	1.33681
3172.48849	1.33502
3170.55992	1.33203
3168.63136	1.32783
3166.70279	1.32408
3164.77423	1.32261
3162.84566	1.32126
3160.91710	1.31713
3158.98854	1.31145
3157.05997	1.30684
3155.13141	1.30343
3153.20284	1.30068
3151.27428	1.29920
3149.34571	1.29817
3147.41715	1.29647
3145.48858	1.29479
3143.56002	1.29284
3141.63146	1.29040
3139.70289	1.28822
3137.77433	1.28591
3135.84576	1.28368
3133.91720	1.28185
3131.98863	1.27933
3130.06007	1.27846
3128.13150	1.28286
3126.20294	1.28834
3124.27438	1.28840
3122.34581	1.28547
3120.41725	1.28392
3118.48868	1.28283
3116.56012	1.28088
3114.63155	1.27927
3112.70299	1.27948
3110.77442	1.28046
3108.84586	1.27935
3106.91730	1.27598
3104.98873	1.27360
3103.06017	1.27417
3101.13160	1.27534
3099.20304	1.27429
3097.27447	1.27215
3095.34591	1.27073
3093.41734	1.26901
3091.48878	1.26658
3089.56022	1.26525
3087.63165	1.26418
3085.70309	1.26090
3083.77452	1.25661
3081.84596	1.25292
3079.91739	1.24978
3077.98883	1.24710
3076.06026	1.24488
3074.13170	1.24388
3072.20314	1.24424
3070.27457	1.24400
3068.34601	1.24144
3066.41744	1.23707
3064.48888	1.23232
3062.56031	1.22727
3060.63175	1.22160
3058.70318	1.21579
3056.77462	1.20980
3054.84606	1.20379
3052.91749	1.19973
3050.98893	1.19769
3049.06036	1.19518
3047.13180	1.19195
3045.20323	1.18854
3043.27467	1.18461
3041.34610	1.18058
3039.41754	1.17610
3037.48898	1.17100
3035.56041	1.16670
3033.63185	1.16327
3031.70328	1.15988
3029.77472	1.15678
3027.84615	1.15429
3025.91759	1.15238
3023.98903	1.14985
3022.06046	1.14542
3020.13190	1.14052
3018.20333	1.13743
3016.27477	1.13655
3014.34620	1.13697
3012.41764	1.13728
3010.48907	1.13598
3008.56051	1.13329
3006.63195	1.13168
3004.70338	1.13218
3002.77482	1.13185
3000.84625	1.12973
2998.91769	1.12956
2996.98912	1.13194
2995.06056	1.13313
2993.13199	1.13252
2991.20343	1.13306
2989.27487	1.13582
2987.34630	1.13922
2985.41774	1.14272
2983.48917	1.14688
2981.56061	1.15124
2979.63204	1.15518
2977.70348	1.15912
2975.77491	1.16455
2973.84635	1.17228
2971.91779	1.18077
2969.98922	1.18825
2968.06066	1.19406
2966.13209	1.19805
2964.20353	1.20104
2962.27496	1.20332
2960.34640	1.20291
2958.41783	1.19813
2956.48927	1.19054
2954.56071	1.18338
2952.63214	1.17798
2950.70358	1.17357
2948.77501	1.17082
2946.84645	1.17145
2944.91788	1.17517
2942.98932	1.18020
2941.06075	1.18583
2939.13219	1.19174
2937.20363	1.19707
2935.27506	1.20310
2933.34650	1.21108
2931.41793	1.21904
2929.48937	1.22565
2927.56080	1.23090
2925.63224	1.23400
2923.70367	1.23521
2921.77511	1.23586
2919.84655	1.23571
2917.91798	1.23205
2915.98942	1.22199
2914.06085	1.20634
2912.13229	1.18906
2910.20372	1.17279
2908.27516	1.15887
2906.34659	1.14872
2904.41803	1.14170
2902.48947	1.13567
2900.56090	1.13047
2898.63234	1.12678
2896.70377	1.12419
2894.77521	1.12209
2892.84664	1.11944
2890.91808	1.11547
2888.98952	1.11138
2887.06095	1.10873
2885.13239	1.10768
2883.20382	1.10753
2881.27526	1.10794
2879.34669	1.10862
2877.41813	1.10913
2875.48956	1.10902
2873.56100	1.10729
2871.63244	1.10279
2869.70387	1.09550
2867.77531	1.08808
2865.84674	1.08277
2863.91818	1.07887
2861.98961	1.07647
2860.06105	1.07707
2858.13248	1.08123
2856.20392	1.08824
2854.27536	1.09533
2852.34679	1.09938
2850.41823	1.09786
2848.48966	1.08741
2846.56110	1.06801
2844.63253	1.04633
2842.70397	1.02835
2840.77540	1.01479
2838.84684	1.00505
2836.91828	0.99856
2834.98971	0.99324
2833.06115	0.98766
2831.13258	0.98247
2829.20402	0.97824
2827.27545	0.97477
2825.34689	0.97138
2823.41832	0.96726
2821.48976	0.96304
2819.56120	0.95975
2817.63263	0.95700
2815.70407	0.95379
2813.77550	0.94991
2811.84694	0.94613
2809.91837	0.94293
2807.98981	0.93979
2806.06124	0.93663
2804.13268	0.93436
2802.20412	0.93256
2800.27555	0.92959
2798.34699	0.92557
2796.41842	0.92194
2794.48986	0.91914
2792.56129	0.91635
2790.63273	0.91330
2788.70416	0.91072
2786.77560	0.90893
2784.84704	0.90749
2782.91847	0.90565
2780.98991	0.90313
2779.06134	0.90052
2777.13278	0.89817
2775.20421	0.89579
2773.27565	0.89373
2771.34708	0.89258
2769.41852	0.89171
2767.48996	0.89026
2765.56139	0.88870
2763.63283	0.88743
2761.70426	0.88582
2759.77570	0.88386
2757.84713	0.88211
2755.91857	0.88058
2753.99001	0.87910
2752.06144	0.87758
2750.13288	0.87603
2748.20431	0.87466
2746.27575	0.87324
2744.34718	0.87159
2742.41862	0.87014
2740.49005	0.86889
2738.56149	0.86730
2736.63293	0.86572
2734.70436	0.86444
2732.77580	0.86283
2730.84723	0.86119
2728.91867	0.86002
2726.99010	0.85856
2725.06154	0.85649
2723.13297	0.85430
2721.20441	0.85204
2719.27585	0.85001
2717.34728	0.84848
2715.41872	0.84702
2713.49015	0.84534
2711.56159	0.84343
2709.63302	0.84180
2707.70446	0.84088
2705.77589	0.83959
2703.84733	0.83746
2701.91877	0.83531
2699.99020	0.83357
2698.06164	0.83257
2696.13307	0.83211
2694.20451	0.83109
2692.27594	0.82906
2690.34738	0.82674
2688.41881	0.82504
2686.49025	0.82416
2684.56169	0.82336
2682.63312	0.82189
2680.70456	0.81991
2678.77599	0.81800
2676.84743	0.81631
2674.91886	0.81448
2672.99030	0.81271
2671.06173	0.81163
2669.13317	0.81103
2667.20461	0.81024
2665.27604	0.80901
2663.34748	0.80752
2661.41891	0.80651
2659.49035	0.80653
2657.56178	0.80697
2655.63322	0.80660
2653.70465	0.80563
2651.77609	0.80493
2649.84753	0.80450
2647.91896	0.80411
2645.99040	0.80325
2644.06183	0.80215
2642.13327	0.80169
2640.20470	0.80101
2638.27614	0.79929
2636.34757	0.79770
2634.41901	0.79647
2632.49045	0.79503
2630.56188	0.79370
2628.63332	0.79256
2626.70475	0.79121
2624.77619	0.78932
2622.84762	0.78674
2620.91906	0.78407
2618.99049	0.78213
2617.06193	0.78070
2615.13337	0.77917
2613.20480	0.77738
2611.27624	0.77559
2609.34767	0.77411
2607.41911	0.77298
2605.49054	0.77196
2603.56198	0.77078
2601.63342	0.76932
2599.70485	0.76784
2597.77629	0.76682
2595.84772	0.76649
2593.91916	0.76658
2591.99059	0.76629
2590.06203	0.76527
2588.13346	0.76431
2586.20490	0.76386
2584.27634	0.76371
2582.34777	0.76371
2580.41921	0.76359
2578.49064	0.76298
2576.56208	0.76173
2574.63351	0.76020
2572.70495	0.75894
2570.77638	0.75756
2568.84782	0.75565
2566.91926	0.75385
2564.99069	0.75261
2563.06213	0.75129
2561.13356	0.74931
2559.20500	0.74710
2557.27643	0.74550
2555.34787	0.74433
2553.41930	0.74274
2551.49074	0.74078
2549.56218	0.73911
2547.63361	0.73757
2545.70505	0.73580
2543.77648	0.73433
2541.84792	0.73350
2539.91935	0.73306
2537.99079	0.73285
2536.06222	0.73262
2534.13366	0.73216
2532.20510	0.73186
2530.27653	0.73192
2528.34797	0.73203
2526.41940	0.73214
2524.49084	0.73238
2522.56227	0.73245
2520.63371	0.73224
2518.70514	0.73209
2516.77658	0.73211
2514.84802	0.73201
2512.91945	0.73157
2510.99089	0.73098
2509.06232	0.73044
2507.13376	0.72975
2505.20519	0.72875
2503.27663	0.72733
2501.34806	0.72530
2499.41950	0.72302
2497.49094	0.72108
2495.56237	0.71944
2493.63381	0.71774
2491.70524	0.71594
2489.77668	0.71420
2487.84811	0.71253
2485.91955	0.71066
2483.99098	0.70854
2482.06242	0.70672
2480.13386	0.70568
2478.20529	0.70510
2476.27673	0.70420
2474.34816	0.70288
2472.41960	0.70168
2470.49103	0.70068
2468.56247	0.69982
2466.63391	0.69932
2464.70534	0.69886
2462.77678	0.69810
2460.84821	0.69725
2458.91965	0.69671
2456.99108	0.69671
2455.06252	0.69684
2453.13395	0.69652
2451.20539	0.69583
2449.27683	0.69509
2447.34826	0.69438
2445.41970	0.69363
2443.49113	0.69265
2441.56257	0.69156
2439.63400	0.69068
2437.70544	0.68988
2435.77687	0.68889
2433.84831	0.68780
2431.91975	0.68679
2429.99118	0.68576
2428.06262	0.68441
2426.13405	0.68299
2424.20549	0.68194
2422.27692	0.68100
2420.34836	0.68003
2418.41979	0.67934
2416.49123	0.67883
2414.56267	0.67803
2412.63410	0.67694
2410.70554	0.67594
2408.77697	0.67536
2406.84841	0.67491
2404.91984	0.67426
2402.99128	0.67385
2401.06271	0.67376
2399.13415	0.67331
2397.20559	0.67275
2395.27702	0.67256
2393.34846	0.67212
2391.41989	0.67119
2389.49133	0.67068
2387.56276	0.67099
2385.63420	0.67145
2383.70563	0.67181
2381.77707	0.67239
2379.84851	0.67338
2377.91994	0.67478
2375.99138	0.67627
2374.06281	0.67766
2372.13425	0.67926
2370.20568	0.68078
2368.27712	0.68149
2366.34855	0.68166
2364.41999	0.68218
2362.49143	0.68331
2360.56286	0.68444
2358.63430	0.68364
2356.70573	0.68052
2354.77717	0.67640
2352.84860	0.67096
2350.92004	0.66635
2348.99147	0.66443
2347.06291	0.66434
2345.13435	0.66480
2343.20578	0.66480
2341.27722	0.66411
2339.34865	0.66336
2337.42009	0.66281
2335.49152	0.66238
2333.56296	0.66242
2331.63440	0.66248
2329.70583	0.66159
2327.77727	0.66008
2325.84870	0.65895
2323.92014	0.65775
2321.99157	0.65560
2320.06301	0.65332
2318.13444	0.65130
2316.20588	0.64921
2314.27732	0.64742
2312.34875	0.64584
2310.42019	0.64406
2308.49162	0.64222
2306.56306	0.64046
2304.63449	0.63879
2302.70593	0.63711
2300.77736	0.63547
2298.84880	0.63417
2296.92024	0.63292
2294.99167	0.63138
2293.06311	0.62989
2291.13454	0.62856
2289.20598	0.62721
2287.27741	0.62570
2285.34885	0.62407
2283.42028	0.62291
2281.49172	0.62245
2279.56316	0.62209
2277.63459	0.62136
2275.70603	0.62053
2273.77746	0.61995
2271.84890	0.61927
2269.92033	0.61822
2267.99177	0.61736
2266.06320	0.61698
2264.13464	0.61676
2262.20608	0.61648
2260.27751	0.61606
2258.34895	0.61548
2256.42038	0.61499
2254.49182	0.61463
2252.56325	0.61395
2250.63469	0.61291
2248.70612	0.61200
2246.77756	0.61121
2244.84900	0.61037
2242.92043	0.60960
2240.99187	0.60876
2239.06330	0.60754
2237.13474	0.60603
2235.20617	0.60458
2233.27761	0.60323
2231.34904	0.60182
2229.42048	0.60064
2227.49192	0.59971
2225.56335	0.59842
2223.63479	0.59678
2221.70622	0.59543
2219.77766	0.59442
2217.84909	0.59354
2215.92053	0.59280
2213.99196	0.59212
2212.06340	0.59146
2210.13484	0.59078
2208.20627	0.58999
2206.27771	0.58921
2204.34914	0.58866
2202.42058	0.58829
2200.49201	0.58790
2198.56345	0.58737
2196.63488	0.58698
2194.70632	0.58695
2192.77776	0.58707
2190.84919	0.58708
2188.92063	0.58701
2186.99206	0.58703
2185.06350	0.58727
2183.13493	0.58753
2181.20637	0.58751
2179.27781	0.58707
2177.34924	0.58637
2175.42068	0.58567
2173.49211	0.58509
2171.56355	0.58450
2169.63498	0.58382
2167.70642	0.58305
2165.77785	0.58204
2163.84929	0.58096
2161.92073	0.58005
2159.99216	0.57903
2158.06360	0.57771
2156.13503	0.57638
2154.20647	0.57527
2152.27790	0.57428
2150.34934	0.57332
2148.42077	0.57250
2146.49221	0.57185
2144.56365	0.57118
2142.63508	0.57031
2140.70652	0.56940
2138.77795	0.56864
2136.84939	0.56807
2134.92082	0.56769
2132.99226	0.56750
2131.06369	0.56750
2129.13513	0.56745
2127.20657	0.56722
2125.27800	0.56698
2123.34944	0.56691
2121.42087	0.56687
2119.49231	0.56666
2117.56374	0.56638
2115.63518	0.56636
2113.70661	0.56647
2111.77805	0.56636
2109.84949	0.56596
2107.92092	0.56542
2105.99236	0.56489
2104.06379	0.56445
2102.13523	0.56389
2100.20666	0.56303
2098.27810	0.56196
2096.34953	0.56067
2094.42097	0.55930
2092.49241	0.55808
2090.56384	0.55687
2088.63528	0.55544
2086.70671	0.55391
2084.77815	0.55236
2082.84958	0.55070
2080.92102	0.54895
2078.99245	0.54727
2077.06389	0.54569
2075.13533	0.54402
2073.20676	0.54235
2071.27820	0.54092
2069.34963	0.53987
2067.42107	0.53911
2065.49250	0.53823
2063.56394	0.53710
2061.63537	0.53616
2059.70681	0.53564
2057.77825	0.53527
2055.84968	0.53481
2053.92112	0.53430
2051.99255	0.53383
2050.06399	0.53335
2048.13542	0.53298
2046.20686	0.53293
2044.27830	0.53309
2042.34973	0.53305
2040.42117	0.53258
2038.49260	0.53186
2036.56404	0.53113
2034.63547	0.53052
2032.70691	0.53007
2030.77834	0.52951
2028.84978	0.52860
2026.92122	0.52754
2024.99265	0.52661
2023.06409	0.52580
2021.13552	0.52485
2019.20696	0.52361
2017.27839	0.52213
2015.34983	0.52056
2013.42126	0.51910
2011.49270	0.51785
2009.56414	0.51676
2007.63557	0.51551
2005.70701	0.51405
2003.77844	0.51275
2001.84988	0.51169
1999.92131	0.51082
1997.99275	0.51013
1996.06418	0.50970
1994.13562	0.50975
1992.20706	0.51009
1990.27849	0.51016
1988.34993	0.51016
1986.42136	0.51037
1984.49280	0.51069
1982.56423	0.51115
1980.63567	0.51168
1978.70710	0.51214
1976.77854	0.51256
1974.84998	0.51300
1972.92141	0.51357
1970.99285	0.51415
1969.06428	0.51442
1967.13572	0.51423
1965.20715	0.51360
1963.27859	0.51292
1961.35002	0.51258
1959.42146	0.51231
1957.49290	0.51154
1955.56433	0.51028
1953.63577	0.50889
1951.70720	0.50749
1949.77864	0.50612
1947.85007	0.50474
1945.92151	0.50328
1943.99294	0.50175
1942.06438	0.49997
1940.13582	0.49794
1938.20725	0.49610
1936.27869	0.49445
1934.35012	0.49277
1932.42156	0.49117
1930.49299	0.48985
1928.56443	0.48872
1926.63586	0.48780
1924.70730	0.48723
1922.77874	0.48687
1920.85017	0.48660
1918.92161	0.48663
1916.99304	0.48685
1915.06448	0.48688
1913.13591	0.48694
1911.20735	0.48746
1909.27878	0.48819
1907.35022	0.48858
1905.42166	0.48880
1903.49309	0.48923
1901.56453	0.48977
1899.63596	0.49010
1897.70740	0.49025
1895.77883	0.49037
1893.85027	0.49025
1891.92171	0.48986
1889.99314	0.48949
1888.06458	0.48896
1886.13601	0.48822
1884.20745	0.48746
1882.27888	0.48675
1880.35032	0.48601
1878.42175	0.48507
1876.49319	0.48396
1874.56463	0.48302
1872.63606	0.48250
1870.70750	0.48242
1868.77893	0.48263
1866.85037	0.48261
1864.92180	0.48241
1862.99324	0.48244
1861.06467	0.48273
1859.13611	0.48326
1857.20755	0.48411
1855.27898	0.48526
1853.35042	0.48645
1851.42185	0.48764
1849.49329	0.48905
1847.56472	0.49066
1845.63616	0.49260
1843.70759	0.49485
1841.77903	0.49610
1839.85047	0.49667
1837.92190	0.49769
1835.99334	0.49909
1834.06477	0.50018
1832.13621	0.50106
1830.20764	0.50232
1828.27908	0.50369
1826.35051	0.50464
1824.42195	0.50531
1822.49339	0.50551
1820.56482	0.50539
1818.63626	0.50539
1816.70769	0.50543
1814.77913	0.50534
1812.85056	0.50521
1810.92200	0.50491
1808.99343	0.50422
1807.06487	0.50331
1805.13631	0.50239
1803.20774	0.50160
1801.27918	0.50104
1799.35061	0.50050
1797.42205	0.49988
1795.49348	0.49925
1793.56492	0.49898
1791.63635	0.49927
1789.70779	0.49907
1787.77923	0.49859
1785.85066	0.49856
1783.92210	0.49901
1781.99353	0.49977
1780.06497	0.50056
1778.13640	0.50108
1776.20784	0.50154
1774.27927	0.50262
1772.35071	0.50466
1770.42215	0.50648
1768.49358	0.50767
1766.56502	0.50884
1764.63645	0.51019
1762.70789	0.51243
1760.77932	0.51561
1758.85076	0.51891
1756.92220	0.52335
1754.99363	0.52819
1753.06507	0.53273
1751.13650	0.53947
1749.20794	0.54915
1747.27937	0.55780
1745.35081	0.56438
1743.42224	0.57006
1741.49368	0.57554
1739.56512	0.58106
1737.63655	0.58499
1735.70799	0.58777
1733.77942	0.59295
1731.85086	0.59806
1729.92229	0.60132
1727.99373	0.60507
1726.06516	0.60996
1724.13660	0.61673
1722.20804	0.62387
1720.27947	0.63022
1718.35091	0.63999
1716.42234	0.65770
1714.49378	0.67329
1712.56521	0.68540
1710.63665	0.69882
1708.70808	0.71528
1706.77952	0.73994
1704.85096	0.77343
1702.92239	0.80380
1700.99383	0.84424
1699.06526	0.90875
1697.13670	0.96822
1695.20813	1.02242
1693.27957	1.06032
1691.35100	1.08835
1689.42244	1.12016
1687.49388	1.14673
1685.56531	1.16968
1683.63675	1.20677
1681.70818	1.23393
1679.77962	1.24520
1677.85105	1.25328
1675.92249	1.26292
1673.99392	1.27231
1672.06536	1.27851
1670.13680	1.28435
1668.20823	1.29069
1666.27967	1.29330
1664.35110	1.29506
1662.42254	1.29788
1660.49397	1.29815
1658.56541	1.29618
1656.63684	1.29391
1654.70828	1.29230
1652.77972	1.29091
1650.85115	1.29010
1648.92259	1.28954
1646.99402	1.28734
1645.06546	1.28312
1643.13689	1.27917
1641.20833	1.27659
1639.27976	1.27419
1637.35120	1.27132
1635.42264	1.26827
1633.49407	1.26492
1631.56551	1.26154
1629.63694	1.25684
1627.70838	1.25045
1625.77981	1.24363
1623.85125	1.23589
1621.92269	1.22647
1619.99412	1.21727
1618.06556	1.20480
1616.13699	1.18492
1614.20843	1.16846
1612.27986	1.15622
1610.35130	1.14335
1608.42273	1.12915
1606.49417	1.11608
1604.56561	1.10618
1602.63704	1.09887
1600.70848	1.09376
1598.77991	1.09084
1596.85135	1.08962
1594.92278	1.08904
1592.99422	1.08895
1591.06565	1.09064
1589.13709	1.09477
1587.20853	1.10144
1585.27996	1.10999
1583.35140	1.11941
1581.42283	1.12848
1579.49427	1.13629
1577.56570	1.14619
1575.63714	1.16243
1573.70857	1.17399
1571.78001	1.18030
1569.85145	1.18983
1567.92288	1.20156
1565.99432	1.20982
1564.06575	1.21564
1562.13719	1.21800
1560.20862	1.21894
1558.28006	1.22713
1556.35149	1.23226
1554.42293	1.23109
1552.49437	1.22828
1550.56580	1.22550
1548.63724	1.22307
1546.70867	1.22066
1544.78011	1.21703
1542.85154	1.21159
1540.92298	1.20672
1538.99441	1.20364
1537.06585	1.19985
1535.13729	1.19441
1533.20872	1.18776
1531.28016	1.18198
1529.35159	1.17710
1527.42303	1.17124
1525.49446	1.16420
1523.56590	1.15857
1521.63733	1.15588
1519.70877	1.15529
1517.78021	1.15124
1515.85164	1.14168
1513.92308	1.13029
1511.99451	1.11873
1510.06595	1.10713
1508.13738	1.08974
1506.20882	1.05985
1504.28025	1.04338
1502.35169	1.03307
1500.42313	1.02141
1498.49456	1.00655
1496.56600	0.98853
1494.63743	0.97389
1492.70887	0.96412
1490.78030	0.95498
1488.85174	0.94471
1486.92317	0.93733
1484.99461	0.93336
1483.06605	0.93178
1481.13748	0.93236
1479.20892	0.93482
1477.28035	0.93964
1475.35179	0.94814
1473.42322	0.96372
1471.49466	0.98164
1469.56610	0.99039
1467.63753	0.99480
1465.70897	1.00094
1463.78040	1.00864
1461.85184	1.01317
1459.92327	1.01611
1457.99471	1.02327
1456.06614	1.03161
1454.13758	1.03248
1452.20902	1.03137
1450.28045	1.03002
1448.35189	1.02796
1446.42332	1.02460
1444.49476	1.02053
1442.56619	1.01658
1440.63763	1.01295
1438.70906	1.00905
1436.78050	1.00388
1434.85194	0.99782
1432.92337	0.99221
1430.99481	0.98700
1429.06624	0.98255
1427.13768	0.98010
1425.20911	0.98029
1423.28055	0.98209
1421.35198	0.98409
1419.42342	0.98822
1417.49486	0.99361
1415.56629	0.99586
1413.63773	0.99651
1411.70916	0.99705
1409.78060	0.99775
1407.85203	0.99886
1405.92347	1.00116
1403.99490	1.00421
1402.06634	1.00628
1400.13778	1.00761
1398.20921	1.00852
1396.28065	1.00896
1394.35208	1.00920
1392.42352	1.00932
1390.49495	1.01031
1388.56639	1.01438
1386.63782	1.02223
1384.70926	1.03030
1382.78070	1.03695
1380.85213	1.04148
1378.92357	1.04160
1376.99500	1.03618
1375.06644	1.02533
1373.13787	1.01125
1371.20931	0.99753
1369.28074	0.98286
1367.35218	0.96697
1365.42362	0.95297
1363.49505	0.94094
1361.56649	0.93098
1359.63792	0.92455
1357.70936	0.92093
1355.78079	0.91903
1353.85223	0.91830
1351.92366	0.91852
1349.99510	0.91977
1348.06654	0.92177
1346.13797	0.92387
1344.20941	0.92603
1342.28084	0.92889
1340.35228	0.93321
1338.42371	0.93840
1336.49515	0.94351
1334.56659	0.94971
1332.63802	0.95753
1330.70946	0.96570
1328.78089	0.97218
1326.85233	0.97556
1324.92376	0.97625
1322.99520	0.97590
1321.06663	0.97577
1319.13807	0.97616
1317.20951	0.97662
1315.28094	0.97664
1313.35238	0.97601
1311.42381	0.97464
1309.49525	0.97263
1307.56668	0.96983
1305.63812	0.96632
1303.70955	0.96283
1301.78099	0.95984
1299.85243	0.95703
1297.92386	0.95397
1295.99530	0.95140
1294.06673	0.95026
1292.13817	0.95045
1290.20960	0.95200
1288.28104	0.95496
1286.35247	0.95849
1284.42391	0.96169
1282.49535	0.96465
1280.56678	0.96827
1278.63822	0.97306
1276.70965	0.97841
1274.78109	0.98381
1272.85252	0.99007
1270.92396	0.99785
1268.99539	1.00624
1267.06683	1.01359
1265.13827	1.01872
1263.20970	1.02123
1261.28114	1.02151
1259.35257	1.02039
1257.42401	1.01867
1255.49544	1.01689
1253.56688	1.01526
1251.63831	1.01348
1249.70975	1.01095
1247.78119	1.00757
1245.85262	1.00393
1243.92406	1.00042
1241.99549	0.99709
1240.06693	0.99358
1238.13836	0.98906
1236.20980	0.98349
1234.28123	0.97769
1232.35267	0.97193
1230.42411	0.96549
1228.49554	0.95831
1226.56698	0.95111
1224.63841	0.94415
1222.70985	0.93766
1220.78128	0.93213
1218.85272	0.92811
1216.92415	0.92592
1214.99559	0.92601
1213.06703	0.92911
1211.13846	0.93439
1209.20990	0.93939
1207.28133	0.94250
1205.35277	0.94296
1203.42420	0.94043
1201.49564	0.93593
1199.56708	0.93029
1197.63851	0.92321
1195.70995	0.91517
1193.78138	0.90749
1191.85282	0.90114
1189.92425	0.89664
1187.99569	0.89373
1186.06712	0.89163
1184.13856	0.89038
1182.21000	0.89094
1180.28143	0.89373
1178.35287	0.89833
1176.42430	0.90399
1174.49574	0.91019
1172.56717	0.91708
1170.63861	0.92545
1168.71004	0.93610
1166.78148	0.94896
1164.85292	0.96287
1162.92435	0.97571
1160.99579	0.98480
1159.06722	0.98842
1157.13866	0.98676
1155.21009	0.98106
1153.28153	0.97280
1151.35296	0.96343
1149.42440	0.95412
1147.49584	0.94611
1145.56727	0.94065
1143.63871	0.93825
1141.71014	0.93944
1139.78158	0.94467
1137.85301	0.95283
1135.92445	0.96241
1133.99588	0.97351
1132.06732	0.98673
1130.13876	1.00139
1128.21019	1.01577
1126.28163	1.02870
1124.35306	1.03992
1122.42450	1.04895
1120.49593	1.05527
1118.56737	1.05841
1116.63880	1.05806
1114.71024	1.05419
1112.78168	1.04673
1110.85311	1.03763
1108.92455	1.02954
1106.99598	1.02198
1105.06742	1.01385
1103.13885	1.00646
1101.21029	1.00209
1099.28172	1.00153
1097.35316	1.00406
1095.42460	1.00939
1093.49603	1.01738
1091.56747	1.02719
1089.63890	1.03813
1087.71034	1.05056
1085.78177	1.06419
1083.85321	1.07643
1081.92464	1.08542
1079.99608	1.09113
1078.06752	1.09277
1076.13895	1.09037
1074.21039	1.08640
1072.28182	1.08227
1070.35326	1.07765
1068.42469	1.07338
1066.49613	1.06997
1064.56756	1.06624
1062.63900	1.06204
1060.71044	1.05780
1058.78187	1.05330
1056.85331	1.04892
1054.92474	1.04485
1052.99618	1.04101
1051.06761	1.03819
1049.13905	1.03726
1047.21049	1.03843
1045.28192	1.04130
1043.35336	1.04557
1041.42479	1.05084
1039.49623	1.05517
1037.56766	1.05716
1035.63910	1.05736
1033.71053	1.05583
1031.78197	1.05188
1029.85341	1.04555
1027.92484	1.03690
1025.99628	1.02617
1024.06771	1.01507
1022.13915	1.00500
1020.21058	0.99671
1018.28202	0.99051
1016.35345	0.98468
1014.42489	0.97710
1012.49633	0.96718
1010.56776	0.95493
1008.63920	0.94062
1006.71063	0.92530
1004.78207	0.91053
1002.85350	0.89735
1000.92494	0.88642
998.99637	0.87795
997.06781	0.87116
995.13925	0.86495
993.21068	0.85858
991.28212	0.85166
989.35355	0.84421
987.42499	0.83703
985.49642	0.83097
983.56786	0.82650
981.63929	0.82370
979.71073	0.82212
977.78217	0.82069
975.85360	0.81786
973.92504	0.81213
971.99647	0.80337
970.06791	0.79309
968.13934	0.78273
966.21078	0.77328
964.28221	0.76626
962.35365	0.76380
960.42509	0.76754
958.49652	0.77646
956.56796	0.78545
954.63939	0.78874
952.71083	0.78484
950.78226	0.77589
948.85370	0.76513
946.92513	0.75602
944.99657	0.75049
943.06801	0.74805
941.13944	0.74744
939.21088	0.74822
937.28231	0.75056
935.35375	0.75434
933.42518	0.75886
931.49662	0.76394
929.56805	0.77006
927.63949	0.77726
925.71093	0.78499
923.78236	0.79250
921.85380	0.79917
919.92523	0.80470
917.99667	0.80912
916.06810	0.81267
914.13954	0.81581
912.21098	0.81897
910.28241	0.82225
908.35385	0.82559
906.42528	0.82921
904.49672	0.83296
902.56815	0.83555
900.63959	0.83601
898.71102	0.83474
896.78246	0.83210
894.85390	0.82812
892.92533	0.82336
890.99677	0.81846
889.06820	0.81388
887.13964	0.81048
885.21107	0.80879
883.28251	0.80853
881.35394	0.80932
879.42538	0.81123
877.49682	0.81425
875.56825	0.81821
873.63969	0.82253
871.71112	0.82689
869.78256	0.83178
867.85399	0.83724
865.92543	0.84323
863.99686	0.85013
862.06830	0.85742
860.13974	0.86492
858.21117	0.87289
856.28261	0.88067
854.35404	0.88779
852.42548	0.89416
850.49691	0.89922
848.56835	0.90294
846.63978	0.90592
844.71122	0.90874
842.78266	0.91197
840.85409	0.91539
838.92553	0.91842
836.99696	0.92113
835.06840	0.92353
833.13983	0.92555
831.21127	0.92766
829.28270	0.92995
827.35414	0.93156
825.42558	0.93190
823.49701	0.93162
821.56845	0.93178
819.63988	0.93292
817.71132	0.93477
815.78275	0.93676
813.85419	0.93867
811.92562	0.94108
809.99706	0.94480
808.06850	0.94926
806.13993	0.95325
804.21137	0.95729
802.28280	0.96218
800.35424	0.96750
798.42567	0.97273
796.49711	0.97788
794.56854	0.98294
792.63998	0.98769
790.71142	0.99212
788.78285	0.99657
786.85429	1.00155
784.92572	1.00654
782.99716	1.01052
781.06859	1.01400
779.14003	1.01769
777.21147	1.02081
775.28290	1.02282
773.35434	1.02448
771.42577	1.02589
769.49721	1.02601
767.56864	1.02563
765.64008	1.02600
763.71151	1.02596
761.78295	1.02511
759.85439	1.02481
757.92582	1.02576
755.99726	1.02760
754.06869	1.02926
752.14013	1.03013
750.21156	1.03040
748.28300	1.03012
746.35443	1.02990
744.42587	1.03085
742.49731	1.03303
740.56874	1.03590
738.64018	1.03894
736.71161	1.04197
734.78305	1.04586
732.85448	1.05070
730.92592	1.05550
728.99735	1.06033
727.06879	1.06509
725.14023	1.06862
723.21166	1.07169
721.28310	1.07634
719.35453	1.08241
717.42597	1.08820
715.49740	1.09263
713.56884	1.09524
711.64027	1.09675
709.71171	1.09836
707.78315	1.09972
705.85458	1.09940
703.92602	1.09773
701.99745	1.09630
700.06889	1.09390
698.14032	1.08826
696.21176	1.08063
694.28319	1.07368
692.35463	1.06746
690.42607	1.06022
688.49750	1.05226
686.56894	1.04550
684.64037	1.03951
682.71181	1.03346
680.78324	1.02910
678.85468	1.02709
676.92611	1.02488
674.99755	1.02107
673.06899	1.01826
671.14042	1.01948
669.21186	1.02464
667.28329	1.02762
665.35473	1.02777
663.42616	1.02943
661.49760	1.03215
659.56903	1.03636
657.64047	1.04269
655.71191	1.04929
653.78334	1.05502
651.85478	1.06130
649.92621	1.06835
647.99765	1.07313
646.06908	1.07626
644.14052	1.08282
642.21195	1.09300
640.28339	1.10068
638.35483	1.10265
636.42626	1.10206
634.49770	1.09974
632.56913	1.09496
630.64057	1.08973
628.71200	1.08544
626.78344	1.08295
624.85488	1.08193
622.92631	1.07977
620.99775	1.07532
619.06918	1.06919
617.14062	1.06167
615.21205	1.05519
613.28349	1.05275
611.35492	1.05270
609.42636	1.05195
607.49780	1.05071
605.56923	1.05081
603.64067	1.05315
601.71210	1.05743
599.78354	1.06204
