3997.91406	0.71013
3995.98550	0.70932
3994.05693	0.70987
3992.12837	0.71093
3990.19980	0.71091
3988.27124	0.71005
3986.34268	0.71011
3984.41411	0.71054
3982.48555	0.70930
3980.55698	0.70684
3978.62842	0.70612
3976.69985	0.70759
3974.77129	0.70801
3972.84272	0.70609
3970.91416	0.70386
3968.98560	0.70245
3967.05703	0.70160
3965.12847	0.70142
3963.19990	0.70229
3961.27134	0.70326
3959.34277	0.70272
3957.41421	0.70147
3955.48564	0.70181
3953.55708	0.70317
3951.62852	0.70304
3949.69995	0.70158
3947.77139	0.70102
3945.84282	0.70194
3943.91426	0.70312
3941.98569	0.70306
3940.05713	0.70146
3938.12856	0.69954
3936.20000	0.69858
3934.27144	0.69831
3932.34287	0.69765
3930.41431	0.69702
3928.48574	0.69647
3926.55718	0.69467
3924.62861	0.69189
3922.70005	0.69086
3920.77148	0.69174
3918.84292	0.69199
3916.91436	0.69110
3914.98579	0.69032
3913.05723	0.68906
3911.12866	0.68730
3909.20010	0.68642
3907.27153	0.68557
3905.34297	0.68212
3903.41440	0.67766
3901.48584	0.67846
3899.55728	0.68314
3897.62871	0.68636
3895.70015	0.68776
3893.77158	0.68755
3891.84302	0.68503
3889.91445	0.68434
3887.98589	0.68632
3886.05733	0.68610
3884.12876	0.68345
3882.20020	0.68166
3880.27163	0.67967
3878.34307	0.67955
3876.41450	0.68162
3874.48594	0.68334
3872.55737	0.68294
3870.62881	0.67979
3868.70025	0.67907
3866.77168	0.68219
3864.84312	0.68222
3862.91455	0.67937
3860.98599	0.67954
3859.05742	0.68065
3857.12886	0.68073
3855.20029	0.67870
3853.27173	0.67265
3851.34317	0.67126
3849.41460	0.67460
3847.48604	0.67780
3845.55747	0.67806
3843.62891	0.67405
3841.70034	0.66889
3839.77178	0.66644
3837.84321	0.66828
3835.91465	0.67256
3833.98609	0.67473
3832.05752	0.67390
3830.12896	0.67290
3828.20039	0.67302
3826.27183	0.67388
3824.34326	0.67605
3822.41470	0.67635
3820.48613	0.67119
3818.55757	0.66815
3816.62901	0.66811
3814.70044	0.66873
3812.77188	0.67000
3810.84331	0.67175
3808.91475	0.67263
3806.98618	0.66973
3805.05762	0.66679
3803.12905	0.66562
3801.20049	0.66205
3799.27193	0.66036
3797.34336	0.66083
3795.41480	0.66138
3793.48623	0.66283
3791.55767	0.66355
3789.62910	0.66313
3787.70054	0.66373
3785.77197	0.66482
3783.84341	0.66466
3781.91485	0.66413
3779.98628	0.66310
3778.05772	0.66191
3776.12915	0.66212
3774.20059	0.66328
3772.27202	0.66498
3770.34346	0.66687
3768.41489	0.66780
3766.48633	0.66680
3764.55777	0.66504
3762.62920	0.66427
3760.70064	0.66323
3758.77207	0.66102
3756.84351	0.65991
3754.91494	0.66070
3752.98638	0.66227
3751.05781	0.66142
3749.12925	0.65913
3747.20069	0.65802
3745.27212	0.65400
3743.34356	0.65184
3741.41499	0.65652
3739.48643	0.66268
3737.55786	0.66592
3735.62930	0.66222
3733.70074	0.65590
3731.77217	0.65400
3729.84361	0.65440
3727.91504	0.65518
3725.98648	0.65548
3724.05791	0.65590
3722.12935	0.65681
3720.20078	0.65754
3718.27222	0.65913
3716.34366	0.66191
3714.41509	0.66379
3712.48653	0.66070
3710.55796	0.65429
3708.62940	0.65385
3706.70083	0.65659
3704.77227	0.65877
3702.84370	0.65864
3700.91514	0.65745
3698.98658	0.65837
3697.05801	0.66057
3695.12945	0.66259
3693.20088	0.66437
3691.27232	0.66618
3689.34375	0.66729
3687.41519	0.66823
3685.48662	0.67041
3683.55806	0.67361
3681.62950	0.67711
3679.70093	0.68025
3677.77237	0.68215
3675.84380	0.68378
3673.91524	0.68819
3671.98667	0.69099
3670.05811	0.69084
3668.12954	0.69536
3666.20098	0.70384
3664.27242	0.71037
3662.34385	0.71407
3660.41529	0.71813
3658.48672	0.72324
3656.55816	0.72825
3654.62959	0.73364
3652.70103	0.73938
3650.77246	0.74462
3648.84390	0.74819
3646.91534	0.75165
3644.98677	0.75661
3643.05821	0.76319
3641.12964	0.77014
3639.20108	0.77648
3637.27251	0.78316
3635.34395	0.79069
3633.41538	0.79954
3631.48682	0.80928
3629.55826	0.81710
3627.62969	0.82278
3625.70113	0.82996
3623.77256	0.83635
3621.84400	0.83974
3619.91543	0.84157
3617.98687	0.84811
3616.05830	0.86037
3614.12974	0.87167
3612.20118	0.87799
3610.27261	0.88262
3608.34405	0.88989
3606.41548	0.90040
3604.48692	0.91021
3602.55835	0.91707
3600.62979	0.92175
3598.70123	0.92748
3596.77266	0.93626
3594.84410	0.94645
3592.91553	0.95488
3590.98697	0.96261
3589.05840	0.97256
3587.12984	0.98198
3585.20127	0.98904
3583.27271	0.99796
3581.34415	1.00734
3579.41558	1.01441
3577.48702	1.01996
3575.55845	1.02435
3573.62989	1.02815
3571.70132	1.03462
3569.77276	1.04423
3567.84419	1.05630
3565.91563	1.06817
3563.98707	1.07572
3562.05850	1.08110
3560.12994	1.08600
3558.20137	1.09232
3556.27281	1.09941
3554.34424	1.10593
3552.41568	1.11571
3550.48711	1.12877
3548.55855	1.13948
3546.62999	1.14802
3544.70142	1.15793
3542.77286	1.16712
3540.84429	1.17371
3538.91573	1.17950
3536.98716	1.18505
3535.05860	1.18871
3533.13003	1.19173
3531.20147	1.19879
3529.27291	1.20879
3527.34434	1.21890
3525.41578	1.23056
3523.48721	1.23957
3521.55865	1.24459
3519.63008	1.25280
3517.70152	1.26426
3515.77295	1.27296
3513.84439	1.27946
3511.91583	1.28620
3509.98726	1.29328
3508.05870	1.30422
3506.13013	1.32033
3504.20157	1.33764
3502.27300	1.35042
3500.34444	1.35902
3498.41587	1.36750
3496.48731	1.37646
3494.55875	1.38532
3492.63018	1.39116
3490.70162	1.39126
3488.77305	1.39044
3486.84449	1.39958
3484.91592	1.41690
3482.98736	1.43002
3481.05879	1.43669
3479.13023	1.44024
3477.20167	1.44289
3475.27310	1.44379
3473.34454	1.44118
3471.41597	1.44313
3469.48741	1.45296
3467.55884	1.46038
3465.63028	1.46322
3463.70171	1.47051
3461.77315	1.48014
3459.84459	1.48310
3457.91602	1.48290
3455.98746	1.48508
3454.05889	1.48854
3452.13033	1.49209
3450.20176	1.49140
3448.27320	1.48772
3446.34464	1.49207
3444.41607	1.50060
3442.48751	1.50614
3440.55894	1.51577
3438.63038	1.52790
3436.70181	1.53478
3434.77325	1.53684
3432.84468	1.53654
3430.91612	1.53834
3428.98756	1.54114
3427.05899	1.53691
3425.13043	1.53123
3423.20186	1.53255
3421.27330	1.53277
3419.34473	1.52567
3417.41617	1.51968
3415.48760	1.51993
3413.55904	1.52435
3411.63048	1.53099
3409.70191	1.53475
3407.77335	1.52998
3405.84478	1.52379
3403.91622	1.52661
3401.98765	1.53480
3400.05909	1.53740
3398.13052	1.53217
3396.20196	1.52601
3394.27340	1.52551
3392.34483	1.53004
3390.41627	1.53502
3388.48770	1.54121
3386.55914	1.55014
3384.63057	1.55502
3382.70201	1.54948
3380.77344	1.54044
3378.84488	1.53931
3376.91632	1.54742
3374.98775	1.55834
3373.05919	1.56450
3371.13062	1.56224
3369.20206	1.55761
3367.27349	1.55472
3365.34493	1.54879
3363.41636	1.54324
3361.48780	1.54654
3359.55924	1.55590
3357.63067	1.56601
3355.70211	1.57170
3353.77354	1.56657
3351.84498	1.55912
3349.91641	1.56051
3347.98785	1.56594
3346.05928	1.56629
3344.13072	1.56300
3342.20216	1.56541
3340.27359	1.57274
3338.34503	1.57613
3336.41646	1.57933
3334.48790	1.58767
3332.55933	1.59342
3330.63077	1.59264
3328.70220	1.59112
3326.77364	1.58979
3324.84508	1.58937
3322.91651	1.59603
3320.98795	1.60625
3319.05938	1.61293
3317.13082	1.61555
3315.20225	1.61314
3313.27369	1.61220
3311.34513	1.62063
3309.41656	1.63254
3307.48800	1.64125
3305.55943	1.64420
3303.63087	1.63953
3301.70230	1.63641
3299.77374	1.64145
3297.84517	1.64770
3295.91661	1.65110
3293.98805	1.64941
3292.05948	1.64232
3290.13092	1.63922
3288.20235	1.64234
3286.27379	1.64494
3284.34522	1.64666
3282.41666	1.64691
3280.48809	1.64090
3278.55953	1.63626
3276.63097	1.64419
3274.70240	1.65473
3272.77384	1.65162
3270.84527	1.63900
3268.91671	1.62780
3266.98814	1.61985
3265.05958	1.61136
3263.13101	1.60186
3261.20245	1.59705
3259.27389	1.59672
3257.34532	1.59246
3255.41676	1.58149
3253.48819	1.56776
3251.55963	1.55626
3249.63106	1.54940
3247.70250	1.54380
3245.77393	1.53768
3243.84537	1.53338
3241.91681	1.52836
3239.98824	1.51836
3238.05968	1.50552
3236.13111	1.49542
3234.20255	1.48968
3232.27398	1.48569
3230.34542	1.48275
3228.41685	1.48004
3226.48829	1.47570
3224.55973	1.47149
3222.63116	1.46630
3220.70260	1.45747
3218.77403	1.44969
3216.84547	1.44414
3214.91690	1.43497
3212.98834	1.42514
3211.05977	1.42169
3209.13121	1.42055
3207.20265	1.41626
3205.27408	1.41170
3203.34552	1.40707
3201.41695	1.39865
3199.48839	1.38997
3197.55982	1.38729
3195.63126	1.38756
3193.70269	1.38300
3191.77413	1.37415
3189.84557	1.36765
3187.91700	1.36526
3185.98844	1.36364
3184.05987	1.35922
3182.13131	1.35015
3180.20274	1.33950
3178.27418	1.33199
3176.34562	1.32757
3174.41705	1.32351
3172.48849	1.31883
3170.55992	1.31402
3168.63136	1.30828
3166.70279	1.30094
3164.77423	1.29499
3162.84566	1.29194
3160.91710	1.28857
3158.98854	1.28335
3157.05997	1.27775
3155.13141	1.27344
3153.20284	1.27160
3151.27428	1.26940
3149.34571	1.26396
3147.41715	1.25816
3145.48858	1.25384
3143.56002	1.24941
3141.63146	1.24534
3139.70289	1.24303
3137.77433	1.24204
3135.84576	1.24049
3133.91720	1.23788
3131.98863	1.23578
3130.06007	1.23426
3128.13150	1.23213
3126.20294	1.23074
3124.27438	1.23184
3122.34581	1.23362
3120.41725	1.23450
3118.48868	1.23606
3116.56012	1.23792
3114.63155	1.23862
3112.70299	1.23860
3110.77442	1.23768
3108.84586	1.23619
3106.91730	1.23522
3104.98873	1.23504
3103.06017	1.23590
3101.13160	1.23558
3099.20304	1.23083
3097.27447	1.22445
3095.34591	1.22045
3093.41734	1.21850
3091.48878	1.21817
3089.56022	1.21769
3087.63165	1.21471
3085.70309	1.21242
3083.77452	1.21287
3081.84596	1.21248
3079.91739	1.20957
3077.98883	1.20542
3076.06026	1.20045
3074.13170	1.19540
3072.20314	1.19174
3070.27457	1.18884
3068.34601	1.18465
3066.41744	1.17960
3064.48888	1.17554
3062.56031	1.17201
3060.63175	1.16751
3058.70318	1.16214
3056.77462	1.15750
3054.84606	1.15392
3052.91749	1.14996
3050.98893	1.14606
3049.06036	1.14342
3047.13180	1.14027
3045.20323	1.13393
3043.27467	1.12527
3041.34610	1.11759
3039.41754	1.11144
3037.48898	1.10650
3035.56041	1.10422
3033.63185	1.10295
3031.70328	1.09981
3029.77472	1.09578
3027.84615	1.09122
3025.91759	1.08529
3023.98903	1.08061
3022.06046	1.07932
3020.13190	1.07897
3018.20333	1.07655
3016.27477	1.07254
3014.34620	1.06938
3012.41764	1.06684
3010.48907	1.06305
3008.56051	1.05980
3006.63195	1.05884
3004.70338	1.05790
3002.77482	1.05590
3000.84625	1.05452
2998.91769	1.05438
2996.98912	1.05514
2995.06056	1.05671
2993.13199	1.05882
2991.20343	1.06114
2989.27487	1.06354
2987.34630	1.06621
2985.41774	1.07024
2983.48917	1.07690
2981.56061	1.08576
2979.63204	1.09481
2977.70348	1.10221
2975.77491	1.10770
2973.84635	1.11256
2971.91779	1.11818
2969.98922	1.12567
2968.06066	1.13552
2966.13209	1.14564
2964.20353	1.15282
2962.27496	1.15612
2960.34640	1.15612
2958.41783	1.15415
2956.48927	1.15092
2954.56071	1.14493
2952.63214	1.13708
2950.70358	1.13074
2948.77501	1.12636
2946.84645	1.12458
2944.91788	1.12747
2942.98932	1.13325
2941.06075	1.13896
2939.13219	1.14626
2937.20363	1.15782
2935.27506	1.17073
2933.34650	1.18084
2931.41793	1.18917
2929.48937	1.19684
2927.56080	1.20280
2925.63224	1.20738
2923.70367	1.21080
2921.77511	1.21312
2919.84655	1.21409
2917.91798	1.21089
2915.98942	1.19876
2914.06085	1.17594
2912.13229	1.14951
2910.20372	1.12830
2908.27516	1.11329
2906.34659	1.10178
2904.41803	1.09288
2902.48947	1.08639
2900.56090	1.08181
2898.63234	1.07766
2896.70377	1.07280
2894.77521	1.06868
2892.84664	1.06623
2890.91808	1.06303
2888.98952	1.05715
2887.06095	1.05068
2885.13239	1.04707
2883.20382	1.04653
2881.27526	1.04677
2879.34669	1.04669
2877.41813	1.04642
2875.48956	1.04593
2873.56100	1.04446
2871.63244	1.04039
2869.70387	1.03323
2867.77531	1.02474
2865.84674	1.01724
2863.91818	1.01269
2861.98961	1.01180
2860.06105	1.01435
2858.13248	1.02041
2856.20392	1.02853
2854.27536	1.03637
2852.34679	1.04375
2850.41823	1.04665
2848.48966	1.03534
2846.56110	1.00968
2844.63253	0.98206
2842.70397	0.96111
2840.77540	0.94649
2838.84684	0.93500
2836.91828	0.92500
2834.98971	0.91686
2833.06115	0.91095
2831.13258	0.90605
2829.20402	0.90096
2827.27545	0.89608
2825.34689	0.89190
2823.41832	0.88815
2821.48976	0.88467
2819.56120	0.88145
2817.63263	0.87820
2815.70407	0.87445
2813.77550	0.87007
2811.84694	0.86539
2809.91837	0.86085
2807.98981	0.85692
2806.06124	0.85398
2804.13268	0.85177
2802.20412	0.84949
2800.27555	0.84660
2798.34699	0.84303
2796.41842	0.83954
2794.48986	0.83679
2792.56129	0.83426
2790.63273	0.83152
2788.70416	0.82887
2786.77560	0.82687
2784.84704	0.82539
2782.91847	0.82330
2780.98991	0.82014
2779.06134	0.81673
2777.13278	0.81403
2775.20421	0.81205
2773.27565	0.80988
2771.34708	0.80715
2769.41852	0.80472
2767.48996	0.80309
2765.56139	0.80147
2763.63283	0.79918
2761.70426	0.79637
2759.77570	0.79350
2757.84713	0.79111
2755.91857	0.78926
2753.99001	0.78734
2752.06144	0.78536
2750.13288	0.78361
2748.20431	0.78137
2746.27575	0.77846
2744.34718	0.77574
2742.41862	0.77380
2740.49005	0.77223
2738.56149	0.77030
2736.63293	0.76839
2734.70436	0.76717
2732.77580	0.76584
2730.84723	0.76334
2728.91867	0.76043
2726.99010	0.75847
2725.06154	0.75725
2723.13297	0.75564
2721.20441	0.75328
2719.27585	0.75083
2717.34728	0.74862
2715.41872	0.74642
2713.49015	0.74439
2711.56159	0.74250
2709.63302	0.74089
2707.70446	0.73974
2705.77589	0.73864
2703.84733	0.73733
2701.91877	0.73593
2699.99020	0.73469
2698.06164	0.73370
2696.13307	0.73244
2694.20451	0.73061
2692.27594	0.72866
2690.34738	0.72718
2688.41881	0.72585
2686.49025	0.72403
2684.56169	0.72237
2682.63312	0.72149
2680.70456	0.72026
2678.77599	0.71816
2676.84743	0.71628
2674.91886	0.71486
2672.99030	0.71327
2671.06173	0.71140
2669.13317	0.70947
2667.20461	0.70776
2665.27604	0.70639
2663.34748	0.70516
2661.41891	0.70396
2659.49035	0.70285
2657.56178	0.70162
2655.63322	0.70009
2653.70465	0.69829
2651.77609	0.69618
2649.84753	0.69404
2647.91896	0.69214
2645.99040	0.69024
2644.06183	0.68835
2642.13327	0.68691
2640.20470	0.68573
2638.27614	0.68410
2636.34757	0.68213
2634.41901	0.68069
2632.49045	0.67991
2630.56188	0.67932
2628.63332	0.67860
2626.70475	0.67768
2624.77619	0.67658
2622.84762	0.67531
2620.91906	0.67397
2618.99049	0.67294
2617.06193	0.67224
2615.13337	0.67167
2613.20480	0.67116
2611.27624	0.67046
2609.34767	0.66948
2607.41911	0.66856
2605.49054	0.66767
2603.56198	0.66655
2601.63342	0.66518
2599.70485	0.66369
2597.77629	0.66235
2595.84772	0.66122
2593.91916	0.65978
2591.99059	0.65761
2590.06203	0.65517
2588.13346	0.65322
2586.20490	0.65184
2584.27634	0.65065
2582.34777	0.64925
2580.41921	0.64761
2578.49064	0.64604
2576.56208	0.64466
2574.63351	0.64326
2572.70495	0.64170
2570.77638	0.64032
2568.84782	0.63941
2566.91926	0.63864
2564.99069	0.63749
2563.06213	0.63573
2561.13356	0.63375
2559.20500	0.63219
2557.27643	0.63098
2555.34787	0.62955
2553.41930	0.62795
2551.49074	0.62665
2549.56218	0.62549
2547.63361	0.62406
2545.70505	0.62245
2543.77648	0.62101
2541.84792	0.61975
2539.91935	0.61858
2537.99079	0.61782
2536.06222	0.61720
2534.13366	0.61608
2532.20510	0.61467
2530.27653	0.61353
2528.34797	0.61281
2526.41940	0.61219
2524.49084	0.61096
2522.56227	0.60933
2520.63371	0.60840
2518.70514	0.60821
2516.77658	0.60792
2514.84802	0.60708
2512.91945	0.60589
2510.99089	0.60481
2509.06232	0.60393
2507.13376	0.60296
2505.20519	0.60182
2503.27663	0.60059
2501.34806	0.59937
2499.41950	0.59828
2497.49094	0.59731
2495.56237	0.59616
2493.63381	0.59469
2491.70524	0.59314
2489.77668	0.59157
2487.84811	0.58980
2485.91955	0.58794
2483.99098	0.58639
2482.06242	0.58545
2480.13386	0.58477
2478.20529	0.58372
2476.27673	0.58236
2474.34816	0.58120
2472.41960	0.58032
2470.49103	0.57936
2468.56247	0.57798
2466.63391	0.57636
2464.70534	0.57502
2462.77678	0.57400
2460.84821	0.57291
2458.91965	0.57161
2456.99108	0.57035
2455.06252	0.56921
2453.13395	0.56805
2451.20539	0.56678
2449.27683	0.56541
2447.34826	0.56397
2445.41970	0.56249
2443.49113	0.56106
2441.56257	0.55987
2439.63400	0.55889
2437.70544	0.55777
2435.77687	0.55644
2433.84831	0.55519
2431.91975	0.55424
2429.99118	0.55365
2428.06262	0.55314
2426.13405	0.55245
2424.20549	0.55172
2422.27692	0.55108
2420.34836	0.55042
2418.41979	0.54970
2416.49123	0.54899
2414.56267	0.54836
2412.63410	0.54784
2410.70554	0.54733
2408.77697	0.54656
2406.84841	0.54554
2404.91984	0.54443
2402.99128	0.54314
2401.06271	0.54167
2399.13415	0.54027
2397.20559	0.53882
2395.27702	0.53720
2393.34846	0.53570
2391.41989	0.53455
2389.49133	0.53350
2387.56276	0.53227
2385.63420	0.53105
2383.70563	0.53027
2381.77707	0.52997
2379.84851	0.52978
2377.91994	0.52938
2375.99138	0.52874
2374.06281	0.52785
2372.13425	0.52659
2370.20568	0.52570
2368.27712	0.52619
2366.34855	0.52737
2364.41999	0.52696
2362.49143	0.52395
2360.56286	0.52066
2358.63430	0.51836
2356.70573	0.51645
2354.77717	0.51599
2352.84860	0.51654
2350.92004	0.51628
2348.99147	0.51529
2347.06291	0.51418
2345.13435	0.51313
2343.20578	0.51201
2341.27722	0.51039
2339.34865	0.50882
2337.42009	0.50883
2335.49152	0.50957
2333.56296	0.50911
2331.63440	0.50888
2329.70583	0.50980
2327.77727	0.50981
2325.84870	0.50882
2323.92014	0.50807
2321.99157	0.50762
2320.06301	0.50726
2318.13444	0.50710
2316.20588	0.50699
2314.27732	0.50663
2312.34875	0.50611
2310.42019	0.50562
2308.49162	0.50516
2306.56306	0.50466
2304.63449	0.50414
2302.70593	0.50359
2300.77736	0.50295
2298.84880	0.50238
2296.92024	0.50207
2294.99167	0.50184
2293.06311	0.50134
2291.13454	0.50050
2289.20598	0.49974
2287.27741	0.49931
2285.34885	0.49900
2283.42028	0.49859
2281.49172	0.49809
2279.56316	0.49761
2277.63459	0.49716
2275.70603	0.49679
2273.77746	0.49662
2271.84890	0.49667
2269.92033	0.49662
2267.99177	0.49631
2266.06320	0.49611
2264.13464	0.49616
2262.20608	0.49622
2260.27751	0.49614
2258.34895	0.49575
2256.42038	0.49490
2254.49182	0.49385
2252.56325	0.49305
2250.63469	0.49236
2248.70612	0.49128
2246.77756	0.49011
2244.84900	0.48939
2242.92043	0.48877
2240.99187	0.48792
2239.06330	0.48701
2237.13474	0.48615
2235.20617	0.48545
2233.27761	0.48484
2231.34904	0.48410
2229.42048	0.48330
2227.49192	0.48274
2225.56335	0.48262
2223.63479	0.48271
2221.70622	0.48269
2219.77766	0.48253
2217.84909	0.48252
2215.92053	0.48281
2213.99196	0.48331
2212.06340	0.48387
2210.13484	0.48448
2208.20627	0.48499
2206.27771	0.48515
2204.34914	0.48514
2202.42058	0.48532
2200.49201	0.48555
2198.56345	0.48563
2196.63488	0.48558
2194.70632	0.48539
2192.77776	0.48500
2190.84919	0.48455
2188.92063	0.48424
2186.99206	0.48394
2185.06350	0.48349
2183.13493	0.48289
2181.20637	0.48216
2179.27781	0.48155
2177.34924	0.48134
2175.42068	0.48135
2173.49211	0.48117
2171.56355	0.48072
2169.63498	0.48018
2167.70642	0.47972
2165.77785	0.47945
2163.84929	0.47930
2161.92073	0.47916
2159.99216	0.47892
2158.06360	0.47847
2156.13503	0.47796
2154.20647	0.47760
2152.27790	0.47734
2150.34934	0.47704
2148.42077	0.47654
2146.49221	0.47582
2144.56365	0.47520
2142.63508	0.47467
2140.70652	0.47390
2138.77795	0.47322
2136.84939	0.47291
2134.92082	0.47269
2132.99226	0.47244
2131.06369	0.47233
2129.13513	0.47235
2127.20657	0.47235
2125.27800	0.47229
2123.34944	0.47241
2121.42087	0.47275
2119.49231	0.47305
2117.56374	0.47322
2115.63518	0.47340
2113.70661	0.47364
2111.77805	0.47386
2109.84949	0.47396
2107.92092	0.47397
2105.99236	0.47394
2104.06379	0.47380
2102.13523	0.47344
2100.20666	0.47279
2098.27810	0.47199
2096.34953	0.47127
2094.42097	0.47061
2092.49241	0.46987
2090.56384	0.46905
2088.63528	0.46825
2086.70671	0.46753
2084.77815	0.46667
2082.84958	0.46562
2080.92102	0.46476
2078.99245	0.46430
2077.06389	0.46396
2075.13533	0.46338
2073.20676	0.46274
2071.27820	0.46248
2069.34963	0.46256
2067.42107	0.46270
2065.49250	0.46281
2063.56394	0.46285
2061.63537	0.46277
2059.70681	0.46262
2057.77825	0.46244
2055.84968	0.46207
2053.92112	0.46139
2051.99255	0.46072
2050.06399	0.46026
2048.13542	0.45964
2046.20686	0.45858
2044.27830	0.45735
2042.34973	0.45623
2040.42117	0.45511
2038.49260	0.45389
2036.56404	0.45270
2034.63547	0.45172
2032.70691	0.45094
2030.77834	0.45021
2028.84978	0.44945
2026.92122	0.44889
2024.99265	0.44868
2023.06409	0.44860
2021.13552	0.44855
2019.20696	0.44861
2017.27839	0.44869
2015.34983	0.44888
2013.42126	0.44917
2011.49270	0.44920
2009.56414	0.44901
2007.63557	0.44908
2005.70701	0.44934
2003.77844	0.44919
2001.84988	0.44862
1999.92131	0.44809
1997.99275	0.44764
1996.06418	0.44708
1994.13562	0.44617
1992.20706	0.44481
1990.27849	0.44333
1988.34993	0.44197
1986.42136	0.44066
1984.49280	0.43940
1982.56423	0.43828
1980.63567	0.43732
1978.70710	0.43651
1976.77854	0.43583
1974.84998	0.43537
1972.92141	0.43513
1970.99285	0.43505
1969.06428	0.43513
1967.13572	0.43533
1965.20715	0.43552
1963.27859	0.43569
1961.35002	0.43588
1959.42146	0.43606
1957.49290	0.43628
1955.56433	0.43653
1953.63577	0.43669
1951.70720	0.43664
1949.77864	0.43626
1947.85007	0.43559
1945.92151	0.43484
1943.99294	0.43390
1942.06438	0.43252
1940.13582	0.43116
1938.20725	0.43005
1936.27869	0.42891
1934.35012	0.42774
1932.42156	0.42658
1930.49299	0.42536
1928.56443	0.42416
1926.63586	0.42323
1924.70730	0.42233
1922.77874	0.42118
1920.85017	0.42032
1918.92161	0.41978
1916.99304	0.41921
1915.06448	0.41889
1913.13591	0.41881
1911.20735	0.41873
1909.27878	0.41854
1907.35022	0.41833
1905.42166	0.41829
1903.49309	0.41842
1901.56453	0.41855
1899.63596	0.41864
1897.70740	0.41879
1895.77883	0.41883
1893.85027	0.41876
1891.92171	0.41870
1889.99314	0.41831
1888.06458	0.41769
1886.13601	0.41742
1884.20745	0.41729
1882.27888	0.41694
1880.35032	0.41635
1878.42175	0.41578
1876.49319	0.41543
1874.56463	0.41508
1872.63606	0.41471
1870.70750	0.41448
1868.77893	0.41408
1866.85037	0.41340
1864.92180	0.41303
1862.99324	0.41293
1861.06467	0.41277
1859.13611	0.41249
1857.20755	0.41199
1855.27898	0.41132
1853.35042	0.41077
1851.42185	0.41055
1849.49329	0.41047
1847.56472	0.41030
1845.63616	0.40986
1843.70759	0.40878
1841.77903	0.40761
1839.85047	0.40679
1837.92190	0.40594
1835.99334	0.40510
1834.06477	0.40463
1832.13621	0.40438
1830.20764	0.40347
1828.27908	0.40219
1826.35051	0.40135
1824.42195	0.40050
1822.49339	0.39978
1820.56482	0.39933
1818.63626	0.39892
1816.70769	0.39854
1814.77913	0.39842
1812.85056	0.39846
1810.92200	0.39839
1808.99343	0.39838
1807.06487	0.39862
1805.13631	0.39911
1803.20774	0.39974
1801.27918	0.40028
1799.35061	0.40042
1797.42205	0.40053
1795.49348	0.40098
1793.56492	0.40134
1791.63635	0.40105
1789.70779	0.40076
1787.77923	0.40105
1785.85066	0.40149
1783.92210	0.40182
1781.99353	0.40206
1780.06497	0.40219
1778.13640	0.40249
1776.20784	0.40286
1774.27927	0.40301
1772.35071	0.40288
1770.42215	0.40295
1768.49358	0.40333
1766.56502	0.40377
1764.63645	0.40442
1762.70789	0.40527
1760.77932	0.40649
1758.85076	0.40822
1756.92220	0.41077
1754.99363	0.41400
1753.06507	0.41768
1751.13650	0.42286
1749.20794	0.42950
1747.27937	0.43579
1745.35081	0.44141
1743.42224	0.44677
1741.49368	0.45191
1739.56512	0.45674
1737.63655	0.46056
1735.70799	0.46371
1733.77942	0.46802
1731.85086	0.47225
1729.92229	0.47592
1727.99373	0.48013
1726.06516	0.48495
1724.13660	0.49095
1722.20804	0.49725
1720.27947	0.50321
1718.35091	0.51185
1716.42234	0.52639
1714.49378	0.53945
1712.56521	0.55001
1710.63665	0.56164
1708.70808	0.57558
1706.77952	0.59630
1704.85096	0.62436
1702.92239	0.65042
1700.99383	0.68646
1699.06526	0.74430
1697.13670	0.80113
1695.20813	0.85745
1693.27957	0.89944
1691.35100	0.93409
1689.42244	0.97757
1687.49388	1.01954
1685.56531	1.06236
1683.63675	1.12963
1681.70818	1.17987
1679.77962	1.20873
1677.85105	1.23616
1675.92249	1.27012
1673.99392	1.30643
1672.06536	1.33184
1670.13680	1.35649
1668.20823	1.38552
1666.27967	1.40350
1664.35110	1.41784
1662.42254	1.43482
1660.49397	1.44732
1658.56541	1.45436
1656.63684	1.45842
1654.70828	1.46241
1652.77972	1.46635
1650.85115	1.46634
1648.92259	1.46367
1646.99402	1.45925
1645.06546	1.45897
1643.13689	1.45808
1641.20833	1.45518
1639.27976	1.45184
1637.35120	1.44878
1635.42264	1.44323
1633.49407	1.43823
1631.56551	1.43433
1629.63694	1.42548
1627.70838	1.41304
1625.77981	1.40287
1623.85125	1.38997
1621.92269	1.37040
1619.99412	1.35244
1618.06556	1.32851
1616.13699	1.28956
1614.20843	1.25905
1612.27986	1.23601
1610.35130	1.20983
1608.42273	1.18155
1606.49417	1.15741
1604.56561	1.13916
1602.63704	1.12442
1600.70848	1.11323
1598.77991	1.10550
1596.85135	1.09977
1594.92278	1.09515
1592.99422	1.09207
1591.06565	1.09188
1589.13709	1.09516
1587.20853	1.10143
1585.27996	1.10989
1583.35140	1.12051
1581.42283	1.13246
1579.49427	1.14402
1577.56570	1.15818
1575.63714	1.17941
1573.70857	1.19604
1571.78001	1.20824
1569.85145	1.22543
1567.92288	1.24406
1565.99432	1.25880
1564.06575	1.27312
1562.13719	1.28452
1560.20862	1.29756
1558.28006	1.32337
1556.35149	1.33302
1554.42293	1.33440
1552.49437	1.33588
1550.56580	1.33647
1548.63724	1.33589
1546.70867	1.33480
1544.78011	1.33150
1542.85154	1.32530
1540.92298	1.31671
1538.99441	1.30515
1537.06585	1.29899
1535.13729	1.29330
1533.20872	1.28300
1531.28016	1.27166
1529.35159	1.26378
1527.42303	1.25648
1525.49446	1.24900
1523.56590	1.24378
1521.63733	1.23964
1519.70877	1.23665
1517.78021	1.22926
1515.85164	1.21413
1513.92308	1.19738
1511.99451	1.18072
1510.06595	1.16424
1508.13738	1.13692
1506.20882	1.08765
1504.28025	1.06393
1502.35169	1.05015
1500.42313	1.03278
1498.49456	1.00914
1496.56600	0.98142
1494.63743	0.96109
1492.70887	0.94751
1490.78030	0.93079
1488.85174	0.90881
1486.92317	0.89382
1484.99461	0.88515
1483.06605	0.87872
1481.13748	0.87459
1479.20892	0.87441
1477.28035	0.87873
1475.35179	0.88747
1473.42322	0.90341
1471.49466	0.92292
1469.56610	0.93498
1467.63753	0.94310
1465.70897	0.95218
1463.78040	0.96175
1461.85184	0.96820
1459.92327	0.97310
1457.99471	0.98126
1456.06614	0.99134
1454.13758	0.99524
1452.20902	0.99651
1450.28045	0.99669
1448.35189	0.99509
1446.42332	0.99167
1444.49476	0.98759
1442.56619	0.98281
1440.63763	0.97751
1438.70906	0.97124
1436.78050	0.96150
1434.85194	0.95057
1432.92337	0.94171
1430.99481	0.93245
1429.06624	0.92314
1427.13768	0.91694
1425.20911	0.91400
1423.28055	0.91354
1421.35198	0.91473
1419.42342	0.91706
1417.49486	0.91920
1415.56629	0.91995
1413.63773	0.92009
1411.70916	0.91950
1409.78060	0.91851
1407.85203	0.91805
1405.92347	0.91853
1403.99490	0.91955
1402.06634	0.92021
1400.13778	0.92036
1398.20921	0.92037
1396.28065	0.92054
1394.35208	0.92099
1392.42352	0.92269
1390.49495	0.92664
1388.56639	0.93476
1386.63782	0.94816
1384.70926	0.96232
1382.78070	0.97438
1380.85213	0.98338
1378.92357	0.98702
1376.99500	0.98410
1375.06644	0.97342
1373.13787	0.95707
1371.20931	0.94061
1369.28074	0.92249
1367.35218	0.90244
1365.42362	0.88436
1363.49505	0.86721
1361.56649	0.85129
1359.63792	0.84062
1357.70936	0.83413
1355.78079	0.82966
1353.85223	0.82669
1351.92366	0.82499
1349.99510	0.82394
1348.06654	0.82318
1346.13797	0.82272
1344.20941	0.82286
1342.28084	0.82378
1340.35228	0.82594
1338.42371	0.82969
1336.49515	0.83463
1334.56659	0.84085
1332.63802	0.84870
1330.70946	0.85741
1328.78089	0.86507
1326.85233	0.87044
1324.92376	0.87370
1322.99520	0.87587
1321.06663	0.87793
1319.13807	0.87987
1317.20951	0.88097
1315.28094	0.88115
1313.35238	0.88093
1311.42381	0.88013
1309.49525	0.87806
1307.56668	0.87452
1305.63812	0.87009
1303.70955	0.86551
1301.78099	0.86046
1299.85243	0.85415
1297.92386	0.84657
1295.99530	0.83883
1294.06673	0.83246
1292.13817	0.82807
1290.20960	0.82544
1288.28104	0.82413
1286.35247	0.82376
1284.42391	0.82378
1282.49535	0.82385
1280.56678	0.82425
1278.63822	0.82571
1276.70965	0.82887
1274.78109	0.83401
1272.85252	0.84091
1270.92396	0.84910
1268.99539	0.85787
1267.06683	0.86647
1265.13827	0.87424
1263.20970	0.88044
1261.28114	0.88447
1259.35257	0.88686
1257.42401	0.88886
1255.49544	0.89103
1253.56688	0.89337
1251.63831	0.89564
1249.70975	0.89748
1247.78119	0.89866
1245.85262	0.89943
1243.92406	0.90007
1241.99549	0.90021
1240.06693	0.89930
1238.13836	0.89714
1236.20980	0.89379
1234.28123	0.88928
1232.35267	0.88341
1230.42411	0.87603
1228.49554	0.86749
1226.56698	0.85833
1224.63841	0.84875
1222.70985	0.83877
1220.78128	0.82896
1218.85272	0.82029
1216.92415	0.81342
1214.99559	0.80874
1213.06703	0.80622
1211.13846	0.80568
1209.20990	0.80674
1207.28133	0.80757
1205.35277	0.80566
1203.42420	0.79993
1201.49564	0.79118
1199.56708	0.78101
1197.63851	0.77044
1195.70995	0.76022
1193.78138	0.75168
1191.85282	0.74562
1189.92425	0.74160
1187.99569	0.73903
1186.06712	0.73805
1184.13856	0.73910
1182.21000	0.74230
1180.28143	0.74759
1178.35287	0.75480
1176.42430	0.76356
1174.49574	0.77333
1172.56717	0.78374
1170.63861	0.79510
1168.71004	0.80850
1166.78148	0.82509
1164.85292	0.84485
1162.92435	0.86585
1160.99579	0.88456
1159.06722	0.89674
1157.13866	0.89951
1155.21009	0.89351
1153.28153	0.88157
1151.35296	0.86590
1149.42440	0.84829
1147.49584	0.83076
1145.56727	0.81557
1143.63871	0.80489
1141.71014	0.79969
1139.78158	0.79962
1137.85301	0.80369
1135.92445	0.81046
1133.99588	0.81919
1132.06732	0.83070
1130.13876	0.84572
1128.21019	0.86347
1126.28163	0.88165
1124.35306	0.89761
1122.42450	0.91091
1120.49593	0.92259
1118.56737	0.93196
1116.63880	0.93729
1114.71024	0.93821
1112.78168	0.93532
1110.85311	0.92975
1108.92455	0.92345
1106.99598	0.91783
1105.06742	0.91291
1103.13885	0.90889
1101.21029	0.90637
1099.28172	0.90625
1097.35316	0.90984
1095.42460	0.91801
1093.49603	0.93054
1091.56747	0.94615
1089.63890	0.96329
1087.71034	0.98183
1085.78177	1.00308
1083.85321	1.02607
1081.92464	1.04620
1079.99608	1.05989
1078.06752	1.06673
1076.13895	1.06754
1074.21039	1.06279
1072.28182	1.05296
1070.35326	1.03940
1068.42469	1.02383
1066.49613	1.00827
1064.56756	0.99427
1062.63900	0.98126
1060.71044	0.96789
1058.78187	0.95448
1056.85331	0.94238
1054.92474	0.93246
1052.99618	0.92469
1051.06761	0.91849
1049.13905	0.91409
1047.21049	0.91291
1045.28192	0.91599
1043.35336	0.92285
1041.42479	0.93165
1039.49623	0.94029
1037.56766	0.94720
1035.63910	0.95148
1033.71053	0.95298
1031.78197	0.95197
1029.85341	0.94857
1027.92484	0.94270
1025.99628	0.93444
1024.06771	0.92450
1022.13915	0.91466
1020.21058	0.90666
1018.28202	0.90003
1016.35345	0.89222
1014.42489	0.88134
1012.49633	0.86723
1010.56776	0.85034
1008.63920	0.83155
1006.71063	0.81241
1004.78207	0.79459
1002.85350	0.77959
1000.92494	0.76812
998.99637	0.75940
997.06781	0.75221
995.13925	0.74605
993.21068	0.73990
991.28212	0.73214
989.35355	0.72259
987.42499	0.71265
985.49642	0.70382
983.56786	0.69701
981.63929	0.69278
979.71073	0.69095
977.78217	0.69048
975.85360	0.69035
973.92504	0.68921
971.99647	0.68568
970.06791	0.67979
968.13934	0.67310
966.21078	0.66746
964.28221	0.66416
962.35365	0.66439
960.42509	0.66965
958.49652	0.67963
956.56796	0.68979
954.63939	0.69453
952.71083	0.69233
950.78226	0.68507
948.85370	0.67577
946.92513	0.66747
944.99657	0.66157
943.06801	0.65763
941.13944	0.65500
939.21088	0.65342
937.28231	0.65259
935.35375	0.65249
933.42518	0.65328
931.49662	0.65469
929.56805	0.65652
927.63949	0.65921
925.71093	0.66288
923.78236	0.66700
921.85380	0.67093
919.92523	0.67415
917.99667	0.67667
916.06810	0.67872
914.13954	0.68065
912.21098	0.68330
910.28241	0.68729
908.35385	0.69252
906.42528	0.69850
904.49672	0.70449
902.56815	0.70960
900.63959	0.71335
898.71102	0.71576
896.78246	0.71657
894.85390	0.71594
892.92533	0.71456
890.99677	0.71263
889.06820	0.71013
887.13964	0.70738
885.21107	0.70483
883.28251	0.70250
881.35394	0.70040
879.42538	0.69896
877.49682	0.69848
875.56825	0.69855
873.63969	0.69849
871.71112	0.69852
869.78256	0.69931
867.85399	0.70095
865.92543	0.70339
863.99686	0.70663
862.06830	0.71053
860.13974	0.71510
858.21117	0.72055
856.28261	0.72642
854.35404	0.73204
852.42548	0.73742
850.49691	0.74252
848.56835	0.74720
846.63978	0.75164
844.71122	0.75638
842.78266	0.76180
840.85409	0.76719
838.92553	0.77179
836.99696	0.77557
835.06840	0.77895
833.13983	0.78244
831.21127	0.78571
829.28270	0.78825
827.35414	0.79030
825.42558	0.79200
823.49701	0.79321
821.56845	0.79428
819.63988	0.79593
817.71132	0.79862
815.78275	0.80202
813.85419	0.80481
811.92562	0.80659
809.99706	0.80902
808.06850	0.81319
806.13993	0.81768
804.21137	0.82080
802.28280	0.82262
800.35424	0.82436
798.42567	0.82670
796.49711	0.82914
794.56854	0.83158
792.63998	0.83465
790.71142	0.83777
788.78285	0.83960
786.85429	0.84054
784.92572	0.84157
782.99716	0.84259
781.06859	0.84317
779.14003	0.84324
777.21147	0.84331
775.28290	0.84364
773.35434	0.84367
771.42577	0.84329
769.49721	0.84328
767.56864	0.84433
765.64008	0.84614
763.71151	0.84822
761.78295	0.85058
759.85439	0.85365
757.92582	0.85820
755.99726	0.86351
754.06869	0.86817
752.14013	0.87266
750.21156	0.87784
748.28300	0.88319
746.35443	0.88756
744.42587	0.89031
742.49731	0.89170
740.56874	0.89245
738.64018	0.89307
736.71161	0.89318
734.78305	0.89227
732.85448	0.89079
730.92592	0.88920
728.99735	0.88747
727.06879	0.88558
725.14023	0.88365
723.21166	0.88172
721.28310	0.87991
719.35453	0.87880
717.42597	0.87866
715.49740	0.87975
713.56884	0.88219
711.64027	0.88530
709.71171	0.88888
707.78315	0.89325
705.85458	0.89862
703.92602	0.90460
701.99745	0.90996
700.06889	0.91468
698.14032	0.91927
696.21176	0.92309
694.28319	0.92606
692.35463	0.92822
690.42607	0.92865
688.49750	0.92734
686.56894	0.92491
684.64037	0.92131
682.71181	0.91647
680.78324	0.91112
678.85468	0.90683
676.92611	0.90308
674.99755	0.89743
673.06899	0.89124
671.14042	0.88725
669.21186	0.88404
667.28329	0.88008
665.35473	0.87818
663.42616	0.87750
661.49760	0.87753
659.56903	0.87995
657.64047	0.88445
655.71191	0.88851
653.78334	0.89271
651.85478	0.89849
649.92621	0.90554
647.99765	0.91358
646.06908	0.92219
644.14052	0.93052
642.21195	0.93777
640.28339	0.94476
638.35483	0.95141
636.42626	0.95452
634.49770	0.95280
632.56913	0.94875
630.64057	0.94413
628.71200	0.93824
626.78344	0.93048
624.85488	0.92180
622.92631	0.91354
620.99775	0.90612
619.06918	0.89835
617.14062	0.88987
615.21205	0.88413
613.28349	0.88245
611.35492	0.88156
609.42636	0.87991
607.49780	0.87865
605.56923	0.87828
603.64067	0.88012
601.71210	0.88547
599.78354	0.89234
