3997.91406	1.62650
3995.98550	1.62647
3994.05693	1.62996
3992.12837	1.63539
3990.19980	1.63161
3988.27124	1.62349
3986.34268	1.61677
3984.41411	1.60837
3982.48555	1.59933
3980.55698	1.59035
3978.62842	1.58299
3976.69985	1.57780
3974.77129	1.57728
3972.84272	1.58699
3970.91416	1.59857
3968.98560	1.60524
3967.05703	1.61364
3965.12847	1.61637
3963.19990	1.60661
3961.27134	1.60169
3959.34277	1.60681
3957.41421	1.60649
3955.48564	1.59690
3953.55708	1.58402
3951.62852	1.57353
3949.69995	1.57016
3947.77139	1.56748
3945.84282	1.56189
3943.91426	1.56686
3941.98569	1.57677
3940.05713	1.56801
3938.12856	1.55521
3936.20000	1.55585
3934.27144	1.56099
3932.34287	1.56442
3930.41431	1.56390
3928.48574	1.55372
3926.55718	1.54740
3924.62861	1.55628
3922.70005	1.56064
3920.77148	1.54746
3918.84292	1.53406
3916.91436	1.53546
3914.98579	1.54687
3913.05723	1.55716
3911.12866	1.55659
3909.20010	1.53716
3907.27153	1.51114
3905.34297	1.50431
3903.41440	1.52768
3901.48584	1.56094
3899.55728	1.57469
3897.62871	1.54862
3895.70015	1.51328
3893.77158	1.50383
3891.84302	1.51657
3889.91445	1.50673
3887.98589	1.48738
3886.05733	1.49466
3884.12876	1.50995
3882.20020	1.51615
3880.27163	1.53569
3878.34307	1.53611
3876.41450	1.51198
3874.48594	1.49387
3872.55737	1.48868
3870.62881	1.49051
3868.70025	1.48796
3866.77168	1.47834
3864.84312	1.48015
3862.91455	1.49239
3860.98599	1.49478
3859.05742	1.48805
3857.12886	1.47306
3855.20029	1.46288
3853.27173	1.49822
3851.34317	1.51666
3849.41460	1.49439
3847.48604	1.47772
3845.55747	1.47802
3843.62891	1.48561
3841.70034	1.48256
3839.77178	1.48135
3837.84321	1.48853
3835.91465	1.48113
3833.98609	1.47783
3832.05752	1.47820
3830.12896	1.45947
3828.20039	1.43752
3826.27183	1.43352
3824.34326	1.43402
3822.41470	1.43360
3820.48613	1.44512
3818.55757	1.45210
3816.62901	1.46014
3814.70044	1.46283
3812.77188	1.44622
3810.84331	1.42661
3808.91475	1.41627
3806.98618	1.42291
3805.05762	1.43056
3803.12905	1.43273
3801.20049	1.44709
3799.27193	1.45272
3797.34336	1.44106
3795.41480	1.42651
3793.48623	1.41920
3791.55767	1.41913
3789.62910	1.41857
3787.70054	1.41754
3785.77197	1.42265
3783.84341	1.43070
3781.91485	1.43491
3779.98628	1.43671
3778.05772	1.43144
3776.12915	1.41774
3774.20059	1.40596
3772.27202	1.40237
3770.34346	1.40755
3768.41489	1.41037
3766.48633	1.40573
3764.55777	1.40334
3762.62920	1.40234
3760.70064	1.39947
3758.77207	1.39287
3756.84351	1.38059
3754.91494	1.37297
3752.98638	1.38179
3751.05781	1.40266
3749.12925	1.39764
3747.20069	1.38252
3745.27212	1.38754
3743.34356	1.40527
3741.41499	1.40011
3739.48643	1.37964
3737.55786	1.36456
3735.62930	1.36082
3733.70074	1.36217
3731.77217	1.37182
3729.84361	1.37681
3727.91504	1.37241
3725.98648	1.37357
3724.05791	1.38440
3722.12935	1.38688
3720.20078	1.37900
3718.27222	1.37221
3716.34366	1.36852
3714.41509	1.36484
3712.48653	1.36864
3710.55796	1.38633
3708.62940	1.39031
3706.70083	1.38019
3704.77227	1.36912
3702.84370	1.36282
3700.91514	1.36165
3698.98658	1.36084
3697.05801	1.35994
3695.12945	1.35739
3693.20088	1.35079
3691.27232	1.35024
3689.34375	1.37176
3687.41519	1.37957
3685.48662	1.36549
3683.55806	1.35612
3681.62950	1.35560
3679.70093	1.35963
3677.77237	1.37050
3675.84380	1.39663
3673.91524	1.41274
3671.98667	1.41641
3670.05811	1.43563
3668.12954	1.44426
3666.20098	1.43242
3664.27242	1.42346
3662.34385	1.42463
3660.41529	1.43436
3658.48672	1.44765
3656.55816	1.46331
3654.62959	1.47404
3652.70103	1.47637
3650.77246	1.48936
3648.84390	1.54505
3646.91534	1.57120
3644.98677	1.54728
3643.05821	1.52826
3641.12964	1.53062
3639.20108	1.54729
3637.27251	1.56835
3635.34395	1.58758
3633.41538	1.60105
3631.48682	1.61144
3629.55826	1.64010
3627.62969	1.68448
3625.70113	1.69597
3623.77256	1.68303
3621.84400	1.66871
3619.91543	1.69135
3617.98687	1.75471
3616.05830	1.79797
3614.12974	1.81223
3612.20118	1.80967
3610.27261	1.81415
3608.34405	1.84549
3606.41548	1.87684
3604.48692	1.88731
3602.55835	1.89553
3600.62979	1.90444
3598.70123	1.91758
3596.77266	1.96197
3594.84410	2.02203
3592.91553	2.02623
3590.98697	1.99180
3589.05840	1.99456
3587.12984	2.06034
3585.20127	2.09144
3583.27271	2.07186
3581.34415	2.07248
3579.41558	2.09426
3577.48702	2.10421
3575.55845	2.11435
3573.62989	2.14148
3571.70132	2.17925
3569.77276	2.23977
3567.84419	2.32028
3565.91563	2.33997
3563.98707	2.33227
3562.05850	2.36226
3560.12994	2.39404
3558.20137	2.38892
3556.27281	2.37037
3554.34424	2.37581
3552.41568	2.42537
3550.48711	2.51451
3548.55855	2.60660
3546.62999	2.64611
3544.70142	2.60507
3542.77286	2.52724
3540.84429	2.47117
3538.91573	2.45784
3536.98716	2.47134
3535.05860	2.47078
3533.13003	2.45475
3531.20147	2.48501
3529.27291	2.56037
3527.34434	2.57174
3525.41578	2.50747
3523.48721	2.43333
3521.55865	2.38073
3519.63008	2.37457
3517.70152	2.41823
3515.77295	2.48825
3513.84439	2.52753
3511.91583	2.50532
3509.98726	2.45036
3508.05870	2.39368
3506.13013	2.35267
3504.20157	2.32049
3502.27300	2.29025
3500.34444	2.30306
3498.41587	2.35089
3496.48731	2.34849
3494.55875	2.31812
3492.63018	2.33957
3490.70162	2.36841
3488.77305	2.34156
3486.84449	2.30551
3484.91592	2.29968
3482.98736	2.30803
3481.05879	2.32500
3479.13023	2.34706
3477.20167	2.35499
3475.27310	2.34580
3473.34454	2.32015
3471.41597	2.27497
3469.48741	2.23382
3467.55884	2.20887
3465.63028	2.19044
3463.70171	2.18917
3461.77315	2.20837
3459.84459	2.20830
3457.91602	2.18232
3455.98746	2.18277
3454.05889	2.22134
3452.13033	2.24644
3450.20176	2.23147
3448.27320	2.20753
3446.34464	2.19551
3444.41607	2.18867
3442.48751	2.18143
3440.55894	2.17683
3438.63038	2.15947
3436.70181	2.12689
3434.77325	2.11911
3432.84468	2.15166
3430.91612	2.18198
3428.98756	2.17506
3427.05899	2.15398
3425.13043	2.13995
3423.20186	2.13322
3421.27330	2.13337
3419.34473	2.13813
3417.41617	2.14440
3415.48760	2.15281
3413.55904	2.17470
3411.63048	2.20825
3409.70191	2.21343
3407.77335	2.17546
3405.84478	2.12902
3403.91622	2.10359
3401.98765	2.10889
3400.05909	2.12337
3398.13052	2.11975
3396.20196	2.11356
3394.27340	2.12752
3392.34483	2.14807
3390.41627	2.15154
3388.48770	2.13808
3386.55914	2.11963
3384.63057	2.11803
3382.70201	2.13577
3380.77344	2.12940
3378.84488	2.09652
3376.91632	2.08012
3374.98775	2.08234
3373.05919	2.08990
3371.13062	2.10249
3369.20206	2.11457
3367.27349	2.12189
3365.34493	2.13055
3363.41636	2.14002
3361.48780	2.14089
3359.55924	2.13426
3357.63067	2.12448
3355.70211	2.11611
3353.77354	2.11327
3351.84498	2.10776
3349.91641	2.09384
3347.98785	2.08260
3346.05928	2.09491
3344.13072	2.13209
3342.20216	2.16465
3340.27359	2.16551
3338.34503	2.12845
3336.41646	2.07850
3334.48790	2.05379
3332.55933	2.06079
3330.63077	2.07822
3328.70220	2.08712
3326.77364	2.09012
3324.84508	2.09266
3322.91651	2.09373
3320.98795	2.10588
3319.05938	2.13081
3317.13082	2.15032
3315.20225	2.16417
3313.27369	2.16714
3311.34513	2.14596
3309.41656	2.12144
3307.48800	2.11028
3305.55943	2.11176
3303.63087	2.12158
3301.70230	2.12113
3299.77374	2.10983
3297.84517	2.11282
3295.91661	2.13590
3293.98805	2.15970
3292.05948	2.17082
3290.13092	2.16984
3288.20235	2.15436
3286.27379	2.13831
3284.34522	2.13902
3282.41666	2.14182
3280.48809	2.13525
3278.55953	2.13328
3276.63097	2.14043
3274.70240	2.14397
3272.77384	2.13386
3270.84527	2.11638
3268.91671	2.10221
3266.98814	2.09487
3265.05958	2.09236
3263.13101	2.08573
3261.20245	2.07155
3259.27389	2.06093
3257.34532	2.05478
3255.41676	2.04305
3253.48819	2.03838
3251.55963	2.06143
3249.63106	2.09163
3247.70250	2.08774
3245.77393	2.06499
3243.84537	2.05739
3241.91681	2.06335
3239.98824	2.07537
3238.05968	2.08442
3236.13111	2.07520
3234.20255	2.05245
3232.27398	2.03760
3230.34542	2.03522
3228.41685	2.02865
3226.48829	2.01058
3224.55973	1.99002
3222.63116	1.97690
3220.70260	1.97795
3218.77403	1.98635
3216.84547	1.98025
3214.91690	1.96105
3212.98834	1.95305
3211.05977	1.95932
3209.13121	1.97356
3207.20265	1.98479
3205.27408	1.97494
3203.34552	1.96470
3201.41695	1.97420
3199.48839	1.97852
3197.55982	1.96706
3195.63126	1.95594
3193.70269	1.94048
3191.77413	1.91939
3189.84557	1.90925
3187.91700	1.91353
3185.98844	1.92452
3184.05987	1.93754
3182.13131	1.94640
3180.20274	1.94813
3178.27418	1.95053
3176.34562	1.95300
3174.41705	1.94325
3172.48849	1.92465
3170.55992	1.91139
3168.63136	1.91358
3166.70279	1.92524
3164.77423	1.92605
3162.84566	1.91783
3160.91710	1.91519
3158.98854	1.91448
3157.05997	1.91010
3155.13141	1.90859
3153.20284	1.91177
3151.27428	1.91151
3149.34571	1.90945
3147.41715	1.91073
3145.48858	1.91136
3143.56002	1.91165
3141.63146	1.90979
3139.70289	1.89302
3137.77433	1.86738
3135.84576	1.85779
3133.91720	1.86530
3131.98863	1.87132
3130.06007	1.87114
3128.13150	1.86583
3126.20294	1.85741
3124.27438	1.85666
3122.34581	1.86547
3120.41725	1.87120
3118.48868	1.86745
3116.56012	1.86557
3114.63155	1.87474
3112.70299	1.88287
3110.77442	1.87665
3108.84586	1.86701
3106.91730	1.86575
3104.98873	1.86514
3103.06017	1.86252
3101.13160	1.86472
3099.20304	1.86699
3097.27447	1.86535
3095.34591	1.86536
3093.41734	1.86679
3091.48878	1.86256
3089.56022	1.85232
3087.63165	1.84523
3085.70309	1.84253
3083.77452	1.83562
3081.84596	1.82665
3079.91739	1.82603
3077.98883	1.83178
3076.06026	1.83084
3074.13170	1.81890
3072.20314	1.80567
3070.27457	1.80190
3068.34601	1.80789
3066.41744	1.81533
3064.48888	1.81560
3062.56031	1.81030
3060.63175	1.80840
3058.70318	1.80889
3056.77462	1.80685
3054.84606	1.80161
3052.91749	1.79271
3050.98893	1.78552
3049.06036	1.78019
3047.13180	1.76991
3045.20323	1.75829
3043.27467	1.75328
3041.34610	1.75488
3039.41754	1.75624
3037.48898	1.75513
3035.56041	1.75476
3033.63185	1.75217
3031.70328	1.74367
3029.77472	1.73565
3027.84615	1.73584
3025.91759	1.73958
3023.98903	1.73432
3022.06046	1.72133
3020.13190	1.71550
3018.20333	1.71863
3016.27477	1.71777
3014.34620	1.70948
3012.41764	1.70002
3010.48907	1.69507
3008.56051	1.69847
3006.63195	1.70293
3004.70338	1.69831
3002.77482	1.69076
3000.84625	1.69047
2998.91769	1.69525
2996.98912	1.69645
2995.06056	1.69175
2993.13199	1.68830
2991.20343	1.69182
2989.27487	1.69936
2987.34630	1.70446
2985.41774	1.70566
2983.48917	1.70732
2981.56061	1.71058
2979.63204	1.71336
2977.70348	1.71907
2975.77491	1.72958
2973.84635	1.73736
2971.91779	1.74214
2969.98922	1.75078
2968.06066	1.75782
2966.13209	1.75995
2964.20353	1.76433
2962.27496	1.76981
2960.34640	1.77187
2958.41783	1.77304
2956.48927	1.77359
2954.56071	1.76504
2952.63214	1.74689
2950.70358	1.73513
2948.77501	1.73768
2946.84645	1.74561
2944.91788	1.75211
2942.98932	1.75738
2941.06075	1.76153
2939.13219	1.76756
2937.20363	1.77830
2935.27506	1.79234
2933.34650	1.80534
2931.41793	1.81054
2929.48937	1.81018
2927.56080	1.81199
2925.63224	1.81188
2923.70367	1.80351
2921.77511	1.79276
2919.84655	1.78718
2917.91798	1.78253
2915.98942	1.77129
2914.06085	1.75633
2912.13229	1.74412
2910.20372	1.73457
2908.27516	1.72016
2906.34659	1.69837
2904.41803	1.68129
2902.48947	1.67541
2900.56090	1.67215
2898.63234	1.66715
2896.70377	1.66287
2894.77521	1.65890
2892.84664	1.65272
2890.91808	1.64255
2888.98952	1.63344
2887.06095	1.63027
2885.13239	1.62794
2883.20382	1.62459
2881.27526	1.62522
2879.34669	1.63038
2877.41813	1.63499
2875.48956	1.63278
2873.56100	1.62760
2871.63244	1.62641
2869.70387	1.62214
2867.77531	1.61172
2865.84674	1.60452
2863.91818	1.60084
2861.98961	1.59660
2860.06105	1.59544
2858.13248	1.59863
2856.20392	1.60046
2854.27536	1.59780
2852.34679	1.59307
2850.41823	1.58610
2848.48966	1.57314
2846.56110	1.55558
2844.63253	1.53786
2842.70397	1.51922
2840.77540	1.50044
2838.84684	1.48758
2836.91828	1.48032
2834.98971	1.47287
2833.06115	1.46606
2831.13258	1.46288
2829.20402	1.45995
2827.27545	1.45451
2825.34689	1.44783
2823.41832	1.44025
2821.48976	1.43326
2819.56120	1.42960
2817.63263	1.42784
2815.70407	1.42424
2813.77550	1.41879
2811.84694	1.41364
2809.91837	1.41001
2807.98981	1.40955
2806.06124	1.40880
2804.13268	1.40083
2802.20412	1.38926
2800.27555	1.38206
2798.34699	1.37854
2796.41842	1.37502
2794.48986	1.37162
2792.56129	1.36987
2790.63273	1.36869
2788.70416	1.36518
2786.77560	1.35990
2784.84704	1.35565
2782.91847	1.35231
2780.98991	1.34806
2779.06134	1.34364
2777.13278	1.34136
2775.20421	1.33988
2773.27565	1.33529
2771.34708	1.32779
2769.41852	1.32167
2767.48996	1.31925
2765.56139	1.31882
2763.63283	1.31770
2761.70426	1.31505
2759.77570	1.31212
2757.84713	1.30973
2755.91857	1.30686
2753.99001	1.30322
2752.06144	1.29958
2750.13288	1.29618
2748.20431	1.29289
2746.27575	1.28983
2744.34718	1.28766
2742.41862	1.28589
2740.49005	1.28416
2738.56149	1.28264
2736.63293	1.27919
2734.70436	1.27427
2732.77580	1.27193
2730.84723	1.27278
2728.91867	1.27392
2726.99010	1.27248
2725.06154	1.26711
2723.13297	1.26045
2721.20441	1.25649
2719.27585	1.25472
2717.34728	1.25253
2715.41872	1.25012
2713.49015	1.24820
2711.56159	1.24554
2709.63302	1.24095
2707.70446	1.23515
2705.77589	1.23029
2703.84733	1.22809
2701.91877	1.22782
2699.99020	1.22697
2698.06164	1.22408
2696.13307	1.22004
2694.20451	1.21620
2692.27594	1.21280
2690.34738	1.21019
2688.41881	1.20789
2686.49025	1.20501
2684.56169	1.20299
2682.63312	1.20205
2680.70456	1.19993
2678.77599	1.19725
2676.84743	1.19624
2674.91886	1.19571
2672.99030	1.19400
2671.06173	1.19228
2669.13317	1.19055
2667.20461	1.18729
2665.27604	1.18291
2663.34748	1.17842
2661.41891	1.17486
2659.49035	1.17350
2657.56178	1.17317
2655.63322	1.17191
2653.70465	1.16990
2651.77609	1.16776
2649.84753	1.16587
2647.91896	1.16418
2645.99040	1.16141
2644.06183	1.15801
2642.13327	1.15634
2640.20470	1.15590
2638.27614	1.15397
2636.34757	1.15011
2634.41901	1.14615
2632.49045	1.14322
2630.56188	1.14097
2628.63332	1.13926
2626.70475	1.13818
2624.77619	1.13695
2622.84762	1.13501
2620.91906	1.13291
2618.99049	1.13070
2617.06193	1.12778
2615.13337	1.12441
2613.20480	1.12165
2611.27624	1.12014
2609.34767	1.11933
2607.41911	1.11769
2605.49054	1.11446
2603.56198	1.11110
2601.63342	1.10910
2599.70485	1.10750
2597.77629	1.10481
2595.84772	1.10230
2593.91916	1.10160
2591.99059	1.10124
2590.06203	1.09998
2588.13346	1.09909
2586.20490	1.09853
2584.27634	1.09693
2582.34777	1.09461
2580.41921	1.09207
2578.49064	1.08887
2576.56208	1.08570
2574.63351	1.08365
2572.70495	1.08254
2570.77638	1.08199
2568.84782	1.08142
2566.91926	1.07944
2564.99069	1.07640
2563.06213	1.07427
2561.13356	1.07352
2559.20500	1.07291
2557.27643	1.07091
2555.34787	1.06765
2553.41930	1.06486
2551.49074	1.06364
2549.56218	1.06322
2547.63361	1.06173
2545.70505	1.05908
2543.77648	1.05693
2541.84792	1.05529
2539.91935	1.05320
2537.99079	1.05096
2536.06222	1.04946
2534.13366	1.04889
2532.20510	1.04821
2530.27653	1.04665
2528.34797	1.04473
2526.41940	1.04291
2524.49084	1.04096
2522.56227	1.03890
2520.63371	1.03727
2518.70514	1.03619
2516.77658	1.03507
2514.84802	1.03376
2512.91945	1.03279
2510.99089	1.03205
2509.06232	1.03079
2507.13376	1.02921
2505.20519	1.02781
2503.27663	1.02621
2501.34806	1.02416
2499.41950	1.02188
2497.49094	1.01950
2495.56237	1.01698
2493.63381	1.01465
2491.70524	1.01303
2489.77668	1.01185
2487.84811	1.01045
2485.91955	1.00837
2483.99098	1.00575
2482.06242	1.00303
2480.13386	1.00016
2478.20529	0.99750
2476.27673	0.99550
2474.34816	0.99422
2472.41960	0.99377
2470.49103	0.99345
2468.56247	0.99225
2466.63391	0.99028
2464.70534	0.98816
2462.77678	0.98604
2460.84821	0.98383
2458.91965	0.98133
2456.99108	0.97835
2455.06252	0.97596
2453.13395	0.97499
2451.20539	0.97424
2449.27683	0.97294
2447.34826	0.97147
2445.41970	0.96978
2443.49113	0.96792
2441.56257	0.96659
2439.63400	0.96581
2437.70544	0.96428
2435.77687	0.96187
2433.84831	0.96004
2431.91975	0.95876
2429.99118	0.95704
2428.06262	0.95474
2426.13405	0.95214
2424.20549	0.95002
2422.27692	0.94855
2420.34836	0.94675
2418.41979	0.94431
2416.49123	0.94205
2414.56267	0.94081
2412.63410	0.94061
2410.70554	0.94066
2408.77697	0.93969
2406.84841	0.93740
2404.91984	0.93485
2402.99128	0.93279
2401.06271	0.93113
2399.13415	0.92935
2397.20559	0.92736
2395.27702	0.92577
2393.34846	0.92446
2391.41989	0.92285
2389.49133	0.92100
2387.56276	0.91924
2385.63420	0.91776
2383.70563	0.91679
2381.77707	0.91636
2379.84851	0.91612
2377.91994	0.91575
2375.99138	0.91547
2374.06281	0.91574
2372.13425	0.91619
2370.20568	0.91625
2368.27712	0.91689
2366.34855	0.91759
2364.41999	0.91311
2362.49143	0.90141
2360.56286	0.89147
2358.63430	0.89086
2356.70573	0.89610
2354.77717	0.90072
2352.84860	0.90276
2350.92004	0.90246
2348.99147	0.90030
2347.06291	0.89821
2345.13435	0.89909
2343.20578	0.90090
2341.27722	0.89828
2339.34865	0.89468
2337.42009	0.89234
2335.49152	0.88941
2333.56296	0.88651
2331.63440	0.88491
2329.70583	0.88502
2327.77727	0.88648
2325.84870	0.88740
2323.92014	0.88654
2321.99157	0.88476
2320.06301	0.88351
2318.13444	0.88278
2316.20588	0.88175
2314.27732	0.88059
2312.34875	0.87986
2310.42019	0.87925
2308.49162	0.87801
2306.56306	0.87617
2304.63449	0.87480
2302.70593	0.87396
2300.77736	0.87249
2298.84880	0.87082
2296.92024	0.87003
2294.99167	0.86966
2293.06311	0.86950
2291.13454	0.86979
2289.20598	0.86987
2287.27741	0.86924
2285.34885	0.86798
2283.42028	0.86614
2281.49172	0.86387
2279.56316	0.86162
2277.63459	0.86004
2275.70603	0.85925
2273.77746	0.85858
2271.84890	0.85785
2269.92033	0.85755
2267.99177	0.85777
2266.06320	0.85807
2264.13464	0.85793
2262.20608	0.85735
2260.27751	0.85624
2258.34895	0.85443
2256.42038	0.85227
2254.49182	0.85016
2252.56325	0.84844
2250.63469	0.84739
2248.70612	0.84675
2246.77756	0.84642
2244.84900	0.84629
2242.92043	0.84586
2240.99187	0.84527
2239.06330	0.84518
2237.13474	0.84554
2235.20617	0.84556
2233.27761	0.84481
2231.34904	0.84348
2229.42048	0.84203
2227.49192	0.84087
2225.56335	0.84003
2223.63479	0.83938
2221.70622	0.83860
2219.77766	0.83761
2217.84909	0.83679
2215.92053	0.83614
2213.99196	0.83563
2212.06340	0.83568
2210.13484	0.83609
2208.20627	0.83622
2206.27771	0.83573
2204.34914	0.83451
2202.42058	0.83284
2200.49201	0.83121
2198.56345	0.82976
2196.63488	0.82866
2194.70632	0.82808
2192.77776	0.82785
2190.84919	0.82798
2188.92063	0.82847
2186.99206	0.82881
2185.06350	0.82877
2183.13493	0.82864
2181.20637	0.82808
2179.27781	0.82689
2177.34924	0.82569
2175.42068	0.82457
2173.49211	0.82336
2171.56355	0.82254
2169.63498	0.82218
2167.70642	0.82209
2165.77785	0.82227
2163.84929	0.82234
2161.92073	0.82211
2159.99216	0.82175
2158.06360	0.82135
2156.13503	0.82094
2154.20647	0.82044
2152.27790	0.81967
2150.34934	0.81847
2148.42077	0.81708
2146.49221	0.81607
2144.56365	0.81542
2142.63508	0.81475
2140.70652	0.81385
2138.77795	0.81264
2136.84939	0.81150
2134.92082	0.81079
2132.99226	0.81017
2131.06369	0.80941
2129.13513	0.80874
2127.20657	0.80796
2125.27800	0.80694
2123.34944	0.80584
2121.42087	0.80440
2119.49231	0.80250
2117.56374	0.80059
2115.63518	0.79939
2113.70661	0.79933
2111.77805	0.79970
2109.84949	0.79970
2107.92092	0.79936
2105.99236	0.79872
2104.06379	0.79779
2102.13523	0.79669
2100.20666	0.79559
2098.27810	0.79453
2096.34953	0.79346
2094.42097	0.79282
2092.49241	0.79293
2090.56384	0.79321
2088.63528	0.79325
2086.70671	0.79324
2084.77815	0.79293
2082.84958	0.79218
2080.92102	0.79132
2078.99245	0.79027
2077.06389	0.78879
2075.13533	0.78733
2073.20676	0.78639
2071.27820	0.78567
2069.34963	0.78494
2067.42107	0.78458
2065.49250	0.78461
2063.56394	0.78455
2061.63537	0.78390
2059.70681	0.78266
2057.77825	0.78121
2055.84968	0.77984
2053.92112	0.77849
2051.99255	0.77708
2050.06399	0.77544
2048.13542	0.77359
2046.20686	0.77198
2044.27830	0.77067
2042.34973	0.76949
2040.42117	0.76846
2038.49260	0.76735
2036.56404	0.76618
2034.63547	0.76527
2032.70691	0.76456
2030.77834	0.76398
2028.84978	0.76349
2026.92122	0.76271
2024.99265	0.76151
2023.06409	0.76003
2021.13552	0.75830
2019.20696	0.75666
2017.27839	0.75554
2015.34983	0.75465
2013.42126	0.75362
2011.49270	0.75281
2009.56414	0.75247
2007.63557	0.75250
2005.70701	0.75274
2003.77844	0.75256
2001.84988	0.75177
1999.92131	0.75074
1997.99275	0.74952
1996.06418	0.74793
1994.13562	0.74620
1992.20706	0.74501
1990.27849	0.74441
1988.34993	0.74376
1986.42136	0.74311
1984.49280	0.74271
1982.56423	0.74251
1980.63567	0.74258
1978.70710	0.74279
1976.77854	0.74263
1974.84998	0.74185
1972.92141	0.74050
1970.99285	0.73878
1969.06428	0.73722
1967.13572	0.73613
1965.20715	0.73495
1963.27859	0.73350
1961.35002	0.73254
1959.42146	0.73211
1957.49290	0.73153
1955.56433	0.73077
1953.63577	0.73027
1951.70720	0.72986
1949.77864	0.72905
1947.85007	0.72778
1945.92151	0.72622
1943.99294	0.72472
1942.06438	0.72361
1940.13582	0.72239
1938.20725	0.72092
1936.27869	0.71988
1934.35012	0.71929
1932.42156	0.71859
1930.49299	0.71769
1928.56443	0.71668
1926.63586	0.71560
1924.70730	0.71509
1922.77874	0.71536
1920.85017	0.71504
1918.92161	0.71429
1916.99304	0.71408
1915.06448	0.71340
1913.13591	0.71205
1911.20735	0.71094
1909.27878	0.71026
1907.35022	0.70979
1905.42166	0.70947
1903.49309	0.70933
1901.56453	0.70940
1899.63596	0.70928
1897.70740	0.70873
1895.77883	0.70825
1893.85027	0.70779
1891.92171	0.70681
1889.99314	0.70580
1888.06458	0.70491
1886.13601	0.70388
1884.20745	0.70317
1882.27888	0.70252
1880.35032	0.70156
1878.42175	0.70078
1876.49319	0.70038
1874.56463	0.69966
1872.63606	0.69812
1870.70750	0.69664
1868.77893	0.69671
1866.85037	0.69664
1864.92180	0.69484
1862.99324	0.69303
1861.06467	0.69197
1859.13611	0.69119
1857.20755	0.69023
1855.27898	0.68897
1853.35042	0.68766
1851.42185	0.68650
1849.49329	0.68548
1847.56472	0.68427
1845.63616	0.68379
1843.70759	0.68529
1841.77903	0.68579
1839.85047	0.68453
1837.92190	0.68366
1835.99334	0.68323
1834.06477	0.68186
1832.13621	0.68025
1830.20764	0.68006
1828.27908	0.68019
1826.35051	0.67950
1824.42195	0.67943
1822.49339	0.67933
1820.56482	0.67854
1818.63626	0.67806
1816.70769	0.67787
1814.77913	0.67721
1812.85056	0.67653
1810.92200	0.67665
1808.99343	0.67695
1807.06487	0.67659
1805.13631	0.67581
1803.20774	0.67530
1801.27918	0.67610
1799.35061	0.67745
1797.42205	0.67744
1795.49348	0.67639
1793.56492	0.67624
1791.63635	0.67795
1789.70779	0.67803
1787.77923	0.67634
1785.85066	0.67533
1783.92210	0.67536
1781.99353	0.67593
1780.06497	0.67710
1778.13640	0.67774
1776.20784	0.67691
1774.27927	0.67638
1772.35071	0.67905
1770.42215	0.68188
1768.49358	0.68178
1766.56502	0.68074
1764.63645	0.67984
1762.70789	0.68072
1760.77932	0.68348
1758.85076	0.68576
1756.92220	0.68887
1754.99363	0.69206
1753.06507	0.69449
1751.13650	0.70016
1749.20794	0.71079
1747.27937	0.72036
1745.35081	0.72684
1743.42224	0.73220
1741.49368	0.73793
1739.56512	0.74408
1737.63655	0.74763
1735.70799	0.75000
1733.77942	0.75724
1731.85086	0.76351
1729.92229	0.76611
1727.99373	0.76962
1726.06516	0.77444
1724.13660	0.78156
1722.20804	0.78903
1720.27947	0.79521
1718.35091	0.80650
1716.42234	0.82854
1714.49378	0.84482
1712.56521	0.85491
1710.63665	0.86634
1708.70808	0.88117
1706.77952	0.90482
1704.85096	0.93716
1702.92239	0.96536
1700.99383	1.00596
1699.06526	1.07804
1697.13670	1.15170
1695.20813	1.22544
1693.27957	1.28001
1691.35100	1.32372
1689.42244	1.38123
1687.49388	1.43964
1685.56531	1.49935
1683.63675	1.59333
1681.70818	1.66369
1679.77962	1.70257
1677.85105	1.73771
1675.92249	1.77925
1673.99392	1.82623
1672.06536	1.86094
1670.13680	1.88848
1668.20823	1.91989
1666.27967	1.93755
1664.35110	1.94771
1662.42254	1.95983
1660.49397	1.96607
1658.56541	1.96775
1656.63684	1.97292
1654.70828	1.98656
1652.77972	1.97924
1650.85115	1.95705
1648.92259	1.94606
1646.99402	1.93102
1645.06546	1.92067
1643.13689	1.91381
1641.20833	1.90340
1639.27976	1.88981
1637.35120	1.87669
1635.42264	1.86423
1633.49407	1.85491
1631.56551	1.84660
1629.63694	1.82968
1627.70838	1.80555
1625.77981	1.78539
1623.85125	1.76668
1621.92269	1.74244
1619.99412	1.71879
1618.06556	1.69022
1616.13699	1.64739
1614.20843	1.61090
1612.27986	1.58140
1610.35130	1.55100
1608.42273	1.52218
1606.49417	1.49917
1604.56561	1.48153
1602.63704	1.46664
1600.70848	1.45514
1598.77991	1.44792
1596.85135	1.44351
1594.92278	1.44010
1592.99422	1.43760
1591.06565	1.43707
1589.13709	1.43932
1587.20853	1.44562
1585.27996	1.45589
1583.35140	1.46950
1581.42283	1.48507
1579.49427	1.49986
1577.56570	1.51797
1575.63714	1.54613
1573.70857	1.56706
1571.78001	1.57937
1569.85145	1.59735
1567.92288	1.62181
1565.99432	1.64420
1564.06575	1.66563
1562.13719	1.68166
1560.20862	1.69570
1558.28006	1.72211
1556.35149	1.73522
1554.42293	1.73874
1552.49437	1.74047
1550.56580	1.73959
1548.63724	1.73506
1546.70867	1.72956
1544.78011	1.72598
1542.85154	1.72518
1540.92298	1.71473
1538.99441	1.68996
1537.06585	1.67749
1535.13729	1.66657
1533.20872	1.65122
1531.28016	1.63734
1529.35159	1.62565
1527.42303	1.61168
1525.49446	1.59764
1523.56590	1.58755
1521.63733	1.57808
1519.70877	1.56927
1517.78021	1.55728
1515.85164	1.54061
1513.92308	1.52230
1511.99451	1.50064
1510.06595	1.47620
1508.13738	1.43858
1506.20882	1.38045
1504.28025	1.35278
1502.35169	1.33630
1500.42313	1.31660
1498.49456	1.28953
1496.56600	1.25660
1494.63743	1.23118
1492.70887	1.21375
1490.78030	1.19602
1488.85174	1.17686
1486.92317	1.16368
1484.99461	1.15545
1483.06605	1.15111
1481.13748	1.15128
1479.20892	1.15501
1477.28035	1.16200
1475.35179	1.17434
1473.42322	1.19744
1471.49466	1.22447
1469.56610	1.23817
1467.63753	1.24569
1465.70897	1.25594
1463.78040	1.26832
1461.85184	1.27566
1459.92327	1.28050
1457.99471	1.29376
1456.06614	1.31318
1454.13758	1.31678
1452.20902	1.31420
1450.28045	1.31145
1448.35189	1.30840
1446.42332	1.30377
1444.49476	1.29784
1442.56619	1.29086
1440.63763	1.28348
1438.70906	1.27566
1436.78050	1.26508
1434.85194	1.25360
1432.92337	1.24561
1430.99481	1.24039
1429.06624	1.23742
1427.13768	1.23684
1425.20911	1.23910
1423.28055	1.24393
1421.35198	1.24992
1419.42342	1.25943
1417.49486	1.26853
1415.56629	1.27018
1413.63773	1.26961
1411.70916	1.27010
1409.78060	1.27184
1407.85203	1.27427
1405.92347	1.27818
1403.99490	1.28352
1402.06634	1.28764
1400.13778	1.29035
1398.20921	1.29138
1396.28065	1.28977
1394.35208	1.28634
1392.42352	1.28253
1390.49495	1.28024
1388.56639	1.28175
1386.63782	1.28704
1384.70926	1.29196
1382.78070	1.29505
1380.85213	1.29605
1378.92357	1.29357
1376.99500	1.28640
1375.06644	1.27370
1373.13787	1.25773
1371.20931	1.24266
1369.28074	1.22723
1367.35218	1.20994
1365.42362	1.19280
1363.49505	1.17679
1361.56649	1.16373
1359.63792	1.15519
1357.70936	1.14962
1355.78079	1.14621
1353.85223	1.14452
1351.92366	1.14345
1349.99510	1.14303
1348.06654	1.14387
1346.13797	1.14559
1344.20941	1.14749
1342.28084	1.14943
1340.35228	1.15229
1338.42371	1.15618
1336.49515	1.15973
1334.56659	1.16352
1332.63802	1.16840
1330.70946	1.17389
1328.78089	1.17911
1326.85233	1.18366
1324.92376	1.18742
1322.99520	1.19079
1321.06663	1.19510
1319.13807	1.20080
1317.20951	1.20602
1315.28094	1.20938
1313.35238	1.21138
1311.42381	1.21210
1309.49525	1.21145
1307.56668	1.20965
1305.63812	1.20715
1303.70955	1.20451
1301.78099	1.20188
1299.85243	1.19874
1297.92386	1.19380
1295.99530	1.18713
1294.06673	1.18118
1292.13817	1.17770
1290.20960	1.17645
1288.28104	1.17597
1286.35247	1.17560
1284.42391	1.17612
1282.49535	1.17782
1280.56678	1.17978
1278.63822	1.18080
1276.70965	1.18110
1274.78109	1.18243
1272.85252	1.18566
1270.92396	1.19007
1268.99539	1.19522
1267.06683	1.20086
1265.13827	1.20597
1263.20970	1.21001
1261.28114	1.21321
1259.35257	1.21580
1257.42401	1.21821
1255.49544	1.22100
1253.56688	1.22405
1251.63831	1.22686
1249.70975	1.22921
1247.78119	1.23096
1245.85262	1.23215
1243.92406	1.23281
1241.99549	1.23281
1240.06693	1.23200
1238.13836	1.22941
1236.20980	1.22436
1234.28123	1.21770
1232.35267	1.20985
1230.42411	1.20068
1228.49554	1.19141
1226.56698	1.18285
1224.63841	1.17365
1222.70985	1.16353
1220.78128	1.15379
1218.85272	1.14482
1216.92415	1.13661
1214.99559	1.12969
1213.06703	1.12473
1211.13846	1.12196
1209.20990	1.12028
1207.28133	1.11782
1205.35277	1.11293
1203.42420	1.10519
1201.49564	1.09599
1199.56708	1.08664
1197.63851	1.07734
1195.70995	1.06860
1193.78138	1.06130
1191.85282	1.05516
1189.92425	1.05005
1187.99569	1.04674
1186.06712	1.04493
1184.13856	1.04434
1182.21000	1.04591
1180.28143	1.05005
1178.35287	1.05674
1176.42430	1.06576
1174.49574	1.07614
1172.56717	1.08729
1170.63861	1.09984
1168.71004	1.11521
1166.78148	1.13542
1164.85292	1.16118
1162.92435	1.18956
1160.99579	1.21559
1159.06722	1.23514
1157.13866	1.24559
1155.21009	1.24607
1153.28153	1.23760
1151.35296	1.22299
1149.42440	1.20571
1147.49584	1.18786
1145.56727	1.17076
1143.63871	1.15625
1141.71014	1.14568
1139.78158	1.14002
1137.85301	1.13995
1135.92445	1.14422
1133.99588	1.15122
1132.06732	1.16136
1130.13876	1.17491
1128.21019	1.19055
1126.28163	1.20645
1124.35306	1.22125
1122.42450	1.23539
1120.49593	1.24946
1118.56737	1.26128
1116.63880	1.26866
1114.71024	1.27146
1112.78168	1.27115
1110.85311	1.27032
1108.92455	1.26935
1106.99598	1.26682
1105.06742	1.26351
1103.13885	1.26070
1101.21029	1.25841
1099.28172	1.25701
1097.35316	1.25699
1095.42460	1.25905
1093.49603	1.26494
1091.56747	1.27664
1089.63890	1.29415
1087.71034	1.31571
1085.78177	1.34154
1083.85321	1.37026
1081.92464	1.39445
1079.99608	1.40940
1078.06752	1.41682
1076.13895	1.41630
1074.21039	1.40598
1072.28182	1.38798
1070.35326	1.36728
1068.42469	1.34823
1066.49613	1.33201
1064.56756	1.31755
1062.63900	1.30484
1060.71044	1.29566
1058.78187	1.29103
1056.85331	1.28929
1054.92474	1.28740
1052.99618	1.28443
1051.06761	1.28256
1049.13905	1.28254
1047.21049	1.28231
1045.28192	1.28234
1043.35336	1.28544
1041.42479	1.29223
1039.49623	1.30015
1037.56766	1.30574
1035.63910	1.30826
1033.71053	1.30766
1031.78197	1.30237
1029.85341	1.29287
1027.92484	1.28103
1025.99628	1.26668
1024.06771	1.24974
1022.13915	1.23317
1020.21058	1.22054
1018.28202	1.21199
1016.35345	1.20436
1014.42489	1.19418
1012.49633	1.18042
1010.56776	1.16471
1008.63920	1.14915
1006.71063	1.13603
1004.78207	1.12798
1002.85350	1.12597
1000.92494	1.12858
998.99637	1.13336
997.06781	1.13843
995.13925	1.14247
993.21068	1.14287
991.28212	1.13668
989.35355	1.12354
987.42499	1.10494
985.49642	1.08244
983.56786	1.05792
981.63929	1.03391
979.71073	1.01313
977.78217	0.99625
975.85360	0.98148
973.92504	0.96721
971.99647	0.95297
970.06791	0.93894
968.13934	0.92617
966.21078	0.91593
964.28221	0.90837
962.35365	0.90368
960.42509	0.90391
958.49652	0.90980
956.56796	0.91717
954.63939	0.92093
952.71083	0.92002
950.78226	0.91603
948.85370	0.91093
946.92513	0.90626
944.99657	0.90229
943.06801	0.89854
941.13944	0.89476
939.21088	0.89105
937.28231	0.88711
935.35375	0.88325
933.42518	0.88078
931.49662	0.87970
929.56805	0.87906
927.63949	0.87897
925.71093	0.87981
923.78236	0.88110
921.85380	0.88164
919.92523	0.88052
917.99667	0.87813
916.06810	0.87549
914.13954	0.87322
912.21098	0.87174
910.28241	0.87125
908.35385	0.87166
906.42528	0.87298
904.49672	0.87446
902.56815	0.87486
900.63959	0.87391
898.71102	0.87146
896.78246	0.86726
894.85390	0.86213
892.92533	0.85684
890.99677	0.85121
889.06820	0.84561
887.13964	0.84124
885.21107	0.83822
883.28251	0.83553
881.35394	0.83307
879.42538	0.83129
877.49682	0.83014
875.56825	0.82950
873.63969	0.82923
871.71112	0.82891
869.78256	0.82838
867.85399	0.82784
865.92543	0.82724
863.99686	0.82648
862.06830	0.82658
860.13974	0.82868
858.21117	0.83262
856.28261	0.83754
854.35404	0.84276
852.42548	0.84806
850.49691	0.85320
848.56835	0.85769
846.63978	0.86143
844.71122	0.86476
842.78266	0.86761
840.85409	0.86926
838.92553	0.86957
836.99696	0.86937
835.06840	0.86938
833.13983	0.87000
831.21127	0.87106
829.28270	0.87197
827.35414	0.87302
825.42558	0.87516
823.49701	0.87795
821.56845	0.88030
819.63988	0.88190
817.71132	0.88277
815.78275	0.88323
813.85419	0.88417
811.92562	0.88620
809.99706	0.88884
808.06850	0.89124
806.13993	0.89308
804.21137	0.89354
802.28280	0.89197
800.35424	0.88984
798.42567	0.88901
796.49711	0.88976
794.56854	0.89146
792.63998	0.89353
790.71142	0.89598
788.78285	0.89891
786.85429	0.90212
784.92572	0.90512
782.99716	0.90764
781.06859	0.91039
779.14003	0.91366
777.21147	0.91687
775.28290	0.92001
773.35434	0.92354
771.42577	0.92765
769.49721	0.93190
767.56864	0.93598
765.64008	0.94028
763.71151	0.94488
761.78295	0.94906
759.85439	0.95267
757.92582	0.95676
755.99726	0.96170
754.06869	0.96643
752.14013	0.97011
750.21156	0.97260
748.28300	0.97436
746.35443	0.97603
744.42587	0.97770
742.49731	0.97911
740.56874	0.98137
738.64018	0.98534
736.71161	0.98946
734.78305	0.99305
732.85448	0.99723
730.92592	1.00178
728.99735	1.00514
727.06879	1.00697
725.14023	1.00815
723.21166	1.00863
721.28310	1.00819
719.35453	1.00794
717.42597	1.00905
715.49740	1.01184
713.56884	1.01659
711.64027	1.02288
709.71171	1.02957
707.78315	1.03587
705.85458	1.04101
703.92602	1.04406
701.99745	1.04457
700.06889	1.04447
698.14032	1.04596
696.21176	1.04718
694.28319	1.04647
692.35463	1.04566
690.42607	1.04536
688.49750	1.04416
686.56894	1.04155
684.64037	1.04013
682.71181	1.04303
680.78324	1.04871
678.85468	1.05331
676.92611	1.05617
674.99755	1.05923
673.06899	1.06321
671.14042	1.06687
669.21186	1.07144
667.28329	1.07653
665.35473	1.07662
663.42616	1.07455
661.49760	1.07212
659.56903	1.06889
657.64047	1.06584
655.71191	1.06440
653.78334	1.06445
651.85478	1.06566
649.92621	1.06968
647.99765	1.07747
646.06908	1.08410
644.14052	1.08622
642.21195	1.08771
640.28339	1.09039
638.35483	1.09112
636.42626	1.08934
634.49770	1.08702
632.56913	1.08402
630.64057	1.07978
628.71200	1.07627
626.78344	1.07614
624.85488	1.07855
622.92631	1.08100
620.99775	1.08393
619.06918	1.08900
617.14062	1.09657
615.21205	1.10315
613.28349	1.10477
611.35492	1.10355
609.42636	1.10248
607.49780	1.10042
605.56923	1.09655
603.64067	1.09188
601.71210	1.08595
599.78354	1.07942
