3997.91406	0.68733
3995.98550	0.68744
3994.05693	0.68711
3992.12837	0.68836
3990.19980	0.68994
3988.27124	0.69065
3986.34268	0.69006
3984.41411	0.68824
3982.48555	0.68710
3980.55698	0.68712
3978.62842	0.68675
3976.69985	0.68566
3974.77129	0.68452
3972.84272	0.68466
3970.91416	0.68533
3968.98560	0.68390
3967.05703	0.68163
3965.12847	0.68118
3963.19990	0.68211
3961.27134	0.68287
3959.34277	0.68283
3957.41421	0.68257
3955.48564	0.68255
3953.55708	0.68156
3951.62852	0.67930
3949.69995	0.67817
3947.77139	0.67895
3945.84282	0.67864
3943.91426	0.67577
3941.98569	0.67303
3940.05713	0.67266
3938.12856	0.67324
3936.20000	0.67383
3934.27144	0.67360
3932.34287	0.67179
3930.41431	0.67029
3928.48574	0.66944
3926.55718	0.66782
3924.62861	0.66639
3922.70005	0.66662
3920.77148	0.66779
3918.84292	0.66820
3916.91436	0.66683
3914.98579	0.66527
3913.05723	0.66488
3911.12866	0.66557
3909.20010	0.66714
3907.27153	0.66810
3905.34297	0.66610
3903.41440	0.66197
3901.48584	0.66026
3899.55728	0.66065
3897.62871	0.66066
3895.70015	0.66063
3893.77158	0.66076
3891.84302	0.66001
3889.91445	0.65857
3887.98589	0.65685
3886.05733	0.65449
3884.12876	0.65334
3882.20020	0.65374
3880.27163	0.65425
3878.34307	0.65461
3876.41450	0.65403
3874.48594	0.65255
3872.55737	0.65157
3870.62881	0.65020
3868.70025	0.64815
3866.77168	0.64808
3864.84312	0.65009
3862.91455	0.65164
3860.98599	0.65123
3859.05742	0.65109
3857.12886	0.65238
3855.20029	0.65376
3853.27173	0.65125
3851.34317	0.64775
3849.41460	0.64708
3847.48604	0.64748
3845.55747	0.64783
3843.62891	0.64749
3841.70034	0.64718
3839.77178	0.64799
3837.84321	0.64786
3835.91465	0.64646
3833.98609	0.64625
3832.05752	0.64596
3830.12896	0.64375
3828.20039	0.64071
3826.27183	0.63943
3824.34326	0.64070
3822.41470	0.64130
3820.48613	0.63924
3818.55757	0.63834
3816.62901	0.63778
3814.70044	0.63689
3812.77188	0.63715
3810.84331	0.63735
3808.91475	0.63625
3806.98618	0.63397
3805.05762	0.63246
3803.12905	0.63115
3801.20049	0.62960
3799.27193	0.63086
3797.34336	0.63282
3795.41480	0.63338
3793.48623	0.63351
3791.55767	0.63333
3789.62910	0.63272
3787.70054	0.63255
3785.77197	0.63246
3783.84341	0.63248
3781.91485	0.63378
3779.98628	0.63493
3778.05772	0.63456
3776.12915	0.63436
3774.20059	0.63464
3772.27202	0.63409
3770.34346	0.63206
3768.41489	0.63027
3766.48633	0.62935
3764.55777	0.62877
3762.62920	0.62904
3760.70064	0.62930
3758.77207	0.62888
3756.84351	0.62901
3754.91494	0.62990
3752.98638	0.62994
3751.05781	0.62699
3749.12925	0.62471
3747.20069	0.62600
3745.27212	0.62844
3743.34356	0.62883
3741.41499	0.62704
3739.48643	0.62507
3737.55786	0.62341
3735.62930	0.62149
3733.70074	0.62050
3731.77217	0.62214
3729.84361	0.62469
3727.91504	0.62665
3725.98648	0.62731
3724.05791	0.62797
3722.12935	0.62884
3720.20078	0.62822
3718.27222	0.62695
3716.34366	0.62578
3714.41509	0.62434
3712.48653	0.62265
3710.55796	0.62334
3708.62940	0.62609
3706.70083	0.62736
3704.77227	0.62719
3702.84370	0.62708
3700.91514	0.62805
3698.98658	0.62931
3697.05801	0.63016
3695.12945	0.63057
3693.20088	0.63149
3691.27232	0.63529
3689.34375	0.64033
3687.41519	0.64090
3685.48662	0.64018
3683.55806	0.64046
3681.62950	0.64160
3679.70093	0.64374
3677.77237	0.64711
3675.84380	0.65204
3673.91524	0.65746
3671.98667	0.66150
3670.05811	0.66453
3668.12954	0.66714
3666.20098	0.67090
3664.27242	0.67611
3662.34385	0.68178
3660.41529	0.68675
3658.48672	0.69090
3656.55816	0.69565
3654.62959	0.70101
3652.70103	0.70662
3650.77246	0.71444
3648.84390	0.72391
3646.91534	0.72942
3644.98677	0.73368
3643.05821	0.73996
3641.12964	0.74795
3639.20108	0.75572
3637.27251	0.76280
3635.34395	0.76852
3633.41538	0.77263
3631.48682	0.77812
3629.55826	0.78959
3627.62969	0.80121
3625.70113	0.80641
3623.77256	0.81054
3621.84400	0.81507
3619.91543	0.82257
3617.98687	0.83181
3616.05830	0.83676
3614.12974	0.84099
3612.20118	0.84808
3610.27261	0.85536
3608.34405	0.86407
3606.41548	0.87588
3604.48692	0.88619
3602.55835	0.89457
3600.62979	0.90297
3598.70123	0.91085
3596.77266	0.91721
3594.84410	0.92395
3592.91553	0.93179
3590.98697	0.93811
3589.05840	0.94462
3587.12984	0.95499
3585.20127	0.96437
3583.27271	0.97004
3581.34415	0.97559
3579.41558	0.98288
3577.48702	0.99140
3575.55845	1.00067
3573.62989	1.00954
3571.70132	1.01739
3569.77276	1.02450
3567.84419	1.03241
3565.91563	1.04215
3563.98707	1.05012
3562.05850	1.05736
3560.12994	1.06469
3558.20137	1.07052
3556.27281	1.07656
3554.34424	1.08656
3552.41568	1.09941
3550.48711	1.10975
3548.55855	1.11831
3546.62999	1.12684
3544.70142	1.13485
3542.77286	1.14319
3540.84429	1.15092
3538.91573	1.15706
3536.98716	1.16299
3535.05860	1.17005
3533.13003	1.17615
3531.20147	1.17963
3529.27291	1.18383
3527.34434	1.19489
3525.41578	1.21164
3523.48721	1.22378
3521.55865	1.22696
3519.63008	1.22895
3517.70152	1.23646
3515.77295	1.24738
3513.84439	1.25616
3511.91583	1.26213
3509.98726	1.26903
3508.05870	1.28047
3506.13013	1.29602
3504.20157	1.31298
3502.27300	1.32961
3500.34444	1.34346
3498.41587	1.34950
3496.48731	1.35013
3494.55875	1.35522
3492.63018	1.36307
3490.70162	1.36828
3488.77305	1.37562
3486.84449	1.38661
3484.91592	1.39463
3482.98736	1.40023
3481.05879	1.40658
3479.13023	1.41063
3477.20167	1.41313
3475.27310	1.41591
3473.34454	1.41953
3471.41597	1.42850
3469.48741	1.43978
3467.55884	1.44015
3465.63028	1.43241
3463.70171	1.43509
3461.77315	1.44667
3459.84459	1.45124
3457.91602	1.45231
3455.98746	1.46063
3454.05889	1.47014
3452.13033	1.47080
3450.20176	1.46646
3448.27320	1.46716
3446.34464	1.47678
3444.41607	1.48535
3442.48751	1.48398
3440.55894	1.48405
3438.63038	1.49579
3436.70181	1.50806
3434.77325	1.50994
3432.84468	1.50852
3430.91612	1.50999
3428.98756	1.51018
3427.05899	1.50614
3425.13043	1.49811
3423.20186	1.49083
3421.27330	1.49246
3419.34473	1.49931
3417.41617	1.50037
3415.48760	1.49876
3413.55904	1.50266
3411.63048	1.50671
3409.70191	1.50415
3407.77335	1.50254
3405.84478	1.50481
3403.91622	1.50593
3401.98765	1.50897
3400.05909	1.51520
3398.13052	1.51955
3396.20196	1.52142
3394.27340	1.52585
3392.34483	1.53520
3390.41627	1.54086
3388.48770	1.53642
3386.55914	1.53135
3384.63057	1.53537
3382.70201	1.54156
3380.77344	1.53857
3378.84488	1.52916
3376.91632	1.52412
3374.98775	1.52859
3373.05919	1.53663
3371.13062	1.54123
3369.20206	1.54218
3367.27349	1.53908
3365.34493	1.53553
3363.41636	1.53958
3361.48780	1.54955
3359.55924	1.55756
3357.63067	1.56325
3355.70211	1.56917
3353.77354	1.57224
3351.84498	1.56937
3349.91641	1.56347
3347.98785	1.56174
3346.05928	1.56608
3344.13072	1.57136
3342.20216	1.57588
3340.27359	1.57941
3338.34503	1.57900
3336.41646	1.57548
3334.48790	1.57326
3332.55933	1.57763
3330.63077	1.58852
3328.70220	1.59579
3326.77364	1.59666
3324.84508	1.60061
3322.91651	1.60766
3320.98795	1.60924
3319.05938	1.60547
3317.13082	1.60509
3315.20225	1.60831
3313.27369	1.60560
3311.34513	1.60203
3309.41656	1.60958
3307.48800	1.62268
3305.55943	1.62971
3303.63087	1.62941
3301.70230	1.62864
3299.77374	1.63220
3297.84517	1.63681
3295.91661	1.63994
3293.98805	1.64311
3292.05948	1.64609
3290.13092	1.64805
3288.20235	1.64799
3286.27379	1.64460
3284.34522	1.64255
3282.41666	1.64514
3280.48809	1.64658
3278.55953	1.64193
3276.63097	1.63061
3274.70240	1.61700
3272.77384	1.60940
3270.84527	1.61087
3268.91671	1.61642
3266.98814	1.61738
3265.05958	1.61364
3263.13101	1.61347
3261.20245	1.61516
3259.27389	1.60675
3257.34532	1.58801
3255.41676	1.57307
3253.48819	1.56989
3251.55963	1.57120
3249.63106	1.56524
3247.70250	1.55380
3245.77393	1.54534
3243.84537	1.53851
3241.91681	1.53083
3239.98824	1.52323
3238.05968	1.51489
3236.13111	1.50348
3234.20255	1.48689
3232.27398	1.47140
3230.34542	1.46617
3228.41685	1.46794
3226.48829	1.46679
3224.55973	1.46116
3222.63116	1.45587
3220.70260	1.45273
3218.77403	1.44992
3216.84547	1.44449
3214.91690	1.43517
3212.98834	1.42463
3211.05977	1.41482
3209.13121	1.40599
3207.20265	1.39983
3205.27408	1.39551
3203.34552	1.39136
3201.41695	1.38803
3199.48839	1.38543
3197.55982	1.38304
3195.63126	1.38074
3193.70269	1.37811
3191.77413	1.37199
3189.84557	1.36063
3187.91700	1.34971
3185.98844	1.34229
3184.05987	1.33507
3182.13131	1.32761
3180.20274	1.32140
3178.27418	1.31562
3176.34562	1.31013
3174.41705	1.30574
3172.48849	1.30116
3170.55992	1.29434
3168.63136	1.28557
3166.70279	1.27768
3164.77423	1.27293
3162.84566	1.27020
3160.91710	1.26734
3158.98854	1.26408
3157.05997	1.26043
3155.13141	1.25549
3153.20284	1.24949
3151.27428	1.24430
3149.34571	1.24017
3147.41715	1.23612
3145.48858	1.23119
3143.56002	1.22510
3141.63146	1.22111
3139.70289	1.22122
3137.77433	1.22186
3135.84576	1.22050
3133.91720	1.21838
3131.98863	1.21588
3130.06007	1.21244
3128.13150	1.20840
3126.20294	1.20460
3124.27438	1.20202
3122.34581	1.20150
3120.41725	1.20236
3118.48868	1.20266
3116.56012	1.20219
3114.63155	1.20212
3112.70299	1.20207
3110.77442	1.20096
3108.84586	1.19867
3106.91730	1.19700
3104.98873	1.19735
3103.06017	1.19695
3101.13160	1.19374
3099.20304	1.19041
3097.27447	1.18846
3095.34591	1.18698
3093.41734	1.18597
3091.48878	1.18624
3089.56022	1.18721
3087.63165	1.18660
3085.70309	1.18400
3083.77452	1.18016
3081.84596	1.17456
3079.91739	1.16868
3077.98883	1.16514
3076.06026	1.16381
3074.13170	1.16260
3072.20314	1.15937
3070.27457	1.15373
3068.34601	1.14727
3066.41744	1.14128
3064.48888	1.13640
3062.56031	1.13271
3060.63175	1.12828
3058.70318	1.12264
3056.77462	1.11778
3054.84606	1.11311
3052.91749	1.10749
3050.98893	1.10256
3049.06036	1.09921
3047.13180	1.09522
3045.20323	1.08853
3043.27467	1.08133
3041.34610	1.07638
3039.41754	1.07267
3037.48898	1.06858
3035.56041	1.06423
3033.63185	1.05933
3031.70328	1.05386
3029.77472	1.04920
3027.84615	1.04498
3025.91759	1.04027
3023.98903	1.03513
3022.06046	1.02959
3020.13190	1.02529
3018.20333	1.02311
3016.27477	1.02088
3014.34620	1.01760
3012.41764	1.01471
3010.48907	1.01295
3008.56051	1.01133
3006.63195	1.00895
3004.70338	1.00579
3002.77482	1.00286
3000.84625	1.00196
2998.91769	1.00314
2996.98912	1.00414
2995.06056	1.00477
2993.13199	1.00695
2991.20343	1.00989
2989.27487	1.01261
2987.34630	1.01712
2985.41774	1.02431
2983.48917	1.03218
2981.56061	1.03920
2979.63204	1.04554
2977.70348	1.05164
2975.77491	1.05851
2973.84635	1.06726
2971.91779	1.07710
2969.98922	1.08613
2968.06066	1.09344
2966.13209	1.09902
2964.20353	1.10273
2962.27496	1.10483
2960.34640	1.10502
2958.41783	1.10213
2956.48927	1.09707
2954.56071	1.09172
2952.63214	1.08659
2950.70358	1.08177
2948.77501	1.07847
2946.84645	1.07825
2944.91788	1.08107
2942.98932	1.08727
2941.06075	1.09723
2939.13219	1.10796
2937.20363	1.11737
2935.27506	1.12712
2933.34650	1.13739
2931.41793	1.14634
2929.48937	1.15296
2927.56080	1.15679
2925.63224	1.15872
2923.70367	1.15979
2921.77511	1.15966
2919.84655	1.15704
2917.91798	1.14906
2915.98942	1.13361
2914.06085	1.11222
2912.13229	1.08954
2910.20372	1.06964
2908.27516	1.05315
2906.34659	1.03977
2904.41803	1.02991
2902.48947	1.02324
2900.56090	1.01894
2898.63234	1.01579
2896.70377	1.01186
2894.77521	1.00680
2892.84664	1.00194
2890.91808	0.99749
2888.98952	0.99331
2887.06095	0.99012
2885.13239	0.98759
2883.20382	0.98545
2881.27526	0.98471
2879.34669	0.98527
2877.41813	0.98575
2875.48956	0.98537
2873.56100	0.98304
2871.63244	0.97756
2869.70387	0.96979
2867.77531	0.96152
2865.84674	0.95441
2863.91818	0.94995
2861.98961	0.94854
2860.06105	0.95052
2858.13248	0.95615
2856.20392	0.96332
2854.27536	0.96923
2852.34679	0.97316
2850.41823	0.97242
2848.48966	0.96084
2846.56110	0.93807
2844.63253	0.91263
2842.70397	0.89166
2840.77540	0.87667
2838.84684	0.86591
2836.91828	0.85688
2834.98971	0.84896
2833.06115	0.84281
2831.13258	0.83800
2829.20402	0.83357
2827.27545	0.82908
2825.34689	0.82453
2823.41832	0.82031
2821.48976	0.81666
2819.56120	0.81338
2817.63263	0.81050
2815.70407	0.80812
2813.77550	0.80567
2811.84694	0.80251
2809.91837	0.79933
2807.98981	0.79671
2806.06124	0.79417
2804.13268	0.79193
2802.20412	0.78994
2800.27555	0.78727
2798.34699	0.78405
2796.41842	0.78091
2794.48986	0.77776
2792.56129	0.77431
2790.63273	0.77087
2788.70416	0.76790
2786.77560	0.76548
2784.84704	0.76318
2782.91847	0.76030
2780.98991	0.75692
2779.06134	0.75374
2777.13278	0.75104
2775.20421	0.74861
2773.27565	0.74623
2771.34708	0.74413
2769.41852	0.74263
2767.48996	0.74171
2765.56139	0.74114
2763.63283	0.74034
2761.70426	0.73870
2759.77570	0.73639
2757.84713	0.73393
2755.91857	0.73149
2753.99001	0.72921
2752.06144	0.72714
2750.13288	0.72511
2748.20431	0.72313
2746.27575	0.72148
2744.34718	0.72000
2742.41862	0.71825
2740.49005	0.71621
2738.56149	0.71420
2736.63293	0.71251
2734.70436	0.71113
2732.77580	0.70970
2730.84723	0.70798
2728.91867	0.70606
2726.99010	0.70456
2725.06154	0.70375
2723.13297	0.70292
2721.20441	0.70164
2719.27585	0.70014
2717.34728	0.69855
2715.41872	0.69712
2713.49015	0.69613
2711.56159	0.69496
2709.63302	0.69304
2707.70446	0.69104
2705.77589	0.68965
2703.84733	0.68856
2701.91877	0.68721
2699.99020	0.68563
2698.06164	0.68386
2696.13307	0.68187
2694.20451	0.68034
2692.27594	0.67974
2690.34738	0.67931
2688.41881	0.67835
2686.49025	0.67725
2684.56169	0.67641
2682.63312	0.67570
2680.70456	0.67476
2678.77599	0.67330
2676.84743	0.67177
2674.91886	0.67078
2672.99030	0.67008
2671.06173	0.66915
2669.13317	0.66792
2667.20461	0.66654
2665.27604	0.66489
2663.34748	0.66290
2661.41891	0.66119
2659.49035	0.65994
2657.56178	0.65865
2655.63322	0.65738
2653.70465	0.65640
2651.77609	0.65539
2649.84753	0.65409
2647.91896	0.65285
2645.99040	0.65191
2644.06183	0.65118
2642.13327	0.65068
2640.20470	0.65013
2638.27614	0.64913
2636.34757	0.64810
2634.41901	0.64738
2632.49045	0.64672
2630.56188	0.64578
2628.63332	0.64451
2626.70475	0.64347
2624.77619	0.64294
2622.84762	0.64257
2620.91906	0.64204
2618.99049	0.64110
2617.06193	0.63978
2615.13337	0.63873
2613.20480	0.63816
2611.27624	0.63759
2609.34767	0.63662
2607.41911	0.63533
2605.49054	0.63402
2603.56198	0.63290
2601.63342	0.63203
2599.70485	0.63130
2597.77629	0.63046
2595.84772	0.62966
2593.91916	0.62907
2591.99059	0.62819
2590.06203	0.62703
2588.13346	0.62638
2586.20490	0.62608
2584.27634	0.62541
2582.34777	0.62449
2580.41921	0.62374
2578.49064	0.62309
2576.56208	0.62225
2574.63351	0.62111
2572.70495	0.61983
2570.77638	0.61889
2568.84782	0.61830
2566.91926	0.61747
2564.99069	0.61609
2563.06213	0.61435
2561.13356	0.61277
2559.20500	0.61163
2557.27643	0.61054
2555.34787	0.60932
2553.41930	0.60816
2551.49074	0.60714
2549.56218	0.60618
2547.63361	0.60516
2545.70505	0.60391
2543.77648	0.60259
2541.84792	0.60168
2539.91935	0.60122
2537.99079	0.60088
2536.06222	0.60035
2534.13366	0.59961
2532.20510	0.59906
2530.27653	0.59892
2528.34797	0.59885
2526.41940	0.59853
2524.49084	0.59779
2522.56227	0.59682
2520.63371	0.59618
2518.70514	0.59566
2516.77658	0.59466
2514.84802	0.59324
2512.91945	0.59166
2510.99089	0.59021
2509.06232	0.58913
2507.13376	0.58814
2505.20519	0.58691
2503.27663	0.58560
2501.34806	0.58441
2499.41950	0.58333
2497.49094	0.58242
2495.56237	0.58161
2493.63381	0.58073
2491.70524	0.58003
2489.77668	0.57962
2487.84811	0.57911
2485.91955	0.57828
2483.99098	0.57731
2482.06242	0.57633
2480.13386	0.57529
2478.20529	0.57442
2476.27673	0.57394
2474.34816	0.57344
2472.41960	0.57271
2470.49103	0.57192
2468.56247	0.57086
2466.63391	0.56947
2464.70534	0.56818
2462.77678	0.56706
2460.84821	0.56598
2458.91965	0.56511
2456.99108	0.56453
2455.06252	0.56394
2453.13395	0.56299
2451.20539	0.56173
2449.27683	0.56062
2447.34826	0.55977
2445.41970	0.55892
2443.49113	0.55785
2441.56257	0.55667
2439.63400	0.55557
2437.70544	0.55444
2435.77687	0.55333
2433.84831	0.55253
2431.91975	0.55194
2429.99118	0.55129
2428.06262	0.55049
2426.13405	0.54947
2424.20549	0.54852
2422.27692	0.54785
2420.34836	0.54739
2418.41979	0.54698
2416.49123	0.54636
2414.56267	0.54545
2412.63410	0.54442
2410.70554	0.54346
2408.77697	0.54265
2406.84841	0.54188
2404.91984	0.54092
2402.99128	0.53969
2401.06271	0.53846
2399.13415	0.53739
2397.20559	0.53625
2395.27702	0.53498
2393.34846	0.53391
2391.41989	0.53338
2389.49133	0.53319
2387.56276	0.53293
2385.63420	0.53270
2383.70563	0.53274
2381.77707	0.53279
2379.84851	0.53250
2377.91994	0.53214
2375.99138	0.53209
2374.06281	0.53216
2372.13425	0.53187
2370.20568	0.53060
2368.27712	0.52845
2366.34855	0.52623
2364.41999	0.52462
2362.49143	0.52516
2360.56286	0.52728
2358.63430	0.52730
2356.70573	0.52492
2354.77717	0.52281
2352.84860	0.52155
2350.92004	0.52106
2348.99147	0.52132
2347.06291	0.52188
2345.13435	0.52252
2343.20578	0.52372
2341.27722	0.52434
2339.34865	0.52342
2337.42009	0.52254
2335.49152	0.52151
2333.56296	0.51936
2331.63440	0.51745
2329.70583	0.51718
2327.77727	0.51813
2325.84870	0.51899
2323.92014	0.51886
2321.99157	0.51764
2320.06301	0.51588
2318.13444	0.51455
2316.20588	0.51381
2314.27732	0.51308
2312.34875	0.51247
2310.42019	0.51210
2308.49162	0.51149
2306.56306	0.51068
2304.63449	0.50995
2302.70593	0.50931
2300.77736	0.50880
2298.84880	0.50853
2296.92024	0.50855
2294.99167	0.50861
2293.06311	0.50842
2291.13454	0.50811
2289.20598	0.50790
2287.27741	0.50777
2285.34885	0.50767
2283.42028	0.50748
2281.49172	0.50694
2279.56316	0.50627
2277.63459	0.50601
2275.70603	0.50596
2273.77746	0.50557
2271.84890	0.50503
2269.92033	0.50457
2267.99177	0.50418
2266.06320	0.50404
2264.13464	0.50418
2262.20608	0.50440
2260.27751	0.50445
2258.34895	0.50416
2256.42038	0.50367
2254.49182	0.50317
2252.56325	0.50281
2250.63469	0.50251
2248.70612	0.50200
2246.77756	0.50135
2244.84900	0.50092
2242.92043	0.50066
2240.99187	0.50023
2239.06330	0.49964
2237.13474	0.49928
2235.20617	0.49932
2233.27761	0.49937
2231.34904	0.49908
2229.42048	0.49860
2227.49192	0.49838
2225.56335	0.49845
2223.63479	0.49853
2221.70622	0.49864
2219.77766	0.49890
2217.84909	0.49929
2215.92053	0.49958
2213.99196	0.49963
2212.06340	0.49954
2210.13484	0.49943
2208.20627	0.49923
2206.27771	0.49879
2204.34914	0.49828
2202.42058	0.49796
2200.49201	0.49768
2198.56345	0.49725
2196.63488	0.49680
2194.70632	0.49637
2192.77776	0.49583
2190.84919	0.49532
2188.92063	0.49510
2186.99206	0.49507
2185.06350	0.49501
2183.13493	0.49504
2181.20637	0.49516
2179.27781	0.49526
2177.34924	0.49536
2175.42068	0.49544
2173.49211	0.49543
2171.56355	0.49526
2169.63498	0.49490
2167.70642	0.49447
2165.77785	0.49409
2163.84929	0.49363
2161.92073	0.49307
2159.99216	0.49247
2158.06360	0.49184
2156.13503	0.49118
2154.20647	0.49067
2152.27790	0.49042
2150.34934	0.49004
2148.42077	0.48944
2146.49221	0.48901
2144.56365	0.48892
2142.63508	0.48893
2140.70652	0.48888
2138.77795	0.48872
2136.84939	0.48850
2134.92082	0.48840
2132.99226	0.48830
2131.06369	0.48789
2129.13513	0.48736
2127.20657	0.48696
2125.27800	0.48645
2123.34944	0.48569
2121.42087	0.48483
2119.49231	0.48403
2117.56374	0.48330
2115.63518	0.48268
2113.70661	0.48223
2111.77805	0.48178
2109.84949	0.48120
2107.92092	0.48073
2105.99236	0.48052
2104.06379	0.48044
2102.13523	0.48043
2100.20666	0.48046
2098.27810	0.48037
2096.34953	0.48023
2094.42097	0.48035
2092.49241	0.48066
2090.56384	0.48067
2088.63528	0.48035
2086.70671	0.47995
2084.77815	0.47950
2082.84958	0.47891
2080.92102	0.47839
2078.99245	0.47798
2077.06389	0.47743
2075.13533	0.47654
2073.20676	0.47547
2071.27820	0.47449
2069.34963	0.47370
2067.42107	0.47312
2065.49250	0.47266
2063.56394	0.47230
2061.63537	0.47215
2059.70681	0.47215
2057.77825	0.47210
2055.84968	0.47188
2053.92112	0.47160
2051.99255	0.47129
2050.06399	0.47082
2048.13542	0.47022
2046.20686	0.46955
2044.27830	0.46872
2042.34973	0.46780
2040.42117	0.46684
2038.49260	0.46560
2036.56404	0.46433
2034.63547	0.46329
2032.70691	0.46233
2030.77834	0.46126
2028.84978	0.46005
2026.92122	0.45883
2024.99265	0.45769
2023.06409	0.45660
2021.13552	0.45570
2019.20696	0.45513
2017.27839	0.45468
2015.34983	0.45408
2013.42126	0.45342
2011.49270	0.45283
2009.56414	0.45241
2007.63557	0.45230
2005.70701	0.45231
2003.77844	0.45210
2001.84988	0.45170
1999.92131	0.45133
1997.99275	0.45096
1996.06418	0.45057
1994.13562	0.45020
1992.20706	0.44984
1990.27849	0.44942
1988.34993	0.44891
1986.42136	0.44837
1984.49280	0.44803
1982.56423	0.44806
1980.63567	0.44825
1978.70710	0.44834
1976.77854	0.44825
1974.84998	0.44800
1972.92141	0.44775
1970.99285	0.44772
1969.06428	0.44780
1967.13572	0.44765
1965.20715	0.44716
1963.27859	0.44660
1961.35002	0.44607
1959.42146	0.44541
1957.49290	0.44457
1955.56433	0.44363
1953.63577	0.44260
1951.70720	0.44155
1949.77864	0.44056
1947.85007	0.43964
1945.92151	0.43876
1943.99294	0.43782
1942.06438	0.43685
1940.13582	0.43605
1938.20725	0.43543
1936.27869	0.43493
1934.35012	0.43457
1932.42156	0.43429
1930.49299	0.43407
1928.56443	0.43391
1926.63586	0.43392
1924.70730	0.43420
1922.77874	0.43460
1920.85017	0.43487
1918.92161	0.43510
1916.99304	0.43526
1915.06448	0.43510
1913.13591	0.43487
1911.20735	0.43467
1909.27878	0.43423
1907.35022	0.43364
1905.42166	0.43322
1903.49309	0.43281
1901.56453	0.43218
1899.63596	0.43162
1897.70740	0.43125
1895.77883	0.43076
1893.85027	0.43019
1891.92171	0.42981
1889.99314	0.42938
1888.06458	0.42876
1886.13601	0.42829
1884.20745	0.42787
1882.27888	0.42734
1880.35032	0.42700
1878.42175	0.42690
1876.49319	0.42672
1874.56463	0.42641
1872.63606	0.42613
1870.70750	0.42608
1868.77893	0.42613
1866.85037	0.42584
1864.92180	0.42533
1862.99324	0.42488
1861.06467	0.42448
1859.13611	0.42411
1857.20755	0.42373
1855.27898	0.42333
1853.35042	0.42301
1851.42185	0.42276
1849.49329	0.42261
1847.56472	0.42261
1845.63616	0.42276
1843.70759	0.42285
1841.77903	0.42277
1839.85047	0.42284
1837.92190	0.42324
1835.99334	0.42370
1834.06477	0.42400
1832.13621	0.42446
1830.20764	0.42522
1828.27908	0.42557
1826.35051	0.42534
1824.42195	0.42518
1822.49339	0.42522
1820.56482	0.42510
1818.63626	0.42477
1816.70769	0.42433
1814.77913	0.42389
1812.85056	0.42356
1810.92200	0.42327
1808.99343	0.42287
1807.06487	0.42248
1805.13631	0.42233
1803.20774	0.42245
1801.27918	0.42278
1799.35061	0.42309
1797.42205	0.42342
1795.49348	0.42404
1793.56492	0.42509
1791.63635	0.42618
1789.70779	0.42668
1787.77923	0.42727
1785.85066	0.42828
1783.92210	0.42935
1781.99353	0.43032
1780.06497	0.43117
1778.13640	0.43171
1776.20784	0.43200
1774.27927	0.43247
1772.35071	0.43321
1770.42215	0.43361
1768.49358	0.43368
1766.56502	0.43376
1764.63645	0.43423
1762.70789	0.43542
1760.77932	0.43732
1758.85076	0.43955
1756.92220	0.44266
1754.99363	0.44626
1753.06507	0.45014
1751.13650	0.45625
1749.20794	0.46482
1747.27937	0.47264
1745.35081	0.47921
1743.42224	0.48538
1741.49368	0.49132
1739.56512	0.49703
1737.63655	0.50131
1735.70799	0.50477
1733.77942	0.51056
1731.85086	0.51607
1729.92229	0.51972
1727.99373	0.52343
1726.06516	0.52774
1724.13660	0.53363
1722.20804	0.54005
1720.27947	0.54613
1718.35091	0.55542
1716.42234	0.57108
1714.49378	0.58435
1712.56521	0.59516
1710.63665	0.60775
1708.70808	0.62316
1706.77952	0.64569
1704.85096	0.67557
1702.92239	0.70266
1700.99383	0.74076
1699.06526	0.80435
1697.13670	0.86733
1695.20813	0.92878
1693.27957	0.97404
1691.35100	1.01085
1689.42244	1.05703
1687.49388	1.10083
1685.56531	1.14430
1683.63675	1.21456
1681.70818	1.26869
1679.77962	1.30037
1677.85105	1.32985
1675.92249	1.36260
1673.99392	1.39518
1672.06536	1.41929
1670.13680	1.44286
1668.20823	1.46740
1666.27967	1.47951
1664.35110	1.48787
1662.42254	1.49966
1660.49397	1.50791
1658.56541	1.51098
1656.63684	1.51268
1654.70828	1.51499
1652.77972	1.51127
1650.85115	1.50538
1648.92259	1.50079
1646.99402	1.49460
1645.06546	1.49114
1643.13689	1.48710
1641.20833	1.48280
1639.27976	1.47892
1637.35120	1.47399
1635.42264	1.46442
1633.49407	1.45587
1631.56551	1.45003
1629.63694	1.44090
1627.70838	1.42813
1625.77981	1.41440
1623.85125	1.39643
1621.92269	1.37346
1619.99412	1.35348
1618.06556	1.32922
1616.13699	1.28963
1614.20843	1.25566
1612.27986	1.23054
1610.35130	1.20528
1608.42273	1.17911
1606.49417	1.15586
1604.56561	1.13764
1602.63704	1.12351
1600.70848	1.11349
1598.77991	1.10718
1596.85135	1.10304
1594.92278	1.09991
1592.99422	1.09875
1591.06565	1.10070
1589.13709	1.10515
1587.20853	1.11258
1585.27996	1.12363
1583.35140	1.13753
1581.42283	1.15208
1579.49427	1.16521
1577.56570	1.18119
1575.63714	1.20519
1573.70857	1.22235
1571.78001	1.23367
1569.85145	1.25159
1567.92288	1.27235
1565.99432	1.28705
1564.06575	1.29883
1562.13719	1.30630
1560.20862	1.31471
1558.28006	1.33957
1556.35149	1.35313
1554.42293	1.35527
1552.49437	1.35516
1550.56580	1.35367
1548.63724	1.35056
1546.70867	1.34663
1544.78011	1.34136
1542.85154	1.33484
1540.92298	1.32424
1538.99441	1.30700
1537.06585	1.29772
1535.13729	1.28878
1533.20872	1.27388
1531.28016	1.26011
1529.35159	1.25165
1527.42303	1.24327
1525.49446	1.23371
1523.56590	1.22676
1521.63733	1.22210
1519.70877	1.21771
1517.78021	1.20774
1515.85164	1.19123
1513.92308	1.17437
1511.99451	1.15726
1510.06595	1.13908
1508.13738	1.10992
1506.20882	1.06186
1504.28025	1.03886
1502.35169	1.02518
1500.42313	1.00846
1498.49456	0.98587
1496.56600	0.95807
1494.63743	0.93629
1492.70887	0.92175
1490.78030	0.90586
1488.85174	0.88596
1486.92317	0.87158
1484.99461	0.86333
1483.06605	0.85862
1481.13748	0.85710
1479.20892	0.85887
1477.28035	0.86447
1475.35179	0.87530
1473.42322	0.89483
1471.49466	0.91714
1469.56610	0.92987
1467.63753	0.93838
1465.70897	0.94858
1463.78040	0.95948
1461.85184	0.96640
1459.92327	0.97171
1457.99471	0.98130
1456.06614	0.99164
1454.13758	0.99379
1452.20902	0.99298
1450.28045	0.99071
1448.35189	0.98674
1446.42332	0.98140
1444.49476	0.97544
1442.56619	0.96880
1440.63763	0.96221
1438.70906	0.95496
1436.78050	0.94385
1434.85194	0.93178
1432.92337	0.92289
1430.99481	0.91511
1429.06624	0.90902
1427.13768	0.90631
1425.20911	0.90624
1423.28055	0.90786
1421.35198	0.91051
1419.42342	0.91565
1417.49486	0.92187
1415.56629	0.92468
1413.63773	0.92563
1411.70916	0.92621
1409.78060	0.92698
1407.85203	0.92807
1405.92347	0.92955
1403.99490	0.93139
1402.06634	0.93300
1400.13778	0.93432
1398.20921	0.93527
1396.28065	0.93557
1394.35208	0.93548
1392.42352	0.93601
1390.49495	0.93813
1388.56639	0.94416
1386.63782	0.95600
1384.70926	0.96913
1382.78070	0.98004
1380.85213	0.98782
1378.92357	0.99079
1376.99500	0.98825
1375.06644	0.97906
1373.13787	0.96437
1371.20931	0.94914
1369.28074	0.93243
1367.35218	0.91384
1365.42362	0.89686
1363.49505	0.88059
1361.56649	0.86542
1359.63792	0.85522
1357.70936	0.84877
1355.78079	0.84389
1353.85223	0.84013
1351.92366	0.83738
1349.99510	0.83535
1348.06654	0.83403
1346.13797	0.83365
1344.20941	0.83418
1342.28084	0.83561
1340.35228	0.83853
1338.42371	0.84286
1336.49515	0.84809
1334.56659	0.85502
1332.63802	0.86394
1330.70946	0.87369
1328.78089	0.88242
1326.85233	0.88897
1324.92376	0.89338
1322.99520	0.89672
1321.06663	0.90017
1319.13807	0.90376
1317.20951	0.90641
1315.28094	0.90767
1313.35238	0.90807
1311.42381	0.90759
1309.49525	0.90584
1307.56668	0.90306
1305.63812	0.89996
1303.70955	0.89729
1301.78099	0.89476
1299.85243	0.89122
1297.92386	0.88642
1295.99530	0.88152
1294.06673	0.87800
1292.13817	0.87661
1290.20960	0.87710
1288.28104	0.87852
1286.35247	0.88013
1284.42391	0.88140
1282.49535	0.88207
1280.56678	0.88274
1278.63822	0.88421
1276.70965	0.88672
1274.78109	0.89030
1272.85252	0.89514
1270.92396	0.90102
1268.99539	0.90719
1267.06683	0.91333
1265.13827	0.91891
1263.20970	0.92294
1261.28114	0.92527
1259.35257	0.92676
1257.42401	0.92828
1255.49544	0.93037
1253.56688	0.93334
1251.63831	0.93676
1249.70975	0.93999
1247.78119	0.94293
1245.85262	0.94547
1243.92406	0.94714
1241.99549	0.94751
1240.06693	0.94643
1238.13836	0.94432
1236.20980	0.94092
1234.28123	0.93512
1232.35267	0.92684
1230.42411	0.91701
1228.49554	0.90639
1226.56698	0.89534
1224.63841	0.88401
1222.70985	0.87256
1220.78128	0.86125
1218.85272	0.85070
1216.92415	0.84198
1214.99559	0.83622
1213.06703	0.83399
1211.13846	0.83507
1209.20990	0.83837
1207.28133	0.84159
1205.35277	0.84208
1203.42420	0.83881
1201.49564	0.83270
1199.56708	0.82521
1197.63851	0.81711
1195.70995	0.80887
1193.78138	0.80128
1191.85282	0.79521
1189.92425	0.79077
1187.99569	0.78758
1186.06712	0.78540
1184.13856	0.78427
1182.21000	0.78480
1180.28143	0.78772
1178.35287	0.79298
1176.42430	0.79997
1174.49574	0.80819
1172.56717	0.81735
1170.63861	0.82828
1168.71004	0.84282
1166.78148	0.86182
1164.85292	0.88413
1162.92435	0.90730
1160.99579	0.92815
1159.06722	0.94280
1157.13866	0.94788
1155.21009	0.94305
1153.28153	0.93082
1151.35296	0.91422
1149.42440	0.89555
1147.49584	0.87647
1145.56727	0.85898
1143.63871	0.84512
1141.71014	0.83583
1139.78158	0.83090
1137.85301	0.82945
1135.92445	0.83076
1133.99588	0.83531
1132.06732	0.84432
1130.13876	0.85805
1128.21019	0.87521
1126.28163	0.89357
1124.35306	0.91144
1122.42450	0.92833
1120.49593	0.94367
1118.56737	0.95645
1116.63880	0.96610
1114.71024	0.97196
1112.78168	0.97246
1110.85311	0.96838
1108.92455	0.96354
1106.99598	0.95920
1105.06742	0.95370
1103.13885	0.94722
1101.21029	0.94188
1099.28172	0.93919
1097.35316	0.94001
1095.42460	0.94444
1093.49603	0.95128
1091.56747	0.96030
1089.63890	0.97245
1087.71034	0.98797
1085.78177	1.00737
1083.85321	1.03002
1081.92464	1.05160
1079.99608	1.06719
1078.06752	1.07520
1076.13895	1.07677
1074.21039	1.07334
1072.28182	1.06610
1070.35326	1.05653
1068.42469	1.04580
1066.49613	1.03502
1064.56756	1.02563
1062.63900	1.01640
1060.71044	1.00442
1058.78187	0.99024
1056.85331	0.97710
1054.92474	0.96632
1052.99618	0.95677
1051.06761	0.94794
1049.13905	0.94091
1047.21049	0.93723
1045.28192	0.93805
1043.35336	0.94267
1041.42479	0.94947
1039.49623	0.95744
1037.56766	0.96525
1035.63910	0.97149
1033.71053	0.97590
1031.78197	0.97860
1029.85341	0.97943
1027.92484	0.97821
1025.99628	0.97426
1024.06771	0.96777
1022.13915	0.96083
1020.21058	0.95489
1018.28202	0.94988
1016.35345	0.94394
1014.42489	0.93366
1012.49633	0.91785
1010.56776	0.89844
1008.63920	0.87678
1006.71063	0.85361
1004.78207	0.83112
1002.85350	0.81127
1000.92494	0.79417
998.99637	0.77953
997.06781	0.76755
995.13925	0.75785
993.21068	0.74915
991.28212	0.74037
989.35355	0.73148
987.42499	0.72362
985.49642	0.71790
983.56786	0.71479
981.63929	0.71475
979.71073	0.71780
977.78217	0.72255
975.85360	0.72697
973.92504	0.72920
971.99647	0.72809
970.06791	0.72358
968.13934	0.71664
966.21078	0.70885
964.28221	0.70194
962.35365	0.69752
960.42509	0.69718
958.49652	0.70110
956.56796	0.70574
954.63939	0.70575
952.71083	0.69909
950.78226	0.68794
948.85370	0.67580
946.92513	0.66553
944.99657	0.65859
943.06801	0.65501
941.13944	0.65406
939.21088	0.65478
937.28231	0.65646
935.35375	0.65900
933.42518	0.66269
931.49662	0.66740
929.56805	0.67231
927.63949	0.67660
925.71093	0.68009
923.78236	0.68263
921.85380	0.68362
919.92523	0.68239
917.99667	0.67876
916.06810	0.67364
914.13954	0.66862
912.21098	0.66473
910.28241	0.66212
908.35385	0.66080
906.42528	0.66098
904.49672	0.66269
902.56815	0.66539
900.63959	0.66836
898.71102	0.67137
896.78246	0.67418
894.85390	0.67633
892.92533	0.67787
890.99677	0.67931
889.06820	0.68083
887.13964	0.68273
885.21107	0.68519
883.28251	0.68773
881.35394	0.69014
879.42538	0.69224
877.49682	0.69334
875.56825	0.69296
873.63969	0.69123
871.71112	0.68886
869.78256	0.68669
867.85399	0.68468
865.92543	0.68263
863.99686	0.68112
862.06830	0.68060
860.13974	0.68136
858.21117	0.68410
856.28261	0.68896
854.35404	0.69490
852.42548	0.70106
850.49691	0.70766
848.56835	0.71512
846.63978	0.72295
844.71122	0.73064
842.78266	0.73861
840.85409	0.74695
838.92553	0.75498
836.99696	0.76223
835.06840	0.76833
833.13983	0.77281
831.21127	0.77560
829.28270	0.77704
827.35414	0.77757
825.42558	0.77746
823.49701	0.77648
821.56845	0.77451
819.63988	0.77234
817.71132	0.77079
815.78275	0.77024
813.85419	0.77044
811.92562	0.77108
809.99706	0.77236
808.06850	0.77427
806.13993	0.77646
804.21137	0.77909
802.28280	0.78232
800.35424	0.78554
798.42567	0.78837
796.49711	0.79158
794.56854	0.79564
792.63998	0.79964
790.71142	0.80242
788.78285	0.80395
786.85429	0.80496
784.92572	0.80610
782.99716	0.80731
781.06859	0.80804
779.14003	0.80847
777.21147	0.80914
775.28290	0.81026
773.35434	0.81201
771.42577	0.81476
769.49721	0.81869
767.56864	0.82336
765.64008	0.82841
763.71151	0.83382
761.78295	0.83948
759.85439	0.84570
757.92582	0.85270
755.99726	0.85979
754.06869	0.86645
752.14013	0.87246
750.21156	0.87721
748.28300	0.88086
746.35443	0.88370
744.42587	0.88498
742.49731	0.88480
740.56874	0.88408
738.64018	0.88286
736.71161	0.88095
734.78305	0.87865
732.85448	0.87644
730.92592	0.87451
728.99735	0.87297
727.06879	0.87246
725.14023	0.87348
723.21166	0.87518
721.28310	0.87689
719.35453	0.87920
717.42597	0.88194
715.49740	0.88463
713.56884	0.88842
711.64027	0.89439
709.71171	0.90162
707.78315	0.90903
705.85458	0.91633
703.92602	0.92197
701.99745	0.92487
700.06889	0.92665
698.14032	0.92884
696.21176	0.93159
694.28319	0.93384
692.35463	0.93385
690.42607	0.93130
688.49750	0.92692
686.56894	0.92159
684.64037	0.91694
682.71181	0.91326
680.78324	0.90920
678.85468	0.90454
676.92611	0.89960
674.99755	0.89437
673.06899	0.88998
671.14042	0.88695
669.21186	0.88569
667.28329	0.88857
665.35473	0.89141
663.42616	0.89292
661.49760	0.89456
659.56903	0.89600
657.64047	0.89699
655.71191	0.89773
653.78334	0.89904
651.85478	0.90147
649.92621	0.90371
647.99765	0.90525
646.06908	0.90619
644.14052	0.90529
642.21195	0.90387
640.28339	0.90483
638.35483	0.90632
636.42626	0.90446
634.49770	0.89918
632.56913	0.89315
630.64057	0.88947
628.71200	0.88890
626.78344	0.88955
624.85488	0.89124
622.92631	0.89469
620.99775	0.89807
619.06918	0.90065
617.14062	0.90433
615.21205	0.90998
613.28349	0.91690
611.35492	0.92342
609.42636	0.92752
607.49780	0.92952
605.56923	0.93017
603.64067	0.92893
601.71210	0.92618
599.78354	0.92171
