3997.91406	0.92204
3995.98550	0.92306
3994.05693	0.92118
3992.12837	0.91826
3990.19980	0.91617
3988.27124	0.91568
3986.34268	0.91652
3984.41411	0.91609
3982.48555	0.91415
3980.55698	0.91313
3978.62842	0.91329
3976.69985	0.91293
3974.77129	0.91022
3972.84272	0.90621
3970.91416	0.90444
3968.98560	0.90523
3967.05703	0.90423
3965.12847	0.89952
3963.19990	0.89501
3961.27134	0.89423
3959.34277	0.89687
3957.41421	0.90005
3955.48564	0.90069
3953.55708	0.89928
3951.62852	0.89789
3949.69995	0.89573
3947.77139	0.89230
3945.84282	0.89041
3943.91426	0.89076
3941.98569	0.89182
3940.05713	0.89270
3938.12856	0.89334
3936.20000	0.89460
3934.27144	0.89644
3932.34287	0.89763
3930.41431	0.89799
3928.48574	0.89674
3926.55718	0.89142
3924.62861	0.88247
3922.70005	0.87643
3920.77148	0.87502
3918.84292	0.87490
3916.91436	0.87557
3914.98579	0.87726
3913.05723	0.87906
3911.12866	0.87991
3909.20010	0.88019
3907.27153	0.88061
3905.34297	0.87839
3903.41440	0.87155
3901.48584	0.86608
3899.55728	0.86550
3897.62871	0.86785
3895.70015	0.87190
3893.77158	0.87582
3891.84302	0.87359
3889.91445	0.86841
3887.98589	0.86840
3886.05733	0.86814
3884.12876	0.86392
3882.20020	0.86086
3880.27163	0.86059
3878.34307	0.86408
3876.41450	0.86769
3874.48594	0.86683
3872.55737	0.86236
3870.62881	0.85652
3868.70025	0.85388
3866.77168	0.85642
3864.84312	0.85854
3862.91455	0.85949
3860.98599	0.86074
3859.05742	0.85971
3857.12886	0.85586
3855.20029	0.84971
3853.27173	0.84477
3851.34317	0.84764
3849.41460	0.85129
3847.48604	0.85283
3845.55747	0.85234
3843.62891	0.85090
3841.70034	0.85006
3839.77178	0.84771
3837.84321	0.84310
3835.91465	0.84195
3833.98609	0.84358
3832.05752	0.84452
3830.12896	0.84434
3828.20039	0.84440
3826.27183	0.84659
3824.34326	0.85126
3822.41470	0.85307
3820.48613	0.84707
3818.55757	0.84208
3816.62901	0.83951
3814.70044	0.83966
3812.77188	0.84332
3810.84331	0.84675
3808.91475	0.84725
3806.98618	0.84368
3805.05762	0.84065
3803.12905	0.83801
3801.20049	0.83182
3799.27193	0.82916
3797.34336	0.83020
3795.41480	0.83177
3793.48623	0.83358
3791.55767	0.83439
3789.62910	0.83360
3787.70054	0.83145
3785.77197	0.82881
3783.84341	0.82899
3781.91485	0.83174
3779.98628	0.83104
3778.05772	0.82667
3776.12915	0.82472
3774.20059	0.82528
3772.27202	0.82611
3770.34346	0.82577
3768.41489	0.82530
3766.48633	0.82503
3764.55777	0.82407
3762.62920	0.82335
3760.70064	0.82180
3758.77207	0.81930
3756.84351	0.81902
3754.91494	0.82106
3752.98638	0.82257
3751.05781	0.81734
3749.12925	0.81144
3747.20069	0.81231
3745.27212	0.81346
3743.34356	0.81450
3741.41499	0.81794
3739.48643	0.82111
3737.55786	0.82151
3735.62930	0.81694
3733.70074	0.81018
3731.77217	0.80891
3729.84361	0.81157
3727.91504	0.81429
3725.98648	0.81534
3724.05791	0.81525
3722.12935	0.81580
3720.20078	0.81619
3718.27222	0.81537
3716.34366	0.81501
3714.41509	0.81589
3712.48653	0.81435
3710.55796	0.80818
3708.62940	0.80639
3706.70083	0.80958
3704.77227	0.81389
3702.84370	0.81557
3700.91514	0.81215
3698.98658	0.80827
3697.05801	0.80745
3695.12945	0.80843
3693.20088	0.80890
3691.27232	0.80863
3689.34375	0.80840
3687.41519	0.80808
3685.48662	0.80849
3683.55806	0.81013
3681.62950	0.81316
3679.70093	0.81776
3677.77237	0.81986
3675.84380	0.81264
3673.91524	0.80969
3671.98667	0.81652
3670.05811	0.82391
3668.12954	0.82890
3666.20098	0.83314
3664.27242	0.83624
3662.34385	0.83837
3660.41529	0.84163
3658.48672	0.84554
3656.55816	0.84857
3654.62959	0.85285
3652.70103	0.85875
3650.77246	0.86499
3648.84390	0.87011
3646.91534	0.87235
3644.98677	0.87503
3643.05821	0.87890
3641.12964	0.88294
3639.20108	0.88676
3637.27251	0.89069
3635.34395	0.89506
3633.41538	0.89897
3631.48682	0.90193
3629.55826	0.90749
3627.62969	0.91705
3625.70113	0.92378
3623.77256	0.92835
3621.84400	0.93290
3619.91543	0.93704
3617.98687	0.93949
3616.05830	0.94118
3614.12974	0.94318
3612.20118	0.94793
3610.27261	0.95515
3608.34405	0.96254
3606.41548	0.97058
3604.48692	0.97805
3602.55835	0.98282
3600.62979	0.98588
3598.70123	0.99020
3596.77266	0.99481
3594.84410	0.99873
3592.91553	1.00358
3590.98697	1.00900
3589.05840	1.01428
3587.12984	1.02038
3585.20127	1.02647
3583.27271	1.03047
3581.34415	1.03403
3579.41558	1.03865
3577.48702	1.04199
3575.55845	1.04461
3573.62989	1.05148
3571.70132	1.06183
3569.77276	1.06831
3567.84419	1.06812
3565.91563	1.07015
3563.98707	1.07604
3562.05850	1.08009
3560.12994	1.08242
3558.20137	1.08588
3556.27281	1.09220
3554.34424	1.10119
3552.41568	1.11191
3550.48711	1.12026
3548.55855	1.12361
3546.62999	1.12437
3544.70142	1.12595
3542.77286	1.12936
3540.84429	1.13597
3538.91573	1.14708
3536.98716	1.15733
3535.05860	1.16065
3533.13003	1.16205
3531.20147	1.16587
3529.27291	1.17069
3527.34434	1.17853
3525.41578	1.18946
3523.48721	1.19503
3521.55865	1.19267
3519.63008	1.19188
3517.70152	1.19837
3515.77295	1.20877
3513.84439	1.21619
3511.91583	1.21731
3509.98726	1.21849
3508.05870	1.22632
3506.13013	1.23755
3504.20157	1.24749
3502.27300	1.25134
3500.34444	1.25141
3498.41587	1.25556
3496.48731	1.26350
3494.55875	1.27111
3492.63018	1.27765
3490.70162	1.28283
3488.77305	1.28731
3486.84449	1.29425
3484.91592	1.30221
3482.98736	1.30895
3481.05879	1.31666
3479.13023	1.32040
3477.20167	1.31564
3475.27310	1.30996
3473.34454	1.31152
3471.41597	1.32110
3469.48741	1.33214
3467.55884	1.33507
3465.63028	1.33082
3463.70171	1.33082
3461.77315	1.34036
3459.84459	1.35033
3457.91602	1.35068
3455.98746	1.34564
3454.05889	1.34307
3452.13033	1.34395
3450.20176	1.34695
3448.27320	1.35118
3446.34464	1.35518
3444.41607	1.35752
3442.48751	1.35691
3440.55894	1.35548
3438.63038	1.35899
3436.70181	1.36763
3434.77325	1.37339
3432.84468	1.36899
3430.91612	1.35997
3428.98756	1.35824
3427.05899	1.36402
3425.13043	1.36938
3423.20186	1.36905
3421.27330	1.36379
3419.34473	1.35988
3417.41617	1.36065
3415.48760	1.36536
3413.55904	1.37098
3411.63048	1.37113
3409.70191	1.36427
3407.77335	1.35875
3405.84478	1.36191
3403.91622	1.36968
3401.98765	1.37286
3400.05909	1.36908
3398.13052	1.36481
3396.20196	1.36764
3394.27340	1.37584
3392.34483	1.37889
3390.41627	1.37398
3388.48770	1.36924
3386.55914	1.36849
3384.63057	1.37101
3382.70201	1.37419
3380.77344	1.37453
3378.84488	1.37329
3376.91632	1.37174
3374.98775	1.36974
3373.05919	1.37096
3371.13062	1.37692
3369.20206	1.38159
3367.27349	1.38039
3365.34493	1.37943
3363.41636	1.38338
3361.48780	1.38344
3359.55924	1.37735
3357.63067	1.37630
3355.70211	1.37985
3353.77354	1.38188
3351.84498	1.38484
3349.91641	1.38712
3347.98785	1.38721
3346.05928	1.38894
3344.13072	1.39022
3342.20216	1.38793
3340.27359	1.38650
3338.34503	1.38894
3336.41646	1.39171
3334.48790	1.39422
3332.55933	1.39863
3330.63077	1.40389
3328.70220	1.40980
3326.77364	1.41635
3324.84508	1.42150
3322.91651	1.42433
3320.98795	1.42580
3319.05938	1.42639
3317.13082	1.42632
3315.20225	1.42858
3313.27369	1.43439
3311.34513	1.43910
3309.41656	1.43895
3307.48800	1.43643
3305.55943	1.43623
3303.63087	1.43807
3301.70230	1.43780
3299.77374	1.43539
3297.84517	1.43598
3295.91661	1.44273
3293.98805	1.45013
3292.05948	1.45128
3290.13092	1.45012
3288.20235	1.45217
3286.27379	1.45589
3284.34522	1.46023
3282.41666	1.46471
3280.48809	1.46554
3278.55953	1.46071
3276.63097	1.45141
3274.70240	1.43988
3272.77384	1.43284
3270.84527	1.43358
3268.91671	1.43392
3266.98814	1.42818
3265.05958	1.42112
3263.13101	1.41838
3261.20245	1.41859
3259.27389	1.41497
3257.34532	1.40430
3255.41676	1.39004
3253.48819	1.37787
3251.55963	1.36986
3249.63106	1.36387
3247.70250	1.35930
3245.77393	1.35567
3243.84537	1.34959
3241.91681	1.34066
3239.98824	1.33263
3238.05968	1.32711
3236.13111	1.32277
3234.20255	1.31700
3232.27398	1.30830
3230.34542	1.29992
3228.41685	1.29482
3226.48829	1.29153
3224.55973	1.28816
3222.63116	1.28400
3220.70260	1.28052
3218.77403	1.28015
3216.84547	1.27911
3214.91690	1.27307
3212.98834	1.26716
3211.05977	1.26379
3209.13121	1.25696
3207.20265	1.24702
3205.27408	1.23992
3203.34552	1.23672
3201.41695	1.23510
3199.48839	1.23301
3197.55982	1.22921
3195.63126	1.22312
3193.70269	1.21638
3191.77413	1.21182
3189.84557	1.20940
3187.91700	1.20610
3185.98844	1.20038
3184.05987	1.19446
3182.13131	1.19119
3180.20274	1.18920
3178.27418	1.18459
3176.34562	1.17804
3174.41705	1.17315
3172.48849	1.16953
3170.55992	1.16462
3168.63136	1.15886
3166.70279	1.15437
3164.77423	1.15088
3162.84566	1.14701
3160.91710	1.14292
3158.98854	1.13939
3157.05997	1.13688
3155.13141	1.13404
3153.20284	1.12974
3151.27428	1.12590
3149.34571	1.12354
3147.41715	1.12126
3145.48858	1.11904
3143.56002	1.11722
3141.63146	1.11525
3139.70289	1.11345
3137.77433	1.11217
3135.84576	1.10984
3133.91720	1.10521
3131.98863	1.10150
3130.06007	1.10163
3128.13150	1.10290
3126.20294	1.10305
3124.27438	1.10298
3122.34581	1.10262
3120.41725	1.10156
3118.48868	1.10035
3116.56012	1.10005
3114.63155	1.10144
3112.70299	1.10382
3110.77442	1.10559
3108.84586	1.10540
3106.91730	1.10336
3104.98873	1.10139
3103.06017	1.10110
3101.13160	1.10169
3099.20304	1.10125
3097.27447	1.09987
3095.34591	1.09850
3093.41734	1.09694
3091.48878	1.09433
3089.56022	1.09105
3087.63165	1.08846
3085.70309	1.08603
3083.77452	1.08289
3081.84596	1.08036
3079.91739	1.07859
3077.98883	1.07610
3076.06026	1.07355
3074.13170	1.07221
3072.20314	1.07097
3070.27457	1.06835
3068.34601	1.06438
3066.41744	1.06052
3064.48888	1.05818
3062.56031	1.05610
3060.63175	1.05190
3058.70318	1.04629
3056.77462	1.04118
3054.84606	1.03666
3052.91749	1.03324
3050.98893	1.03013
3049.06036	1.02514
3047.13180	1.02004
3045.20323	1.01722
3043.27467	1.01514
3041.34610	1.01197
3039.41754	1.00822
3037.48898	1.00519
3035.56041	1.00279
3033.63185	0.99998
3031.70328	0.99671
3029.77472	0.99383
3027.84615	0.99210
3025.91759	0.99097
3023.98903	0.98838
3022.06046	0.98406
3020.13190	0.98026
3018.20333	0.97713
3016.27477	0.97360
3014.34620	0.97054
3012.41764	0.96803
3010.48907	0.96559
3008.56051	0.96375
3006.63195	0.96217
3004.70338	0.96076
3002.77482	0.96059
3000.84625	0.96132
2998.91769	0.96164
2996.98912	0.96210
2995.06056	0.96402
2993.13199	0.96686
2991.20343	0.96963
2989.27487	0.97262
2987.34630	0.97612
2985.41774	0.97993
2983.48917	0.98413
2981.56061	0.98867
2979.63204	0.99327
2977.70348	0.99715
2975.77491	1.00005
2973.84635	1.00396
2971.91779	1.01013
2969.98922	1.01661
2968.06066	1.02197
2966.13209	1.02640
2964.20353	1.02978
2962.27496	1.03166
2960.34640	1.03081
2958.41783	1.02679
2956.48927	1.02186
2954.56071	1.01749
2952.63214	1.01283
2950.70358	1.00868
2948.77501	1.00687
2946.84645	1.00736
2944.91788	1.00996
2942.98932	1.01478
2941.06075	1.02091
2939.13219	1.02729
2937.20363	1.03353
2935.27506	1.04022
2933.34650	1.04763
2931.41793	1.05470
2929.48937	1.06053
2927.56080	1.06536
2925.63224	1.06989
2923.70367	1.07460
2921.77511	1.07866
2919.84655	1.08004
2917.91798	1.07675
2915.98942	1.06663
2914.06085	1.05009
2912.13229	1.03163
2910.20372	1.01479
2908.27516	1.00124
2906.34659	0.99215
2904.41803	0.98602
2902.48947	0.98039
2900.56090	0.97593
2898.63234	0.97333
2896.70377	0.97085
2894.77521	0.96821
2892.84664	0.96549
2890.91808	0.96181
2888.98952	0.95798
2887.06095	0.95436
2885.13239	0.95059
2883.20382	0.94802
2881.27526	0.94759
2879.34669	0.94833
2877.41813	0.94904
2875.48956	0.94854
2873.56100	0.94575
2871.63244	0.94127
2869.70387	0.93622
2867.77531	0.93052
2865.84674	0.92477
2863.91818	0.92082
2861.98961	0.91974
2860.06105	0.92144
2858.13248	0.92515
2856.20392	0.93014
2854.27536	0.93677
2852.34679	0.94426
2850.41823	0.94723
2848.48966	0.93880
2846.56110	0.91935
2844.63253	0.89724
2842.70397	0.87919
2840.77540	0.86628
2838.84684	0.85742
2836.91828	0.85163
2834.98971	0.84757
2833.06115	0.84385
2831.13258	0.84030
2829.20402	0.83695
2827.27545	0.83387
2825.34689	0.83160
2823.41832	0.82970
2821.48976	0.82758
2819.56120	0.82485
2817.63263	0.82084
2815.70407	0.81632
2813.77550	0.81286
2811.84694	0.81040
2809.91837	0.80770
2807.98981	0.80442
2806.06124	0.80132
2804.13268	0.79849
2802.20412	0.79535
2800.27555	0.79245
2798.34699	0.79087
2796.41842	0.79020
2794.48986	0.78906
2792.56129	0.78691
2790.63273	0.78410
2788.70416	0.78138
2786.77560	0.77957
2784.84704	0.77872
2782.91847	0.77806
2780.98991	0.77665
2779.06134	0.77470
2777.13278	0.77307
2775.20421	0.77149
2773.27565	0.76930
2771.34708	0.76670
2769.41852	0.76433
2767.48996	0.76276
2765.56139	0.76163
2763.63283	0.76005
2761.70426	0.75780
2759.77570	0.75548
2757.84713	0.75380
2755.91857	0.75287
2753.99001	0.75217
2752.06144	0.75129
2750.13288	0.75034
2748.20431	0.74949
2746.27575	0.74883
2744.34718	0.74837
2742.41862	0.74761
2740.49005	0.74603
2738.56149	0.74401
2736.63293	0.74234
2734.70436	0.74131
2732.77580	0.74027
2730.84723	0.73863
2728.91867	0.73678
2726.99010	0.73501
2725.06154	0.73315
2723.13297	0.73142
2721.20441	0.73001
2719.27585	0.72881
2717.34728	0.72791
2715.41872	0.72741
2713.49015	0.72673
2711.56159	0.72527
2709.63302	0.72356
2707.70446	0.72256
2705.77589	0.72216
2703.84733	0.72142
2701.91877	0.72012
2699.99020	0.71883
2698.06164	0.71750
2696.13307	0.71599
2694.20451	0.71465
2692.27594	0.71336
2690.34738	0.71182
2688.41881	0.71026
2686.49025	0.70885
2684.56169	0.70711
2682.63312	0.70492
2680.70456	0.70327
2678.77599	0.70249
2676.84743	0.70146
2674.91886	0.69976
2672.99030	0.69829
2671.06173	0.69743
2669.13317	0.69664
2667.20461	0.69552
2665.27604	0.69413
2663.34748	0.69268
2661.41891	0.69141
2659.49035	0.69067
2657.56178	0.69027
2655.63322	0.68961
2653.70465	0.68876
2651.77609	0.68774
2649.84753	0.68628
2647.91896	0.68479
2645.99040	0.68362
2644.06183	0.68250
2642.13327	0.68116
2640.20470	0.67984
2638.27614	0.67873
2636.34757	0.67758
2634.41901	0.67644
2632.49045	0.67559
2630.56188	0.67484
2628.63332	0.67387
2626.70475	0.67287
2624.77619	0.67236
2622.84762	0.67220
2620.91906	0.67193
2618.99049	0.67175
2617.06193	0.67169
2615.13337	0.67123
2613.20480	0.67051
2611.27624	0.67010
2609.34767	0.66976
2607.41911	0.66880
2605.49054	0.66727
2603.56198	0.66558
2601.63342	0.66388
2599.70485	0.66253
2597.77629	0.66175
2595.84772	0.66090
2593.91916	0.65955
2591.99059	0.65809
2590.06203	0.65663
2588.13346	0.65502
2586.20490	0.65350
2584.27634	0.65245
2582.34777	0.65191
2580.41921	0.65148
2578.49064	0.65085
2576.56208	0.65035
2574.63351	0.65017
2572.70495	0.64981
2570.77638	0.64896
2568.84782	0.64798
2566.91926	0.64696
2564.99069	0.64584
2563.06213	0.64473
2561.13356	0.64351
2559.20500	0.64210
2557.27643	0.64036
2555.34787	0.63824
2553.41930	0.63606
2551.49074	0.63440
2549.56218	0.63364
2547.63361	0.63335
2545.70505	0.63267
2543.77648	0.63159
2541.84792	0.63067
2539.91935	0.63017
2537.99079	0.62990
2536.06222	0.62955
2534.13366	0.62884
2532.20510	0.62784
2530.27653	0.62683
2528.34797	0.62604
2526.41940	0.62530
2524.49084	0.62420
2522.56227	0.62284
2520.63371	0.62145
2518.70514	0.61997
2516.77658	0.61844
2514.84802	0.61720
2512.91945	0.61630
2510.99089	0.61548
2509.06232	0.61450
2507.13376	0.61322
2505.20519	0.61193
2503.27663	0.61097
2501.34806	0.61036
2499.41950	0.60992
2497.49094	0.60952
2495.56237	0.60913
2493.63381	0.60855
2491.70524	0.60764
2489.77668	0.60670
2487.84811	0.60587
2485.91955	0.60489
2483.99098	0.60368
2482.06242	0.60244
2480.13386	0.60133
2478.20529	0.60034
2476.27673	0.59935
2474.34816	0.59825
2472.41960	0.59707
2470.49103	0.59595
2468.56247	0.59486
2466.63391	0.59382
2464.70534	0.59314
2462.77678	0.59281
2460.84821	0.59237
2458.91965	0.59173
2456.99108	0.59117
2455.06252	0.59061
2453.13395	0.58967
2451.20539	0.58842
2449.27683	0.58726
2447.34826	0.58629
2445.41970	0.58545
2443.49113	0.58465
2441.56257	0.58368
2439.63400	0.58260
2437.70544	0.58151
2435.77687	0.58039
2433.84831	0.57954
2431.91975	0.57911
2429.99118	0.57869
2428.06262	0.57804
2426.13405	0.57728
2424.20549	0.57667
2422.27692	0.57625
2420.34836	0.57591
2418.41979	0.57544
2416.49123	0.57452
2414.56267	0.57314
2412.63410	0.57182
2410.70554	0.57103
2408.77697	0.57063
2406.84841	0.57013
2404.91984	0.56921
2402.99128	0.56787
2401.06271	0.56637
2399.13415	0.56495
2397.20559	0.56358
2395.27702	0.56234
2393.34846	0.56159
2391.41989	0.56109
2389.49133	0.56039
2387.56276	0.55953
2385.63420	0.55877
2383.70563	0.55822
2381.77707	0.55780
2379.84851	0.55754
2377.91994	0.55736
2375.99138	0.55713
2374.06281	0.55687
2372.13425	0.55664
2370.20568	0.55697
2368.27712	0.55757
2366.34855	0.55623
2364.41999	0.55317
2362.49143	0.55195
2360.56286	0.55307
2358.63430	0.55379
2356.70573	0.55300
2354.77717	0.55095
2352.84860	0.54895
2350.92004	0.54803
2348.99147	0.54747
2347.06291	0.54685
2345.13435	0.54663
2343.20578	0.54645
2341.27722	0.54511
2339.34865	0.54407
2337.42009	0.54416
2335.49152	0.54362
2333.56296	0.54252
2331.63440	0.54275
2329.70583	0.54381
2327.77727	0.54386
2325.84870	0.54306
2323.92014	0.54256
2321.99157	0.54280
2320.06301	0.54308
2318.13444	0.54308
2316.20588	0.54289
2314.27732	0.54209
2312.34875	0.54091
2310.42019	0.54027
2308.49162	0.54009
2306.56306	0.53964
2304.63449	0.53887
2302.70593	0.53825
2300.77736	0.53795
2298.84880	0.53764
2296.92024	0.53714
2294.99167	0.53648
2293.06311	0.53578
2291.13454	0.53532
2289.20598	0.53499
2287.27741	0.53428
2285.34885	0.53325
2283.42028	0.53231
2281.49172	0.53153
2279.56316	0.53085
2277.63459	0.53036
2275.70603	0.53002
2273.77746	0.52959
2271.84890	0.52911
2269.92033	0.52856
2267.99177	0.52799
2266.06320	0.52779
2264.13464	0.52805
2262.20608	0.52818
2260.27751	0.52798
2258.34895	0.52777
2256.42038	0.52746
2254.49182	0.52683
2252.56325	0.52628
2250.63469	0.52603
2248.70612	0.52561
2246.77756	0.52492
2244.84900	0.52440
2242.92043	0.52403
2240.99187	0.52349
2239.06330	0.52275
2237.13474	0.52213
2235.20617	0.52185
2233.27761	0.52172
2231.34904	0.52150
2229.42048	0.52123
2227.49192	0.52107
2225.56335	0.52107
2223.63479	0.52123
2221.70622	0.52136
2219.77766	0.52130
2217.84909	0.52106
2215.92053	0.52079
2213.99196	0.52058
2212.06340	0.52035
2210.13484	0.52007
2208.20627	0.51979
2206.27771	0.51929
2204.34914	0.51859
2202.42058	0.51815
2200.49201	0.51806
2198.56345	0.51798
2196.63488	0.51782
2194.70632	0.51766
2192.77776	0.51760
2190.84919	0.51770
2188.92063	0.51774
2186.99206	0.51759
2185.06350	0.51740
2183.13493	0.51721
2181.20637	0.51703
2179.27781	0.51692
2177.34924	0.51673
2175.42068	0.51632
2173.49211	0.51583
2171.56355	0.51541
2169.63498	0.51503
2167.70642	0.51449
2165.77785	0.51373
2163.84929	0.51297
2161.92073	0.51228
2159.99216	0.51154
2158.06360	0.51082
2156.13503	0.51046
2154.20647	0.51049
2152.27790	0.51053
2150.34934	0.51055
2148.42077	0.51069
2146.49221	0.51088
2144.56365	0.51093
2142.63508	0.51084
2140.70652	0.51078
2138.77795	0.51080
2136.84939	0.51049
2134.92082	0.50973
2132.99226	0.50888
2131.06369	0.50808
2129.13513	0.50736
2127.20657	0.50670
2125.27800	0.50601
2123.34944	0.50544
2121.42087	0.50492
2119.49231	0.50426
2117.56374	0.50371
2115.63518	0.50352
2113.70661	0.50341
2111.77805	0.50319
2109.84949	0.50302
2107.92092	0.50299
2105.99236	0.50304
2104.06379	0.50309
2102.13523	0.50314
2100.20666	0.50314
2098.27810	0.50283
2096.34953	0.50212
2094.42097	0.50131
2092.49241	0.50057
2090.56384	0.49982
2088.63528	0.49901
2086.70671	0.49800
2084.77815	0.49672
2082.84958	0.49549
2080.92102	0.49463
2078.99245	0.49416
2077.06389	0.49383
2075.13533	0.49359
2073.20676	0.49357
2071.27820	0.49359
2069.34963	0.49348
2067.42107	0.49342
2065.49250	0.49331
2063.56394	0.49310
2061.63537	0.49290
2059.70681	0.49253
2057.77825	0.49184
2055.84968	0.49099
2053.92112	0.49001
2051.99255	0.48890
2050.06399	0.48769
2048.13542	0.48647
2046.20686	0.48539
2044.27830	0.48442
2042.34973	0.48355
2040.42117	0.48279
2038.49260	0.48204
2036.56404	0.48152
2034.63547	0.48146
2032.70691	0.48151
2030.77834	0.48145
2028.84978	0.48138
2026.92122	0.48129
2024.99265	0.48117
2023.06409	0.48109
2021.13552	0.48092
2019.20696	0.48051
2017.27839	0.47991
2015.34983	0.47925
2013.42126	0.47851
2011.49270	0.47761
2009.56414	0.47656
2007.63557	0.47543
2005.70701	0.47438
2003.77844	0.47334
2001.84988	0.47236
1999.92131	0.47165
1997.99275	0.47105
1996.06418	0.47032
1994.13562	0.46967
1992.20706	0.46941
1990.27849	0.46928
1988.34993	0.46900
1986.42136	0.46869
1984.49280	0.46849
1982.56423	0.46850
1980.63567	0.46857
1978.70710	0.46829
1976.77854	0.46750
1974.84998	0.46655
1972.92141	0.46579
1970.99285	0.46514
1969.06428	0.46443
1967.13572	0.46349
1965.20715	0.46226
1963.27859	0.46105
1961.35002	0.45998
1959.42146	0.45888
1957.49290	0.45784
1955.56433	0.45707
1953.63577	0.45644
1951.70720	0.45572
1949.77864	0.45496
1947.85007	0.45437
1945.92151	0.45400
1943.99294	0.45371
1942.06438	0.45334
1940.13582	0.45284
1938.20725	0.45221
1936.27869	0.45145
1934.35012	0.45061
1932.42156	0.44963
1930.49299	0.44847
1928.56443	0.44727
1926.63586	0.44620
1924.70730	0.44529
1922.77874	0.44456
1920.85017	0.44404
1918.92161	0.44370
1916.99304	0.44326
1915.06448	0.44250
1913.13591	0.44162
1911.20735	0.44096
1909.27878	0.44067
1907.35022	0.44056
1905.42166	0.44039
1903.49309	0.43995
1901.56453	0.43919
1899.63596	0.43837
1897.70740	0.43767
1895.77883	0.43696
1893.85027	0.43616
1891.92171	0.43534
1889.99314	0.43466
1888.06458	0.43390
1886.13601	0.43292
1884.20745	0.43195
1882.27888	0.43111
1880.35032	0.43034
1878.42175	0.42968
1876.49319	0.42921
1874.56463	0.42872
1872.63606	0.42811
1870.70750	0.42780
1868.77893	0.42794
1866.85037	0.42773
1864.92180	0.42698
1862.99324	0.42616
1861.06467	0.42541
1859.13611	0.42469
1857.20755	0.42382
1855.27898	0.42282
1853.35042	0.42195
1851.42185	0.42130
1849.49329	0.42084
1847.56472	0.42044
1845.63616	0.42017
1843.70759	0.41979
1841.77903	0.41894
1839.85047	0.41803
1837.92190	0.41728
1835.99334	0.41647
1834.06477	0.41560
1832.13621	0.41494
1830.20764	0.41439
1828.27908	0.41351
1826.35051	0.41253
1824.42195	0.41171
1822.49339	0.41077
1820.56482	0.40975
1818.63626	0.40901
1816.70769	0.40840
1814.77913	0.40782
1812.85056	0.40747
1810.92200	0.40729
1808.99343	0.40686
1807.06487	0.40614
1805.13631	0.40553
1803.20774	0.40525
1801.27918	0.40525
1799.35061	0.40501
1797.42205	0.40429
1795.49348	0.40357
1793.56492	0.40322
1791.63635	0.40291
1789.70779	0.40195
1787.77923	0.40095
1785.85066	0.40029
1783.92210	0.39982
1781.99353	0.39961
1780.06497	0.39954
1778.13640	0.39932
1776.20784	0.39897
1774.27927	0.39899
1772.35071	0.39998
1770.42215	0.40104
1768.49358	0.40123
1766.56502	0.40103
1764.63645	0.40099
1762.70789	0.40157
1760.77932	0.40257
1758.85076	0.40349
1756.92220	0.40516
1754.99363	0.40714
1753.06507	0.40898
1751.13650	0.41239
1749.20794	0.41785
1747.27937	0.42294
1745.35081	0.42713
1743.42224	0.43101
1741.49368	0.43491
1739.56512	0.43885
1737.63655	0.44165
1735.70799	0.44381
1733.77942	0.44801
1731.85086	0.45172
1729.92229	0.45371
1727.99373	0.45580
1726.06516	0.45831
1724.13660	0.46191
1722.20804	0.46572
1720.27947	0.46914
1718.35091	0.47489
1716.42234	0.48537
1714.49378	0.49359
1712.56521	0.49935
1710.63665	0.50627
1708.70808	0.51546
1706.77952	0.53032
1704.85096	0.55079
1702.92239	0.56952
1700.99383	0.59709
1699.06526	0.64331
1697.13670	0.68882
1695.20813	0.73266
1693.27957	0.76450
1691.35100	0.79141
1689.42244	0.82645
1687.49388	0.86051
1685.56531	0.89671
1683.63675	0.95837
1681.70818	1.00545
1679.77962	1.03331
1677.85105	1.06131
1675.92249	1.09730
1673.99392	1.13774
1672.06536	1.16890
1670.13680	1.20243
1668.20823	1.23917
1666.27967	1.26021
1664.35110	1.27886
1662.42254	1.30670
1660.49397	1.33195
1658.56541	1.34701
1656.63684	1.35719
1654.70828	1.36748
1652.77972	1.37578
1650.85115	1.37782
1648.92259	1.38061
1646.99402	1.38454
1645.06546	1.38551
1643.13689	1.38312
1641.20833	1.38112
1639.27976	1.37936
1637.35120	1.37731
1635.42264	1.37399
1633.49407	1.36958
1631.56551	1.36565
1629.63694	1.35999
1627.70838	1.35113
1625.77981	1.33849
1623.85125	1.31829
1621.92269	1.29166
1619.99412	1.26901
1618.06556	1.24201
1616.13699	1.19891
1614.20843	1.16189
1612.27986	1.13312
1610.35130	1.10289
1608.42273	1.07235
1606.49417	1.04705
1604.56561	1.02736
1602.63704	1.01039
1600.70848	0.99638
1598.77991	0.98617
1596.85135	0.97871
1594.92278	0.97242
1592.99422	0.96737
1591.06565	0.96490
1589.13709	0.96567
1587.20853	0.96989
1585.27996	0.97716
1583.35140	0.98711
1581.42283	0.99857
1579.49427	1.00996
1577.56570	1.02519
1575.63714	1.04906
1573.70857	1.06627
1571.78001	1.07782
1569.85145	1.09671
1567.92288	1.11905
1565.99432	1.13592
1564.06575	1.15152
1562.13719	1.16342
1560.20862	1.17547
1558.28006	1.20512
1556.35149	1.22340
1554.42293	1.22882
1552.49437	1.23085
1550.56580	1.23098
1548.63724	1.22981
1546.70867	1.22813
1544.78011	1.22658
1542.85154	1.22554
1540.92298	1.22000
1538.99441	1.20555
1537.06585	1.19810
1535.13729	1.19355
1533.20872	1.18704
1531.28016	1.17932
1529.35159	1.17269
1527.42303	1.16600
1525.49446	1.15982
1523.56590	1.15648
1521.63733	1.15464
1519.70877	1.15321
1517.78021	1.14784
1515.85164	1.13480
1513.92308	1.11767
1511.99451	1.09929
1510.06595	1.08101
1508.13738	1.05305
1506.20882	1.00457
1504.28025	0.97926
1502.35169	0.96369
1500.42313	0.94562
1498.49456	0.92230
1496.56600	0.89539
1494.63743	0.87563
1492.70887	0.86262
1490.78030	0.84760
1488.85174	0.82780
1486.92317	0.81304
1484.99461	0.80396
1483.06605	0.79747
1481.13748	0.79310
1479.20892	0.79167
1477.28035	0.79394
1475.35179	0.80050
1473.42322	0.81350
1471.49466	0.82908
1469.56610	0.83822
1467.63753	0.84444
1465.70897	0.85244
1463.78040	0.86121
1461.85184	0.86636
1459.92327	0.86989
1457.99471	0.87768
1456.06614	0.88776
1454.13758	0.89011
1452.20902	0.88973
1450.28045	0.88879
1448.35189	0.88694
1446.42332	0.88375
1444.49476	0.87956
1442.56619	0.87484
1440.63763	0.87017
1438.70906	0.86481
1436.78050	0.85590
1434.85194	0.84515
1432.92337	0.83633
1430.99481	0.82757
1429.06624	0.81863
1427.13768	0.81178
1425.20911	0.80717
1423.28055	0.80438
1421.35198	0.80356
1419.42342	0.80519
1417.49486	0.80755
1415.56629	0.80780
1413.63773	0.80710
1411.70916	0.80616
1409.78060	0.80509
1407.85203	0.80459
1405.92347	0.80564
1403.99490	0.80798
1402.06634	0.81020
1400.13778	0.81252
1398.20921	0.81508
1396.28065	0.81724
1394.35208	0.81945
1392.42352	0.82223
1390.49495	0.82609
1388.56639	0.83326
1386.63782	0.84546
1384.70926	0.85899
1382.78070	0.87097
1380.85213	0.88026
1378.92357	0.88465
1376.99500	0.88313
1375.06644	0.87437
1373.13787	0.85928
1371.20931	0.84338
1369.28074	0.82625
1367.35218	0.80753
1365.42362	0.79079
1363.49505	0.77540
1361.56649	0.76147
1359.63792	0.75201
1357.70936	0.74602
1355.78079	0.74189
1353.85223	0.73900
1351.92366	0.73682
1349.99510	0.73549
1348.06654	0.73521
1346.13797	0.73545
1344.20941	0.73575
1342.28084	0.73616
1340.35228	0.73731
1338.42371	0.73954
1336.49515	0.74264
1334.56659	0.74708
1332.63802	0.75322
1330.70946	0.76036
1328.78089	0.76680
1326.85233	0.77138
1324.92376	0.77430
1322.99520	0.77618
1321.06663	0.77784
1319.13807	0.77994
1317.20951	0.78213
1315.28094	0.78369
1313.35238	0.78472
1311.42381	0.78514
1309.49525	0.78458
1307.56668	0.78316
1305.63812	0.78126
1303.70955	0.77918
1301.78099	0.77689
1299.85243	0.77399
1297.92386	0.77010
1295.99530	0.76563
1294.06673	0.76193
1292.13817	0.75975
1290.20960	0.75890
1288.28104	0.75902
1286.35247	0.75962
1284.42391	0.75999
1282.49535	0.76003
1280.56678	0.76030
1278.63822	0.76137
1276.70965	0.76351
1274.78109	0.76672
1272.85252	0.77115
1270.92396	0.77679
1268.99539	0.78303
1267.06683	0.78918
1265.13827	0.79455
1263.20970	0.79863
1261.28114	0.80145
1259.35257	0.80338
1257.42401	0.80498
1255.49544	0.80681
1253.56688	0.80887
1251.63831	0.81072
1249.70975	0.81213
1247.78119	0.81330
1245.85262	0.81451
1243.92406	0.81541
1241.99549	0.81544
1240.06693	0.81464
1238.13836	0.81317
1236.20980	0.81053
1234.28123	0.80617
1232.35267	0.80057
1230.42411	0.79450
1228.49554	0.78789
1226.56698	0.78029
1224.63841	0.77172
1222.70985	0.76264
1220.78128	0.75383
1218.85272	0.74606
1216.92415	0.73949
1214.99559	0.73457
1213.06703	0.73221
1211.13846	0.73229
1209.20990	0.73352
1207.28133	0.73451
1205.35277	0.73359
1203.42420	0.72915
1201.49564	0.72162
1199.56708	0.71292
1197.63851	0.70421
1195.70995	0.69593
1193.78138	0.68878
1191.85282	0.68325
1189.92425	0.67905
1187.99569	0.67607
1186.06712	0.67470
1184.13856	0.67500
1182.21000	0.67653
1180.28143	0.67912
1178.35287	0.68316
1176.42430	0.68870
1174.49574	0.69505
1172.56717	0.70173
1170.63861	0.70935
1168.71004	0.71911
1166.78148	0.73187
1164.85292	0.74748
1162.92435	0.76421
1160.99579	0.77880
1159.06722	0.78782
1157.13866	0.78963
1155.21009	0.78438
1153.28153	0.77287
1151.35296	0.75715
1149.42440	0.74002
1147.49584	0.72347
1145.56727	0.70907
1143.63871	0.69830
1141.71014	0.69177
1139.78158	0.68911
1137.85301	0.68926
1135.92445	0.69149
1133.99588	0.69605
1132.06732	0.70359
1130.13876	0.71447
1128.21019	0.72787
1126.28163	0.74186
1124.35306	0.75486
1122.42450	0.76643
1120.49593	0.77651
1118.56737	0.78453
1116.63880	0.78951
1114.71024	0.79075
1112.78168	0.78808
1110.85311	0.78231
1108.92455	0.77536
1106.99598	0.76887
1105.06742	0.76307
1103.13885	0.75810
1101.21029	0.75521
1099.28172	0.75526
1097.35316	0.75831
1095.42460	0.76468
1093.49603	0.77425
1091.56747	0.78593
1089.63890	0.79891
1087.71034	0.81376
1085.78177	0.83155
1083.85321	0.85154
1081.92464	0.87093
1079.99608	0.88702
1078.06752	0.89784
1076.13895	0.90214
1074.21039	0.90026
1072.28182	0.89350
1070.35326	0.88309
1068.42469	0.87056
1066.49613	0.85740
1064.56756	0.84418
1062.63900	0.83145
1060.71044	0.81961
1058.78187	0.80797
1056.85331	0.79642
1054.92474	0.78635
1052.99618	0.77842
1051.06761	0.77243
1049.13905	0.76887
1047.21049	0.76846
1045.28192	0.77134
1043.35336	0.77752
1041.42479	0.78630
1039.49623	0.79553
1037.56766	0.80315
1035.63910	0.80860
1033.71053	0.81218
1031.78197	0.81396
1029.85341	0.81355
1027.92484	0.81059
1025.99628	0.80528
1024.06771	0.79821
1022.13915	0.79089
1020.21058	0.78536
1018.28202	0.78139
1016.35345	0.77642
1014.42489	0.76841
1012.49633	0.75680
1010.56776	0.74192
1008.63920	0.72466
1006.71063	0.70665
1004.78207	0.68982
1002.85350	0.67498
1000.92494	0.66196
998.99637	0.65097
997.06781	0.64237
995.13925	0.63554
993.21068	0.62924
991.28212	0.62282
989.35355	0.61637
987.42499	0.61034
985.49642	0.60530
983.56786	0.60189
981.63929	0.60058
979.71073	0.60123
977.78217	0.60254
975.85360	0.60281
973.92504	0.60108
971.99647	0.59720
970.06791	0.59165
968.13934	0.58539
966.21078	0.57967
964.28221	0.57573
962.35365	0.57473
960.42509	0.57804
958.49652	0.58592
956.56796	0.59484
954.63939	0.59956
952.71083	0.59838
950.78226	0.59321
948.85370	0.58654
946.92513	0.58022
944.99657	0.57515
943.06801	0.57157
941.13944	0.56932
939.21088	0.56790
937.28231	0.56663
935.35375	0.56526
933.42518	0.56417
931.49662	0.56357
929.56805	0.56349
927.63949	0.56396
925.71093	0.56491
923.78236	0.56640
921.85380	0.56829
919.92523	0.57003
917.99667	0.57128
916.06810	0.57224
914.13954	0.57320
912.21098	0.57450
910.28241	0.57639
908.35385	0.57897
906.42528	0.58217
904.49672	0.58538
902.56815	0.58803
900.63959	0.59000
898.71102	0.59109
896.78246	0.59102
894.85390	0.58989
892.92533	0.58822
890.99677	0.58643
889.06820	0.58454
887.13964	0.58272
885.21107	0.58160
883.28251	0.58147
881.35394	0.58184
879.42538	0.58227
877.49682	0.58314
875.56825	0.58470
873.63969	0.58629
871.71112	0.58749
869.78256	0.58868
867.85399	0.58989
865.92543	0.59077
863.99686	0.59118
862.06830	0.59154
860.13974	0.59241
858.21117	0.59374
856.28261	0.59519
854.35404	0.59665
852.42548	0.59817
850.49691	0.59971
848.56835	0.60129
846.63978	0.60317
844.71122	0.60568
842.78266	0.60873
840.85409	0.61197
838.92553	0.61538
836.99696	0.61912
835.06840	0.62303
833.13983	0.62662
831.21127	0.62969
829.28270	0.63250
827.35414	0.63479
825.42558	0.63579
823.49701	0.63564
821.56845	0.63524
819.63988	0.63483
817.71132	0.63443
815.78275	0.63456
813.85419	0.63500
811.92562	0.63517
809.99706	0.63533
808.06850	0.63595
806.13993	0.63708
804.21137	0.63869
802.28280	0.64076
800.35424	0.64309
798.42567	0.64567
796.49711	0.64869
794.56854	0.65193
792.63998	0.65540
790.71142	0.65906
788.78285	0.66208
786.85429	0.66440
784.92572	0.66673
782.99716	0.66868
781.06859	0.66990
779.14003	0.67119
777.21147	0.67248
775.28290	0.67305
773.35434	0.67329
771.42577	0.67380
769.49721	0.67468
767.56864	0.67617
765.64008	0.67820
763.71151	0.68046
761.78295	0.68323
759.85439	0.68657
757.92582	0.69004
755.99726	0.69339
754.06869	0.69660
752.14013	0.69985
750.21156	0.70294
748.28300	0.70517
746.35443	0.70647
744.42587	0.70715
742.49731	0.70701
740.56874	0.70608
738.64018	0.70483
736.71161	0.70373
734.78305	0.70293
732.85448	0.70233
730.92592	0.70216
728.99735	0.70276
727.06879	0.70407
725.14023	0.70608
723.21166	0.70892
721.28310	0.71247
719.35453	0.71606
717.42597	0.71940
715.49740	0.72262
713.56884	0.72543
711.64027	0.72804
709.71171	0.73100
707.78315	0.73415
705.85458	0.73681
703.92602	0.73801
701.99745	0.73761
700.06889	0.73682
698.14032	0.73624
696.21176	0.73543
694.28319	0.73421
692.35463	0.73286
690.42607	0.73205
688.49750	0.73255
686.56894	0.73387
684.64037	0.73448
682.71181	0.73382
680.78324	0.73306
678.85468	0.73366
676.92611	0.73537
674.99755	0.73705
673.06899	0.73851
671.14042	0.73988
669.21186	0.74091
667.28329	0.74131
665.35473	0.74133
663.42616	0.74070
661.49760	0.73919
659.56903	0.73745
657.64047	0.73571
655.71191	0.73347
653.78334	0.73163
651.85478	0.73126
649.92621	0.73072
647.99765	0.72898
646.06908	0.72797
644.14052	0.72897
642.21195	0.73204
640.28339	0.73673
638.35483	0.74110
636.42626	0.74381
634.49770	0.74549
632.56913	0.74686
630.64057	0.74859
628.71200	0.75046
626.78344	0.75140
624.85488	0.75201
622.92631	0.75258
620.99775	0.75207
619.06918	0.75084
617.14062	0.74921
615.21205	0.74726
613.28349	0.74590
611.35492	0.74492
609.42636	0.74341
607.49780	0.74156
605.56923	0.74040
603.64067	0.74111
601.71210	0.74375
599.78354	0.74698
