3997.91406	0.80366
3995.98550	0.80465
3994.05693	0.80346
3992.12837	0.80035
3990.19980	0.79694
3988.27124	0.79565
3986.34268	0.79670
3984.41411	0.79760
3982.48555	0.79673
3980.55698	0.79423
3978.62842	0.79208
3976.69985	0.79206
3974.77129	0.79241
3972.84272	0.79143
3970.91416	0.79022
3968.98560	0.78874
3967.05703	0.78678
3965.12847	0.78565
3963.19990	0.78529
3961.27134	0.78399
3959.34277	0.78215
3957.41421	0.78241
3955.48564	0.78486
3953.55708	0.78602
3951.62852	0.78378
3949.69995	0.77928
3947.77139	0.77590
3945.84282	0.77644
3943.91426	0.77868
3941.98569	0.77824
3940.05713	0.77542
3938.12856	0.77307
3936.20000	0.77267
3934.27144	0.77397
3932.34287	0.77534
3930.41431	0.77574
3928.48574	0.77510
3926.55718	0.77420
3924.62861	0.77396
3922.70005	0.77437
3920.77148	0.77399
3918.84292	0.77162
3916.91436	0.76958
3914.98579	0.77019
3913.05723	0.76986
3911.12866	0.76606
3909.20010	0.76326
3907.27153	0.76537
3905.34297	0.76732
3903.41440	0.76252
3901.48584	0.75765
3899.55728	0.75757
3897.62871	0.75852
3895.70015	0.75878
3893.77158	0.75819
3891.84302	0.75638
3889.91445	0.75594
3887.98589	0.75855
3886.05733	0.76144
3884.12876	0.76040
3882.20020	0.75618
3880.27163	0.75244
3878.34307	0.75199
3876.41450	0.75264
3874.48594	0.75171
3872.55737	0.74908
3870.62881	0.74542
3868.70025	0.74323
3866.77168	0.74303
3864.84312	0.74143
3862.91455	0.73981
3860.98599	0.74151
3859.05742	0.74461
3857.12886	0.74687
3855.20029	0.74570
3853.27173	0.73992
3851.34317	0.73887
3849.41460	0.74019
3847.48604	0.74027
3845.55747	0.74033
3843.62891	0.74100
3841.70034	0.74054
3839.77178	0.73869
3837.84321	0.73725
3835.91465	0.73695
3833.98609	0.73848
3832.05752	0.74084
3830.12896	0.74113
3828.20039	0.74002
3826.27183	0.73957
3824.34326	0.73952
3822.41470	0.73917
3820.48613	0.73748
3818.55757	0.73464
3816.62901	0.73121
3814.70044	0.72776
3812.77188	0.72608
3810.84331	0.72635
3808.91475	0.72813
3806.98618	0.73015
3805.05762	0.73072
3803.12905	0.72951
3801.20049	0.72619
3799.27193	0.72292
3797.34336	0.72190
3795.41480	0.72357
3793.48623	0.72517
3791.55767	0.72463
3789.62910	0.72327
3787.70054	0.72339
3785.77197	0.72504
3783.84341	0.72633
3781.91485	0.72640
3779.98628	0.72459
3778.05772	0.72151
3776.12915	0.72002
3774.20059	0.72030
3772.27202	0.72103
3770.34346	0.72202
3768.41489	0.72324
3766.48633	0.72227
3764.55777	0.72040
3762.62920	0.72128
3760.70064	0.72221
3758.77207	0.71898
3756.84351	0.71602
3754.91494	0.71697
3752.98638	0.71960
3751.05781	0.72104
3749.12925	0.71839
3747.20069	0.71351
3745.27212	0.70960
3743.34356	0.71119
3741.41499	0.71551
3739.48643	0.71876
3737.55786	0.72004
3735.62930	0.71697
3733.70074	0.71134
3731.77217	0.70897
3729.84361	0.70848
3727.91504	0.70831
3725.98648	0.70834
3724.05791	0.70874
3722.12935	0.70908
3720.20078	0.70919
3718.27222	0.70998
3716.34366	0.71090
3714.41509	0.71031
3712.48653	0.70778
3710.55796	0.70708
3708.62940	0.70908
3706.70083	0.71006
3704.77227	0.70986
3702.84370	0.70961
3700.91514	0.71070
3698.98658	0.71221
3697.05801	0.71256
3695.12945	0.71148
3693.20088	0.71022
3691.27232	0.71166
3689.34375	0.71621
3687.41519	0.71860
3685.48662	0.71896
3683.55806	0.71878
3681.62950	0.71903
3679.70093	0.72127
3677.77237	0.72524
3675.84380	0.72904
3673.91524	0.73144
3671.98667	0.73274
3670.05811	0.73534
3668.12954	0.74019
3666.20098	0.74429
3664.27242	0.74735
3662.34385	0.75125
3660.41529	0.75777
3658.48672	0.76587
3656.55816	0.77397
3654.62959	0.78080
3652.70103	0.78642
3650.77246	0.79101
3648.84390	0.79280
3646.91534	0.79721
3644.98677	0.80388
3643.05821	0.81051
3641.12964	0.81826
3639.20108	0.82629
3637.27251	0.83217
3635.34395	0.83718
3633.41538	0.84335
3631.48682	0.84974
3629.55826	0.85892
3627.62969	0.87017
3625.70113	0.87598
3623.77256	0.87920
3621.84400	0.88320
3619.91543	0.89172
3617.98687	0.90275
3616.05830	0.90974
3614.12974	0.91555
3612.20118	0.92324
3610.27261	0.93115
3608.34405	0.93962
3606.41548	0.94842
3604.48692	0.95505
3602.55835	0.96100
3600.62979	0.96692
3598.70123	0.97054
3596.77266	0.97301
3594.84410	0.97853
3592.91553	0.98795
3590.98697	0.99760
3589.05840	1.00600
3587.12984	1.01424
3585.20127	1.02404
3583.27271	1.03416
3581.34415	1.04258
3579.41558	1.04947
3577.48702	1.05544
3575.55845	1.06041
3573.62989	1.06587
3571.70132	1.07321
3569.77276	1.08068
3567.84419	1.08668
3565.91563	1.09331
3563.98707	1.10303
3562.05850	1.11539
3560.12994	1.12633
3558.20137	1.13401
3556.27281	1.14250
3554.34424	1.15209
3552.41568	1.15887
3550.48711	1.16413
3548.55855	1.17393
3546.62999	1.18903
3544.70142	1.19968
3542.77286	1.19990
3540.84429	1.19918
3538.91573	1.20638
3536.98716	1.21909
3535.05860	1.22732
3533.13003	1.23059
3531.20147	1.23470
3529.27291	1.23984
3527.34434	1.24899
3525.41578	1.26480
3523.48721	1.27929
3521.55865	1.28644
3519.63008	1.29116
3517.70152	1.29901
3515.77295	1.31017
3513.84439	1.32153
3511.91583	1.32833
3509.98726	1.33251
3508.05870	1.34237
3506.13013	1.35687
3504.20157	1.37232
3502.27300	1.38638
3500.34444	1.39512
3498.41587	1.40230
3496.48731	1.41256
3494.55875	1.42111
3492.63018	1.42596
3490.70162	1.43274
3488.77305	1.44119
3486.84449	1.44892
3484.91592	1.45366
3482.98736	1.45315
3481.05879	1.45260
3479.13023	1.45594
3477.20167	1.46040
3475.27310	1.46205
3473.34454	1.46376
3471.41597	1.47402
3469.48741	1.48730
3467.55884	1.49133
3465.63028	1.49072
3463.70171	1.49621
3461.77315	1.50636
3459.84459	1.51227
3457.91602	1.51095
3455.98746	1.50751
3454.05889	1.50806
3452.13033	1.51568
3450.20176	1.52710
3448.27320	1.53449
3446.34464	1.53444
3444.41607	1.53010
3442.48751	1.52556
3440.55894	1.52713
3438.63038	1.53759
3436.70181	1.54546
3434.77325	1.54281
3432.84468	1.54154
3430.91612	1.54774
3428.98756	1.55109
3427.05899	1.54637
3425.13043	1.54260
3423.20186	1.54539
3421.27330	1.54755
3419.34473	1.54712
3417.41617	1.54827
3415.48760	1.54838
3413.55904	1.54671
3411.63048	1.54520
3409.70191	1.54372
3407.77335	1.53997
3405.84478	1.53361
3403.91622	1.53341
3401.98765	1.54028
3400.05909	1.54236
3398.13052	1.53946
3396.20196	1.53699
3394.27340	1.53584
3392.34483	1.53837
3390.41627	1.54202
3388.48770	1.54511
3386.55914	1.55015
3384.63057	1.55361
3382.70201	1.55133
3380.77344	1.54490
3378.84488	1.54029
3376.91632	1.54656
3374.98775	1.56239
3373.05919	1.57046
3371.13062	1.56448
3369.20206	1.55998
3367.27349	1.56259
3365.34493	1.56124
3363.41636	1.55611
3361.48780	1.55721
3359.55924	1.56043
3357.63067	1.55738
3355.70211	1.55587
3353.77354	1.56244
3351.84498	1.56649
3349.91641	1.56432
3347.98785	1.56643
3346.05928	1.57435
3344.13072	1.58194
3342.20216	1.58628
3340.27359	1.58447
3338.34503	1.57715
3336.41646	1.57159
3334.48790	1.56980
3332.55933	1.56890
3330.63077	1.57214
3328.70220	1.58020
3326.77364	1.58901
3324.84508	1.59899
3322.91651	1.60751
3320.98795	1.61007
3319.05938	1.61105
3317.13082	1.61581
3315.20225	1.62091
3313.27369	1.62063
3311.34513	1.61907
3309.41656	1.62249
3307.48800	1.62547
3305.55943	1.62533
3303.63087	1.63138
3301.70230	1.64316
3299.77374	1.64920
3297.84517	1.64725
3295.91661	1.64231
3293.98805	1.63842
3292.05948	1.63904
3290.13092	1.64291
3288.20235	1.64528
3286.27379	1.64491
3284.34522	1.64330
3282.41666	1.64567
3280.48809	1.65456
3278.55953	1.66091
3276.63097	1.65976
3274.70240	1.65482
3272.77384	1.64728
3270.84527	1.64400
3268.91671	1.64801
3266.98814	1.64633
3265.05958	1.63249
3263.13101	1.61532
3261.20245	1.60453
3259.27389	1.60384
3257.34532	1.60406
3255.41676	1.59491
3253.48819	1.58288
3251.55963	1.57540
3249.63106	1.56988
3247.70250	1.56190
3245.77393	1.54760
3243.84537	1.53055
3241.91681	1.52003
3239.98824	1.51430
3238.05968	1.50465
3236.13111	1.49378
3234.20255	1.48789
3232.27398	1.48339
3230.34542	1.47758
3228.41685	1.47260
3226.48829	1.46847
3224.55973	1.46297
3222.63116	1.45378
3220.70260	1.44399
3218.77403	1.44013
3216.84547	1.43973
3214.91690	1.43521
3212.98834	1.42770
3211.05977	1.42084
3209.13121	1.41345
3207.20265	1.40668
3205.27408	1.40079
3203.34552	1.39232
3201.41695	1.38475
3199.48839	1.38336
3197.55982	1.38267
3195.63126	1.37592
3193.70269	1.36538
3191.77413	1.35654
3189.84557	1.35222
3187.91700	1.35025
3185.98844	1.34706
3184.05987	1.34051
3182.13131	1.33054
3180.20274	1.32147
3178.27418	1.31677
3176.34562	1.31478
3174.41705	1.31222
3172.48849	1.30733
3170.55992	1.29999
3168.63136	1.28996
3166.70279	1.27899
3164.77423	1.27280
3162.84566	1.27231
3160.91710	1.27038
3158.98854	1.26269
3157.05997	1.25217
3155.13141	1.24408
3153.20284	1.24136
3151.27428	1.24196
3149.34571	1.24243
3147.41715	1.24041
3145.48858	1.23430
3143.56002	1.22688
3141.63146	1.22290
3139.70289	1.22244
3137.77433	1.22160
3135.84576	1.21870
3133.91720	1.21629
3131.98863	1.21568
3130.06007	1.21490
3128.13150	1.21348
3126.20294	1.21299
3124.27438	1.21399
3122.34581	1.21498
3120.41725	1.21438
3118.48868	1.21231
3116.56012	1.21080
3114.63155	1.21172
3112.70299	1.21350
3110.77442	1.21384
3108.84586	1.21396
3106.91730	1.21537
3104.98873	1.21637
3103.06017	1.21517
3101.13160	1.21257
3099.20304	1.20926
3097.27447	1.20554
3095.34591	1.20324
3093.41734	1.20322
3091.48878	1.20365
3089.56022	1.20235
3087.63165	1.19995
3085.70309	1.19884
3083.77452	1.19726
3081.84596	1.19230
3079.91739	1.18688
3077.98883	1.18337
3076.06026	1.17899
3074.13170	1.17293
3072.20314	1.16711
3070.27457	1.16264
3068.34601	1.15997
3066.41744	1.15735
3064.48888	1.15224
3062.56031	1.14622
3060.63175	1.14141
3058.70318	1.13569
3056.77462	1.12863
3054.84606	1.12370
3052.91749	1.12092
3050.98893	1.11754
3049.06036	1.11248
3047.13180	1.10626
3045.20323	1.10006
3043.27467	1.09409
3041.34610	1.08871
3039.41754	1.08454
3037.48898	1.08051
3035.56041	1.07572
3033.63185	1.07111
3031.70328	1.06741
3029.77472	1.06330
3027.84615	1.05770
3025.91759	1.05274
3023.98903	1.05031
3022.06046	1.04802
3020.13190	1.04402
3018.20333	1.04080
3016.27477	1.03928
3014.34620	1.03735
3012.41764	1.03420
3010.48907	1.03073
3008.56051	1.02847
3006.63195	1.02724
3004.70338	1.02530
3002.77482	1.02343
3000.84625	1.02332
2998.91769	1.02399
2996.98912	1.02458
2995.06056	1.02647
2993.13199	1.03026
2991.20343	1.03415
2989.27487	1.03717
2987.34630	1.04155
2985.41774	1.04881
2983.48917	1.05602
2981.56061	1.06090
2979.63204	1.06646
2977.70348	1.07528
2975.77491	1.08520
2973.84635	1.09434
2971.91779	1.10309
2969.98922	1.11061
2968.06066	1.11613
2966.13209	1.12108
2964.20353	1.12670
2962.27496	1.13118
2960.34640	1.13128
2958.41783	1.12691
2956.48927	1.12048
2954.56071	1.11342
2952.63214	1.10637
2950.70358	1.10021
2948.77501	1.09607
2946.84645	1.09527
2944.91788	1.09879
2942.98932	1.10605
2941.06075	1.11563
2939.13219	1.12702
2937.20363	1.13947
2935.27506	1.15177
2933.34650	1.16321
2931.41793	1.17288
2929.48937	1.18094
2927.56080	1.18901
2925.63224	1.19682
2923.70367	1.20215
2921.77511	1.20343
2919.84655	1.20024
2917.91798	1.19192
2915.98942	1.17663
2914.06085	1.15470
2912.13229	1.13010
2910.20372	1.10717
2908.27516	1.08864
2906.34659	1.07587
2904.41803	1.06853
2902.48947	1.06402
2900.56090	1.05944
2898.63234	1.05418
2896.70377	1.04952
2894.77521	1.04650
2892.84664	1.04302
2890.91808	1.03697
2888.98952	1.03073
2887.06095	1.02634
2885.13239	1.02321
2883.20382	1.02191
2881.27526	1.02274
2879.34669	1.02380
2877.41813	1.02351
2875.48956	1.02163
2873.56100	1.01849
2871.63244	1.01327
2869.70387	1.00459
2867.77531	0.99452
2865.84674	0.98630
2863.91818	0.98066
2861.98961	0.97883
2860.06105	0.98239
2858.13248	0.98969
2856.20392	0.99734
2854.27536	1.00447
2852.34679	1.01138
2850.41823	1.01287
2848.48966	1.00048
2846.56110	0.97500
2844.63253	0.94695
2842.70397	0.92396
2840.77540	0.90721
2838.84684	0.89572
2836.91828	0.88755
2834.98971	0.88082
2833.06115	0.87519
2831.13258	0.87028
2829.20402	0.86548
2827.27545	0.86107
2825.34689	0.85705
2823.41832	0.85303
2821.48976	0.84936
2819.56120	0.84647
2817.63263	0.84391
2815.70407	0.84104
2813.77550	0.83738
2811.84694	0.83318
2809.91837	0.82973
2807.98981	0.82715
2806.06124	0.82420
2804.13268	0.82097
2802.20412	0.81789
2800.27555	0.81431
2798.34699	0.81059
2796.41842	0.80750
2794.48986	0.80449
2792.56129	0.80144
2790.63273	0.79863
2788.70416	0.79567
2786.77560	0.79277
2784.84704	0.79061
2782.91847	0.78885
2780.98991	0.78683
2779.06134	0.78413
2777.13278	0.78085
2775.20421	0.77834
2773.27565	0.77689
2771.34708	0.77530
2769.41852	0.77371
2767.48996	0.77254
2765.56139	0.77118
2763.63283	0.76948
2761.70426	0.76760
2759.77570	0.76535
2757.84713	0.76279
2755.91857	0.76048
2753.99001	0.75875
2752.06144	0.75695
2750.13288	0.75450
2748.20431	0.75194
2746.27575	0.75026
2744.34718	0.74945
2742.41862	0.74858
2740.49005	0.74728
2738.56149	0.74577
2736.63293	0.74408
2734.70436	0.74259
2732.77580	0.74154
2730.84723	0.74027
2728.91867	0.73831
2726.99010	0.73624
2725.06154	0.73451
2723.13297	0.73300
2721.20441	0.73176
2719.27585	0.73055
2717.34728	0.72886
2715.41872	0.72686
2713.49015	0.72502
2711.56159	0.72360
2709.63302	0.72235
2707.70446	0.72093
2705.77589	0.71942
2703.84733	0.71786
2701.91877	0.71633
2699.99020	0.71491
2698.06164	0.71348
2696.13307	0.71209
2694.20451	0.71088
2692.27594	0.71002
2690.34738	0.70919
2688.41881	0.70781
2686.49025	0.70634
2684.56169	0.70566
2682.63312	0.70516
2680.70456	0.70367
2678.77599	0.70128
2676.84743	0.69922
2674.91886	0.69786
2672.99030	0.69646
2671.06173	0.69476
2669.13317	0.69341
2667.20461	0.69259
2665.27604	0.69172
2663.34748	0.69068
2661.41891	0.68974
2659.49035	0.68903
2657.56178	0.68835
2655.63322	0.68727
2653.70465	0.68578
2651.77609	0.68421
2649.84753	0.68298
2647.91896	0.68225
2645.99040	0.68145
2644.06183	0.68022
2642.13327	0.67910
2640.20470	0.67848
2638.27614	0.67792
2636.34757	0.67671
2634.41901	0.67488
2632.49045	0.67321
2630.56188	0.67192
2628.63332	0.67066
2626.70475	0.66955
2624.77619	0.66860
2622.84762	0.66760
2620.91906	0.66665
2618.99049	0.66570
2617.06193	0.66465
2615.13337	0.66355
2613.20480	0.66230
2611.27624	0.66091
2609.34767	0.65972
2607.41911	0.65895
2605.49054	0.65848
2603.56198	0.65803
2601.63342	0.65731
2599.70485	0.65648
2597.77629	0.65553
2595.84772	0.65413
2593.91916	0.65247
2591.99059	0.65110
2590.06203	0.65022
2588.13346	0.64961
2586.20490	0.64873
2584.27634	0.64719
2582.34777	0.64517
2580.41921	0.64323
2578.49064	0.64174
2576.56208	0.64053
2574.63351	0.63929
2572.70495	0.63802
2570.77638	0.63687
2568.84782	0.63580
2566.91926	0.63478
2564.99069	0.63358
2563.06213	0.63191
2561.13356	0.63019
2559.20500	0.62887
2557.27643	0.62765
2555.34787	0.62631
2553.41930	0.62510
2551.49074	0.62400
2549.56218	0.62273
2547.63361	0.62120
2545.70505	0.61964
2543.77648	0.61816
2541.84792	0.61692
2539.91935	0.61605
2537.99079	0.61527
2536.06222	0.61426
2534.13366	0.61302
2532.20510	0.61165
2530.27653	0.61042
2528.34797	0.60949
2526.41940	0.60863
2524.49084	0.60753
2522.56227	0.60648
2520.63371	0.60604
2518.70514	0.60593
2516.77658	0.60562
2514.84802	0.60535
2512.91945	0.60522
2510.99089	0.60482
2509.06232	0.60411
2507.13376	0.60337
2505.20519	0.60273
2503.27663	0.60197
2501.34806	0.60083
2499.41950	0.59948
2497.49094	0.59830
2495.56237	0.59708
2493.63381	0.59567
2491.70524	0.59440
2489.77668	0.59311
2487.84811	0.59134
2485.91955	0.58941
2483.99098	0.58798
2482.06242	0.58698
2480.13386	0.58587
2478.20529	0.58440
2476.27673	0.58282
2474.34816	0.58147
2472.41960	0.58043
2470.49103	0.57965
2468.56247	0.57896
2466.63391	0.57799
2464.70534	0.57682
2462.77678	0.57588
2460.84821	0.57511
2458.91965	0.57414
2456.99108	0.57294
2455.06252	0.57170
2453.13395	0.57066
2451.20539	0.56982
2449.27683	0.56889
2447.34826	0.56779
2445.41970	0.56664
2443.49113	0.56561
2441.56257	0.56476
2439.63400	0.56418
2437.70544	0.56370
2435.77687	0.56293
2433.84831	0.56212
2431.91975	0.56155
2429.99118	0.56100
2428.06262	0.56047
2426.13405	0.56020
2424.20549	0.55998
2422.27692	0.55963
2420.34836	0.55930
2418.41979	0.55893
2416.49123	0.55806
2414.56267	0.55669
2412.63410	0.55537
2410.70554	0.55444
2408.77697	0.55380
2406.84841	0.55304
2404.91984	0.55184
2402.99128	0.55047
2401.06271	0.54916
2399.13415	0.54764
2397.20559	0.54600
2395.27702	0.54469
2393.34846	0.54381
2391.41989	0.54314
2389.49133	0.54256
2387.56276	0.54203
2385.63420	0.54150
2383.70563	0.54110
2381.77707	0.54107
2379.84851	0.54124
2377.91994	0.54125
2375.99138	0.54097
2374.06281	0.54012
2372.13425	0.53849
2370.20568	0.53617
2368.27712	0.53387
2366.34855	0.53323
2364.41999	0.53344
2362.49143	0.53222
2360.56286	0.53092
2358.63430	0.52963
2356.70573	0.52796
2354.77717	0.52818
2352.84860	0.52961
2350.92004	0.52998
2348.99147	0.52911
2347.06291	0.52770
2345.13435	0.52700
2343.20578	0.52812
2341.27722	0.52853
2339.34865	0.52668
2337.42009	0.52502
2335.49152	0.52478
2333.56296	0.52562
2331.63440	0.52727
2329.70583	0.52779
2327.77727	0.52646
2325.84870	0.52510
2323.92014	0.52449
2321.99157	0.52424
2320.06301	0.52372
2318.13444	0.52275
2316.20588	0.52177
2314.27732	0.52086
2312.34875	0.51980
2310.42019	0.51866
2308.49162	0.51776
2306.56306	0.51725
2304.63449	0.51687
2302.70593	0.51638
2300.77736	0.51595
2298.84880	0.51589
2296.92024	0.51614
2294.99167	0.51632
2293.06311	0.51616
2291.13454	0.51577
2289.20598	0.51548
2287.27741	0.51530
2285.34885	0.51486
2283.42028	0.51407
2281.49172	0.51321
2279.56316	0.51254
2277.63459	0.51187
2275.70603	0.51101
2273.77746	0.51004
2271.84890	0.50904
2269.92033	0.50809
2267.99177	0.50727
2266.06320	0.50664
2264.13464	0.50619
2262.20608	0.50577
2260.27751	0.50549
2258.34895	0.50542
2256.42038	0.50510
2254.49182	0.50449
2252.56325	0.50432
2250.63469	0.50479
2248.70612	0.50519
2246.77756	0.50516
2244.84900	0.50491
2242.92043	0.50442
2240.99187	0.50370
2239.06330	0.50304
2237.13474	0.50247
2235.20617	0.50182
2233.27761	0.50104
2231.34904	0.50014
2229.42048	0.49925
2227.49192	0.49835
2225.56335	0.49740
2223.63479	0.49666
2221.70622	0.49620
2219.77766	0.49573
2217.84909	0.49523
2215.92053	0.49486
2213.99196	0.49468
2212.06340	0.49475
2210.13484	0.49501
2208.20627	0.49523
2206.27771	0.49525
2204.34914	0.49509
2202.42058	0.49482
2200.49201	0.49460
2198.56345	0.49455
2196.63488	0.49457
2194.70632	0.49433
2192.77776	0.49371
2190.84919	0.49294
2188.92063	0.49214
2186.99206	0.49142
2185.06350	0.49087
2183.13493	0.49040
2181.20637	0.48978
2179.27781	0.48910
2177.34924	0.48867
2175.42068	0.48853
2173.49211	0.48860
2171.56355	0.48885
2169.63498	0.48917
2167.70642	0.48941
2165.77785	0.48957
2163.84929	0.48975
2161.92073	0.48993
2159.99216	0.49001
2158.06360	0.48994
2156.13503	0.48974
2154.20647	0.48954
2152.27790	0.48938
2150.34934	0.48905
2148.42077	0.48848
2146.49221	0.48790
2144.56365	0.48741
2142.63508	0.48682
2140.70652	0.48592
2138.77795	0.48497
2136.84939	0.48429
2134.92082	0.48375
2132.99226	0.48321
2131.06369	0.48257
2129.13513	0.48179
2127.20657	0.48110
2125.27800	0.48075
2123.34944	0.48070
2121.42087	0.48075
2119.49231	0.48073
2117.56374	0.48067
2115.63518	0.48070
2113.70661	0.48068
2111.77805	0.48037
2109.84949	0.47990
2107.92092	0.47950
2105.99236	0.47919
2104.06379	0.47886
2102.13523	0.47849
2100.20666	0.47801
2098.27810	0.47731
2096.34953	0.47652
2094.42097	0.47579
2092.49241	0.47502
2090.56384	0.47427
2088.63528	0.47380
2086.70671	0.47359
2084.77815	0.47337
2082.84958	0.47309
2080.92102	0.47293
2078.99245	0.47295
2077.06389	0.47298
2075.13533	0.47299
2073.20676	0.47300
2071.27820	0.47286
2069.34963	0.47252
2067.42107	0.47217
2065.49250	0.47184
2063.56394	0.47125
2061.63537	0.47042
2059.70681	0.46968
2057.77825	0.46901
2055.84968	0.46831
2053.92112	0.46759
2051.99255	0.46670
2050.06399	0.46565
2048.13542	0.46480
2046.20686	0.46416
2044.27830	0.46343
2042.34973	0.46280
2040.42117	0.46256
2038.49260	0.46239
2036.56404	0.46205
2034.63547	0.46176
2032.70691	0.46153
2030.77834	0.46115
2028.84978	0.46072
2026.92122	0.46041
2024.99265	0.46015
2023.06409	0.45988
2021.13552	0.45957
2019.20696	0.45914
2017.27839	0.45858
2015.34983	0.45792
2013.42126	0.45713
2011.49270	0.45622
2009.56414	0.45529
2007.63557	0.45449
2005.70701	0.45374
2003.77844	0.45297
2001.84988	0.45239
1999.92131	0.45201
1997.99275	0.45166
1996.06418	0.45140
1994.13562	0.45118
1992.20706	0.45092
1990.27849	0.45063
1988.34993	0.45030
1986.42136	0.44993
1984.49280	0.44958
1982.56423	0.44931
1980.63567	0.44908
1978.70710	0.44882
1976.77854	0.44841
1974.84998	0.44782
1972.92141	0.44733
1970.99285	0.44700
1969.06428	0.44673
1967.13572	0.44644
1965.20715	0.44593
1963.27859	0.44535
1961.35002	0.44507
1959.42146	0.44514
1957.49290	0.44527
1955.56433	0.44533
1953.63577	0.44537
1951.70720	0.44546
1949.77864	0.44561
1947.85007	0.44579
1945.92151	0.44599
1943.99294	0.44607
1942.06438	0.44580
1940.13582	0.44538
1938.20725	0.44507
1936.27869	0.44465
1934.35012	0.44402
1932.42156	0.44326
1930.49299	0.44240
1928.56443	0.44145
1926.63586	0.44060
1924.70730	0.43993
1922.77874	0.43928
1920.85017	0.43874
1918.92161	0.43830
1916.99304	0.43770
1915.06448	0.43710
1913.13591	0.43676
1911.20735	0.43660
1909.27878	0.43638
1907.35022	0.43613
1905.42166	0.43611
1903.49309	0.43625
1901.56453	0.43620
1899.63596	0.43600
1897.70740	0.43587
1895.77883	0.43568
1893.85027	0.43532
1891.92171	0.43500
1889.99314	0.43464
1888.06458	0.43402
1886.13601	0.43343
1884.20745	0.43305
1882.27888	0.43268
1880.35032	0.43227
1878.42175	0.43195
1876.49319	0.43187
1874.56463	0.43201
1872.63606	0.43235
1870.70750	0.43293
1868.77893	0.43371
1866.85037	0.43418
1864.92180	0.43431
1862.99324	0.43451
1861.06467	0.43475
1859.13611	0.43502
1857.20755	0.43519
1855.27898	0.43519
1853.35042	0.43508
1851.42185	0.43506
1849.49329	0.43524
1847.56472	0.43541
1845.63616	0.43539
1843.70759	0.43523
1841.77903	0.43506
1839.85047	0.43507
1837.92190	0.43523
1835.99334	0.43525
1834.06477	0.43497
1832.13621	0.43484
1830.20764	0.43504
1828.27908	0.43511
1826.35051	0.43478
1824.42195	0.43445
1822.49339	0.43436
1820.56482	0.43427
1818.63626	0.43425
1816.70769	0.43434
1814.77913	0.43440
1812.85056	0.43434
1810.92200	0.43428
1808.99343	0.43437
1807.06487	0.43450
1805.13631	0.43456
1803.20774	0.43462
1801.27918	0.43491
1799.35061	0.43522
1797.42205	0.43528
1795.49348	0.43539
1793.56492	0.43571
1791.63635	0.43593
1789.70779	0.43579
1787.77923	0.43585
1785.85066	0.43629
1783.92210	0.43679
1781.99353	0.43716
1780.06497	0.43754
1778.13640	0.43799
1776.20784	0.43823
1774.27927	0.43839
1772.35071	0.43893
1770.42215	0.43976
1768.49358	0.44036
1766.56502	0.44091
1764.63645	0.44183
1762.70789	0.44335
1760.77932	0.44547
1758.85076	0.44779
1756.92220	0.45091
1754.99363	0.45448
1753.06507	0.45809
1751.13650	0.46337
1749.20794	0.47077
1747.27937	0.47792
1745.35081	0.48396
1743.42224	0.48934
1741.49368	0.49446
1739.56512	0.49937
1737.63655	0.50277
1735.70799	0.50505
1733.77942	0.50889
1731.85086	0.51273
1729.92229	0.51541
1727.99373	0.51826
1726.06516	0.52148
1724.13660	0.52585
1722.20804	0.53083
1720.27947	0.53589
1718.35091	0.54389
1716.42234	0.55734
1714.49378	0.56889
1712.56521	0.57837
1710.63665	0.58934
1708.70808	0.60295
1706.77952	0.62336
1704.85096	0.65071
1702.92239	0.67626
1700.99383	0.71377
1699.06526	0.77550
1697.13670	0.83487
1695.20813	0.89267
1693.27957	0.93600
1691.35100	0.97169
1689.42244	1.01692
1687.49388	1.06180
1685.56531	1.10883
1683.63675	1.18195
1681.70818	1.23667
1679.77962	1.26989
1677.85105	1.30207
1675.92249	1.33929
1673.99392	1.37720
1672.06536	1.40562
1670.13680	1.43512
1668.20823	1.46575
1666.27967	1.48212
1664.35110	1.49606
1662.42254	1.51447
1660.49397	1.52735
1658.56541	1.53236
1656.63684	1.53218
1654.70828	1.52972
1652.77972	1.53219
1650.85115	1.53819
1648.92259	1.53792
1646.99402	1.52980
1645.06546	1.52342
1643.13689	1.51985
1641.20833	1.51531
1639.27976	1.50874
1637.35120	1.49999
1635.42264	1.49088
1633.49407	1.48650
1631.56551	1.48282
1629.63694	1.47561
1627.70838	1.46655
1625.77981	1.45668
1623.85125	1.43960
1621.92269	1.41509
1619.99412	1.39404
1618.06556	1.36774
1616.13699	1.32420
1614.20843	1.28689
1612.27986	1.25761
1610.35130	1.22645
1608.42273	1.19468
1606.49417	1.16818
1604.56561	1.14791
1602.63704	1.13197
1600.70848	1.12120
1598.77991	1.11444
1596.85135	1.10909
1594.92278	1.10449
1592.99422	1.10167
1591.06565	1.10167
1589.13709	1.10490
1587.20853	1.11192
1585.27996	1.12257
1583.35140	1.13619
1581.42283	1.15153
1579.49427	1.16717
1577.56570	1.18752
1575.63714	1.21618
1573.70857	1.23586
1571.78001	1.24961
1569.85145	1.27060
1567.92288	1.29301
1565.99432	1.30877
1564.06575	1.32324
1562.13719	1.33437
1560.20862	1.34692
1558.28006	1.37430
1556.35149	1.38605
1554.42293	1.38834
1552.49437	1.38928
1550.56580	1.38720
1548.63724	1.38209
1546.70867	1.37689
1544.78011	1.37195
1542.85154	1.36722
1540.92298	1.35955
1538.99441	1.34241
1537.06585	1.33127
1535.13729	1.32273
1533.20872	1.31277
1531.28016	1.30379
1529.35159	1.29596
1527.42303	1.28612
1525.49446	1.27670
1523.56590	1.27184
1521.63733	1.26749
1519.70877	1.26287
1517.78021	1.25521
1515.85164	1.24177
1513.92308	1.22600
1511.99451	1.20826
1510.06595	1.18917
1508.13738	1.15730
1506.20882	1.10247
1504.28025	1.07581
1502.35169	1.05950
1500.42313	1.03928
1498.49456	1.01217
1496.56600	0.98042
1494.63743	0.95732
1492.70887	0.94290
1490.78030	0.92709
1488.85174	0.90613
1486.92317	0.89087
1484.99461	0.88266
1483.06605	0.87813
1481.13748	0.87631
1479.20892	0.87715
1477.28035	0.88180
1475.35179	0.89217
1473.42322	0.91202
1471.49466	0.93554
1469.56610	0.94937
1467.63753	0.95858
1465.70897	0.96911
1463.78040	0.97975
1461.85184	0.98611
1459.92327	0.99072
1457.99471	1.00055
1456.06614	1.01380
1454.13758	1.01784
1452.20902	1.01831
1450.28045	1.01822
1448.35189	1.01744
1446.42332	1.01518
1444.49476	1.01177
1442.56619	1.00771
1440.63763	1.00326
1438.70906	0.99762
1436.78050	0.98829
1434.85194	0.97702
1432.92337	0.96742
1430.99481	0.95780
1429.06624	0.94843
1427.13768	0.94166
1425.20911	0.93732
1423.28055	0.93516
1421.35198	0.93493
1419.42342	0.93606
1417.49486	0.93674
1415.56629	0.93554
1413.63773	0.93319
1411.70916	0.92971
1409.78060	0.92607
1407.85203	0.92391
1405.92347	0.92338
1403.99490	0.92355
1402.06634	0.92383
1400.13778	0.92479
1398.20921	0.92684
1396.28065	0.92982
1394.35208	0.93414
1392.42352	0.93946
1390.49495	0.94610
1388.56639	0.95773
1386.63782	0.97639
1384.70926	0.99542
1382.78070	1.01161
1380.85213	1.02477
1378.92357	1.03126
1376.99500	1.02865
1375.06644	1.01643
1373.13787	0.99715
1371.20931	0.97676
1369.28074	0.95413
1367.35218	0.92954
1365.42362	0.90764
1363.49505	0.88703
1361.56649	0.86762
1359.63792	0.85422
1357.70936	0.84615
1355.78079	0.84100
1353.85223	0.83757
1351.92366	0.83532
1349.99510	0.83428
1348.06654	0.83436
1346.13797	0.83515
1344.20941	0.83668
1342.28084	0.83907
1340.35228	0.84257
1338.42371	0.84715
1336.49515	0.85280
1334.56659	0.86022
1332.63802	0.86958
1330.70946	0.87980
1328.78089	0.88865
1326.85233	0.89468
1324.92376	0.89834
1322.99520	0.90099
1321.06663	0.90367
1319.13807	0.90676
1317.20951	0.91001
1315.28094	0.91282
1313.35238	0.91496
1311.42381	0.91634
1309.49525	0.91698
1307.56668	0.91700
1305.63812	0.91643
1303.70955	0.91523
1301.78099	0.91322
1299.85243	0.91006
1297.92386	0.90549
1295.99530	0.90017
1294.06673	0.89586
1292.13817	0.89371
1290.20960	0.89330
1288.28104	0.89365
1286.35247	0.89406
1284.42391	0.89413
1282.49535	0.89411
1280.56678	0.89451
1278.63822	0.89562
1276.70965	0.89781
1274.78109	0.90156
1272.85252	0.90744
1270.92396	0.91528
1268.99539	0.92405
1267.06683	0.93255
1265.13827	0.93929
1263.20970	0.94344
1261.28114	0.94552
1259.35257	0.94621
1257.42401	0.94603
1255.49544	0.94563
1253.56688	0.94531
1251.63831	0.94529
1249.70975	0.94554
1247.78119	0.94549
1245.85262	0.94493
1243.92406	0.94399
1241.99549	0.94264
1240.06693	0.94068
1238.13836	0.93780
1236.20980	0.93380
1234.28123	0.92862
1232.35267	0.92189
1230.42411	0.91353
1228.49554	0.90428
1226.56698	0.89477
1224.63841	0.88516
1222.70985	0.87536
1220.78128	0.86572
1218.85272	0.85719
1216.92415	0.85049
1214.99559	0.84624
1213.06703	0.84492
1211.13846	0.84627
1209.20990	0.84910
1207.28133	0.85133
1205.35277	0.85034
1203.42420	0.84445
1201.49564	0.83460
1199.56708	0.82301
1197.63851	0.81084
1195.70995	0.79876
1193.78138	0.78801
1191.85282	0.77985
1189.92425	0.77471
1187.99569	0.77217
1186.06712	0.77140
1184.13856	0.77185
1182.21000	0.77400
1180.28143	0.77876
1178.35287	0.78619
1176.42430	0.79556
1174.49574	0.80618
1172.56717	0.81795
1170.63861	0.83170
1168.71004	0.84884
1166.78148	0.87059
1164.85292	0.89653
1162.92435	0.92292
1160.99579	0.94438
1159.06722	0.95716
1157.13866	0.95981
1155.21009	0.95210
1153.28153	0.93520
1151.35296	0.91275
1149.42440	0.88878
1147.49584	0.86574
1145.56727	0.84549
1143.63871	0.82979
1141.71014	0.81984
1139.78158	0.81587
1137.85301	0.81692
1135.92445	0.82147
1133.99588	0.82934
1132.06732	0.84167
1130.13876	0.85901
1128.21019	0.88024
1126.28163	0.90270
1124.35306	0.92356
1122.42450	0.94187
1120.49593	0.95806
1118.56737	0.97154
1116.63880	0.98022
1114.71024	0.98243
1112.78168	0.97887
1110.85311	0.97216
1108.92455	0.96492
1106.99598	0.95886
1105.06742	0.95419
1103.13885	0.95008
1101.21029	0.94693
1099.28172	0.94747
1097.35316	0.95369
1095.42460	0.96480
1093.49603	0.97923
1091.56747	0.99619
1089.63890	1.01576
1087.71034	1.03854
1085.78177	1.06472
1083.85321	1.09352
1081.92464	1.12130
1079.99608	1.14253
1078.06752	1.15433
1076.13895	1.15676
1074.21039	1.15090
1072.28182	1.13859
1070.35326	1.12239
1068.42469	1.10501
1066.49613	1.08828
1064.56756	1.07207
1062.63900	1.05537
1060.71044	1.03833
1058.78187	1.02173
1056.85331	1.00636
1054.92474	0.99348
1052.99618	0.98372
1051.06761	0.97671
1049.13905	0.97291
1047.21049	0.97399
1045.28192	0.98109
1043.35336	0.99319
1041.42479	1.00750
1039.49623	1.02094
1037.56766	1.03125
1035.63910	1.03781
1033.71053	1.04164
1031.78197	1.04336
1029.85341	1.04205
1027.92484	1.03645
1025.99628	1.02640
1024.06771	1.01413
1022.13915	1.00265
1020.21058	0.99306
1018.28202	0.98483
1016.35345	0.97570
1014.42489	0.96243
1012.49633	0.94392
1010.56776	0.92092
1008.63920	0.89413
1006.71063	0.86574
1004.78207	0.83924
1002.85350	0.81644
1000.92494	0.79717
998.99637	0.78107
997.06781	0.76786
995.13925	0.75646
993.21068	0.74496
991.28212	0.73229
989.35355	0.71924
987.42499	0.70724
985.49642	0.69707
983.56786	0.68943
981.63929	0.68505
979.71073	0.68389
977.78217	0.68457
975.85360	0.68477
973.92504	0.68239
971.99647	0.67677
970.06791	0.66869
968.13934	0.65954
966.21078	0.65121
964.28221	0.64586
962.35365	0.64553
960.42509	0.65213
958.49652	0.66523
956.56796	0.67919
954.63939	0.68624
952.71083	0.68348
950.78226	0.67367
948.85370	0.66121
946.92513	0.64968
944.99657	0.64088
943.06801	0.63478
941.13944	0.63056
939.21088	0.62749
937.28231	0.62491
935.35375	0.62258
933.42518	0.62081
931.49662	0.61979
929.56805	0.61913
927.63949	0.61849
925.71093	0.61820
923.78236	0.61842
921.85380	0.61856
919.92523	0.61779
917.99667	0.61581
916.06810	0.61346
914.13954	0.61165
912.21098	0.61078
910.28241	0.61164
908.35385	0.61471
906.42528	0.61948
904.49672	0.62509
902.56815	0.63085
900.63959	0.63648
898.71102	0.64155
896.78246	0.64499
894.85390	0.64617
892.92533	0.64559
890.99677	0.64391
889.06820	0.64166
887.13964	0.63948
885.21107	0.63777
883.28251	0.63651
881.35394	0.63549
879.42538	0.63475
877.49682	0.63438
875.56825	0.63409
873.63969	0.63373
871.71112	0.63361
869.78256	0.63386
867.85399	0.63436
865.92543	0.63556
863.99686	0.63794
862.06830	0.64140
860.13974	0.64587
858.21117	0.65140
856.28261	0.65801
854.35404	0.66527
852.42548	0.67215
850.49691	0.67782
848.56835	0.68245
846.63978	0.68677
844.71122	0.69105
842.78266	0.69524
840.85409	0.69962
838.92553	0.70421
836.99696	0.70841
835.06840	0.71198
833.13983	0.71533
831.21127	0.71838
829.28270	0.72108
827.35414	0.72395
825.42558	0.72701
823.49701	0.73001
821.56845	0.73337
819.63988	0.73728
817.71132	0.74137
815.78275	0.74585
813.85419	0.75091
811.92562	0.75575
809.99706	0.75997
808.06850	0.76400
806.13993	0.76770
804.21137	0.77037
802.28280	0.77179
800.35424	0.77187
798.42567	0.77087
796.49711	0.76990
794.56854	0.76943
792.63998	0.76878
790.71142	0.76793
788.78285	0.76749
786.85429	0.76818
784.92572	0.77032
782.99716	0.77316
781.06859	0.77608
779.14003	0.77966
777.21147	0.78441
775.28290	0.78975
773.35434	0.79516
771.42577	0.80127
769.49721	0.80826
767.56864	0.81515
765.64008	0.82105
763.71151	0.82577
761.78295	0.82971
759.85439	0.83339
757.92582	0.83715
755.99726	0.84073
754.06869	0.84371
752.14013	0.84607
750.21156	0.84746
748.28300	0.84818
746.35443	0.84945
744.42587	0.85152
742.49731	0.85360
740.56874	0.85540
738.64018	0.85781
736.71161	0.86193
734.78305	0.86723
732.85448	0.87283
730.92592	0.87901
728.99735	0.88578
727.06879	0.89303
725.14023	0.90114
723.21166	0.90918
721.28310	0.91545
719.35453	0.91944
717.42597	0.92221
715.49740	0.92525
713.56884	0.92893
711.64027	0.93172
709.71171	0.93160
707.78315	0.92906
705.85458	0.92731
703.92602	0.92754
701.99745	0.92699
700.06889	0.92430
698.14032	0.92128
696.21176	0.91893
694.28319	0.91707
692.35463	0.91596
690.42607	0.91546
688.49750	0.91494
686.56894	0.91483
684.64037	0.91513
682.71181	0.91486
680.78324	0.91490
678.85468	0.91598
676.92611	0.91690
674.99755	0.91762
673.06899	0.91826
671.14042	0.91772
669.21186	0.91581
667.28329	0.91509
665.35473	0.91585
663.42616	0.91611
661.49760	0.91544
659.56903	0.91377
657.64047	0.91213
655.71191	0.91095
653.78334	0.90947
651.85478	0.90791
649.92621	0.90709
647.99765	0.90807
646.06908	0.91073
644.14052	0.91287
642.21195	0.91436
640.28339	0.91716
638.35483	0.92164
636.42626	0.92513
634.49770	0.92482
632.56913	0.92229
630.64057	0.92065
628.71200	0.92041
626.78344	0.92158
624.85488	0.92426
622.92631	0.92730
620.99775	0.92881
619.06918	0.92810
617.14062	0.92827
615.21205	0.93235
613.28349	0.93757
611.35492	0.94039
609.42636	0.94158
607.49780	0.94421
605.56923	0.94945
603.64067	0.95541
601.71210	0.95864
599.78354	0.95821
