3997.91406	0.71669
3995.98550	0.71337
3994.05693	0.71175
3992.12837	0.71188
3990.19980	0.71192
3988.27124	0.71200
3986.34268	0.71324
3984.41411	0.71460
3982.48555	0.71459
3980.55698	0.71347
3978.62842	0.71171
3976.69985	0.70929
3974.77129	0.70774
3972.84272	0.70803
3970.91416	0.70791
3968.98560	0.70628
3967.05703	0.70495
3965.12847	0.70478
3963.19990	0.70576
3961.27134	0.70774
3959.34277	0.70875
3957.41421	0.70808
3955.48564	0.70711
3953.55708	0.70562
3951.62852	0.70344
3949.69995	0.70155
3947.77139	0.70089
3945.84282	0.70141
3943.91426	0.70140
3941.98569	0.70067
3940.05713	0.69984
3938.12856	0.69867
3936.20000	0.69866
3934.27144	0.70011
3932.34287	0.70110
3930.41431	0.70128
3928.48574	0.70017
3926.55718	0.69768
3924.62861	0.69591
3922.70005	0.69525
3920.77148	0.69398
3918.84292	0.69178
3916.91436	0.68949
3914.98579	0.68896
3913.05723	0.69042
3911.12866	0.69241
3909.20010	0.69390
3907.27153	0.69435
3905.34297	0.69330
3903.41440	0.69087
3901.48584	0.68855
3899.55728	0.68714
3897.62871	0.68602
3895.70015	0.68500
3893.77158	0.68453
3891.84302	0.68471
3889.91445	0.68501
3887.98589	0.68555
3886.05733	0.68539
3884.12876	0.68274
3882.20020	0.67988
3880.27163	0.67919
3878.34307	0.67909
3876.41450	0.67770
3874.48594	0.67604
3872.55737	0.67571
3870.62881	0.67502
3868.70025	0.67283
3866.77168	0.67153
3864.84312	0.67273
3862.91455	0.67580
3860.98599	0.67649
3859.05742	0.67443
3857.12886	0.67159
3855.20029	0.66754
3853.27173	0.66430
3851.34317	0.66833
3849.41460	0.67153
3847.48604	0.67144
3845.55747	0.66933
3843.62891	0.66634
3841.70034	0.66450
3839.77178	0.66421
3837.84321	0.66457
3835.91465	0.66613
3833.98609	0.66720
3832.05752	0.66679
3830.12896	0.66590
3828.20039	0.66580
3826.27183	0.66676
3824.34326	0.66717
3822.41470	0.66640
3820.48613	0.66464
3818.55757	0.66189
3816.62901	0.66036
3814.70044	0.66171
3812.77188	0.66289
3810.84331	0.66252
3808.91475	0.66150
3806.98618	0.66085
3805.05762	0.66123
3803.12905	0.66139
3801.20049	0.65971
3799.27193	0.65810
3797.34336	0.65774
3795.41480	0.65774
3793.48623	0.65746
3791.55767	0.65674
3789.62910	0.65592
3787.70054	0.65574
3785.77197	0.65651
3783.84341	0.65691
3781.91485	0.65575
3779.98628	0.65353
3778.05772	0.65150
3776.12915	0.65086
3774.20059	0.65149
3772.27202	0.65198
3770.34346	0.65092
3768.41489	0.64911
3766.48633	0.64711
3764.55777	0.64510
3762.62920	0.64407
3760.70064	0.64414
3758.77207	0.64545
3756.84351	0.64689
3754.91494	0.64710
3752.98638	0.64618
3751.05781	0.64408
3749.12925	0.64098
3747.20069	0.63766
3745.27212	0.63622
3743.34356	0.63936
3741.41499	0.64302
3739.48643	0.64432
3737.55786	0.64148
3735.62930	0.63396
3733.70074	0.63060
3731.77217	0.63361
3729.84361	0.63675
3727.91504	0.63828
3725.98648	0.63829
3724.05791	0.63757
3722.12935	0.63696
3720.20078	0.63670
3718.27222	0.63689
3716.34366	0.63817
3714.41509	0.64076
3712.48653	0.64185
3710.55796	0.63771
3708.62940	0.63362
3706.70083	0.63231
3704.77227	0.63267
3702.84370	0.63371
3700.91514	0.63452
3698.98658	0.63540
3697.05801	0.63648
3695.12945	0.63722
3693.20088	0.63798
3691.27232	0.63946
3689.34375	0.64143
3687.41519	0.64281
3685.48662	0.64373
3683.55806	0.64453
3681.62950	0.64465
3679.70093	0.64440
3677.77237	0.64517
3675.84380	0.64848
3673.91524	0.65325
3671.98667	0.65734
3670.05811	0.66273
3668.12954	0.66720
3666.20098	0.66927
3664.27242	0.67106
3662.34385	0.67340
3660.41529	0.67614
3658.48672	0.67830
3656.55816	0.68074
3654.62959	0.68497
3652.70103	0.68923
3650.77246	0.69223
3648.84390	0.69614
3646.91534	0.70271
3644.98677	0.70727
3643.05821	0.71019
3641.12964	0.71337
3639.20108	0.71693
3637.27251	0.72065
3635.34395	0.72529
3633.41538	0.73052
3631.48682	0.73512
3629.55826	0.74041
3627.62969	0.74637
3625.70113	0.74954
3623.77256	0.75117
3621.84400	0.75279
3619.91543	0.75648
3617.98687	0.76383
3616.05830	0.77141
3614.12974	0.77650
3612.20118	0.78012
3610.27261	0.78438
3608.34405	0.79039
3606.41548	0.79732
3604.48692	0.80225
3602.55835	0.80523
3600.62979	0.80794
3598.70123	0.81129
3596.77266	0.81482
3594.84410	0.81863
3592.91553	0.82266
3590.98697	0.82547
3589.05840	0.82788
3587.12984	0.83258
3585.20127	0.83915
3583.27271	0.84598
3581.34415	0.85214
3579.41558	0.85691
3577.48702	0.86140
3575.55845	0.86628
3573.62989	0.87132
3571.70132	0.87577
3569.77276	0.87795
3567.84419	0.87958
3565.91563	0.88630
3563.98707	0.89457
3562.05850	0.90071
3560.12994	0.90561
3558.20137	0.90996
3556.27281	0.91313
3554.34424	0.91563
3552.41568	0.92030
3550.48711	0.92674
3548.55855	0.93228
3546.62999	0.93688
3544.70142	0.94176
3542.77286	0.94743
3540.84429	0.95259
3538.91573	0.95537
3536.98716	0.95615
3535.05860	0.95837
3533.13003	0.96332
3531.20147	0.96925
3529.27291	0.97464
3527.34434	0.97903
3525.41578	0.98435
3523.48721	0.99151
3521.55865	0.99720
3519.63008	1.00092
3517.70152	1.00513
3515.77295	1.00871
3513.84439	1.01179
3511.91583	1.01755
3509.98726	1.02468
3508.05870	1.02865
3506.13013	1.03071
3504.20157	1.03392
3502.27300	1.03749
3500.34444	1.04143
3498.41587	1.04699
3496.48731	1.05443
3494.55875	1.06258
3492.63018	1.06777
3490.70162	1.07088
3488.77305	1.07539
3486.84449	1.07811
3484.91592	1.07715
3482.98736	1.07868
3481.05879	1.08498
3479.13023	1.08931
3477.20167	1.08859
3475.27310	1.08631
3473.34454	1.08673
3471.41597	1.09156
3469.48741	1.09767
3467.55884	1.10059
3465.63028	1.10047
3463.70171	1.10057
3461.77315	1.10248
3459.84459	1.10520
3457.91602	1.10710
3455.98746	1.10846
3454.05889	1.11080
3452.13033	1.11352
3450.20176	1.11536
3448.27320	1.11805
3446.34464	1.12269
3444.41607	1.12612
3442.48751	1.12635
3440.55894	1.12463
3438.63038	1.12186
3436.70181	1.11928
3434.77325	1.11981
3432.84468	1.12384
3430.91612	1.12754
3428.98756	1.12785
3427.05899	1.12583
3425.13043	1.12441
3423.20186	1.12492
3421.27330	1.12642
3419.34473	1.12750
3417.41617	1.12778
3415.48760	1.12835
3413.55904	1.12949
3411.63048	1.13012
3409.70191	1.13026
3407.77335	1.13033
3405.84478	1.13039
3403.91622	1.12987
3401.98765	1.12847
3400.05909	1.12805
3398.13052	1.12949
3396.20196	1.13173
3394.27340	1.13380
3392.34483	1.13580
3390.41627	1.13933
3388.48770	1.14215
3386.55914	1.13963
3384.63057	1.13415
3382.70201	1.13208
3380.77344	1.13509
3378.84488	1.13935
3376.91632	1.14048
3374.98775	1.13845
3373.05919	1.13640
3371.13062	1.13664
3369.20206	1.13853
3367.27349	1.14018
3365.34493	1.14149
3363.41636	1.14288
3361.48780	1.14452
3359.55924	1.14597
3357.63067	1.14541
3355.70211	1.14278
3353.77354	1.14111
3351.84498	1.14260
3349.91641	1.14590
3347.98785	1.14849
3346.05928	1.15074
3344.13072	1.15416
3342.20216	1.15767
3340.27359	1.15906
3338.34503	1.15807
3336.41646	1.15649
3334.48790	1.15606
3332.55933	1.15691
3330.63077	1.15909
3328.70220	1.16336
3326.77364	1.16710
3324.84508	1.16687
3322.91651	1.16602
3320.98795	1.16770
3319.05938	1.16894
3317.13082	1.17011
3315.20225	1.17546
3313.27369	1.18248
3311.34513	1.18552
3309.41656	1.18592
3307.48800	1.18628
3305.55943	1.18614
3303.63087	1.18601
3301.70230	1.18665
3299.77374	1.18885
3297.84517	1.19210
3295.91661	1.19394
3293.98805	1.19471
3292.05948	1.19724
3290.13092	1.20124
3288.20235	1.20398
3286.27379	1.20533
3284.34522	1.20714
3282.41666	1.21034
3280.48809	1.21350
3278.55953	1.21401
3276.63097	1.21167
3274.70240	1.20676
3272.77384	1.19968
3270.84527	1.19486
3268.91671	1.19500
3266.98814	1.19623
3265.05958	1.19520
3263.13101	1.19229
3261.20245	1.18853
3259.27389	1.18528
3257.34532	1.18246
3255.41676	1.17967
3253.48819	1.17669
3251.55963	1.17119
3249.63106	1.16334
3247.70250	1.15713
3245.77393	1.15379
3243.84537	1.15014
3241.91681	1.14498
3239.98824	1.14034
3238.05968	1.13581
3236.13111	1.12961
3234.20255	1.12303
3232.27398	1.11875
3230.34542	1.11604
3228.41685	1.11230
3226.48829	1.10869
3224.55973	1.10653
3222.63116	1.10386
3220.70260	1.10023
3218.77403	1.09686
3216.84547	1.09314
3214.91690	1.08859
3212.98834	1.08489
3211.05977	1.08309
3209.13121	1.08217
3207.20265	1.08004
3205.27408	1.07532
3203.34552	1.06926
3201.41695	1.06442
3199.48839	1.06052
3197.55982	1.05559
3195.63126	1.05051
3193.70269	1.04626
3191.77413	1.04246
3189.84557	1.04003
3187.91700	1.03892
3185.98844	1.03694
3184.05987	1.03268
3182.13131	1.02745
3180.20274	1.02274
3178.27418	1.01784
3176.34562	1.01312
3174.41705	1.01001
3172.48849	1.00706
3170.55992	1.00323
3168.63136	1.00007
3166.70279	0.99728
3164.77423	0.99326
3162.84566	0.98840
3160.91710	0.98371
3158.98854	0.97937
3157.05997	0.97552
3155.13141	0.97271
3153.20284	0.97113
3151.27428	0.97009
3149.34571	0.96870
3147.41715	0.96713
3145.48858	0.96612
3143.56002	0.96498
3141.63146	0.96261
3139.70289	0.95955
3137.77433	0.95665
3135.84576	0.95400
3133.91720	0.95195
3131.98863	0.95026
3130.06007	0.94888
3128.13150	0.94968
3126.20294	0.95255
3124.27438	0.95403
3122.34581	0.95290
3120.41725	0.95088
3118.48868	0.94934
3116.56012	0.94941
3114.63155	0.95026
3112.70299	0.94959
3110.77442	0.94885
3108.84586	0.94977
3106.91730	0.94995
3104.98873	0.94820
3103.06017	0.94663
3101.13160	0.94616
3099.20304	0.94615
3097.27447	0.94643
3095.34591	0.94624
3093.41734	0.94497
3091.48878	0.94312
3089.56022	0.94129
3087.63165	0.93971
3085.70309	0.93762
3083.77452	0.93424
3081.84596	0.93052
3079.91739	0.92786
3077.98883	0.92630
3076.06026	0.92460
3074.13170	0.92187
3072.20314	0.91891
3070.27457	0.91696
3068.34601	0.91538
3066.41744	0.91339
3064.48888	0.91157
3062.56031	0.90939
3060.63175	0.90561
3058.70318	0.90107
3056.77462	0.89761
3054.84606	0.89488
3052.91749	0.89176
3050.98893	0.88885
3049.06036	0.88587
3047.13180	0.88153
3045.20323	0.87667
3043.27467	0.87275
3041.34610	0.86960
3039.41754	0.86676
3037.48898	0.86400
3035.56041	0.86085
3033.63185	0.85745
3031.70328	0.85428
3029.77472	0.85169
3027.84615	0.84966
3025.91759	0.84760
3023.98903	0.84553
3022.06046	0.84337
3020.13190	0.84051
3018.20333	0.83756
3016.27477	0.83539
3014.34620	0.83409
3012.41764	0.83327
3010.48907	0.83224
3008.56051	0.83165
3006.63195	0.83214
3004.70338	0.83196
3002.77482	0.83014
3000.84625	0.82846
2998.91769	0.82874
2996.98912	0.83070
2995.06056	0.83291
2993.13199	0.83459
2991.20343	0.83610
2989.27487	0.83815
2987.34630	0.84099
2985.41774	0.84455
2983.48917	0.84846
2981.56061	0.85224
2979.63204	0.85612
2977.70348	0.86037
2975.77491	0.86492
2973.84635	0.87005
2971.91779	0.87562
2969.98922	0.88058
2968.06066	0.88435
2966.13209	0.88745
2964.20353	0.89106
2962.27496	0.89485
2960.34640	0.89602
2958.41783	0.89311
2956.48927	0.88806
2954.56071	0.88285
2952.63214	0.87821
2950.70358	0.87506
2948.77501	0.87407
2946.84645	0.87481
2944.91788	0.87682
2942.98932	0.88022
2941.06075	0.88544
2939.13219	0.89170
2937.20363	0.89784
2935.27506	0.90443
2933.34650	0.91138
2931.41793	0.91713
2929.48937	0.92189
2927.56080	0.92653
2925.63224	0.93035
2923.70367	0.93273
2921.77511	0.93462
2919.84655	0.93625
2917.91798	0.93509
2915.98942	0.92837
2914.06085	0.91636
2912.13229	0.90187
2910.20372	0.88815
2908.27516	0.87729
2906.34659	0.86907
2904.41803	0.86260
2902.48947	0.85802
2900.56090	0.85562
2898.63234	0.85469
2896.70377	0.85416
2894.77521	0.85301
2892.84664	0.85055
2890.91808	0.84752
2888.98952	0.84439
2887.06095	0.84091
2885.13239	0.83811
2883.20382	0.83668
2881.27526	0.83588
2879.34669	0.83538
2877.41813	0.83502
2875.48956	0.83350
2873.56100	0.83000
2871.63244	0.82535
2869.70387	0.82013
2867.77531	0.81456
2865.84674	0.81004
2863.91818	0.80740
2861.98961	0.80578
2860.06105	0.80566
2858.13248	0.80868
2856.20392	0.81455
2854.27536	0.82138
2852.34679	0.82756
2850.41823	0.83041
2848.48966	0.82501
2846.56110	0.81032
2844.63253	0.79226
2842.70397	0.77645
2840.77540	0.76472
2838.84684	0.75686
2836.91828	0.75163
2834.98971	0.74797
2833.06115	0.74488
2831.13258	0.74102
2829.20402	0.73695
2827.27545	0.73439
2825.34689	0.73283
2823.41832	0.73095
2821.48976	0.72871
2819.56120	0.72652
2817.63263	0.72484
2815.70407	0.72336
2813.77550	0.72129
2811.84694	0.71881
2809.91837	0.71614
2807.98981	0.71331
2806.06124	0.71076
2804.13268	0.70840
2802.20412	0.70602
2800.27555	0.70368
2798.34699	0.70113
2796.41842	0.69858
2794.48986	0.69653
2792.56129	0.69478
2790.63273	0.69314
2788.70416	0.69169
2786.77560	0.69040
2784.84704	0.68906
2782.91847	0.68783
2780.98991	0.68667
2779.06134	0.68506
2777.13278	0.68341
2775.20421	0.68246
2773.27565	0.68198
2771.34708	0.68130
2769.41852	0.68041
2767.48996	0.67947
2765.56139	0.67815
2763.63283	0.67653
2761.70426	0.67519
2759.77570	0.67418
2757.84713	0.67281
2755.91857	0.67088
2753.99001	0.66909
2752.06144	0.66794
2750.13288	0.66711
2748.20431	0.66613
2746.27575	0.66533
2744.34718	0.66477
2742.41862	0.66382
2740.49005	0.66250
2738.56149	0.66119
2736.63293	0.66019
2734.70436	0.65973
2732.77580	0.65973
2730.84723	0.65962
2728.91867	0.65905
2726.99010	0.65829
2725.06154	0.65750
2723.13297	0.65649
2721.20441	0.65494
2719.27585	0.65307
2717.34728	0.65168
2715.41872	0.65099
2713.49015	0.65032
2711.56159	0.64926
2709.63302	0.64812
2707.70446	0.64696
2705.77589	0.64565
2703.84733	0.64457
2701.91877	0.64370
2699.99020	0.64267
2698.06164	0.64161
2696.13307	0.64066
2694.20451	0.63973
2692.27594	0.63892
2690.34738	0.63861
2688.41881	0.63833
2686.49025	0.63731
2684.56169	0.63611
2682.63312	0.63524
2680.70456	0.63422
2678.77599	0.63295
2676.84743	0.63153
2674.91886	0.62998
2672.99030	0.62882
2671.06173	0.62815
2669.13317	0.62755
2667.20461	0.62688
2665.27604	0.62582
2663.34748	0.62428
2661.41891	0.62309
2659.49035	0.62256
2657.56178	0.62197
2655.63322	0.62103
2653.70465	0.61996
2651.77609	0.61899
2649.84753	0.61835
2647.91896	0.61789
2645.99040	0.61703
2644.06183	0.61605
2642.13327	0.61573
2640.20470	0.61576
2638.27614	0.61535
2636.34757	0.61468
2634.41901	0.61424
2632.49045	0.61381
2630.56188	0.61296
2628.63332	0.61199
2626.70475	0.61148
2624.77619	0.61123
2622.84762	0.61073
2620.91906	0.61001
2618.99049	0.60954
2617.06193	0.60952
2615.13337	0.60943
2613.20480	0.60882
2611.27624	0.60815
2609.34767	0.60751
2607.41911	0.60671
2605.49054	0.60582
2603.56198	0.60480
2601.63342	0.60393
2599.70485	0.60355
2597.77629	0.60334
2595.84772	0.60293
2593.91916	0.60218
2591.99059	0.60118
2590.06203	0.60015
2588.13346	0.59898
2586.20490	0.59775
2584.27634	0.59674
2582.34777	0.59582
2580.41921	0.59504
2578.49064	0.59454
2576.56208	0.59393
2574.63351	0.59297
2572.70495	0.59209
2570.77638	0.59165
2568.84782	0.59118
2566.91926	0.59023
2564.99069	0.58908
2563.06213	0.58796
2561.13356	0.58685
2559.20500	0.58598
2557.27643	0.58524
2555.34787	0.58430
2553.41930	0.58337
2551.49074	0.58280
2549.56218	0.58236
2547.63361	0.58169
2545.70505	0.58083
2543.77648	0.58000
2541.84792	0.57932
2539.91935	0.57870
2537.99079	0.57812
2536.06222	0.57770
2534.13366	0.57739
2532.20510	0.57689
2530.27653	0.57630
2528.34797	0.57613
2526.41940	0.57617
2524.49084	0.57570
2522.56227	0.57491
2520.63371	0.57422
2518.70514	0.57349
2516.77658	0.57291
2514.84802	0.57254
2512.91945	0.57194
2510.99089	0.57115
2509.06232	0.57046
2507.13376	0.56967
2505.20519	0.56873
2503.27663	0.56789
2501.34806	0.56710
2499.41950	0.56607
2497.49094	0.56502
2495.56237	0.56420
2493.63381	0.56334
2491.70524	0.56248
2489.77668	0.56192
2487.84811	0.56157
2485.91955	0.56125
2483.99098	0.56098
2482.06242	0.56069
2480.13386	0.56017
2478.20529	0.55962
2476.27673	0.55955
2474.34816	0.55978
2472.41960	0.55979
2470.49103	0.55933
2468.56247	0.55846
2466.63391	0.55766
2464.70534	0.55711
2462.77678	0.55645
2460.84821	0.55545
2458.91965	0.55427
2456.99108	0.55321
2455.06252	0.55229
2453.13395	0.55136
2451.20539	0.55038
2449.27683	0.54931
2447.34826	0.54802
2445.41970	0.54668
2443.49113	0.54568
2441.56257	0.54528
2439.63400	0.54521
2437.70544	0.54488
2435.77687	0.54453
2433.84831	0.54460
2431.91975	0.54484
2429.99118	0.54496
2428.06262	0.54472
2426.13405	0.54417
2424.20549	0.54382
2422.27692	0.54390
2420.34836	0.54420
2418.41979	0.54413
2416.49123	0.54337
2414.56267	0.54240
2412.63410	0.54147
2410.70554	0.54044
2408.77697	0.53951
2406.84841	0.53892
2404.91984	0.53824
2402.99128	0.53725
2401.06271	0.53628
2399.13415	0.53535
2397.20559	0.53420
2395.27702	0.53288
2393.34846	0.53177
2391.41989	0.53098
2389.49133	0.53030
2387.56276	0.52963
2385.63420	0.52917
2383.70563	0.52890
2381.77707	0.52868
2379.84851	0.52854
2377.91994	0.52855
2375.99138	0.52878
2374.06281	0.52909
2372.13425	0.52859
2370.20568	0.52612
2368.27712	0.52203
2366.34855	0.51905
2364.41999	0.51942
2362.49143	0.52208
2360.56286	0.52485
2358.63430	0.52585
2356.70573	0.52449
2354.77717	0.52305
2352.84860	0.52296
2350.92004	0.52303
2348.99147	0.52253
2347.06291	0.52173
2345.13435	0.52158
2343.20578	0.52288
2341.27722	0.52361
2339.34865	0.52209
2337.42009	0.51957
2335.49152	0.51713
2333.56296	0.51549
2331.63440	0.51586
2329.70583	0.51759
2327.77727	0.51839
2325.84870	0.51790
2323.92014	0.51731
2321.99157	0.51761
2320.06301	0.51854
2318.13444	0.51901
2316.20588	0.51884
2314.27732	0.51843
2312.34875	0.51793
2310.42019	0.51747
2308.49162	0.51705
2306.56306	0.51681
2304.63449	0.51685
2302.70593	0.51680
2300.77736	0.51643
2298.84880	0.51596
2296.92024	0.51548
2294.99167	0.51493
2293.06311	0.51421
2291.13454	0.51337
2289.20598	0.51279
2287.27741	0.51259
2285.34885	0.51242
2283.42028	0.51211
2281.49172	0.51170
2279.56316	0.51131
2277.63459	0.51099
2275.70603	0.51062
2273.77746	0.51006
2271.84890	0.50944
2269.92033	0.50886
2267.99177	0.50836
2266.06320	0.50798
2264.13464	0.50765
2262.20608	0.50736
2260.27751	0.50715
2258.34895	0.50679
2256.42038	0.50597
2254.49182	0.50492
2252.56325	0.50425
2250.63469	0.50400
2248.70612	0.50368
2246.77756	0.50313
2244.84900	0.50266
2242.92043	0.50237
2240.99187	0.50209
2239.06330	0.50168
2237.13474	0.50126
2235.20617	0.50099
2233.27761	0.50066
2231.34904	0.49998
2229.42048	0.49925
2227.49192	0.49882
2225.56335	0.49843
2223.63479	0.49805
2221.70622	0.49779
2219.77766	0.49740
2217.84909	0.49696
2215.92053	0.49663
2213.99196	0.49625
2212.06340	0.49587
2210.13484	0.49558
2208.20627	0.49534
2206.27771	0.49511
2204.34914	0.49472
2202.42058	0.49413
2200.49201	0.49362
2198.56345	0.49338
2196.63488	0.49330
2194.70632	0.49315
2192.77776	0.49279
2190.84919	0.49238
2188.92063	0.49200
2186.99206	0.49160
2185.06350	0.49135
2183.13493	0.49125
2181.20637	0.49092
2179.27781	0.49047
2177.34924	0.49015
2175.42068	0.48977
2173.49211	0.48938
2171.56355	0.48931
2169.63498	0.48945
2167.70642	0.48948
2165.77785	0.48931
2163.84929	0.48922
2161.92073	0.48931
2159.99216	0.48921
2158.06360	0.48884
2156.13503	0.48868
2154.20647	0.48874
2152.27790	0.48867
2150.34934	0.48829
2148.42077	0.48764
2146.49221	0.48700
2144.56365	0.48650
2142.63508	0.48592
2140.70652	0.48513
2138.77795	0.48436
2136.84939	0.48363
2134.92082	0.48278
2132.99226	0.48197
2131.06369	0.48133
2129.13513	0.48085
2127.20657	0.48051
2125.27800	0.48039
2123.34944	0.48039
2121.42087	0.48013
2119.49231	0.47963
2117.56374	0.47932
2115.63518	0.47927
2113.70661	0.47922
2111.77805	0.47911
2109.84949	0.47893
2107.92092	0.47861
2105.99236	0.47797
2104.06379	0.47718
2102.13523	0.47656
2100.20666	0.47596
2098.27810	0.47507
2096.34953	0.47406
2094.42097	0.47328
2092.49241	0.47265
2090.56384	0.47184
2088.63528	0.47093
2086.70671	0.47014
2084.77815	0.46943
2082.84958	0.46874
2080.92102	0.46805
2078.99245	0.46730
2077.06389	0.46655
2075.13533	0.46593
2073.20676	0.46547
2071.27820	0.46512
2069.34963	0.46478
2067.42107	0.46431
2065.49250	0.46367
2063.56394	0.46298
2061.63537	0.46227
2059.70681	0.46159
2057.77825	0.46106
2055.84968	0.46057
2053.92112	0.46008
2051.99255	0.45955
2050.06399	0.45890
2048.13542	0.45819
2046.20686	0.45748
2044.27830	0.45676
2042.34973	0.45613
2040.42117	0.45567
2038.49260	0.45521
2036.56404	0.45471
2034.63547	0.45424
2032.70691	0.45371
2030.77834	0.45305
2028.84978	0.45223
2026.92122	0.45127
2024.99265	0.45039
2023.06409	0.44958
2021.13552	0.44868
2019.20696	0.44781
2017.27839	0.44710
2015.34983	0.44646
2013.42126	0.44568
2011.49270	0.44479
2009.56414	0.44401
2007.63557	0.44334
2005.70701	0.44263
2003.77844	0.44190
2001.84988	0.44129
1999.92131	0.44089
1997.99275	0.44067
1996.06418	0.44051
1994.13562	0.44018
1992.20706	0.43964
1990.27849	0.43916
1988.34993	0.43882
1986.42136	0.43835
1984.49280	0.43769
1982.56423	0.43710
1980.63567	0.43667
1978.70710	0.43623
1976.77854	0.43553
1974.84998	0.43456
1972.92141	0.43371
1970.99285	0.43315
1969.06428	0.43265
1967.13572	0.43195
1965.20715	0.43098
1963.27859	0.42996
1961.35002	0.42905
1959.42146	0.42827
1957.49290	0.42753
1955.56433	0.42677
1953.63577	0.42606
1951.70720	0.42550
1949.77864	0.42509
1947.85007	0.42470
1945.92151	0.42414
1943.99294	0.42331
1942.06438	0.42239
1940.13582	0.42180
1938.20725	0.42152
1936.27869	0.42117
1934.35012	0.42056
1932.42156	0.41977
1930.49299	0.41889
1928.56443	0.41792
1926.63586	0.41702
1924.70730	0.41626
1922.77874	0.41557
1920.85017	0.41497
1918.92161	0.41444
1916.99304	0.41380
1915.06448	0.41307
1913.13591	0.41245
1911.20735	0.41186
1909.27878	0.41114
1907.35022	0.41050
1905.42166	0.41005
1903.49309	0.40955
1901.56453	0.40896
1899.63596	0.40854
1897.70740	0.40828
1895.77883	0.40789
1893.85027	0.40717
1891.92171	0.40640
1889.99314	0.40563
1888.06458	0.40473
1886.13601	0.40384
1884.20745	0.40290
1882.27888	0.40187
1880.35032	0.40097
1878.42175	0.40028
1876.49319	0.39970
1874.56463	0.39901
1872.63606	0.39833
1870.70750	0.39802
1868.77893	0.39761
1866.85037	0.39643
1864.92180	0.39538
1862.99324	0.39481
1861.06467	0.39424
1859.13611	0.39344
1857.20755	0.39248
1855.27898	0.39149
1853.35042	0.39064
1851.42185	0.38998
1849.49329	0.38957
1847.56472	0.38924
1845.63616	0.38874
1843.70759	0.38802
1841.77903	0.38753
1839.85047	0.38733
1837.92190	0.38709
1835.99334	0.38679
1834.06477	0.38660
1832.13621	0.38659
1830.20764	0.38654
1828.27908	0.38615
1826.35051	0.38554
1824.42195	0.38496
1822.49339	0.38451
1820.56482	0.38405
1818.63626	0.38357
1816.70769	0.38305
1814.77913	0.38248
1812.85056	0.38186
1810.92200	0.38111
1808.99343	0.38040
1807.06487	0.37993
1805.13631	0.37955
1803.20774	0.37912
1801.27918	0.37869
1799.35061	0.37821
1797.42205	0.37767
1795.49348	0.37742
1793.56492	0.37758
1791.63635	0.37781
1789.70779	0.37764
1787.77923	0.37757
1785.85066	0.37785
1783.92210	0.37828
1781.99353	0.37858
1780.06497	0.37872
1778.13640	0.37879
1776.20784	0.37872
1774.27927	0.37860
1772.35071	0.37855
1770.42215	0.37859
1768.49358	0.37862
1766.56502	0.37856
1764.63645	0.37864
1762.70789	0.37910
1760.77932	0.38005
1758.85076	0.38121
1756.92220	0.38291
1754.99363	0.38512
1753.06507	0.38759
1751.13650	0.39136
1749.20794	0.39665
1747.27937	0.40148
1745.35081	0.40530
1743.42224	0.40879
1741.49368	0.41248
1739.56512	0.41634
1737.63655	0.41924
1735.70799	0.42141
1733.77942	0.42491
1731.85086	0.42849
1729.92229	0.43129
1727.99373	0.43428
1726.06516	0.43751
1724.13660	0.44180
1722.20804	0.44654
1720.27947	0.45114
1718.35091	0.45811
1716.42234	0.46987
1714.49378	0.47997
1712.56521	0.48799
1710.63665	0.49686
1708.70808	0.50737
1706.77952	0.52289
1704.85096	0.54357
1702.92239	0.56233
1700.99383	0.58890
1699.06526	0.63181
1697.13670	0.67227
1695.20813	0.71027
1693.27957	0.73783
1691.35100	0.76064
1689.42244	0.78915
1687.49388	0.81601
1685.56531	0.84374
1683.63675	0.88841
1681.70818	0.92109
1679.77962	0.94041
1677.85105	0.95892
1675.92249	0.98020
1673.99392	1.00200
1672.06536	1.01866
1670.13680	1.03760
1668.20823	1.05823
1666.27967	1.06962
1664.35110	1.07974
1662.42254	1.09432
1660.49397	1.10606
1658.56541	1.11204
1656.63684	1.11530
1654.70828	1.11914
1652.77972	1.12728
1650.85115	1.13200
1648.92259	1.13403
1646.99402	1.13604
1645.06546	1.13644
1643.13689	1.13610
1641.20833	1.13676
1639.27976	1.13717
1637.35120	1.13645
1635.42264	1.13661
1633.49407	1.13762
1631.56551	1.13707
1629.63694	1.13446
1627.70838	1.13038
1625.77981	1.12523
1623.85125	1.11717
1621.92269	1.10534
1619.99412	1.09328
1618.06556	1.07603
1616.13699	1.04734
1614.20843	1.02320
1612.27986	1.00402
1610.35130	0.98208
1608.42273	0.95844
1606.49417	0.93812
1604.56561	0.92231
1602.63704	0.90965
1600.70848	0.89981
1598.77991	0.89235
1596.85135	0.88670
1594.92278	0.88253
1592.99422	0.87996
1591.06565	0.87949
1589.13709	0.88177
1587.20853	0.88734
1585.27996	0.89540
1583.35140	0.90487
1581.42283	0.91485
1579.49427	0.92434
1577.56570	0.93608
1575.63714	0.95351
1573.70857	0.96557
1571.78001	0.97295
1569.85145	0.98500
1567.92288	0.99931
1565.99432	1.00936
1564.06575	1.01812
1562.13719	1.02510
1560.20862	1.03404
1558.28006	1.05437
1556.35149	1.06322
1554.42293	1.06489
1552.49437	1.06644
1550.56580	1.06773
1548.63724	1.06744
1546.70867	1.06570
1544.78011	1.06345
1542.85154	1.06130
1540.92298	1.05788
1538.99441	1.05097
1537.06585	1.04659
1535.13729	1.04257
1533.20872	1.03642
1531.28016	1.02955
1529.35159	1.02374
1527.42303	1.01811
1525.49446	1.01267
1523.56590	1.00842
1521.63733	1.00588
1519.70877	1.00540
1517.78021	1.00202
1515.85164	0.99322
1513.92308	0.98178
1511.99451	0.96927
1510.06595	0.95624
1508.13738	0.93414
1506.20882	0.89491
1504.28025	0.87492
1502.35169	0.86245
1500.42313	0.84738
1498.49456	0.82743
1496.56600	0.80385
1494.63743	0.78631
1492.70887	0.77503
1490.78030	0.76216
1488.85174	0.74482
1486.92317	0.73198
1484.99461	0.72456
1483.06605	0.71964
1481.13748	0.71655
1479.20892	0.71581
1477.28035	0.71827
1475.35179	0.72507
1473.42322	0.73856
1471.49466	0.75347
1469.56610	0.76175
1467.63753	0.76785
1465.70897	0.77578
1463.78040	0.78443
1461.85184	0.78983
1459.92327	0.79354
1457.99471	0.80046
1456.06614	0.80904
1454.13758	0.81165
1452.20902	0.81203
1450.28045	0.81144
1448.35189	0.80962
1446.42332	0.80672
1444.49476	0.80334
1442.56619	0.79958
1440.63763	0.79578
1438.70906	0.79123
1436.78050	0.78361
1434.85194	0.77470
1432.92337	0.76744
1430.99481	0.75991
1429.06624	0.75200
1427.13768	0.74609
1425.20911	0.74246
1423.28055	0.74075
1421.35198	0.74074
1419.42342	0.74236
1417.49486	0.74432
1415.56629	0.74454
1413.63773	0.74340
1411.70916	0.74143
1409.78060	0.73958
1407.85203	0.73879
1405.92347	0.73904
1403.99490	0.73986
1402.06634	0.74080
1400.13778	0.74198
1398.20921	0.74337
1396.28065	0.74486
1394.35208	0.74701
1392.42352	0.75011
1390.49495	0.75460
1388.56639	0.76279
1386.63782	0.77607
1384.70926	0.78988
1382.78070	0.80138
1380.85213	0.80985
1378.92357	0.81324
1376.99500	0.81061
1375.06644	0.80147
1373.13787	0.78743
1371.20931	0.77267
1369.28074	0.75610
1367.35218	0.73811
1365.42362	0.72248
1363.49505	0.70838
1361.56649	0.69595
1359.63792	0.68802
1357.70936	0.68335
1355.78079	0.68021
1353.85223	0.67827
1351.92366	0.67740
1349.99510	0.67707
1348.06654	0.67689
1346.13797	0.67695
1344.20941	0.67754
1342.28084	0.67873
1340.35228	0.68104
1338.42371	0.68484
1336.49515	0.68956
1334.56659	0.69535
1332.63802	0.70249
1330.70946	0.71011
1328.78089	0.71666
1326.85233	0.72120
1324.92376	0.72391
1322.99520	0.72589
1321.06663	0.72832
1319.13807	0.73123
1317.20951	0.73365
1315.28094	0.73536
1313.35238	0.73678
1311.42381	0.73767
1309.49525	0.73786
1307.56668	0.73731
1305.63812	0.73575
1303.70955	0.73358
1301.78099	0.73145
1299.85243	0.72899
1297.92386	0.72550
1295.99530	0.72166
1294.06673	0.71904
1292.13817	0.71812
1290.20960	0.71862
1288.28104	0.72016
1286.35247	0.72216
1284.42391	0.72412
1282.49535	0.72598
1280.56678	0.72792
1278.63822	0.73045
1276.70965	0.73410
1274.78109	0.73894
1272.85252	0.74485
1270.92396	0.75149
1268.99539	0.75823
1267.06683	0.76448
1265.13827	0.76945
1263.20970	0.77232
1261.28114	0.77301
1259.35257	0.77243
1257.42401	0.77174
1255.49544	0.77132
1253.56688	0.77098
1251.63831	0.77071
1249.70975	0.77075
1247.78119	0.77119
1245.85262	0.77185
1243.92406	0.77246
1241.99549	0.77264
1240.06693	0.77199
1238.13836	0.77048
1236.20980	0.76836
1234.28123	0.76544
1232.35267	0.76116
1230.42411	0.75546
1228.49554	0.74882
1226.56698	0.74174
1224.63841	0.73446
1222.70985	0.72705
1220.78128	0.71965
1218.85272	0.71277
1216.92415	0.70743
1214.99559	0.70446
1213.06703	0.70405
1211.13846	0.70590
1209.20990	0.70859
1207.28133	0.70994
1205.35277	0.70855
1203.42420	0.70403
1201.49564	0.69715
1199.56708	0.68936
1197.63851	0.68160
1195.70995	0.67448
1193.78138	0.66870
1191.85282	0.66480
1189.92425	0.66287
1187.99569	0.66244
1186.06712	0.66304
1184.13856	0.66470
1182.21000	0.66774
1180.28143	0.67246
1178.35287	0.67923
1176.42430	0.68773
1174.49574	0.69690
1172.56717	0.70645
1170.63861	0.71747
1168.71004	0.73102
1166.78148	0.74722
1164.85292	0.76534
1162.92435	0.78318
1160.99579	0.79747
1159.06722	0.80544
1157.13866	0.80586
1155.21009	0.79911
1153.28153	0.78669
1151.35296	0.77084
1149.42440	0.75414
1147.49584	0.73854
1145.56727	0.72535
1143.63871	0.71605
1141.71014	0.71165
1139.78158	0.71152
1137.85301	0.71436
1135.92445	0.71956
1133.99588	0.72738
1132.06732	0.73851
1130.13876	0.75330
1128.21019	0.77083
1126.28163	0.78887
1124.35306	0.80521
1122.42450	0.81910
1120.49593	0.83061
1118.56737	0.83921
1116.63880	0.84409
1114.71024	0.84476
1112.78168	0.84124
1110.85311	0.83511
1108.92455	0.82852
1106.99598	0.82215
1105.06742	0.81608
1103.13885	0.81118
1101.21029	0.80849
1099.28172	0.80866
1097.35316	0.81176
1095.42460	0.81804
1093.49603	0.82749
1091.56747	0.83925
1089.63890	0.85312
1087.71034	0.86946
1085.78177	0.88728
1083.85321	0.90482
1081.92464	0.92032
1079.99608	0.93183
1078.06752	0.93872
1076.13895	0.94140
1074.21039	0.93915
1072.28182	0.93158
1070.35326	0.92064
1068.42469	0.90869
1066.49613	0.89662
1064.56756	0.88447
1062.63900	0.87256
1060.71044	0.86113
1058.78187	0.84975
1056.85331	0.83905
1054.92474	0.83072
1052.99618	0.82529
1051.06761	0.82200
1049.13905	0.82078
1047.21049	0.82266
1045.28192	0.82836
1043.35336	0.83717
1041.42479	0.84725
1039.49623	0.85683
1037.56766	0.86489
1035.63910	0.87072
1033.71053	0.87374
1031.78197	0.87349
1029.85341	0.87014
1027.92484	0.86443
1025.99628	0.85670
1024.06771	0.84753
1022.13915	0.83871
1020.21058	0.83206
1018.28202	0.82734
1016.35345	0.82233
1014.42489	0.81491
1012.49633	0.80374
1010.56776	0.78907
1008.63920	0.77265
1006.71063	0.75618
1004.78207	0.74083
1002.85350	0.72712
1000.92494	0.71534
998.99637	0.70590
997.06781	0.69870
995.13925	0.69269
993.21068	0.68656
991.28212	0.67960
989.35355	0.67178
987.42499	0.66386
985.49642	0.65712
983.56786	0.65233
981.63929	0.64938
979.71073	0.64786
977.78217	0.64723
975.85360	0.64657
973.92504	0.64461
971.99647	0.64057
970.06791	0.63493
968.13934	0.62890
966.21078	0.62381
964.28221	0.62088
962.35365	0.62125
960.42509	0.62599
958.49652	0.63488
956.56796	0.64435
954.63939	0.64933
952.71083	0.64774
950.78226	0.64082
948.85370	0.63137
946.92513	0.62236
944.99657	0.61519
943.06801	0.60978
941.13944	0.60568
939.21088	0.60242
937.28231	0.59973
935.35375	0.59763
933.42518	0.59616
931.49662	0.59509
929.56805	0.59439
927.63949	0.59437
925.71093	0.59520
923.78236	0.59693
921.85380	0.59889
919.92523	0.59997
917.99667	0.60007
916.06810	0.60022
914.13954	0.60114
912.21098	0.60272
910.28241	0.60488
908.35385	0.60804
906.42528	0.61235
904.49672	0.61716
902.56815	0.62167
900.63959	0.62566
898.71102	0.62886
896.78246	0.63085
894.85390	0.63181
892.92533	0.63215
890.99677	0.63206
889.06820	0.63162
887.13964	0.63107
885.21107	0.63058
883.28251	0.63001
881.35394	0.62908
879.42538	0.62798
877.49682	0.62719
875.56825	0.62673
873.63969	0.62622
871.71112	0.62538
869.78256	0.62415
867.85399	0.62293
865.92543	0.62244
863.99686	0.62283
862.06830	0.62377
860.13974	0.62549
858.21117	0.62849
856.28261	0.63250
854.35404	0.63658
852.42548	0.64022
850.49691	0.64368
848.56835	0.64721
846.63978	0.65057
844.71122	0.65374
842.78266	0.65693
840.85409	0.65992
838.92553	0.66254
836.99696	0.66476
835.06840	0.66668
833.13983	0.66804
831.21127	0.66820
829.28270	0.66731
827.35414	0.66614
825.42558	0.66489
823.49701	0.66376
821.56845	0.66319
819.63988	0.66283
817.71132	0.66235
815.78275	0.66255
813.85419	0.66346
811.92562	0.66439
809.99706	0.66544
808.06850	0.66689
806.13993	0.66884
804.21137	0.67102
802.28280	0.67240
800.35424	0.67251
798.42567	0.67206
796.49711	0.67185
794.56854	0.67204
792.63998	0.67209
790.71142	0.67140
788.78285	0.67029
786.85429	0.66952
784.92572	0.66947
782.99716	0.67042
781.06859	0.67250
779.14003	0.67549
777.21147	0.67888
775.28290	0.68235
773.35434	0.68660
771.42577	0.69227
769.49721	0.69868
767.56864	0.70487
765.64008	0.71068
763.71151	0.71621
761.78295	0.72094
759.85439	0.72465
757.92582	0.72762
755.99726	0.72955
754.06869	0.73004
752.14013	0.72937
750.21156	0.72799
748.28300	0.72595
746.35443	0.72352
744.42587	0.72121
742.49731	0.71879
740.56874	0.71621
738.64018	0.71433
736.71161	0.71373
734.78305	0.71421
732.85448	0.71584
730.92592	0.71910
728.99735	0.72373
727.06879	0.72908
725.14023	0.73486
723.21166	0.74058
721.28310	0.74598
719.35453	0.75086
717.42597	0.75444
715.49740	0.75685
713.56884	0.75922
711.64027	0.76160
709.71171	0.76285
707.78315	0.76295
705.85458	0.76283
703.92602	0.76269
701.99745	0.76240
700.06889	0.76187
698.14032	0.76086
696.21176	0.75937
694.28319	0.75737
692.35463	0.75527
690.42607	0.75357
688.49750	0.75201
686.56894	0.75001
684.64037	0.74763
682.71181	0.74525
680.78324	0.74277
678.85468	0.74042
676.92611	0.73859
674.99755	0.73624
673.06899	0.73273
671.14042	0.72916
669.21186	0.72641
667.28329	0.72520
665.35473	0.72482
663.42616	0.72439
661.49760	0.72408
659.56903	0.72451
657.64047	0.72646
655.71191	0.72983
653.78334	0.73360
651.85478	0.73736
649.92621	0.74077
647.99765	0.74265
646.06908	0.74308
644.14052	0.74355
642.21195	0.74460
640.28339	0.74607
638.35483	0.74714
636.42626	0.74509
634.49770	0.73883
632.56913	0.73135
630.64057	0.72465
628.71200	0.71836
626.78344	0.71274
624.85488	0.70852
622.92631	0.70582
620.99775	0.70423
619.06918	0.70402
617.14062	0.70589
615.21205	0.70959
613.28349	0.71425
611.35492	0.71961
609.42636	0.72620
607.49780	0.73415
605.56923	0.74258
603.64067	0.75067
601.71210	0.75780
599.78354	0.76302
