3997.91406	0.68889
3995.98550	0.68651
3994.05693	0.68495
3992.12837	0.68417
3990.19980	0.68421
3988.27124	0.68637
3986.34268	0.69004
3984.41411	0.69072
3982.48555	0.68780
3980.55698	0.68575
3978.62842	0.68672
3976.69985	0.68868
3974.77129	0.68851
3972.84272	0.68778
3970.91416	0.68954
3968.98560	0.69118
3967.05703	0.68997
3965.12847	0.68770
3963.19990	0.68683
3961.27134	0.68711
3959.34277	0.68719
3957.41421	0.68732
3955.48564	0.68753
3953.55708	0.68743
3951.62852	0.68792
3949.69995	0.68813
3947.77139	0.68688
3945.84282	0.68679
3943.91426	0.68807
3941.98569	0.68838
3940.05713	0.68706
3938.12856	0.68452
3936.20000	0.68304
3934.27144	0.68392
3932.34287	0.68446
3930.41431	0.68303
3928.48574	0.68149
3926.55718	0.67972
3924.62861	0.67729
3922.70005	0.67700
3920.77148	0.67852
3918.84292	0.67819
3916.91436	0.67619
3914.98579	0.67560
3913.05723	0.67612
3911.12866	0.67624
3909.20010	0.67695
3907.27153	0.67857
3905.34297	0.67786
3903.41440	0.67539
3901.48584	0.67629
3899.55728	0.67543
3897.62871	0.67253
3895.70015	0.67347
3893.77158	0.67583
3891.84302	0.67485
3889.91445	0.67564
3887.98589	0.68055
3886.05733	0.68223
3884.12876	0.67883
3882.20020	0.67571
3880.27163	0.67188
3878.34307	0.66995
3876.41450	0.67069
3874.48594	0.67096
3872.55737	0.67106
3870.62881	0.67045
3868.70025	0.67024
3866.77168	0.67340
3864.84312	0.67455
3862.91455	0.67078
3860.98599	0.66922
3859.05742	0.67083
3857.12886	0.67340
3855.20029	0.67573
3853.27173	0.67259
3851.34317	0.66763
3849.41460	0.66731
3847.48604	0.66922
3845.55747	0.67153
3843.62891	0.67277
3841.70034	0.67343
3839.77178	0.67295
3837.84321	0.66863
3835.91465	0.66515
3833.98609	0.66427
3832.05752	0.66355
3830.12896	0.66373
3828.20039	0.66497
3826.27183	0.66616
3824.34326	0.66751
3822.41470	0.66542
3820.48613	0.65926
3818.55757	0.65944
3816.62901	0.66090
3814.70044	0.66011
3812.77188	0.66208
3810.84331	0.66646
3808.91475	0.67006
3806.98618	0.66945
3805.05762	0.66816
3803.12905	0.66751
3801.20049	0.66259
3799.27193	0.65983
3797.34336	0.66027
3795.41480	0.66042
3793.48623	0.66129
3791.55767	0.66169
3789.62910	0.66111
3787.70054	0.66116
3785.77197	0.66050
3783.84341	0.65866
3781.91485	0.65823
3779.98628	0.65786
3778.05772	0.65709
3776.12915	0.65816
3774.20059	0.66022
3772.27202	0.66189
3770.34346	0.66244
3768.41489	0.66246
3766.48633	0.66178
3764.55777	0.66031
3762.62920	0.65974
3760.70064	0.65857
3758.77207	0.65631
3756.84351	0.65738
3754.91494	0.66154
3752.98638	0.66391
3751.05781	0.65773
3749.12925	0.65082
3747.20069	0.64966
3745.27212	0.64777
3743.34356	0.64843
3741.41499	0.65367
3739.48643	0.65950
3737.55786	0.66366
3735.62930	0.66212
3733.70074	0.65668
3731.77217	0.65405
3729.84361	0.65388
3727.91504	0.65494
3725.98648	0.65594
3724.05791	0.65626
3722.12935	0.65559
3720.20078	0.65438
3718.27222	0.65471
3716.34366	0.65741
3714.41509	0.66077
3712.48653	0.66012
3710.55796	0.65533
3708.62940	0.65469
3706.70083	0.65632
3704.77227	0.65774
3702.84370	0.65843
3700.91514	0.65957
3698.98658	0.66234
3697.05801	0.66496
3695.12945	0.66654
3693.20088	0.66825
3691.27232	0.66921
3689.34375	0.66732
3687.41519	0.66797
3685.48662	0.67090
3683.55806	0.67302
3681.62950	0.67532
3679.70093	0.68015
3677.77237	0.68581
3675.84380	0.68594
3673.91524	0.68658
3671.98667	0.69118
3670.05811	0.69419
3668.12954	0.69895
3666.20098	0.70602
3664.27242	0.71176
3662.34385	0.71694
3660.41529	0.72359
3658.48672	0.72974
3656.55816	0.73372
3654.62959	0.73806
3652.70103	0.74526
3650.77246	0.75660
3648.84390	0.76485
3646.91534	0.76562
3644.98677	0.77072
3643.05821	0.77901
3641.12964	0.78707
3639.20108	0.79376
3637.27251	0.79957
3635.34395	0.80593
3633.41538	0.81374
3631.48682	0.82089
3629.55826	0.82557
3627.62969	0.83149
3625.70113	0.84071
3623.77256	0.85070
3621.84400	0.86076
3619.91543	0.86917
3617.98687	0.87317
3616.05830	0.87739
3614.12974	0.88450
3612.20118	0.89351
3610.27261	0.90356
3608.34405	0.91273
3606.41548	0.92058
3604.48692	0.92917
3602.55835	0.93883
3600.62979	0.94864
3598.70123	0.95806
3596.77266	0.96630
3594.84410	0.97509
3592.91553	0.98664
3590.98697	0.99721
3589.05840	1.00479
3587.12984	1.01200
3585.20127	1.02080
3583.27271	1.02905
3581.34415	1.03528
3579.41558	1.04025
3577.48702	1.04640
3575.55845	1.05430
3573.62989	1.06262
3571.70132	1.07181
3569.77276	1.08074
3567.84419	1.08871
3565.91563	1.10110
3563.98707	1.11442
3562.05850	1.12233
3560.12994	1.12744
3558.20137	1.13554
3556.27281	1.14654
3554.34424	1.15777
3552.41568	1.16993
3550.48711	1.18177
3548.55855	1.19173
3546.62999	1.20233
3544.70142	1.21350
3542.77286	1.21936
3540.84429	1.22007
3538.91573	1.22241
3536.98716	1.22973
3535.05860	1.23865
3533.13003	1.24661
3531.20147	1.25436
3529.27291	1.26007
3527.34434	1.26632
3525.41578	1.27835
3523.48721	1.29029
3521.55865	1.29731
3519.63008	1.30464
3517.70152	1.31473
3515.77295	1.32481
3513.84439	1.33311
3511.91583	1.34007
3509.98726	1.34697
3508.05870	1.35331
3506.13013	1.35867
3504.20157	1.36752
3502.27300	1.38519
3500.34444	1.40732
3498.41587	1.42283
3496.48731	1.42781
3494.55875	1.42703
3492.63018	1.42660
3490.70162	1.43175
3488.77305	1.44240
3486.84449	1.45160
3484.91592	1.45560
3482.98736	1.46015
3481.05879	1.47005
3479.13023	1.47995
3477.20167	1.48292
3475.27310	1.47961
3473.34454	1.47909
3471.41597	1.48816
3469.48741	1.50264
3467.55884	1.51088
3465.63028	1.51058
3463.70171	1.51258
3461.77315	1.51641
3459.84459	1.51776
3457.91602	1.52485
3455.98746	1.53690
3454.05889	1.54050
3452.13033	1.53712
3450.20176	1.53986
3448.27320	1.54658
3446.34464	1.54696
3444.41607	1.54379
3442.48751	1.54234
3440.55894	1.54391
3438.63038	1.55171
3436.70181	1.56151
3434.77325	1.56416
3432.84468	1.56334
3430.91612	1.56861
3428.98756	1.57483
3427.05899	1.56935
3425.13043	1.56053
3423.20186	1.56455
3421.27330	1.57673
3419.34473	1.58197
3417.41617	1.57771
3415.48760	1.57332
3413.55904	1.57482
3411.63048	1.57928
3409.70191	1.58214
3407.77335	1.58022
3405.84478	1.57328
3403.91622	1.57061
3401.98765	1.58005
3400.05909	1.58886
3398.13052	1.58406
3396.20196	1.57850
3394.27340	1.58319
3392.34483	1.58993
3390.41627	1.59146
3388.48770	1.58713
3386.55914	1.57811
3384.63057	1.57323
3382.70201	1.57726
3380.77344	1.58117
3378.84488	1.57780
3376.91632	1.57460
3374.98775	1.58302
3373.05919	1.59765
3371.13062	1.60325
3369.20206	1.59945
3367.27349	1.59788
3365.34493	1.60410
3363.41636	1.61075
3361.48780	1.61002
3359.55924	1.60356
3357.63067	1.59535
3355.70211	1.59109
3353.77354	1.59495
3351.84498	1.60205
3349.91641	1.60755
3347.98785	1.61023
3346.05928	1.60658
3344.13072	1.59873
3342.20216	1.59900
3340.27359	1.61363
3338.34503	1.62903
3336.41646	1.63233
3334.48790	1.63113
3332.55933	1.63436
3330.63077	1.63787
3328.70220	1.63417
3326.77364	1.63206
3324.84508	1.63970
3322.91651	1.64581
3320.98795	1.64597
3319.05938	1.64244
3317.13082	1.63798
3315.20225	1.64612
3313.27369	1.66555
3311.34513	1.67333
3309.41656	1.66720
3307.48800	1.66792
3305.55943	1.67703
3303.63087	1.68195
3301.70230	1.68118
3299.77374	1.67958
3297.84517	1.68010
3295.91661	1.68117
3293.98805	1.67791
3292.05948	1.67041
3290.13092	1.66741
3288.20235	1.67419
3286.27379	1.68282
3284.34522	1.68809
3282.41666	1.69374
3280.48809	1.69419
3278.55953	1.68386
3276.63097	1.67376
3274.70240	1.66766
3272.77384	1.65870
3270.84527	1.65280
3268.91671	1.65085
3266.98814	1.64485
3265.05958	1.64198
3263.13101	1.64595
3261.20245	1.64598
3259.27389	1.64041
3257.34532	1.63173
3255.41676	1.61894
3253.48819	1.61023
3251.55963	1.60924
3249.63106	1.60448
3247.70250	1.58988
3245.77393	1.57177
3243.84537	1.55934
3241.91681	1.55525
3239.98824	1.55210
3238.05968	1.54586
3236.13111	1.54006
3234.20255	1.53446
3232.27398	1.52774
3230.34542	1.52071
3228.41685	1.51155
3226.48829	1.50147
3224.55973	1.49473
3222.63116	1.49049
3220.70260	1.48699
3218.77403	1.48491
3216.84547	1.48083
3214.91690	1.47202
3212.98834	1.46390
3211.05977	1.45902
3209.13121	1.45303
3207.20265	1.44728
3205.27408	1.44549
3203.34552	1.44366
3201.41695	1.43736
3199.48839	1.42988
3197.55982	1.42544
3195.63126	1.42369
3193.70269	1.42215
3191.77413	1.41761
3189.84557	1.41048
3187.91700	1.40460
3185.98844	1.39780
3184.05987	1.38647
3182.13131	1.37607
3180.20274	1.37122
3178.27418	1.36757
3176.34562	1.36084
3174.41705	1.35143
3172.48849	1.34234
3170.55992	1.33665
3168.63136	1.33292
3166.70279	1.32911
3164.77423	1.32551
3162.84566	1.32185
3160.91710	1.31772
3158.98854	1.31189
3157.05997	1.30431
3155.13141	1.29742
3153.20284	1.29281
3151.27428	1.29095
3149.34571	1.29044
3147.41715	1.28843
3145.48858	1.28562
3143.56002	1.28442
3141.63146	1.28314
3139.70289	1.27902
3137.77433	1.27414
3135.84576	1.27172
3133.91720	1.27073
3131.98863	1.26892
3130.06007	1.26701
3128.13150	1.26688
3126.20294	1.26749
3124.27438	1.26567
3122.34581	1.26347
3120.41725	1.26516
3118.48868	1.26767
3116.56012	1.26657
3114.63155	1.26245
3112.70299	1.25828
3110.77442	1.25705
3108.84586	1.25849
3106.91730	1.25959
3104.98873	1.25949
3103.06017	1.25953
3101.13160	1.25922
3099.20304	1.25767
3097.27447	1.25703
3095.34591	1.25709
3093.41734	1.25436
3091.48878	1.24940
3089.56022	1.24463
3087.63165	1.24176
3085.70309	1.24253
3083.77452	1.24357
3081.84596	1.24047
3079.91739	1.23663
3077.98883	1.23511
3076.06026	1.23248
3074.13170	1.22693
3072.20314	1.22031
3070.27457	1.21432
3068.34601	1.21036
3066.41744	1.20823
3064.48888	1.20647
3062.56031	1.20460
3060.63175	1.20090
3058.70318	1.19404
3056.77462	1.18619
3054.84606	1.17929
3052.91749	1.17468
3050.98893	1.17303
3049.06036	1.17101
3047.13180	1.16596
3045.20323	1.16010
3043.27467	1.15506
3041.34610	1.15002
3039.41754	1.14443
3037.48898	1.13813
3035.56041	1.13256
3033.63185	1.12919
3031.70328	1.12578
3029.77472	1.12068
3027.84615	1.11627
3025.91759	1.11371
3023.98903	1.11138
3022.06046	1.10834
3020.13190	1.10576
3018.20333	1.10341
3016.27477	1.09919
3014.34620	1.09444
3012.41764	1.09141
3010.48907	1.08935
3008.56051	1.08789
3006.63195	1.08680
3004.70338	1.08518
3002.77482	1.08345
3000.84625	1.08268
2998.91769	1.08284
2996.98912	1.08291
2995.06056	1.08366
2993.13199	1.08650
2991.20343	1.09065
2989.27487	1.09483
2987.34630	1.09973
2985.41774	1.10692
2983.48917	1.11549
2981.56061	1.12321
2979.63204	1.13057
2977.70348	1.13919
2975.77491	1.14827
2973.84635	1.15694
2971.91779	1.16577
2969.98922	1.17349
2968.06066	1.17969
2966.13209	1.18595
2964.20353	1.19101
2962.27496	1.19315
2960.34640	1.19246
2958.41783	1.18909
2956.48927	1.18406
2954.56071	1.17875
2952.63214	1.17345
2950.70358	1.16830
2948.77501	1.16455
2946.84645	1.16328
2944.91788	1.16506
2942.98932	1.17056
2941.06075	1.17898
2939.13219	1.18927
2937.20363	1.20053
2935.27506	1.21075
2933.34650	1.21975
2931.41793	1.22765
2929.48937	1.23340
2927.56080	1.23853
2925.63224	1.24381
2923.70367	1.24697
2921.77511	1.24648
2919.84655	1.24134
2917.91798	1.23043
2915.98942	1.21434
2914.06085	1.19525
2912.13229	1.17571
2910.20372	1.15745
2908.27516	1.14176
2906.34659	1.13052
2904.41803	1.12240
2902.48947	1.11384
2900.56090	1.10577
2898.63234	1.10058
2896.70377	1.09719
2894.77521	1.09418
2892.84664	1.09166
2890.91808	1.08949
2888.98952	1.08690
2887.06095	1.08372
2885.13239	1.08078
2883.20382	1.07926
2881.27526	1.07996
2879.34669	1.08232
2877.41813	1.08386
2875.48956	1.08220
2873.56100	1.07758
2871.63244	1.07076
2869.70387	1.06265
2867.77531	1.05522
2865.84674	1.04969
2863.91818	1.04606
2861.98961	1.04439
2860.06105	1.04639
2858.13248	1.05290
2856.20392	1.06080
2854.27536	1.06714
2852.34679	1.07049
2850.41823	1.06664
2848.48966	1.05104
2846.56110	1.02628
2844.63253	1.00128
2842.70397	0.98199
2840.77540	0.96781
2838.84684	0.95687
2836.91828	0.94907
2834.98971	0.94322
2833.06115	0.93738
2831.13258	0.93188
2829.20402	0.92753
2827.27545	0.92362
2825.34689	0.91985
2823.41832	0.91683
2821.48976	0.91463
2819.56120	0.91234
2817.63263	0.90891
2815.70407	0.90456
2813.77550	0.90063
2811.84694	0.89774
2809.91837	0.89527
2807.98981	0.89248
2806.06124	0.88947
2804.13268	0.88682
2802.20412	0.88428
2800.27555	0.88082
2798.34699	0.87713
2796.41842	0.87485
2794.48986	0.87313
2792.56129	0.87029
2790.63273	0.86667
2788.70416	0.86369
2786.77560	0.86158
2784.84704	0.85943
2782.91847	0.85731
2780.98991	0.85567
2779.06134	0.85425
2777.13278	0.85293
2775.20421	0.85144
2773.27565	0.84962
2771.34708	0.84792
2769.41852	0.84672
2767.48996	0.84533
2765.56139	0.84307
2763.63283	0.84060
2761.70426	0.83863
2759.77570	0.83686
2757.84713	0.83509
2755.91857	0.83339
2753.99001	0.83183
2752.06144	0.83039
2750.13288	0.82884
2748.20431	0.82725
2746.27575	0.82591
2744.34718	0.82475
2742.41862	0.82362
2740.49005	0.82219
2738.56149	0.82043
2736.63293	0.81881
2734.70436	0.81702
2732.77580	0.81451
2730.84723	0.81169
2728.91867	0.80940
2726.99010	0.80795
2725.06154	0.80686
2723.13297	0.80562
2721.20441	0.80382
2719.27585	0.80125
2717.34728	0.79887
2715.41872	0.79760
2713.49015	0.79690
2711.56159	0.79559
2709.63302	0.79335
2707.70446	0.79103
2705.77589	0.78951
2703.84733	0.78855
2701.91877	0.78707
2699.99020	0.78489
2698.06164	0.78327
2696.13307	0.78256
2694.20451	0.78165
2692.27594	0.78037
2690.34738	0.77940
2688.41881	0.77851
2686.49025	0.77737
2684.56169	0.77639
2682.63312	0.77570
2680.70456	0.77481
2678.77599	0.77355
2676.84743	0.77238
2674.91886	0.77151
2672.99030	0.77066
2671.06173	0.76979
2669.13317	0.76930
2667.20461	0.76878
2665.27604	0.76722
2663.34748	0.76494
2661.41891	0.76314
2659.49035	0.76207
2657.56178	0.76117
2655.63322	0.76034
2653.70465	0.75956
2651.77609	0.75867
2649.84753	0.75775
2647.91896	0.75661
2645.99040	0.75517
2644.06183	0.75407
2642.13327	0.75344
2640.20470	0.75305
2638.27614	0.75278
2636.34757	0.75212
2634.41901	0.75102
2632.49045	0.74984
2630.56188	0.74855
2628.63332	0.74723
2626.70475	0.74618
2624.77619	0.74526
2622.84762	0.74424
2620.91906	0.74299
2618.99049	0.74152
2617.06193	0.74019
2615.13337	0.73897
2613.20480	0.73756
2611.27624	0.73616
2609.34767	0.73521
2607.41911	0.73460
2605.49054	0.73366
2603.56198	0.73212
2601.63342	0.73065
2599.70485	0.72970
2597.77629	0.72878
2595.84772	0.72749
2593.91916	0.72618
2591.99059	0.72510
2590.06203	0.72415
2588.13346	0.72329
2586.20490	0.72237
2584.27634	0.72132
2582.34777	0.72041
2580.41921	0.71949
2578.49064	0.71816
2576.56208	0.71657
2574.63351	0.71531
2572.70495	0.71473
2570.77638	0.71408
2568.84782	0.71258
2566.91926	0.71078
2564.99069	0.70922
2563.06213	0.70790
2561.13356	0.70728
2559.20500	0.70710
2557.27643	0.70622
2555.34787	0.70443
2553.41930	0.70274
2551.49074	0.70169
2549.56218	0.70083
2547.63361	0.69995
2545.70505	0.69939
2543.77648	0.69890
2541.84792	0.69791
2539.91935	0.69664
2537.99079	0.69559
2536.06222	0.69465
2534.13366	0.69361
2532.20510	0.69286
2530.27653	0.69220
2528.34797	0.69096
2526.41940	0.68941
2524.49084	0.68798
2522.56227	0.68669
2520.63371	0.68578
2518.70514	0.68524
2516.77658	0.68466
2514.84802	0.68376
2512.91945	0.68273
2510.99089	0.68188
2509.06232	0.68113
2507.13376	0.68007
2505.20519	0.67898
2503.27663	0.67835
2501.34806	0.67779
2499.41950	0.67684
2497.49094	0.67585
2495.56237	0.67494
2493.63381	0.67385
2491.70524	0.67253
2489.77668	0.67123
2487.84811	0.66999
2485.91955	0.66853
2483.99098	0.66693
2482.06242	0.66537
2480.13386	0.66395
2478.20529	0.66275
2476.27673	0.66188
2474.34816	0.66145
2472.41960	0.66115
2470.49103	0.66038
2468.56247	0.65910
2466.63391	0.65801
2464.70534	0.65754
2462.77678	0.65715
2460.84821	0.65645
2458.91965	0.65548
2456.99108	0.65411
2455.06252	0.65251
2453.13395	0.65115
2451.20539	0.65014
2449.27683	0.64910
2447.34826	0.64768
2445.41970	0.64605
2443.49113	0.64470
2441.56257	0.64370
2439.63400	0.64251
2437.70544	0.64080
2435.77687	0.63885
2433.84831	0.63702
2431.91975	0.63553
2429.99118	0.63448
2428.06262	0.63364
2426.13405	0.63257
2424.20549	0.63140
2422.27692	0.63044
2420.34836	0.62975
2418.41979	0.62931
2416.49123	0.62890
2414.56267	0.62826
2412.63410	0.62755
2410.70554	0.62711
2408.77697	0.62698
2406.84841	0.62693
2404.91984	0.62680
2402.99128	0.62653
2401.06271	0.62590
2399.13415	0.62492
2397.20559	0.62393
2395.27702	0.62324
2393.34846	0.62268
2391.41989	0.62188
2389.49133	0.62097
2387.56276	0.62037
2385.63420	0.62005
2383.70563	0.61980
2381.77707	0.61958
2379.84851	0.61952
2377.91994	0.61986
2375.99138	0.62017
2374.06281	0.61965
2372.13425	0.61898
2370.20568	0.61944
2368.27712	0.62020
2366.34855	0.61902
2364.41999	0.61615
2362.49143	0.61461
2360.56286	0.61454
2358.63430	0.61590
2356.70573	0.61845
2354.77717	0.61830
2352.84860	0.61517
2350.92004	0.61270
2348.99147	0.61264
2347.06291	0.61415
2345.13435	0.61497
2343.20578	0.61330
2341.27722	0.61023
2339.34865	0.60786
2337.42009	0.60795
2335.49152	0.60881
2333.56296	0.60826
2331.63440	0.60741
2329.70583	0.60668
2327.77727	0.60541
2325.84870	0.60440
2323.92014	0.60374
2321.99157	0.60265
2320.06301	0.60162
2318.13444	0.60115
2316.20588	0.60072
2314.27732	0.59995
2312.34875	0.59903
2310.42019	0.59814
2308.49162	0.59723
2306.56306	0.59663
2304.63449	0.59648
2302.70593	0.59609
2300.77736	0.59523
2298.84880	0.59450
2296.92024	0.59401
2294.99167	0.59334
2293.06311	0.59231
2291.13454	0.59124
2289.20598	0.59064
2287.27741	0.59031
2285.34885	0.58972
2283.42028	0.58903
2281.49172	0.58855
2279.56316	0.58820
2277.63459	0.58795
2275.70603	0.58774
2273.77746	0.58752
2271.84890	0.58747
2269.92033	0.58753
2267.99177	0.58766
2266.06320	0.58794
2264.13464	0.58807
2262.20608	0.58796
2260.27751	0.58806
2258.34895	0.58823
2256.42038	0.58800
2254.49182	0.58748
2252.56325	0.58703
2250.63469	0.58682
2248.70612	0.58674
2246.77756	0.58659
2244.84900	0.58615
2242.92043	0.58533
2240.99187	0.58450
2239.06330	0.58396
2237.13474	0.58346
2235.20617	0.58290
2233.27761	0.58231
2231.34904	0.58163
2229.42048	0.58085
2227.49192	0.58013
2225.56335	0.57975
2223.63479	0.57971
2221.70622	0.57977
2219.77766	0.57975
2217.84909	0.57973
2215.92053	0.57980
2213.99196	0.58003
2212.06340	0.58049
2210.13484	0.58093
2208.20627	0.58102
2206.27771	0.58093
2204.34914	0.58092
2202.42058	0.58100
2200.49201	0.58113
2198.56345	0.58120
2196.63488	0.58109
2194.70632	0.58076
2192.77776	0.58014
2190.84919	0.57933
2188.92063	0.57860
2186.99206	0.57799
2185.06350	0.57743
2183.13493	0.57685
2181.20637	0.57628
2179.27781	0.57577
2177.34924	0.57514
2175.42068	0.57442
2173.49211	0.57397
2171.56355	0.57383
2169.63498	0.57375
2167.70642	0.57359
2165.77785	0.57342
2163.84929	0.57339
2161.92073	0.57371
2159.99216	0.57419
2158.06360	0.57447
2156.13503	0.57467
2154.20647	0.57504
2152.27790	0.57529
2150.34934	0.57510
2148.42077	0.57475
2146.49221	0.57455
2144.56365	0.57431
2142.63508	0.57388
2140.70652	0.57338
2138.77795	0.57288
2136.84939	0.57234
2134.92082	0.57183
2132.99226	0.57147
2131.06369	0.57115
2129.13513	0.57065
2127.20657	0.56994
2125.27800	0.56914
2123.34944	0.56850
2121.42087	0.56802
2119.49231	0.56770
2117.56374	0.56764
2115.63518	0.56759
2113.70661	0.56726
2111.77805	0.56691
2109.84949	0.56696
2107.92092	0.56724
2105.99236	0.56723
2104.06379	0.56698
2102.13523	0.56681
2100.20666	0.56666
2098.27810	0.56628
2096.34953	0.56577
2094.42097	0.56533
2092.49241	0.56493
2090.56384	0.56438
2088.63528	0.56364
2086.70671	0.56287
2084.77815	0.56213
2082.84958	0.56130
2080.92102	0.56042
2078.99245	0.55955
2077.06389	0.55855
2075.13533	0.55744
2073.20676	0.55630
2071.27820	0.55511
2069.34963	0.55407
2067.42107	0.55338
2065.49250	0.55284
2063.56394	0.55224
2061.63537	0.55156
2059.70681	0.55075
2057.77825	0.54987
2055.84968	0.54924
2053.92112	0.54895
2051.99255	0.54870
2050.06399	0.54832
2048.13542	0.54797
2046.20686	0.54775
2044.27830	0.54740
2042.34973	0.54687
2040.42117	0.54636
2038.49260	0.54587
2036.56404	0.54540
2034.63547	0.54504
2032.70691	0.54460
2030.77834	0.54396
2028.84978	0.54317
2026.92122	0.54231
2024.99265	0.54146
2023.06409	0.54058
2021.13552	0.53965
2019.20696	0.53866
2017.27839	0.53757
2015.34983	0.53653
2013.42126	0.53561
2011.49270	0.53473
2009.56414	0.53390
2007.63557	0.53316
2005.70701	0.53239
2003.77844	0.53150
2001.84988	0.53069
1999.92131	0.53010
1997.99275	0.52982
1996.06418	0.52990
1994.13562	0.52993
1992.20706	0.52958
1990.27849	0.52920
1988.34993	0.52898
1986.42136	0.52877
1984.49280	0.52879
1982.56423	0.52904
1980.63567	0.52919
1978.70710	0.52906
1976.77854	0.52858
1974.84998	0.52800
1972.92141	0.52765
1970.99285	0.52747
1969.06428	0.52711
1967.13572	0.52637
1965.20715	0.52537
1963.27859	0.52436
1961.35002	0.52346
1959.42146	0.52264
1957.49290	0.52176
1955.56433	0.52075
1953.63577	0.51964
1951.70720	0.51860
1949.77864	0.51783
1947.85007	0.51731
1945.92151	0.51682
1943.99294	0.51595
1942.06438	0.51454
1940.13582	0.51345
1938.20725	0.51307
1936.27869	0.51286
1934.35012	0.51259
1932.42156	0.51228
1930.49299	0.51194
1928.56443	0.51170
1926.63586	0.51164
1924.70730	0.51169
1922.77874	0.51160
1920.85017	0.51142
1918.92161	0.51103
1916.99304	0.51019
1915.06448	0.50923
1913.13591	0.50836
1911.20735	0.50746
1909.27878	0.50656
1907.35022	0.50586
1905.42166	0.50535
1903.49309	0.50477
1901.56453	0.50410
1899.63596	0.50374
1897.70740	0.50358
1895.77883	0.50322
1893.85027	0.50295
1891.92171	0.50300
1889.99314	0.50279
1888.06458	0.50248
1886.13601	0.50272
1884.20745	0.50304
1882.27888	0.50303
1880.35032	0.50292
1878.42175	0.50295
1876.49319	0.50313
1874.56463	0.50323
1872.63606	0.50332
1870.70750	0.50344
1868.77893	0.50288
1866.85037	0.50166
1864.92180	0.50092
1862.99324	0.50039
1861.06467	0.49959
1859.13611	0.49857
1857.20755	0.49742
1855.27898	0.49628
1853.35042	0.49519
1851.42185	0.49416
1849.49329	0.49335
1847.56472	0.49275
1845.63616	0.49195
1843.70759	0.49064
1841.77903	0.48984
1839.85047	0.48971
1837.92190	0.48956
1835.99334	0.48919
1834.06477	0.48896
1832.13621	0.48895
1830.20764	0.48856
1828.27908	0.48783
1826.35051	0.48729
1824.42195	0.48669
1822.49339	0.48637
1820.56482	0.48640
1818.63626	0.48626
1816.70769	0.48580
1814.77913	0.48548
1812.85056	0.48546
1810.92200	0.48527
1808.99343	0.48495
1807.06487	0.48488
1805.13631	0.48506
1803.20774	0.48537
1801.27918	0.48547
1799.35061	0.48514
1797.42205	0.48499
1795.49348	0.48543
1793.56492	0.48585
1791.63635	0.48549
1789.70779	0.48519
1787.77923	0.48577
1785.85066	0.48672
1783.92210	0.48763
1781.99353	0.48841
1780.06497	0.48895
1778.13640	0.48966
1776.20784	0.49075
1774.27927	0.49207
1772.35071	0.49341
1770.42215	0.49462
1768.49358	0.49579
1766.56502	0.49703
1764.63645	0.49858
1762.70789	0.50041
1760.77932	0.50256
1758.85076	0.50507
1756.92220	0.50837
1754.99363	0.51235
1753.06507	0.51695
1751.13650	0.52334
1749.20794	0.53146
1747.27937	0.53891
1745.35081	0.54510
1743.42224	0.55063
1741.49368	0.55583
1739.56512	0.56092
1737.63655	0.56536
1735.70799	0.56904
1733.77942	0.57337
1731.85086	0.57796
1729.92229	0.58247
1727.99373	0.58729
1726.06516	0.59237
1724.13660	0.59870
1722.20804	0.60595
1720.27947	0.61329
1718.35091	0.62283
1716.42234	0.63682
1714.49378	0.64933
1712.56521	0.66037
1710.63665	0.67318
1708.70808	0.68880
1706.77952	0.71154
1704.85096	0.74211
1702.92239	0.77112
1700.99383	0.81190
1699.06526	0.87709
1697.13670	0.93979
1695.20813	1.00152
1693.27957	1.04830
1691.35100	1.08646
1689.42244	1.13276
1687.49388	1.17648
1685.56531	1.21989
1683.63675	1.28563
1681.70818	1.33538
1679.77962	1.36568
1677.85105	1.39371
1675.92249	1.42523
1673.99392	1.45893
1672.06536	1.48693
1670.13680	1.51285
1668.20823	1.53349
1666.27967	1.54267
1664.35110	1.55224
1662.42254	1.56596
1660.49397	1.57479
1658.56541	1.57878
1656.63684	1.58167
1654.70828	1.58701
1652.77972	1.58896
1650.85115	1.58374
1648.92259	1.58013
1646.99402	1.57439
1645.06546	1.56785
1643.13689	1.56313
1641.20833	1.56105
1639.27976	1.55974
1637.35120	1.55589
1635.42264	1.54797
1633.49407	1.54265
1631.56551	1.53963
1629.63694	1.53505
1627.70838	1.52988
1625.77981	1.52255
1623.85125	1.50800
1621.92269	1.48940
1619.99412	1.47446
1618.06556	1.45461
1616.13699	1.42084
1614.20843	1.39285
1612.27986	1.36998
1610.35130	1.34333
1608.42273	1.31549
1606.49417	1.29204
1604.56561	1.27334
1602.63704	1.25765
1600.70848	1.24559
1598.77991	1.23674
1596.85135	1.22942
1594.92278	1.22342
1592.99422	1.22020
1591.06565	1.22002
1589.13709	1.22238
1587.20853	1.22786
1585.27996	1.23645
1583.35140	1.24757
1581.42283	1.26008
1579.49427	1.27267
1577.56570	1.28848
1575.63714	1.31056
1573.70857	1.32595
1571.78001	1.33596
1569.85145	1.35173
1567.92288	1.37104
1565.99432	1.38564
1564.06575	1.39890
1562.13719	1.40989
1560.20862	1.41984
1558.28006	1.43581
1556.35149	1.44603
1554.42293	1.45061
1552.49437	1.45236
1550.56580	1.45239
1548.63724	1.45121
1546.70867	1.44930
1544.78011	1.44633
1542.85154	1.44261
1540.92298	1.43506
1538.99441	1.42152
1537.06585	1.41556
1535.13729	1.41050
1533.20872	1.40129
1531.28016	1.39328
1529.35159	1.38787
1527.42303	1.37907
1525.49446	1.36830
1523.56590	1.36298
1521.63733	1.36072
1519.70877	1.35761
1517.78021	1.34973
1515.85164	1.33443
1513.92308	1.31619
1511.99451	1.29797
1510.06595	1.28163
1508.13738	1.25546
1506.20882	1.20348
1504.28025	1.17776
1502.35169	1.16463
1500.42313	1.14887
1498.49456	1.12563
1496.56600	1.09618
1494.63743	1.07441
1492.70887	1.06059
1490.78030	1.04451
1488.85174	1.02297
1486.92317	1.00708
1484.99461	0.99782
1483.06605	0.99204
1481.13748	0.98907
1479.20892	0.98944
1477.28035	0.99430
1475.35179	1.00483
1473.42322	1.02366
1471.49466	1.04552
1469.56610	1.05916
1467.63753	1.06873
1465.70897	1.07850
1463.78040	1.08790
1461.85184	1.09502
1459.92327	1.10134
1457.99471	1.10955
1456.06614	1.11690
1454.13758	1.11905
1452.20902	1.11903
1450.28045	1.11782
1448.35189	1.11497
1446.42332	1.11046
1444.49476	1.10546
1442.56619	1.09997
1440.63763	1.09413
1438.70906	1.08680
1436.78050	1.07507
1434.85194	1.06312
1432.92337	1.05445
1430.99481	1.04553
1429.06624	1.03680
1427.13768	1.03145
1425.20911	1.02956
1423.28055	1.03043
1421.35198	1.03312
1419.42342	1.03712
1417.49486	1.04110
1415.56629	1.04348
1413.63773	1.04469
1411.70916	1.04497
1409.78060	1.04513
1407.85203	1.04609
1405.92347	1.04845
1403.99490	1.05147
1402.06634	1.05344
1400.13778	1.05453
1398.20921	1.05541
1396.28065	1.05627
1394.35208	1.05724
1392.42352	1.05922
1390.49495	1.06308
1388.56639	1.07040
1386.63782	1.08221
1384.70926	1.09469
1382.78070	1.10531
1380.85213	1.11315
1378.92357	1.11626
1376.99500	1.11367
1375.06644	1.10436
1373.13787	1.08931
1371.20931	1.07298
1369.28074	1.05466
1367.35218	1.03468
1365.42362	1.01680
1363.49505	0.99990
1361.56649	0.98445
1359.63792	0.97425
1357.70936	0.96781
1355.78079	0.96299
1353.85223	0.95950
1351.92366	0.95717
1349.99510	0.95566
1348.06654	0.95484
1346.13797	0.95474
1344.20941	0.95550
1342.28084	0.95699
1340.35228	0.95892
1338.42371	0.96142
1336.49515	0.96531
1334.56659	0.97104
1332.63802	0.97845
1330.70946	0.98688
1328.78089	0.99467
1326.85233	1.00026
1324.92376	1.00379
1322.99520	1.00633
1321.06663	1.00883
1319.13807	1.01150
1317.20951	1.01366
1315.28094	1.01478
1313.35238	1.01518
1311.42381	1.01500
1309.49525	1.01380
1307.56668	1.01137
1305.63812	1.00836
1303.70955	1.00545
1301.78099	1.00247
1299.85243	0.99885
1297.92386	0.99415
1295.99530	0.98871
1294.06673	0.98388
1292.13817	0.98098
1290.20960	0.98002
1288.28104	0.97997
1286.35247	0.98028
1284.42391	0.98062
1282.49535	0.98053
1280.56678	0.98040
1278.63822	0.98112
1276.70965	0.98337
1274.78109	0.98755
1272.85252	0.99332
1270.92396	0.99959
1268.99539	1.00601
1267.06683	1.01277
1265.13827	1.01893
1263.20970	1.02340
1261.28114	1.02615
1259.35257	1.02805
1257.42401	1.03011
1255.49544	1.03277
1253.56688	1.03604
1251.63831	1.03922
1249.70975	1.04126
1247.78119	1.04213
1245.85262	1.04249
1243.92406	1.04231
1241.99549	1.04147
1240.06693	1.03996
1238.13836	1.03746
1236.20980	1.03362
1234.28123	1.02817
1232.35267	1.02101
1230.42411	1.01259
1228.49554	1.00374
1226.56698	0.99482
1224.63841	0.98546
1222.70985	0.97568
1220.78128	0.96621
1218.85272	0.95746
1216.92415	0.94977
1214.99559	0.94444
1213.06703	0.94261
1211.13846	0.94347
1209.20990	0.94513
1207.28133	0.94599
1205.35277	0.94420
1203.42420	0.93850
1201.49564	0.92963
1199.56708	0.91924
1197.63851	0.90840
1195.70995	0.89767
1193.78138	0.88771
1191.85282	0.87954
1189.92425	0.87341
1187.99569	0.86866
1186.06712	0.86521
1184.13856	0.86356
1182.21000	0.86397
1180.28143	0.86657
1178.35287	0.87126
1176.42430	0.87793
1174.49574	0.88635
1172.56717	0.89600
1170.63861	0.90677
1168.71004	0.91967
1166.78148	0.93605
1164.85292	0.95577
1162.92435	0.97612
1160.99579	0.99294
1159.06722	1.00257
1157.13866	1.00302
1155.21009	0.99471
1153.28153	0.98017
1151.35296	0.96223
1149.42440	0.94312
1147.49584	0.92467
1145.56727	0.90877
1143.63871	0.89746
1141.71014	0.89145
1139.78158	0.88953
1137.85301	0.89028
1135.92445	0.89344
1133.99588	0.89967
1132.06732	0.90998
1130.13876	0.92457
1128.21019	0.94167
1126.28163	0.95879
1124.35306	0.97422
1122.42450	0.98733
1120.49593	0.99874
1118.56737	1.00847
1116.63880	1.01521
1114.71024	1.01834
1112.78168	1.01797
1110.85311	1.01451
1108.92455	1.00941
1106.99598	1.00484
1105.06742	1.00203
1103.13885	1.00022
1101.21029	0.99882
1099.28172	0.99949
1097.35316	1.00394
1095.42460	1.01197
1093.49603	1.02269
1091.56747	1.03580
1089.63890	1.05099
1087.71034	1.06791
1085.78177	1.08700
1083.85321	1.10766
1081.92464	1.12615
1079.99608	1.13803
1078.06752	1.14181
1076.13895	1.13816
1074.21039	1.12819
1072.28182	1.11362
1070.35326	1.09662
1068.42469	1.07948
1066.49613	1.06396
1064.56756	1.05073
1062.63900	1.03900
1060.71044	1.02757
1058.78187	1.01693
1056.85331	1.00765
1054.92474	0.99984
1052.99618	0.99413
1051.06761	0.99075
1049.13905	0.98998
1047.21049	0.99256
1045.28192	0.99881
1043.35336	1.00814
1041.42479	1.01853
1039.49623	1.02771
1037.56766	1.03470
1035.63910	1.03914
1033.71053	1.04042
1031.78197	1.03785
1029.85341	1.03140
1027.92484	1.02217
1025.99628	1.01120
1024.06771	0.99873
1022.13915	0.98582
1020.21058	0.97453
1018.28202	0.96571
1016.35345	0.95796
1014.42489	0.94876
1012.49633	0.93648
1010.56776	0.92105
1008.63920	0.90379
1006.71063	0.88718
1004.78207	0.87326
1002.85350	0.86253
1000.92494	0.85439
998.99637	0.84851
997.06781	0.84465
995.13925	0.84131
993.21068	0.83686
991.28212	0.83098
989.35355	0.82350
987.42499	0.81457
985.49642	0.80537
983.56786	0.79712
981.63929	0.79039
979.71073	0.78511
977.78217	0.78050
975.85360	0.77549
973.92504	0.76898
971.99647	0.76032
970.06791	0.75005
968.13934	0.73949
966.21078	0.72990
964.28221	0.72266
962.35365	0.71945
960.42509	0.72177
958.49652	0.72911
956.56796	0.73706
954.63939	0.74026
952.71083	0.73746
950.78226	0.73075
948.85370	0.72272
946.92513	0.71574
944.99657	0.71102
943.06801	0.70853
941.13944	0.70780
939.21088	0.70835
937.28231	0.70975
935.35375	0.71166
933.42518	0.71387
931.49662	0.71661
929.56805	0.72010
927.63949	0.72396
925.71093	0.72801
923.78236	0.73258
921.85380	0.73727
919.92523	0.74097
917.99667	0.74345
916.06810	0.74542
914.13954	0.74731
912.21098	0.74916
910.28241	0.75132
908.35385	0.75435
906.42528	0.75829
904.49672	0.76241
902.56815	0.76598
900.63959	0.76863
898.71102	0.76981
896.78246	0.76911
894.85390	0.76695
892.92533	0.76417
890.99677	0.76118
889.06820	0.75794
887.13964	0.75424
885.21107	0.75014
883.28251	0.74631
881.35394	0.74345
879.42538	0.74169
877.49682	0.74050
875.56825	0.73901
873.63969	0.73699
871.71112	0.73528
869.78256	0.73430
867.85399	0.73374
865.92543	0.73369
863.99686	0.73446
862.06830	0.73613
860.13974	0.73870
858.21117	0.74201
856.28261	0.74582
854.35404	0.74986
852.42548	0.75380
850.49691	0.75723
848.56835	0.75999
846.63978	0.76259
844.71122	0.76558
842.78266	0.76925
840.85409	0.77342
838.92553	0.77763
836.99696	0.78217
835.06840	0.78747
833.13983	0.79305
831.21127	0.79806
829.28270	0.80235
827.35414	0.80647
825.42558	0.81073
823.49701	0.81502
821.56845	0.81935
819.63988	0.82374
817.71132	0.82838
815.78275	0.83305
813.85419	0.83693
811.92562	0.84040
809.99706	0.84437
808.06850	0.84827
806.13993	0.85103
804.21137	0.85286
802.28280	0.85476
800.35424	0.85663
798.42567	0.85781
796.49711	0.85875
794.56854	0.85993
792.63998	0.86142
790.71142	0.86393
788.78285	0.86737
786.85429	0.87044
784.92572	0.87295
782.99716	0.87547
781.06859	0.87814
779.14003	0.88134
777.21147	0.88575
775.28290	0.89082
773.35434	0.89470
771.42577	0.89737
769.49721	0.90087
767.56864	0.90528
765.64008	0.90921
763.71151	0.91286
761.78295	0.91633
759.85439	0.91928
757.92582	0.92234
755.99726	0.92551
754.06869	0.92837
752.14013	0.93159
750.21156	0.93527
748.28300	0.93858
746.35443	0.94122
744.42587	0.94339
742.49731	0.94490
740.56874	0.94600
738.64018	0.94774
736.71161	0.95070
734.78305	0.95492
732.85448	0.95951
730.92592	0.96386
728.99735	0.96834
727.06879	0.97247
725.14023	0.97664
723.21166	0.98182
721.28310	0.98654
719.35453	0.98987
717.42597	0.99285
715.49740	0.99559
713.56884	0.99777
711.64027	0.99946
709.71171	1.00114
707.78315	1.00315
705.85458	1.00435
703.92602	1.00420
701.99745	1.00430
700.06889	1.00560
698.14032	1.00713
696.21176	1.00766
694.28319	1.00709
692.35463	1.00626
690.42607	1.00576
688.49750	1.00506
686.56894	1.00370
684.64037	1.00348
682.71181	1.00591
680.78324	1.00886
678.85468	1.01044
676.92611	1.01184
674.99755	1.01430
673.06899	1.01720
671.14042	1.01866
669.21186	1.01901
667.28329	1.02137
665.35473	1.02349
663.42616	1.02469
661.49760	1.02610
659.56903	1.02800
657.64047	1.03089
655.71191	1.03311
653.78334	1.03410
651.85478	1.03669
649.92621	1.03973
647.99765	1.04074
646.06908	1.04268
644.14052	1.04737
642.21195	1.05337
640.28339	1.06019
638.35483	1.06572
636.42626	1.06872
634.49770	1.07183
632.56913	1.07501
630.64057	1.07705
628.71200	1.07870
626.78344	1.07831
624.85488	1.07600
622.92631	1.07503
620.99775	1.07372
619.06918	1.06848
617.14062	1.06202
615.21205	1.06045
613.28349	1.06187
611.35492	1.05792
609.42636	1.04727
607.49780	1.03507
605.56923	1.02471
603.64067	1.01790
601.71210	1.01306
599.78354	1.00682
