3997.91406	1.39942
3995.98550	1.39175
3994.05693	1.38808
3992.12837	1.38889
3990.19980	1.39221
3988.27124	1.39411
3986.34268	1.39344
3984.41411	1.39206
3982.48555	1.39129
3980.55698	1.39108
3978.62842	1.38866
3976.69985	1.38471
3974.77129	1.38395
3972.84272	1.38281
3970.91416	1.37714
3968.98560	1.37223
3967.05703	1.37163
3965.12847	1.37392
3963.19990	1.37658
3961.27134	1.37576
3959.34277	1.36985
3957.41421	1.36326
3955.48564	1.36095
3953.55708	1.36304
3951.62852	1.36619
3949.69995	1.36707
3947.77139	1.36345
3945.84282	1.35655
3943.91426	1.35294
3941.98569	1.35553
3940.05713	1.35747
3938.12856	1.35468
3936.20000	1.34637
3934.27144	1.33414
3932.34287	1.32801
3930.41431	1.33355
3928.48574	1.33713
3926.55718	1.33509
3924.62861	1.33619
3922.70005	1.33662
3920.77148	1.33296
3918.84292	1.33211
3916.91436	1.33565
3914.98579	1.33808
3913.05723	1.33621
3911.12866	1.33269
3909.20010	1.32848
3907.27153	1.32237
3905.34297	1.31898
3903.41440	1.32294
3901.48584	1.32991
3899.55728	1.33620
3897.62871	1.33384
3895.70015	1.32183
3893.77158	1.31101
3891.84302	1.31009
3889.91445	1.30659
3887.98589	1.29506
3886.05733	1.29127
3884.12876	1.29747
3882.20020	1.30152
3880.27163	1.30764
3878.34307	1.31023
3876.41450	1.30693
3874.48594	1.30133
3872.55737	1.29060
3870.62881	1.28804
3868.70025	1.29465
3866.77168	1.28989
3864.84312	1.28860
3862.91455	1.30193
3860.98599	1.30444
3859.05742	1.29080
3857.12886	1.27168
3855.20029	1.26352
3853.27173	1.29126
3851.34317	1.30413
3849.41460	1.29238
3847.48604	1.28174
3845.55747	1.27466
3843.62891	1.26966
3841.70034	1.26686
3839.77178	1.27316
3837.84321	1.29081
3835.91465	1.29320
3833.98609	1.28015
3832.05752	1.27246
3830.12896	1.27360
3828.20039	1.27412
3826.27183	1.26774
3824.34326	1.25573
3822.41470	1.25335
3820.48613	1.26773
3818.55757	1.27107
3816.62901	1.27446
3814.70044	1.28061
3812.77188	1.27380
3810.84331	1.26251
3808.91475	1.25626
3806.98618	1.25721
3805.05762	1.25459
3803.12905	1.25165
3801.20049	1.26061
3799.27193	1.26275
3797.34336	1.25786
3795.41480	1.25458
3793.48623	1.24872
3791.55767	1.24232
3789.62910	1.23869
3787.70054	1.23747
3785.77197	1.23846
3783.84341	1.23871
3781.91485	1.23843
3779.98628	1.24534
3778.05772	1.25220
3776.12915	1.24623
3774.20059	1.23532
3772.27202	1.22927
3770.34346	1.23241
3768.41489	1.23791
3766.48633	1.24038
3764.55777	1.24018
3762.62920	1.23519
3760.70064	1.23205
3758.77207	1.23367
3756.84351	1.22918
3754.91494	1.21925
3752.98638	1.21186
3751.05781	1.21770
3749.12925	1.22524
3747.20069	1.22038
3745.27212	1.22445
3743.34356	1.23853
3741.41499	1.23432
3739.48643	1.21528
3737.55786	1.19765
3735.62930	1.20100
3733.70074	1.21753
3731.77217	1.22017
3729.84361	1.21430
3727.91504	1.20794
3725.98648	1.20495
3724.05791	1.20500
3722.12935	1.20623
3720.20078	1.20832
3718.27222	1.21026
3716.34366	1.21003
3714.41509	1.20739
3712.48653	1.21089
3710.55796	1.22295
3708.62940	1.22229
3706.70083	1.21345
3704.77227	1.20589
3702.84370	1.20591
3700.91514	1.21132
3698.98658	1.20954
3697.05801	1.20342
3695.12945	1.19890
3693.20088	1.19311
3691.27232	1.18972
3689.34375	1.20522
3687.41519	1.21829
3685.48662	1.21472
3683.55806	1.20850
3681.62950	1.20458
3679.70093	1.20180
3677.77237	1.20172
3675.84380	1.21493
3673.91524	1.22079
3671.98667	1.21235
3670.05811	1.22249
3668.12954	1.24033
3666.20098	1.23999
3664.27242	1.23562
3662.34385	1.23580
3660.41529	1.23778
3658.48672	1.23939
3656.55816	1.24548
3654.62959	1.24820
3652.70103	1.23883
3650.77246	1.23326
3648.84390	1.26301
3646.91534	1.28658
3644.98677	1.28622
3643.05821	1.28525
3641.12964	1.28901
3639.20108	1.29446
3637.27251	1.29807
3635.34395	1.29971
3633.41538	1.29936
3631.48682	1.29821
3629.55826	1.31458
3627.62969	1.34201
3625.70113	1.34029
3623.77256	1.32756
3621.84400	1.31886
3619.91543	1.32479
3617.98687	1.34181
3616.05830	1.35014
3614.12974	1.35628
3612.20118	1.36142
3610.27261	1.36010
3608.34405	1.36546
3606.41548	1.37839
3604.48692	1.38361
3602.55835	1.38411
3600.62979	1.38774
3598.70123	1.39151
3596.77266	1.39335
3594.84410	1.40240
3592.91553	1.41382
3590.98697	1.41299
3589.05840	1.40943
3587.12984	1.42077
3585.20127	1.43463
3583.27271	1.44120
3581.34415	1.44486
3579.41558	1.44544
3577.48702	1.44667
3575.55845	1.45501
3573.62989	1.46611
3571.70132	1.46953
3569.77276	1.46833
3567.84419	1.48024
3565.91563	1.50420
3563.98707	1.51144
3562.05850	1.50951
3560.12994	1.50800
3558.20137	1.50671
3556.27281	1.50775
3554.34424	1.51455
3552.41568	1.52684
3550.48711	1.53496
3548.55855	1.53761
3546.62999	1.54595
3544.70142	1.55516
3542.77286	1.55425
3540.84429	1.55166
3538.91573	1.55530
3536.98716	1.56526
3535.05860	1.57534
3533.13003	1.58013
3531.20147	1.58163
3529.27291	1.58507
3527.34434	1.59480
3525.41578	1.60985
3523.48721	1.62586
3521.55865	1.63525
3519.63008	1.63460
3517.70152	1.63026
3515.77295	1.62899
3513.84439	1.63429
3511.91583	1.64541
3509.98726	1.65576
3508.05870	1.65887
3506.13013	1.66137
3504.20157	1.67816
3502.27300	1.70563
3500.34444	1.72358
3498.41587	1.73252
3496.48731	1.74030
3494.55875	1.74902
3492.63018	1.75722
3490.70162	1.76075
3488.77305	1.76229
3486.84449	1.76857
3484.91592	1.77572
3482.98736	1.78282
3481.05879	1.79524
3479.13023	1.80411
3477.20167	1.80174
3475.27310	1.79261
3473.34454	1.78561
3471.41597	1.78763
3469.48741	1.79453
3467.55884	1.80014
3465.63028	1.80647
3463.70171	1.81565
3461.77315	1.81903
3459.84459	1.81021
3457.91602	1.80041
3455.98746	1.79928
3454.05889	1.80672
3452.13033	1.81927
3450.20176	1.83349
3448.27320	1.85498
3446.34464	1.88400
3444.41607	1.89951
3442.48751	1.89220
3440.55894	1.87886
3438.63038	1.87317
3436.70181	1.86815
3434.77325	1.86051
3432.84468	1.86042
3430.91612	1.86627
3428.98756	1.86725
3427.05899	1.86186
3425.13043	1.85469
3423.20186	1.84779
3421.27330	1.84289
3419.34473	1.84577
3417.41617	1.85569
3415.48760	1.86052
3413.55904	1.85343
3411.63048	1.84803
3409.70191	1.85531
3407.77335	1.86602
3405.84478	1.87048
3403.91622	1.86387
3401.98765	1.84851
3400.05909	1.83782
3398.13052	1.83721
3396.20196	1.84545
3394.27340	1.86222
3392.34483	1.87165
3390.41627	1.85487
3388.48770	1.83288
3386.55914	1.83217
3384.63057	1.84240
3382.70201	1.84118
3380.77344	1.83292
3378.84488	1.83603
3376.91632	1.84868
3374.98775	1.85339
3373.05919	1.85096
3371.13062	1.85409
3369.20206	1.85924
3367.27349	1.85385
3365.34493	1.84147
3363.41636	1.83357
3361.48780	1.83271
3359.55924	1.83721
3357.63067	1.84323
3355.70211	1.84861
3353.77354	1.85277
3351.84498	1.85496
3349.91641	1.85916
3347.98785	1.86841
3346.05928	1.87508
3344.13072	1.86773
3342.20216	1.85479
3340.27359	1.85354
3338.34503	1.86355
3336.41646	1.87514
3334.48790	1.88082
3332.55933	1.87930
3330.63077	1.87868
3328.70220	1.88370
3326.77364	1.88595
3324.84508	1.88181
3322.91651	1.88285
3320.98795	1.89229
3319.05938	1.89993
3317.13082	1.90017
3315.20225	1.89912
3313.27369	1.90662
3311.34513	1.92013
3309.41656	1.92492
3307.48800	1.91711
3305.55943	1.91281
3303.63087	1.92432
3301.70230	1.93992
3299.77374	1.94638
3297.84517	1.95190
3295.91661	1.95774
3293.98805	1.95816
3292.05948	1.96259
3290.13092	1.97297
3288.20235	1.97733
3286.27379	1.97477
3284.34522	1.97559
3282.41666	1.98017
3280.48809	1.97755
3278.55953	1.96819
3276.63097	1.95856
3274.70240	1.94850
3272.77384	1.94046
3270.84527	1.93272
3268.91671	1.92097
3266.98814	1.91321
3265.05958	1.91576
3263.13101	1.92045
3261.20245	1.91979
3259.27389	1.91394
3257.34532	1.91002
3255.41676	1.91381
3253.48819	1.91495
3251.55963	1.90213
3249.63106	1.87795
3247.70250	1.85285
3245.77393	1.83793
3243.84537	1.83160
3241.91681	1.82471
3239.98824	1.81608
3238.05968	1.80695
3236.13111	1.79655
3234.20255	1.78834
3232.27398	1.78267
3230.34542	1.77187
3228.41685	1.76014
3226.48829	1.75809
3224.55973	1.75843
3222.63116	1.75107
3220.70260	1.73858
3218.77403	1.72642
3216.84547	1.71968
3214.91690	1.71882
3212.98834	1.71817
3211.05977	1.71381
3209.13121	1.70529
3207.20265	1.69643
3205.27408	1.69143
3203.34552	1.68417
3201.41695	1.67030
3199.48839	1.65948
3197.55982	1.65495
3195.63126	1.64989
3193.70269	1.64489
3191.77413	1.64153
3189.84557	1.63742
3187.91700	1.63107
3185.98844	1.62197
3184.05987	1.61399
3182.13131	1.60918
3180.20274	1.60402
3178.27418	1.59651
3176.34562	1.58758
3174.41705	1.58179
3172.48849	1.58183
3170.55992	1.58145
3168.63136	1.57490
3166.70279	1.56559
3164.77423	1.55866
3162.84566	1.55341
3160.91710	1.54615
3158.98854	1.53850
3157.05997	1.53542
3155.13141	1.53551
3153.20284	1.53452
3151.27428	1.53171
3149.34571	1.52693
3147.41715	1.52097
3145.48858	1.51508
3143.56002	1.50931
3141.63146	1.50504
3139.70289	1.50268
3137.77433	1.49963
3135.84576	1.49581
3133.91720	1.49450
3131.98863	1.49536
3130.06007	1.49592
3128.13150	1.49613
3126.20294	1.49512
3124.27438	1.49334
3122.34581	1.49196
3120.41725	1.48864
3118.48868	1.48377
3116.56012	1.48215
3114.63155	1.48558
3112.70299	1.49041
3110.77442	1.49270
3108.84586	1.49208
3106.91730	1.48998
3104.98873	1.48728
3103.06017	1.48411
3101.13160	1.48176
3099.20304	1.48128
3097.27447	1.48142
3095.34591	1.48072
3093.41734	1.47811
3091.48878	1.47476
3089.56022	1.47257
3087.63165	1.46986
3085.70309	1.46522
3083.77452	1.46029
3081.84596	1.45622
3079.91739	1.45248
3077.98883	1.45027
3076.06026	1.45086
3074.13170	1.45121
3072.20314	1.44957
3070.27457	1.44688
3068.34601	1.44150
3066.41744	1.43469
3064.48888	1.43146
3062.56031	1.42965
3060.63175	1.42291
3058.70318	1.41387
3056.77462	1.40957
3054.84606	1.40790
3052.91749	1.40269
3050.98893	1.39546
3049.06036	1.39043
3047.13180	1.38811
3045.20323	1.38684
3043.27467	1.38451
3041.34610	1.38011
3039.41754	1.37440
3037.48898	1.36864
3035.56041	1.36299
3033.63185	1.35678
3031.70328	1.35117
3029.77472	1.34758
3027.84615	1.34453
3025.91759	1.34015
3023.98903	1.33517
3022.06046	1.33095
3020.13190	1.32743
3018.20333	1.32494
3016.27477	1.32339
3014.34620	1.32110
3012.41764	1.31806
3010.48907	1.31574
3008.56051	1.31359
3006.63195	1.31082
3004.70338	1.30824
3002.77482	1.30638
3000.84625	1.30596
2998.91769	1.30707
2996.98912	1.30853
2995.06056	1.31049
2993.13199	1.31294
2991.20343	1.31586
2989.27487	1.32026
2987.34630	1.32451
2985.41774	1.32670
2983.48917	1.32927
2981.56061	1.33455
2979.63204	1.33935
2977.70348	1.34098
2975.77491	1.34304
2973.84635	1.34845
2971.91779	1.35602
2969.98922	1.36385
2968.06066	1.36977
2966.13209	1.37259
2964.20353	1.37368
2962.27496	1.37429
2960.34640	1.37375
2958.41783	1.37188
2956.48927	1.37021
2954.56071	1.36837
2952.63214	1.36438
2950.70358	1.35875
2948.77501	1.35375
2946.84645	1.35172
2944.91788	1.35322
2942.98932	1.35574
2941.06075	1.35931
2939.13219	1.36704
2937.20363	1.37708
2935.27506	1.38467
2933.34650	1.38962
2931.41793	1.39414
2929.48937	1.39895
2927.56080	1.40362
2925.63224	1.40768
2923.70367	1.41017
2921.77511	1.41002
2919.84655	1.40850
2917.91798	1.40517
2915.98942	1.39469
2914.06085	1.37641
2912.13229	1.35694
2910.20372	1.34112
2908.27516	1.32941
2906.34659	1.32064
2904.41803	1.31328
2902.48947	1.30618
2900.56090	1.30011
2898.63234	1.29638
2896.70377	1.29419
2894.77521	1.29165
2892.84664	1.28797
2890.91808	1.28372
2888.98952	1.27907
2887.06095	1.27458
2885.13239	1.27234
2883.20382	1.27303
2881.27526	1.27450
2879.34669	1.27386
2877.41813	1.27069
2875.48956	1.26767
2873.56100	1.26585
2871.63244	1.26249
2869.70387	1.25548
2867.77531	1.24735
2865.84674	1.24190
2863.91818	1.23925
2861.98961	1.23842
2860.06105	1.23970
2858.13248	1.24275
2856.20392	1.24712
2854.27536	1.25266
2852.34679	1.25749
2850.41823	1.25785
2848.48966	1.24937
2846.56110	1.23079
2844.63253	1.20854
2842.70397	1.19066
2840.77540	1.17903
2838.84684	1.17154
2836.91828	1.16584
2834.98971	1.16047
2833.06115	1.15507
2831.13258	1.14977
2829.20402	1.14474
2827.27545	1.14025
2825.34689	1.13590
2823.41832	1.13094
2821.48976	1.12583
2819.56120	1.12184
2817.63263	1.11905
2815.70407	1.11652
2813.77550	1.11388
2811.84694	1.11156
2809.91837	1.10939
2807.98981	1.10721
2806.06124	1.10528
2804.13268	1.10352
2802.20412	1.10121
2800.27555	1.09759
2798.34699	1.09314
2796.41842	1.08977
2794.48986	1.08820
2792.56129	1.08629
2790.63273	1.08268
2788.70416	1.07908
2786.77560	1.07651
2784.84704	1.07386
2782.91847	1.07061
2780.98991	1.06759
2779.06134	1.06533
2777.13278	1.06346
2775.20421	1.06093
2773.27565	1.05749
2771.34708	1.05504
2769.41852	1.05443
2767.48996	1.05377
2765.56139	1.05200
2763.63283	1.04970
2761.70426	1.04735
2759.77570	1.04525
2757.84713	1.04381
2755.91857	1.04244
2753.99001	1.04053
2752.06144	1.03882
2750.13288	1.03786
2748.20431	1.03683
2746.27575	1.03505
2744.34718	1.03327
2742.41862	1.03199
2740.49005	1.03049
2738.56149	1.02835
2736.63293	1.02590
2734.70436	1.02384
2732.77580	1.02222
2730.84723	1.02054
2728.91867	1.01872
2726.99010	1.01643
2725.06154	1.01386
2723.13297	1.01174
2721.20441	1.00984
2719.27585	1.00806
2717.34728	1.00635
2715.41872	1.00431
2713.49015	1.00277
2711.56159	1.00192
2709.63302	1.00020
2707.70446	0.99787
2705.77589	0.99618
2703.84733	0.99455
2701.91877	0.99249
2699.99020	0.99043
2698.06164	0.98869
2696.13307	0.98733
2694.20451	0.98593
2692.27594	0.98460
2690.34738	0.98387
2688.41881	0.98321
2686.49025	0.98201
2684.56169	0.98083
2682.63312	0.97989
2680.70456	0.97837
2678.77599	0.97636
2676.84743	0.97479
2674.91886	0.97353
2672.99030	0.97190
2671.06173	0.97008
2669.13317	0.96841
2667.20461	0.96654
2665.27604	0.96425
2663.34748	0.96222
2661.41891	0.96120
2659.49035	0.96084
2657.56178	0.96008
2655.63322	0.95873
2653.70465	0.95735
2651.77609	0.95610
2649.84753	0.95518
2647.91896	0.95470
2645.99040	0.95431
2644.06183	0.95369
2642.13327	0.95253
2640.20470	0.95091
2638.27614	0.94944
2636.34757	0.94818
2634.41901	0.94709
2632.49045	0.94635
2630.56188	0.94576
2628.63332	0.94505
2626.70475	0.94395
2624.77619	0.94216
2622.84762	0.94018
2620.91906	0.93851
2618.99049	0.93713
2617.06193	0.93590
2615.13337	0.93485
2613.20480	0.93402
2611.27624	0.93299
2609.34767	0.93143
2607.41911	0.92972
2605.49054	0.92823
2603.56198	0.92687
2601.63342	0.92522
2599.70485	0.92333
2597.77629	0.92195
2595.84772	0.92112
2593.91916	0.92036
2591.99059	0.91980
2590.06203	0.91921
2588.13346	0.91785
2586.20490	0.91617
2584.27634	0.91538
2582.34777	0.91539
2580.41921	0.91499
2578.49064	0.91380
2576.56208	0.91241
2574.63351	0.91094
2572.70495	0.90880
2570.77638	0.90636
2568.84782	0.90465
2566.91926	0.90309
2564.99069	0.90089
2563.06213	0.89864
2561.13356	0.89693
2559.20500	0.89553
2557.27643	0.89400
2555.34787	0.89252
2553.41930	0.89171
2551.49074	0.89125
2549.56218	0.89031
2547.63361	0.88926
2545.70505	0.88876
2543.77648	0.88866
2541.84792	0.88868
2539.91935	0.88832
2537.99079	0.88705
2536.06222	0.88552
2534.13366	0.88448
2532.20510	0.88354
2530.27653	0.88233
2528.34797	0.88090
2526.41940	0.87925
2524.49084	0.87753
2522.56227	0.87631
2520.63371	0.87561
2518.70514	0.87461
2516.77658	0.87320
2514.84802	0.87193
2512.91945	0.87080
2510.99089	0.86971
2509.06232	0.86858
2507.13376	0.86743
2505.20519	0.86636
2503.27663	0.86504
2501.34806	0.86353
2499.41950	0.86249
2497.49094	0.86166
2495.56237	0.86037
2493.63381	0.85906
2491.70524	0.85821
2489.77668	0.85742
2487.84811	0.85662
2485.91955	0.85604
2483.99098	0.85555
2482.06242	0.85497
2480.13386	0.85418
2478.20529	0.85333
2476.27673	0.85271
2474.34816	0.85178
2472.41960	0.85022
2470.49103	0.84869
2468.56247	0.84724
2466.63391	0.84529
2464.70534	0.84293
2462.77678	0.84066
2460.84821	0.83848
2458.91965	0.83626
2456.99108	0.83426
2455.06252	0.83293
2453.13395	0.83215
2451.20539	0.83124
2449.27683	0.83025
2447.34826	0.82961
2445.41970	0.82901
2443.49113	0.82831
2441.56257	0.82798
2439.63400	0.82810
2437.70544	0.82816
2435.77687	0.82807
2433.84831	0.82786
2431.91975	0.82717
2429.99118	0.82624
2428.06262	0.82516
2426.13405	0.82350
2424.20549	0.82189
2422.27692	0.82097
2420.34836	0.82004
2418.41979	0.81854
2416.49123	0.81692
2414.56267	0.81546
2412.63410	0.81389
2410.70554	0.81229
2408.77697	0.81074
2406.84841	0.80918
2404.91984	0.80794
2402.99128	0.80718
2401.06271	0.80654
2399.13415	0.80582
2397.20559	0.80510
2395.27702	0.80440
2393.34846	0.80385
2391.41989	0.80359
2389.49133	0.80329
2387.56276	0.80261
2385.63420	0.80156
2383.70563	0.80037
2381.77707	0.79956
2379.84851	0.79890
2377.91994	0.79706
2375.99138	0.79385
2374.06281	0.79054
2372.13425	0.78857
2370.20568	0.78900
2368.27712	0.78902
2366.34855	0.78430
2364.41999	0.77721
2362.49143	0.77268
2360.56286	0.77059
2358.63430	0.77074
2356.70573	0.77519
2354.77717	0.78028
2352.84860	0.78260
2350.92004	0.78190
2348.99147	0.77897
2347.06291	0.77555
2345.13435	0.77312
2343.20578	0.77116
2341.27722	0.77017
2339.34865	0.77280
2337.42009	0.77736
2335.49152	0.77986
2333.56296	0.77866
2331.63440	0.77600
2329.70583	0.77518
2327.77727	0.77623
2325.84870	0.77712
2323.92014	0.77742
2321.99157	0.77815
2320.06301	0.77867
2318.13444	0.77730
2316.20588	0.77522
2314.27732	0.77420
2312.34875	0.77331
2310.42019	0.77176
2308.49162	0.77056
2306.56306	0.77001
2304.63449	0.76944
2302.70593	0.76865
2300.77736	0.76826
2298.84880	0.76849
2296.92024	0.76879
2294.99167	0.76903
2293.06311	0.76919
2291.13454	0.76916
2289.20598	0.76923
2287.27741	0.76958
2285.34885	0.76980
2283.42028	0.76958
2281.49172	0.76909
2279.56316	0.76825
2277.63459	0.76699
2275.70603	0.76565
2273.77746	0.76446
2271.84890	0.76331
2269.92033	0.76205
2267.99177	0.76074
2266.06320	0.75949
2264.13464	0.75834
2262.20608	0.75746
2260.27751	0.75696
2258.34895	0.75662
2256.42038	0.75620
2254.49182	0.75592
2252.56325	0.75602
2250.63469	0.75634
2248.70612	0.75650
2246.77756	0.75639
2244.84900	0.75627
2242.92043	0.75600
2240.99187	0.75540
2239.06330	0.75469
2237.13474	0.75378
2235.20617	0.75275
2233.27761	0.75198
2231.34904	0.75144
2229.42048	0.75117
2227.49192	0.75106
2225.56335	0.75057
2223.63479	0.74967
2221.70622	0.74886
2219.77766	0.74823
2217.84909	0.74749
2215.92053	0.74659
2213.99196	0.74583
2212.06340	0.74531
2210.13484	0.74492
2208.20627	0.74441
2206.27771	0.74346
2204.34914	0.74228
2202.42058	0.74149
2200.49201	0.74126
2198.56345	0.74124
2196.63488	0.74095
2194.70632	0.74037
2192.77776	0.73990
2190.84919	0.73964
2188.92063	0.73947
2186.99206	0.73931
2185.06350	0.73891
2183.13493	0.73819
2181.20637	0.73744
2179.27781	0.73694
2177.34924	0.73653
2175.42068	0.73573
2173.49211	0.73447
2171.56355	0.73324
2169.63498	0.73237
2167.70642	0.73157
2165.77785	0.73073
2163.84929	0.72989
2161.92073	0.72874
2159.99216	0.72749
2158.06360	0.72682
2156.13503	0.72655
2154.20647	0.72608
2152.27790	0.72554
2150.34934	0.72504
2148.42077	0.72453
2146.49221	0.72420
2144.56365	0.72415
2142.63508	0.72413
2140.70652	0.72390
2138.77795	0.72343
2136.84939	0.72292
2134.92082	0.72239
2132.99226	0.72159
2131.06369	0.72041
2129.13513	0.71905
2127.20657	0.71774
2125.27800	0.71627
2123.34944	0.71473
2121.42087	0.71351
2119.49231	0.71245
2117.56374	0.71140
2115.63518	0.71045
2113.70661	0.70935
2111.77805	0.70811
2109.84949	0.70731
2107.92092	0.70706
2105.99236	0.70710
2104.06379	0.70733
2102.13523	0.70759
2100.20666	0.70758
2098.27810	0.70724
2096.34953	0.70682
2094.42097	0.70626
2092.49241	0.70521
2090.56384	0.70389
2088.63528	0.70253
2086.70671	0.70062
2084.77815	0.69820
2082.84958	0.69612
2080.92102	0.69470
2078.99245	0.69331
2077.06389	0.69176
2075.13533	0.69049
2073.20676	0.68956
2071.27820	0.68887
2069.34963	0.68858
2067.42107	0.68867
2065.49250	0.68886
2063.56394	0.68886
2061.63537	0.68859
2059.70681	0.68832
2057.77825	0.68804
2055.84968	0.68742
2053.92112	0.68625
2051.99255	0.68454
2050.06399	0.68251
2048.13542	0.68041
2046.20686	0.67836
2044.27830	0.67642
2042.34973	0.67473
2040.42117	0.67342
2038.49260	0.67232
2036.56404	0.67142
2034.63547	0.67077
2032.70691	0.67024
2030.77834	0.66999
2028.84978	0.67005
2026.92122	0.66991
2024.99265	0.66926
2023.06409	0.66827
2021.13552	0.66697
2019.20696	0.66539
2017.27839	0.66391
2015.34983	0.66264
2013.42126	0.66117
2011.49270	0.65932
2009.56414	0.65741
2007.63557	0.65553
2005.70701	0.65355
2003.77844	0.65166
2001.84988	0.65023
1999.92131	0.64928
1997.99275	0.64863
1996.06418	0.64800
1994.13562	0.64752
1992.20706	0.64781
1990.27849	0.64834
1988.34993	0.64820
1986.42136	0.64767
1984.49280	0.64696
1982.56423	0.64601
1980.63567	0.64471
1978.70710	0.64318
1976.77854	0.64170
1974.84998	0.64014
1972.92141	0.63819
1970.99285	0.63606
1969.06428	0.63429
1967.13572	0.63327
1965.20715	0.63239
1963.27859	0.63112
1961.35002	0.63002
1959.42146	0.62948
1957.49290	0.62929
1955.56433	0.62925
1953.63577	0.62918
1951.70720	0.62885
1949.77864	0.62816
1947.85007	0.62721
1945.92151	0.62608
1943.99294	0.62499
1942.06438	0.62416
1940.13582	0.62299
1938.20725	0.62133
1936.27869	0.61961
1934.35012	0.61800
1932.42156	0.61664
1930.49299	0.61549
1928.56443	0.61447
1926.63586	0.61354
1924.70730	0.61314
1922.77874	0.61374
1920.85017	0.61426
1918.92161	0.61439
1916.99304	0.61462
1915.06448	0.61423
1913.13591	0.61325
1911.20735	0.61233
1909.27878	0.61159
1907.35022	0.61058
1905.42166	0.60892
1903.49309	0.60680
1901.56453	0.60450
1899.63596	0.60230
1897.70740	0.60050
1895.77883	0.59932
1893.85027	0.59825
1891.92171	0.59697
1889.99314	0.59652
1888.06458	0.59688
1886.13601	0.59707
1884.20745	0.59744
1882.27888	0.59801
1880.35032	0.59830
1878.42175	0.59818
1876.49319	0.59776
1874.56463	0.59696
1872.63606	0.59531
1870.70750	0.59342
1868.77893	0.59302
1866.85037	0.59295
1864.92180	0.59114
1862.99324	0.58864
1861.06467	0.58643
1859.13611	0.58472
1857.20755	0.58338
1855.27898	0.58222
1853.35042	0.58122
1851.42185	0.58036
1849.49329	0.57965
1847.56472	0.57914
1845.63616	0.57975
1843.70759	0.58222
1841.77903	0.58373
1839.85047	0.58367
1837.92190	0.58392
1835.99334	0.58470
1834.06477	0.58457
1832.13621	0.58363
1830.20764	0.58378
1828.27908	0.58460
1826.35051	0.58453
1824.42195	0.58461
1822.49339	0.58441
1820.56482	0.58360
1818.63626	0.58314
1816.70769	0.58302
1814.77913	0.58257
1812.85056	0.58214
1810.92200	0.58286
1808.99343	0.58407
1807.06487	0.58435
1805.13631	0.58393
1803.20774	0.58372
1801.27918	0.58477
1799.35061	0.58630
1797.42205	0.58641
1795.49348	0.58538
1793.56492	0.58549
1791.63635	0.58850
1789.70779	0.59034
1787.77923	0.58993
1785.85066	0.58982
1783.92210	0.59050
1781.99353	0.59148
1780.06497	0.59303
1778.13640	0.59403
1776.20784	0.59350
1774.27927	0.59343
1772.35071	0.59684
1770.42215	0.60092
1768.49358	0.60263
1766.56502	0.60326
1764.63645	0.60320
1762.70789	0.60446
1760.77932	0.60754
1758.85076	0.60985
1756.92220	0.61294
1754.99363	0.61620
1753.06507	0.61831
1751.13650	0.62306
1749.20794	0.63246
1747.27937	0.64075
1745.35081	0.64627
1743.42224	0.65111
1741.49368	0.65627
1739.56512	0.66152
1737.63655	0.66404
1735.70799	0.66514
1733.77942	0.67146
1731.85086	0.67800
1729.92229	0.68053
1727.99373	0.68259
1726.06516	0.68444
1724.13660	0.68737
1722.20804	0.69049
1720.27947	0.69254
1718.35091	0.69785
1716.42234	0.71178
1714.49378	0.72288
1712.56521	0.72940
1710.63665	0.73628
1708.70808	0.74507
1706.77952	0.76063
1704.85096	0.78355
1702.92239	0.80335
1700.99383	0.83198
1699.06526	0.88342
1697.13670	0.93574
1695.20813	0.98614
1693.27957	1.02013
1691.35100	1.04586
1689.42244	1.07917
1687.49388	1.11071
1685.56531	1.14314
1683.63675	1.20163
1681.70818	1.24592
1679.77962	1.26894
1677.85105	1.28932
1675.92249	1.31597
1673.99392	1.34793
1672.06536	1.37314
1670.13680	1.40162
1668.20823	1.43219
1666.27967	1.44675
1664.35110	1.45821
1662.42254	1.47678
1660.49397	1.49424
1658.56541	1.50407
1656.63684	1.50747
1654.70828	1.50868
1652.77972	1.51689
1650.85115	1.52069
1648.92259	1.51845
1646.99402	1.51883
1645.06546	1.51981
1643.13689	1.51652
1641.20833	1.51355
1639.27976	1.51048
1637.35120	1.50664
1635.42264	1.50683
1633.49407	1.50704
1631.56551	1.50268
1629.63694	1.49524
1627.70838	1.48721
1625.77981	1.47835
1623.85125	1.46469
1621.92269	1.44815
1619.99412	1.43432
1618.06556	1.41559
1616.13699	1.38380
1614.20843	1.35543
1612.27986	1.33110
1610.35130	1.30470
1608.42273	1.27907
1606.49417	1.25797
1604.56561	1.24082
1602.63704	1.22627
1600.70848	1.21463
1598.77991	1.20562
1596.85135	1.19871
1594.92278	1.19379
1592.99422	1.19104
1591.06565	1.19110
1589.13709	1.19427
1587.20853	1.20027
1585.27996	1.20896
1583.35140	1.21975
1581.42283	1.23002
1579.49427	1.23799
1577.56570	1.24928
1575.63714	1.27021
1573.70857	1.28421
1571.78001	1.29259
1569.85145	1.30891
1567.92288	1.32754
1565.99432	1.33902
1564.06575	1.34875
1562.13719	1.35562
1560.20862	1.36603
1558.28006	1.39869
1556.35149	1.41281
1554.42293	1.41370
1552.49437	1.41479
1550.56580	1.41690
1548.63724	1.41869
1546.70867	1.41842
1544.78011	1.41551
1542.85154	1.40839
1540.92298	1.39669
1538.99441	1.38909
1537.06585	1.38585
1535.13729	1.38099
1533.20872	1.37424
1531.28016	1.36744
1529.35159	1.36070
1527.42303	1.35239
1525.49446	1.34303
1523.56590	1.33682
1521.63733	1.33529
1519.70877	1.33398
1517.78021	1.32760
1515.85164	1.31722
1513.92308	1.30458
1511.99451	1.28936
1510.06595	1.27259
1508.13738	1.24705
1506.20882	1.20626
1504.28025	1.18406
1502.35169	1.16785
1500.42313	1.14858
1498.49456	1.12536
1496.56600	1.10103
1494.63743	1.08184
1492.70887	1.06636
1490.78030	1.04839
1488.85174	1.02747
1486.92317	1.01270
1484.99461	1.00273
1483.06605	0.99473
1481.13748	0.98889
1479.20892	0.98607
1477.28035	0.98680
1475.35179	0.99264
1473.42322	1.00954
1471.49466	1.03130
1469.56610	1.04112
1467.63753	1.04579
1465.70897	1.05400
1463.78040	1.06496
1461.85184	1.07047
1459.92327	1.07219
1457.99471	1.07905
1456.06614	1.09267
1454.13758	1.09648
1452.20902	1.09505
1450.28045	1.09272
1448.35189	1.09063
1446.42332	1.08775
1444.49476	1.08296
1442.56619	1.07656
1440.63763	1.06927
1438.70906	1.06124
1436.78050	1.05128
1434.85194	1.04061
1432.92337	1.03134
1430.99481	1.02280
1429.06624	1.01544
1427.13768	1.01040
1425.20911	1.00812
1423.28055	1.00837
1421.35198	1.00963
1419.42342	1.01323
1417.49486	1.01880
1415.56629	1.02115
1413.63773	1.02202
1411.70916	1.02356
1409.78060	1.02551
1407.85203	1.02721
1405.92347	1.03007
1403.99490	1.03433
1402.06634	1.03708
1400.13778	1.03882
1398.20921	1.04079
1396.28065	1.04272
1394.35208	1.04550
1392.42352	1.04786
1390.49495	1.04942
1388.56639	1.05371
1386.63782	1.06319
1384.70926	1.07327
1382.78070	1.08094
1380.85213	1.08584
1378.92357	1.08636
1376.99500	1.08150
1375.06644	1.07082
1373.13787	1.05655
1371.20931	1.04237
1369.28074	1.02630
1367.35218	1.00800
1365.42362	0.99123
1363.49505	0.97735
1361.56649	0.96757
1359.63792	0.96156
1357.70936	0.95755
1355.78079	0.95564
1353.85223	0.95574
1351.92366	0.95653
1349.99510	0.95699
1348.06654	0.95709
1346.13797	0.95703
1344.20941	0.95676
1342.28084	0.95627
1340.35228	0.95647
1338.42371	0.95788
1336.49515	0.95986
1334.56659	0.96272
1332.63802	0.96710
1330.70946	0.97277
1328.78089	0.97822
1326.85233	0.98220
1324.92376	0.98483
1322.99520	0.98707
1321.06663	0.98975
1319.13807	0.99292
1317.20951	0.99588
1315.28094	0.99840
1313.35238	1.00094
1311.42381	1.00325
1309.49525	1.00487
1307.56668	1.00572
1305.63812	1.00571
1303.70955	1.00510
1301.78099	1.00396
1299.85243	1.00184
1297.92386	0.99853
1295.99530	0.99467
1294.06673	0.99156
1292.13817	0.98992
1290.20960	0.98977
1288.28104	0.99061
1286.35247	0.99180
1284.42391	0.99285
1282.49535	0.99378
1280.56678	0.99483
1278.63822	0.99617
1276.70965	0.99828
1274.78109	1.00173
1272.85252	1.00672
1270.92396	1.01262
1268.99539	1.01863
1267.06683	1.02467
1265.13827	1.03053
1263.20970	1.03491
1261.28114	1.03715
1259.35257	1.03870
1257.42401	1.04112
1255.49544	1.04420
1253.56688	1.04714
1251.63831	1.04995
1249.70975	1.05288
1247.78119	1.05564
1245.85262	1.05786
1243.92406	1.05927
1241.99549	1.05955
1240.06693	1.05876
1238.13836	1.05664
1236.20980	1.05258
1234.28123	1.04673
1232.35267	1.03978
1230.42411	1.03162
1228.49554	1.02198
1226.56698	1.01159
1224.63841	1.00122
1222.70985	0.99111
1220.78128	0.98171
1218.85272	0.97357
1216.92415	0.96702
1214.99559	0.96236
1213.06703	0.95995
1211.13846	0.96020
1209.20990	0.96257
1207.28133	0.96476
1205.35277	0.96424
1203.42420	0.96009
1201.49564	0.95310
1199.56708	0.94478
1197.63851	0.93602
1195.70995	0.92717
1193.78138	0.91884
1191.85282	0.91190
1189.92425	0.90691
1187.99569	0.90367
1186.06712	0.90143
1184.13856	0.90008
1182.21000	0.90028
1180.28143	0.90249
1178.35287	0.90695
1176.42430	0.91347
1174.49574	0.92093
1172.56717	0.92842
1170.63861	0.93671
1168.71004	0.94740
1166.78148	0.96144
1164.85292	0.97819
1162.92435	0.99550
1160.99579	1.01058
1159.06722	1.02011
1157.13866	1.02139
1155.21009	1.01480
1153.28153	1.00265
1151.35296	0.98664
1149.42440	0.96873
1147.49584	0.95188
1145.56727	0.93838
1143.63871	0.92863
1141.71014	0.92253
1139.78158	0.92006
1137.85301	0.92032
1135.92445	0.92273
1133.99588	0.92779
1132.06732	0.93550
1130.13876	0.94559
1128.21019	0.95781
1126.28163	0.97063
1124.35306	0.98219
1122.42450	0.99256
1120.49593	1.00212
1118.56737	1.01028
1116.63880	1.01600
1114.71024	1.01758
1112.78168	1.01482
1110.85311	1.00960
1108.92455	1.00356
1106.99598	0.99822
1105.06742	0.99482
1103.13885	0.99325
1101.21029	0.99295
1099.28172	0.99425
1097.35316	0.99821
1095.42460	1.00531
1093.49603	1.01447
1091.56747	1.02433
1089.63890	1.03515
1087.71034	1.04789
1085.78177	1.06261
1083.85321	1.07862
1081.92464	1.09433
1079.99608	1.10724
1078.06752	1.11475
1076.13895	1.11622
1074.21039	1.11301
1072.28182	1.10537
1070.35326	1.09306
1068.42469	1.07849
1066.49613	1.06469
1064.56756	1.05234
1062.63900	1.04134
1060.71044	1.03189
1058.78187	1.02374
1056.85331	1.01650
1054.92474	1.00967
1052.99618	1.00363
1051.06761	0.99948
1049.13905	0.99752
1047.21049	0.99797
1045.28192	1.00121
1043.35336	1.00668
1041.42479	1.01343
1039.49623	1.02045
1037.56766	1.02626
1035.63910	1.03020
1033.71053	1.03281
1031.78197	1.03372
1029.85341	1.03141
1027.92484	1.02552
1025.99628	1.01717
1024.06771	1.00769
1022.13915	0.99829
1020.21058	0.98991
1018.28202	0.98280
1016.35345	0.97623
1014.42489	0.96828
1012.49633	0.95734
1010.56776	0.94330
1008.63920	0.92679
1006.71063	0.90875
1004.78207	0.89101
1002.85350	0.87532
1000.92494	0.86251
998.99637	0.85250
997.06781	0.84464
995.13925	0.83813
993.21068	0.83228
991.28212	0.82625
989.35355	0.81969
987.42499	0.81300
985.49642	0.80688
983.56786	0.80167
981.63929	0.79738
979.71073	0.79412
977.78217	0.79158
975.85360	0.78831
973.92504	0.78283
971.99647	0.77508
970.06791	0.76591
968.13934	0.75627
966.21078	0.74722
964.28221	0.73980
962.35365	0.73540
960.42509	0.73577
958.49652	0.74120
956.56796	0.74886
954.63939	0.75409
952.71083	0.75426
950.78226	0.75022
948.85370	0.74447
946.92513	0.73916
944.99657	0.73512
943.06801	0.73201
941.13944	0.72944
939.21088	0.72714
937.28231	0.72452
935.35375	0.72123
933.42518	0.71751
931.49662	0.71371
929.56805	0.71010
927.63949	0.70676
925.71093	0.70394
923.78236	0.70165
921.85380	0.69946
919.92523	0.69727
917.99667	0.69524
916.06810	0.69354
914.13954	0.69268
912.21098	0.69317
910.28241	0.69536
908.35385	0.69895
906.42528	0.70305
904.49672	0.70747
902.56815	0.71229
900.63959	0.71676
898.71102	0.72011
896.78246	0.72178
894.85390	0.72121
892.92533	0.71878
890.99677	0.71532
889.06820	0.71146
887.13964	0.70785
885.21107	0.70496
883.28251	0.70287
881.35394	0.70148
879.42538	0.70114
877.49682	0.70204
875.56825	0.70346
873.63969	0.70515
871.71112	0.70708
869.78256	0.70854
867.85399	0.70925
865.92543	0.70927
863.99686	0.70832
862.06830	0.70674
860.13974	0.70538
858.21117	0.70458
856.28261	0.70426
854.35404	0.70414
852.42548	0.70408
850.49691	0.70438
848.56835	0.70529
846.63978	0.70711
844.71122	0.71036
842.78266	0.71516
840.85409	0.72113
838.92553	0.72815
836.99696	0.73601
835.06840	0.74367
833.13983	0.75006
831.21127	0.75479
829.28270	0.75776
827.35414	0.75889
825.42558	0.75816
823.49701	0.75552
821.56845	0.75092
819.63988	0.74472
817.71132	0.73827
815.78275	0.73286
813.85419	0.72877
811.92562	0.72615
809.99706	0.72513
808.06850	0.72564
806.13993	0.72758
804.21137	0.73084
802.28280	0.73554
800.35424	0.74172
798.42567	0.74875
796.49711	0.75570
794.56854	0.76200
792.63998	0.76716
790.71142	0.77094
788.78285	0.77329
786.85429	0.77384
784.92572	0.77267
782.99716	0.77030
781.06859	0.76700
779.14003	0.76377
777.21147	0.76175
775.28290	0.76132
773.35434	0.76275
771.42577	0.76588
769.49721	0.77026
767.56864	0.77594
765.64008	0.78274
763.71151	0.78991
761.78295	0.79726
759.85439	0.80479
757.92582	0.81153
755.99726	0.81631
754.06869	0.81932
752.14013	0.82099
750.21156	0.82092
748.28300	0.81890
746.35443	0.81550
744.42587	0.81167
742.49731	0.80814
740.56874	0.80568
738.64018	0.80526
736.71161	0.80721
734.78305	0.81134
732.85448	0.81770
730.92592	0.82612
728.99735	0.83552
727.06879	0.84451
725.14023	0.85275
723.21166	0.85972
721.28310	0.86383
719.35453	0.86401
717.42597	0.86059
715.49740	0.85471
713.56884	0.84762
711.64027	0.84042
709.71171	0.83376
707.78315	0.82795
705.85458	0.82348
703.92602	0.82093
701.99745	0.82039
700.06889	0.82173
698.14032	0.82533
696.21176	0.83098
694.28319	0.83698
692.35463	0.84220
690.42607	0.84774
688.49750	0.85402
686.56894	0.85780
684.64037	0.85725
682.71181	0.85510
680.78324	0.85218
678.85468	0.84641
676.92611	0.83891
674.99755	0.83188
673.06899	0.82518
671.14042	0.81874
669.21186	0.81359
667.28329	0.81439
665.35473	0.81850
663.42616	0.82211
661.49760	0.82607
659.56903	0.83063
657.64047	0.83505
655.71191	0.83901
653.78334	0.84340
651.85478	0.84844
649.92621	0.85257
647.99765	0.85449
646.06908	0.85429
644.14052	0.85254
642.21195	0.85009
640.28339	0.84851
638.35483	0.84785
636.42626	0.84661
634.49770	0.84577
632.56913	0.84771
630.64057	0.85206
628.71200	0.85750
626.78344	0.86375
624.85488	0.87031
622.92631	0.87688
620.99775	0.88233
619.06918	0.88492
617.14062	0.88628
615.21205	0.88809
613.28349	0.88824
611.35492	0.88603
609.42636	0.88257
607.49780	0.87835
605.56923	0.87419
603.64067	0.87056
601.71210	0.86769
599.78354	0.86583
