3997.91406	1.07177
3995.98550	1.07025
3994.05693	1.06886
3992.12837	1.06869
3990.19980	1.06896
3988.27124	1.06902
3986.34268	1.06830
3984.41411	1.06655
3982.48555	1.06449
3980.55698	1.06225
3978.62842	1.06017
3976.69985	1.05936
3974.77129	1.05951
3972.84272	1.05984
3970.91416	1.06102
3968.98560	1.06199
3967.05703	1.05982
3965.12847	1.05511
3963.19990	1.05309
3961.27134	1.05519
3959.34277	1.05628
3957.41421	1.05528
3955.48564	1.05378
3953.55708	1.05128
3951.62852	1.04913
3949.69995	1.04945
3947.77139	1.05041
3945.84282	1.04891
3943.91426	1.04817
3941.98569	1.05100
3940.05713	1.05200
3938.12856	1.04846
3936.20000	1.04309
3934.27144	1.04037
3932.34287	1.04249
3930.41431	1.04377
3928.48574	1.04043
3926.55718	1.03712
3924.62861	1.03679
3922.70005	1.03609
3920.77148	1.03499
3918.84292	1.03805
3916.91436	1.04317
3914.98579	1.04446
3913.05723	1.04340
3911.12866	1.04243
3909.20010	1.03916
3907.27153	1.03341
3905.34297	1.03271
3903.41440	1.03928
3901.48584	1.04078
3899.55728	1.03910
3897.62871	1.03816
3895.70015	1.03401
3893.77158	1.03014
3891.84302	1.03241
3889.91445	1.03168
3887.98589	1.02458
3886.05733	1.02288
3884.12876	1.02631
3882.20020	1.02586
3880.27163	1.02744
3878.34307	1.02786
3876.41450	1.02366
3874.48594	1.02023
3872.55737	1.01900
3870.62881	1.02154
3868.70025	1.02398
3866.77168	1.01924
3864.84312	1.01620
3862.91455	1.01995
3860.98599	1.01938
3859.05742	1.01258
3857.12886	1.00389
3855.20029	1.00089
3853.27173	1.01751
3851.34317	1.02644
3849.41460	1.02028
3847.48604	1.01250
3845.55747	1.00608
3843.62891	1.00192
3841.70034	0.99918
3839.77178	1.00083
3837.84321	1.01215
3835.91465	1.02032
3833.98609	1.01937
3832.05752	1.01524
3830.12896	1.00983
3828.20039	1.00452
3826.27183	1.00014
3824.34326	0.99357
3822.41470	0.99073
3820.48613	0.99925
3818.55757	1.00242
3816.62901	1.00503
3814.70044	1.00998
3812.77188	1.00642
3810.84331	0.99683
3808.91475	0.98768
3806.98618	0.98565
3805.05762	0.98371
3803.12905	0.97870
3801.20049	0.98484
3799.27193	0.99358
3797.34336	0.99640
3795.41480	0.99660
3793.48623	0.99321
3791.55767	0.98984
3789.62910	0.98766
3787.70054	0.98479
3785.77197	0.98423
3783.84341	0.98622
3781.91485	0.98619
3779.98628	0.98831
3778.05772	0.99211
3776.12915	0.98969
3774.20059	0.98389
3772.27202	0.97987
3770.34346	0.98143
3768.41489	0.98559
3766.48633	0.98684
3764.55777	0.98558
3762.62920	0.98184
3760.70064	0.98032
3758.77207	0.98440
3756.84351	0.98409
3754.91494	0.97588
3752.98638	0.96776
3751.05781	0.97246
3749.12925	0.97738
3747.20069	0.97071
3745.27212	0.97140
3743.34356	0.97942
3741.41499	0.97685
3739.48643	0.96723
3737.55786	0.95657
3735.62930	0.95193
3733.70074	0.96148
3731.77217	0.96969
3729.84361	0.96672
3727.91504	0.96022
3725.98648	0.95976
3724.05791	0.96501
3722.12935	0.96867
3720.20078	0.96936
3718.27222	0.96721
3716.34366	0.96208
3714.41509	0.95571
3712.48653	0.95576
3710.55796	0.96748
3708.62940	0.97279
3706.70083	0.96970
3704.77227	0.96544
3702.84370	0.96604
3700.91514	0.97033
3698.98658	0.96954
3697.05801	0.96554
3695.12945	0.96128
3693.20088	0.95565
3691.27232	0.95231
3689.34375	0.96080
3687.41519	0.96888
3685.48662	0.96717
3683.55806	0.96243
3681.62950	0.95840
3679.70093	0.95518
3677.77237	0.95352
3675.84380	0.96260
3673.91524	0.96949
3671.98667	0.96556
3670.05811	0.97332
3668.12954	0.98561
3666.20098	0.98682
3664.27242	0.98694
3662.34385	0.98869
3660.41529	0.98896
3658.48672	0.98986
3656.55816	0.99652
3654.62959	1.00026
3652.70103	0.99330
3650.77246	0.98614
3648.84390	1.00336
3646.91534	1.02022
3644.98677	1.01903
3643.05821	1.01752
3641.12964	1.02087
3639.20108	1.02405
3637.27251	1.02400
3635.34395	1.02448
3633.41538	1.02667
3631.48682	1.02743
3629.55826	1.03630
3627.62969	1.05346
3625.70113	1.05472
3623.77256	1.04895
3621.84400	1.04572
3619.91543	1.05236
3617.98687	1.06496
3616.05830	1.06969
3614.12974	1.07291
3612.20118	1.07770
3610.27261	1.08060
3608.34405	1.08723
3606.41548	1.09492
3604.48692	1.09645
3602.55835	1.09775
3600.62979	1.10357
3598.70123	1.10906
3596.77266	1.11208
3594.84410	1.11774
3592.91553	1.12333
3590.98697	1.12238
3589.05840	1.12316
3587.12984	1.13674
3585.20127	1.14656
3583.27271	1.14741
3581.34415	1.14955
3579.41558	1.15453
3577.48702	1.16064
3575.55845	1.16729
3573.62989	1.17165
3571.70132	1.17103
3569.77276	1.16829
3567.84419	1.17370
3565.91563	1.18912
3563.98707	1.19674
3562.05850	1.19868
3560.12994	1.20248
3558.20137	1.20685
3556.27281	1.20801
3554.34424	1.20995
3552.41568	1.21796
3550.48711	1.22483
3548.55855	1.22610
3546.62999	1.22971
3544.70142	1.23892
3542.77286	1.24612
3540.84429	1.24902
3538.91573	1.25116
3536.98716	1.25526
3535.05860	1.26100
3533.13003	1.26600
3531.20147	1.26990
3529.27291	1.27370
3527.34434	1.27838
3525.41578	1.28454
3523.48721	1.29170
3521.55865	1.29816
3519.63008	1.30206
3517.70152	1.30515
3515.77295	1.31059
3513.84439	1.31755
3511.91583	1.32501
3509.98726	1.33424
3508.05870	1.34141
3506.13013	1.34414
3504.20157	1.34829
3502.27300	1.35454
3500.34444	1.35874
3498.41587	1.36437
3496.48731	1.37277
3494.55875	1.37950
3492.63018	1.38606
3490.70162	1.39504
3488.77305	1.40133
3486.84449	1.40366
3484.91592	1.40631
3482.98736	1.40992
3481.05879	1.41354
3479.13023	1.41545
3477.20167	1.41726
3475.27310	1.42248
3473.34454	1.42834
3471.41597	1.42945
3469.48741	1.42778
3467.55884	1.42724
3465.63028	1.42719
3463.70171	1.42963
3461.77315	1.43518
3459.84459	1.43935
3457.91602	1.44231
3455.98746	1.44749
3454.05889	1.45506
3452.13033	1.45946
3450.20176	1.45783
3448.27320	1.45624
3446.34464	1.45610
3444.41607	1.45341
3442.48751	1.45245
3440.55894	1.45814
3438.63038	1.46624
3436.70181	1.46848
3434.77325	1.46308
3432.84468	1.45650
3430.91612	1.45345
3428.98756	1.45312
3427.05899	1.45458
3425.13043	1.45720
3423.20186	1.45834
3421.27330	1.45841
3419.34473	1.46144
3417.41617	1.46494
3415.48760	1.46494
3413.55904	1.46366
3411.63048	1.46238
3409.70191	1.46042
3407.77335	1.45900
3405.84478	1.45911
3403.91622	1.45999
3401.98765	1.46084
3400.05909	1.46343
3398.13052	1.46820
3396.20196	1.46942
3394.27340	1.46399
3392.34483	1.45923
3390.41627	1.46037
3388.48770	1.46192
3386.55914	1.46145
3384.63057	1.46468
3382.70201	1.47020
3380.77344	1.47062
3378.84488	1.46766
3376.91632	1.46665
3374.98775	1.46814
3373.05919	1.46967
3371.13062	1.46770
3369.20206	1.46359
3367.27349	1.46254
3365.34493	1.46454
3363.41636	1.46691
3361.48780	1.46885
3359.55924	1.46964
3357.63067	1.46984
3355.70211	1.46878
3353.77354	1.46538
3351.84498	1.46528
3349.91641	1.47136
3347.98785	1.47687
3346.05928	1.47901
3344.13072	1.48117
3342.20216	1.48199
3340.27359	1.47995
3338.34503	1.48009
3336.41646	1.48569
3334.48790	1.49231
3332.55933	1.49463
3330.63077	1.49322
3328.70220	1.49230
3326.77364	1.49517
3324.84508	1.50072
3322.91651	1.50447
3320.98795	1.50600
3319.05938	1.50901
3317.13082	1.51518
3315.20225	1.52400
3313.27369	1.53091
3311.34513	1.53051
3309.41656	1.52762
3307.48800	1.52846
3305.55943	1.53099
3303.63087	1.53472
3301.70230	1.53814
3299.77374	1.53836
3297.84517	1.54122
3295.91661	1.54663
3293.98805	1.54606
3292.05948	1.54242
3290.13092	1.54278
3288.20235	1.54505
3286.27379	1.54447
3284.34522	1.54399
3282.41666	1.54842
3280.48809	1.55163
3278.55953	1.54952
3276.63097	1.54797
3274.70240	1.54749
3272.77384	1.54603
3270.84527	1.54421
3268.91671	1.53925
3266.98814	1.53113
3265.05958	1.52475
3263.13101	1.52051
3261.20245	1.51555
3259.27389	1.51005
3257.34532	1.50514
3255.41676	1.50049
3253.48819	1.49489
3251.55963	1.48639
3249.63106	1.47617
3247.70250	1.46820
3245.77393	1.46188
3243.84537	1.45473
3241.91681	1.44760
3239.98824	1.44054
3238.05968	1.43382
3236.13111	1.42923
3234.20255	1.42558
3232.27398	1.42179
3230.34542	1.42006
3228.41685	1.42002
3226.48829	1.41687
3224.55973	1.40927
3222.63116	1.40206
3220.70260	1.39864
3218.77403	1.39591
3216.84547	1.38965
3214.91690	1.38298
3212.98834	1.38086
3211.05977	1.37982
3209.13121	1.37410
3207.20265	1.36497
3205.27408	1.35791
3203.34552	1.35431
3201.41695	1.35073
3199.48839	1.34616
3197.55982	1.34149
3195.63126	1.33589
3193.70269	1.32973
3191.77413	1.32449
3189.84557	1.32017
3187.91700	1.31590
3185.98844	1.31264
3184.05987	1.31097
3182.13131	1.30888
3180.20274	1.30515
3178.27418	1.30031
3176.34562	1.29563
3174.41705	1.29131
3172.48849	1.28597
3170.55992	1.28004
3168.63136	1.27581
3166.70279	1.27325
3164.77423	1.26964
3162.84566	1.26375
3160.91710	1.25727
3158.98854	1.25223
3157.05997	1.24919
3155.13141	1.24720
3153.20284	1.24546
3151.27428	1.24320
3149.34571	1.23918
3147.41715	1.23449
3145.48858	1.23174
3143.56002	1.23016
3141.63146	1.22843
3139.70289	1.22734
3137.77433	1.22610
3135.84576	1.22417
3133.91720	1.22308
3131.98863	1.22297
3130.06007	1.22288
3128.13150	1.22291
3126.20294	1.22248
3124.27438	1.22033
3122.34581	1.21839
3120.41725	1.21825
3118.48868	1.21855
3116.56012	1.21977
3114.63155	1.22101
3112.70299	1.21928
3110.77442	1.21626
3108.84586	1.21589
3106.91730	1.21823
3104.98873	1.21971
3103.06017	1.21814
3101.13160	1.21473
3099.20304	1.21154
3097.27447	1.20965
3095.34591	1.20930
3093.41734	1.20917
3091.48878	1.20737
3089.56022	1.20499
3087.63165	1.20383
3085.70309	1.20228
3083.77452	1.19894
3081.84596	1.19617
3079.91739	1.19526
3077.98883	1.19376
3076.06026	1.19057
3074.13170	1.18745
3072.20314	1.18565
3070.27457	1.18430
3068.34601	1.18128
3066.41744	1.17655
3064.48888	1.17281
3062.56031	1.17129
3060.63175	1.16981
3058.70318	1.16584
3056.77462	1.15956
3054.84606	1.15382
3052.91749	1.15071
3050.98893	1.14906
3049.06036	1.14701
3047.13180	1.14403
3045.20323	1.13982
3043.27467	1.13522
3041.34610	1.13144
3039.41754	1.12795
3037.48898	1.12430
3035.56041	1.12140
3033.63185	1.11984
3031.70328	1.11839
3029.77472	1.11573
3027.84615	1.11238
3025.91759	1.10939
3023.98903	1.10662
3022.06046	1.10334
3020.13190	1.09979
3018.20333	1.09670
3016.27477	1.09431
3014.34620	1.09248
3012.41764	1.09078
3010.48907	1.08973
3008.56051	1.08971
3006.63195	1.08927
3004.70338	1.08739
3002.77482	1.08487
3000.84625	1.08329
2998.91769	1.08377
2996.98912	1.08554
2995.06056	1.08724
2993.13199	1.08883
2991.20343	1.09095
2989.27487	1.09394
2987.34630	1.09755
2985.41774	1.10135
2983.48917	1.10442
2981.56061	1.10681
2979.63204	1.11124
2977.70348	1.11807
2975.77491	1.12403
2973.84635	1.12827
2971.91779	1.13244
2969.98922	1.13761
2968.06066	1.14345
2966.13209	1.14853
2964.20353	1.15212
2962.27496	1.15443
2960.34640	1.15505
2958.41783	1.15323
2956.48927	1.14879
2954.56071	1.14261
2952.63214	1.13682
2950.70358	1.13196
2948.77501	1.12746
2946.84645	1.12441
2944.91788	1.12457
2942.98932	1.12914
2941.06075	1.13742
2939.13219	1.14728
2937.20363	1.15678
2935.27506	1.16483
2933.34650	1.17262
2931.41793	1.18172
2929.48937	1.19172
2927.56080	1.20014
2925.63224	1.20557
2923.70367	1.21073
2921.77511	1.21743
2919.84655	1.22274
2917.91798	1.22173
2915.98942	1.21059
2914.06085	1.19055
2912.13229	1.16843
2910.20372	1.15052
2908.27516	1.13698
2906.34659	1.12505
2904.41803	1.11502
2902.48947	1.10890
2900.56090	1.10605
2898.63234	1.10393
2896.70377	1.10154
2894.77521	1.09910
2892.84664	1.09634
2890.91808	1.09288
2888.98952	1.08861
2887.06095	1.08438
2885.13239	1.08181
2883.20382	1.08101
2881.27526	1.08017
2879.34669	1.07894
2877.41813	1.07867
2875.48956	1.07826
2873.56100	1.07605
2871.63244	1.07267
2869.70387	1.06807
2867.77531	1.06229
2865.84674	1.05724
2863.91818	1.05400
2861.98961	1.05293
2860.06105	1.05479
2858.13248	1.05941
2856.20392	1.06564
2854.27536	1.07341
2852.34679	1.08303
2850.41823	1.08964
2848.48966	1.08323
2846.56110	1.06247
2844.63253	1.03811
2842.70397	1.01872
2840.77540	1.00527
2838.84684	0.99603
2836.91828	0.98950
2834.98971	0.98443
2833.06115	0.97984
2831.13258	0.97572
2829.20402	0.97228
2827.27545	0.96911
2825.34689	0.96583
2823.41832	0.96277
2821.48976	0.96038
2819.56120	0.95827
2817.63263	0.95616
2815.70407	0.95407
2813.77550	0.95148
2811.84694	0.94849
2809.91837	0.94598
2807.98981	0.94371
2806.06124	0.94111
2804.13268	0.93873
2802.20412	0.93682
2800.27555	0.93477
2798.34699	0.93254
2796.41842	0.93067
2794.48986	0.92893
2792.56129	0.92675
2790.63273	0.92419
2788.70416	0.92184
2786.77560	0.92006
2784.84704	0.91871
2782.91847	0.91754
2780.98991	0.91650
2779.06134	0.91541
2777.13278	0.91404
2775.20421	0.91241
2773.27565	0.91100
2771.34708	0.91001
2769.41852	0.90867
2767.48996	0.90658
2765.56139	0.90511
2763.63283	0.90513
2761.70426	0.90532
2759.77570	0.90503
2757.84713	0.90455
2755.91857	0.90355
2753.99001	0.90207
2752.06144	0.90057
2750.13288	0.89924
2748.20431	0.89804
2746.27575	0.89700
2744.34718	0.89651
2742.41862	0.89625
2740.49005	0.89520
2738.56149	0.89346
2736.63293	0.89206
2734.70436	0.89153
2732.77580	0.89123
2730.84723	0.89037
2728.91867	0.88906
2726.99010	0.88775
2725.06154	0.88642
2723.13297	0.88477
2721.20441	0.88334
2719.27585	0.88277
2717.34728	0.88211
2715.41872	0.88075
2713.49015	0.87958
2711.56159	0.87873
2709.63302	0.87747
2707.70446	0.87605
2705.77589	0.87499
2703.84733	0.87399
2701.91877	0.87299
2699.99020	0.87211
2698.06164	0.87113
2696.13307	0.87038
2694.20451	0.86990
2692.27594	0.86923
2690.34738	0.86827
2688.41881	0.86709
2686.49025	0.86592
2684.56169	0.86491
2682.63312	0.86384
2680.70456	0.86252
2678.77599	0.86107
2676.84743	0.85974
2674.91886	0.85842
2672.99030	0.85703
2671.06173	0.85587
2669.13317	0.85459
2667.20461	0.85295
2665.27604	0.85168
2663.34748	0.85101
2661.41891	0.85041
2659.49035	0.84979
2657.56178	0.84926
2655.63322	0.84854
2653.70465	0.84758
2651.77609	0.84675
2649.84753	0.84619
2647.91896	0.84575
2645.99040	0.84532
2644.06183	0.84502
2642.13327	0.84479
2640.20470	0.84419
2638.27614	0.84322
2636.34757	0.84240
2634.41901	0.84199
2632.49045	0.84168
2630.56188	0.84097
2628.63332	0.84024
2626.70475	0.83994
2624.77619	0.83928
2622.84762	0.83776
2620.91906	0.83618
2618.99049	0.83531
2617.06193	0.83508
2615.13337	0.83480
2613.20480	0.83377
2611.27624	0.83227
2609.34767	0.83120
2607.41911	0.83063
2605.49054	0.83011
2603.56198	0.82938
2601.63342	0.82849
2599.70485	0.82794
2597.77629	0.82787
2595.84772	0.82794
2593.91916	0.82776
2591.99059	0.82726
2590.06203	0.82696
2588.13346	0.82703
2586.20490	0.82705
2584.27634	0.82712
2582.34777	0.82745
2580.41921	0.82751
2578.49064	0.82706
2576.56208	0.82635
2574.63351	0.82539
2572.70495	0.82444
2570.77638	0.82407
2568.84782	0.82406
2566.91926	0.82368
2564.99069	0.82296
2563.06213	0.82209
2561.13356	0.82094
2559.20500	0.81988
2557.27643	0.81928
2555.34787	0.81855
2553.41930	0.81754
2551.49074	0.81698
2549.56218	0.81698
2547.63361	0.81679
2545.70505	0.81611
2543.77648	0.81542
2541.84792	0.81520
2539.91935	0.81508
2537.99079	0.81480
2536.06222	0.81470
2534.13366	0.81459
2532.20510	0.81417
2530.27653	0.81392
2528.34797	0.81388
2526.41940	0.81333
2524.49084	0.81252
2522.56227	0.81242
2520.63371	0.81273
2518.70514	0.81251
2516.77658	0.81186
2514.84802	0.81124
2512.91945	0.81051
2510.99089	0.80962
2509.06232	0.80903
2507.13376	0.80855
2505.20519	0.80766
2503.27663	0.80659
2501.34806	0.80560
2499.41950	0.80464
2497.49094	0.80391
2495.56237	0.80327
2493.63381	0.80244
2491.70524	0.80146
2489.77668	0.80037
2487.84811	0.79903
2485.91955	0.79760
2483.99098	0.79653
2482.06242	0.79587
2480.13386	0.79520
2478.20529	0.79417
2476.27673	0.79302
2474.34816	0.79209
2472.41960	0.79139
2470.49103	0.79074
2468.56247	0.79027
2466.63391	0.79010
2464.70534	0.78994
2462.77678	0.78953
2460.84821	0.78886
2458.91965	0.78798
2456.99108	0.78711
2455.06252	0.78645
2453.13395	0.78587
2451.20539	0.78519
2449.27683	0.78441
2447.34826	0.78376
2445.41970	0.78332
2443.49113	0.78281
2441.56257	0.78211
2439.63400	0.78152
2437.70544	0.78116
2435.77687	0.78091
2433.84831	0.78078
2431.91975	0.78043
2429.99118	0.77958
2428.06262	0.77859
2426.13405	0.77790
2424.20549	0.77757
2422.27692	0.77720
2420.34836	0.77668
2418.41979	0.77642
2416.49123	0.77645
2414.56267	0.77647
2412.63410	0.77630
2410.70554	0.77562
2408.77697	0.77426
2406.84841	0.77292
2404.91984	0.77247
2402.99128	0.77287
2401.06271	0.77325
2399.13415	0.77319
2397.20559	0.77296
2395.27702	0.77272
2393.34846	0.77235
2391.41989	0.77187
2389.49133	0.77139
2387.56276	0.77088
2385.63420	0.77028
2383.70563	0.76947
2381.77707	0.76830
2379.84851	0.76641
2377.91994	0.76339
2375.99138	0.76010
2374.06281	0.75777
2372.13425	0.75556
2370.20568	0.75305
2368.27712	0.75167
2366.34855	0.75153
2364.41999	0.75085
2362.49143	0.74604
2360.56286	0.73958
2358.63430	0.73979
2356.70573	0.74443
2354.77717	0.74828
2352.84860	0.75277
2350.92004	0.75487
2348.99147	0.75296
2347.06291	0.74982
2345.13435	0.74780
2343.20578	0.74696
2341.27722	0.74781
2339.34865	0.75054
2337.42009	0.75298
2335.49152	0.75376
2333.56296	0.75262
2331.63440	0.75102
2329.70583	0.75060
2327.77727	0.75120
2325.84870	0.75213
2323.92014	0.75287
2321.99157	0.75337
2320.06301	0.75421
2318.13444	0.75516
2316.20588	0.75562
2314.27732	0.75529
2312.34875	0.75387
2310.42019	0.75201
2308.49162	0.75083
2306.56306	0.75044
2304.63449	0.75020
2302.70593	0.74977
2300.77736	0.74923
2298.84880	0.74883
2296.92024	0.74852
2294.99167	0.74805
2293.06311	0.74750
2291.13454	0.74736
2289.20598	0.74757
2287.27741	0.74747
2285.34885	0.74682
2283.42028	0.74581
2281.49172	0.74466
2279.56316	0.74358
2277.63459	0.74273
2275.70603	0.74207
2273.77746	0.74150
2271.84890	0.74079
2269.92033	0.73968
2267.99177	0.73859
2266.06320	0.73802
2264.13464	0.73764
2262.20608	0.73710
2260.27751	0.73652
2258.34895	0.73598
2256.42038	0.73541
2254.49182	0.73485
2252.56325	0.73422
2250.63469	0.73353
2248.70612	0.73292
2246.77756	0.73231
2244.84900	0.73173
2242.92043	0.73121
2240.99187	0.73052
2239.06330	0.72955
2237.13474	0.72859
2235.20617	0.72804
2233.27761	0.72765
2231.34904	0.72687
2229.42048	0.72586
2227.49192	0.72498
2225.56335	0.72422
2223.63479	0.72348
2221.70622	0.72279
2219.77766	0.72234
2217.84909	0.72214
2215.92053	0.72207
2213.99196	0.72217
2212.06340	0.72226
2210.13484	0.72215
2208.20627	0.72211
2206.27771	0.72240
2204.34914	0.72273
2202.42058	0.72270
2200.49201	0.72247
2198.56345	0.72236
2196.63488	0.72238
2194.70632	0.72250
2192.77776	0.72252
2190.84919	0.72228
2188.92063	0.72208
2186.99206	0.72221
2185.06350	0.72233
2183.13493	0.72208
2181.20637	0.72171
2179.27781	0.72162
2177.34924	0.72183
2175.42068	0.72196
2173.49211	0.72185
2171.56355	0.72153
2169.63498	0.72119
2167.70642	0.72102
2165.77785	0.72096
2163.84929	0.72071
2161.92073	0.72023
2159.99216	0.71988
2158.06360	0.71974
2156.13503	0.71943
2154.20647	0.71885
2152.27790	0.71827
2150.34934	0.71785
2148.42077	0.71758
2146.49221	0.71749
2144.56365	0.71746
2142.63508	0.71703
2140.70652	0.71623
2138.77795	0.71559
2136.84939	0.71528
2134.92082	0.71489
2132.99226	0.71406
2131.06369	0.71317
2129.13513	0.71262
2127.20657	0.71227
2125.27800	0.71170
2123.34944	0.71074
2121.42087	0.70972
2119.49231	0.70879
2117.56374	0.70766
2115.63518	0.70628
2113.70661	0.70480
2111.77805	0.70321
2109.84949	0.70168
2107.92092	0.70037
2105.99236	0.69903
2104.06379	0.69752
2102.13523	0.69597
2100.20666	0.69443
2098.27810	0.69299
2096.34953	0.69165
2094.42097	0.69037
2092.49241	0.68911
2090.56384	0.68802
2088.63528	0.68734
2086.70671	0.68696
2084.77815	0.68651
2082.84958	0.68596
2080.92102	0.68571
2078.99245	0.68558
2077.06389	0.68503
2075.13533	0.68421
2073.20676	0.68356
2071.27820	0.68292
2069.34963	0.68208
2067.42107	0.68121
2065.49250	0.68041
2063.56394	0.67929
2061.63537	0.67777
2059.70681	0.67639
2057.77825	0.67524
2055.84968	0.67409
2053.92112	0.67294
2051.99255	0.67174
2050.06399	0.67056
2048.13542	0.66969
2046.20686	0.66896
2044.27830	0.66805
2042.34973	0.66727
2040.42117	0.66713
2038.49260	0.66744
2036.56404	0.66766
2034.63547	0.66756
2032.70691	0.66736
2030.77834	0.66726
2028.84978	0.66722
2026.92122	0.66717
2024.99265	0.66710
2023.06409	0.66697
2021.13552	0.66668
2019.20696	0.66629
2017.27839	0.66604
2015.34983	0.66579
2013.42126	0.66509
2011.49270	0.66418
2009.56414	0.66348
2007.63557	0.66275
2005.70701	0.66180
2003.77844	0.66092
2001.84988	0.66028
1999.92131	0.65968
1997.99275	0.65912
1996.06418	0.65853
1994.13562	0.65799
1992.20706	0.65793
1990.27849	0.65794
1988.34993	0.65751
1986.42136	0.65695
1984.49280	0.65630
1982.56423	0.65550
1980.63567	0.65469
1978.70710	0.65390
1976.77854	0.65303
1974.84998	0.65203
1972.92141	0.65086
1970.99285	0.64949
1969.06428	0.64827
1967.13572	0.64749
1965.20715	0.64642
1963.27859	0.64466
1961.35002	0.64284
1959.42146	0.64150
1957.49290	0.64061
1955.56433	0.63983
1953.63577	0.63896
1951.70720	0.63801
1949.77864	0.63687
1947.85007	0.63550
1945.92151	0.63409
1943.99294	0.63314
1942.06438	0.63280
1940.13582	0.63211
1938.20725	0.63063
1936.27869	0.62888
1934.35012	0.62738
1932.42156	0.62608
1930.49299	0.62465
1928.56443	0.62293
1926.63586	0.62092
1924.70730	0.61897
1922.77874	0.61747
1920.85017	0.61604
1918.92161	0.61496
1916.99304	0.61444
1915.06448	0.61339
1913.13591	0.61181
1911.20735	0.61063
1909.27878	0.61016
1907.35022	0.60988
1905.42166	0.60932
1903.49309	0.60860
1901.56453	0.60795
1899.63596	0.60733
1897.70740	0.60674
1895.77883	0.60635
1893.85027	0.60575
1891.92171	0.60466
1889.99314	0.60422
1888.06458	0.60420
1886.13601	0.60326
1884.20745	0.60190
1882.27888	0.60073
1880.35032	0.59974
1878.42175	0.59873
1876.49319	0.59753
1874.56463	0.59619
1872.63606	0.59450
1870.70750	0.59286
1868.77893	0.59300
1866.85037	0.59420
1864.92180	0.59393
1862.99324	0.59287
1861.06467	0.59209
1859.13611	0.59170
1857.20755	0.59143
1855.27898	0.59119
1853.35042	0.59089
1851.42185	0.59034
1849.49329	0.58950
1847.56472	0.58845
1845.63616	0.58825
1843.70759	0.58965
1841.77903	0.58973
1839.85047	0.58811
1837.92190	0.58687
1835.99334	0.58640
1834.06477	0.58539
1832.13621	0.58390
1830.20764	0.58348
1828.27908	0.58362
1826.35051	0.58293
1824.42195	0.58232
1822.49339	0.58154
1820.56482	0.58028
1818.63626	0.57925
1816.70769	0.57834
1814.77913	0.57716
1812.85056	0.57609
1810.92200	0.57582
1808.99343	0.57581
1807.06487	0.57520
1805.13631	0.57422
1803.20774	0.57328
1801.27918	0.57316
1799.35061	0.57378
1797.42205	0.57363
1795.49348	0.57251
1793.56492	0.57218
1791.63635	0.57440
1789.70779	0.57564
1787.77923	0.57485
1785.85066	0.57415
1783.92210	0.57388
1781.99353	0.57358
1780.06497	0.57359
1778.13640	0.57325
1776.20784	0.57177
1774.27927	0.57066
1772.35071	0.57232
1770.42215	0.57458
1768.49358	0.57507
1766.56502	0.57484
1764.63645	0.57421
1762.70789	0.57478
1760.77932	0.57725
1758.85076	0.57935
1756.92220	0.58171
1754.99363	0.58379
1753.06507	0.58500
1751.13650	0.58888
1749.20794	0.59706
1747.27937	0.60434
1745.35081	0.60915
1743.42224	0.61305
1741.49368	0.61699
1739.56512	0.62121
1737.63655	0.62318
1735.70799	0.62364
1733.77942	0.62865
1731.85086	0.63433
1729.92229	0.63653
1727.99373	0.63822
1726.06516	0.64002
1724.13660	0.64321
1722.20804	0.64664
1720.27947	0.64889
1718.35091	0.65422
1716.42234	0.66814
1714.49378	0.67917
1712.56521	0.68512
1710.63665	0.69118
1708.70808	0.69881
1706.77952	0.71182
1704.85096	0.73028
1702.92239	0.74581
1700.99383	0.76879
1699.06526	0.81087
1697.13670	0.85485
1695.20813	0.89808
1693.27957	0.92723
1691.35100	0.94957
1689.42244	0.97905
1687.49388	1.00750
1685.56531	1.03876
1683.63675	1.09719
1681.70818	1.14064
1679.77962	1.16430
1677.85105	1.18701
1675.92249	1.21547
1673.99392	1.24773
1672.06536	1.27337
1670.13680	1.30480
1668.20823	1.34103
1666.27967	1.36020
1664.35110	1.37626
1662.42254	1.40133
1660.49397	1.42291
1658.56541	1.43317
1656.63684	1.43837
1654.70828	1.44694
1652.77972	1.46099
1650.85115	1.46039
1648.92259	1.45797
1646.99402	1.46500
1645.06546	1.47274
1643.13689	1.47112
1641.20833	1.46668
1639.27976	1.46120
1637.35120	1.45773
1635.42264	1.46233
1633.49407	1.46528
1631.56551	1.46272
1629.63694	1.45709
1627.70838	1.45005
1625.77981	1.44240
1623.85125	1.42985
1621.92269	1.40980
1619.99412	1.38910
1618.06556	1.36464
1616.13699	1.32959
1614.20843	1.29774
1612.27986	1.26958
1610.35130	1.23933
1608.42273	1.20867
1606.49417	1.18189
1604.56561	1.15991
1602.63704	1.14158
1600.70848	1.12741
1598.77991	1.11745
1596.85135	1.11044
1594.92278	1.10509
1592.99422	1.10132
1591.06565	1.10011
1589.13709	1.10164
1587.20853	1.10599
1585.27996	1.11354
1583.35140	1.12382
1581.42283	1.13428
1579.49427	1.14277
1577.56570	1.15503
1575.63714	1.17873
1573.70857	1.19442
1571.78001	1.20212
1569.85145	1.21800
1567.92288	1.23839
1565.99432	1.25197
1564.06575	1.26329
1562.13719	1.27099
1560.20862	1.28160
1558.28006	1.31592
1556.35149	1.33199
1554.42293	1.33452
1552.49437	1.33712
1550.56580	1.34008
1548.63724	1.34187
1546.70867	1.34092
1544.78011	1.33842
1542.85154	1.33515
1540.92298	1.33138
1538.99441	1.32547
1537.06585	1.31821
1535.13729	1.30998
1533.20872	1.30107
1531.28016	1.29300
1529.35159	1.28578
1527.42303	1.27750
1525.49446	1.26790
1523.56590	1.26127
1521.63733	1.26052
1519.70877	1.26111
1517.78021	1.25562
1515.85164	1.24382
1513.92308	1.22840
1511.99451	1.21037
1510.06595	1.19089
1508.13738	1.16291
1506.20882	1.12192
1504.28025	1.10031
1502.35169	1.08428
1500.42313	1.06535
1498.49456	1.04258
1496.56600	1.01871
1494.63743	1.00069
1492.70887	0.98697
1490.78030	0.97145
1488.85174	0.95357
1486.92317	0.94088
1484.99461	0.93229
1483.06605	0.92591
1481.13748	0.92201
1479.20892	0.92096
1477.28035	0.92325
1475.35179	0.93025
1473.42322	0.94606
1471.49466	0.96529
1469.56610	0.97455
1467.63753	0.97937
1465.70897	0.98724
1463.78040	0.99725
1461.85184	1.00148
1459.92327	1.00196
1457.99471	1.00860
1456.06614	1.02243
1454.13758	1.02546
1452.20902	1.02396
1450.28045	1.02228
1448.35189	1.02066
1446.42332	1.01804
1444.49476	1.01398
1442.56619	1.00878
1440.63763	1.00278
1438.70906	0.99588
1436.78050	0.98757
1434.85194	0.97909
1432.92337	0.97105
1430.99481	0.96276
1429.06624	0.95532
1427.13768	0.94998
1425.20911	0.94649
1423.28055	0.94459
1421.35198	0.94406
1419.42342	0.94655
1417.49486	0.95091
1415.56629	0.95222
1413.63773	0.95192
1411.70916	0.95114
1409.78060	0.94964
1407.85203	0.94810
1405.92347	0.94833
1403.99490	0.95037
1402.06634	0.95156
1400.13778	0.95211
1398.20921	0.95322
1396.28065	0.95458
1394.35208	0.95653
1392.42352	0.95862
1390.49495	0.96084
1388.56639	0.96650
1386.63782	0.97849
1384.70926	0.99209
1382.78070	1.00385
1380.85213	1.01343
1378.92357	1.01847
1376.99500	1.01741
1375.06644	1.01005
1373.13787	0.99778
1371.20931	0.98419
1369.28074	0.96872
1367.35218	0.95141
1365.42362	0.93547
1363.49505	0.92109
1361.56649	0.90847
1359.63792	0.89938
1357.70936	0.89322
1355.78079	0.88894
1353.85223	0.88576
1351.92366	0.88312
1349.99510	0.88147
1348.06654	0.88107
1346.13797	0.88118
1344.20941	0.88134
1342.28084	0.88177
1340.35228	0.88351
1338.42371	0.88733
1336.49515	0.89191
1334.56659	0.89702
1332.63802	0.90343
1330.70946	0.91062
1328.78089	0.91711
1326.85233	0.92205
1324.92376	0.92534
1322.99520	0.92748
1321.06663	0.92961
1319.13807	0.93235
1317.20951	0.93481
1315.28094	0.93647
1313.35238	0.93814
1311.42381	0.93950
1309.49525	0.93982
1307.56668	0.93934
1305.63812	0.93808
1303.70955	0.93598
1301.78099	0.93345
1299.85243	0.93052
1297.92386	0.92688
1295.99530	0.92280
1294.06673	0.91905
1292.13817	0.91621
1290.20960	0.91462
1288.28104	0.91425
1286.35247	0.91448
1284.42391	0.91449
1282.49535	0.91420
1280.56678	0.91411
1278.63822	0.91484
1276.70965	0.91676
1274.78109	0.91985
1272.85252	0.92430
1270.92396	0.93052
1268.99539	0.93791
1267.06683	0.94533
1265.13827	0.95223
1263.20970	0.95809
1261.28114	0.96237
1259.35257	0.96544
1257.42401	0.96804
1255.49544	0.97081
1253.56688	0.97379
1251.63831	0.97631
1249.70975	0.97830
1247.78119	0.98020
1245.85262	0.98228
1243.92406	0.98423
1241.99549	0.98536
1240.06693	0.98524
1238.13836	0.98396
1236.20980	0.98176
1234.28123	0.97876
1232.35267	0.97477
1230.42411	0.96959
1228.49554	0.96345
1226.56698	0.95666
1224.63841	0.94939
1222.70985	0.94183
1220.78128	0.93416
1218.85272	0.92700
1216.92415	0.92122
1214.99559	0.91716
1213.06703	0.91493
1211.13846	0.91486
1209.20990	0.91651
1207.28133	0.91790
1205.35277	0.91705
1203.42420	0.91311
1201.49564	0.90656
1199.56708	0.89918
1197.63851	0.89224
1195.70995	0.88531
1193.78138	0.87837
1191.85282	0.87287
1189.92425	0.86935
1187.99569	0.86703
1186.06712	0.86543
1184.13856	0.86465
1182.21000	0.86510
1180.28143	0.86728
1178.35287	0.87150
1176.42430	0.87738
1174.49574	0.88376
1172.56717	0.89015
1170.63861	0.89729
1168.71004	0.90612
1166.78148	0.91723
1164.85292	0.93026
1162.92435	0.94362
1160.99579	0.95517
1159.06722	0.96307
1157.13866	0.96568
1155.21009	0.96195
1153.28153	0.95251
1151.35296	0.93947
1149.42440	0.92498
1147.49584	0.91089
1145.56727	0.89854
1143.63871	0.88867
1141.71014	0.88200
1139.78158	0.87886
1137.85301	0.87825
1135.92445	0.87924
1133.99588	0.88253
1132.06732	0.88917
1130.13876	0.89932
1128.21019	0.91197
1126.28163	0.92511
1124.35306	0.93732
1122.42450	0.94870
1120.49593	0.95920
1118.56737	0.96767
1116.63880	0.97314
1114.71024	0.97487
1112.78168	0.97281
1110.85311	0.96855
1108.92455	0.96362
1106.99598	0.95850
1105.06742	0.95352
1103.13885	0.94918
1101.21029	0.94600
1099.28172	0.94504
1097.35316	0.94747
1095.42460	0.95286
1093.49603	0.96013
1091.56747	0.96919
1089.63890	0.98018
1087.71034	0.99328
1085.78177	1.00862
1083.85321	1.02565
1081.92464	1.04289
1079.99608	1.05797
1078.06752	1.06861
1076.13895	1.07368
1074.21039	1.07370
1072.28182	1.06986
1070.35326	1.06286
1068.42469	1.05393
1066.49613	1.04503
1064.56756	1.03715
1062.63900	1.02956
1060.71044	1.02090
1058.78187	1.01108
1056.85331	1.00177
1054.92474	0.99445
1052.99618	0.98896
1051.06761	0.98468
1049.13905	0.98157
1047.21049	0.98065
1045.28192	0.98326
1043.35336	0.98943
1041.42479	0.99822
1039.49623	1.00789
1037.56766	1.01612
1035.63910	1.02181
1033.71053	1.02560
1031.78197	1.02823
1029.85341	1.02917
1027.92484	1.02772
1025.99628	1.02374
1024.06771	1.01742
1022.13915	1.00998
1020.21058	1.00342
1018.28202	0.99898
1016.35345	0.99594
1014.42489	0.99172
1012.49633	0.98418
1010.56776	0.97348
1008.63920	0.96075
1006.71063	0.94655
1004.78207	0.93167
1002.85350	0.91793
1000.92494	0.90666
998.99637	0.89761
997.06781	0.89040
995.13925	0.88498
993.21068	0.88032
991.28212	0.87512
989.35355	0.86924
987.42499	0.86325
985.49642	0.85785
983.56786	0.85369
981.63929	0.85066
979.71073	0.84826
977.78217	0.84600
975.85360	0.84321
973.92504	0.83893
971.99647	0.83264
970.06791	0.82479
968.13934	0.81626
966.21078	0.80781
964.28221	0.80030
962.35365	0.79511
960.42509	0.79368
958.49652	0.79613
956.56796	0.80041
954.63939	0.80339
952.71083	0.80290
950.78226	0.79850
948.85370	0.79137
946.92513	0.78383
944.99657	0.77759
943.06801	0.77299
941.13944	0.76950
939.21088	0.76638
937.28231	0.76320
935.35375	0.76000
933.42518	0.75690
931.49662	0.75405
929.56805	0.75167
927.63949	0.74992
925.71093	0.74887
923.78236	0.74815
921.85380	0.74719
919.92523	0.74574
917.99667	0.74393
916.06810	0.74202
914.13954	0.74028
912.21098	0.73936
910.28241	0.73975
908.35385	0.74120
906.42528	0.74337
904.49672	0.74631
902.56815	0.74995
900.63959	0.75352
898.71102	0.75651
896.78246	0.75912
894.85390	0.76093
892.92533	0.76151
890.99677	0.76144
889.06820	0.76117
887.13964	0.76059
885.21107	0.75985
883.28251	0.75950
881.35394	0.75951
879.42538	0.75967
877.49682	0.76018
875.56825	0.76117
873.63969	0.76244
871.71112	0.76352
869.78256	0.76416
867.85399	0.76500
865.92543	0.76649
863.99686	0.76819
862.06830	0.76969
860.13974	0.77135
858.21117	0.77373
856.28261	0.77670
854.35404	0.77959
852.42548	0.78172
850.49691	0.78281
848.56835	0.78301
846.63978	0.78276
844.71122	0.78242
842.78266	0.78212
840.85409	0.78229
838.92553	0.78308
836.99696	0.78364
835.06840	0.78357
833.13983	0.78355
831.21127	0.78361
829.28270	0.78324
827.35414	0.78278
825.42558	0.78281
823.49701	0.78326
821.56845	0.78372
819.63988	0.78370
817.71132	0.78311
815.78275	0.78249
813.85419	0.78234
811.92562	0.78243
809.99706	0.78236
808.06850	0.78191
806.13993	0.78073
804.21137	0.77915
802.28280	0.77817
800.35424	0.77785
798.42567	0.77728
796.49711	0.77627
794.56854	0.77552
792.63998	0.77500
790.71142	0.77419
788.78285	0.77346
786.85429	0.77320
784.92572	0.77348
782.99716	0.77440
781.06859	0.77545
779.14003	0.77610
777.21147	0.77648
775.28290	0.77671
773.35434	0.77691
771.42577	0.77727
769.49721	0.77789
767.56864	0.77857
765.64008	0.77914
763.71151	0.77972
761.78295	0.78037
759.85439	0.78108
757.92582	0.78175
755.99726	0.78252
754.06869	0.78370
752.14013	0.78500
750.21156	0.78589
748.28300	0.78640
746.35443	0.78681
744.42587	0.78711
742.49731	0.78723
740.56874	0.78728
738.64018	0.78746
736.71161	0.78807
734.78305	0.78900
732.85448	0.78970
730.92592	0.79030
728.99735	0.79088
727.06879	0.79127
725.14023	0.79179
723.21166	0.79285
721.28310	0.79472
719.35453	0.79669
717.42597	0.79746
715.49740	0.79778
713.56884	0.79905
711.64027	0.80105
709.71171	0.80279
707.78315	0.80419
705.85458	0.80598
703.92602	0.80832
701.99745	0.81039
700.06889	0.81153
698.14032	0.81188
696.21176	0.81209
694.28319	0.81219
692.35463	0.81153
690.42607	0.81008
688.49750	0.80890
686.56894	0.80856
684.64037	0.80848
682.71181	0.80851
680.78324	0.80872
678.85468	0.80793
676.92611	0.80598
674.99755	0.80504
673.06899	0.80588
671.14042	0.80715
669.21186	0.80825
667.28329	0.80898
665.35473	0.80925
663.42616	0.80947
661.49760	0.80942
659.56903	0.80896
657.64047	0.80823
655.71191	0.80703
653.78334	0.80579
651.85478	0.80490
649.92621	0.80372
647.99765	0.80151
646.06908	0.79904
644.14052	0.79786
642.21195	0.79795
640.28339	0.79877
638.35483	0.80076
636.42626	0.80287
634.49770	0.80283
632.56913	0.80059
630.64057	0.79803
628.71200	0.79671
626.78344	0.79745
624.85488	0.79980
622.92631	0.80206
620.99775	0.80377
619.06918	0.80578
617.14062	0.80830
615.21205	0.81064
613.28349	0.81257
611.35492	0.81410
609.42636	0.81464
607.49780	0.81464
605.56923	0.81494
603.64067	0.81443
601.71210	0.81191
599.78354	0.80769
