3997.91406	0.91473
3995.98550	0.91252
3994.05693	0.91065
3992.12837	0.90977
3990.19980	0.90942
3988.27124	0.90845
3986.34268	0.90705
3984.41411	0.90667
3982.48555	0.90728
3980.55698	0.90763
3978.62842	0.90723
3976.69985	0.90712
3974.77129	0.90808
3972.84272	0.90903
3970.91416	0.90915
3968.98560	0.90815
3967.05703	0.90486
3965.12847	0.90073
3963.19990	0.90033
3961.27134	0.90330
3959.34277	0.90471
3957.41421	0.90412
3955.48564	0.90267
3953.55708	0.89976
3951.62852	0.89695
3949.69995	0.89761
3947.77139	0.89983
3945.84282	0.89815
3943.91426	0.89535
3941.98569	0.89598
3940.05713	0.89679
3938.12856	0.89515
3936.20000	0.89259
3934.27144	0.89184
3932.34287	0.89433
3930.41431	0.89697
3928.48574	0.89714
3926.55718	0.89672
3924.62861	0.89694
3922.70005	0.89523
3920.77148	0.89229
3918.84292	0.89276
3916.91436	0.89674
3914.98579	0.89896
3913.05723	0.89746
3911.12866	0.89424
3909.20010	0.89011
3907.27153	0.88475
3905.34297	0.88197
3903.41440	0.88593
3901.48584	0.89091
3899.55728	0.89367
3897.62871	0.89263
3895.70015	0.88674
3893.77158	0.88203
3891.84302	0.88564
3889.91445	0.88845
3887.98589	0.88397
3886.05733	0.88156
3884.12876	0.88284
3882.20020	0.88311
3880.27163	0.88598
3878.34307	0.88547
3876.41450	0.88061
3874.48594	0.87837
3872.55737	0.87830
3870.62881	0.88106
3868.70025	0.88567
3866.77168	0.88504
3864.84312	0.88484
3862.91455	0.88727
3860.98599	0.88503
3859.05742	0.87870
3857.12886	0.87126
3855.20029	0.86703
3853.27173	0.87529
3851.34317	0.88162
3849.41460	0.87949
3847.48604	0.87614
3845.55747	0.87377
3843.62891	0.87288
3841.70034	0.87179
3839.77178	0.87240
3837.84321	0.87817
3835.91465	0.88087
3833.98609	0.87974
3832.05752	0.87794
3830.12896	0.87400
3828.20039	0.87056
3826.27183	0.87025
3824.34326	0.86764
3822.41470	0.86443
3820.48613	0.86911
3818.55757	0.87207
3816.62901	0.87455
3814.70044	0.87744
3812.77188	0.87432
3810.84331	0.86881
3808.91475	0.86507
3806.98618	0.86534
3805.05762	0.86398
3803.12905	0.86221
3801.20049	0.86795
3799.27193	0.87002
3797.34336	0.86906
3795.41480	0.87121
3793.48623	0.87198
3791.55767	0.87070
3789.62910	0.86802
3787.70054	0.86453
3785.77197	0.86377
3783.84341	0.86439
3781.91485	0.86265
3779.98628	0.86303
3778.05772	0.86577
3776.12915	0.86519
3774.20059	0.86229
3772.27202	0.85950
3770.34346	0.85984
3768.41489	0.86167
3766.48633	0.86230
3764.55777	0.86272
3762.62920	0.86029
3760.70064	0.85738
3758.77207	0.85883
3756.84351	0.85886
3754.91494	0.85347
3752.98638	0.84752
3751.05781	0.85077
3749.12925	0.85471
3747.20069	0.84886
3745.27212	0.84914
3743.34356	0.85910
3741.41499	0.86061
3739.48643	0.85444
3737.55786	0.84885
3735.62930	0.85246
3733.70074	0.86248
3731.77217	0.86479
3729.84361	0.86057
3727.91504	0.85594
3725.98648	0.85463
3724.05791	0.85536
3722.12935	0.85684
3720.20078	0.85930
3718.27222	0.85869
3716.34366	0.85264
3714.41509	0.84383
3712.48653	0.84046
3710.55796	0.84961
3708.62940	0.85605
3706.70083	0.85537
3704.77227	0.85261
3702.84370	0.85240
3700.91514	0.85498
3698.98658	0.85508
3697.05801	0.85405
3695.12945	0.85256
3693.20088	0.84845
3691.27232	0.84660
3689.34375	0.85699
3687.41519	0.86604
3685.48662	0.86601
3683.55806	0.86354
3681.62950	0.86106
3679.70093	0.85838
3677.77237	0.85620
3675.84380	0.86492
3673.91524	0.87628
3671.98667	0.87804
3670.05811	0.88662
3668.12954	0.89560
3666.20098	0.89476
3664.27242	0.89318
3662.34385	0.89403
3660.41529	0.89455
3658.48672	0.89517
3656.55816	0.90174
3654.62959	0.90795
3652.70103	0.90565
3650.77246	0.90460
3648.84390	0.92322
3646.91534	0.93760
3644.98677	0.93748
3643.05821	0.93690
3641.12964	0.94050
3639.20108	0.94540
3637.27251	0.94795
3635.34395	0.94982
3633.41538	0.95267
3631.48682	0.95659
3629.55826	0.97073
3627.62969	0.98714
3625.70113	0.98635
3623.77256	0.98177
3621.84400	0.98084
3619.91543	0.98979
3617.98687	1.00369
3616.05830	1.00755
3614.12974	1.01003
3612.20118	1.01771
3610.27261	1.02617
3608.34405	1.03674
3606.41548	1.04474
3604.48692	1.04606
3602.55835	1.04793
3600.62979	1.05328
3598.70123	1.05733
3596.77266	1.06115
3594.84410	1.07071
3592.91553	1.07970
3590.98697	1.08005
3589.05840	1.08080
3587.12984	1.09411
3585.20127	1.10728
3583.27271	1.11176
3581.34415	1.11454
3579.41558	1.11861
3577.48702	1.12324
3575.55845	1.12931
3573.62989	1.13630
3571.70132	1.13916
3569.77276	1.13739
3567.84419	1.14192
3565.91563	1.15779
3563.98707	1.16836
3562.05850	1.17475
3560.12994	1.18267
3558.20137	1.18992
3556.27281	1.19389
3554.34424	1.19909
3552.41568	1.20977
3550.48711	1.21912
3548.55855	1.22512
3546.62999	1.23410
3544.70142	1.24466
3542.77286	1.25114
3540.84429	1.25543
3538.91573	1.26085
3536.98716	1.26741
3535.05860	1.27315
3533.13003	1.27810
3531.20147	1.28485
3529.27291	1.29431
3527.34434	1.30460
3525.41578	1.31400
3523.48721	1.32293
3521.55865	1.33228
3519.63008	1.34246
3517.70152	1.35170
3515.77295	1.35539
3513.84439	1.35692
3511.91583	1.36364
3509.98726	1.37251
3508.05870	1.37804
3506.13013	1.38341
3504.20157	1.39439
3502.27300	1.40926
3500.34444	1.42093
3498.41587	1.42984
3496.48731	1.43996
3494.55875	1.45358
3492.63018	1.46924
3490.70162	1.48512
3488.77305	1.49956
3486.84449	1.50779
3484.91592	1.51066
3482.98736	1.51550
3481.05879	1.52250
3479.13023	1.52698
3477.20167	1.52962
3475.27310	1.53149
3473.34454	1.53540
3471.41597	1.54346
3469.48741	1.55160
3467.55884	1.55692
3465.63028	1.56017
3463.70171	1.56459
3461.77315	1.57185
3459.84459	1.57744
3457.91602	1.57882
3455.98746	1.58009
3454.05889	1.58370
3452.13033	1.58675
3450.20176	1.59034
3448.27320	1.59912
3446.34464	1.60874
3444.41607	1.61214
3442.48751	1.61120
3440.55894	1.60836
3438.63038	1.60692
3436.70181	1.60913
3434.77325	1.61018
3432.84468	1.60884
3430.91612	1.60775
3428.98756	1.60744
3427.05899	1.61185
3425.13043	1.61841
3423.20186	1.61721
3421.27330	1.61252
3419.34473	1.61610
3417.41617	1.62126
3415.48760	1.61851
3413.55904	1.61497
3411.63048	1.61857
3409.70191	1.62729
3407.77335	1.63233
3405.84478	1.62858
3403.91622	1.62205
3401.98765	1.61812
3400.05909	1.61887
3398.13052	1.62361
3396.20196	1.62649
3394.27340	1.62784
3392.34483	1.63053
3390.41627	1.63084
3388.48770	1.62847
3386.55914	1.62862
3384.63057	1.63283
3382.70201	1.63766
3380.77344	1.64100
3378.84488	1.64231
3376.91632	1.64348
3374.98775	1.64820
3373.05919	1.65382
3371.13062	1.65364
3369.20206	1.64745
3367.27349	1.64151
3365.34493	1.63988
3363.41636	1.64264
3361.48780	1.64604
3359.55924	1.64552
3357.63067	1.64633
3355.70211	1.65390
3353.77354	1.66253
3351.84498	1.66767
3349.91641	1.66942
3347.98785	1.66993
3346.05928	1.67756
3344.13072	1.69264
3342.20216	1.69908
3340.27359	1.69257
3338.34503	1.68763
3336.41646	1.68980
3334.48790	1.69300
3332.55933	1.69515
3330.63077	1.70124
3328.70220	1.71294
3326.77364	1.72481
3324.84508	1.73391
3322.91651	1.73890
3320.98795	1.73637
3319.05938	1.73264
3317.13082	1.73626
3315.20225	1.74409
3313.27369	1.75131
3311.34513	1.75564
3309.41656	1.75659
3307.48800	1.75904
3305.55943	1.76670
3303.63087	1.77547
3301.70230	1.77825
3299.77374	1.77893
3297.84517	1.78260
3295.91661	1.78718
3293.98805	1.79695
3292.05948	1.80904
3290.13092	1.81220
3288.20235	1.80947
3286.27379	1.81101
3284.34522	1.82060
3282.41666	1.82816
3280.48809	1.82417
3278.55953	1.81563
3276.63097	1.80699
3274.70240	1.80194
3272.77384	1.80640
3270.84527	1.81093
3268.91671	1.80606
3266.98814	1.79818
3265.05958	1.79222
3263.13101	1.78552
3261.20245	1.77675
3259.27389	1.76645
3257.34532	1.75548
3255.41676	1.74414
3253.48819	1.73155
3251.55963	1.71976
3249.63106	1.70964
3247.70250	1.69761
3245.77393	1.68484
3243.84537	1.67326
3241.91681	1.66018
3239.98824	1.64735
3238.05968	1.63780
3236.13111	1.62875
3234.20255	1.61602
3232.27398	1.60134
3230.34542	1.59155
3228.41685	1.58750
3226.48829	1.58418
3224.55973	1.58072
3222.63116	1.57740
3220.70260	1.57237
3218.77403	1.56466
3216.84547	1.55405
3214.91690	1.54432
3212.98834	1.54008
3211.05977	1.53792
3209.13121	1.53379
3207.20265	1.52760
3205.27408	1.51765
3203.34552	1.50596
3201.41695	1.49828
3199.48839	1.49455
3197.55982	1.49107
3195.63126	1.48688
3193.70269	1.48176
3191.77413	1.47518
3189.84557	1.46713
3187.91700	1.45646
3185.98844	1.44462
3184.05987	1.43558
3182.13131	1.42896
3180.20274	1.42268
3178.27418	1.41599
3176.34562	1.40795
3174.41705	1.39978
3172.48849	1.39300
3170.55992	1.38813
3168.63136	1.38660
3166.70279	1.38617
3164.77423	1.38191
3162.84566	1.37431
3160.91710	1.36772
3158.98854	1.36330
3157.05997	1.35890
3155.13141	1.35375
3153.20284	1.34876
3151.27428	1.34418
3149.34571	1.34024
3147.41715	1.33692
3145.48858	1.33319
3143.56002	1.32870
3141.63146	1.32447
3139.70289	1.32122
3137.77433	1.31875
3135.84576	1.31786
3133.91720	1.31906
3131.98863	1.31983
3130.06007	1.31801
3128.13150	1.31462
3126.20294	1.31206
3124.27438	1.31206
3122.34581	1.31249
3120.41725	1.31100
3118.48868	1.30963
3116.56012	1.30928
3114.63155	1.30877
3112.70299	1.30850
3110.77442	1.30791
3108.84586	1.30519
3106.91730	1.30161
3104.98873	1.30023
3103.06017	1.30100
3101.13160	1.30166
3099.20304	1.30058
3097.27447	1.29788
3095.34591	1.29456
3093.41734	1.29192
3091.48878	1.29102
3089.56022	1.28958
3087.63165	1.28584
3085.70309	1.28290
3083.77452	1.28236
3081.84596	1.28215
3079.91739	1.28093
3077.98883	1.27946
3076.06026	1.27791
3074.13170	1.27496
3072.20314	1.27035
3070.27457	1.26497
3068.34601	1.26017
3066.41744	1.25673
3064.48888	1.25281
3062.56031	1.24780
3060.63175	1.24353
3058.70318	1.23948
3056.77462	1.23393
3054.84606	1.22663
3052.91749	1.21907
3050.98893	1.21338
3049.06036	1.20945
3047.13180	1.20563
3045.20323	1.20118
3043.27467	1.19621
3041.34610	1.19140
3039.41754	1.18698
3037.48898	1.18194
3035.56041	1.17586
3033.63185	1.17084
3031.70328	1.16868
3029.77472	1.16644
3027.84615	1.16167
3025.91759	1.15721
3023.98903	1.15457
3022.06046	1.15191
3020.13190	1.14888
3018.20333	1.14627
3016.27477	1.14406
3014.34620	1.14176
3012.41764	1.13927
3010.48907	1.13722
3008.56051	1.13513
3006.63195	1.13255
3004.70338	1.13112
3002.77482	1.13086
3000.84625	1.12957
2998.91769	1.12812
2996.98912	1.12928
2995.06056	1.13253
2993.13199	1.13586
2991.20343	1.13977
2989.27487	1.14446
2987.34630	1.14825
2985.41774	1.15168
2983.48917	1.15645
2981.56061	1.16149
2979.63204	1.16532
2977.70348	1.16903
2975.77491	1.17486
2973.84635	1.18299
2971.91779	1.19080
2969.98922	1.19707
2968.06066	1.20369
2966.13209	1.21128
2964.20353	1.21787
2962.27496	1.22126
2960.34640	1.22029
2958.41783	1.21605
2956.48927	1.21116
2954.56071	1.20662
2952.63214	1.20167
2950.70358	1.19688
2948.77501	1.19378
2946.84645	1.19285
2944.91788	1.19470
2942.98932	1.20003
2941.06075	1.20846
2939.13219	1.21863
2937.20363	1.22917
2935.27506	1.23935
2933.34650	1.24789
2931.41793	1.25370
2929.48937	1.25816
2927.56080	1.26230
2925.63224	1.26493
2923.70367	1.26558
2921.77511	1.26410
2919.84655	1.26056
2917.91798	1.25540
2915.98942	1.24567
2914.06085	1.22887
2912.13229	1.20926
2910.20372	1.19206
2908.27516	1.17827
2906.34659	1.16685
2904.41803	1.15620
2902.48947	1.14625
2900.56090	1.13958
2898.63234	1.13720
2896.70377	1.13653
2894.77521	1.13490
2892.84664	1.13186
2890.91808	1.12853
2888.98952	1.12528
2887.06095	1.12177
2885.13239	1.11895
2883.20382	1.11857
2881.27526	1.12032
2879.34669	1.12173
2877.41813	1.12166
2875.48956	1.12066
2873.56100	1.11836
2871.63244	1.11387
2869.70387	1.10759
2867.77531	1.10154
2865.84674	1.09682
2863.91818	1.09327
2861.98961	1.09150
2860.06105	1.09190
2858.13248	1.09445
2856.20392	1.09885
2854.27536	1.10328
2852.34679	1.10562
2850.41823	1.10326
2848.48966	1.09227
2846.56110	1.07286
2844.63253	1.05147
2842.70397	1.03382
2840.77540	1.02107
2838.84684	1.01187
2836.91828	1.00496
2834.98971	0.99931
2833.06115	0.99415
2831.13258	0.99007
2829.20402	0.98724
2827.27545	0.98428
2825.34689	0.98096
2823.41832	0.97868
2821.48976	0.97735
2819.56120	0.97546
2817.63263	0.97304
2815.70407	0.97074
2813.77550	0.96837
2811.84694	0.96563
2809.91837	0.96257
2807.98981	0.95972
2806.06124	0.95780
2804.13268	0.95640
2802.20412	0.95430
2800.27555	0.95124
2798.34699	0.94827
2796.41842	0.94595
2794.48986	0.94367
2792.56129	0.94094
2790.63273	0.93800
2788.70416	0.93531
2786.77560	0.93323
2784.84704	0.93133
2782.91847	0.92897
2780.98991	0.92650
2779.06134	0.92419
2777.13278	0.92147
2775.20421	0.91840
2773.27565	0.91588
2771.34708	0.91387
2769.41852	0.91181
2767.48996	0.90996
2765.56139	0.90848
2763.63283	0.90737
2761.70426	0.90656
2759.77570	0.90559
2757.84713	0.90448
2755.91857	0.90336
2753.99001	0.90249
2752.06144	0.90222
2750.13288	0.90204
2748.20431	0.90139
2746.27575	0.90072
2744.34718	0.90035
2742.41862	0.89968
2740.49005	0.89842
2738.56149	0.89681
2736.63293	0.89499
2734.70436	0.89280
2732.77580	0.89049
2730.84723	0.88867
2728.91867	0.88713
2726.99010	0.88543
2725.06154	0.88343
2723.13297	0.88113
2721.20441	0.87900
2719.27585	0.87738
2717.34728	0.87580
2715.41872	0.87380
2713.49015	0.87173
2711.56159	0.87005
2709.63302	0.86854
2707.70446	0.86711
2705.77589	0.86586
2703.84733	0.86454
2701.91877	0.86330
2699.99020	0.86253
2698.06164	0.86206
2696.13307	0.86143
2694.20451	0.86059
2692.27594	0.85995
2690.34738	0.85983
2688.41881	0.85992
2686.49025	0.85976
2684.56169	0.85935
2682.63312	0.85859
2680.70456	0.85722
2678.77599	0.85589
2676.84743	0.85513
2674.91886	0.85455
2672.99030	0.85376
2671.06173	0.85271
2669.13317	0.85169
2667.20461	0.85081
2665.27604	0.84977
2663.34748	0.84845
2661.41891	0.84687
2659.49035	0.84512
2657.56178	0.84360
2655.63322	0.84222
2653.70465	0.84054
2651.77609	0.83877
2649.84753	0.83728
2647.91896	0.83586
2645.99040	0.83433
2644.06183	0.83328
2642.13327	0.83276
2640.20470	0.83195
2638.27614	0.83092
2636.34757	0.83041
2634.41901	0.83043
2632.49045	0.83053
2630.56188	0.83033
2628.63332	0.82980
2626.70475	0.82944
2624.77619	0.82947
2622.84762	0.82949
2620.91906	0.82906
2618.99049	0.82811
2617.06193	0.82678
2615.13337	0.82540
2613.20480	0.82430
2611.27624	0.82346
2609.34767	0.82250
2607.41911	0.82138
2605.49054	0.82023
2603.56198	0.81907
2601.63342	0.81786
2599.70485	0.81637
2597.77629	0.81470
2595.84772	0.81320
2593.91916	0.81189
2591.99059	0.81076
2590.06203	0.80962
2588.13346	0.80806
2586.20490	0.80613
2584.27634	0.80443
2582.34777	0.80305
2580.41921	0.80147
2578.49064	0.79987
2576.56208	0.79860
2574.63351	0.79726
2572.70495	0.79561
2570.77638	0.79391
2568.84782	0.79246
2566.91926	0.79146
2564.99069	0.79094
2563.06213	0.79061
2561.13356	0.79013
2559.20500	0.78948
2557.27643	0.78890
2555.34787	0.78879
2553.41930	0.78910
2551.49074	0.78917
2549.56218	0.78910
2547.63361	0.78965
2545.70505	0.79054
2543.77648	0.79093
2541.84792	0.79083
2539.91935	0.79035
2537.99079	0.78942
2536.06222	0.78834
2534.13366	0.78714
2532.20510	0.78579
2530.27653	0.78432
2528.34797	0.78250
2526.41940	0.78053
2524.49084	0.77867
2522.56227	0.77672
2520.63371	0.77484
2518.70514	0.77341
2516.77658	0.77244
2514.84802	0.77168
2512.91945	0.77080
2510.99089	0.76977
2509.06232	0.76888
2507.13376	0.76819
2505.20519	0.76759
2503.27663	0.76724
2501.34806	0.76730
2499.41950	0.76762
2497.49094	0.76772
2495.56237	0.76707
2493.63381	0.76583
2491.70524	0.76454
2489.77668	0.76348
2487.84811	0.76253
2485.91955	0.76135
2483.99098	0.75978
2482.06242	0.75813
2480.13386	0.75661
2478.20529	0.75511
2476.27673	0.75355
2474.34816	0.75219
2472.41960	0.75122
2470.49103	0.75047
2468.56247	0.74979
2466.63391	0.74921
2464.70534	0.74879
2462.77678	0.74849
2460.84821	0.74808
2458.91965	0.74753
2456.99108	0.74702
2455.06252	0.74636
2453.13395	0.74540
2451.20539	0.74469
2449.27683	0.74429
2447.34826	0.74342
2445.41970	0.74186
2443.49113	0.74023
2441.56257	0.73896
2439.63400	0.73789
2437.70544	0.73663
2435.77687	0.73526
2433.84831	0.73423
2431.91975	0.73346
2429.99118	0.73261
2428.06262	0.73187
2426.13405	0.73145
2424.20549	0.73124
2422.27692	0.73123
2420.34836	0.73134
2418.41979	0.73124
2416.49123	0.73090
2414.56267	0.73059
2412.63410	0.73042
2410.70554	0.73028
2408.77697	0.72980
2406.84841	0.72875
2404.91984	0.72753
2402.99128	0.72666
2401.06271	0.72589
2399.13415	0.72465
2397.20559	0.72307
2395.27702	0.72163
2393.34846	0.72028
2391.41989	0.71880
2389.49133	0.71739
2387.56276	0.71633
2385.63420	0.71545
2383.70563	0.71443
2381.77707	0.71309
2379.84851	0.71140
2377.91994	0.70936
2375.99138	0.70706
2374.06281	0.70425
2372.13425	0.70036
2370.20568	0.69646
2368.27712	0.69385
2366.34855	0.68994
2364.41999	0.68369
2362.49143	0.68004
2360.56286	0.68023
2358.63430	0.68126
2356.70573	0.68465
2354.77717	0.69094
2352.84860	0.69664
2350.92004	0.69837
2348.99147	0.69587
2347.06291	0.69065
2345.13435	0.68590
2343.20578	0.68570
2341.27722	0.68787
2339.34865	0.68935
2337.42009	0.69048
2335.49152	0.69052
2333.56296	0.68901
2331.63440	0.68854
2329.70583	0.69035
2327.77727	0.69202
2325.84870	0.69380
2323.92014	0.69637
2321.99157	0.69732
2320.06301	0.69659
2318.13444	0.69667
2316.20588	0.69790
2314.27732	0.69887
2312.34875	0.69877
2310.42019	0.69819
2308.49162	0.69831
2306.56306	0.69904
2304.63449	0.69912
2302.70593	0.69834
2300.77736	0.69751
2298.84880	0.69712
2296.92024	0.69723
2294.99167	0.69748
2293.06311	0.69745
2291.13454	0.69712
2289.20598	0.69686
2287.27741	0.69685
2285.34885	0.69667
2283.42028	0.69586
2281.49172	0.69468
2279.56316	0.69369
2277.63459	0.69291
2275.70603	0.69191
2273.77746	0.69068
2271.84890	0.68982
2269.92033	0.68956
2267.99177	0.68951
2266.06320	0.68953
2264.13464	0.68957
2262.20608	0.68965
2260.27751	0.68990
2258.34895	0.69003
2256.42038	0.69001
2254.49182	0.69035
2252.56325	0.69093
2250.63469	0.69129
2248.70612	0.69150
2246.77756	0.69173
2244.84900	0.69199
2242.92043	0.69203
2240.99187	0.69171
2239.06330	0.69124
2237.13474	0.69070
2235.20617	0.68986
2233.27761	0.68881
2231.34904	0.68783
2229.42048	0.68719
2227.49192	0.68674
2225.56335	0.68614
2223.63479	0.68548
2221.70622	0.68498
2219.77766	0.68456
2217.84909	0.68408
2215.92053	0.68365
2213.99196	0.68350
2212.06340	0.68368
2210.13484	0.68399
2208.20627	0.68408
2206.27771	0.68384
2204.34914	0.68367
2202.42058	0.68362
2200.49201	0.68328
2198.56345	0.68279
2196.63488	0.68252
2194.70632	0.68236
2192.77776	0.68198
2190.84919	0.68135
2188.92063	0.68084
2186.99206	0.68052
2185.06350	0.68021
2183.13493	0.67999
2181.20637	0.67991
2179.27781	0.67981
2177.34924	0.67997
2175.42068	0.68063
2173.49211	0.68136
2171.56355	0.68162
2169.63498	0.68152
2167.70642	0.68160
2165.77785	0.68203
2163.84929	0.68219
2161.92073	0.68175
2159.99216	0.68122
2158.06360	0.68086
2156.13503	0.68044
2154.20647	0.67995
2152.27790	0.67928
2150.34934	0.67842
2148.42077	0.67763
2146.49221	0.67710
2144.56365	0.67674
2142.63508	0.67639
2140.70652	0.67603
2138.77795	0.67585
2136.84939	0.67598
2134.92082	0.67630
2132.99226	0.67666
2131.06369	0.67723
2129.13513	0.67796
2127.20657	0.67842
2125.27800	0.67861
2123.34944	0.67881
2121.42087	0.67907
2119.49231	0.67919
2117.56374	0.67904
2115.63518	0.67853
2113.70661	0.67765
2111.77805	0.67653
2109.84949	0.67533
2107.92092	0.67412
2105.99236	0.67283
2104.06379	0.67142
2102.13523	0.66999
2100.20666	0.66858
2098.27810	0.66710
2096.34953	0.66567
2094.42097	0.66445
2092.49241	0.66330
2090.56384	0.66223
2088.63528	0.66134
2086.70671	0.66066
2084.77815	0.66034
2082.84958	0.66036
2080.92102	0.66052
2078.99245	0.66057
2077.06389	0.66057
2075.13533	0.66062
2073.20676	0.66058
2071.27820	0.66040
2069.34963	0.66036
2067.42107	0.66069
2065.49250	0.66129
2063.56394	0.66177
2061.63537	0.66192
2059.70681	0.66176
2057.77825	0.66136
2055.84968	0.66091
2053.92112	0.66064
2051.99255	0.66037
2050.06399	0.65986
2048.13542	0.65926
2046.20686	0.65858
2044.27830	0.65763
2042.34973	0.65671
2040.42117	0.65608
2038.49260	0.65535
2036.56404	0.65427
2034.63547	0.65308
2032.70691	0.65190
2030.77834	0.65083
2028.84978	0.64981
2026.92122	0.64858
2024.99265	0.64722
2023.06409	0.64609
2021.13552	0.64521
2019.20696	0.64439
2017.27839	0.64370
2015.34983	0.64321
2013.42126	0.64284
2011.49270	0.64252
2009.56414	0.64234
2007.63557	0.64224
2005.70701	0.64207
2003.77844	0.64192
2001.84988	0.64185
1999.92131	0.64194
1997.99275	0.64223
1996.06418	0.64232
1994.13562	0.64209
1992.20706	0.64210
1990.27849	0.64209
1988.34993	0.64156
1986.42136	0.64071
1984.49280	0.63964
1982.56423	0.63832
1980.63567	0.63685
1978.70710	0.63537
1976.77854	0.63400
1974.84998	0.63259
1972.92141	0.63076
1970.99285	0.62851
1969.06428	0.62643
1967.13572	0.62490
1965.20715	0.62346
1963.27859	0.62177
1961.35002	0.62022
1959.42146	0.61899
1957.49290	0.61794
1955.56433	0.61695
1953.63577	0.61591
1951.70720	0.61493
1949.77864	0.61410
1947.85007	0.61335
1945.92151	0.61264
1943.99294	0.61234
1942.06438	0.61297
1940.13582	0.61378
1938.20725	0.61410
1936.27869	0.61425
1934.35012	0.61447
1932.42156	0.61478
1930.49299	0.61517
1928.56443	0.61554
1926.63586	0.61552
1924.70730	0.61535
1922.77874	0.61570
1920.85017	0.61590
1918.92161	0.61583
1916.99304	0.61612
1915.06448	0.61587
1913.13591	0.61490
1911.20735	0.61401
1909.27878	0.61333
1907.35022	0.61240
1905.42166	0.61107
1903.49309	0.60954
1901.56453	0.60802
1899.63596	0.60642
1897.70740	0.60480
1895.77883	0.60360
1893.85027	0.60253
1891.92171	0.60115
1889.99314	0.60018
1888.06458	0.59955
1886.13601	0.59868
1884.20745	0.59812
1882.27888	0.59804
1880.35032	0.59795
1878.42175	0.59770
1876.49319	0.59764
1874.56463	0.59785
1872.63606	0.59759
1870.70750	0.59708
1868.77893	0.59808
1866.85037	0.59971
1864.92180	0.59964
1862.99324	0.59884
1861.06467	0.59834
1859.13611	0.59797
1857.20755	0.59724
1855.27898	0.59619
1853.35042	0.59494
1851.42185	0.59350
1849.49329	0.59196
1847.56472	0.59023
1845.63616	0.58871
1843.70759	0.58806
1841.77903	0.58712
1839.85047	0.58539
1837.92190	0.58378
1835.99334	0.58247
1834.06477	0.58080
1832.13621	0.57904
1830.20764	0.57851
1828.27908	0.57880
1826.35051	0.57858
1824.42195	0.57856
1822.49339	0.57853
1820.56482	0.57813
1818.63626	0.57799
1816.70769	0.57818
1814.77913	0.57824
1812.85056	0.57836
1810.92200	0.57929
1808.99343	0.58068
1807.06487	0.58162
1805.13631	0.58208
1803.20774	0.58243
1801.27918	0.58355
1799.35061	0.58525
1797.42205	0.58605
1795.49348	0.58602
1793.56492	0.58705
1791.63635	0.59024
1789.70779	0.59200
1787.77923	0.59194
1785.85066	0.59209
1783.92210	0.59243
1781.99353	0.59249
1780.06497	0.59268
1778.13640	0.59233
1776.20784	0.59077
1774.27927	0.58938
1772.35071	0.59040
1770.42215	0.59218
1768.49358	0.59252
1766.56502	0.59234
1764.63645	0.59210
1762.70789	0.59316
1760.77932	0.59590
1758.85076	0.59838
1756.92220	0.60158
1754.99363	0.60485
1753.06507	0.60725
1751.13650	0.61204
1749.20794	0.62098
1747.27937	0.62931
1745.35081	0.63545
1743.42224	0.64099
1741.49368	0.64683
1739.56512	0.65291
1737.63655	0.65656
1735.70799	0.65881
1733.77942	0.66636
1731.85086	0.67477
1729.92229	0.67945
1727.99373	0.68358
1726.06516	0.68763
1724.13660	0.69291
1722.20804	0.69806
1720.27947	0.70175
1718.35091	0.70872
1716.42234	0.72439
1714.49378	0.73724
1712.56521	0.74560
1710.63665	0.75421
1708.70808	0.76427
1706.77952	0.78064
1704.85096	0.80463
1702.92239	0.82660
1700.99383	0.85832
1699.06526	0.91262
1697.13670	0.96657
1695.20813	1.01971
1693.27957	1.05802
1691.35100	1.08884
1689.42244	1.12853
1687.49388	1.16722
1685.56531	1.20861
1683.63675	1.27922
1681.70818	1.33076
1679.77962	1.35926
1677.85105	1.38721
1675.92249	1.42398
1673.99392	1.46631
1672.06536	1.49856
1670.13680	1.53513
1668.20823	1.57668
1666.27967	1.59732
1664.35110	1.61287
1662.42254	1.63735
1660.49397	1.65947
1658.56541	1.67083
1656.63684	1.67369
1654.70828	1.67224
1652.77972	1.67886
1650.85115	1.68941
1648.92259	1.69134
1646.99402	1.68315
1645.06546	1.67333
1643.13689	1.66725
1641.20833	1.66312
1639.27976	1.66015
1637.35120	1.65768
1635.42264	1.65425
1633.49407	1.65106
1631.56551	1.64820
1629.63694	1.64315
1627.70838	1.63606
1625.77981	1.62611
1623.85125	1.61032
1621.92269	1.58982
1619.99412	1.57065
1618.06556	1.54538
1616.13699	1.50557
1614.20843	1.47115
1612.27986	1.44178
1610.35130	1.40943
1608.42273	1.37591
1606.49417	1.34675
1604.56561	1.32370
1602.63704	1.30508
1600.70848	1.29072
1598.77991	1.28020
1596.85135	1.27247
1594.92278	1.26684
1592.99422	1.26294
1591.06565	1.26132
1589.13709	1.26327
1587.20853	1.26921
1585.27996	1.27843
1583.35140	1.29021
1581.42283	1.30214
1579.49427	1.31223
1577.56570	1.32607
1575.63714	1.35085
1573.70857	1.36881
1571.78001	1.37977
1569.85145	1.39904
1567.92288	1.42346
1565.99432	1.44143
1564.06575	1.45589
1562.13719	1.46544
1560.20862	1.47658
1558.28006	1.50598
1556.35149	1.52249
1554.42293	1.52965
1552.49437	1.53589
1550.56580	1.54058
1548.63724	1.54169
1546.70867	1.53963
1544.78011	1.53517
1542.85154	1.52485
1540.92298	1.50932
1538.99441	1.50243
1537.06585	1.49995
1535.13729	1.49477
1533.20872	1.48744
1531.28016	1.47999
1529.35159	1.47260
1527.42303	1.46421
1525.49446	1.45582
1523.56590	1.44788
1521.63733	1.43936
1519.70877	1.43565
1517.78021	1.42978
1515.85164	1.41545
1513.92308	1.39785
1511.99451	1.37941
1510.06595	1.36080
1508.13738	1.33066
1506.20882	1.27791
1504.28025	1.25044
1502.35169	1.23184
1500.42313	1.20920
1498.49456	1.18035
1496.56600	1.14931
1494.63743	1.12653
1492.70887	1.10967
1490.78030	1.08997
1488.85174	1.06688
1486.92317	1.05135
1484.99461	1.04173
1483.06605	1.03517
1481.13748	1.03194
1479.20892	1.03204
1477.28035	1.03522
1475.35179	1.04259
1473.42322	1.06029
1471.49466	1.08450
1469.56610	1.09781
1467.63753	1.10536
1465.70897	1.11531
1463.78040	1.12700
1461.85184	1.13396
1459.92327	1.13817
1457.99471	1.14892
1456.06614	1.16673
1454.13758	1.17268
1452.20902	1.17299
1450.28045	1.17219
1448.35189	1.17089
1446.42332	1.16885
1444.49476	1.16567
1442.56619	1.16052
1440.63763	1.15307
1438.70906	1.14333
1436.78050	1.13061
1434.85194	1.11811
1432.92337	1.10792
1430.99481	1.09768
1429.06624	1.08765
1427.13768	1.07992
1425.20911	1.07505
1423.28055	1.07319
1421.35198	1.07340
1419.42342	1.07605
1417.49486	1.08000
1415.56629	1.08097
1413.63773	1.08020
1411.70916	1.07949
1409.78060	1.07932
1407.85203	1.07943
1405.92347	1.08093
1403.99490	1.08438
1402.06634	1.08727
1400.13778	1.08970
1398.20921	1.09287
1396.28065	1.09620
1394.35208	1.09978
1392.42352	1.10296
1390.49495	1.10616
1388.56639	1.11346
1386.63782	1.12772
1384.70926	1.14300
1382.78070	1.15576
1380.85213	1.16569
1378.92357	1.16980
1376.99500	1.16614
1375.06644	1.15381
1373.13787	1.13495
1371.20931	1.11539
1369.28074	1.09402
1367.35218	1.07103
1365.42362	1.05066
1363.49505	1.03186
1361.56649	1.01518
1359.63792	1.00409
1357.70936	0.99701
1355.78079	0.99227
1353.85223	0.98958
1351.92366	0.98830
1349.99510	0.98785
1348.06654	0.98798
1346.13797	0.98867
1344.20941	0.98987
1342.28084	0.99173
1340.35228	0.99537
1338.42371	1.00096
1336.49515	1.00706
1334.56659	1.01391
1332.63802	1.02207
1330.70946	1.03098
1328.78089	1.03889
1326.85233	1.04440
1324.92376	1.04782
1322.99520	1.05024
1321.06663	1.05273
1319.13807	1.05565
1317.20951	1.05813
1315.28094	1.05961
1313.35238	1.06072
1311.42381	1.06154
1309.49525	1.06140
1307.56668	1.06024
1305.63812	1.05867
1303.70955	1.05718
1301.78099	1.05537
1299.85243	1.05234
1297.92386	1.04801
1295.99530	1.04344
1294.06673	1.03968
1292.13817	1.03750
1290.20960	1.03708
1288.28104	1.03761
1286.35247	1.03827
1284.42391	1.03853
1282.49535	1.03864
1280.56678	1.03920
1278.63822	1.04054
1276.70965	1.04295
1274.78109	1.04678
1272.85252	1.05246
1270.92396	1.05985
1268.99539	1.06811
1267.06683	1.07650
1265.13827	1.08397
1263.20970	1.08926
1261.28114	1.09218
1259.35257	1.09356
1257.42401	1.09461
1255.49544	1.09610
1253.56688	1.09785
1251.63831	1.09936
1249.70975	1.10041
1247.78119	1.10106
1245.85262	1.10184
1243.92406	1.10265
1241.99549	1.10229
1240.06693	1.10042
1238.13836	1.09777
1236.20980	1.09410
1234.28123	1.08851
1232.35267	1.08140
1230.42411	1.07375
1228.49554	1.06566
1226.56698	1.05680
1224.63841	1.04766
1222.70985	1.03917
1220.78128	1.03126
1218.85272	1.02373
1216.92415	1.01761
1214.99559	1.01420
1213.06703	1.01401
1211.13846	1.01623
1209.20990	1.01941
1207.28133	1.02198
1205.35277	1.02167
1203.42420	1.01700
1201.49564	1.00901
1199.56708	0.99968
1197.63851	0.99001
1195.70995	0.98035
1193.78138	0.97169
1191.85282	0.96515
1189.92425	0.96090
1187.99569	0.95854
1186.06712	0.95753
1184.13856	0.95786
1182.21000	0.96016
1180.28143	0.96472
1178.35287	0.97170
1176.42430	0.98080
1174.49574	0.99093
1172.56717	1.00173
1170.63861	1.01395
1168.71004	1.02850
1166.78148	1.04607
1164.85292	1.06653
1162.92435	1.08758
1160.99579	1.10575
1159.06722	1.11792
1157.13866	1.12095
1155.21009	1.11357
1153.28153	1.09803
1151.35296	1.07752
1149.42440	1.05504
1147.49584	1.03377
1145.56727	1.01620
1143.63871	1.00354
1141.71014	0.99630
1139.78158	0.99414
1137.85301	0.99598
1135.92445	1.00121
1133.99588	1.01000
1132.06732	1.02233
1130.13876	1.03833
1128.21019	1.05746
1126.28163	1.07688
1124.35306	1.09477
1122.42450	1.11194
1120.49593	1.12824
1118.56737	1.14207
1116.63880	1.15142
1114.71024	1.15457
1112.78168	1.15285
1110.85311	1.14926
1108.92455	1.14484
1106.99598	1.13993
1105.06742	1.13535
1103.13885	1.13156
1101.21029	1.12956
1099.28172	1.13075
1097.35316	1.13573
1095.42460	1.14444
1093.49603	1.15632
1091.56747	1.17071
1089.63890	1.18752
1087.71034	1.20768
1085.78177	1.23105
1083.85321	1.25475
1081.92464	1.27640
1079.99608	1.29402
1078.06752	1.30478
1076.13895	1.30831
1074.21039	1.30562
1072.28182	1.29693
1070.35326	1.28326
1068.42469	1.26669
1066.49613	1.25003
1064.56756	1.23589
1062.63900	1.22408
1060.71044	1.21185
1058.78187	1.19861
1056.85331	1.18677
1054.92474	1.17738
1052.99618	1.16916
1051.06761	1.16198
1049.13905	1.15784
1047.21049	1.15836
1045.28192	1.16319
1043.35336	1.17108
1041.42479	1.18077
1039.49623	1.19074
1037.56766	1.19961
1035.63910	1.20678
1033.71053	1.21163
1031.78197	1.21293
1029.85341	1.21034
1027.92484	1.20472
1025.99628	1.19688
1024.06771	1.18753
1022.13915	1.17753
1020.21058	1.16746
1018.28202	1.15787
1016.35345	1.14869
1014.42489	1.13796
1012.49633	1.12290
1010.56776	1.10279
1008.63920	1.07936
1006.71063	1.05526
1004.78207	1.03230
1002.85350	1.01121
1000.92494	0.99277
998.99637	0.97757
997.06781	0.96480
995.13925	0.95305
993.21068	0.94156
991.28212	0.93008
989.35355	0.91840
987.42499	0.90714
985.49642	0.89763
983.56786	0.89074
981.63929	0.88661
979.71073	0.88488
977.78217	0.88456
975.85360	0.88428
973.92504	0.88261
971.99647	0.87853
970.06791	0.87225
968.13934	0.86481
966.21078	0.85760
964.28221	0.85256
962.35365	0.85173
960.42509	0.85634
958.49652	0.86575
956.56796	0.87572
954.63939	0.88028
952.71083	0.87685
950.78226	0.86738
948.85370	0.85573
946.92513	0.84518
944.99657	0.83667
943.06801	0.82992
941.13944	0.82501
939.21088	0.82148
937.28231	0.81824
935.35375	0.81510
933.42518	0.81281
931.49662	0.81164
929.56805	0.81096
927.63949	0.81023
925.71093	0.81005
923.78236	0.81090
921.85380	0.81182
919.92523	0.81161
917.99667	0.81032
916.06810	0.80855
914.13954	0.80694
912.21098	0.80626
910.28241	0.80701
908.35385	0.80945
906.42528	0.81356
904.49672	0.81889
902.56815	0.82497
900.63959	0.83141
898.71102	0.83741
896.78246	0.84232
894.85390	0.84575
892.92533	0.84771
890.99677	0.84889
889.06820	0.85002
887.13964	0.85104
885.21107	0.85181
883.28251	0.85276
881.35394	0.85380
879.42538	0.85409
877.49682	0.85341
875.56825	0.85217
873.63969	0.85071
871.71112	0.84921
869.78256	0.84824
867.85399	0.84818
865.92543	0.84807
863.99686	0.84714
862.06830	0.84648
860.13974	0.84701
858.21117	0.84866
856.28261	0.85164
854.35404	0.85524
852.42548	0.85794
850.49691	0.85955
848.56835	0.86061
846.63978	0.86158
844.71122	0.86319
842.78266	0.86549
840.85409	0.86823
838.92553	0.87137
836.99696	0.87437
835.06840	0.87688
833.13983	0.87928
831.21127	0.88182
829.28270	0.88465
827.35414	0.88775
825.42558	0.89073
823.49701	0.89395
821.56845	0.89786
819.63988	0.90142
817.71132	0.90415
815.78275	0.90690
813.85419	0.91000
811.92562	0.91328
809.99706	0.91649
808.06850	0.91920
806.13993	0.92114
804.21137	0.92232
802.28280	0.92337
800.35424	0.92460
798.42567	0.92540
796.49711	0.92546
794.56854	0.92499
792.63998	0.92425
790.71142	0.92331
788.78285	0.92214
786.85429	0.92109
784.92572	0.92031
782.99716	0.91945
781.06859	0.91875
779.14003	0.91887
777.21147	0.91911
775.28290	0.91878
773.35434	0.91911
771.42577	0.92072
769.49721	0.92256
767.56864	0.92419
765.64008	0.92568
763.71151	0.92710
761.78295	0.92894
759.85439	0.93161
757.92582	0.93541
755.99726	0.93979
754.06869	0.94341
752.14013	0.94672
750.21156	0.95065
748.28300	0.95408
746.35443	0.95642
744.42587	0.95886
742.49731	0.96212
740.56874	0.96553
738.64018	0.96886
736.71161	0.97346
734.78305	0.97973
732.85448	0.98636
730.92592	0.99278
728.99735	0.99939
727.06879	1.00617
725.14023	1.01243
723.21166	1.01767
721.28310	1.02210
719.35453	1.02563
717.42597	1.02799
715.49740	1.02960
713.56884	1.03021
711.64027	1.02912
709.71171	1.02708
707.78315	1.02521
705.85458	1.02343
703.92602	1.02091
701.99745	1.01699
700.06889	1.01226
698.14032	1.00819
696.21176	1.00509
694.28319	1.00178
692.35463	0.99746
690.42607	0.99265
688.49750	0.98799
686.56894	0.98409
684.64037	0.98265
682.71181	0.98350
680.78324	0.98309
678.85468	0.98035
676.92611	0.97770
674.99755	0.97602
673.06899	0.97435
671.14042	0.97207
669.21186	0.97058
667.28329	0.97419
665.35473	0.97849
663.42616	0.98143
661.49760	0.98481
659.56903	0.98808
657.64047	0.99080
655.71191	0.99446
653.78334	0.99916
651.85478	1.00404
649.92621	1.00979
647.99765	1.01583
646.06908	1.01903
644.14052	1.01958
642.21195	1.02020
640.28339	1.02013
638.35483	1.01772
636.42626	1.01262
634.49770	1.00499
632.56913	0.99762
630.64057	0.99216
628.71200	0.98656
626.78344	0.98029
624.85488	0.97547
622.92631	0.97296
620.99775	0.97171
619.06918	0.97179
617.14062	0.97393
615.21205	0.97839
613.28349	0.98578
611.35492	0.99441
609.42636	1.00167
607.49780	1.00895
605.56923	1.01776
603.64067	1.02686
601.71210	1.03581
599.78354	1.04360
