3997.91406	0.84876
3995.98550	0.84922
3994.05693	0.84903
3992.12837	0.84755
3990.19980	0.84563
3988.27124	0.84410
3986.34268	0.84260
3984.41411	0.84153
3982.48555	0.84187
3980.55698	0.84323
3978.62842	0.84367
3976.69985	0.84177
3974.77129	0.83808
3972.84272	0.83498
3970.91416	0.83468
3968.98560	0.83600
3967.05703	0.83564
3965.12847	0.83301
3963.19990	0.83049
3961.27134	0.82931
3959.34277	0.82805
3957.41421	0.82637
3955.48564	0.82552
3953.55708	0.82585
3951.62852	0.82653
3949.69995	0.82681
3947.77139	0.82684
3945.84282	0.82696
3943.91426	0.82823
3941.98569	0.83053
3940.05713	0.83152
3938.12856	0.83144
3936.20000	0.83106
3934.27144	0.82985
3932.34287	0.82871
3930.41431	0.82917
3928.48574	0.82955
3926.55718	0.82896
3924.62861	0.82958
3922.70005	0.83102
3920.77148	0.83100
3918.84292	0.83040
3916.91436	0.83004
3914.98579	0.82931
3913.05723	0.82863
3911.12866	0.82796
3909.20010	0.82563
3907.27153	0.82104
3905.34297	0.81661
3903.41440	0.81603
3901.48584	0.81803
3899.55728	0.81915
3897.62871	0.81918
3895.70015	0.81902
3893.77158	0.81913
3891.84302	0.81982
3889.91445	0.81937
3887.98589	0.81657
3886.05733	0.81368
3884.12876	0.81287
3882.20020	0.81308
3880.27163	0.81539
3878.34307	0.81805
3876.41450	0.81853
3874.48594	0.81848
3872.55737	0.81838
3870.62881	0.81744
3868.70025	0.81633
3866.77168	0.81520
3864.84312	0.81550
3862.91455	0.81848
3860.98599	0.82006
3859.05742	0.81802
3857.12886	0.81319
3855.20029	0.80804
3853.27173	0.81002
3851.34317	0.81659
3849.41460	0.81880
3847.48604	0.81789
3845.55747	0.81614
3843.62891	0.81548
3841.70034	0.81439
3839.77178	0.81179
3837.84321	0.81024
3835.91465	0.80961
3833.98609	0.80959
3832.05752	0.81039
3830.12896	0.81071
3828.20039	0.81088
3826.27183	0.81203
3824.34326	0.81227
3822.41470	0.80864
3820.48613	0.80299
3818.55757	0.80152
3816.62901	0.80411
3814.70044	0.80798
3812.77188	0.80894
3810.84331	0.80721
3808.91475	0.80461
3806.98618	0.80302
3805.05762	0.80162
3803.12905	0.79999
3801.20049	0.80278
3799.27193	0.80723
3797.34336	0.80934
3795.41480	0.81065
3793.48623	0.81084
3791.55767	0.80989
3789.62910	0.80833
3787.70054	0.80725
3785.77197	0.80762
3783.84341	0.80789
3781.91485	0.80683
3779.98628	0.80652
3778.05772	0.80766
3776.12915	0.80751
3774.20059	0.80555
3772.27202	0.80306
3770.34346	0.80188
3768.41489	0.80241
3766.48633	0.80202
3764.55777	0.80019
3762.62920	0.79802
3760.70064	0.79618
3758.77207	0.79645
3756.84351	0.79762
3754.91494	0.79566
3752.98638	0.78936
3751.05781	0.78424
3749.12925	0.78688
3747.20069	0.78954
3745.27212	0.79377
3743.34356	0.79875
3741.41499	0.79822
3739.48643	0.79496
3737.55786	0.79224
3735.62930	0.79131
3733.70074	0.79275
3731.77217	0.79582
3729.84361	0.79816
3727.91504	0.79888
3725.98648	0.79840
3724.05791	0.79905
3722.12935	0.80201
3720.20078	0.80483
3718.27222	0.80580
3716.34366	0.80512
3714.41509	0.80313
3712.48653	0.80066
3710.55796	0.80040
3708.62940	0.80186
3706.70083	0.80262
3704.77227	0.80260
3702.84370	0.80315
3700.91514	0.80523
3698.98658	0.80660
3697.05801	0.80662
3695.12945	0.80606
3693.20088	0.80459
3691.27232	0.80292
3689.34375	0.80488
3687.41519	0.80839
3685.48662	0.80919
3683.55806	0.80867
3681.62950	0.80779
3679.70093	0.80607
3677.77237	0.80381
3675.84380	0.80744
3673.91524	0.81622
3671.98667	0.82150
3670.05811	0.82802
3668.12954	0.83440
3666.20098	0.83827
3664.27242	0.84213
3662.34385	0.84594
3660.41529	0.84930
3658.48672	0.85285
3656.55816	0.85777
3654.62959	0.86167
3652.70103	0.86212
3650.77246	0.86120
3648.84390	0.86788
3646.91534	0.88010
3644.98677	0.88700
3643.05821	0.89062
3641.12964	0.89429
3639.20108	0.89969
3637.27251	0.90509
3635.34395	0.90974
3633.41538	0.91458
3631.48682	0.91829
3629.55826	0.92340
3627.62969	0.93331
3625.70113	0.94058
3623.77256	0.94448
3621.84400	0.94685
3619.91543	0.95201
3617.98687	0.96175
3616.05830	0.96972
3614.12974	0.97548
3612.20118	0.98110
3610.27261	0.98722
3608.34405	0.99679
3606.41548	1.00963
3604.48692	1.01860
3602.55835	1.02258
3600.62979	1.02620
3598.70123	1.03190
3596.77266	1.03742
3594.84410	1.04342
3592.91553	1.05067
3590.98697	1.05570
3589.05840	1.05974
3587.12984	1.06967
3585.20127	1.08338
3583.27271	1.09396
3581.34415	1.10141
3579.41558	1.10818
3577.48702	1.11504
3575.55845	1.11915
3573.62989	1.12160
3571.70132	1.12629
3569.77276	1.13149
3567.84419	1.13681
3565.91563	1.14780
3563.98707	1.15961
3562.05850	1.16739
3560.12994	1.17344
3558.20137	1.18101
3556.27281	1.18924
3554.34424	1.19720
3552.41568	1.20572
3550.48711	1.21249
3548.55855	1.21690
3546.62999	1.22116
3544.70142	1.22917
3542.77286	1.24091
3540.84429	1.25056
3538.91573	1.25627
3536.98716	1.26013
3535.05860	1.26385
3533.13003	1.26809
3531.20147	1.27393
3529.27291	1.28221
3527.34434	1.29136
3525.41578	1.29965
3523.48721	1.30671
3521.55865	1.31318
3519.63008	1.32028
3517.70152	1.32821
3515.77295	1.33656
3513.84439	1.34282
3511.91583	1.34460
3509.98726	1.34659
3508.05870	1.35368
3506.13013	1.36253
3504.20157	1.36960
3502.27300	1.37632
3500.34444	1.38679
3498.41587	1.39893
3496.48731	1.40576
3494.55875	1.40710
3492.63018	1.41132
3490.70162	1.42228
3488.77305	1.43475
3486.84449	1.44270
3484.91592	1.44541
3482.98736	1.44816
3481.05879	1.45601
3479.13023	1.46310
3477.20167	1.46513
3475.27310	1.46662
3473.34454	1.47072
3471.41597	1.47725
3469.48741	1.48254
3467.55884	1.48377
3465.63028	1.48388
3463.70171	1.48542
3461.77315	1.48943
3459.84459	1.49453
3457.91602	1.49632
3455.98746	1.49623
3454.05889	1.49925
3452.13033	1.50589
3450.20176	1.51189
3448.27320	1.51442
3446.34464	1.51735
3444.41607	1.52296
3442.48751	1.52806
3440.55894	1.53172
3438.63038	1.53494
3436.70181	1.53676
3434.77325	1.53606
3432.84468	1.53603
3430.91612	1.53997
3428.98756	1.54535
3427.05899	1.54794
3425.13043	1.54706
3423.20186	1.54501
3421.27330	1.54432
3419.34473	1.54546
3417.41617	1.54899
3415.48760	1.55584
3413.55904	1.56154
3411.63048	1.56111
3409.70191	1.55847
3407.77335	1.56119
3405.84478	1.56930
3403.91622	1.57528
3401.98765	1.57503
3400.05909	1.56960
3398.13052	1.56377
3396.20196	1.56567
3394.27340	1.57361
3392.34483	1.57728
3390.41627	1.57665
3388.48770	1.57754
3386.55914	1.57881
3384.63057	1.57757
3382.70201	1.57503
3380.77344	1.57618
3378.84488	1.58199
3376.91632	1.58652
3374.98775	1.58563
3373.05919	1.58026
3371.13062	1.57577
3369.20206	1.57644
3367.27349	1.58064
3365.34493	1.58516
3363.41636	1.58668
3361.48780	1.58498
3359.55924	1.58346
3357.63067	1.58419
3355.70211	1.58664
3353.77354	1.58785
3351.84498	1.58922
3349.91641	1.59452
3347.98785	1.59986
3346.05928	1.60239
3344.13072	1.60312
3342.20216	1.60113
3340.27359	1.60137
3338.34503	1.60728
3336.41646	1.61238
3334.48790	1.61329
3332.55933	1.61152
3330.63077	1.60962
3328.70220	1.61267
3326.77364	1.61983
3324.84508	1.62663
3322.91651	1.63385
3320.98795	1.63956
3319.05938	1.64048
3317.13082	1.64066
3315.20225	1.64376
3313.27369	1.64934
3311.34513	1.65427
3309.41656	1.65411
3307.48800	1.65194
3305.55943	1.65355
3303.63087	1.65809
3301.70230	1.66458
3299.77374	1.67145
3297.84517	1.67371
3295.91661	1.67266
3293.98805	1.67394
3292.05948	1.67590
3290.13092	1.67285
3288.20235	1.66709
3286.27379	1.66717
3284.34522	1.67508
3282.41666	1.68212
3280.48809	1.68149
3278.55953	1.68052
3276.63097	1.68223
3274.70240	1.67675
3272.77384	1.66891
3270.84527	1.67087
3268.91671	1.67524
3266.98814	1.66893
3265.05958	1.65344
3263.13101	1.63820
3261.20245	1.62828
3259.27389	1.62538
3257.34532	1.62728
3255.41676	1.62723
3253.48819	1.62297
3251.55963	1.61533
3249.63106	1.60476
3247.70250	1.59511
3245.77393	1.58795
3243.84537	1.58123
3241.91681	1.57418
3239.98824	1.56758
3238.05968	1.56176
3236.13111	1.55573
3234.20255	1.55107
3232.27398	1.54769
3230.34542	1.54103
3228.41685	1.53323
3226.48829	1.52995
3224.55973	1.52985
3222.63116	1.52865
3220.70260	1.52524
3218.77403	1.52041
3216.84547	1.51403
3214.91690	1.50862
3212.98834	1.50547
3211.05977	1.49923
3209.13121	1.49015
3207.20265	1.48440
3205.27408	1.48068
3203.34552	1.47447
3201.41695	1.46652
3199.48839	1.46143
3197.55982	1.45975
3195.63126	1.45617
3193.70269	1.45066
3191.77413	1.44631
3189.84557	1.44041
3187.91700	1.43178
3185.98844	1.42315
3184.05987	1.41607
3182.13131	1.41147
3180.20274	1.40743
3178.27418	1.40199
3176.34562	1.39776
3174.41705	1.39470
3172.48849	1.39029
3170.55992	1.38497
3168.63136	1.37898
3166.70279	1.37413
3164.77423	1.37253
3162.84566	1.37064
3160.91710	1.36526
3158.98854	1.35891
3157.05997	1.35367
3155.13141	1.34831
3153.20284	1.34162
3151.27428	1.33489
3149.34571	1.33114
3147.41715	1.33017
3145.48858	1.32769
3143.56002	1.32321
3141.63146	1.32022
3139.70289	1.31890
3137.77433	1.31732
3135.84576	1.31536
3133.91720	1.31397
3131.98863	1.31382
3130.06007	1.31395
3128.13150	1.31249
3126.20294	1.31007
3124.27438	1.30924
3122.34581	1.30909
3120.41725	1.30693
3118.48868	1.30564
3116.56012	1.30918
3114.63155	1.31362
3112.70299	1.31404
3110.77442	1.31212
3108.84586	1.30967
3106.91730	1.30699
3104.98873	1.30531
3103.06017	1.30491
3101.13160	1.30483
3099.20304	1.30345
3097.27447	1.30055
3095.34591	1.29791
3093.41734	1.29709
3091.48878	1.29849
3089.56022	1.30031
3087.63165	1.30040
3085.70309	1.29817
3083.77452	1.29459
3081.84596	1.29199
3079.91739	1.28988
3077.98883	1.28628
3076.06026	1.28193
3074.13170	1.27789
3072.20314	1.27464
3070.27457	1.27242
3068.34601	1.27114
3066.41744	1.26983
3064.48888	1.26586
3062.56031	1.25860
3060.63175	1.25235
3058.70318	1.25037
3056.77462	1.24983
3054.84606	1.24720
3052.91749	1.24311
3050.98893	1.23904
3049.06036	1.23568
3047.13180	1.23318
3045.20323	1.23120
3043.27467	1.22972
3041.34610	1.22851
3039.41754	1.22619
3037.48898	1.22214
3035.56041	1.21747
3033.63185	1.21337
3031.70328	1.21086
3029.77472	1.20895
3027.84615	1.20530
3025.91759	1.20115
3023.98903	1.19935
3022.06046	1.19881
3020.13190	1.19571
3018.20333	1.19009
3016.27477	1.18587
3014.34620	1.18386
3012.41764	1.18189
3010.48907	1.17899
3008.56051	1.17535
3006.63195	1.17143
3004.70338	1.16787
3002.77482	1.16472
3000.84625	1.16208
2998.91769	1.16078
2996.98912	1.16102
2995.06056	1.16203
2993.13199	1.16360
2991.20343	1.16580
2989.27487	1.16794
2987.34630	1.17094
2985.41774	1.17648
2983.48917	1.18321
2981.56061	1.18906
2979.63204	1.19445
2977.70348	1.20028
2975.77491	1.20668
2973.84635	1.21341
2971.91779	1.21994
2969.98922	1.22643
2968.06066	1.23374
2966.13209	1.24108
2964.20353	1.24658
2962.27496	1.24968
2960.34640	1.24957
2958.41783	1.24625
2956.48927	1.24255
2954.56071	1.23894
2952.63214	1.23353
2950.70358	1.22769
2948.77501	1.22422
2946.84645	1.22376
2944.91788	1.22588
2942.98932	1.23139
2941.06075	1.24066
2939.13219	1.25118
2937.20363	1.26101
2935.27506	1.27082
2933.34650	1.28005
2931.41793	1.28717
2929.48937	1.29448
2927.56080	1.30336
2925.63224	1.30977
2923.70367	1.31318
2921.77511	1.31598
2919.84655	1.31606
2917.91798	1.31098
2915.98942	1.30059
2914.06085	1.28453
2912.13229	1.26433
2910.20372	1.24527
2908.27516	1.23054
2906.34659	1.21920
2904.41803	1.21055
2902.48947	1.20387
2900.56090	1.19945
2898.63234	1.19807
2896.70377	1.19732
2894.77521	1.19491
2892.84664	1.19145
2890.91808	1.18824
2888.98952	1.18557
2887.06095	1.18306
2885.13239	1.18077
2883.20382	1.17905
2881.27526	1.17890
2879.34669	1.18066
2877.41813	1.18237
2875.48956	1.18195
2873.56100	1.17878
2871.63244	1.17364
2869.70387	1.16803
2867.77531	1.16257
2865.84674	1.15735
2863.91818	1.15311
2861.98961	1.15129
2860.06105	1.15289
2858.13248	1.15704
2856.20392	1.16235
2854.27536	1.16870
2852.34679	1.17480
2850.41823	1.17573
2848.48966	1.16576
2846.56110	1.14456
2844.63253	1.11914
2842.70397	1.09754
2840.77540	1.08246
2838.84684	1.07203
2836.91828	1.06416
2834.98971	1.05793
2833.06115	1.05256
2831.13258	1.04729
2829.20402	1.04230
2827.27545	1.03779
2825.34689	1.03315
2823.41832	1.02883
2821.48976	1.02544
2819.56120	1.02188
2817.63263	1.01728
2815.70407	1.01224
2813.77550	1.00800
2811.84694	1.00494
2809.91837	1.00191
2807.98981	0.99840
2806.06124	0.99517
2804.13268	0.99215
2802.20412	0.98850
2800.27555	0.98456
2798.34699	0.98137
2796.41842	0.97866
2794.48986	0.97535
2792.56129	0.97184
2790.63273	0.96917
2788.70416	0.96754
2786.77560	0.96636
2784.84704	0.96484
2782.91847	0.96312
2780.98991	0.96176
2779.06134	0.96068
2777.13278	0.95970
2775.20421	0.95872
2773.27565	0.95745
2771.34708	0.95565
2769.41852	0.95356
2767.48996	0.95162
2765.56139	0.95003
2763.63283	0.94863
2761.70426	0.94711
2759.77570	0.94556
2757.84713	0.94391
2755.91857	0.94204
2753.99001	0.94029
2752.06144	0.93853
2750.13288	0.93662
2748.20431	0.93536
2746.27575	0.93489
2744.34718	0.93399
2742.41862	0.93253
2740.49005	0.93131
2738.56149	0.93002
2736.63293	0.92850
2734.70436	0.92725
2732.77580	0.92598
2730.84723	0.92473
2728.91867	0.92408
2726.99010	0.92361
2725.06154	0.92274
2723.13297	0.92151
2721.20441	0.92010
2719.27585	0.91891
2717.34728	0.91820
2715.41872	0.91752
2713.49015	0.91616
2711.56159	0.91453
2709.63302	0.91378
2707.70446	0.91386
2705.77589	0.91353
2703.84733	0.91210
2701.91877	0.91048
2699.99020	0.90972
2698.06164	0.90958
2696.13307	0.90925
2694.20451	0.90847
2692.27594	0.90737
2690.34738	0.90580
2688.41881	0.90381
2686.49025	0.90187
2684.56169	0.90009
2682.63312	0.89813
2680.70456	0.89609
2678.77599	0.89444
2676.84743	0.89269
2674.91886	0.89003
2672.99030	0.88707
2671.06173	0.88447
2669.13317	0.88195
2667.20461	0.87945
2665.27604	0.87719
2663.34748	0.87515
2661.41891	0.87315
2659.49035	0.87104
2657.56178	0.86891
2655.63322	0.86685
2653.70465	0.86471
2651.77609	0.86241
2649.84753	0.86025
2647.91896	0.85845
2645.99040	0.85670
2644.06183	0.85506
2642.13327	0.85382
2640.20470	0.85259
2638.27614	0.85089
2636.34757	0.84902
2634.41901	0.84746
2632.49045	0.84624
2630.56188	0.84529
2628.63332	0.84425
2626.70475	0.84252
2624.77619	0.84060
2622.84762	0.83947
2620.91906	0.83866
2618.99049	0.83739
2617.06193	0.83596
2615.13337	0.83453
2613.20480	0.83291
2611.27624	0.83134
2609.34767	0.82994
2607.41911	0.82834
2605.49054	0.82659
2603.56198	0.82511
2601.63342	0.82371
2599.70485	0.82215
2597.77629	0.82065
2595.84772	0.81939
2593.91916	0.81836
2591.99059	0.81736
2590.06203	0.81638
2588.13346	0.81563
2586.20490	0.81511
2584.27634	0.81453
2582.34777	0.81393
2580.41921	0.81384
2578.49064	0.81417
2576.56208	0.81415
2574.63351	0.81371
2572.70495	0.81357
2570.77638	0.81419
2568.84782	0.81515
2566.91926	0.81593
2564.99069	0.81649
2563.06213	0.81660
2561.13356	0.81616
2559.20500	0.81578
2557.27643	0.81575
2555.34787	0.81569
2553.41930	0.81533
2551.49074	0.81478
2549.56218	0.81418
2547.63361	0.81349
2545.70505	0.81253
2543.77648	0.81137
2541.84792	0.81015
2539.91935	0.80873
2537.99079	0.80728
2536.06222	0.80612
2534.13366	0.80509
2532.20510	0.80368
2530.27653	0.80192
2528.34797	0.80015
2526.41940	0.79812
2524.49084	0.79582
2522.56227	0.79392
2520.63371	0.79246
2518.70514	0.79084
2516.77658	0.78889
2514.84802	0.78697
2512.91945	0.78552
2510.99089	0.78416
2509.06232	0.78252
2507.13376	0.78118
2505.20519	0.78032
2503.27663	0.77922
2501.34806	0.77765
2499.41950	0.77604
2497.49094	0.77445
2495.56237	0.77279
2493.63381	0.77116
2491.70524	0.76949
2489.77668	0.76802
2487.84811	0.76714
2485.91955	0.76639
2483.99098	0.76505
2482.06242	0.76333
2480.13386	0.76181
2478.20529	0.76043
2476.27673	0.75876
2474.34816	0.75673
2472.41960	0.75438
2470.49103	0.75186
2468.56247	0.74968
2466.63391	0.74775
2464.70534	0.74549
2462.77678	0.74285
2460.84821	0.74005
2458.91965	0.73731
2456.99108	0.73483
2455.06252	0.73278
2453.13395	0.73099
2451.20539	0.72896
2449.27683	0.72679
2447.34826	0.72495
2445.41970	0.72336
2443.49113	0.72195
2441.56257	0.72102
2439.63400	0.72045
2437.70544	0.71973
2435.77687	0.71885
2433.84831	0.71828
2431.91975	0.71809
2429.99118	0.71812
2428.06262	0.71827
2426.13405	0.71850
2424.20549	0.71876
2422.27692	0.71903
2420.34836	0.71925
2418.41979	0.71935
2416.49123	0.71934
2414.56267	0.71939
2412.63410	0.71954
2410.70554	0.71958
2408.77697	0.71949
2406.84841	0.71941
2404.91984	0.71911
2402.99128	0.71854
2401.06271	0.71812
2399.13415	0.71783
2397.20559	0.71713
2395.27702	0.71604
2393.34846	0.71508
2391.41989	0.71438
2389.49133	0.71366
2387.56276	0.71280
2385.63420	0.71171
2383.70563	0.71039
2381.77707	0.70896
2379.84851	0.70732
2377.91994	0.70520
2375.99138	0.70280
2374.06281	0.70079
2372.13425	0.69921
2370.20568	0.69717
2368.27712	0.69376
2366.34855	0.68978
2364.41999	0.68713
2362.49143	0.68539
2360.56286	0.68372
2358.63430	0.68147
2356.70573	0.68113
2354.77717	0.68583
2352.84860	0.69314
2350.92004	0.69850
2348.99147	0.70011
2347.06291	0.69833
2345.13435	0.69401
2343.20578	0.68909
2341.27722	0.68636
2339.34865	0.68708
2337.42009	0.68916
2335.49152	0.68956
2333.56296	0.68785
2331.63440	0.68544
2329.70583	0.68365
2327.77727	0.68303
2325.84870	0.68340
2323.92014	0.68283
2321.99157	0.68027
2320.06301	0.67793
2318.13444	0.67706
2316.20588	0.67677
2314.27732	0.67607
2312.34875	0.67449
2310.42019	0.67290
2308.49162	0.67237
2306.56306	0.67247
2304.63449	0.67223
2302.70593	0.67136
2300.77736	0.67027
2298.84880	0.66964
2296.92024	0.66967
2294.99167	0.66983
2293.06311	0.66983
2291.13454	0.67010
2289.20598	0.67070
2287.27741	0.67112
2285.34885	0.67114
2283.42028	0.67091
2281.49172	0.67065
2279.56316	0.67060
2277.63459	0.67062
2275.70603	0.67037
2273.77746	0.66991
2271.84890	0.66951
2269.92033	0.66933
2267.99177	0.66915
2266.06320	0.66858
2264.13464	0.66774
2262.20608	0.66714
2260.27751	0.66676
2258.34895	0.66619
2256.42038	0.66548
2254.49182	0.66502
2252.56325	0.66476
2250.63469	0.66434
2248.70612	0.66377
2246.77756	0.66349
2244.84900	0.66366
2242.92043	0.66403
2240.99187	0.66441
2239.06330	0.66479
2237.13474	0.66519
2235.20617	0.66583
2233.27761	0.66657
2231.34904	0.66711
2229.42048	0.66775
2227.49192	0.66882
2225.56335	0.67007
2223.63479	0.67113
2221.70622	0.67208
2219.77766	0.67316
2217.84909	0.67418
2215.92053	0.67475
2213.99196	0.67505
2212.06340	0.67542
2210.13484	0.67589
2208.20627	0.67629
2206.27771	0.67656
2204.34914	0.67682
2202.42058	0.67702
2200.49201	0.67699
2198.56345	0.67680
2196.63488	0.67640
2194.70632	0.67559
2192.77776	0.67449
2190.84919	0.67328
2188.92063	0.67201
2186.99206	0.67075
2185.06350	0.66958
2183.13493	0.66851
2181.20637	0.66728
2179.27781	0.66573
2177.34924	0.66436
2175.42068	0.66340
2173.49211	0.66262
2171.56355	0.66188
2169.63498	0.66121
2167.70642	0.66057
2165.77785	0.65994
2163.84929	0.65933
2161.92073	0.65880
2159.99216	0.65851
2158.06360	0.65861
2156.13503	0.65888
2154.20647	0.65897
2152.27790	0.65896
2150.34934	0.65916
2148.42077	0.65954
2146.49221	0.65982
2144.56365	0.65990
2142.63508	0.65984
2140.70652	0.65989
2138.77795	0.66007
2136.84939	0.66010
2134.92082	0.65985
2132.99226	0.65951
2131.06369	0.65943
2129.13513	0.65943
2127.20657	0.65893
2125.27800	0.65798
2123.34944	0.65699
2121.42087	0.65605
2119.49231	0.65503
2117.56374	0.65388
2115.63518	0.65283
2113.70661	0.65193
2111.77805	0.65093
2109.84949	0.64980
2107.92092	0.64882
2105.99236	0.64807
2104.06379	0.64744
2102.13523	0.64675
2100.20666	0.64614
2098.27810	0.64605
2096.34953	0.64646
2094.42097	0.64683
2092.49241	0.64691
2090.56384	0.64704
2088.63528	0.64756
2086.70671	0.64835
2084.77815	0.64918
2082.84958	0.65010
2080.92102	0.65108
2078.99245	0.65193
2077.06389	0.65260
2075.13533	0.65306
2073.20676	0.65338
2071.27820	0.65386
2069.34963	0.65443
2067.42107	0.65468
2065.49250	0.65449
2063.56394	0.65405
2061.63537	0.65360
2059.70681	0.65318
2057.77825	0.65271
2055.84968	0.65198
2053.92112	0.65094
2051.99255	0.64968
2050.06399	0.64828
2048.13542	0.64689
2046.20686	0.64569
2044.27830	0.64461
2042.34973	0.64345
2040.42117	0.64221
2038.49260	0.64107
2036.56404	0.64026
2034.63547	0.63976
2032.70691	0.63930
2030.77834	0.63871
2028.84978	0.63826
2026.92122	0.63807
2024.99265	0.63803
2023.06409	0.63825
2021.13552	0.63853
2019.20696	0.63864
2017.27839	0.63889
2015.34983	0.63940
2013.42126	0.63995
2011.49270	0.64054
2009.56414	0.64121
2007.63557	0.64176
2005.70701	0.64206
2003.77844	0.64235
2001.84988	0.64280
1999.92131	0.64332
1997.99275	0.64383
1996.06418	0.64417
1994.13562	0.64427
1992.20706	0.64425
1990.27849	0.64400
1988.34993	0.64349
1986.42136	0.64306
1984.49280	0.64269
1982.56423	0.64211
1980.63567	0.64125
1978.70710	0.64026
1976.77854	0.63939
1974.84998	0.63875
1972.92141	0.63825
1970.99285	0.63775
1969.06428	0.63738
1967.13572	0.63739
1965.20715	0.63753
1963.27859	0.63750
1961.35002	0.63756
1959.42146	0.63801
1957.49290	0.63868
1955.56433	0.63940
1953.63577	0.64026
1951.70720	0.64132
1949.77864	0.64240
1947.85007	0.64349
1945.92151	0.64460
1943.99294	0.64562
1942.06438	0.64670
1940.13582	0.64791
1938.20725	0.64895
1936.27869	0.64967
1934.35012	0.65003
1932.42156	0.65018
1930.49299	0.65036
1928.56443	0.65051
1926.63586	0.65044
1924.70730	0.65016
1922.77874	0.64981
1920.85017	0.64934
1918.92161	0.64894
1916.99304	0.64885
1915.06448	0.64866
1913.13591	0.64805
1911.20735	0.64722
1909.27878	0.64640
1907.35022	0.64558
1905.42166	0.64463
1903.49309	0.64359
1901.56453	0.64268
1899.63596	0.64189
1897.70740	0.64108
1895.77883	0.64032
1893.85027	0.63962
1891.92171	0.63905
1889.99314	0.63880
1888.06458	0.63865
1886.13601	0.63832
1884.20745	0.63813
1882.27888	0.63825
1880.35032	0.63826
1878.42175	0.63796
1876.49319	0.63778
1874.56463	0.63792
1872.63606	0.63786
1870.70750	0.63737
1868.77893	0.63720
1866.85037	0.63749
1864.92180	0.63749
1862.99324	0.63713
1861.06467	0.63657
1859.13611	0.63603
1857.20755	0.63542
1855.27898	0.63457
1853.35042	0.63360
1851.42185	0.63261
1849.49329	0.63157
1847.56472	0.63047
1845.63616	0.62947
1843.70759	0.62889
1841.77903	0.62860
1839.85047	0.62840
1837.92190	0.62847
1835.99334	0.62875
1834.06477	0.62888
1832.13621	0.62895
1830.20764	0.62957
1828.27908	0.63063
1826.35051	0.63128
1824.42195	0.63185
1822.49339	0.63270
1820.56482	0.63368
1818.63626	0.63472
1816.70769	0.63579
1814.77913	0.63688
1812.85056	0.63806
1810.92200	0.63955
1808.99343	0.64101
1807.06487	0.64209
1805.13631	0.64313
1803.20774	0.64420
1801.27918	0.64538
1799.35061	0.64661
1797.42205	0.64763
1795.49348	0.64841
1793.56492	0.64915
1791.63635	0.65048
1789.70779	0.65176
1787.77923	0.65247
1785.85066	0.65298
1783.92210	0.65344
1781.99353	0.65379
1780.06497	0.65416
1778.13640	0.65457
1776.20784	0.65465
1774.27927	0.65493
1772.35071	0.65667
1770.42215	0.65905
1768.49358	0.66092
1766.56502	0.66289
1764.63645	0.66483
1762.70789	0.66727
1760.77932	0.67088
1758.85076	0.67481
1756.92220	0.67960
1754.99363	0.68454
1753.06507	0.68917
1751.13650	0.69597
1749.20794	0.70549
1747.27937	0.71384
1745.35081	0.72015
1743.42224	0.72570
1741.49368	0.73087
1739.56512	0.73535
1737.63655	0.73799
1735.70799	0.73921
1733.77942	0.74185
1731.85086	0.74541
1729.92229	0.74811
1727.99373	0.75064
1726.06516	0.75339
1724.13660	0.75717
1722.20804	0.76119
1720.27947	0.76484
1718.35091	0.77063
1716.42234	0.78095
1714.49378	0.78996
1712.56521	0.79770
1710.63665	0.80684
1708.70808	0.81760
1706.77952	0.83365
1704.85096	0.85662
1702.92239	0.87897
1700.99383	0.91070
1699.06526	0.96222
1697.13670	1.01514
1695.20813	1.06917
1693.27957	1.10787
1691.35100	1.13859
1689.42244	1.17690
1687.49388	1.21319
1685.56531	1.24972
1683.63675	1.30879
1681.70818	1.35258
1679.77962	1.37845
1677.85105	1.40300
1675.92249	1.42948
1673.99392	1.45399
1672.06536	1.47039
1670.13680	1.48872
1668.20823	1.51151
1666.27967	1.52396
1664.35110	1.53143
1662.42254	1.53955
1660.49397	1.54640
1658.56541	1.55076
1656.63684	1.55211
1654.70828	1.55290
1652.77972	1.55526
1650.85115	1.55402
1648.92259	1.55124
1646.99402	1.54797
1645.06546	1.54393
1643.13689	1.54055
1641.20833	1.53837
1639.27976	1.53446
1637.35120	1.52758
1635.42264	1.52125
1633.49407	1.51825
1631.56551	1.51380
1629.63694	1.50468
1627.70838	1.49235
1625.77981	1.47982
1623.85125	1.46364
1621.92269	1.44320
1619.99412	1.42516
1618.06556	1.40211
1616.13699	1.36693
1614.20843	1.33960
1612.27986	1.31976
1610.35130	1.29969
1608.42273	1.28022
1606.49417	1.26432
1604.56561	1.25249
1602.63704	1.24433
1600.70848	1.24011
1598.77991	1.23864
1596.85135	1.23900
1594.92278	1.24077
1592.99422	1.24338
1591.06565	1.24733
1589.13709	1.25349
1587.20853	1.26135
1585.27996	1.26942
1583.35140	1.27794
1581.42283	1.28722
1579.49427	1.29607
1577.56570	1.30705
1575.63714	1.32323
1573.70857	1.33440
1571.78001	1.34155
1569.85145	1.35209
1567.92288	1.36399
1565.99432	1.37368
1564.06575	1.38372
1562.13719	1.39228
1560.20862	1.40317
1558.28006	1.42468
1556.35149	1.43231
1554.42293	1.43458
1552.49437	1.43783
1550.56580	1.44154
1548.63724	1.44363
1546.70867	1.44240
1544.78011	1.43836
1542.85154	1.43306
1540.92298	1.42870
1538.99441	1.42329
1537.06585	1.41813
1535.13729	1.41246
1533.20872	1.40656
1531.28016	1.40138
1529.35159	1.39462
1527.42303	1.38522
1525.49446	1.37860
1523.56590	1.37779
1521.63733	1.37419
1519.70877	1.36662
1517.78021	1.35775
1515.85164	1.34534
1513.92308	1.33084
1511.99451	1.31438
1510.06595	1.29676
1508.13738	1.26870
1506.20882	1.22188
1504.28025	1.19847
1502.35169	1.18291
1500.42313	1.16390
1498.49456	1.13836
1496.56600	1.10832
1494.63743	1.08654
1492.70887	1.07224
1490.78030	1.05533
1488.85174	1.03284
1486.92317	1.01748
1484.99461	1.00963
1483.06605	1.00497
1481.13748	1.00285
1479.20892	1.00380
1477.28035	1.00844
1475.35179	1.01785
1473.42322	1.03670
1471.49466	1.06081
1469.56610	1.07532
1467.63753	1.08527
1465.70897	1.09834
1463.78040	1.11360
1461.85184	1.12336
1459.92327	1.12989
1457.99471	1.14307
1456.06614	1.16333
1454.13758	1.17244
1452.20902	1.17659
1450.28045	1.18011
1448.35189	1.18358
1446.42332	1.18654
1444.49476	1.18800
1442.56619	1.18757
1440.63763	1.18597
1438.70906	1.18385
1436.78050	1.18062
1434.85194	1.17566
1432.92337	1.17029
1430.99481	1.16454
1429.06624	1.15933
1427.13768	1.15647
1425.20911	1.15565
1423.28055	1.15684
1421.35198	1.15924
1419.42342	1.16179
1417.49486	1.16296
1415.56629	1.16256
1413.63773	1.16196
1411.70916	1.16100
1409.78060	1.16022
1407.85203	1.16068
1405.92347	1.16278
1403.99490	1.16573
1402.06634	1.16787
1400.13778	1.16964
1398.20921	1.17164
1396.28065	1.17420
1394.35208	1.17792
1392.42352	1.18172
1390.49495	1.18549
1388.56639	1.19187
1386.63782	1.20197
1384.70926	1.21127
1382.78070	1.21806
1380.85213	1.22233
1378.92357	1.22265
1376.99500	1.21812
1375.06644	1.20728
1373.13787	1.19150
1371.20931	1.17572
1369.28074	1.15843
1367.35218	1.13883
1365.42362	1.11980
1363.49505	1.09974
1361.56649	1.07978
1359.63792	1.06491
1357.70936	1.05317
1355.78079	1.04231
1353.85223	1.03277
1351.92366	1.02471
1349.99510	1.01767
1348.06654	1.01189
1346.13797	1.00736
1344.20941	1.00403
1342.28084	1.00229
1340.35228	1.00249
1338.42371	1.00505
1336.49515	1.00951
1334.56659	1.01544
1332.63802	1.02337
1330.70946	1.03312
1328.78089	1.04273
1326.85233	1.05053
1324.92376	1.05696
1322.99520	1.06349
1321.06663	1.07106
1319.13807	1.07961
1317.20951	1.08775
1315.28094	1.09441
1313.35238	1.10009
1311.42381	1.10501
1309.49525	1.10928
1307.56668	1.11303
1305.63812	1.11583
1303.70955	1.11745
1301.78099	1.11771
1299.85243	1.11644
1297.92386	1.11381
1295.99530	1.11042
1294.06673	1.10728
1292.13817	1.10513
1290.20960	1.10385
1288.28104	1.10259
1286.35247	1.10076
1284.42391	1.09855
1282.49535	1.09661
1280.56678	1.09529
1278.63822	1.09473
1276.70965	1.09534
1274.78109	1.09734
1272.85252	1.10055
1270.92396	1.10492
1268.99539	1.11049
1267.06683	1.11677
1265.13827	1.12271
1263.20970	1.12788
1261.28114	1.13246
1259.35257	1.13679
1257.42401	1.14152
1255.49544	1.14725
1253.56688	1.15389
1251.63831	1.16086
1249.70975	1.16809
1247.78119	1.17534
1245.85262	1.18172
1243.92406	1.18722
1241.99549	1.19253
1240.06693	1.19714
1238.13836	1.19994
1236.20980	1.20035
1234.28123	1.19843
1232.35267	1.19504
1230.42411	1.19050
1228.49554	1.18437
1226.56698	1.17642
1224.63841	1.16671
1222.70985	1.15599
1220.78128	1.14484
1218.85272	1.13329
1216.92415	1.12202
1214.99559	1.11223
1213.06703	1.10496
1211.13846	1.10026
1209.20990	1.09677
1207.28133	1.09345
1205.35277	1.08926
1203.42420	1.08230
1201.49564	1.07271
1199.56708	1.06268
1197.63851	1.05334
1195.70995	1.04503
1193.78138	1.03804
1191.85282	1.03227
1189.92425	1.02783
1187.99569	1.02504
1186.06712	1.02400
1184.13856	1.02446
1182.21000	1.02600
1180.28143	1.02882
1178.35287	1.03357
1176.42430	1.04001
1174.49574	1.04692
1172.56717	1.05356
1170.63861	1.06037
1168.71004	1.06854
1166.78148	1.07938
1164.85292	1.09281
1162.92435	1.10685
1160.99579	1.11909
1159.06722	1.12715
1157.13866	1.12880
1155.21009	1.12279
1153.28153	1.10987
1151.35296	1.09284
1149.42440	1.07409
1147.49584	1.05523
1145.56727	1.03811
1143.63871	1.02446
1141.71014	1.01552
1139.78158	1.01141
1137.85301	1.01115
1135.92445	1.01451
1133.99588	1.02230
1132.06732	1.03511
1130.13876	1.05262
1128.21019	1.07314
1126.28163	1.09371
1124.35306	1.11285
1122.42450	1.13168
1120.49593	1.15052
1118.56737	1.16744
1116.63880	1.17995
1114.71024	1.18722
1112.78168	1.19158
1110.85311	1.19530
1108.92455	1.19845
1106.99598	1.20171
1105.06742	1.20599
1103.13885	1.21042
1101.21029	1.21453
1099.28172	1.21973
1097.35316	1.22792
1095.42460	1.24015
1093.49603	1.25539
1091.56747	1.27092
1089.63890	1.28540
1087.71034	1.30081
1085.78177	1.31913
1083.85321	1.33828
1081.92464	1.35381
1079.99608	1.36308
1078.06752	1.36708
1076.13895	1.36780
1074.21039	1.36484
1072.28182	1.35854
1070.35326	1.35101
1068.42469	1.34262
1066.49613	1.33336
1064.56756	1.32494
1062.63900	1.31791
1060.71044	1.31097
1058.78187	1.30412
1056.85331	1.29794
1054.92474	1.29250
1052.99618	1.28808
1051.06761	1.28403
1049.13905	1.27998
1047.21049	1.27702
1045.28192	1.27622
1043.35336	1.27753
1041.42479	1.27900
1039.49623	1.27830
1037.56766	1.27571
1035.63910	1.27246
1033.71053	1.26714
1031.78197	1.25795
1029.85341	1.24585
1027.92484	1.23209
1025.99628	1.21606
1024.06771	1.19798
1022.13915	1.18057
1020.21058	1.16538
1018.28202	1.15171
1016.35345	1.13867
1014.42489	1.12461
1012.49633	1.10811
1010.56776	1.08981
1008.63920	1.07111
1006.71063	1.05326
1004.78207	1.03774
1002.85350	1.02561
1000.92494	1.01679
998.99637	1.01088
997.06781	1.00769
995.13925	1.00576
993.21068	1.00282
991.28212	0.99775
989.35355	0.99071
987.42499	0.98259
985.49642	0.97458
983.56786	0.96768
981.63929	0.96286
979.71073	0.96060
977.78217	0.96004
975.85360	0.95979
973.92504	0.95871
971.99647	0.95583
970.06791	0.95110
968.13934	0.94589
966.21078	0.94199
964.28221	0.94078
962.35365	0.94317
960.42509	0.95012
958.49652	0.96149
956.56796	0.97307
954.63939	0.97859
952.71083	0.97603
950.78226	0.96799
948.85370	0.95756
946.92513	0.94698
944.99657	0.93779
943.06801	0.93035
941.13944	0.92400
939.21088	0.91814
937.28231	0.91283
935.35375	0.90855
933.42518	0.90553
931.49662	0.90392
929.56805	0.90408
927.63949	0.90587
925.71093	0.90915
923.78236	0.91436
921.85380	0.92094
919.92523	0.92734
917.99667	0.93325
916.06810	0.93972
914.13954	0.94734
912.21098	0.95596
910.28241	0.96524
908.35385	0.97531
906.42528	0.98618
904.49672	0.99697
902.56815	1.00688
900.63959	1.01504
898.71102	1.02038
896.78246	1.02274
894.85390	1.02292
892.92533	1.02186
890.99677	1.01959
889.06820	1.01560
887.13964	1.01063
885.21107	1.00580
883.28251	1.00051
881.35394	0.99397
879.42538	0.98698
877.49682	0.98023
875.56825	0.97360
873.63969	0.96761
871.71112	0.96286
869.78256	0.95911
867.85399	0.95627
865.92543	0.95482
863.99686	0.95506
862.06830	0.95733
860.13974	0.96191
858.21117	0.96853
856.28261	0.97680
854.35404	0.98582
852.42548	0.99454
850.49691	1.00359
848.56835	1.01367
846.63978	1.02428
844.71122	1.03535
842.78266	1.04699
840.85409	1.05862
838.92553	1.06938
836.99696	1.07888
835.06840	1.08676
833.13983	1.09237
831.21127	1.09650
829.28270	1.09997
827.35414	1.10145
825.42558	1.10014
823.49701	1.09654
821.56845	1.09098
819.63988	1.08381
817.71132	1.07517
815.78275	1.06512
813.85419	1.05406
811.92562	1.04214
809.99706	1.02995
808.06850	1.01827
806.13993	1.00656
804.21137	0.99455
802.28280	0.98383
800.35424	0.97522
798.42567	0.96771
796.49711	0.96107
794.56854	0.95643
792.63998	0.95394
790.71142	0.95267
788.78285	0.95325
786.85429	0.95684
784.92572	0.96305
782.99716	0.97081
781.06859	0.97946
779.14003	0.98935
777.21147	1.00134
775.28290	1.01550
773.35434	1.03125
771.42577	1.04774
769.49721	1.06480
767.56864	1.08321
765.64008	1.10287
763.71151	1.12207
761.78295	1.13976
759.85439	1.15715
757.92582	1.17493
755.99726	1.19064
754.06869	1.20288
752.14013	1.21337
750.21156	1.22151
748.28300	1.22527
746.35443	1.22543
744.42587	1.22258
742.49731	1.21616
740.56874	1.20593
738.64018	1.19281
736.71161	1.17925
734.78305	1.16622
732.85448	1.15296
730.92592	1.13961
728.99735	1.12708
727.06879	1.11640
725.14023	1.10853
723.21166	1.10392
721.28310	1.10236
719.35453	1.10250
717.42597	1.10343
715.49740	1.10624
713.56884	1.11067
711.64027	1.11529
709.71171	1.12056
707.78315	1.12694
705.85458	1.13397
703.92602	1.14160
701.99745	1.14829
700.06889	1.15158
698.14032	1.15223
696.21176	1.15222
694.28319	1.15103
692.35463	1.14702
690.42607	1.13932
688.49750	1.12848
686.56894	1.11515
684.64037	1.10024
682.71181	1.08452
680.78324	1.06686
678.85468	1.04784
676.92611	1.03070
674.99755	1.01614
673.06899	1.00364
671.14042	0.99393
669.21186	0.98395
667.28329	0.97199
665.35473	0.96470
663.42616	0.95949
661.49760	0.95503
659.56903	0.95320
657.64047	0.95360
655.71191	0.95443
653.78334	0.95590
651.85478	0.95945
649.92621	0.96548
647.99765	0.97293
646.06908	0.98118
644.14052	0.99133
642.21195	1.00363
640.28339	1.01719
638.35483	1.03151
636.42626	1.04587
634.49770	1.06059
632.56913	1.07733
630.64057	1.09505
628.71200	1.11180
626.78344	1.12953
624.85488	1.14933
622.92631	1.16913
620.99775	1.18985
619.06918	1.21211
617.14062	1.22972
615.21205	1.24000
613.28349	1.24837
611.35492	1.25605
609.42636	1.26060
607.49780	1.26186
605.56923	1.26153
603.64067	1.25951
601.71210	1.25346
599.78354	1.24114
