3997.91406	0.90255
3995.98550	0.90092
3994.05693	0.89974
3992.12837	0.89994
3990.19980	0.90087
3988.27124	0.90058
3986.34268	0.89832
3984.41411	0.89630
3982.48555	0.89646
3980.55698	0.89777
3978.62842	0.89840
3976.69985	0.89792
3974.77129	0.89746
3972.84272	0.89781
3970.91416	0.89766
3968.98560	0.89622
3967.05703	0.89424
3965.12847	0.89184
3963.19990	0.89037
3961.27134	0.89110
3959.34277	0.89201
3957.41421	0.89217
3955.48564	0.89218
3953.55708	0.89103
3951.62852	0.88907
3949.69995	0.88886
3947.77139	0.88969
3945.84282	0.88853
3943.91426	0.88693
3941.98569	0.88692
3940.05713	0.88680
3938.12856	0.88613
3936.20000	0.88515
3934.27144	0.88382
3932.34287	0.88452
3930.41431	0.88689
3928.48574	0.88643
3926.55718	0.88417
3924.62861	0.88300
3922.70005	0.88187
3920.77148	0.88120
3918.84292	0.88336
3916.91436	0.88688
3914.98579	0.88675
3913.05723	0.88261
3911.12866	0.87842
3909.20010	0.87536
3907.27153	0.87219
3905.34297	0.87069
3903.41440	0.87263
3901.48584	0.87508
3899.55728	0.87658
3897.62871	0.87538
3895.70015	0.87112
3893.77158	0.86741
3891.84302	0.86871
3889.91445	0.87006
3887.98589	0.86711
3886.05733	0.86597
3884.12876	0.86733
3882.20020	0.86669
3880.27163	0.86784
3878.34307	0.86856
3876.41450	0.86683
3874.48594	0.86585
3872.55737	0.86517
3870.62881	0.86564
3868.70025	0.86578
3866.77168	0.86217
3864.84312	0.86161
3862.91455	0.86638
3860.98599	0.86686
3859.05742	0.86133
3857.12886	0.85186
3855.20029	0.84387
3853.27173	0.85586
3851.34317	0.86957
3849.41460	0.86775
3847.48604	0.86214
3845.55747	0.85706
3843.62891	0.85338
3841.70034	0.85055
3839.77178	0.85054
3837.84321	0.85439
3835.91465	0.85442
3833.98609	0.85291
3832.05752	0.85448
3830.12896	0.85574
3828.20039	0.85513
3826.27183	0.85298
3824.34326	0.84681
3822.41470	0.84197
3820.48613	0.84637
3818.55757	0.84811
3816.62901	0.84978
3814.70044	0.85544
3812.77188	0.85618
3810.84331	0.85279
3808.91475	0.84919
3806.98618	0.84838
3805.05762	0.84727
3803.12905	0.84637
3801.20049	0.85088
3799.27193	0.85123
3797.34336	0.84979
3795.41480	0.85254
3793.48623	0.85378
3791.55767	0.85205
3789.62910	0.84932
3787.70054	0.84671
3785.77197	0.84659
3783.84341	0.84798
3781.91485	0.84719
3779.98628	0.84660
3778.05772	0.84723
3776.12915	0.84600
3774.20059	0.84396
3772.27202	0.84322
3770.34346	0.84486
3768.41489	0.84613
3766.48633	0.84547
3764.55777	0.84418
3762.62920	0.84116
3760.70064	0.83856
3758.77207	0.84005
3756.84351	0.84113
3754.91494	0.83700
3752.98638	0.82986
3751.05781	0.83013
3749.12925	0.83685
3747.20069	0.83707
3745.27212	0.83815
3743.34356	0.84142
3741.41499	0.83991
3739.48643	0.83467
3737.55786	0.82837
3735.62930	0.82736
3733.70074	0.83546
3731.77217	0.84042
3729.84361	0.83845
3727.91504	0.83464
3725.98648	0.83365
3724.05791	0.83559
3722.12935	0.83837
3720.20078	0.84067
3718.27222	0.84011
3716.34366	0.83636
3714.41509	0.83106
3712.48653	0.82909
3710.55796	0.83650
3708.62940	0.84240
3706.70083	0.84123
3704.77227	0.83694
3702.84370	0.83580
3700.91514	0.83987
3698.98658	0.84200
3697.05801	0.84173
3695.12945	0.84077
3693.20088	0.83713
3691.27232	0.83335
3689.34375	0.84055
3687.41519	0.85074
3685.48662	0.85245
3683.55806	0.85066
3681.62950	0.84886
3679.70093	0.84757
3677.77237	0.84749
3675.84380	0.85427
3673.91524	0.86042
3671.98667	0.86041
3670.05811	0.86622
3668.12954	0.87349
3666.20098	0.87584
3664.27242	0.87915
3662.34385	0.88392
3660.41529	0.88674
3658.48672	0.88845
3656.55816	0.89424
3654.62959	0.89889
3652.70103	0.89676
3650.77246	0.89653
3648.84390	0.91493
3646.91534	0.93255
3644.98677	0.93633
3643.05821	0.93701
3641.12964	0.93951
3639.20108	0.94416
3637.27251	0.94961
3635.34395	0.95492
3633.41538	0.95873
3631.48682	0.95978
3629.55826	0.96609
3627.62969	0.98140
3625.70113	0.98816
3623.77256	0.98835
3621.84400	0.98733
3619.91543	0.99216
3617.98687	1.00418
3616.05830	1.01335
3614.12974	1.02124
3612.20118	1.02898
3610.27261	1.03490
3608.34405	1.04118
3606.41548	1.04665
3604.48692	1.05038
3602.55835	1.05590
3600.62979	1.06469
3598.70123	1.07214
3596.77266	1.07612
3594.84410	1.08182
3592.91553	1.08900
3590.98697	1.09180
3589.05840	1.09393
3587.12984	1.10344
3585.20127	1.11415
3583.27271	1.12163
3581.34415	1.12878
3579.41558	1.13509
3577.48702	1.14074
3575.55845	1.14798
3573.62989	1.15542
3571.70132	1.15938
3569.77276	1.16026
3567.84419	1.16774
3565.91563	1.18620
3563.98707	1.19570
3562.05850	1.19774
3560.12994	1.20147
3558.20137	1.20672
3556.27281	1.21218
3554.34424	1.21927
3552.41568	1.22803
3550.48711	1.23560
3548.55855	1.24146
3546.62999	1.24920
3544.70142	1.26008
3542.77286	1.26885
3540.84429	1.27395
3538.91573	1.28033
3536.98716	1.29052
3535.05860	1.29999
3533.13003	1.30502
3531.20147	1.30845
3529.27291	1.31330
3527.34434	1.31916
3525.41578	1.32678
3523.48721	1.33789
3521.55865	1.34818
3519.63008	1.35413
3517.70152	1.36142
3515.77295	1.37453
3513.84439	1.38809
3511.91583	1.39582
3509.98726	1.40106
3508.05870	1.40901
3506.13013	1.41732
3504.20157	1.42666
3502.27300	1.43975
3500.34444	1.45209
3498.41587	1.46171
3496.48731	1.47147
3494.55875	1.48170
3492.63018	1.49014
3490.70162	1.49619
3488.77305	1.50165
3486.84449	1.50858
3484.91592	1.51693
3482.98736	1.52635
3481.05879	1.53529
3479.13023	1.53900
3477.20167	1.53805
3475.27310	1.53695
3473.34454	1.53720
3471.41597	1.54112
3469.48741	1.55062
3467.55884	1.56066
3465.63028	1.56593
3463.70171	1.56768
3461.77315	1.56961
3459.84459	1.57528
3457.91602	1.58459
3455.98746	1.59183
3454.05889	1.59412
3452.13033	1.59440
3450.20176	1.59373
3448.27320	1.59426
3446.34464	1.59986
3444.41607	1.60822
3442.48751	1.61629
3440.55894	1.62180
3438.63038	1.62421
3436.70181	1.62632
3434.77325	1.62780
3432.84468	1.62931
3430.91612	1.63377
3428.98756	1.63778
3427.05899	1.63492
3425.13043	1.62607
3423.20186	1.61991
3421.27330	1.62169
3419.34473	1.62308
3417.41617	1.61862
3415.48760	1.61579
3413.55904	1.61778
3411.63048	1.62514
3409.70191	1.63476
3407.77335	1.63528
3405.84478	1.62892
3403.91622	1.62710
3401.98765	1.62849
3400.05909	1.62748
3398.13052	1.62676
3396.20196	1.63312
3394.27340	1.64537
3392.34483	1.65243
3390.41627	1.65029
3388.48770	1.64821
3386.55914	1.64900
3384.63057	1.64628
3382.70201	1.64205
3380.77344	1.64161
3378.84488	1.64097
3376.91632	1.63891
3374.98775	1.64102
3373.05919	1.64655
3371.13062	1.64830
3369.20206	1.64700
3367.27349	1.65118
3365.34493	1.65934
3363.41636	1.66274
3361.48780	1.66069
3359.55924	1.65580
3357.63067	1.65199
3355.70211	1.65594
3353.77354	1.66739
3351.84498	1.67608
3349.91641	1.67708
3347.98785	1.67646
3346.05928	1.67645
3344.13072	1.67640
3342.20216	1.67782
3340.27359	1.67601
3338.34503	1.66972
3336.41646	1.67037
3334.48790	1.68196
3332.55933	1.69491
3330.63077	1.70487
3328.70220	1.71256
3326.77364	1.71781
3324.84508	1.72482
3322.91651	1.73529
3320.98795	1.74428
3319.05938	1.74929
3317.13082	1.75138
3315.20225	1.75153
3313.27369	1.75133
3311.34513	1.75401
3309.41656	1.76118
3307.48800	1.76551
3305.55943	1.76320
3303.63087	1.76555
3301.70230	1.77558
3299.77374	1.78511
3297.84517	1.79434
3295.91661	1.80232
3293.98805	1.80196
3292.05948	1.79529
3290.13092	1.79053
3288.20235	1.79113
3286.27379	1.79383
3284.34522	1.79368
3282.41666	1.79227
3280.48809	1.79506
3278.55953	1.80408
3276.63097	1.81371
3274.70240	1.81303
3272.77384	1.80576
3270.84527	1.80410
3268.91671	1.80354
3266.98814	1.79776
3265.05958	1.78840
3263.13101	1.77368
3261.20245	1.75975
3259.27389	1.75547
3257.34532	1.75643
3255.41676	1.75431
3253.48819	1.74400
3251.55963	1.72896
3249.63106	1.71777
3247.70250	1.70839
3245.77393	1.69514
3243.84537	1.68049
3241.91681	1.66963
3239.98824	1.66303
3238.05968	1.65687
3236.13111	1.64884
3234.20255	1.63954
3232.27398	1.63159
3230.34542	1.62719
3228.41685	1.62498
3226.48829	1.62077
3224.55973	1.61058
3222.63116	1.59661
3220.70260	1.58474
3218.77403	1.57892
3216.84547	1.57936
3214.91690	1.57992
3212.98834	1.57520
3211.05977	1.56825
3209.13121	1.56250
3207.20265	1.55620
3205.27408	1.54908
3203.34552	1.54304
3201.41695	1.53564
3199.48839	1.52575
3197.55982	1.51689
3195.63126	1.50965
3193.70269	1.50310
3191.77413	1.49617
3189.84557	1.48676
3187.91700	1.47742
3185.98844	1.47175
3184.05987	1.46749
3182.13131	1.46236
3180.20274	1.45691
3178.27418	1.44894
3176.34562	1.43804
3174.41705	1.42864
3172.48849	1.42207
3170.55992	1.41713
3168.63136	1.41298
3166.70279	1.40832
3164.77423	1.40255
3162.84566	1.39576
3160.91710	1.39008
3158.98854	1.38670
3157.05997	1.38233
3155.13141	1.37687
3153.20284	1.37398
3151.27428	1.37372
3149.34571	1.37278
3147.41715	1.36906
3145.48858	1.36421
3143.56002	1.36051
3141.63146	1.35857
3139.70289	1.35833
3137.77433	1.35735
3135.84576	1.35335
3133.91720	1.34799
3131.98863	1.34446
3130.06007	1.34449
3128.13150	1.34618
3126.20294	1.34575
3124.27438	1.34318
3122.34581	1.34063
3120.41725	1.33883
3118.48868	1.33879
3116.56012	1.34099
3114.63155	1.34301
3112.70299	1.34209
3110.77442	1.33962
3108.84586	1.33874
3106.91730	1.33973
3104.98873	1.34049
3103.06017	1.33961
3101.13160	1.33806
3099.20304	1.33740
3097.27447	1.33749
3095.34591	1.33751
3093.41734	1.33703
3091.48878	1.33547
3089.56022	1.33249
3087.63165	1.32871
3085.70309	1.32430
3083.77452	1.32027
3081.84596	1.31806
3079.91739	1.31545
3077.98883	1.31089
3076.06026	1.30761
3074.13170	1.30647
3072.20314	1.30353
3070.27457	1.29809
3068.34601	1.29256
3066.41744	1.28723
3064.48888	1.28266
3062.56031	1.27965
3060.63175	1.27633
3058.70318	1.27099
3056.77462	1.26528
3054.84606	1.26137
3052.91749	1.25813
3050.98893	1.25323
3049.06036	1.24681
3047.13180	1.24147
3045.20323	1.23790
3043.27467	1.23402
3041.34610	1.22911
3039.41754	1.22390
3037.48898	1.21916
3035.56041	1.21567
3033.63185	1.21308
3031.70328	1.21076
3029.77472	1.20809
3027.84615	1.20387
3025.91759	1.19884
3023.98903	1.19465
3022.06046	1.19017
3020.13190	1.18511
3018.20333	1.18122
3016.27477	1.17806
3014.34620	1.17523
3012.41764	1.17336
3010.48907	1.17143
3008.56051	1.16813
3006.63195	1.16436
3004.70338	1.16190
3002.77482	1.16103
3000.84625	1.16096
2998.91769	1.16146
2996.98912	1.16264
2995.06056	1.16422
2993.13199	1.16644
2991.20343	1.17011
2989.27487	1.17427
2987.34630	1.17837
2985.41774	1.18406
2983.48917	1.19133
2981.56061	1.19825
2979.63204	1.20421
2977.70348	1.21031
2975.77491	1.21748
2973.84635	1.22528
2971.91779	1.23272
2969.98922	1.23964
2968.06066	1.24611
2966.13209	1.25233
2964.20353	1.25892
2962.27496	1.26425
2960.34640	1.26451
2958.41783	1.25901
2956.48927	1.25109
2954.56071	1.24315
2952.63214	1.23626
2950.70358	1.23066
2948.77501	1.22542
2946.84645	1.22236
2944.91788	1.22456
2942.98932	1.23160
2941.06075	1.24138
2939.13219	1.25296
2937.20363	1.26517
2935.27506	1.27582
2933.34650	1.28530
2931.41793	1.29531
2929.48937	1.30388
2927.56080	1.30922
2925.63224	1.31295
2923.70367	1.31620
2921.77511	1.31736
2919.84655	1.31473
2917.91798	1.30737
2915.98942	1.29373
2914.06085	1.27474
2912.13229	1.25449
2910.20372	1.23568
2908.27516	1.21887
2906.34659	1.20503
2904.41803	1.19442
2902.48947	1.18664
2900.56090	1.18175
2898.63234	1.17838
2896.70377	1.17497
2894.77521	1.17163
2892.84664	1.16809
2890.91808	1.16423
2888.98952	1.16082
2887.06095	1.15759
2885.13239	1.15444
2883.20382	1.15266
2881.27526	1.15294
2879.34669	1.15467
2877.41813	1.15633
2875.48956	1.15594
2873.56100	1.15265
2871.63244	1.14701
2869.70387	1.14044
2867.77531	1.13454
2865.84674	1.12990
2863.91818	1.12607
2861.98961	1.12365
2860.06105	1.12457
2858.13248	1.12932
2856.20392	1.13575
2854.27536	1.14091
2852.34679	1.14359
2850.41823	1.14150
2848.48966	1.12952
2846.56110	1.10782
2844.63253	1.08471
2842.70397	1.06709
2840.77540	1.05421
2838.84684	1.04266
2836.91828	1.03249
2834.98971	1.02534
2833.06115	1.02065
2831.13258	1.01685
2829.20402	1.01288
2827.27545	1.00838
2825.34689	1.00416
2823.41832	1.00074
2821.48976	0.99756
2819.56120	0.99455
2817.63263	0.99187
2815.70407	0.98938
2813.77550	0.98679
2811.84694	0.98376
2809.91837	0.98068
2807.98981	0.97824
2806.06124	0.97633
2804.13268	0.97415
2802.20412	0.97118
2800.27555	0.96774
2798.34699	0.96467
2796.41842	0.96228
2794.48986	0.95935
2792.56129	0.95547
2790.63273	0.95196
2788.70416	0.94899
2786.77560	0.94602
2784.84704	0.94330
2782.91847	0.94099
2780.98991	0.93891
2779.06134	0.93675
2777.13278	0.93436
2775.20421	0.93196
2773.27565	0.92987
2771.34708	0.92837
2769.41852	0.92733
2767.48996	0.92612
2765.56139	0.92463
2763.63283	0.92336
2761.70426	0.92222
2759.77570	0.92071
2757.84713	0.91902
2755.91857	0.91794
2753.99001	0.91739
2752.06144	0.91626
2750.13288	0.91429
2748.20431	0.91247
2746.27575	0.91100
2744.34718	0.90951
2742.41862	0.90856
2740.49005	0.90790
2738.56149	0.90610
2736.63293	0.90325
2734.70436	0.90074
2732.77580	0.89905
2730.84723	0.89745
2728.91867	0.89525
2726.99010	0.89252
2725.06154	0.89005
2723.13297	0.88839
2721.20441	0.88684
2719.27585	0.88472
2717.34728	0.88277
2715.41872	0.88127
2713.49015	0.87947
2711.56159	0.87740
2709.63302	0.87590
2707.70446	0.87473
2705.77589	0.87313
2703.84733	0.87117
2701.91877	0.86928
2699.99020	0.86789
2698.06164	0.86701
2696.13307	0.86594
2694.20451	0.86433
2692.27594	0.86279
2690.34738	0.86188
2688.41881	0.86122
2686.49025	0.86015
2684.56169	0.85896
2682.63312	0.85858
2680.70456	0.85889
2678.77599	0.85869
2676.84743	0.85758
2674.91886	0.85614
2672.99030	0.85473
2671.06173	0.85336
2669.13317	0.85199
2667.20461	0.85104
2665.27604	0.85091
2663.34748	0.85086
2661.41891	0.84992
2659.49035	0.84838
2657.56178	0.84713
2655.63322	0.84641
2653.70465	0.84576
2651.77609	0.84494
2649.84753	0.84406
2647.91896	0.84328
2645.99040	0.84267
2644.06183	0.84204
2642.13327	0.84143
2640.20470	0.84105
2638.27614	0.84049
2636.34757	0.83959
2634.41901	0.83865
2632.49045	0.83767
2630.56188	0.83684
2628.63332	0.83626
2626.70475	0.83530
2624.77619	0.83381
2622.84762	0.83232
2620.91906	0.83135
2618.99049	0.83078
2617.06193	0.83000
2615.13337	0.82887
2613.20480	0.82737
2611.27624	0.82530
2609.34767	0.82309
2607.41911	0.82131
2605.49054	0.81977
2603.56198	0.81796
2601.63342	0.81614
2599.70485	0.81481
2597.77629	0.81373
2595.84772	0.81252
2593.91916	0.81105
2591.99059	0.80968
2590.06203	0.80874
2588.13346	0.80782
2586.20490	0.80660
2584.27634	0.80534
2582.34777	0.80427
2580.41921	0.80338
2578.49064	0.80271
2576.56208	0.80202
2574.63351	0.80119
2572.70495	0.80070
2570.77638	0.80073
2568.84782	0.80065
2566.91926	0.80011
2564.99069	0.79956
2563.06213	0.79948
2561.13356	0.79949
2559.20500	0.79871
2557.27643	0.79733
2555.34787	0.79637
2553.41930	0.79600
2551.49074	0.79556
2549.56218	0.79464
2547.63361	0.79348
2545.70505	0.79251
2543.77648	0.79183
2541.84792	0.79144
2539.91935	0.79099
2537.99079	0.79020
2536.06222	0.78921
2534.13366	0.78800
2532.20510	0.78667
2530.27653	0.78539
2528.34797	0.78424
2526.41940	0.78333
2524.49084	0.78268
2522.56227	0.78207
2520.63371	0.78110
2518.70514	0.77979
2516.77658	0.77850
2514.84802	0.77733
2512.91945	0.77622
2510.99089	0.77515
2509.06232	0.77425
2507.13376	0.77370
2505.20519	0.77342
2503.27663	0.77301
2501.34806	0.77217
2499.41950	0.77113
2497.49094	0.77027
2495.56237	0.76967
2493.63381	0.76893
2491.70524	0.76761
2489.77668	0.76612
2487.84811	0.76520
2485.91955	0.76473
2483.99098	0.76397
2482.06242	0.76262
2480.13386	0.76123
2478.20529	0.76024
2476.27673	0.75936
2474.34816	0.75831
2472.41960	0.75727
2470.49103	0.75649
2468.56247	0.75595
2466.63391	0.75540
2464.70534	0.75483
2462.77678	0.75417
2460.84821	0.75335
2458.91965	0.75277
2456.99108	0.75262
2455.06252	0.75259
2453.13395	0.75264
2451.20539	0.75275
2449.27683	0.75267
2447.34826	0.75261
2445.41970	0.75260
2443.49113	0.75218
2441.56257	0.75142
2439.63400	0.75071
2437.70544	0.75006
2435.77687	0.74948
2433.84831	0.74877
2431.91975	0.74767
2429.99118	0.74655
2428.06262	0.74550
2426.13405	0.74390
2424.20549	0.74189
2422.27692	0.74013
2420.34836	0.73874
2418.41979	0.73750
2416.49123	0.73632
2414.56267	0.73527
2412.63410	0.73424
2410.70554	0.73309
2408.77697	0.73198
2406.84841	0.73104
2404.91984	0.73030
2402.99128	0.73001
2401.06271	0.73006
2399.13415	0.72998
2397.20559	0.72986
2395.27702	0.73010
2393.34846	0.73062
2391.41989	0.73109
2389.49133	0.73132
2387.56276	0.73121
2385.63420	0.73058
2383.70563	0.72936
2381.77707	0.72796
2379.84851	0.72684
2377.91994	0.72545
2375.99138	0.72253
2374.06281	0.71813
2372.13425	0.71427
2370.20568	0.71162
2368.27712	0.70669
2366.34855	0.69771
2364.41999	0.69037
2362.49143	0.68678
2360.56286	0.68308
2358.63430	0.68279
2356.70573	0.68919
2354.77717	0.69918
2352.84860	0.70925
2350.92004	0.71389
2348.99147	0.71225
2347.06291	0.70769
2345.13435	0.70404
2343.20578	0.70329
2341.27722	0.70433
2339.34865	0.70738
2337.42009	0.71085
2335.49152	0.71204
2333.56296	0.71158
2331.63440	0.71229
2329.70583	0.71487
2327.77727	0.71710
2325.84870	0.71813
2323.92014	0.71872
2321.99157	0.71895
2320.06301	0.71847
2318.13444	0.71751
2316.20588	0.71717
2314.27732	0.71755
2312.34875	0.71726
2310.42019	0.71603
2308.49162	0.71497
2306.56306	0.71441
2304.63449	0.71367
2302.70593	0.71245
2300.77736	0.71118
2298.84880	0.71041
2296.92024	0.71045
2294.99167	0.71115
2293.06311	0.71199
2291.13454	0.71269
2289.20598	0.71356
2287.27741	0.71475
2285.34885	0.71579
2283.42028	0.71652
2281.49172	0.71735
2279.56316	0.71829
2277.63459	0.71904
2275.70603	0.71975
2273.77746	0.72059
2271.84890	0.72127
2269.92033	0.72155
2267.99177	0.72162
2266.06320	0.72161
2264.13464	0.72128
2262.20608	0.72034
2260.27751	0.71902
2258.34895	0.71778
2256.42038	0.71682
2254.49182	0.71606
2252.56325	0.71510
2250.63469	0.71372
2248.70612	0.71233
2246.77756	0.71147
2244.84900	0.71118
2242.92043	0.71125
2240.99187	0.71161
2239.06330	0.71229
2237.13474	0.71304
2235.20617	0.71360
2233.27761	0.71403
2231.34904	0.71469
2229.42048	0.71585
2227.49192	0.71710
2225.56335	0.71797
2223.63479	0.71871
2221.70622	0.71989
2219.77766	0.72127
2217.84909	0.72201
2215.92053	0.72198
2213.99196	0.72165
2212.06340	0.72135
2210.13484	0.72110
2208.20627	0.72070
2206.27771	0.71998
2204.34914	0.71914
2202.42058	0.71859
2200.49201	0.71806
2198.56345	0.71712
2196.63488	0.71593
2194.70632	0.71480
2192.77776	0.71371
2190.84919	0.71293
2188.92063	0.71272
2186.99206	0.71279
2185.06350	0.71296
2183.13493	0.71344
2181.20637	0.71402
2179.27781	0.71460
2177.34924	0.71553
2175.42068	0.71674
2173.49211	0.71798
2171.56355	0.71943
2169.63498	0.72090
2167.70642	0.72201
2165.77785	0.72293
2163.84929	0.72371
2161.92073	0.72421
2159.99216	0.72446
2158.06360	0.72455
2156.13503	0.72436
2154.20647	0.72373
2152.27790	0.72276
2150.34934	0.72167
2148.42077	0.72059
2146.49221	0.71926
2144.56365	0.71748
2142.63508	0.71577
2140.70652	0.71466
2138.77795	0.71388
2136.84939	0.71301
2134.92082	0.71233
2132.99226	0.71221
2131.06369	0.71239
2129.13513	0.71262
2127.20657	0.71304
2125.27800	0.71376
2123.34944	0.71456
2121.42087	0.71545
2119.49231	0.71661
2117.56374	0.71779
2115.63518	0.71875
2113.70661	0.71963
2111.77805	0.72038
2109.84949	0.72088
2107.92092	0.72114
2105.99236	0.72133
2104.06379	0.72158
2102.13523	0.72160
2100.20666	0.72117
2098.27810	0.72029
2096.34953	0.71911
2094.42097	0.71790
2092.49241	0.71661
2090.56384	0.71527
2088.63528	0.71412
2086.70671	0.71314
2084.77815	0.71206
2082.84958	0.71102
2080.92102	0.71033
2078.99245	0.70994
2077.06389	0.70986
2075.13533	0.71011
2073.20676	0.71041
2071.27820	0.71064
2069.34963	0.71104
2067.42107	0.71182
2065.49250	0.71286
2063.56394	0.71373
2061.63537	0.71423
2059.70681	0.71467
2057.77825	0.71517
2055.84968	0.71546
2053.92112	0.71554
2051.99255	0.71550
2050.06399	0.71512
2048.13542	0.71435
2046.20686	0.71340
2044.27830	0.71235
2042.34973	0.71113
2040.42117	0.70995
2038.49260	0.70881
2036.56404	0.70748
2034.63547	0.70586
2032.70691	0.70398
2030.77834	0.70213
2028.84978	0.70065
2026.92122	0.69956
2024.99265	0.69881
2023.06409	0.69831
2021.13552	0.69800
2019.20696	0.69784
2017.27839	0.69783
2015.34983	0.69786
2013.42126	0.69802
2011.49270	0.69851
2009.56414	0.69929
2007.63557	0.70014
2005.70701	0.70093
2003.77844	0.70156
2001.84988	0.70194
1999.92131	0.70204
1997.99275	0.70182
1996.06418	0.70120
1994.13562	0.70040
1992.20706	0.69999
1990.27849	0.69977
1988.34993	0.69927
1986.42136	0.69876
1984.49280	0.69822
1982.56423	0.69750
1980.63567	0.69663
1978.70710	0.69562
1976.77854	0.69468
1974.84998	0.69398
1972.92141	0.69330
1970.99285	0.69246
1969.06428	0.69176
1967.13572	0.69156
1965.20715	0.69147
1963.27859	0.69116
1961.35002	0.69094
1959.42146	0.69098
1957.49290	0.69106
1955.56433	0.69107
1953.63577	0.69109
1951.70720	0.69126
1949.77864	0.69151
1947.85007	0.69157
1945.92151	0.69118
1943.99294	0.69060
1942.06438	0.69032
1940.13582	0.68996
1938.20725	0.68921
1936.27869	0.68837
1934.35012	0.68742
1932.42156	0.68608
1930.49299	0.68452
1928.56443	0.68315
1926.63586	0.68180
1924.70730	0.68040
1922.77874	0.67914
1920.85017	0.67769
1918.92161	0.67622
1916.99304	0.67538
1915.06448	0.67480
1913.13591	0.67406
1911.20735	0.67329
1909.27878	0.67267
1907.35022	0.67199
1905.42166	0.67110
1903.49309	0.67031
1901.56453	0.66976
1899.63596	0.66931
1897.70740	0.66896
1895.77883	0.66890
1893.85027	0.66883
1891.92171	0.66827
1889.99314	0.66781
1888.06458	0.66768
1886.13601	0.66724
1884.20745	0.66680
1882.27888	0.66658
1880.35032	0.66613
1878.42175	0.66547
1876.49319	0.66492
1874.56463	0.66419
1872.63606	0.66299
1870.70750	0.66213
1868.77893	0.66280
1866.85037	0.66357
1864.92180	0.66290
1862.99324	0.66190
1861.06467	0.66129
1859.13611	0.66105
1857.20755	0.66089
1855.27898	0.66065
1853.35042	0.66034
1851.42185	0.65986
1849.49329	0.65902
1847.56472	0.65787
1845.63616	0.65730
1843.70759	0.65801
1841.77903	0.65838
1839.85047	0.65787
1837.92190	0.65737
1835.99334	0.65705
1834.06477	0.65627
1832.13621	0.65508
1830.20764	0.65446
1828.27908	0.65431
1826.35051	0.65364
1824.42195	0.65302
1822.49339	0.65246
1820.56482	0.65155
1818.63626	0.65049
1816.70769	0.64938
1814.77913	0.64836
1812.85056	0.64764
1810.92200	0.64739
1808.99343	0.64709
1807.06487	0.64613
1805.13631	0.64486
1803.20774	0.64367
1801.27918	0.64292
1799.35061	0.64261
1797.42205	0.64206
1795.49348	0.64106
1793.56492	0.64024
1791.63635	0.64036
1789.70779	0.63985
1787.77923	0.63847
1785.85066	0.63732
1783.92210	0.63666
1781.99353	0.63625
1780.06497	0.63618
1778.13640	0.63608
1776.20784	0.63533
1774.27927	0.63486
1772.35071	0.63653
1770.42215	0.63911
1768.49358	0.64063
1766.56502	0.64166
1764.63645	0.64250
1762.70789	0.64458
1760.77932	0.64832
1758.85076	0.65159
1756.92220	0.65542
1754.99363	0.65934
1753.06507	0.66248
1751.13650	0.66799
1749.20794	0.67729
1747.27937	0.68570
1745.35081	0.69162
1743.42224	0.69624
1741.49368	0.70011
1739.56512	0.70304
1737.63655	0.70372
1735.70799	0.70317
1733.77942	0.70529
1731.85086	0.70804
1729.92229	0.70892
1727.99373	0.70974
1726.06516	0.71083
1724.13660	0.71300
1722.20804	0.71533
1720.27947	0.71715
1718.35091	0.72261
1716.42234	0.73721
1714.49378	0.75013
1712.56521	0.75911
1710.63665	0.76949
1708.70808	0.78280
1706.77952	0.80389
1704.85096	0.83374
1702.92239	0.86081
1700.99383	0.89824
1699.06526	0.96184
1697.13670	1.02707
1695.20813	1.09153
1693.27957	1.13704
1691.35100	1.17287
1689.42244	1.21766
1687.49388	1.25960
1685.56531	1.30173
1683.63675	1.37324
1681.70818	1.42839
1679.77962	1.45903
1677.85105	1.48571
1675.92249	1.51676
1673.99392	1.55204
1672.06536	1.58021
1670.13680	1.60842
1668.20823	1.63690
1666.27967	1.65309
1664.35110	1.67029
1662.42254	1.69200
1660.49397	1.70250
1658.56541	1.70426
1656.63684	1.70355
1654.70828	1.70410
1652.77972	1.71465
1650.85115	1.72101
1648.92259	1.71892
1646.99402	1.71789
1645.06546	1.71986
1643.13689	1.71927
1641.20833	1.71879
1639.27976	1.71664
1637.35120	1.71263
1635.42264	1.71107
1633.49407	1.71025
1631.56551	1.70832
1629.63694	1.70437
1627.70838	1.69786
1625.77981	1.68820
1623.85125	1.67340
1621.92269	1.65558
1619.99412	1.64104
1618.06556	1.62368
1616.13699	1.59478
1614.20843	1.56619
1612.27986	1.53943
1610.35130	1.51077
1608.42273	1.48175
1606.49417	1.45422
1604.56561	1.42942
1602.63704	1.40802
1600.70848	1.39127
1598.77991	1.37903
1596.85135	1.36970
1594.92278	1.36135
1592.99422	1.35371
1591.06565	1.34873
1589.13709	1.34822
1587.20853	1.35265
1585.27996	1.36116
1583.35140	1.37265
1581.42283	1.38461
1579.49427	1.39499
1577.56570	1.40994
1575.63714	1.43880
1573.70857	1.46098
1571.78001	1.47361
1569.85145	1.49176
1567.92288	1.51263
1565.99432	1.52842
1564.06575	1.54343
1562.13719	1.55357
1560.20862	1.55896
1558.28006	1.57626
1556.35149	1.59525
1554.42293	1.60686
1552.49437	1.61409
1550.56580	1.61627
1548.63724	1.61380
1546.70867	1.60988
1544.78011	1.60725
1542.85154	1.60545
1540.92298	1.59660
1538.99441	1.58391
1537.06585	1.57888
1535.13729	1.57314
1533.20872	1.56333
1531.28016	1.55346
1529.35159	1.54595
1527.42303	1.53618
1525.49446	1.52209
1523.56590	1.51103
1521.63733	1.50722
1519.70877	1.50771
1517.78021	1.50596
1515.85164	1.49804
1513.92308	1.48279
1511.99451	1.46332
1510.06595	1.44386
1508.13738	1.41865
1506.20882	1.37783
1504.28025	1.35349
1502.35169	1.33530
1500.42313	1.31324
1498.49456	1.28465
1496.56600	1.25324
1494.63743	1.23096
1492.70887	1.21546
1490.78030	1.19603
1488.85174	1.16972
1486.92317	1.15074
1484.99461	1.13929
1483.06605	1.12991
1481.13748	1.12161
1479.20892	1.11662
1477.28035	1.11609
1475.35179	1.12008
1473.42322	1.13360
1471.49466	1.15417
1469.56610	1.16648
1467.63753	1.17360
1465.70897	1.18240
1463.78040	1.19288
1461.85184	1.19885
1459.92327	1.20181
1457.99471	1.21123
1456.06614	1.22957
1454.13758	1.23643
1452.20902	1.23674
1450.28045	1.23556
1448.35189	1.23479
1446.42332	1.23484
1444.49476	1.23319
1442.56619	1.22849
1440.63763	1.22232
1438.70906	1.21525
1436.78050	1.20447
1434.85194	1.19168
1432.92337	1.18129
1430.99481	1.17133
1429.06624	1.16106
1427.13768	1.15247
1425.20911	1.14598
1423.28055	1.14154
1421.35198	1.13862
1419.42342	1.13688
1417.49486	1.13698
1415.56629	1.13669
1413.63773	1.13480
1411.70916	1.13193
1409.78060	1.12893
1407.85203	1.12646
1405.92347	1.12550
1403.99490	1.12597
1402.06634	1.12626
1400.13778	1.12668
1398.20921	1.12777
1396.28065	1.12935
1394.35208	1.13226
1392.42352	1.13570
1390.49495	1.13950
1388.56639	1.14742
1386.63782	1.16250
1384.70926	1.17963
1382.78070	1.19555
1380.85213	1.20943
1378.92357	1.21736
1376.99500	1.21687
1375.06644	1.20780
1373.13787	1.19284
1371.20931	1.17646
1369.28074	1.15685
1367.35218	1.13401
1365.42362	1.11214
1363.49505	1.09046
1361.56649	1.07072
1359.63792	1.05756
1357.70936	1.04819
1355.78079	1.04021
1353.85223	1.03429
1351.92366	1.03037
1349.99510	1.02731
1348.06654	1.02470
1346.13797	1.02257
1344.20941	1.02098
1342.28084	1.01990
1340.35228	1.02009
1338.42371	1.02319
1336.49515	1.02930
1334.56659	1.03741
1332.63802	1.04710
1330.70946	1.05771
1328.78089	1.06777
1326.85233	1.07605
1324.92376	1.08220
1322.99520	1.08675
1321.06663	1.09108
1319.13807	1.09617
1317.20951	1.10120
1315.28094	1.10499
1313.35238	1.10791
1311.42381	1.10981
1309.49525	1.10968
1307.56668	1.10754
1305.63812	1.10389
1303.70955	1.09898
1301.78099	1.09299
1299.85243	1.08580
1297.92386	1.07715
1295.99530	1.06792
1294.06673	1.05968
1292.13817	1.05346
1290.20960	1.04945
1288.28104	1.04694
1286.35247	1.04525
1284.42391	1.04420
1282.49535	1.04409
1280.56678	1.04530
1278.63822	1.04799
1276.70965	1.05241
1274.78109	1.05889
1272.85252	1.06794
1270.92396	1.07938
1268.99539	1.09200
1267.06683	1.10490
1265.13827	1.11701
1263.20970	1.12676
1261.28114	1.13372
1259.35257	1.13889
1257.42401	1.14323
1255.49544	1.14726
1253.56688	1.15084
1251.63831	1.15351
1249.70975	1.15545
1247.78119	1.15661
1245.85262	1.15620
1243.92406	1.15370
1241.99549	1.14949
1240.06693	1.14443
1238.13836	1.13850
1236.20980	1.13094
1234.28123	1.12147
1232.35267	1.11054
1230.42411	1.09862
1228.49554	1.08605
1226.56698	1.07337
1224.63841	1.06078
1222.70985	1.04829
1220.78128	1.03644
1218.85272	1.02610
1216.92415	1.01827
1214.99559	1.01395
1213.06703	1.01323
1211.13846	1.01549
1209.20990	1.01964
1207.28133	1.02359
1205.35277	1.02509
1203.42420	1.02286
1201.49564	1.01693
1199.56708	1.00888
1197.63851	1.00036
1195.70995	0.99201
1193.78138	0.98487
1191.85282	0.98013
1189.92425	0.97693
1187.99569	0.97400
1186.06712	0.97161
1184.13856	0.97025
1182.21000	0.97014
1180.28143	0.97164
1178.35287	0.97496
1176.42430	0.98035
1174.49574	0.98750
1172.56717	0.99529
1170.63861	1.00388
1168.71004	1.01563
1166.78148	1.03183
1164.85292	1.05065
1162.92435	1.06942
1160.99579	1.08597
1159.06722	1.09703
1157.13866	1.09899
1155.21009	1.09210
1153.28153	1.08012
1151.35296	1.06624
1149.42440	1.05171
1147.49584	1.03763
1145.56727	1.02654
1143.63871	1.02084
1141.71014	1.02059
1139.78158	1.02471
1137.85301	1.03256
1135.92445	1.04306
1133.99588	1.05528
1132.06732	1.06980
1130.13876	1.08727
1128.21019	1.10628
1126.28163	1.12448
1124.35306	1.14040
1122.42450	1.15293
1120.49593	1.16193
1118.56737	1.16777
1116.63880	1.16942
1114.71024	1.16618
1112.78168	1.15840
1110.85311	1.14770
1108.92455	1.13718
1106.99598	1.12778
1105.06742	1.11896
1103.13885	1.11200
1101.21029	1.10868
1099.28172	1.10965
1097.35316	1.11534
1095.42460	1.12666
1093.49603	1.14311
1091.56747	1.16279
1089.63890	1.18529
1087.71034	1.21078
1085.78177	1.23810
1083.85321	1.26577
1081.92464	1.29079
1079.99608	1.30871
1078.06752	1.31833
1076.13895	1.32234
1074.21039	1.32259
1072.28182	1.31678
1070.35326	1.30273
1068.42469	1.28465
1066.49613	1.26777
1064.56756	1.25197
1062.63900	1.23528
1060.71044	1.21723
1058.78187	1.19888
1056.85331	1.18215
1054.92474	1.16798
1052.99618	1.15613
1051.06761	1.14718
1049.13905	1.14263
1047.21049	1.14301
1045.28192	1.14830
1043.35336	1.15839
1041.42479	1.17155
1039.49623	1.18555
1037.56766	1.19823
1035.63910	1.20697
1033.71053	1.21191
1031.78197	1.21512
1029.85341	1.21635
1027.92484	1.21411
1025.99628	1.20898
1024.06771	1.20261
1022.13915	1.19569
1020.21058	1.18969
1018.28202	1.18587
1016.35345	1.18190
1014.42489	1.17381
1012.49633	1.15930
1010.56776	1.13867
1008.63920	1.11454
1006.71063	1.08985
1004.78207	1.06583
1002.85350	1.04340
1000.92494	1.02411
998.99637	1.00803
997.06781	0.99373
995.13925	0.98078
993.21068	0.96914
991.28212	0.95784
989.35355	0.94683
987.42499	0.93719
985.49642	0.92959
983.56786	0.92454
981.63929	0.92217
979.71073	0.92188
977.78217	0.92270
975.85360	0.92347
973.92504	0.92255
971.99647	0.91872
970.06791	0.91271
968.13934	0.90652
966.21078	0.90160
964.28221	0.89917
962.35365	0.90106
960.42509	0.90901
958.49652	0.92226
956.56796	0.93608
954.63939	0.94426
952.71083	0.94394
950.78226	0.93698
948.85370	0.92753
946.92513	0.91897
944.99657	0.91256
943.06801	0.90838
941.13944	0.90598
939.21088	0.90445
937.28231	0.90359
935.35375	0.90373
933.42518	0.90448
931.49662	0.90570
929.56805	0.90771
927.63949	0.91036
925.71093	0.91349
923.78236	0.91713
921.85380	0.92035
919.92523	0.92191
917.99667	0.92211
916.06810	0.92194
914.13954	0.92163
912.21098	0.92140
910.28241	0.92197
908.35385	0.92341
906.42528	0.92545
904.49672	0.92795
902.56815	0.93026
900.63959	0.93177
898.71102	0.93244
896.78246	0.93209
894.85390	0.93020
892.92533	0.92693
890.99677	0.92313
889.06820	0.91952
887.13964	0.91648
885.21107	0.91430
883.28251	0.91346
881.35394	0.91396
879.42538	0.91507
877.49682	0.91634
875.56825	0.91811
873.63969	0.92070
871.71112	0.92377
869.78256	0.92715
867.85399	0.93130
865.92543	0.93623
863.99686	0.94148
862.06830	0.94711
860.13974	0.95322
858.21117	0.95976
856.28261	0.96696
854.35404	0.97459
852.42548	0.98147
850.49691	0.98642
848.56835	0.98966
846.63978	0.99253
844.71122	0.99563
842.78266	0.99852
840.85409	1.00112
838.92553	1.00398
836.99696	1.00721
835.06840	1.01003
833.13983	1.01202
831.21127	1.01309
829.28270	1.01382
827.35414	1.01513
825.42558	1.01636
823.49701	1.01689
821.56845	1.01743
819.63988	1.01773
817.71132	1.01737
815.78275	1.01711
813.85419	1.01724
811.92562	1.01770
809.99706	1.01858
808.06850	1.01915
806.13993	1.01886
804.21137	1.01880
802.28280	1.01993
800.35424	1.02144
798.42567	1.02239
796.49711	1.02318
794.56854	1.02420
792.63998	1.02528
790.71142	1.02668
788.78285	1.02866
786.85429	1.03082
784.92572	1.03258
782.99716	1.03406
781.06859	1.03568
779.14003	1.03696
777.21147	1.03737
775.28290	1.03720
773.35434	1.03694
771.42577	1.03672
769.49721	1.03647
767.56864	1.03621
765.64008	1.03612
763.71151	1.03620
761.78295	1.03671
759.85439	1.03832
757.92582	1.04106
755.99726	1.04429
754.06869	1.04784
752.14013	1.05217
750.21156	1.05739
748.28300	1.06271
746.35443	1.06820
744.42587	1.07456
742.49731	1.08098
740.56874	1.08721
738.64018	1.09400
736.71161	1.10097
734.78305	1.10811
732.85448	1.11549
730.92592	1.12173
728.99735	1.12619
727.06879	1.12970
725.14023	1.13310
723.21166	1.13621
721.28310	1.13816
719.35453	1.13795
717.42597	1.13470
715.49740	1.12928
713.56884	1.12378
711.64027	1.11914
709.71171	1.11545
707.78315	1.11245
705.85458	1.10961
703.92602	1.10690
701.99745	1.10357
700.06889	1.09892
698.14032	1.09474
696.21176	1.09313
694.28319	1.09369
692.35463	1.09489
690.42607	1.09621
688.49750	1.09834
686.56894	1.10202
684.64037	1.10693
682.71181	1.11160
680.78324	1.11514
678.85468	1.11888
676.92611	1.12344
674.99755	1.12778
673.06899	1.13150
671.14042	1.13473
669.21186	1.13740
667.28329	1.13457
665.35473	1.12744
663.42616	1.12065
661.49760	1.11437
659.56903	1.10801
657.64047	1.09920
655.71191	1.08724
653.78334	1.07558
651.85478	1.06708
649.92621	1.06001
647.99765	1.05202
646.06908	1.04457
644.14052	1.03926
642.21195	1.03623
640.28339	1.03616
638.35483	1.03914
636.42626	1.04454
634.49770	1.05078
632.56913	1.05585
630.64057	1.06163
628.71200	1.07064
626.78344	1.08258
624.85488	1.09704
622.92631	1.11338
620.99775	1.12898
619.06918	1.14225
617.14062	1.15538
615.21205	1.16833
613.28349	1.17823
611.35492	1.18512
609.42636	1.18858
607.49780	1.18826
605.56923	1.18486
603.64067	1.17843
601.71210	1.17054
599.78354	1.16122
