3997.91406	1.37125
3995.98550	1.36910
3994.05693	1.36970
3992.12837	1.37089
3990.19980	1.37118
3988.27124	1.37100
3986.34268	1.36959
3984.41411	1.36801
3982.48555	1.36832
3980.55698	1.36757
3978.62842	1.36269
3976.69985	1.35865
3974.77129	1.35933
3972.84272	1.36126
3970.91416	1.36338
3968.98560	1.36448
3967.05703	1.36006
3965.12847	1.35271
3963.19990	1.34920
3961.27134	1.35083
3959.34277	1.35289
3957.41421	1.35005
3955.48564	1.34326
3953.55708	1.33898
3951.62852	1.34026
3949.69995	1.34700
3947.77139	1.35306
3945.84282	1.34909
3943.91426	1.34143
3941.98569	1.34099
3940.05713	1.34309
3938.12856	1.34000
3936.20000	1.33352
3934.27144	1.33124
3932.34287	1.33746
3930.41431	1.34239
3928.48574	1.33597
3926.55718	1.32702
3924.62861	1.32756
3922.70005	1.33197
3920.77148	1.33011
3918.84292	1.32741
3916.91436	1.32953
3914.98579	1.32850
3913.05723	1.32134
3911.12866	1.31650
3909.20010	1.31434
3907.27153	1.30872
3905.34297	1.30371
3903.41440	1.30634
3901.48584	1.31292
3899.55728	1.32345
3897.62871	1.32785
3895.70015	1.31913
3893.77158	1.31046
3891.84302	1.31153
3889.91445	1.30594
3887.98589	1.29389
3886.05733	1.29441
3884.12876	1.29877
3882.20020	1.29734
3880.27163	1.30746
3878.34307	1.31259
3876.41450	1.30686
3874.48594	1.30345
3872.55737	1.29696
3870.62881	1.29295
3868.70025	1.29387
3866.77168	1.28417
3864.84312	1.28148
3862.91455	1.29697
3860.98599	1.30221
3859.05742	1.29176
3857.12886	1.27528
3855.20029	1.26354
3853.27173	1.28818
3851.34317	1.31321
3849.41460	1.30297
3847.48604	1.28402
3845.55747	1.27152
3843.62891	1.26923
3841.70034	1.26833
3839.77178	1.26568
3837.84321	1.27199
3835.91465	1.27763
3833.98609	1.27569
3832.05752	1.27340
3830.12896	1.27026
3828.20039	1.26778
3826.27183	1.26651
3824.34326	1.25603
3822.41470	1.24636
3820.48613	1.25804
3818.55757	1.26780
3816.62901	1.27755
3814.70044	1.28525
3812.77188	1.27492
3810.84331	1.25922
3808.91475	1.25169
3806.98618	1.25650
3805.05762	1.25270
3803.12905	1.24519
3801.20049	1.26054
3799.27193	1.27028
3797.34336	1.26879
3795.41480	1.26973
3793.48623	1.26422
3791.55767	1.25656
3789.62910	1.25192
3787.70054	1.24635
3785.77197	1.24238
3783.84341	1.24131
3781.91485	1.23967
3779.98628	1.24497
3778.05772	1.25265
3776.12915	1.24836
3774.20059	1.23849
3772.27202	1.23198
3770.34346	1.23368
3768.41489	1.23814
3766.48633	1.24238
3764.55777	1.24700
3762.62920	1.24292
3760.70064	1.23539
3758.77207	1.23458
3756.84351	1.23001
3754.91494	1.21513
3752.98638	1.20310
3751.05781	1.22024
3749.12925	1.23773
3747.20069	1.22573
3745.27212	1.22109
3743.34356	1.22747
3741.41499	1.21899
3739.48643	1.20381
3737.55786	1.19677
3735.62930	1.20851
3733.70074	1.22663
3731.77217	1.22729
3729.84361	1.21559
3727.91504	1.20315
3725.98648	1.19901
3724.05791	1.20312
3722.12935	1.20734
3720.20078	1.20773
3718.27222	1.20315
3716.34366	1.19418
3714.41509	1.18480
3712.48653	1.18859
3710.55796	1.20927
3708.62940	1.21398
3706.70083	1.20541
3704.77227	1.19588
3702.84370	1.19591
3700.91514	1.20537
3698.98658	1.20672
3697.05801	1.20198
3695.12945	1.19716
3693.20088	1.19042
3691.27232	1.18929
3689.34375	1.20878
3687.41519	1.22210
3685.48662	1.21687
3683.55806	1.20769
3681.62950	1.19912
3679.70093	1.19157
3677.77237	1.19141
3675.84380	1.21084
3673.91524	1.21696
3671.98667	1.20550
3670.05811	1.21476
3668.12954	1.22915
3666.20098	1.22587
3664.27242	1.22146
3662.34385	1.22105
3660.41529	1.22014
3658.48672	1.21993
3656.55816	1.22649
3654.62959	1.22848
3652.70103	1.21928
3650.77246	1.21682
3648.84390	1.24345
3646.91534	1.26130
3644.98677	1.26030
3643.05821	1.25947
3641.12964	1.26326
3639.20108	1.26738
3637.27251	1.27031
3635.34395	1.27391
3633.41538	1.27316
3631.48682	1.26558
3629.55826	1.27315
3627.62969	1.30105
3625.70113	1.30701
3623.77256	1.29903
3621.84400	1.29096
3619.91543	1.29800
3617.98687	1.31909
3616.05830	1.32882
3614.12974	1.33332
3612.20118	1.33804
3610.27261	1.33954
3608.34405	1.34689
3606.41548	1.35760
3604.48692	1.35858
3602.55835	1.35598
3600.62979	1.36097
3598.70123	1.36999
3596.77266	1.37259
3594.84410	1.37166
3592.91553	1.37241
3590.98697	1.36997
3589.05840	1.36832
3587.12984	1.38279
3585.20127	1.40031
3583.27271	1.40681
3581.34415	1.41194
3579.41558	1.41886
3577.48702	1.42100
3575.55845	1.42041
3573.62989	1.42453
3571.70132	1.43009
3569.77276	1.43530
3567.84419	1.44828
3565.91563	1.46236
3563.98707	1.46437
3562.05850	1.46735
3560.12994	1.47395
3558.20137	1.47603
3556.27281	1.47593
3554.34424	1.48248
3552.41568	1.49367
3550.48711	1.49755
3548.55855	1.49876
3546.62999	1.51124
3544.70142	1.52814
3542.77286	1.53223
3540.84429	1.52793
3538.91573	1.52816
3536.98716	1.53886
3535.05860	1.54939
3533.13003	1.54899
3531.20147	1.54682
3529.27291	1.55488
3527.34434	1.56820
3525.41578	1.57286
3523.48721	1.57226
3521.55865	1.57668
3519.63008	1.58401
3517.70152	1.59182
3515.77295	1.59934
3513.84439	1.60329
3511.91583	1.60788
3509.98726	1.61764
3508.05870	1.62616
3506.13013	1.62964
3504.20157	1.63357
3502.27300	1.64074
3500.34444	1.64732
3498.41587	1.65699
3496.48731	1.67368
3494.55875	1.68476
3492.63018	1.68324
3490.70162	1.68210
3488.77305	1.68843
3486.84449	1.69550
3484.91592	1.69726
3482.98736	1.69731
3481.05879	1.70218
3479.13023	1.71187
3477.20167	1.72038
3475.27310	1.72319
3473.34454	1.72375
3471.41597	1.72508
3469.48741	1.72444
3467.55884	1.72451
3465.63028	1.72809
3463.70171	1.73314
3461.77315	1.73793
3459.84459	1.73793
3457.91602	1.73217
3455.98746	1.73059
3454.05889	1.74075
3452.13033	1.75235
3450.20176	1.75098
3448.27320	1.74302
3446.34464	1.74465
3444.41607	1.75493
3442.48751	1.76342
3440.55894	1.76755
3438.63038	1.76748
3436.70181	1.76658
3434.77325	1.76997
3432.84468	1.77306
3430.91612	1.77140
3428.98756	1.76770
3427.05899	1.76404
3425.13043	1.76470
3423.20186	1.77136
3421.27330	1.77479
3419.34473	1.76785
3417.41617	1.75916
3415.48760	1.75762
3413.55904	1.76237
3411.63048	1.76687
3409.70191	1.76563
3407.77335	1.76129
3405.84478	1.76081
3403.91622	1.76611
3401.98765	1.77182
3400.05909	1.77364
3398.13052	1.77174
3396.20196	1.76542
3394.27340	1.75971
3392.34483	1.75997
3390.41627	1.76299
3388.48770	1.76817
3386.55914	1.77417
3384.63057	1.77102
3382.70201	1.76229
3380.77344	1.76335
3378.84488	1.76926
3376.91632	1.76876
3374.98775	1.76801
3373.05919	1.76980
3371.13062	1.76775
3369.20206	1.76291
3367.27349	1.75916
3365.34493	1.75371
3363.41636	1.75166
3361.48780	1.76331
3359.55924	1.77496
3357.63067	1.76988
3355.70211	1.76314
3353.77354	1.76732
3351.84498	1.77556
3349.91641	1.78496
3347.98785	1.79249
3346.05928	1.79297
3344.13072	1.79059
3342.20216	1.78755
3340.27359	1.78427
3338.34503	1.78361
3336.41646	1.78119
3334.48790	1.77516
3332.55933	1.77301
3330.63077	1.77562
3328.70220	1.77682
3326.77364	1.77474
3324.84508	1.77103
3322.91651	1.77145
3320.98795	1.78151
3319.05938	1.79893
3317.13082	1.81866
3315.20225	1.83029
3313.27369	1.82735
3311.34513	1.82217
3309.41656	1.82147
3307.48800	1.81643
3305.55943	1.80669
3303.63087	1.80414
3301.70230	1.81155
3299.77374	1.82055
3297.84517	1.83063
3295.91661	1.84290
3293.98805	1.84902
3292.05948	1.84533
3290.13092	1.83713
3288.20235	1.82915
3286.27379	1.82257
3284.34522	1.82211
3282.41666	1.83144
3280.48809	1.84067
3278.55953	1.84225
3276.63097	1.84107
3274.70240	1.83822
3272.77384	1.83332
3270.84527	1.83106
3268.91671	1.83191
3266.98814	1.82940
3265.05958	1.82041
3263.13101	1.80942
3261.20245	1.80068
3259.27389	1.79431
3257.34532	1.78992
3255.41676	1.78974
3253.48819	1.79040
3251.55963	1.78254
3249.63106	1.76801
3247.70250	1.75764
3245.77393	1.75603
3243.84537	1.75589
3241.91681	1.74636
3239.98824	1.72997
3238.05968	1.71841
3236.13111	1.71463
3234.20255	1.71225
3232.27398	1.70843
3230.34542	1.70682
3228.41685	1.70817
3226.48829	1.70648
3224.55973	1.69732
3222.63116	1.68419
3220.70260	1.67351
3218.77403	1.66675
3216.84547	1.66075
3214.91690	1.65691
3212.98834	1.65808
3211.05977	1.65784
3209.13121	1.65120
3207.20265	1.64320
3205.27408	1.63671
3203.34552	1.63038
3201.41695	1.62451
3199.48839	1.61935
3197.55982	1.61412
3195.63126	1.61092
3193.70269	1.61092
3191.77413	1.60807
3189.84557	1.60018
3187.91700	1.59347
3185.98844	1.58919
3184.05987	1.58243
3182.13131	1.57177
3180.20274	1.56393
3178.27418	1.56236
3176.34562	1.55871
3174.41705	1.55058
3172.48849	1.54578
3170.55992	1.54577
3168.63136	1.54534
3166.70279	1.54038
3164.77423	1.53176
3162.84566	1.52345
3160.91710	1.51906
3158.98854	1.51905
3157.05997	1.51775
3155.13141	1.51078
3153.20284	1.50278
3151.27428	1.49895
3149.34571	1.49801
3147.41715	1.49657
3145.48858	1.49376
3143.56002	1.49157
3141.63146	1.49028
3139.70289	1.48597
3137.77433	1.47926
3135.84576	1.47714
3133.91720	1.47916
3131.98863	1.47825
3130.06007	1.47419
3128.13150	1.47184
3126.20294	1.47395
3124.27438	1.47786
3122.34581	1.47856
3120.41725	1.47687
3118.48868	1.47552
3116.56012	1.47366
3114.63155	1.47179
3112.70299	1.47180
3110.77442	1.47216
3108.84586	1.46910
3106.91730	1.46271
3104.98873	1.45845
3103.06017	1.45942
3101.13160	1.46082
3099.20304	1.45816
3097.27447	1.45491
3095.34591	1.45377
3093.41734	1.45280
3091.48878	1.45147
3089.56022	1.45043
3087.63165	1.44811
3085.70309	1.44299
3083.77452	1.43638
3081.84596	1.43039
3079.91739	1.42637
3077.98883	1.42463
3076.06026	1.42357
3074.13170	1.42047
3072.20314	1.41386
3070.27457	1.40607
3068.34601	1.40017
3066.41744	1.39619
3064.48888	1.39332
3062.56031	1.39075
3060.63175	1.38662
3058.70318	1.38088
3056.77462	1.37658
3054.84606	1.37390
3052.91749	1.36915
3050.98893	1.36213
3049.06036	1.35571
3047.13180	1.35080
3045.20323	1.34676
3043.27467	1.34331
3041.34610	1.34028
3039.41754	1.33754
3037.48898	1.33544
3035.56041	1.33293
3033.63185	1.32770
3031.70328	1.32136
3029.77472	1.31777
3027.84615	1.31535
3025.91759	1.31133
3023.98903	1.30735
3022.06046	1.30475
3020.13190	1.30330
3018.20333	1.30359
3016.27477	1.30427
3014.34620	1.30276
3012.41764	1.29990
3010.48907	1.29750
3008.56051	1.29607
3006.63195	1.29569
3004.70338	1.29419
3002.77482	1.28998
3000.84625	1.28514
2998.91769	1.28266
2996.98912	1.28428
2995.06056	1.28822
2993.13199	1.29154
2991.20343	1.29425
2989.27487	1.29687
2987.34630	1.29965
2985.41774	1.30346
2983.48917	1.30865
2981.56061	1.31465
2979.63204	1.31977
2977.70348	1.32257
2975.77491	1.32471
2973.84635	1.32771
2971.91779	1.33103
2969.98922	1.33593
2968.06066	1.34224
2966.13209	1.34730
2964.20353	1.35266
2962.27496	1.35879
2960.34640	1.35936
2958.41783	1.35287
2956.48927	1.34637
2954.56071	1.34250
2952.63214	1.33820
2950.70358	1.33331
2948.77501	1.33003
2946.84645	1.32909
2944.91788	1.33032
2942.98932	1.33372
2941.06075	1.33913
2939.13219	1.34632
2937.20363	1.35472
2935.27506	1.36288
2933.34650	1.36941
2931.41793	1.37411
2929.48937	1.37808
2927.56080	1.38182
2925.63224	1.38437
2923.70367	1.38546
2921.77511	1.38651
2919.84655	1.38800
2917.91798	1.38608
2915.98942	1.37600
2914.06085	1.35913
2912.13229	1.34070
2910.20372	1.32389
2908.27516	1.30983
2906.34659	1.29920
2904.41803	1.29114
2902.48947	1.28532
2900.56090	1.28260
2898.63234	1.28094
2896.70377	1.27819
2894.77521	1.27539
2892.84664	1.27206
2890.91808	1.26699
2888.98952	1.26268
2887.06095	1.26094
2885.13239	1.25947
2883.20382	1.25743
2881.27526	1.25611
2879.34669	1.25470
2877.41813	1.25271
2875.48956	1.25202
2873.56100	1.25213
2871.63244	1.24961
2869.70387	1.24390
2867.77531	1.23726
2865.84674	1.23043
2863.91818	1.22450
2861.98961	1.22208
2860.06105	1.22308
2858.13248	1.22574
2856.20392	1.23034
2854.27536	1.23638
2852.34679	1.24157
2850.41823	1.24397
2848.48966	1.23913
2846.56110	1.22418
2844.63253	1.20466
2842.70397	1.18717
2840.77540	1.17323
2838.84684	1.16279
2836.91828	1.15632
2834.98971	1.15291
2833.06115	1.15002
2831.13258	1.14628
2829.20402	1.14207
2827.27545	1.13801
2825.34689	1.13431
2823.41832	1.13060
2821.48976	1.12692
2819.56120	1.12383
2817.63263	1.12105
2815.70407	1.11851
2813.77550	1.11631
2811.84694	1.11324
2809.91837	1.10904
2807.98981	1.10552
2806.06124	1.10309
2804.13268	1.10013
2802.20412	1.09602
2800.27555	1.09207
2798.34699	1.08933
2796.41842	1.08737
2794.48986	1.08554
2792.56129	1.08332
2790.63273	1.08042
2788.70416	1.07747
2786.77560	1.07465
2784.84704	1.07129
2782.91847	1.06752
2780.98991	1.06466
2779.06134	1.06315
2777.13278	1.06137
2775.20421	1.05875
2773.27565	1.05625
2771.34708	1.05352
2769.41852	1.05055
2767.48996	1.04819
2765.56139	1.04654
2763.63283	1.04529
2761.70426	1.04368
2759.77570	1.04126
2757.84713	1.03863
2755.91857	1.03664
2753.99001	1.03555
2752.06144	1.03468
2750.13288	1.03290
2748.20431	1.02999
2746.27575	1.02709
2744.34718	1.02518
2742.41862	1.02396
2740.49005	1.02284
2738.56149	1.02161
2736.63293	1.02008
2734.70436	1.01861
2732.77580	1.01799
2730.84723	1.01796
2728.91867	1.01727
2726.99010	1.01529
2725.06154	1.01303
2723.13297	1.01141
2721.20441	1.00999
2719.27585	1.00858
2717.34728	1.00749
2715.41872	1.00666
2713.49015	1.00542
2711.56159	1.00368
2709.63302	1.00245
2707.70446	1.00202
2705.77589	1.00167
2703.84733	1.00081
2701.91877	0.99911
2699.99020	0.99712
2698.06164	0.99585
2696.13307	0.99526
2694.20451	0.99465
2692.27594	0.99361
2690.34738	0.99192
2688.41881	0.98983
2686.49025	0.98808
2684.56169	0.98708
2682.63312	0.98636
2680.70456	0.98542
2678.77599	0.98426
2676.84743	0.98307
2674.91886	0.98195
2672.99030	0.98059
2671.06173	0.97879
2669.13317	0.97697
2667.20461	0.97533
2665.27604	0.97391
2663.34748	0.97251
2661.41891	0.97094
2659.49035	0.96979
2657.56178	0.96943
2655.63322	0.96914
2653.70465	0.96804
2651.77609	0.96641
2649.84753	0.96476
2647.91896	0.96312
2645.99040	0.96192
2644.06183	0.96117
2642.13327	0.96037
2640.20470	0.95943
2638.27614	0.95826
2636.34757	0.95678
2634.41901	0.95507
2632.49045	0.95345
2630.56188	0.95250
2628.63332	0.95196
2626.70475	0.95096
2624.77619	0.94932
2622.84762	0.94773
2620.91906	0.94680
2618.99049	0.94616
2617.06193	0.94523
2615.13337	0.94408
2613.20480	0.94289
2611.27624	0.94154
2609.34767	0.93991
2607.41911	0.93835
2605.49054	0.93715
2603.56198	0.93614
2601.63342	0.93510
2599.70485	0.93401
2597.77629	0.93289
2595.84772	0.93203
2593.91916	0.93138
2591.99059	0.93044
2590.06203	0.92908
2588.13346	0.92784
2586.20490	0.92672
2584.27634	0.92522
2582.34777	0.92354
2580.41921	0.92216
2578.49064	0.92109
2576.56208	0.92008
2574.63351	0.91921
2572.70495	0.91865
2570.77638	0.91796
2568.84782	0.91672
2566.91926	0.91532
2564.99069	0.91428
2563.06213	0.91332
2561.13356	0.91209
2559.20500	0.91116
2557.27643	0.91065
2555.34787	0.90968
2553.41930	0.90804
2551.49074	0.90640
2549.56218	0.90500
2547.63361	0.90364
2545.70505	0.90252
2543.77648	0.90195
2541.84792	0.90145
2539.91935	0.90033
2537.99079	0.89895
2536.06222	0.89796
2534.13366	0.89727
2532.20510	0.89671
2530.27653	0.89638
2528.34797	0.89596
2526.41940	0.89483
2524.49084	0.89329
2522.56227	0.89213
2520.63371	0.89144
2518.70514	0.89071
2516.77658	0.88964
2514.84802	0.88844
2512.91945	0.88755
2510.99089	0.88688
2509.06232	0.88601
2507.13376	0.88468
2505.20519	0.88307
2503.27663	0.88153
2501.34806	0.88026
2499.41950	0.87925
2497.49094	0.87849
2495.56237	0.87767
2493.63381	0.87635
2491.70524	0.87478
2489.77668	0.87356
2487.84811	0.87245
2485.91955	0.87098
2483.99098	0.86944
2482.06242	0.86857
2480.13386	0.86840
2478.20529	0.86812
2476.27673	0.86698
2474.34816	0.86507
2472.41960	0.86316
2470.49103	0.86175
2468.56247	0.86058
2466.63391	0.85926
2464.70534	0.85798
2462.77678	0.85690
2460.84821	0.85576
2458.91965	0.85447
2456.99108	0.85319
2455.06252	0.85179
2453.13395	0.85031
2451.20539	0.84912
2449.27683	0.84813
2447.34826	0.84717
2445.41970	0.84636
2443.49113	0.84544
2441.56257	0.84420
2439.63400	0.84301
2437.70544	0.84202
2435.77687	0.84083
2433.84831	0.83927
2431.91975	0.83783
2429.99118	0.83685
2428.06262	0.83577
2426.13405	0.83437
2424.20549	0.83306
2422.27692	0.83193
2420.34836	0.83087
2418.41979	0.83008
2416.49123	0.82938
2414.56267	0.82814
2412.63410	0.82654
2410.70554	0.82514
2408.77697	0.82374
2406.84841	0.82209
2404.91984	0.82047
2402.99128	0.81916
2401.06271	0.81828
2399.13415	0.81749
2397.20559	0.81641
2395.27702	0.81518
2393.34846	0.81416
2391.41989	0.81341
2389.49133	0.81256
2387.56276	0.81094
2385.63420	0.80843
2383.70563	0.80544
2381.77707	0.80242
2379.84851	0.79951
2377.91994	0.79614
2375.99138	0.79160
2374.06281	0.78621
2372.13425	0.78127
2370.20568	0.77777
2368.27712	0.77512
2366.34855	0.77155
2364.41999	0.76537
2362.49143	0.75802
2360.56286	0.75506
2358.63430	0.76007
2356.70573	0.77027
2354.77717	0.77826
2352.84860	0.78209
2350.92004	0.78209
2348.99147	0.77866
2347.06291	0.77428
2345.13435	0.77150
2343.20578	0.76860
2341.27722	0.76530
2339.34865	0.76728
2337.42009	0.77230
2335.49152	0.77409
2333.56296	0.77335
2331.63440	0.77305
2329.70583	0.77190
2327.77727	0.76982
2325.84870	0.76936
2323.92014	0.77091
2321.99157	0.77273
2320.06301	0.77359
2318.13444	0.77380
2316.20588	0.77377
2314.27732	0.77341
2312.34875	0.77265
2310.42019	0.77189
2308.49162	0.77168
2306.56306	0.77199
2304.63449	0.77173
2302.70593	0.77014
2300.77736	0.76824
2298.84880	0.76733
2296.92024	0.76711
2294.99167	0.76659
2293.06311	0.76564
2291.13454	0.76503
2289.20598	0.76506
2287.27741	0.76520
2285.34885	0.76477
2283.42028	0.76354
2281.49172	0.76203
2279.56316	0.76077
2277.63459	0.75962
2275.70603	0.75834
2273.77746	0.75719
2271.84890	0.75634
2269.92033	0.75540
2267.99177	0.75433
2266.06320	0.75358
2264.13464	0.75295
2262.20608	0.75190
2260.27751	0.75087
2258.34895	0.75059
2256.42038	0.75062
2254.49182	0.75019
2252.56325	0.74927
2250.63469	0.74824
2248.70612	0.74751
2246.77756	0.74723
2244.84900	0.74714
2242.92043	0.74673
2240.99187	0.74599
2239.06330	0.74524
2237.13474	0.74456
2235.20617	0.74393
2233.27761	0.74343
2231.34904	0.74304
2229.42048	0.74278
2227.49192	0.74264
2225.56335	0.74234
2223.63479	0.74195
2221.70622	0.74181
2219.77766	0.74201
2217.84909	0.74226
2215.92053	0.74216
2213.99196	0.74171
2212.06340	0.74130
2210.13484	0.74115
2208.20627	0.74111
2206.27771	0.74085
2204.34914	0.74039
2202.42058	0.73997
2200.49201	0.73965
2198.56345	0.73954
2196.63488	0.73966
2194.70632	0.73975
2192.77776	0.73956
2190.84919	0.73905
2188.92063	0.73848
2186.99206	0.73815
2185.06350	0.73800
2183.13493	0.73781
2181.20637	0.73750
2179.27781	0.73727
2177.34924	0.73723
2175.42068	0.73720
2173.49211	0.73718
2171.56355	0.73714
2169.63498	0.73680
2167.70642	0.73623
2165.77785	0.73582
2163.84929	0.73543
2161.92073	0.73467
2159.99216	0.73401
2158.06360	0.73385
2156.13503	0.73359
2154.20647	0.73275
2152.27790	0.73165
2150.34934	0.73075
2148.42077	0.73022
2146.49221	0.73001
2144.56365	0.72978
2142.63508	0.72929
2140.70652	0.72872
2138.77795	0.72810
2136.84939	0.72735
2134.92082	0.72669
2132.99226	0.72611
2131.06369	0.72539
2129.13513	0.72459
2127.20657	0.72381
2125.27800	0.72306
2123.34944	0.72230
2121.42087	0.72137
2119.49231	0.72041
2117.56374	0.71974
2115.63518	0.71942
2113.70661	0.71929
2111.77805	0.71912
2109.84949	0.71878
2107.92092	0.71835
2105.99236	0.71793
2104.06379	0.71736
2102.13523	0.71658
2100.20666	0.71590
2098.27810	0.71554
2096.34953	0.71529
2094.42097	0.71494
2092.49241	0.71468
2090.56384	0.71470
2088.63528	0.71478
2086.70671	0.71481
2084.77815	0.71488
2082.84958	0.71484
2080.92102	0.71473
2078.99245	0.71481
2077.06389	0.71513
2075.13533	0.71553
2073.20676	0.71573
2071.27820	0.71570
2069.34963	0.71552
2067.42107	0.71547
2065.49250	0.71584
2063.56394	0.71635
2061.63537	0.71662
2059.70681	0.71678
2057.77825	0.71696
2055.84968	0.71720
2053.92112	0.71747
2051.99255	0.71760
2050.06399	0.71766
2048.13542	0.71770
2046.20686	0.71745
2044.27830	0.71686
2042.34973	0.71647
2040.42117	0.71667
2038.49260	0.71712
2036.56404	0.71744
2034.63547	0.71767
2032.70691	0.71798
2030.77834	0.71834
2028.84978	0.71859
2026.92122	0.71876
2024.99265	0.71889
2023.06409	0.71882
2021.13552	0.71837
2019.20696	0.71777
2017.27839	0.71742
2015.34983	0.71723
2013.42126	0.71699
2011.49270	0.71664
2009.56414	0.71619
2007.63557	0.71579
2005.70701	0.71561
2003.77844	0.71544
2001.84988	0.71501
1999.92131	0.71454
1997.99275	0.71416
1996.06418	0.71344
1994.13562	0.71243
1992.20706	0.71202
1990.27849	0.71183
1988.34993	0.71099
1986.42136	0.70993
1984.49280	0.70903
1982.56423	0.70832
1980.63567	0.70772
1978.70710	0.70721
1976.77854	0.70696
1974.84998	0.70684
1972.92141	0.70642
1970.99285	0.70568
1969.06428	0.70535
1967.13572	0.70575
1965.20715	0.70579
1963.27859	0.70495
1961.35002	0.70407
1959.42146	0.70344
1957.49290	0.70286
1955.56433	0.70249
1953.63577	0.70219
1951.70720	0.70187
1949.77864	0.70165
1947.85007	0.70122
1945.92151	0.70057
1943.99294	0.70072
1942.06438	0.70204
1940.13582	0.70266
1938.20725	0.70222
1936.27869	0.70209
1934.35012	0.70247
1932.42156	0.70278
1930.49299	0.70278
1928.56443	0.70253
1926.63586	0.70197
1924.70730	0.70184
1922.77874	0.70289
1920.85017	0.70379
1918.92161	0.70476
1916.99304	0.70658
1915.06448	0.70736
1913.13591	0.70719
1911.20735	0.70774
1909.27878	0.70917
1907.35022	0.71036
1905.42166	0.71087
1903.49309	0.71124
1901.56453	0.71172
1899.63596	0.71216
1897.70740	0.71264
1895.77883	0.71373
1893.85027	0.71468
1891.92171	0.71481
1889.99314	0.71583
1888.06458	0.71749
1886.13601	0.71807
1884.20745	0.71858
1882.27888	0.71938
1880.35032	0.71966
1878.42175	0.71961
1876.49319	0.71973
1874.56463	0.71957
1872.63606	0.71842
1870.70750	0.71760
1868.77893	0.71991
1866.85037	0.72301
1864.92180	0.72322
1862.99324	0.72238
1861.06467	0.72209
1859.13611	0.72226
1857.20755	0.72232
1855.27898	0.72208
1853.35042	0.72151
1851.42185	0.72048
1849.49329	0.71927
1847.56472	0.71796
1845.63616	0.71770
1843.70759	0.71961
1841.77903	0.72010
1839.85047	0.71861
1837.92190	0.71782
1835.99334	0.71793
1834.06477	0.71692
1832.13621	0.71520
1830.20764	0.71557
1828.27908	0.71682
1826.35051	0.71640
1824.42195	0.71620
1822.49339	0.71572
1820.56482	0.71423
1818.63626	0.71326
1816.70769	0.71295
1814.77913	0.71229
1812.85056	0.71167
1810.92200	0.71228
1808.99343	0.71306
1807.06487	0.71275
1805.13631	0.71184
1803.20774	0.71092
1801.27918	0.71121
1799.35061	0.71221
1797.42205	0.71163
1795.49348	0.70986
1793.56492	0.70997
1791.63635	0.71369
1789.70779	0.71529
1787.77923	0.71386
1785.85066	0.71290
1783.92210	0.71309
1781.99353	0.71364
1780.06497	0.71464
1778.13640	0.71484
1776.20784	0.71334
1774.27927	0.71281
1772.35071	0.71738
1770.42215	0.72251
1768.49358	0.72382
1766.56502	0.72388
1764.63645	0.72352
1762.70789	0.72515
1760.77932	0.72902
1758.85076	0.73127
1756.92220	0.73361
1754.99363	0.73571
1753.06507	0.73617
1751.13650	0.73911
1749.20794	0.74712
1747.27937	0.75408
1745.35081	0.75793
1743.42224	0.76098
1741.49368	0.76455
1739.56512	0.76893
1737.63655	0.77111
1735.70799	0.77203
1733.77942	0.77894
1731.85086	0.78623
1729.92229	0.78928
1727.99373	0.79206
1726.06516	0.79462
1724.13660	0.79815
1722.20804	0.80120
1720.27947	0.80249
1718.35091	0.80796
1716.42234	0.82421
1714.49378	0.83597
1712.56521	0.84123
1710.63665	0.84630
1708.70808	0.85272
1706.77952	0.86496
1704.85096	0.88387
1702.92239	0.90052
1700.99383	0.92619
1699.06526	0.97276
1697.13670	1.01926
1695.20813	1.06402
1693.27957	1.09379
1691.35100	1.11626
1689.42244	1.14666
1687.49388	1.17600
1685.56531	1.20743
1683.63675	1.26784
1681.70818	1.31372
1679.77962	1.33769
1677.85105	1.36049
1675.92249	1.38966
1673.99392	1.42134
1672.06536	1.44343
1670.13680	1.46927
1668.20823	1.50158
1666.27967	1.51833
1664.35110	1.53003
1662.42254	1.54878
1660.49397	1.56494
1658.56541	1.57079
1656.63684	1.57088
1654.70828	1.57335
1652.77972	1.58802
1650.85115	1.59368
1648.92259	1.59326
1646.99402	1.59706
1645.06546	1.59842
1643.13689	1.59351
1641.20833	1.58745
1639.27976	1.58201
1637.35120	1.58267
1635.42264	1.58989
1633.49407	1.58615
1631.56551	1.57794
1629.63694	1.57003
1627.70838	1.56123
1625.77981	1.55013
1623.85125	1.53629
1621.92269	1.52023
1619.99412	1.50323
1618.06556	1.48023
1616.13699	1.44628
1614.20843	1.41583
1612.27986	1.38915
1610.35130	1.36106
1608.42273	1.33434
1606.49417	1.31318
1604.56561	1.29704
1602.63704	1.28383
1600.70848	1.27392
1598.77991	1.26746
1596.85135	1.26344
1594.92278	1.26135
1592.99422	1.26108
1591.06565	1.26274
1589.13709	1.26642
1587.20853	1.27174
1585.27996	1.27892
1583.35140	1.28897
1581.42283	1.30022
1579.49427	1.30974
1577.56570	1.32249
1575.63714	1.34524
1573.70857	1.36021
1571.78001	1.36829
1569.85145	1.38308
1567.92288	1.40054
1565.99432	1.41230
1564.06575	1.42197
1562.13719	1.42740
1560.20862	1.43388
1558.28006	1.46171
1556.35149	1.47781
1554.42293	1.48093
1552.49437	1.48277
1550.56580	1.48406
1548.63724	1.48279
1546.70867	1.47787
1544.78011	1.47145
1542.85154	1.46644
1540.92298	1.46496
1538.99441	1.46001
1537.06585	1.45125
1535.13729	1.44181
1533.20872	1.43399
1531.28016	1.42895
1529.35159	1.42454
1527.42303	1.42078
1525.49446	1.41744
1523.56590	1.41454
1521.63733	1.41347
1519.70877	1.41137
1517.78021	1.40329
1515.85164	1.38964
1513.92308	1.37269
1511.99451	1.35294
1510.06595	1.33259
1508.13738	1.30775
1506.20882	1.27283
1504.28025	1.25266
1502.35169	1.23745
1500.42313	1.22002
1498.49456	1.19946
1496.56600	1.17738
1494.63743	1.15938
1492.70887	1.14541
1490.78030	1.13125
1488.85174	1.11615
1486.92317	1.10491
1484.99461	1.09700
1483.06605	1.09132
1481.13748	1.08816
1479.20892	1.08768
1477.28035	1.08992
1475.35179	1.09603
1473.42322	1.11250
1471.49466	1.13484
1469.56610	1.14515
1467.63753	1.14983
1465.70897	1.15764
1463.78040	1.16718
1461.85184	1.17049
1459.92327	1.17009
1457.99471	1.17731
1456.06614	1.19361
1454.13758	1.19727
1452.20902	1.19636
1450.28045	1.19568
1448.35189	1.19481
1446.42332	1.19301
1444.49476	1.18962
1442.56619	1.18460
1440.63763	1.17842
1438.70906	1.17135
1436.78050	1.16392
1434.85194	1.15705
1432.92337	1.15012
1430.99481	1.14300
1429.06624	1.13660
1427.13768	1.13134
1425.20911	1.12768
1423.28055	1.12611
1421.35198	1.12546
1419.42342	1.12721
1417.49486	1.13174
1415.56629	1.13287
1413.63773	1.13092
1411.70916	1.12832
1409.78060	1.12624
1407.85203	1.12477
1405.92347	1.12492
1403.99490	1.12697
1402.06634	1.12839
1400.13778	1.12927
1398.20921	1.13056
1396.28065	1.13217
1394.35208	1.13510
1392.42352	1.13786
1390.49495	1.14026
1388.56639	1.14695
1386.63782	1.16043
1384.70926	1.17410
1382.78070	1.18570
1380.85213	1.19626
1378.92357	1.20271
1376.99500	1.20221
1375.06644	1.19461
1373.13787	1.18235
1371.20931	1.16850
1369.28074	1.15169
1367.35218	1.13202
1365.42362	1.11325
1363.49505	1.09621
1361.56649	1.08149
1359.63792	1.07028
1357.70936	1.06149
1355.78079	1.05465
1353.85223	1.04977
1351.92366	1.04627
1349.99510	1.04392
1348.06654	1.04262
1346.13797	1.04178
1344.20941	1.04104
1342.28084	1.04059
1340.35228	1.04184
1338.42371	1.04540
1336.49515	1.04947
1334.56659	1.05449
1332.63802	1.06161
1330.70946	1.06968
1328.78089	1.07653
1326.85233	1.08125
1324.92376	1.08416
1322.99520	1.08592
1321.06663	1.08771
1319.13807	1.08984
1317.20951	1.09138
1315.28094	1.09235
1313.35238	1.09336
1311.42381	1.09347
1309.49525	1.09232
1307.56668	1.09076
1305.63812	1.08892
1303.70955	1.08667
1301.78099	1.08409
1299.85243	1.08087
1297.92386	1.07632
1295.99530	1.07069
1294.06673	1.06582
1292.13817	1.06298
1290.20960	1.06183
1288.28104	1.06152
1286.35247	1.06164
1284.42391	1.06184
1282.49535	1.06181
1280.56678	1.06181
1278.63822	1.06245
1276.70965	1.06401
1274.78109	1.06668
1272.85252	1.07126
1270.92396	1.07795
1268.99539	1.08573
1267.06683	1.09360
1265.13827	1.10079
1263.20970	1.10644
1261.28114	1.11012
1259.35257	1.11225
1257.42401	1.11342
1255.49544	1.11436
1253.56688	1.11568
1251.63831	1.11686
1249.70975	1.11720
1247.78119	1.11716
1245.85262	1.11735
1243.92406	1.11761
1241.99549	1.11768
1240.06693	1.11764
1238.13836	1.11734
1236.20980	1.11586
1234.28123	1.11249
1232.35267	1.10752
1230.42411	1.10131
1228.49554	1.09414
1226.56698	1.08625
1224.63841	1.07732
1222.70985	1.06723
1220.78128	1.05675
1218.85272	1.04696
1216.92415	1.03835
1214.99559	1.03148
1213.06703	1.02769
1211.13846	1.02755
1209.20990	1.02968
1207.28133	1.03148
1205.35277	1.03054
1203.42420	1.02587
1201.49564	1.01841
1199.56708	1.00985
1197.63851	1.00064
1195.70995	0.99048
1193.78138	0.98045
1191.85282	0.97220
1189.92425	0.96593
1187.99569	0.96146
1186.06712	0.95878
1184.13856	0.95730
1182.21000	0.95706
1180.28143	0.95920
1178.35287	0.96407
1176.42430	0.97070
1174.49574	0.97856
1172.56717	0.98763
1170.63861	0.99782
1168.71004	1.01010
1166.78148	1.02602
1164.85292	1.04565
1162.92435	1.06678
1160.99579	1.08584
1159.06722	1.09955
1157.13866	1.10596
1155.21009	1.10404
1153.28153	1.09425
1151.35296	1.07910
1149.42440	1.06132
1147.49584	1.04288
1145.56727	1.02584
1143.63871	1.01260
1141.71014	1.00427
1139.78158	0.99990
1137.85301	0.99791
1135.92445	0.99789
1133.99588	1.00098
1132.06732	1.00833
1130.13876	1.01962
1128.21019	1.03381
1126.28163	1.04956
1124.35306	1.06526
1122.42450	1.07994
1120.49593	1.09307
1118.56737	1.10449
1116.63880	1.11385
1114.71024	1.11945
1112.78168	1.11999
1110.85311	1.11631
1108.92455	1.11014
1106.99598	1.10362
1105.06742	1.09783
1103.13885	1.09201
1101.21029	1.08642
1099.28172	1.08269
1097.35316	1.08238
1095.42460	1.08699
1093.49603	1.09655
1091.56747	1.10899
1089.63890	1.12309
1087.71034	1.14037
1085.78177	1.16245
1083.85321	1.18709
1081.92464	1.20943
1079.99608	1.22725
1078.06752	1.24018
1076.13895	1.24717
1074.21039	1.24723
1072.28182	1.24021
1070.35326	1.22772
1068.42469	1.21330
1066.49613	1.20057
1064.56756	1.18972
1062.63900	1.17832
1060.71044	1.16616
1058.78187	1.15455
1056.85331	1.14479
1054.92474	1.13769
1052.99618	1.13194
1051.06761	1.12663
1049.13905	1.12302
1047.21049	1.12210
1045.28192	1.12454
1043.35336	1.13092
1041.42479	1.13981
1039.49623	1.14842
1037.56766	1.15519
1035.63910	1.16070
1033.71053	1.16586
1031.78197	1.16972
1029.85341	1.17040
1027.92484	1.16723
1025.99628	1.16052
1024.06771	1.15086
1022.13915	1.13996
1020.21058	1.13050
1018.28202	1.12336
1016.35345	1.11654
1014.42489	1.10734
1012.49633	1.09420
1010.56776	1.07728
1008.63920	1.05798
1006.71063	1.03787
1004.78207	1.01877
1002.85350	1.00250
1000.92494	0.98977
998.99637	0.98036
997.06781	0.97395
995.13925	0.96930
993.21068	0.96365
991.28212	0.95499
989.35355	0.94351
987.42499	0.93017
985.49642	0.91654
983.56786	0.90428
981.63929	0.89425
979.71073	0.88673
977.78217	0.88109
975.85360	0.87617
973.92504	0.87068
971.99647	0.86354
970.06791	0.85521
968.13934	0.84704
966.21078	0.83983
964.28221	0.83458
962.35365	0.83308
960.42509	0.83709
958.49652	0.84633
956.56796	0.85678
954.63939	0.86321
952.71083	0.86354
950.78226	0.85892
948.85370	0.85172
946.92513	0.84457
944.99657	0.83916
943.06801	0.83565
941.13944	0.83336
939.21088	0.83196
937.28231	0.83120
935.35375	0.83055
933.42518	0.83010
931.49662	0.83042
929.56805	0.83156
927.63949	0.83296
925.71093	0.83448
923.78236	0.83623
921.85380	0.83786
919.92523	0.83875
917.99667	0.83904
916.06810	0.83954
914.13954	0.84057
912.21098	0.84201
910.28241	0.84392
908.35385	0.84679
906.42528	0.85089
904.49672	0.85557
902.56815	0.85999
900.63959	0.86397
898.71102	0.86710
896.78246	0.86824
894.85390	0.86734
892.92533	0.86567
890.99677	0.86372
889.06820	0.86105
887.13964	0.85795
885.21107	0.85537
883.28251	0.85347
881.35394	0.85179
879.42538	0.85039
877.49682	0.84967
875.56825	0.84952
873.63969	0.84953
871.71112	0.84938
869.78256	0.84891
867.85399	0.84862
865.92543	0.84888
863.99686	0.84924
862.06830	0.84959
860.13974	0.85037
858.21117	0.85182
856.28261	0.85365
854.35404	0.85520
852.42548	0.85588
850.49691	0.85590
848.56835	0.85602
846.63978	0.85674
844.71122	0.85803
842.78266	0.85906
840.85409	0.85930
838.92553	0.85954
836.99696	0.86057
835.06840	0.86208
833.13983	0.86345
831.21127	0.86463
829.28270	0.86590
827.35414	0.86709
825.42558	0.86746
823.49701	0.86724
821.56845	0.86754
819.63988	0.86851
817.71132	0.86973
815.78275	0.87071
813.85419	0.87120
811.92562	0.87209
809.99706	0.87368
808.06850	0.87506
806.13993	0.87603
804.21137	0.87715
802.28280	0.87845
800.35424	0.87940
798.42567	0.88020
796.49711	0.88158
794.56854	0.88352
792.63998	0.88576
790.71142	0.88831
788.78285	0.89110
786.85429	0.89443
784.92572	0.89880
782.99716	0.90356
781.06859	0.90772
779.14003	0.91164
777.21147	0.91526
775.28290	0.91750
773.35434	0.91880
771.42577	0.92070
769.49721	0.92320
767.56864	0.92562
765.64008	0.92811
763.71151	0.93097
761.78295	0.93458
759.85439	0.93864
757.92582	0.94215
755.99726	0.94550
754.06869	0.94965
752.14013	0.95373
750.21156	0.95704
748.28300	0.96029
746.35443	0.96329
744.42587	0.96502
742.49731	0.96565
740.56874	0.96563
738.64018	0.96472
736.71161	0.96356
734.78305	0.96352
732.85448	0.96516
730.92592	0.96734
728.99735	0.96857
727.06879	0.96984
725.14023	0.97276
723.21166	0.97655
721.28310	0.98024
719.35453	0.98374
717.42597	0.98691
715.49740	0.98942
713.56884	0.99062
711.64027	0.99094
709.71171	0.99120
707.78315	0.99136
705.85458	0.99186
703.92602	0.99272
701.99745	0.99274
700.06889	0.99169
698.14032	0.99074
696.21176	0.99031
694.28319	0.98969
692.35463	0.98879
690.42607	0.98840
688.49750	0.98862
686.56894	0.98872
684.64037	0.98846
682.71181	0.98681
680.78324	0.98249
678.85468	0.97723
676.92611	0.97345
674.99755	0.97141
673.06899	0.96982
671.14042	0.96728
669.21186	0.96526
667.28329	0.96734
665.35473	0.96863
663.42616	0.96804
661.49760	0.96818
659.56903	0.96999
657.64047	0.97103
655.71191	0.96951
653.78334	0.96692
651.85478	0.96377
649.92621	0.95967
647.99765	0.95606
646.06908	0.95458
644.14052	0.95533
642.21195	0.95788
640.28339	0.96192
638.35483	0.96644
636.42626	0.97072
634.49770	0.97476
632.56913	0.97684
630.64057	0.97598
628.71200	0.97430
626.78344	0.97390
624.85488	0.97560
622.92631	0.97784
620.99775	0.97741
619.06918	0.97497
617.14062	0.97406
615.21205	0.97527
613.28349	0.97828
611.35492	0.98317
609.42636	0.98741
607.49780	0.98913
605.56923	0.98972
603.64067	0.99106
601.71210	0.99375
599.78354	0.99690
