3997.91406	1.03340
3995.98550	1.03687
3994.05693	1.03954
3992.12837	1.03638
3990.19980	1.03065
3988.27124	1.02925
3986.34268	1.03126
3984.41411	1.03179
3982.48555	1.03221
3980.55698	1.03284
3978.62842	1.03228
3976.69985	1.03297
3974.77129	1.03428
3972.84272	1.03475
3970.91416	1.03561
3968.98560	1.03474
3967.05703	1.03146
3965.12847	1.02853
3963.19990	1.02709
3961.27134	1.02564
3959.34277	1.02296
3957.41421	1.02280
3955.48564	1.02661
3953.55708	1.02793
3951.62852	1.02290
3949.69995	1.01599
3947.77139	1.01171
3945.84282	1.01092
3943.91426	1.01554
3941.98569	1.02089
3940.05713	1.01911
3938.12856	1.01506
3936.20000	1.01576
3934.27144	1.02139
3932.34287	1.02567
3930.41431	1.02480
3928.48574	1.02346
3926.55718	1.02400
3924.62861	1.02391
3922.70005	1.01834
3920.77148	1.01124
3918.84292	1.01216
3916.91436	1.01962
3914.98579	1.02169
3913.05723	1.01706
3911.12866	1.01063
3909.20010	1.00362
3907.27153	0.99688
3905.34297	0.99683
3903.41440	1.00654
3901.48584	1.01334
3899.55728	1.01172
3897.62871	1.00502
3895.70015	0.99743
3893.77158	0.99342
3891.84302	0.99596
3889.91445	0.99730
3887.98589	0.99473
3886.05733	0.99981
3884.12876	1.01004
3882.20020	1.00972
3880.27163	1.00286
3878.34307	0.99620
3876.41450	0.99286
3874.48594	0.99600
3872.55737	1.00324
3870.62881	1.01099
3868.70025	1.01119
3866.77168	1.00493
3864.84312	1.00145
3862.91455	0.99785
3860.98599	0.99217
3859.05742	0.98829
3857.12886	0.98511
3855.20029	0.98266
3853.27173	0.98813
3851.34317	0.99187
3849.41460	0.98803
3847.48604	0.98294
3845.55747	0.97832
3843.62891	0.97404
3841.70034	0.97384
3839.77178	0.98264
3837.84321	0.99091
3835.91465	0.99035
3833.98609	0.98904
3832.05752	0.98515
3830.12896	0.97718
3828.20039	0.97192
3826.27183	0.96918
3824.34326	0.96233
3822.41470	0.95890
3820.48613	0.96767
3818.55757	0.97151
3816.62901	0.97474
3814.70044	0.97895
3812.77188	0.97506
3810.84331	0.96838
3808.91475	0.96459
3806.98618	0.96350
3805.05762	0.95984
3803.12905	0.96120
3801.20049	0.97316
3799.27193	0.97434
3797.34336	0.97046
3795.41480	0.97130
3793.48623	0.97002
3791.55767	0.96731
3789.62910	0.96678
3787.70054	0.96681
3785.77197	0.96623
3783.84341	0.96357
3781.91485	0.95967
3779.98628	0.96094
3778.05772	0.96522
3776.12915	0.96393
3774.20059	0.95890
3772.27202	0.95488
3770.34346	0.95613
3768.41489	0.95962
3766.48633	0.96019
3764.55777	0.95880
3762.62920	0.95603
3760.70064	0.95459
3758.77207	0.95564
3756.84351	0.95490
3754.91494	0.95150
3752.98638	0.94898
3751.05781	0.95538
3749.12925	0.95985
3747.20069	0.95417
3745.27212	0.95196
3743.34356	0.95444
3741.41499	0.95258
3739.48643	0.94949
3737.55786	0.95130
3735.62930	0.95911
3733.70074	0.96188
3731.77217	0.95600
3729.84361	0.94664
3727.91504	0.93999
3725.98648	0.94232
3724.05791	0.94868
3722.12935	0.95080
3720.20078	0.95107
3718.27222	0.94792
3716.34366	0.93960
3714.41509	0.93285
3712.48653	0.94003
3710.55796	0.95806
3708.62940	0.95976
3706.70083	0.95076
3704.77227	0.94055
3702.84370	0.93686
3700.91514	0.94051
3698.98658	0.94023
3697.05801	0.93860
3695.12945	0.94089
3693.20088	0.94256
3691.27232	0.94230
3689.34375	0.94873
3687.41519	0.95642
3685.48662	0.95552
3683.55806	0.95024
3681.62950	0.94464
3679.70093	0.93915
3677.77237	0.93653
3675.84380	0.94731
3673.91524	0.95587
3671.98667	0.95331
3670.05811	0.96076
3668.12954	0.97275
3666.20098	0.97439
3664.27242	0.97269
3662.34385	0.97283
3660.41529	0.97538
3658.48672	0.98014
3656.55816	0.98741
3654.62959	0.98928
3652.70103	0.98277
3650.77246	0.97726
3648.84390	0.99194
3646.91534	1.01006
3644.98677	1.01437
3643.05821	1.01545
3641.12964	1.01939
3639.20108	1.02531
3637.27251	1.02849
3635.34395	1.02872
3633.41538	1.03100
3631.48682	1.03995
3629.55826	1.06235
3627.62969	1.07815
3625.70113	1.07235
3623.77256	1.06727
3621.84400	1.07085
3619.91543	1.08204
3617.98687	1.08812
3616.05830	1.08500
3614.12974	1.08380
3612.20118	1.08708
3610.27261	1.09255
3608.34405	1.10458
3606.41548	1.11837
3604.48692	1.12478
3602.55835	1.13026
3600.62979	1.13983
3598.70123	1.14535
3596.77266	1.14615
3594.84410	1.15474
3592.91553	1.17098
3590.98697	1.18394
3589.05840	1.19043
3587.12984	1.18722
3585.20127	1.18139
3583.27271	1.18264
3581.34415	1.19054
3579.41558	1.20202
3577.48702	1.21175
3575.55845	1.21687
3573.62989	1.21994
3571.70132	1.22154
3569.77276	1.22019
3567.84419	1.22718
3565.91563	1.25229
3563.98707	1.26887
3562.05850	1.27019
3560.12994	1.26835
3558.20137	1.27300
3556.27281	1.28054
3554.34424	1.28361
3552.41568	1.28814
3550.48711	1.30030
3548.55855	1.31580
3546.62999	1.33165
3544.70142	1.34261
3542.77286	1.34617
3540.84429	1.34908
3538.91573	1.35498
3536.98716	1.36221
3535.05860	1.36746
3533.13003	1.37214
3531.20147	1.38297
3529.27291	1.39613
3527.34434	1.40338
3525.41578	1.41428
3523.48721	1.42921
3521.55865	1.43336
3519.63008	1.42959
3517.70152	1.43176
3515.77295	1.44325
3513.84439	1.45480
3511.91583	1.46311
3509.98726	1.47268
3508.05870	1.47453
3506.13013	1.46994
3504.20157	1.48085
3502.27300	1.50789
3500.34444	1.53020
3498.41587	1.54457
3496.48731	1.55220
3494.55875	1.55684
3492.63018	1.57121
3490.70162	1.59689
3488.77305	1.61419
3486.84449	1.60692
3484.91592	1.59168
3482.98736	1.59068
3481.05879	1.60311
3479.13023	1.61309
3477.20167	1.61441
3475.27310	1.61111
3473.34454	1.61127
3471.41597	1.61985
3469.48741	1.63211
3467.55884	1.64322
3465.63028	1.65414
3463.70171	1.66399
3461.77315	1.66577
3459.84459	1.65829
3457.91602	1.65550
3455.98746	1.66763
3454.05889	1.68485
3452.13033	1.69867
3450.20176	1.71172
3448.27320	1.71902
3446.34464	1.72146
3444.41607	1.72946
3442.48751	1.74263
3440.55894	1.75384
3438.63038	1.75681
3436.70181	1.74857
3434.77325	1.72869
3432.84468	1.71032
3430.91612	1.70973
3428.98756	1.71541
3427.05899	1.70622
3425.13043	1.69338
3423.20186	1.69191
3421.27330	1.69379
3419.34473	1.69954
3417.41617	1.71357
3415.48760	1.72214
3413.55904	1.72022
3411.63048	1.72009
3409.70191	1.72898
3407.77335	1.73821
3405.84478	1.73592
3403.91622	1.73072
3401.98765	1.73987
3400.05909	1.75508
3398.13052	1.75053
3396.20196	1.72825
3394.27340	1.71671
3392.34483	1.73135
3390.41627	1.75144
3388.48770	1.74516
3386.55914	1.72598
3384.63057	1.72521
3382.70201	1.74074
3380.77344	1.74712
3378.84488	1.73518
3376.91632	1.72274
3374.98775	1.72317
3373.05919	1.73168
3371.13062	1.73957
3369.20206	1.74434
3367.27349	1.74968
3365.34493	1.75353
3363.41636	1.75088
3361.48780	1.74171
3359.55924	1.72623
3357.63067	1.71835
3355.70211	1.72458
3353.77354	1.72844
3351.84498	1.73646
3349.91641	1.75531
3347.98785	1.75270
3346.05928	1.72403
3344.13072	1.70582
3342.20216	1.71540
3340.27359	1.73761
3338.34503	1.75052
3336.41646	1.76041
3334.48790	1.77542
3332.55933	1.78266
3330.63077	1.78262
3328.70220	1.78232
3326.77364	1.78024
3324.84508	1.77899
3322.91651	1.77868
3320.98795	1.77944
3319.05938	1.78684
3317.13082	1.79868
3315.20225	1.80057
3313.27369	1.78881
3311.34513	1.78360
3309.41656	1.79508
3307.48800	1.81479
3305.55943	1.83593
3303.63087	1.84629
3301.70230	1.83770
3299.77374	1.82869
3297.84517	1.83693
3295.91661	1.84545
3293.98805	1.83468
3292.05948	1.82431
3290.13092	1.82719
3288.20235	1.82902
3286.27379	1.82642
3284.34522	1.83049
3282.41666	1.84592
3280.48809	1.86472
3278.55953	1.88029
3276.63097	1.88301
3274.70240	1.85681
3272.77384	1.82673
3270.84527	1.82742
3268.91671	1.84248
3266.98814	1.84643
3265.05958	1.84188
3263.13101	1.82422
3261.20245	1.80245
3259.27389	1.79944
3257.34532	1.80150
3255.41676	1.78771
3253.48819	1.76977
3251.55963	1.75714
3249.63106	1.74242
3247.70250	1.72838
3245.77393	1.72463
3243.84537	1.72398
3241.91681	1.71588
3239.98824	1.70199
3238.05968	1.68829
3236.13111	1.67804
3234.20255	1.66910
3232.27398	1.66294
3230.34542	1.66057
3228.41685	1.65698
3226.48829	1.65246
3224.55973	1.64858
3222.63116	1.64249
3220.70260	1.63397
3218.77403	1.62537
3216.84547	1.61693
3214.91690	1.60909
3212.98834	1.60387
3211.05977	1.59768
3209.13121	1.58349
3207.20265	1.56396
3205.27408	1.54871
3203.34552	1.54294
3201.41695	1.54569
3199.48839	1.55133
3197.55982	1.55328
3195.63126	1.54878
3193.70269	1.53838
3191.77413	1.52373
3189.84557	1.50909
3187.91700	1.50099
3185.98844	1.49960
3184.05987	1.49664
3182.13131	1.48761
3180.20274	1.47919
3178.27418	1.47975
3176.34562	1.48533
3174.41705	1.48336
3172.48849	1.46990
3170.55992	1.45274
3168.63136	1.43985
3166.70279	1.43199
3164.77423	1.42783
3162.84566	1.42521
3160.91710	1.41828
3158.98854	1.40780
3157.05997	1.40024
3155.13141	1.39338
3153.20284	1.38646
3151.27428	1.38463
3149.34571	1.38303
3147.41715	1.37724
3145.48858	1.37389
3143.56002	1.37682
3141.63146	1.38065
3139.70289	1.37911
3137.77433	1.37645
3135.84576	1.37833
3133.91720	1.38153
3131.98863	1.38203
3130.06007	1.37999
3128.13150	1.37728
3126.20294	1.37399
3124.27438	1.37150
3122.34581	1.37360
3120.41725	1.37584
3118.48868	1.36970
3116.56012	1.35979
3114.63155	1.35620
3112.70299	1.35729
3110.77442	1.35580
3108.84586	1.35164
3106.91730	1.35059
3104.98873	1.35237
3103.06017	1.35057
3101.13160	1.34655
3099.20304	1.34693
3097.27447	1.35073
3095.34591	1.35167
3093.41734	1.34955
3091.48878	1.34899
3089.56022	1.34930
3087.63165	1.34700
3085.70309	1.34253
3083.77452	1.33986
3081.84596	1.33832
3079.91739	1.33176
3077.98883	1.32385
3076.06026	1.32225
3074.13170	1.32289
3072.20314	1.31944
3070.27457	1.31173
3068.34601	1.30262
3066.41744	1.29647
3064.48888	1.29319
3062.56031	1.28819
3060.63175	1.28100
3058.70318	1.27508
3056.77462	1.27254
3054.84606	1.27162
3052.91749	1.26922
3050.98893	1.26497
3049.06036	1.26167
3047.13180	1.25925
3045.20323	1.25289
3043.27467	1.24471
3041.34610	1.24115
3039.41754	1.23910
3037.48898	1.23309
3035.56041	1.22645
3033.63185	1.22328
3031.70328	1.22055
3029.77472	1.21567
3027.84615	1.21088
3025.91759	1.20697
3023.98903	1.20183
3022.06046	1.19449
3020.13190	1.18742
3018.20333	1.18345
3016.27477	1.18217
3014.34620	1.18093
3012.41764	1.17793
3010.48907	1.17379
3008.56051	1.16982
3006.63195	1.16694
3004.70338	1.16560
3002.77482	1.16557
3000.84625	1.16675
2998.91769	1.16892
2996.98912	1.17087
2995.06056	1.17222
2993.13199	1.17506
2991.20343	1.17941
2989.27487	1.18220
2987.34630	1.18483
2985.41774	1.18991
2983.48917	1.19511
2981.56061	1.19862
2979.63204	1.20146
2977.70348	1.20581
2975.77491	1.21406
2973.84635	1.22409
2971.91779	1.22926
2969.98922	1.22992
2968.06066	1.23364
2966.13209	1.24014
2964.20353	1.24495
2962.27496	1.24941
2960.34640	1.25168
2958.41783	1.24878
2956.48927	1.24323
2954.56071	1.23645
2952.63214	1.22918
2950.70358	1.22411
2948.77501	1.22313
2946.84645	1.22517
2944.91788	1.22808
2942.98932	1.23170
2941.06075	1.23778
2939.13219	1.24780
2937.20363	1.25927
2935.27506	1.26954
2933.34650	1.27967
2931.41793	1.29123
2929.48937	1.30449
2927.56080	1.31359
2925.63224	1.31477
2923.70367	1.31672
2921.77511	1.32283
2919.84655	1.32455
2917.91798	1.31782
2915.98942	1.30383
2914.06085	1.28248
2912.13229	1.25783
2910.20372	1.23670
2908.27516	1.22073
2906.34659	1.20785
2904.41803	1.19740
2902.48947	1.18991
2900.56090	1.18467
2898.63234	1.18150
2896.70377	1.18039
2894.77521	1.17901
2892.84664	1.17459
2890.91808	1.16705
2888.98952	1.15983
2887.06095	1.15550
2885.13239	1.15315
2883.20382	1.15118
2881.27526	1.14838
2879.34669	1.14588
2877.41813	1.14578
2875.48956	1.14641
2873.56100	1.14376
2871.63244	1.13668
2869.70387	1.12756
2867.77531	1.11921
2865.84674	1.11347
2863.91818	1.10962
2861.98961	1.10661
2860.06105	1.10775
2858.13248	1.11477
2856.20392	1.12499
2854.27536	1.13673
2852.34679	1.14778
2850.41823	1.15236
2848.48966	1.14383
2846.56110	1.12169
2844.63253	1.09498
2842.70397	1.07295
2840.77540	1.05635
2838.84684	1.04280
2836.91828	1.03407
2834.98971	1.03066
2833.06115	1.02855
2831.13258	1.02505
2829.20402	1.02036
2827.27545	1.01588
2825.34689	1.01252
2823.41832	1.00893
2821.48976	1.00394
2819.56120	0.99931
2817.63263	0.99572
2815.70407	0.99107
2813.77550	0.98627
2811.84694	0.98394
2809.91837	0.98264
2807.98981	0.98016
2806.06124	0.97649
2804.13268	0.97267
2802.20412	0.96975
2800.27555	0.96669
2798.34699	0.96272
2796.41842	0.96004
2794.48986	0.95954
2792.56129	0.95863
2790.63273	0.95588
2788.70416	0.95323
2786.77560	0.95208
2784.84704	0.95097
2782.91847	0.94869
2780.98991	0.94585
2779.06134	0.94313
2777.13278	0.94125
2775.20421	0.94031
2773.27565	0.93876
2771.34708	0.93646
2769.41852	0.93562
2767.48996	0.93609
2765.56139	0.93506
2763.63283	0.93258
2761.70426	0.93122
2759.77570	0.93085
2757.84713	0.92967
2755.91857	0.92788
2753.99001	0.92657
2752.06144	0.92514
2750.13288	0.92252
2748.20431	0.91934
2746.27575	0.91675
2744.34718	0.91444
2742.41862	0.91066
2740.49005	0.90541
2738.56149	0.90157
2736.63293	0.89983
2734.70436	0.89828
2732.77580	0.89637
2730.84723	0.89386
2728.91867	0.89026
2726.99010	0.88653
2725.06154	0.88450
2723.13297	0.88412
2721.20441	0.88317
2719.27585	0.88147
2717.34728	0.88027
2715.41872	0.87905
2713.49015	0.87769
2711.56159	0.87716
2709.63302	0.87732
2707.70446	0.87760
2705.77589	0.87827
2703.84733	0.87878
2701.91877	0.87784
2699.99020	0.87622
2698.06164	0.87537
2696.13307	0.87507
2694.20451	0.87500
2692.27594	0.87519
2690.34738	0.87505
2688.41881	0.87444
2686.49025	0.87322
2684.56169	0.87037
2682.63312	0.86687
2680.70456	0.86491
2678.77599	0.86455
2676.84743	0.86452
2674.91886	0.86380
2672.99030	0.86260
2671.06173	0.86176
2669.13317	0.86104
2667.20461	0.86006
2665.27604	0.85903
2663.34748	0.85765
2661.41891	0.85570
2659.49035	0.85355
2657.56178	0.85169
2655.63322	0.85076
2653.70465	0.85018
2651.77609	0.84884
2649.84753	0.84735
2647.91896	0.84597
2645.99040	0.84352
2644.06183	0.84016
2642.13327	0.83730
2640.20470	0.83530
2638.27614	0.83336
2636.34757	0.83081
2634.41901	0.82822
2632.49045	0.82623
2630.56188	0.82403
2628.63332	0.82179
2626.70475	0.82081
2624.77619	0.82029
2622.84762	0.81924
2620.91906	0.81861
2618.99049	0.81915
2617.06193	0.82043
2615.13337	0.82149
2613.20480	0.82208
2611.27624	0.82284
2609.34767	0.82361
2607.41911	0.82384
2605.49054	0.82382
2603.56198	0.82379
2601.63342	0.82343
2599.70485	0.82251
2597.77629	0.82117
2595.84772	0.81904
2593.91916	0.81606
2591.99059	0.81322
2590.06203	0.81047
2588.13346	0.80732
2586.20490	0.80430
2584.27634	0.80158
2582.34777	0.79886
2580.41921	0.79607
2578.49064	0.79392
2576.56208	0.79261
2574.63351	0.79109
2572.70495	0.78951
2570.77638	0.78862
2568.84782	0.78777
2566.91926	0.78663
2564.99069	0.78604
2563.06213	0.78675
2561.13356	0.78835
2559.20500	0.78926
2557.27643	0.78869
2555.34787	0.78768
2553.41930	0.78744
2551.49074	0.78766
2549.56218	0.78760
2547.63361	0.78733
2545.70505	0.78672
2543.77648	0.78515
2541.84792	0.78297
2539.91935	0.78132
2537.99079	0.78004
2536.06222	0.77853
2534.13366	0.77770
2532.20510	0.77755
2530.27653	0.77648
2528.34797	0.77459
2526.41940	0.77295
2524.49084	0.77178
2522.56227	0.77079
2520.63371	0.76993
2518.70514	0.76942
2516.77658	0.76882
2514.84802	0.76818
2512.91945	0.76806
2510.99089	0.76801
2509.06232	0.76763
2507.13376	0.76674
2505.20519	0.76515
2503.27663	0.76342
2501.34806	0.76196
2499.41950	0.76020
2497.49094	0.75804
2495.56237	0.75594
2493.63381	0.75380
2491.70524	0.75164
2489.77668	0.74972
2487.84811	0.74770
2485.91955	0.74553
2483.99098	0.74360
2482.06242	0.74149
2480.13386	0.73913
2478.20529	0.73785
2476.27673	0.73790
2474.34816	0.73776
2472.41960	0.73692
2470.49103	0.73632
2468.56247	0.73661
2466.63391	0.73725
2464.70534	0.73755
2462.77678	0.73785
2460.84821	0.73843
2458.91965	0.73865
2456.99108	0.73825
2455.06252	0.73776
2453.13395	0.73736
2451.20539	0.73688
2449.27683	0.73591
2447.34826	0.73435
2445.41970	0.73264
2443.49113	0.73092
2441.56257	0.72915
2439.63400	0.72758
2437.70544	0.72658
2435.77687	0.72581
2433.84831	0.72444
2431.91975	0.72254
2429.99118	0.72076
2428.06262	0.71941
2426.13405	0.71852
2424.20549	0.71784
2422.27692	0.71736
2420.34836	0.71695
2418.41979	0.71633
2416.49123	0.71573
2414.56267	0.71525
2412.63410	0.71457
2410.70554	0.71358
2408.77697	0.71259
2406.84841	0.71224
2404.91984	0.71252
2402.99128	0.71257
2401.06271	0.71187
2399.13415	0.71101
2397.20559	0.71050
2395.27702	0.70958
2393.34846	0.70789
2391.41989	0.70630
2389.49133	0.70522
2387.56276	0.70432
2385.63420	0.70321
2383.70563	0.70161
2381.77707	0.69931
2379.84851	0.69625
2377.91994	0.69311
2375.99138	0.69124
2374.06281	0.68968
2372.13425	0.68565
2370.20568	0.68083
2368.27712	0.67999
2366.34855	0.68183
2364.41999	0.68252
2362.49143	0.68307
2360.56286	0.68668
2358.63430	0.69504
2356.70573	0.70008
2354.77717	0.69846
2352.84860	0.69563
2350.92004	0.69139
2348.99147	0.68622
2347.06291	0.68155
2345.13435	0.67798
2343.20578	0.67852
2341.27722	0.68402
2339.34865	0.68753
2337.42009	0.68715
2335.49152	0.68755
2333.56296	0.68837
2331.63440	0.68731
2329.70583	0.68660
2327.77727	0.68624
2325.84870	0.68474
2323.92014	0.68403
2321.99157	0.68430
2320.06301	0.68385
2318.13444	0.68313
2316.20588	0.68310
2314.27732	0.68381
2312.34875	0.68470
2310.42019	0.68537
2308.49162	0.68606
2306.56306	0.68665
2304.63449	0.68674
2302.70593	0.68704
2300.77736	0.68810
2298.84880	0.68887
2296.92024	0.68865
2294.99167	0.68842
2293.06311	0.68863
2291.13454	0.68872
2289.20598	0.68845
2287.27741	0.68786
2285.34885	0.68687
2283.42028	0.68551
2281.49172	0.68389
2279.56316	0.68216
2277.63459	0.68050
2275.70603	0.67909
2273.77746	0.67791
2271.84890	0.67673
2269.92033	0.67562
2267.99177	0.67496
2266.06320	0.67485
2264.13464	0.67479
2262.20608	0.67448
2260.27751	0.67438
2258.34895	0.67461
2256.42038	0.67507
2254.49182	0.67576
2252.56325	0.67625
2250.63469	0.67651
2248.70612	0.67671
2246.77756	0.67661
2244.84900	0.67633
2242.92043	0.67620
2240.99187	0.67609
2239.06330	0.67599
2237.13474	0.67605
2235.20617	0.67590
2233.27761	0.67489
2231.34904	0.67326
2229.42048	0.67188
2227.49192	0.67101
2225.56335	0.67046
2223.63479	0.66963
2221.70622	0.66828
2219.77766	0.66748
2217.84909	0.66763
2215.92053	0.66789
2213.99196	0.66803
2212.06340	0.66818
2210.13484	0.66835
2208.20627	0.66898
2206.27771	0.67016
2204.34914	0.67137
2202.42058	0.67241
2200.49201	0.67356
2198.56345	0.67449
2196.63488	0.67468
2194.70632	0.67461
2192.77776	0.67505
2190.84919	0.67579
2188.92063	0.67601
2186.99206	0.67526
2185.06350	0.67368
2183.13493	0.67174
2181.20637	0.66998
2179.27781	0.66845
2177.34924	0.66688
2175.42068	0.66535
2173.49211	0.66387
2171.56355	0.66249
2169.63498	0.66150
2167.70642	0.66097
2165.77785	0.66066
2163.84929	0.66049
2161.92073	0.66094
2159.99216	0.66238
2158.06360	0.66427
2156.13503	0.66582
2154.20647	0.66698
2152.27790	0.66803
2150.34934	0.66878
2148.42077	0.66926
2146.49221	0.67005
2144.56365	0.67116
2142.63508	0.67192
2140.70652	0.67180
2138.77795	0.67069
2136.84939	0.66928
2134.92082	0.66829
2132.99226	0.66723
2131.06369	0.66532
2129.13513	0.66303
2127.20657	0.66136
2125.27800	0.66042
2123.34944	0.65948
2121.42087	0.65801
2119.49231	0.65630
2117.56374	0.65512
2115.63518	0.65513
2113.70661	0.65612
2111.77805	0.65724
2109.84949	0.65796
2107.92092	0.65837
2105.99236	0.65904
2104.06379	0.66021
2102.13523	0.66163
2100.20666	0.66301
2098.27810	0.66381
2096.34953	0.66382
2094.42097	0.66361
2092.49241	0.66346
2090.56384	0.66299
2088.63528	0.66183
2086.70671	0.66010
2084.77815	0.65815
2082.84958	0.65585
2080.92102	0.65298
2078.99245	0.65008
2077.06389	0.64806
2075.13533	0.64672
2073.20676	0.64534
2071.27820	0.64423
2069.34963	0.64366
2067.42107	0.64321
2065.49250	0.64286
2063.56394	0.64279
2061.63537	0.64333
2059.70681	0.64482
2057.77825	0.64677
2055.84968	0.64874
2053.92112	0.65088
2051.99255	0.65307
2050.06399	0.65504
2048.13542	0.65662
2046.20686	0.65779
2044.27830	0.65869
2042.34973	0.65944
2040.42117	0.65992
2038.49260	0.65969
2036.56404	0.65886
2034.63547	0.65780
2032.70691	0.65639
2030.77834	0.65456
2028.84978	0.65250
2026.92122	0.65022
2024.99265	0.64780
2023.06409	0.64558
2021.13552	0.64357
2019.20696	0.64159
2017.27839	0.64009
2015.34983	0.63937
2013.42126	0.63886
2011.49270	0.63825
2009.56414	0.63788
2007.63557	0.63798
2005.70701	0.63852
2003.77844	0.63937
2001.84988	0.64025
1999.92131	0.64096
1997.99275	0.64139
1996.06418	0.64148
1994.13562	0.64148
1992.20706	0.64192
1990.27849	0.64238
1988.34993	0.64221
1986.42136	0.64139
1984.49280	0.64002
1982.56423	0.63849
1980.63567	0.63698
1978.70710	0.63532
1976.77854	0.63356
1974.84998	0.63204
1972.92141	0.63100
1970.99285	0.63005
1969.06428	0.62910
1967.13572	0.62866
1965.20715	0.62893
1963.27859	0.62961
1961.35002	0.63026
1959.42146	0.63066
1957.49290	0.63123
1955.56433	0.63233
1953.63577	0.63361
1951.70720	0.63475
1949.77864	0.63576
1947.85007	0.63635
1945.92151	0.63633
1943.99294	0.63634
1942.06438	0.63664
1940.13582	0.63616
1938.20725	0.63502
1936.27869	0.63396
1934.35012	0.63274
1932.42156	0.63103
1930.49299	0.62905
1928.56443	0.62689
1926.63586	0.62441
1924.70730	0.62204
1922.77874	0.62061
1920.85017	0.61978
1918.92161	0.61893
1916.99304	0.61815
1915.06448	0.61733
1913.13591	0.61675
1911.20735	0.61693
1909.27878	0.61791
1907.35022	0.61915
1905.42166	0.62031
1903.49309	0.62164
1901.56453	0.62321
1899.63596	0.62474
1897.70740	0.62628
1895.77883	0.62818
1893.85027	0.62987
1891.92171	0.63077
1889.99314	0.63191
1888.06458	0.63332
1886.13601	0.63399
1884.20745	0.63433
1882.27888	0.63447
1880.35032	0.63396
1878.42175	0.63295
1876.49319	0.63155
1874.56463	0.62944
1872.63606	0.62674
1870.70750	0.62422
1868.77893	0.62308
1866.85037	0.62242
1864.92180	0.62044
1862.99324	0.61793
1861.06467	0.61580
1859.13611	0.61431
1857.20755	0.61329
1855.27898	0.61234
1853.35042	0.61133
1851.42185	0.61057
1849.49329	0.61008
1847.56472	0.60941
1845.63616	0.60959
1843.70759	0.61182
1841.77903	0.61331
1839.85047	0.61328
1837.92190	0.61345
1835.99334	0.61414
1834.06477	0.61430
1832.13621	0.61390
1830.20764	0.61427
1828.27908	0.61515
1826.35051	0.61526
1824.42195	0.61538
1822.49339	0.61547
1820.56482	0.61478
1818.63626	0.61357
1816.70769	0.61242
1814.77913	0.61136
1812.85056	0.61042
1810.92200	0.61042
1808.99343	0.61104
1807.06487	0.61091
1805.13631	0.61008
1803.20774	0.60947
1801.27918	0.61013
1799.35061	0.61148
1797.42205	0.61212
1795.49348	0.61232
1793.56492	0.61352
1791.63635	0.61621
1789.70779	0.61733
1787.77923	0.61702
1785.85066	0.61734
1783.92210	0.61822
1781.99353	0.61858
1780.06497	0.61843
1778.13640	0.61757
1776.20784	0.61560
1774.27927	0.61354
1772.35071	0.61331
1770.42215	0.61418
1768.49358	0.61419
1766.56502	0.61333
1764.63645	0.61169
1762.70789	0.61096
1760.77932	0.61246
1758.85076	0.61440
1756.92220	0.61725
1754.99363	0.62021
1753.06507	0.62208
1751.13650	0.62610
1749.20794	0.63430
1747.27937	0.64207
1745.35081	0.64790
1743.42224	0.65316
1741.49368	0.65808
1739.56512	0.66279
1737.63655	0.66551
1735.70799	0.66653
1733.77942	0.67052
1731.85086	0.67468
1729.92229	0.67577
1727.99373	0.67611
1726.06516	0.67649
1724.13660	0.67819
1722.20804	0.68040
1720.27947	0.68184
1718.35091	0.68560
1716.42234	0.69634
1714.49378	0.70565
1712.56521	0.71198
1710.63665	0.71936
1708.70808	0.72896
1706.77952	0.74565
1704.85096	0.77021
1702.92239	0.79253
1700.99383	0.82541
1699.06526	0.88101
1697.13670	0.93580
1695.20813	0.99176
1693.27957	1.03168
1691.35100	1.06134
1689.42244	1.09876
1687.49388	1.13635
1685.56531	1.17758
1683.63675	1.24499
1681.70818	1.29122
1679.77962	1.31564
1677.85105	1.33829
1675.92249	1.36427
1673.99392	1.39303
1672.06536	1.41784
1670.13680	1.44927
1668.20823	1.48522
1666.27967	1.50396
1664.35110	1.51694
1662.42254	1.53451
1660.49397	1.55132
1658.56541	1.56306
1656.63684	1.56996
1654.70828	1.57336
1652.77972	1.57709
1650.85115	1.58158
1648.92259	1.58393
1646.99402	1.58228
1645.06546	1.57807
1643.13689	1.57433
1641.20833	1.56935
1639.27976	1.56147
1637.35120	1.55415
1635.42264	1.55291
1633.49407	1.55164
1631.56551	1.54666
1629.63694	1.53781
1627.70838	1.52517
1625.77981	1.51176
1623.85125	1.49782
1621.92269	1.47966
1619.99412	1.45945
1618.06556	1.43444
1616.13699	1.40236
1614.20843	1.37696
1612.27986	1.35525
1610.35130	1.33116
1608.42273	1.30576
1606.49417	1.28348
1604.56561	1.26495
1602.63704	1.24887
1600.70848	1.23715
1598.77991	1.22930
1596.85135	1.22288
1594.92278	1.21781
1592.99422	1.21481
1591.06565	1.21427
1589.13709	1.21723
1587.20853	1.22415
1585.27996	1.23376
1583.35140	1.24457
1581.42283	1.25524
1579.49427	1.26570
1577.56570	1.28088
1575.63714	1.30407
1573.70857	1.31938
1571.78001	1.33001
1569.85145	1.34710
1567.92288	1.36280
1565.99432	1.37130
1564.06575	1.37973
1562.13719	1.38545
1560.20862	1.38924
1558.28006	1.41115
1556.35149	1.43306
1554.42293	1.44160
1552.49437	1.44331
1550.56580	1.43952
1548.63724	1.43254
1546.70867	1.42652
1544.78011	1.42199
1542.85154	1.41717
1540.92298	1.40841
1538.99441	1.39696
1537.06585	1.39183
1535.13729	1.38866
1533.20872	1.38425
1531.28016	1.37714
1529.35159	1.36896
1527.42303	1.35992
1525.49446	1.35087
1523.56590	1.34442
1521.63733	1.34573
1519.70877	1.35234
1517.78021	1.34948
1515.85164	1.33837
1513.92308	1.32653
1511.99451	1.31378
1510.06595	1.30025
1508.13738	1.27895
1506.20882	1.23682
1504.28025	1.21043
1502.35169	1.19252
1500.42313	1.17319
1498.49456	1.14962
1496.56600	1.12231
1494.63743	1.10052
1492.70887	1.08435
1490.78030	1.06677
1488.85174	1.04733
1486.92317	1.03514
1484.99461	1.02866
1483.06605	1.02476
1481.13748	1.02313
1479.20892	1.02432
1477.28035	1.02897
1475.35179	1.03869
1473.42322	1.05916
1471.49466	1.08384
1469.56610	1.09598
1467.63753	1.10279
1465.70897	1.11281
1463.78040	1.12503
1461.85184	1.13144
1459.92327	1.13342
1457.99471	1.13853
1456.06614	1.14797
1454.13758	1.14896
1452.20902	1.14625
1450.28045	1.14380
1448.35189	1.14036
1446.42332	1.13373
1444.49476	1.12609
1442.56619	1.11845
1440.63763	1.11055
1438.70906	1.10175
1436.78050	1.08982
1434.85194	1.07812
1432.92337	1.06992
1430.99481	1.06265
1429.06624	1.05605
1427.13768	1.05161
1425.20911	1.04961
1423.28055	1.04936
1421.35198	1.05014
1419.42342	1.05469
1417.49486	1.06180
1415.56629	1.06452
1413.63773	1.06483
1411.70916	1.06510
1409.78060	1.06594
1407.85203	1.06710
1405.92347	1.06800
1403.99490	1.06857
1402.06634	1.06888
1400.13778	1.06889
1398.20921	1.06922
1396.28065	1.07101
1394.35208	1.07291
1392.42352	1.07368
1390.49495	1.07532
1388.56639	1.08135
1386.63782	1.09390
1384.70926	1.10821
1382.78070	1.12101
1380.85213	1.13166
1378.92357	1.13754
1376.99500	1.13768
1375.06644	1.13316
1373.13787	1.12497
1371.20931	1.11397
1369.28074	1.09907
1367.35218	1.08165
1365.42362	1.06558
1363.49505	1.05020
1361.56649	1.03609
1359.63792	1.02580
1357.70936	1.01754
1355.78079	1.00965
1353.85223	1.00166
1351.92366	0.99374
1349.99510	0.98641
1348.06654	0.97986
1346.13797	0.97420
1344.20941	0.96988
1342.28084	0.96676
1340.35228	0.96537
1338.42371	0.96645
1336.49515	0.96912
1334.56659	0.97390
1332.63802	0.98169
1330.70946	0.99133
1328.78089	1.00040
1326.85233	1.00730
1324.92376	1.01229
1322.99520	1.01691
1321.06663	1.02297
1319.13807	1.03026
1317.20951	1.03581
1315.28094	1.03873
1313.35238	1.04133
1311.42381	1.04410
1309.49525	1.04482
1307.56668	1.04280
1305.63812	1.03995
1303.70955	1.03726
1301.78099	1.03362
1299.85243	1.02837
1297.92386	1.02171
1295.99530	1.01448
1294.06673	1.00842
1292.13817	1.00410
1290.20960	1.00081
1288.28104	0.99871
1286.35247	0.99827
1284.42391	0.99884
1282.49535	0.99972
1280.56678	1.00115
1278.63822	1.00390
1276.70965	1.00809
1274.78109	1.01336
1272.85252	1.02010
1270.92396	1.02918
1268.99539	1.04015
1267.06683	1.05114
1265.13827	1.06041
1263.20970	1.06670
1261.28114	1.06953
1259.35257	1.07008
1257.42401	1.07003
1255.49544	1.07032
1253.56688	1.07106
1251.63831	1.07086
1249.70975	1.06916
1247.78119	1.06737
1245.85262	1.06564
1243.92406	1.06323
1241.99549	1.06034
1240.06693	1.05682
1238.13836	1.05257
1236.20980	1.04828
1234.28123	1.04406
1232.35267	1.03893
1230.42411	1.03232
1228.49554	1.02502
1226.56698	1.01774
1224.63841	1.01051
1222.70985	1.00348
1220.78128	0.99763
1218.85272	0.99349
1216.92415	0.99007
1214.99559	0.98688
1213.06703	0.98484
1211.13846	0.98524
1209.20990	0.98796
1207.28133	0.99014
1205.35277	0.98835
1203.42420	0.98086
1201.49564	0.96843
1199.56708	0.95381
1197.63851	0.93955
1195.70995	0.92595
1193.78138	0.91248
1191.85282	0.90042
1189.92425	0.89129
1187.99569	0.88465
1186.06712	0.87979
1184.13856	0.87709
1182.21000	0.87698
1180.28143	0.87954
1178.35287	0.88465
1176.42430	0.89220
1174.49574	0.90168
1172.56717	0.91236
1170.63861	0.92521
1168.71004	0.94225
1166.78148	0.96372
1164.85292	0.98770
1162.92435	1.01121
1160.99579	1.03101
1159.06722	1.04406
1157.13866	1.04854
1155.21009	1.04471
1153.28153	1.03284
1151.35296	1.01387
1149.42440	0.99125
1147.49584	0.96837
1145.56727	0.94800
1143.63871	0.93254
1141.71014	0.92165
1139.78158	0.91405
1137.85301	0.90988
1135.92445	0.90902
1133.99588	0.91188
1132.06732	0.91967
1130.13876	0.93193
1128.21019	0.94693
1126.28163	0.96356
1124.35306	0.98111
1122.42450	0.99812
1120.49593	1.01285
1118.56737	1.02572
1116.63880	1.03737
1114.71024	1.04516
1112.78168	1.04713
1110.85311	1.04534
1108.92455	1.04214
1106.99598	1.03795
1105.06742	1.03226
1103.13885	1.02546
1101.21029	1.01965
1099.28172	1.01686
1097.35316	1.01748
1095.42460	1.02093
1093.49603	1.02642
1091.56747	1.03407
1089.63890	1.04486
1087.71034	1.05827
1085.78177	1.07281
1083.85321	1.08810
1081.92464	1.10460
1079.99608	1.12181
1078.06752	1.13608
1076.13895	1.14346
1074.21039	1.14432
1072.28182	1.14141
1070.35326	1.13651
1068.42469	1.13002
1066.49613	1.12156
1064.56756	1.11140
1062.63900	1.10071
1060.71044	1.09018
1058.78187	1.07946
1056.85331	1.06879
1054.92474	1.05988
1052.99618	1.05336
1051.06761	1.04751
1049.13905	1.04086
1047.21049	1.03511
1045.28192	1.03346
1043.35336	1.03626
1041.42479	1.04097
1039.49623	1.04611
1037.56766	1.05156
1035.63910	1.05552
1033.71053	1.05671
1031.78197	1.05632
1029.85341	1.05468
1027.92484	1.05096
1025.99628	1.04453
1024.06771	1.03657
1022.13915	1.02964
1020.21058	1.02395
1018.28202	1.01908
1016.35345	1.01586
1014.42489	1.01198
1012.49633	1.00295
1010.56776	0.98806
1008.63920	0.96971
1006.71063	0.94988
1004.78207	0.93059
1002.85350	0.91305
1000.92494	0.89624
998.99637	0.87964
997.06781	0.86422
995.13925	0.84999
993.21068	0.83590
991.28212	0.82145
989.35355	0.80725
987.42499	0.79454
985.49642	0.78455
983.56786	0.77755
981.63929	0.77291
979.71073	0.77036
977.78217	0.76929
975.85360	0.76792
973.92504	0.76494
971.99647	0.76010
970.06791	0.75385
968.13934	0.74735
966.21078	0.74154
964.28221	0.73758
962.35365	0.73782
960.42509	0.74438
958.49652	0.75658
956.56796	0.76978
954.63939	0.77778
952.71083	0.77811
950.78226	0.77267
948.85370	0.76439
946.92513	0.75599
944.99657	0.74937
943.06801	0.74465
941.13944	0.74081
939.21088	0.73721
937.28231	0.73406
935.35375	0.73158
933.42518	0.72990
931.49662	0.72928
929.56805	0.72952
927.63949	0.73010
925.71093	0.73176
923.78236	0.73533
921.85380	0.73977
919.92523	0.74406
917.99667	0.74850
916.06810	0.75329
914.13954	0.75872
912.21098	0.76490
910.28241	0.77142
908.35385	0.77885
906.42528	0.78732
904.49672	0.79490
902.56815	0.80036
900.63959	0.80405
898.71102	0.80573
896.78246	0.80474
894.85390	0.80129
892.92533	0.79601
890.99677	0.78958
889.06820	0.78247
887.13964	0.77481
885.21107	0.76745
883.28251	0.76172
881.35394	0.75742
879.42538	0.75366
877.49682	0.75100
875.56825	0.75008
873.63969	0.75026
871.71112	0.75167
869.78256	0.75471
867.85399	0.75851
865.92543	0.76322
863.99686	0.76984
862.06830	0.77857
860.13974	0.78874
858.21117	0.79857
856.28261	0.80680
854.35404	0.81399
852.42548	0.82021
850.49691	0.82453
848.56835	0.82673
846.63978	0.82675
844.71122	0.82467
842.78266	0.82138
840.85409	0.81795
838.92553	0.81532
836.99696	0.81365
835.06840	0.81231
833.13983	0.81081
831.21127	0.80983
829.28270	0.81019
827.35414	0.81135
825.42558	0.81288
823.49701	0.81485
821.56845	0.81731
819.63988	0.82084
817.71132	0.82561
815.78275	0.83087
813.85419	0.83585
811.92562	0.84100
809.99706	0.84697
808.06850	0.85341
806.13993	0.85959
804.21137	0.86502
802.28280	0.86993
800.35424	0.87435
798.42567	0.87749
796.49711	0.87885
794.56854	0.87913
792.63998	0.87939
790.71142	0.87903
788.78285	0.87784
786.85429	0.87736
784.92572	0.87710
782.99716	0.87602
781.06859	0.87565
779.14003	0.87660
777.21147	0.87846
775.28290	0.88170
773.35434	0.88567
771.42577	0.88868
769.49721	0.89030
767.56864	0.89150
765.64008	0.89280
763.71151	0.89336
761.78295	0.89361
759.85439	0.89443
757.92582	0.89430
755.99726	0.89174
754.06869	0.88883
752.14013	0.88812
750.21156	0.88875
748.28300	0.88878
746.35443	0.88774
744.42587	0.88633
742.49731	0.88578
740.56874	0.88666
738.64018	0.88827
736.71161	0.88997
734.78305	0.89262
732.85448	0.89691
730.92592	0.90152
728.99735	0.90512
727.06879	0.90755
725.14023	0.90810
723.21166	0.90640
721.28310	0.90404
719.35453	0.90178
717.42597	0.89853
715.49740	0.89497
713.56884	0.89280
711.64027	0.89225
709.71171	0.89262
707.78315	0.89342
705.85458	0.89511
703.92602	0.89821
701.99745	0.90172
700.06889	0.90507
698.14032	0.90840
696.21176	0.91201
694.28319	0.91848
692.35463	0.92900
690.42607	0.93973
688.49750	0.94794
686.56894	0.95454
684.64037	0.96031
682.71181	0.96820
680.78324	0.98028
678.85468	0.98950
676.92611	0.98955
674.99755	0.98518
673.06899	0.98252
671.14042	0.98243
669.21186	0.98027
667.28329	0.96932
665.35473	0.96064
663.42616	0.95684
661.49760	0.95408
659.56903	0.95081
657.64047	0.94782
655.71191	0.94687
653.78334	0.94913
651.85478	0.95275
649.92621	0.95568
647.99765	0.95955
646.06908	0.96604
644.14052	0.97546
642.21195	0.98480
640.28339	0.99176
638.35483	1.00034
636.42626	1.00656
634.49770	1.00494
632.56913	1.00506
630.64057	1.00560
628.71200	0.99879
626.78344	0.99402
624.85488	0.99121
622.92631	0.98316
620.99775	0.97495
619.06918	0.96354
617.14062	0.94711
615.21205	0.93529
613.28349	0.92854
611.35492	0.92589
609.42636	0.92788
607.49780	0.92988
605.56923	0.93584
603.64067	0.94915
601.71210	0.95764
599.78354	0.96089
