3997.91406	0.90051
3995.98550	0.90027
3994.05693	0.90037
3992.12837	0.89989
3990.19980	0.89829
3988.27124	0.89729
3986.34268	0.89800
3984.41411	0.89900
3982.48555	0.89902
3980.55698	0.89827
3978.62842	0.89700
3976.69985	0.89524
3974.77129	0.89390
3972.84272	0.89397
3970.91416	0.89426
3968.98560	0.89398
3967.05703	0.89364
3965.12847	0.89283
3963.19990	0.89150
3961.27134	0.89060
3959.34277	0.89058
3957.41421	0.89048
3955.48564	0.88876
3953.55708	0.88590
3951.62852	0.88412
3949.69995	0.88473
3947.77139	0.88513
3945.84282	0.88263
3943.91426	0.88057
3941.98569	0.88122
3940.05713	0.88163
3938.12856	0.88097
3936.20000	0.87967
3934.27144	0.87725
3932.34287	0.87484
3930.41431	0.87416
3928.48574	0.87395
3926.55718	0.87427
3924.62861	0.87621
3922.70005	0.87603
3920.77148	0.87208
3918.84292	0.86909
3916.91436	0.87016
3914.98579	0.87218
3913.05723	0.87349
3911.12866	0.87493
3909.20010	0.87518
3907.27153	0.87320
3905.34297	0.87084
3903.41440	0.87069
3901.48584	0.87221
3899.55728	0.87341
3897.62871	0.87245
3895.70015	0.86946
3893.77158	0.86691
3891.84302	0.86655
3889.91445	0.86476
3887.98589	0.86140
3886.05733	0.86099
3884.12876	0.86152
3882.20020	0.86023
3880.27163	0.86125
3878.34307	0.86077
3876.41450	0.85753
3874.48594	0.85531
3872.55737	0.85393
3870.62881	0.85504
3868.70025	0.85716
3866.77168	0.85432
3864.84312	0.85263
3862.91455	0.85626
3860.98599	0.85724
3859.05742	0.85364
3857.12886	0.84704
3855.20029	0.84145
3853.27173	0.84982
3851.34317	0.85748
3849.41460	0.85525
3847.48604	0.85171
3845.55747	0.84990
3843.62891	0.85015
3841.70034	0.84859
3839.77178	0.84512
3837.84321	0.84626
3835.91465	0.84867
3833.98609	0.84935
3832.05752	0.84904
3830.12896	0.84688
3828.20039	0.84513
3826.27183	0.84490
3824.34326	0.84355
3822.41470	0.84500
3820.48613	0.85165
3818.55757	0.85049
3816.62901	0.84772
3814.70044	0.84763
3812.77188	0.84504
3810.84331	0.84115
3808.91475	0.83900
3806.98618	0.84055
3805.05762	0.84058
3803.12905	0.83826
3801.20049	0.83928
3799.27193	0.83819
3797.34336	0.83587
3795.41480	0.83653
3793.48623	0.83700
3791.55767	0.83625
3789.62910	0.83433
3787.70054	0.83186
3785.77197	0.83140
3783.84341	0.83149
3781.91485	0.83020
3779.98628	0.83093
3778.05772	0.83189
3776.12915	0.82868
3774.20059	0.82405
3772.27202	0.82084
3770.34346	0.82180
3768.41489	0.82582
3766.48633	0.82743
3764.55777	0.82614
3762.62920	0.82362
3760.70064	0.82330
3758.77207	0.82612
3756.84351	0.82480
3754.91494	0.81847
3752.98638	0.81233
3751.05781	0.81614
3749.12925	0.82380
3747.20069	0.82252
3745.27212	0.82377
3743.34356	0.82826
3741.41499	0.82586
3739.48643	0.81919
3737.55786	0.81406
3735.62930	0.81725
3733.70074	0.82535
3731.77217	0.82758
3729.84361	0.82464
3727.91504	0.81970
3725.98648	0.81655
3724.05791	0.81698
3722.12935	0.81835
3720.20078	0.81846
3718.27222	0.81664
3716.34366	0.81321
3714.41509	0.80934
3712.48653	0.80985
3710.55796	0.81839
3708.62940	0.82115
3706.70083	0.81755
3704.77227	0.81323
3702.84370	0.81211
3700.91514	0.81384
3698.98658	0.81346
3697.05801	0.81146
3695.12945	0.80889
3693.20088	0.80665
3691.27232	0.80970
3689.34375	0.81946
3687.41519	0.82213
3685.48662	0.82041
3683.55806	0.81946
3681.62950	0.81956
3679.70093	0.82019
3677.77237	0.82078
3675.84380	0.82555
3673.91524	0.82978
3671.98667	0.82891
3670.05811	0.83341
3668.12954	0.83866
3666.20098	0.83832
3664.27242	0.83823
3662.34385	0.84052
3660.41529	0.84356
3658.48672	0.84650
3656.55816	0.85187
3654.62959	0.85548
3652.70103	0.85322
3650.77246	0.85242
3648.84390	0.86673
3646.91534	0.87805
3644.98677	0.87977
3643.05821	0.88115
3641.12964	0.88454
3639.20108	0.88802
3637.27251	0.89026
3635.34395	0.89246
3633.41538	0.89392
3631.48682	0.89295
3629.55826	0.89951
3627.62969	0.91758
3625.70113	0.92404
3623.77256	0.92266
3621.84400	0.92022
3619.91543	0.92384
3617.98687	0.93273
3616.05830	0.93681
3614.12974	0.94185
3612.20118	0.94816
3610.27261	0.94969
3608.34405	0.95229
3606.41548	0.95746
3604.48692	0.95997
3602.55835	0.96329
3600.62979	0.97019
3598.70123	0.97585
3596.77266	0.97936
3594.84410	0.98504
3592.91553	0.99020
3590.98697	0.99125
3589.05840	0.99532
3587.12984	1.00889
3585.20127	1.01624
3583.27271	1.01398
3581.34415	1.01105
3579.41558	1.01252
3577.48702	1.01863
3575.55845	1.02526
3573.62989	1.02957
3571.70132	1.03179
3569.77276	1.03347
3567.84419	1.03932
3565.91563	1.04810
3563.98707	1.05173
3562.05850	1.05448
3560.12994	1.05762
3558.20137	1.05961
3556.27281	1.06081
3554.34424	1.06232
3552.41568	1.06556
3550.48711	1.06844
3548.55855	1.07052
3546.62999	1.07726
3544.70142	1.08775
3542.77286	1.09292
3540.84429	1.09395
3538.91573	1.09651
3536.98716	1.10097
3535.05860	1.10478
3533.13003	1.10714
3531.20147	1.10887
3529.27291	1.11189
3527.34434	1.11602
3525.41578	1.11882
3523.48721	1.12096
3521.55865	1.12384
3519.63008	1.12721
3517.70152	1.13011
3515.77295	1.13187
3513.84439	1.13449
3511.91583	1.13986
3509.98726	1.14716
3508.05870	1.15292
3506.13013	1.15554
3504.20157	1.15904
3502.27300	1.16504
3500.34444	1.16922
3498.41587	1.17083
3496.48731	1.17155
3494.55875	1.17237
3492.63018	1.17342
3490.70162	1.17573
3488.77305	1.18075
3486.84449	1.18600
3484.91592	1.18872
3482.98736	1.19106
3481.05879	1.19407
3479.13023	1.19578
3477.20167	1.19711
3475.27310	1.20004
3473.34454	1.20283
3471.41597	1.20338
3469.48741	1.20372
3467.55884	1.20598
3465.63028	1.20970
3463.70171	1.21403
3461.77315	1.21690
3459.84459	1.21707
3457.91602	1.21641
3455.98746	1.21513
3454.05889	1.21322
3452.13033	1.21230
3450.20176	1.21230
3448.27320	1.21410
3446.34464	1.21808
3444.41607	1.22126
3442.48751	1.22327
3440.55894	1.22396
3438.63038	1.22283
3436.70181	1.22224
3434.77325	1.22415
3432.84468	1.22724
3430.91612	1.22853
3428.98756	1.22828
3427.05899	1.22916
3425.13043	1.23104
3423.20186	1.23252
3421.27330	1.23356
3419.34473	1.23329
3417.41617	1.23098
3415.48760	1.22901
3413.55904	1.22880
3411.63048	1.22987
3409.70191	1.23179
3407.77335	1.23238
3405.84478	1.23158
3403.91622	1.23238
3401.98765	1.23360
3400.05909	1.23230
3398.13052	1.23106
3396.20196	1.23198
3394.27340	1.23212
3392.34483	1.23133
3390.41627	1.23283
3388.48770	1.23664
3386.55914	1.23856
3384.63057	1.23601
3382.70201	1.23324
3380.77344	1.23350
3378.84488	1.23324
3376.91632	1.22947
3374.98775	1.22623
3373.05919	1.22812
3371.13062	1.23293
3369.20206	1.23610
3367.27349	1.23640
3365.34493	1.23535
3363.41636	1.23473
3361.48780	1.23606
3359.55924	1.23829
3357.63067	1.23925
3355.70211	1.24064
3353.77354	1.24187
3351.84498	1.24039
3349.91641	1.23849
3347.98785	1.23781
3346.05928	1.23741
3344.13072	1.23745
3342.20216	1.23844
3340.27359	1.23927
3338.34503	1.23857
3336.41646	1.23777
3334.48790	1.23922
3332.55933	1.24228
3330.63077	1.24349
3328.70220	1.24181
3326.77364	1.24008
3324.84508	1.23879
3322.91651	1.23756
3320.98795	1.23887
3319.05938	1.24272
3317.13082	1.24688
3315.20225	1.25097
3313.27369	1.25377
3311.34513	1.25376
3309.41656	1.25296
3307.48800	1.25413
3305.55943	1.25643
3303.63087	1.25750
3301.70230	1.25741
3299.77374	1.25698
3297.84517	1.25629
3295.91661	1.25706
3293.98805	1.26131
3292.05948	1.26626
3290.13092	1.26758
3288.20235	1.26688
3286.27379	1.26638
3284.34522	1.26505
3282.41666	1.26331
3280.48809	1.26282
3278.55953	1.26466
3276.63097	1.26665
3274.70240	1.26574
3272.77384	1.26380
3270.84527	1.26263
3268.91671	1.26203
3266.98814	1.26233
3265.05958	1.26139
3263.13101	1.25751
3261.20245	1.25348
3259.27389	1.25186
3257.34532	1.25113
3255.41676	1.24950
3253.48819	1.24730
3251.55963	1.24387
3249.63106	1.23854
3247.70250	1.23416
3245.77393	1.23252
3243.84537	1.23077
3241.91681	1.22710
3239.98824	1.22331
3238.05968	1.22004
3236.13111	1.21605
3234.20255	1.21216
3232.27398	1.20951
3230.34542	1.20727
3228.41685	1.20563
3226.48829	1.20469
3224.55973	1.20328
3222.63116	1.20019
3220.70260	1.19489
3218.77403	1.18947
3216.84547	1.18609
3214.91690	1.18408
3212.98834	1.18248
3211.05977	1.18134
3209.13121	1.18044
3207.20265	1.17837
3205.27408	1.17415
3203.34552	1.16928
3201.41695	1.16623
3199.48839	1.16483
3197.55982	1.16246
3195.63126	1.15788
3193.70269	1.15268
3191.77413	1.14959
3189.84557	1.14878
3187.91700	1.14735
3185.98844	1.14457
3184.05987	1.14174
3182.13131	1.13843
3180.20274	1.13475
3178.27418	1.13173
3176.34562	1.12886
3174.41705	1.12547
3172.48849	1.12143
3170.55992	1.11714
3168.63136	1.11326
3166.70279	1.10955
3164.77423	1.10617
3162.84566	1.10332
3160.91710	1.10059
3158.98854	1.09857
3157.05997	1.09748
3155.13141	1.09538
3153.20284	1.09102
3151.27428	1.08672
3149.34571	1.08458
3147.41715	1.08378
3145.48858	1.08300
3143.56002	1.08101
3141.63146	1.07752
3139.70289	1.07402
3137.77433	1.07135
3135.84576	1.06928
3133.91720	1.06815
3131.98863	1.06825
3130.06007	1.06898
3128.13150	1.06937
3126.20294	1.06875
3124.27438	1.06748
3122.34581	1.06597
3120.41725	1.06480
3118.48868	1.06482
3116.56012	1.06486
3114.63155	1.06358
3112.70299	1.06164
3110.77442	1.06031
3108.84586	1.06051
3106.91730	1.06076
3104.98873	1.05877
3103.06017	1.05588
3101.13160	1.05460
3099.20304	1.05397
3097.27447	1.05205
3095.34591	1.04919
3093.41734	1.04664
3091.48878	1.04529
3089.56022	1.04478
3087.63165	1.04381
3085.70309	1.04174
3083.77452	1.03882
3081.84596	1.03531
3079.91739	1.03174
3077.98883	1.02907
3076.06026	1.02694
3074.13170	1.02445
3072.20314	1.02206
3070.27457	1.02034
3068.34601	1.01863
3066.41744	1.01641
3064.48888	1.01445
3062.56031	1.01266
3060.63175	1.01018
3058.70318	1.00785
3056.77462	1.00625
3054.84606	1.00416
3052.91749	1.00088
3050.98893	0.99726
3049.06036	0.99449
3047.13180	0.99239
3045.20323	0.98950
3043.27467	0.98546
3041.34610	0.98150
3039.41754	0.97828
3037.48898	0.97498
3035.56041	0.97171
3033.63185	0.96968
3031.70328	0.96805
3029.77472	0.96465
3027.84615	0.96030
3025.91759	0.95711
3023.98903	0.95461
3022.06046	0.95190
3020.13190	0.94963
3018.20333	0.94782
3016.27477	0.94575
3014.34620	0.94306
3012.41764	0.94057
3010.48907	0.93945
3008.56051	0.93903
3006.63195	0.93844
3004.70338	0.93783
3002.77482	0.93685
3000.84625	0.93527
2998.91769	0.93400
2996.98912	0.93411
2995.06056	0.93532
2993.13199	0.93646
2991.20343	0.93733
2989.27487	0.93860
2987.34630	0.94040
2985.41774	0.94226
2983.48917	0.94399
2981.56061	0.94602
2979.63204	0.94873
2977.70348	0.95194
2975.77491	0.95561
2973.84635	0.95947
2971.91779	0.96263
2969.98922	0.96529
2968.06066	0.96844
2966.13209	0.97173
2964.20353	0.97427
2962.27496	0.97611
2960.34640	0.97708
2958.41783	0.97602
2956.48927	0.97271
2954.56071	0.96805
2952.63214	0.96281
2950.70358	0.95821
2948.77501	0.95533
2946.84645	0.95438
2944.91788	0.95557
2942.98932	0.95906
2941.06075	0.96433
2939.13219	0.97027
2937.20363	0.97638
2935.27506	0.98360
2933.34650	0.99212
2931.41793	1.00058
2929.48937	1.00856
2927.56080	1.01629
2925.63224	1.02345
2923.70367	1.03022
2921.77511	1.03689
2919.84655	1.04292
2917.91798	1.04584
2915.98942	1.04102
2914.06085	1.02664
2912.13229	1.00780
2910.20372	0.99176
2908.27516	0.98047
2906.34659	0.97135
2904.41803	0.96345
2902.48947	0.95791
2900.56090	0.95439
2898.63234	0.95083
2896.70377	0.94673
2894.77521	0.94354
2892.84664	0.94095
2890.91808	0.93747
2888.98952	0.93373
2887.06095	0.93065
2885.13239	0.92777
2883.20382	0.92556
2881.27526	0.92515
2879.34669	0.92566
2877.41813	0.92469
2875.48956	0.92201
2873.56100	0.91944
2871.63244	0.91723
2869.70387	0.91456
2867.77531	0.91147
2865.84674	0.90824
2863.91818	0.90572
2861.98961	0.90532
2860.06105	0.90743
2858.13248	0.91195
2856.20392	0.91891
2854.27536	0.92789
2852.34679	0.93797
2850.41823	0.94566
2848.48966	0.94325
2846.56110	0.92773
2844.63253	0.90645
2842.70397	0.88716
2840.77540	0.87253
2838.84684	0.86250
2836.91828	0.85510
2834.98971	0.84872
2833.06115	0.84343
2831.13258	0.83904
2829.20402	0.83528
2827.27545	0.83233
2825.34689	0.82960
2823.41832	0.82657
2821.48976	0.82404
2819.56120	0.82231
2817.63263	0.82036
2815.70407	0.81767
2813.77550	0.81499
2811.84694	0.81265
2809.91837	0.81032
2807.98981	0.80790
2806.06124	0.80543
2804.13268	0.80276
2802.20412	0.80002
2800.27555	0.79752
2798.34699	0.79534
2796.41842	0.79321
2794.48986	0.79067
2792.56129	0.78800
2790.63273	0.78613
2788.70416	0.78477
2786.77560	0.78293
2784.84704	0.78081
2782.91847	0.77876
2780.98991	0.77647
2779.06134	0.77432
2777.13278	0.77304
2775.20421	0.77186
2773.27565	0.76987
2771.34708	0.76815
2769.41852	0.76763
2767.48996	0.76706
2765.56139	0.76516
2763.63283	0.76267
2761.70426	0.76080
2759.77570	0.75935
2757.84713	0.75784
2755.91857	0.75664
2753.99001	0.75607
2752.06144	0.75573
2750.13288	0.75513
2748.20431	0.75405
2746.27575	0.75238
2744.34718	0.75026
2742.41862	0.74840
2740.49005	0.74739
2738.56149	0.74683
2736.63293	0.74594
2734.70436	0.74449
2732.77580	0.74291
2730.84723	0.74157
2728.91867	0.74015
2726.99010	0.73843
2725.06154	0.73690
2723.13297	0.73558
2721.20441	0.73406
2719.27585	0.73242
2717.34728	0.73075
2715.41872	0.72909
2713.49015	0.72744
2711.56159	0.72564
2709.63302	0.72385
2707.70446	0.72231
2705.77589	0.72113
2703.84733	0.72031
2701.91877	0.71917
2699.99020	0.71716
2698.06164	0.71497
2696.13307	0.71359
2694.20451	0.71268
2692.27594	0.71130
2690.34738	0.70954
2688.41881	0.70794
2686.49025	0.70649
2684.56169	0.70504
2682.63312	0.70361
2680.70456	0.70208
2678.77599	0.70030
2676.84743	0.69838
2674.91886	0.69675
2672.99030	0.69568
2671.06173	0.69481
2669.13317	0.69377
2667.20461	0.69266
2665.27604	0.69141
2663.34748	0.69020
2661.41891	0.68945
2659.49035	0.68877
2657.56178	0.68752
2655.63322	0.68616
2653.70465	0.68530
2651.77609	0.68463
2649.84753	0.68377
2647.91896	0.68287
2645.99040	0.68208
2644.06183	0.68116
2642.13327	0.68004
2640.20470	0.67892
2638.27614	0.67780
2636.34757	0.67663
2634.41901	0.67526
2632.49045	0.67370
2630.56188	0.67251
2628.63332	0.67182
2626.70475	0.67117
2624.77619	0.67019
2622.84762	0.66883
2620.91906	0.66730
2618.99049	0.66590
2617.06193	0.66497
2615.13337	0.66437
2613.20480	0.66345
2611.27624	0.66206
2609.34767	0.66074
2607.41911	0.65977
2605.49054	0.65888
2603.56198	0.65793
2601.63342	0.65703
2599.70485	0.65597
2597.77629	0.65462
2595.84772	0.65344
2593.91916	0.65264
2591.99059	0.65204
2590.06203	0.65140
2588.13346	0.65052
2586.20490	0.64942
2584.27634	0.64819
2582.34777	0.64711
2580.41921	0.64627
2578.49064	0.64529
2576.56208	0.64410
2574.63351	0.64282
2572.70495	0.64139
2570.77638	0.63989
2568.84782	0.63852
2566.91926	0.63728
2564.99069	0.63599
2563.06213	0.63447
2561.13356	0.63289
2559.20500	0.63120
2557.27643	0.62931
2555.34787	0.62752
2553.41930	0.62609
2551.49074	0.62482
2549.56218	0.62339
2547.63361	0.62188
2545.70505	0.62054
2543.77648	0.61936
2541.84792	0.61822
2539.91935	0.61718
2537.99079	0.61628
2536.06222	0.61543
2534.13366	0.61447
2532.20510	0.61329
2530.27653	0.61196
2528.34797	0.61086
2526.41940	0.61019
2524.49084	0.60957
2522.56227	0.60874
2520.63371	0.60813
2518.70514	0.60783
2516.77658	0.60724
2514.84802	0.60619
2512.91945	0.60505
2510.99089	0.60406
2509.06232	0.60303
2507.13376	0.60184
2505.20519	0.60064
2503.27663	0.59948
2501.34806	0.59837
2499.41950	0.59740
2497.49094	0.59646
2495.56237	0.59544
2493.63381	0.59426
2491.70524	0.59299
2489.77668	0.59183
2487.84811	0.59078
2485.91955	0.58969
2483.99098	0.58866
2482.06242	0.58793
2480.13386	0.58730
2478.20529	0.58643
2476.27673	0.58526
2474.34816	0.58412
2472.41960	0.58328
2470.49103	0.58260
2468.56247	0.58172
2466.63391	0.58054
2464.70534	0.57919
2462.77678	0.57793
2460.84821	0.57700
2458.91965	0.57616
2456.99108	0.57502
2455.06252	0.57380
2453.13395	0.57285
2451.20539	0.57201
2449.27683	0.57089
2447.34826	0.56944
2445.41970	0.56799
2443.49113	0.56675
2441.56257	0.56565
2439.63400	0.56460
2437.70544	0.56366
2435.77687	0.56284
2433.84831	0.56207
2431.91975	0.56145
2429.99118	0.56097
2428.06262	0.56033
2426.13405	0.55950
2424.20549	0.55878
2422.27692	0.55829
2420.34836	0.55790
2418.41979	0.55743
2416.49123	0.55669
2414.56267	0.55582
2412.63410	0.55510
2410.70554	0.55451
2408.77697	0.55390
2406.84841	0.55321
2404.91984	0.55240
2402.99128	0.55140
2401.06271	0.55025
2399.13415	0.54922
2397.20559	0.54833
2395.27702	0.54737
2393.34846	0.54609
2391.41989	0.54460
2389.49133	0.54334
2387.56276	0.54230
2385.63420	0.54133
2383.70563	0.54065
2381.77707	0.54022
2379.84851	0.53972
2377.91994	0.53906
2375.99138	0.53833
2374.06281	0.53808
2372.13425	0.53890
2370.20568	0.53976
2368.27712	0.53899
2366.34855	0.53763
2364.41999	0.53745
2362.49143	0.53745
2360.56286	0.53717
2358.63430	0.53750
2356.70573	0.53748
2354.77717	0.53767
2352.84860	0.53836
2350.92004	0.53695
2348.99147	0.53389
2347.06291	0.53149
2345.13435	0.53087
2343.20578	0.53093
2341.27722	0.53068
2339.34865	0.53005
2337.42009	0.52943
2335.49152	0.52996
2333.56296	0.53072
2331.63440	0.53036
2329.70583	0.52903
2327.77727	0.52740
2325.84870	0.52601
2323.92014	0.52488
2321.99157	0.52379
2320.06301	0.52270
2318.13444	0.52144
2316.20588	0.51989
2314.27732	0.51854
2312.34875	0.51774
2310.42019	0.51706
2308.49162	0.51610
2306.56306	0.51505
2304.63449	0.51409
2302.70593	0.51317
2300.77736	0.51215
2298.84880	0.51111
2296.92024	0.51022
2294.99167	0.50949
2293.06311	0.50896
2291.13454	0.50855
2289.20598	0.50789
2287.27741	0.50694
2285.34885	0.50606
2283.42028	0.50546
2281.49172	0.50497
2279.56316	0.50449
2277.63459	0.50392
2275.70603	0.50333
2273.77746	0.50288
2271.84890	0.50252
2269.92033	0.50202
2267.99177	0.50131
2266.06320	0.50063
2264.13464	0.50004
2262.20608	0.49932
2260.27751	0.49848
2258.34895	0.49767
2256.42038	0.49696
2254.49182	0.49636
2252.56325	0.49575
2250.63469	0.49493
2248.70612	0.49399
2246.77756	0.49318
2244.84900	0.49251
2242.92043	0.49188
2240.99187	0.49121
2239.06330	0.49049
2237.13474	0.48978
2235.20617	0.48908
2233.27761	0.48860
2231.34904	0.48840
2229.42048	0.48816
2227.49192	0.48776
2225.56335	0.48746
2223.63479	0.48721
2221.70622	0.48678
2219.77766	0.48632
2217.84909	0.48613
2215.92053	0.48612
2213.99196	0.48604
2212.06340	0.48582
2210.13484	0.48547
2208.20627	0.48503
2206.27771	0.48468
2204.34914	0.48439
2202.42058	0.48401
2200.49201	0.48361
2198.56345	0.48338
2196.63488	0.48307
2194.70632	0.48248
2192.77776	0.48180
2190.84919	0.48119
2188.92063	0.48079
2186.99206	0.48051
2185.06350	0.47999
2183.13493	0.47929
2181.20637	0.47873
2179.27781	0.47824
2177.34924	0.47759
2175.42068	0.47684
2173.49211	0.47615
2171.56355	0.47559
2169.63498	0.47502
2167.70642	0.47432
2165.77785	0.47357
2163.84929	0.47291
2161.92073	0.47233
2159.99216	0.47171
2158.06360	0.47096
2156.13503	0.47004
2154.20647	0.46911
2152.27790	0.46842
2150.34934	0.46787
2148.42077	0.46732
2146.49221	0.46687
2144.56365	0.46650
2142.63508	0.46615
2140.70652	0.46594
2138.77795	0.46590
2136.84939	0.46599
2134.92082	0.46610
2132.99226	0.46611
2131.06369	0.46601
2129.13513	0.46593
2127.20657	0.46604
2125.27800	0.46629
2123.34944	0.46633
2121.42087	0.46594
2119.49231	0.46534
2117.56374	0.46482
2115.63518	0.46446
2113.70661	0.46405
2111.77805	0.46344
2109.84949	0.46276
2107.92092	0.46215
2105.99236	0.46148
2104.06379	0.46067
2102.13523	0.45967
2100.20666	0.45852
2098.27810	0.45744
2096.34953	0.45666
2094.42097	0.45619
2092.49241	0.45574
2090.56384	0.45506
2088.63528	0.45434
2086.70671	0.45383
2084.77815	0.45340
2082.84958	0.45280
2080.92102	0.45231
2078.99245	0.45215
2077.06389	0.45205
2075.13533	0.45179
2073.20676	0.45150
2071.27820	0.45138
2069.34963	0.45134
2067.42107	0.45130
2065.49250	0.45134
2063.56394	0.45125
2061.63537	0.45089
2059.70681	0.45061
2057.77825	0.45047
2055.84968	0.45022
2053.92112	0.44973
2051.99255	0.44916
2050.06399	0.44866
2048.13542	0.44810
2046.20686	0.44727
2044.27830	0.44633
2042.34973	0.44555
2040.42117	0.44483
2038.49260	0.44391
2036.56404	0.44293
2034.63547	0.44215
2032.70691	0.44148
2030.77834	0.44073
2028.84978	0.44002
2026.92122	0.43955
2024.99265	0.43910
2023.06409	0.43848
2021.13552	0.43780
2019.20696	0.43742
2017.27839	0.43736
2015.34983	0.43698
2013.42126	0.43625
2011.49270	0.43572
2009.56414	0.43544
2007.63557	0.43507
2005.70701	0.43462
2003.77844	0.43431
2001.84988	0.43401
1999.92131	0.43368
1997.99275	0.43342
1996.06418	0.43317
1994.13562	0.43312
1992.20706	0.43346
1990.27849	0.43360
1988.34993	0.43324
1986.42136	0.43277
1984.49280	0.43229
1982.56423	0.43173
1980.63567	0.43120
1978.70710	0.43076
1976.77854	0.43031
1974.84998	0.42975
1972.92141	0.42909
1970.99285	0.42833
1969.06428	0.42777
1967.13572	0.42744
1965.20715	0.42665
1963.27859	0.42554
1961.35002	0.42490
1959.42146	0.42469
1957.49290	0.42445
1955.56433	0.42402
1953.63577	0.42343
1951.70720	0.42293
1949.77864	0.42270
1947.85007	0.42249
1945.92151	0.42223
1943.99294	0.42241
1942.06438	0.42297
1940.13582	0.42289
1938.20725	0.42248
1936.27869	0.42259
1934.35012	0.42313
1932.42156	0.42378
1930.49299	0.42441
1928.56443	0.42492
1926.63586	0.42529
1924.70730	0.42605
1922.77874	0.42718
1920.85017	0.42763
1918.92161	0.42791
1916.99304	0.42839
1915.06448	0.42801
1913.13591	0.42722
1911.20735	0.42706
1909.27878	0.42736
1907.35022	0.42727
1905.42166	0.42665
1903.49309	0.42599
1901.56453	0.42541
1899.63596	0.42475
1897.70740	0.42416
1895.77883	0.42389
1893.85027	0.42343
1891.92171	0.42277
1889.99314	0.42265
1888.06458	0.42248
1886.13601	0.42183
1884.20745	0.42149
1882.27888	0.42153
1880.35032	0.42161
1878.42175	0.42178
1876.49319	0.42206
1874.56463	0.42230
1872.63606	0.42255
1870.70750	0.42379
1868.77893	0.42681
1866.85037	0.42873
1864.92180	0.42843
1862.99324	0.42816
1861.06467	0.42864
1859.13611	0.42956
1857.20755	0.43051
1855.27898	0.43115
1853.35042	0.43136
1851.42185	0.43128
1849.49329	0.43129
1847.56472	0.43149
1845.63616	0.43215
1843.70759	0.43288
1841.77903	0.43188
1839.85047	0.43006
1837.92190	0.42890
1835.99334	0.42812
1834.06477	0.42696
1832.13621	0.42619
1830.20764	0.42669
1828.27908	0.42689
1826.35051	0.42612
1824.42195	0.42560
1822.49339	0.42491
1820.56482	0.42413
1818.63626	0.42402
1816.70769	0.42427
1814.77913	0.42454
1812.85056	0.42537
1810.92200	0.42718
1808.99343	0.42879
1807.06487	0.42951
1805.13631	0.43008
1803.20774	0.43137
1801.27918	0.43388
1799.35061	0.43621
1797.42205	0.43722
1795.49348	0.43791
1793.56492	0.43974
1791.63635	0.44239
1789.70779	0.44238
1787.77923	0.44102
1785.85066	0.44060
1783.92210	0.44109
1781.99353	0.44183
1780.06497	0.44251
1778.13640	0.44242
1776.20784	0.44191
1774.27927	0.44260
1772.35071	0.44539
1770.42215	0.44706
1768.49358	0.44690
1766.56502	0.44675
1764.63645	0.44710
1762.70789	0.44915
1760.77932	0.45243
1758.85076	0.45488
1756.92220	0.45786
1754.99363	0.46061
1753.06507	0.46279
1751.13650	0.46774
1749.20794	0.47599
1747.27937	0.48161
1745.35081	0.48451
1743.42224	0.48732
1741.49368	0.49072
1739.56512	0.49434
1737.63655	0.49619
1735.70799	0.49760
1733.77942	0.50289
1731.85086	0.50673
1729.92229	0.50721
1727.99373	0.50797
1726.06516	0.50980
1724.13660	0.51358
1722.20804	0.51786
1720.27947	0.52136
1718.35091	0.52839
1716.42234	0.54296
1714.49378	0.55119
1712.56521	0.55433
1710.63665	0.55834
1708.70808	0.56439
1706.77952	0.57505
1704.85096	0.58954
1702.92239	0.60066
1700.99383	0.61619
1699.06526	0.64542
1697.13670	0.67528
1695.20813	0.70060
1693.27957	0.71503
1691.35100	0.72642
1689.42244	0.74262
1687.49388	0.75771
1685.56531	0.77378
1683.63675	0.80382
1681.70818	0.82342
1679.77962	0.83205
1677.85105	0.84006
1675.92249	0.85201
1673.99392	0.86682
1672.06536	0.87802
1670.13680	0.89179
1668.20823	0.90672
1666.27967	0.91337
1664.35110	0.92033
1662.42254	0.93341
1660.49397	0.94385
1658.56541	0.94813
1656.63684	0.95020
1654.70828	0.95368
1652.77972	0.96446
1650.85115	0.96805
1648.92259	0.96710
1646.99402	0.96960
1645.06546	0.97103
1643.13689	0.96883
1641.20833	0.96690
1639.27976	0.96586
1637.35120	0.96693
1635.42264	0.97050
1633.49407	0.96931
1631.56551	0.96583
1629.63694	0.96256
1627.70838	0.95952
1625.77981	0.95593
1623.85125	0.95085
1621.92269	0.94305
1619.99412	0.93419
1618.06556	0.92291
1616.13699	0.90517
1614.20843	0.88888
1612.27986	0.87579
1610.35130	0.86278
1608.42273	0.85036
1606.49417	0.84046
1604.56561	0.83327
1602.63704	0.82808
1600.70848	0.82473
1598.77991	0.82284
1596.85135	0.82227
1594.92278	0.82324
1592.99422	0.82523
1591.06565	0.82794
1589.13709	0.83196
1587.20853	0.83752
1585.27996	0.84424
1583.35140	0.85179
1581.42283	0.85915
1579.49427	0.86528
1577.56570	0.87358
1575.63714	0.88684
1573.70857	0.89293
1571.78001	0.89485
1569.85145	0.90152
1567.92288	0.91009
1565.99432	0.91476
1564.06575	0.91827
1562.13719	0.92018
1560.20862	0.92400
1558.28006	0.93973
1556.35149	0.94466
1554.42293	0.94257
1552.49437	0.94045
1550.56580	0.93905
1548.63724	0.93798
1546.70867	0.93698
1544.78011	0.93715
1542.85154	0.93851
1540.92298	0.93675
1538.99441	0.92911
1537.06585	0.92365
1535.13729	0.91991
1533.20872	0.91635
1531.28016	0.91189
1529.35159	0.90791
1527.42303	0.90557
1525.49446	0.90456
1523.56590	0.90403
1521.63733	0.90304
1519.70877	0.90042
1517.78021	0.89577
1515.85164	0.88776
1513.92308	0.87827
1511.99451	0.86901
1510.06595	0.86067
1508.13738	0.85020
1506.20882	0.82930
1504.28025	0.81573
1502.35169	0.80660
1500.42313	0.79748
1498.49456	0.78751
1496.56600	0.77617
1494.63743	0.76622
1492.70887	0.75886
1490.78030	0.75269
1488.85174	0.74658
1486.92317	0.74078
1484.99461	0.73635
1483.06605	0.73428
1481.13748	0.73471
1479.20892	0.73653
1477.28035	0.73987
1475.35179	0.74663
1473.42322	0.75992
1471.49466	0.77251
1469.56610	0.77620
1467.63753	0.77829
1465.70897	0.78388
1463.78040	0.79037
1461.85184	0.79214
1459.92327	0.79238
1457.99471	0.79798
1456.06614	0.80662
1454.13758	0.80654
1452.20902	0.80459
1450.28045	0.80342
1448.35189	0.80281
1446.42332	0.80136
1444.49476	0.79896
1442.56619	0.79636
1440.63763	0.79350
1438.70906	0.79023
1436.78050	0.78619
1434.85194	0.78082
1432.92337	0.77526
1430.99481	0.77003
1429.06624	0.76511
1427.13768	0.76123
1425.20911	0.75911
1423.28055	0.75856
1421.35198	0.75886
1419.42342	0.76121
1417.49486	0.76366
1415.56629	0.76271
1413.63773	0.76091
1411.70916	0.75947
1409.78060	0.75812
1407.85203	0.75729
1405.92347	0.75808
1403.99490	0.75957
1402.06634	0.76019
1400.13778	0.76135
1398.20921	0.76354
1396.28065	0.76564
1394.35208	0.76770
1392.42352	0.76920
1390.49495	0.77112
1388.56639	0.77676
1386.63782	0.78705
1384.70926	0.79621
1382.78070	0.80245
1380.85213	0.80663
1378.92357	0.80776
1376.99500	0.80563
1375.06644	0.80020
1373.13787	0.79182
1371.20931	0.78291
1369.28074	0.77362
1367.35218	0.76379
1365.42362	0.75491
1363.49505	0.74672
1361.56649	0.73893
1359.63792	0.73281
1357.70936	0.72837
1355.78079	0.72515
1353.85223	0.72293
1351.92366	0.72161
1349.99510	0.72113
1348.06654	0.72124
1346.13797	0.72166
1344.20941	0.72238
1342.28084	0.72383
1340.35228	0.72705
1338.42371	0.73134
1336.49515	0.73506
1334.56659	0.73913
1332.63802	0.74423
1330.70946	0.74974
1328.78089	0.75455
1326.85233	0.75784
1324.92376	0.75971
1322.99520	0.76094
1321.06663	0.76240
1319.13807	0.76423
1317.20951	0.76559
1315.28094	0.76613
1313.35238	0.76627
1311.42381	0.76594
1309.49525	0.76497
1307.56668	0.76348
1305.63812	0.76174
1303.70955	0.75998
1301.78099	0.75819
1299.85243	0.75614
1297.92386	0.75371
1295.99530	0.75119
1294.06673	0.74926
1292.13817	0.74845
1290.20960	0.74874
1288.28104	0.74963
1286.35247	0.75067
1284.42391	0.75160
1282.49535	0.75227
1280.56678	0.75307
1278.63822	0.75474
1276.70965	0.75734
1274.78109	0.76061
1272.85252	0.76489
1270.92396	0.77038
1268.99539	0.77642
1267.06683	0.78244
1265.13827	0.78785
1263.20970	0.79175
1261.28114	0.79385
1259.35257	0.79480
1257.42401	0.79531
1255.49544	0.79580
1253.56688	0.79659
1251.63831	0.79758
1249.70975	0.79818
1247.78119	0.79813
1245.85262	0.79786
1243.92406	0.79754
1241.99549	0.79661
1240.06693	0.79467
1238.13836	0.79201
1236.20980	0.78880
1234.28123	0.78481
1232.35267	0.78006
1230.42411	0.77484
1228.49554	0.76915
1226.56698	0.76285
1224.63841	0.75614
1222.70985	0.74947
1220.78128	0.74308
1218.85272	0.73724
1216.92415	0.73254
1214.99559	0.72961
1213.06703	0.72891
1211.13846	0.73057
1209.20990	0.73373
1207.28133	0.73650
1205.35277	0.73714
1203.42420	0.73506
1201.49564	0.73098
1199.56708	0.72610
1197.63851	0.72081
1195.70995	0.71511
1193.78138	0.70945
1191.85282	0.70472
1189.92425	0.70141
1187.99569	0.69925
1186.06712	0.69801
1184.13856	0.69764
1182.21000	0.69809
1180.28143	0.69937
1178.35287	0.70154
1176.42430	0.70468
1174.49574	0.70848
1172.56717	0.71225
1170.63861	0.71621
1168.71004	0.72129
1166.78148	0.72798
1164.85292	0.73638
1162.92435	0.74618
1160.99579	0.75597
1159.06722	0.76361
1157.13866	0.76747
1155.21009	0.76667
1153.28153	0.76117
1151.35296	0.75183
1149.42440	0.73998
1147.49584	0.72741
1145.56727	0.71586
1143.63871	0.70666
1141.71014	0.70085
1139.78158	0.69832
1137.85301	0.69808
1135.92445	0.69970
1133.99588	0.70340
1132.06732	0.70965
1130.13876	0.71863
1128.21019	0.72972
1126.28163	0.74134
1124.35306	0.75169
1122.42450	0.76006
1120.49593	0.76702
1118.56737	0.77293
1116.63880	0.77711
1114.71024	0.77872
1112.78168	0.77738
1110.85311	0.77343
1108.92455	0.76841
1106.99598	0.76396
1105.06742	0.75996
1103.13885	0.75559
1101.21029	0.75140
1099.28172	0.74910
1097.35316	0.74950
1095.42460	0.75225
1093.49603	0.75659
1091.56747	0.76177
1089.63890	0.76776
1087.71034	0.77529
1085.78177	0.78451
1083.85321	0.79486
1081.92464	0.80516
1079.99608	0.81373
1078.06752	0.81969
1076.13895	0.82300
1074.21039	0.82364
1072.28182	0.82219
1070.35326	0.81912
1068.42469	0.81414
1066.49613	0.80813
1064.56756	0.80242
1062.63900	0.79635
1060.71044	0.78951
1058.78187	0.78283
1056.85331	0.77628
1054.92474	0.76966
1052.99618	0.76389
1051.06761	0.75986
1049.13905	0.75781
1047.21049	0.75791
1045.28192	0.76046
1043.35336	0.76526
1041.42479	0.77150
1039.49623	0.77836
1037.56766	0.78496
1035.63910	0.79021
1033.71053	0.79347
1031.78197	0.79474
1029.85341	0.79409
1027.92484	0.79165
1025.99628	0.78750
1024.06771	0.78190
1022.13915	0.77589
1020.21058	0.77079
1018.28202	0.76705
1016.35345	0.76353
1014.42489	0.75844
1012.49633	0.75083
1010.56776	0.74048
1008.63920	0.72741
1006.71063	0.71250
1004.78207	0.69741
1002.85350	0.68358
1000.92494	0.67174
998.99637	0.66200
997.06781	0.65430
995.13925	0.64819
993.21068	0.64243
991.28212	0.63611
989.35355	0.62950
987.42499	0.62328
985.49642	0.61789
983.56786	0.61373
981.63929	0.61103
979.71073	0.60961
977.78217	0.60904
975.85360	0.60858
973.92504	0.60714
971.99647	0.60396
970.06791	0.59912
968.13934	0.59340
966.21078	0.58808
964.28221	0.58447
962.35365	0.58370
960.42509	0.58700
958.49652	0.59421
956.56796	0.60219
954.63939	0.60699
952.71083	0.60678
950.78226	0.60194
948.85370	0.59451
946.92513	0.58688
944.99657	0.58026
943.06801	0.57487
941.13944	0.57056
939.21088	0.56689
937.28231	0.56357
935.35375	0.56062
933.42518	0.55826
931.49662	0.55655
929.56805	0.55530
927.63949	0.55454
925.71093	0.55477
923.78236	0.55599
921.85380	0.55735
919.92523	0.55816
917.99667	0.55836
916.06810	0.55825
914.13954	0.55825
912.21098	0.55863
910.28241	0.55965
908.35385	0.56162
906.42528	0.56461
904.49672	0.56818
902.56815	0.57183
900.63959	0.57530
898.71102	0.57805
896.78246	0.57963
894.85390	0.58027
892.92533	0.58018
890.99677	0.57906
889.06820	0.57706
887.13964	0.57490
885.21107	0.57296
883.28251	0.57122
881.35394	0.56975
879.42538	0.56848
877.49682	0.56718
875.56825	0.56589
873.63969	0.56468
871.71112	0.56355
869.78256	0.56252
867.85399	0.56142
865.92543	0.56038
863.99686	0.55993
862.06830	0.56018
860.13974	0.56078
858.21117	0.56144
856.28261	0.56237
854.35404	0.56394
852.42548	0.56597
850.49691	0.56797
848.56835	0.56959
846.63978	0.57103
844.71122	0.57287
842.78266	0.57505
840.85409	0.57711
838.92553	0.57920
836.99696	0.58143
835.06840	0.58367
833.13983	0.58569
831.21127	0.58726
829.28270	0.58834
827.35414	0.58902
825.42558	0.58941
823.49701	0.58953
821.56845	0.58924
819.63988	0.58863
817.71132	0.58794
815.78275	0.58725
813.85419	0.58662
811.92562	0.58620
809.99706	0.58594
808.06850	0.58565
806.13993	0.58528
804.21137	0.58491
802.28280	0.58461
800.35424	0.58455
798.42567	0.58515
796.49711	0.58647
794.56854	0.58813
792.63998	0.58989
790.71142	0.59172
788.78285	0.59368
786.85429	0.59590
784.92572	0.59824
782.99716	0.60043
781.06859	0.60257
779.14003	0.60477
777.21147	0.60673
775.28290	0.60810
773.35434	0.60888
771.42577	0.60915
769.49721	0.60900
767.56864	0.60873
765.64008	0.60847
763.71151	0.60812
761.78295	0.60759
759.85439	0.60702
757.92582	0.60683
755.99726	0.60701
754.06869	0.60699
752.14013	0.60682
750.21156	0.60716
748.28300	0.60789
746.35443	0.60842
744.42587	0.60891
742.49731	0.60971
740.56874	0.61073
738.64018	0.61192
736.71161	0.61321
734.78305	0.61475
732.85448	0.61682
730.92592	0.61926
728.99735	0.62136
727.06879	0.62293
725.14023	0.62443
723.21166	0.62615
721.28310	0.62830
719.35453	0.62988
717.42597	0.62959
715.49740	0.62852
713.56884	0.62823
711.64027	0.62861
709.71171	0.62902
707.78315	0.62943
705.85458	0.62995
703.92602	0.63047
701.99745	0.63119
700.06889	0.63196
698.14032	0.63195
696.21176	0.63161
694.28319	0.63210
692.35463	0.63337
690.42607	0.63484
688.49750	0.63612
686.56894	0.63665
684.64037	0.63645
682.71181	0.63612
680.78324	0.63613
678.85468	0.63650
676.92611	0.63658
674.99755	0.63555
673.06899	0.63386
671.14042	0.63242
669.21186	0.63088
667.28329	0.62816
665.35473	0.62575
663.42616	0.62424
661.49760	0.62291
659.56903	0.62080
657.64047	0.61781
655.71191	0.61488
653.78334	0.61250
651.85478	0.61037
649.92621	0.60827
647.99765	0.60685
646.06908	0.60690
644.14052	0.60859
642.21195	0.61182
640.28339	0.61595
638.35483	0.61971
636.42626	0.62225
634.49770	0.62340
632.56913	0.62354
630.64057	0.62284
628.71200	0.62158
626.78344	0.62123
624.85488	0.62194
622.92631	0.62218
620.99775	0.62171
619.06918	0.62042
617.14062	0.61806
615.21205	0.61535
613.28349	0.61301
611.35492	0.61114
609.42636	0.60924
607.49780	0.60637
605.56923	0.60254
603.64067	0.59958
601.71210	0.59902
599.78354	0.60011
