3997.91406	0.92892
3995.98550	0.92869
3994.05693	0.92853
3992.12837	0.92857
3990.19980	0.92847
3988.27124	0.92745
3986.34268	0.92535
3984.41411	0.92396
3982.48555	0.92486
3980.55698	0.92619
3978.62842	0.92586
3976.69985	0.92472
3974.77129	0.92392
3972.84272	0.92283
3970.91416	0.92106
3968.98560	0.91969
3967.05703	0.91923
3965.12847	0.91915
3963.19990	0.91955
3961.27134	0.92004
3959.34277	0.91950
3957.41421	0.91785
3955.48564	0.91645
3953.55708	0.91602
3951.62852	0.91500
3949.69995	0.91377
3947.77139	0.91452
3945.84282	0.91551
3943.91426	0.91651
3941.98569	0.91894
3940.05713	0.92040
3938.12856	0.91966
3936.20000	0.91827
3934.27144	0.91804
3932.34287	0.91968
3930.41431	0.92067
3928.48574	0.91966
3926.55718	0.91936
3924.62861	0.92051
3922.70005	0.91968
3920.77148	0.91733
3918.84292	0.91707
3916.91436	0.91863
3914.98579	0.91922
3913.05723	0.91887
3911.12866	0.91849
3909.20010	0.91753
3907.27153	0.91492
3905.34297	0.91151
3903.41440	0.90834
3901.48584	0.90590
3899.55728	0.90774
3897.62871	0.91056
3895.70015	0.90948
3893.77158	0.90656
3891.84302	0.90546
3889.91445	0.90522
3887.98589	0.90429
3886.05733	0.90437
3884.12876	0.90334
3882.20020	0.90053
3880.27163	0.89988
3878.34307	0.89918
3876.41450	0.89746
3874.48594	0.89674
3872.55737	0.89597
3870.62881	0.89703
3868.70025	0.89964
3866.77168	0.89800
3864.84312	0.89558
3862.91455	0.89593
3860.98599	0.89573
3859.05742	0.89370
3857.12886	0.88973
3855.20029	0.88568
3853.27173	0.89114
3851.34317	0.89736
3849.41460	0.89623
3847.48604	0.89343
3845.55747	0.89124
3843.62891	0.88985
3841.70034	0.88685
3839.77178	0.88274
3837.84321	0.88432
3835.91465	0.88800
3833.98609	0.88868
3832.05752	0.88876
3830.12896	0.88843
3828.20039	0.88811
3826.27183	0.88843
3824.34326	0.88650
3822.41470	0.88339
3820.48613	0.88412
3818.55757	0.88397
3816.62901	0.88369
3814.70044	0.88570
3812.77188	0.88558
3810.84331	0.88358
3808.91475	0.88215
3806.98618	0.88253
3805.05762	0.88173
3803.12905	0.88125
3801.20049	0.88529
3799.27193	0.88518
3797.34336	0.88193
3795.41480	0.88154
3793.48623	0.88132
3791.55767	0.87940
3789.62910	0.87670
3787.70054	0.87420
3785.77197	0.87324
3783.84341	0.87300
3781.91485	0.87153
3779.98628	0.86977
3778.05772	0.86891
3776.12915	0.86842
3774.20059	0.86764
3772.27202	0.86668
3770.34346	0.86668
3768.41489	0.86745
3766.48633	0.86788
3764.55777	0.86736
3762.62920	0.86524
3760.70064	0.86271
3758.77207	0.86056
3756.84351	0.85849
3754.91494	0.85625
3752.98638	0.85306
3751.05781	0.85290
3749.12925	0.85897
3747.20069	0.86388
3745.27212	0.86898
3743.34356	0.86967
3741.41499	0.86496
3739.48643	0.86084
3737.55786	0.85952
3735.62930	0.85950
3733.70074	0.86052
3731.77217	0.86292
3729.84361	0.86410
3727.91504	0.86514
3725.98648	0.86679
3724.05791	0.86726
3722.12935	0.86768
3720.20078	0.86926
3718.27222	0.86907
3716.34366	0.86562
3714.41509	0.86071
3712.48653	0.85813
3710.55796	0.86217
3708.62940	0.86556
3706.70083	0.86544
3704.77227	0.86451
3702.84370	0.86486
3700.91514	0.86657
3698.98658	0.86762
3697.05801	0.86829
3695.12945	0.86812
3693.20088	0.86658
3691.27232	0.86772
3689.34375	0.87608
3687.41519	0.88039
3685.48662	0.87927
3683.55806	0.87807
3681.62950	0.87792
3679.70093	0.87899
3677.77237	0.88350
3675.84380	0.89596
3673.91524	0.90250
3671.98667	0.90198
3670.05811	0.90849
3668.12954	0.91493
3666.20098	0.91591
3664.27242	0.91798
3662.34385	0.92229
3660.41529	0.92714
3658.48672	0.93240
3656.55816	0.94043
3654.62959	0.94691
3652.70103	0.94792
3650.77246	0.95060
3648.84390	0.97010
3646.91534	0.98714
3644.98677	0.99242
3643.05821	0.99670
3641.12964	1.00430
3639.20108	1.01401
3637.27251	1.02210
3635.34395	1.02877
3633.41538	1.03563
3631.48682	1.04093
3629.55826	1.04980
3627.62969	1.06654
3625.70113	1.07722
3623.77256	1.08318
3621.84400	1.08828
3619.91543	1.09805
3617.98687	1.11094
3616.05830	1.11676
3614.12974	1.11961
3612.20118	1.12541
3610.27261	1.13350
3608.34405	1.14378
3606.41548	1.15414
3604.48692	1.16209
3602.55835	1.17086
3600.62979	1.18086
3598.70123	1.18778
3596.77266	1.19268
3594.84410	1.20058
3592.91553	1.20883
3590.98697	1.21269
3589.05840	1.21709
3587.12984	1.22848
3585.20127	1.24069
3583.27271	1.24863
3581.34415	1.25476
3579.41558	1.26231
3577.48702	1.27088
3575.55845	1.27755
3573.62989	1.28264
3571.70132	1.28791
3569.77276	1.29239
3567.84419	1.29716
3565.91563	1.30954
3563.98707	1.32463
3562.05850	1.33481
3560.12994	1.33967
3558.20137	1.34442
3556.27281	1.35206
3554.34424	1.36047
3552.41568	1.36948
3550.48711	1.37758
3548.55855	1.38194
3546.62999	1.38604
3544.70142	1.39429
3542.77286	1.40189
3540.84429	1.40801
3538.91573	1.41623
3536.98716	1.42358
3535.05860	1.42538
3533.13003	1.42575
3531.20147	1.43050
3529.27291	1.43990
3527.34434	1.45275
3525.41578	1.46561
3523.48721	1.47333
3521.55865	1.47539
3519.63008	1.47473
3517.70152	1.47646
3515.77295	1.48393
3513.84439	1.49342
3511.91583	1.49847
3509.98726	1.50109
3508.05870	1.50943
3506.13013	1.52065
3504.20157	1.52945
3502.27300	1.53816
3500.34444	1.54974
3498.41587	1.56236
3496.48731	1.57331
3494.55875	1.58321
3492.63018	1.59051
3490.70162	1.59116
3488.77305	1.58786
3486.84449	1.58420
3484.91592	1.57789
3482.98736	1.57335
3481.05879	1.57894
3479.13023	1.58873
3477.20167	1.59512
3475.27310	1.59917
3473.34454	1.60044
3471.41597	1.60050
3469.48741	1.60354
3467.55884	1.60540
3465.63028	1.59955
3463.70171	1.59243
3461.77315	1.59400
3459.84459	1.59959
3457.91602	1.59926
3455.98746	1.59833
3454.05889	1.60296
3452.13033	1.60429
3450.20176	1.60165
3448.27320	1.60836
3446.34464	1.61888
3444.41607	1.61594
3442.48751	1.60770
3440.55894	1.60553
3438.63038	1.60787
3436.70181	1.61014
3434.77325	1.61034
3432.84468	1.61282
3430.91612	1.61792
3428.98756	1.61813
3427.05899	1.61280
3425.13043	1.60905
3423.20186	1.61254
3421.27330	1.62515
3419.34473	1.63879
3417.41617	1.64060
3415.48760	1.63525
3413.55904	1.63304
3411.63048	1.63037
3409.70191	1.62299
3407.77335	1.61849
3405.84478	1.62340
3403.91622	1.63023
3401.98765	1.62896
3400.05909	1.62212
3398.13052	1.61682
3396.20196	1.61479
3394.27340	1.61288
3392.34483	1.61210
3390.41627	1.61654
3388.48770	1.62186
3386.55914	1.62206
3384.63057	1.62056
3382.70201	1.62517
3380.77344	1.63449
3378.84488	1.63563
3376.91632	1.62658
3374.98775	1.62050
3373.05919	1.61961
3371.13062	1.61910
3369.20206	1.62032
3367.27349	1.62237
3365.34493	1.62117
3363.41636	1.61657
3361.48780	1.61409
3359.55924	1.61720
3357.63067	1.62111
3355.70211	1.62105
3353.77354	1.61945
3351.84498	1.62017
3349.91641	1.62036
3347.98785	1.61698
3346.05928	1.61326
3344.13072	1.60930
3342.20216	1.60406
3340.27359	1.60342
3338.34503	1.60874
3336.41646	1.61117
3334.48790	1.60933
3332.55933	1.61196
3330.63077	1.61681
3328.70220	1.61607
3326.77364	1.61377
3324.84508	1.61459
3322.91651	1.61595
3320.98795	1.61930
3319.05938	1.62648
3317.13082	1.63197
3315.20225	1.63449
3313.27369	1.63857
3311.34513	1.64185
3309.41656	1.64120
3307.48800	1.63931
3305.55943	1.63829
3303.63087	1.63712
3301.70230	1.63342
3299.77374	1.62919
3297.84517	1.63004
3295.91661	1.63566
3293.98805	1.64111
3292.05948	1.64356
3290.13092	1.63912
3288.20235	1.62881
3286.27379	1.62451
3284.34522	1.62968
3282.41666	1.63191
3280.48809	1.62564
3278.55953	1.62051
3276.63097	1.62251
3274.70240	1.62526
3272.77384	1.62264
3270.84527	1.61762
3268.91671	1.61384
3266.98814	1.61142
3265.05958	1.61007
3263.13101	1.60915
3261.20245	1.60917
3259.27389	1.60913
3257.34532	1.60208
3255.41676	1.58882
3253.48819	1.58118
3251.55963	1.57931
3249.63106	1.57366
3247.70250	1.56574
3245.77393	1.56332
3243.84537	1.56501
3241.91681	1.56370
3239.98824	1.55769
3238.05968	1.55111
3236.13111	1.54842
3234.20255	1.54743
3232.27398	1.54283
3230.34542	1.53697
3228.41685	1.53401
3226.48829	1.53268
3224.55973	1.53205
3222.63116	1.53184
3220.70260	1.52839
3218.77403	1.52001
3216.84547	1.51141
3214.91690	1.50635
3212.98834	1.50293
3211.05977	1.49879
3209.13121	1.49469
3207.20265	1.49120
3205.27408	1.48889
3203.34552	1.48804
3201.41695	1.48469
3199.48839	1.47677
3197.55982	1.46864
3195.63126	1.46392
3193.70269	1.46159
3191.77413	1.45757
3189.84557	1.44981
3187.91700	1.44052
3185.98844	1.43302
3184.05987	1.42857
3182.13131	1.42475
3180.20274	1.41948
3178.27418	1.41306
3176.34562	1.40804
3174.41705	1.40718
3172.48849	1.40736
3170.55992	1.40471
3168.63136	1.40121
3166.70279	1.39942
3164.77423	1.39888
3162.84566	1.39604
3160.91710	1.38905
3158.98854	1.38332
3157.05997	1.38297
3155.13141	1.38216
3153.20284	1.37598
3151.27428	1.36884
3149.34571	1.36336
3147.41715	1.35802
3145.48858	1.35366
3143.56002	1.35101
3141.63146	1.34921
3139.70289	1.34706
3137.77433	1.34366
3135.84576	1.34004
3133.91720	1.33719
3131.98863	1.33390
3130.06007	1.32958
3128.13150	1.32579
3126.20294	1.32329
3124.27438	1.32223
3122.34581	1.32305
3120.41725	1.32358
3118.48868	1.32222
3116.56012	1.32105
3114.63155	1.32071
3112.70299	1.31956
3110.77442	1.31818
3108.84586	1.31861
3106.91730	1.32026
3104.98873	1.32036
3103.06017	1.31864
3101.13160	1.31710
3099.20304	1.31627
3097.27447	1.31633
3095.34591	1.31697
3093.41734	1.31585
3091.48878	1.31349
3089.56022	1.31190
3087.63165	1.30902
3085.70309	1.30430
3083.77452	1.29996
3081.84596	1.29576
3079.91739	1.29245
3077.98883	1.29097
3076.06026	1.28869
3074.13170	1.28441
3072.20314	1.28016
3070.27457	1.27717
3068.34601	1.27437
3066.41744	1.27037
3064.48888	1.26445
3062.56031	1.25675
3060.63175	1.24927
3058.70318	1.24375
3056.77462	1.23922
3054.84606	1.23401
3052.91749	1.22855
3050.98893	1.22458
3049.06036	1.22244
3047.13180	1.21973
3045.20323	1.21491
3043.27467	1.20945
3041.34610	1.20442
3039.41754	1.20019
3037.48898	1.19695
3035.56041	1.19312
3033.63185	1.18793
3031.70328	1.18335
3029.77472	1.18065
3027.84615	1.17795
3025.91759	1.17322
3023.98903	1.16780
3022.06046	1.16421
3020.13190	1.16153
3018.20333	1.15723
3016.27477	1.15250
3014.34620	1.15022
3012.41764	1.14946
3010.48907	1.14820
3008.56051	1.14678
3006.63195	1.14516
3004.70338	1.14277
3002.77482	1.14073
3000.84625	1.13973
2998.91769	1.13937
2996.98912	1.14043
2995.06056	1.14304
2993.13199	1.14549
2991.20343	1.14760
2989.27487	1.15029
2987.34630	1.15323
2985.41774	1.15686
2983.48917	1.16181
2981.56061	1.16689
2979.63204	1.17194
2977.70348	1.17811
2975.77491	1.18527
2973.84635	1.19211
2971.91779	1.19817
2969.98922	1.20430
2968.06066	1.21053
2966.13209	1.21544
2964.20353	1.21837
2962.27496	1.21931
2960.34640	1.21778
2958.41783	1.21333
2956.48927	1.20646
2954.56071	1.19941
2952.63214	1.19379
2950.70358	1.18885
2948.77501	1.18497
2946.84645	1.18410
2944.91788	1.18692
2942.98932	1.19229
2941.06075	1.19859
2939.13219	1.20546
2937.20363	1.21382
2935.27506	1.22320
2933.34650	1.23196
2931.41793	1.23976
2929.48937	1.24678
2927.56080	1.25418
2925.63224	1.26322
2923.70367	1.27171
2921.77511	1.27695
2919.84655	1.27947
2917.91798	1.27859
2915.98942	1.26889
2914.06085	1.24713
2912.13229	1.22000
2910.20372	1.19688
2908.27516	1.18030
2906.34659	1.16873
2904.41803	1.16090
2902.48947	1.15513
2900.56090	1.15016
2898.63234	1.14621
2896.70377	1.14324
2894.77521	1.14028
2892.84664	1.13668
2890.91808	1.13251
2888.98952	1.12786
2887.06095	1.12394
2885.13239	1.12192
2883.20382	1.12104
2881.27526	1.12012
2879.34669	1.11854
2877.41813	1.11605
2875.48956	1.11297
2873.56100	1.10938
2871.63244	1.10475
2869.70387	1.09894
2867.77531	1.09287
2865.84674	1.08738
2863.91818	1.08308
2861.98961	1.08090
2860.06105	1.08166
2858.13248	1.08545
2856.20392	1.09196
2854.27536	1.10089
2852.34679	1.11125
2850.41823	1.11775
2848.48966	1.10950
2846.56110	1.08314
2844.63253	1.05083
2842.70397	1.02500
2840.77540	1.00787
2838.84684	0.99604
2836.91828	0.98687
2834.98971	0.97949
2833.06115	0.97353
2831.13258	0.96872
2829.20402	0.96472
2827.27545	0.96144
2825.34689	0.95867
2823.41832	0.95574
2821.48976	0.95268
2819.56120	0.95048
2817.63263	0.94911
2815.70407	0.94717
2813.77550	0.94466
2811.84694	0.94255
2809.91837	0.94061
2807.98981	0.93827
2806.06124	0.93576
2804.13268	0.93375
2802.20412	0.93237
2800.27555	0.93059
2798.34699	0.92777
2796.41842	0.92476
2794.48986	0.92200
2792.56129	0.91911
2790.63273	0.91644
2788.70416	0.91440
2786.77560	0.91240
2784.84704	0.91009
2782.91847	0.90770
2780.98991	0.90506
2779.06134	0.90205
2777.13278	0.89940
2775.20421	0.89753
2773.27565	0.89597
2771.34708	0.89414
2769.41852	0.89185
2767.48996	0.88949
2765.56139	0.88756
2763.63283	0.88615
2761.70426	0.88481
2759.77570	0.88298
2757.84713	0.88068
2755.91857	0.87863
2753.99001	0.87741
2752.06144	0.87648
2750.13288	0.87504
2748.20431	0.87312
2746.27575	0.87115
2744.34718	0.86921
2742.41862	0.86742
2740.49005	0.86604
2738.56149	0.86472
2736.63293	0.86296
2734.70436	0.86056
2732.77580	0.85759
2730.84723	0.85470
2728.91867	0.85249
2726.99010	0.85092
2725.06154	0.84949
2723.13297	0.84762
2721.20441	0.84562
2719.27585	0.84407
2717.34728	0.84260
2715.41872	0.84080
2713.49015	0.83876
2711.56159	0.83682
2709.63302	0.83550
2707.70446	0.83474
2705.77589	0.83406
2703.84733	0.83359
2701.91877	0.83380
2699.99020	0.83443
2698.06164	0.83476
2696.13307	0.83459
2694.20451	0.83430
2692.27594	0.83424
2690.34738	0.83417
2688.41881	0.83388
2686.49025	0.83385
2684.56169	0.83416
2682.63312	0.83408
2680.70456	0.83371
2678.77599	0.83381
2676.84743	0.83370
2674.91886	0.83235
2672.99030	0.83024
2671.06173	0.82830
2669.13317	0.82668
2667.20461	0.82515
2665.27604	0.82382
2663.34748	0.82272
2661.41891	0.82147
2659.49035	0.81990
2657.56178	0.81819
2655.63322	0.81637
2653.70465	0.81452
2651.77609	0.81283
2649.84753	0.81159
2647.91896	0.81065
2645.99040	0.80967
2644.06183	0.80875
2642.13327	0.80800
2640.20470	0.80724
2638.27614	0.80638
2636.34757	0.80567
2634.41901	0.80528
2632.49045	0.80491
2630.56188	0.80411
2628.63332	0.80294
2626.70475	0.80187
2624.77619	0.80114
2622.84762	0.80068
2620.91906	0.80036
2618.99049	0.79995
2617.06193	0.79923
2615.13337	0.79853
2613.20480	0.79832
2611.27624	0.79806
2609.34767	0.79694
2607.41911	0.79543
2605.49054	0.79419
2603.56198	0.79313
2601.63342	0.79189
2599.70485	0.79036
2597.77629	0.78897
2595.84772	0.78808
2593.91916	0.78735
2591.99059	0.78633
2590.06203	0.78521
2588.13346	0.78428
2586.20490	0.78355
2584.27634	0.78294
2582.34777	0.78240
2580.41921	0.78180
2578.49064	0.78099
2576.56208	0.78013
2574.63351	0.77973
2572.70495	0.77966
2570.77638	0.77940
2568.84782	0.77895
2566.91926	0.77869
2564.99069	0.77862
2563.06213	0.77849
2561.13356	0.77837
2559.20500	0.77814
2557.27643	0.77765
2555.34787	0.77718
2553.41930	0.77678
2551.49074	0.77629
2549.56218	0.77564
2547.63361	0.77487
2545.70505	0.77416
2543.77648	0.77341
2541.84792	0.77250
2539.91935	0.77147
2537.99079	0.77055
2536.06222	0.76987
2534.13366	0.76906
2532.20510	0.76779
2530.27653	0.76640
2528.34797	0.76515
2526.41940	0.76382
2524.49084	0.76235
2522.56227	0.76107
2520.63371	0.75997
2518.70514	0.75875
2516.77658	0.75756
2514.84802	0.75652
2512.91945	0.75560
2510.99089	0.75496
2509.06232	0.75447
2507.13376	0.75405
2505.20519	0.75378
2503.27663	0.75343
2501.34806	0.75298
2499.41950	0.75280
2497.49094	0.75273
2495.56237	0.75237
2493.63381	0.75203
2491.70524	0.75199
2489.77668	0.75196
2487.84811	0.75170
2485.91955	0.75144
2483.99098	0.75149
2482.06242	0.75145
2480.13386	0.75084
2478.20529	0.74992
2476.27673	0.74898
2474.34816	0.74797
2472.41960	0.74682
2470.49103	0.74537
2468.56247	0.74372
2466.63391	0.74218
2464.70534	0.74090
2462.77678	0.73969
2460.84821	0.73832
2458.91965	0.73666
2456.99108	0.73477
2455.06252	0.73289
2453.13395	0.73138
2451.20539	0.73020
2449.27683	0.72909
2447.34826	0.72815
2445.41970	0.72742
2443.49113	0.72647
2441.56257	0.72532
2439.63400	0.72460
2437.70544	0.72437
2435.77687	0.72421
2433.84831	0.72385
2431.91975	0.72335
2429.99118	0.72312
2428.06262	0.72340
2426.13405	0.72375
2424.20549	0.72381
2422.27692	0.72364
2420.34836	0.72329
2418.41979	0.72277
2416.49123	0.72204
2414.56267	0.72115
2412.63410	0.72050
2410.70554	0.72015
2408.77697	0.71954
2406.84841	0.71862
2404.91984	0.71783
2402.99128	0.71718
2401.06271	0.71638
2399.13415	0.71528
2397.20559	0.71397
2395.27702	0.71265
2393.34846	0.71138
2391.41989	0.71008
2389.49133	0.70868
2387.56276	0.70748
2385.63420	0.70678
2383.70563	0.70648
2381.77707	0.70656
2379.84851	0.70703
2377.91994	0.70732
2375.99138	0.70723
2374.06281	0.70732
2372.13425	0.70756
2370.20568	0.70814
2368.27712	0.71002
2366.34855	0.71063
2364.41999	0.70791
2362.49143	0.70720
2360.56286	0.71087
2358.63430	0.71532
2356.70573	0.71770
2354.77717	0.71633
2352.84860	0.71264
2350.92004	0.70921
2348.99147	0.70632
2347.06291	0.70364
2345.13435	0.70196
2343.20578	0.70208
2341.27722	0.70302
2339.34865	0.70367
2337.42009	0.70359
2335.49152	0.70314
2333.56296	0.70236
2331.63440	0.70128
2329.70583	0.70012
2327.77727	0.69806
2325.84870	0.69472
2323.92014	0.69211
2321.99157	0.69186
2320.06301	0.69177
2318.13444	0.68987
2316.20588	0.68735
2314.27732	0.68533
2312.34875	0.68390
2310.42019	0.68289
2308.49162	0.68214
2306.56306	0.68160
2304.63449	0.68102
2302.70593	0.68023
2300.77736	0.67928
2298.84880	0.67811
2296.92024	0.67686
2294.99167	0.67604
2293.06311	0.67576
2291.13454	0.67550
2289.20598	0.67477
2287.27741	0.67380
2285.34885	0.67288
2283.42028	0.67202
2281.49172	0.67129
2279.56316	0.67054
2277.63459	0.66948
2275.70603	0.66820
2273.77746	0.66700
2271.84890	0.66594
2269.92033	0.66478
2267.99177	0.66359
2266.06320	0.66243
2264.13464	0.66114
2262.20608	0.65985
2260.27751	0.65878
2258.34895	0.65784
2256.42038	0.65679
2254.49182	0.65549
2252.56325	0.65412
2250.63469	0.65309
2248.70612	0.65245
2246.77756	0.65182
2244.84900	0.65099
2242.92043	0.65022
2240.99187	0.64972
2239.06330	0.64958
2237.13474	0.64977
2235.20617	0.64994
2233.27761	0.64985
2231.34904	0.64951
2229.42048	0.64886
2227.49192	0.64804
2225.56335	0.64749
2223.63479	0.64730
2221.70622	0.64711
2219.77766	0.64697
2217.84909	0.64692
2215.92053	0.64656
2213.99196	0.64590
2212.06340	0.64525
2210.13484	0.64453
2208.20627	0.64364
2206.27771	0.64291
2204.34914	0.64244
2202.42058	0.64184
2200.49201	0.64095
2198.56345	0.64006
2196.63488	0.63937
2194.70632	0.63864
2192.77776	0.63763
2190.84919	0.63661
2188.92063	0.63583
2186.99206	0.63501
2185.06350	0.63401
2183.13493	0.63319
2181.20637	0.63256
2179.27781	0.63175
2177.34924	0.63079
2175.42068	0.62978
2173.49211	0.62858
2171.56355	0.62729
2169.63498	0.62626
2167.70642	0.62546
2165.77785	0.62475
2163.84929	0.62417
2161.92073	0.62368
2159.99216	0.62306
2158.06360	0.62229
2156.13503	0.62157
2154.20647	0.62106
2152.27790	0.62073
2150.34934	0.62040
2148.42077	0.61994
2146.49221	0.61950
2144.56365	0.61923
2142.63508	0.61901
2140.70652	0.61866
2138.77795	0.61825
2136.84939	0.61792
2134.92082	0.61750
2132.99226	0.61675
2131.06369	0.61594
2129.13513	0.61536
2127.20657	0.61478
2125.27800	0.61410
2123.34944	0.61356
2121.42087	0.61316
2119.49231	0.61269
2117.56374	0.61209
2115.63518	0.61143
2113.70661	0.61066
2111.77805	0.60977
2109.84949	0.60889
2107.92092	0.60809
2105.99236	0.60727
2104.06379	0.60644
2102.13523	0.60575
2100.20666	0.60512
2098.27810	0.60434
2096.34953	0.60347
2094.42097	0.60277
2092.49241	0.60226
2090.56384	0.60166
2088.63528	0.60086
2086.70671	0.60013
2084.77815	0.59957
2082.84958	0.59893
2080.92102	0.59815
2078.99245	0.59729
2077.06389	0.59652
2075.13533	0.59589
2073.20676	0.59510
2071.27820	0.59396
2069.34963	0.59264
2067.42107	0.59131
2065.49250	0.59004
2063.56394	0.58879
2061.63537	0.58739
2059.70681	0.58581
2057.77825	0.58422
2055.84968	0.58256
2053.92112	0.58081
2051.99255	0.57919
2050.06399	0.57784
2048.13542	0.57656
2046.20686	0.57513
2044.27830	0.57354
2042.34973	0.57212
2040.42117	0.57105
2038.49260	0.57001
2036.56404	0.56892
2034.63547	0.56804
2032.70691	0.56739
2030.77834	0.56697
2028.84978	0.56669
2026.92122	0.56640
2024.99265	0.56609
2023.06409	0.56588
2021.13552	0.56568
2019.20696	0.56560
2017.27839	0.56567
2015.34983	0.56555
2013.42126	0.56512
2011.49270	0.56478
2009.56414	0.56464
2007.63557	0.56439
2005.70701	0.56396
2003.77844	0.56347
2001.84988	0.56283
1999.92131	0.56201
1997.99275	0.56116
1996.06418	0.56019
1994.13562	0.55922
1992.20706	0.55845
1990.27849	0.55743
1988.34993	0.55592
1986.42136	0.55424
1984.49280	0.55265
1982.56423	0.55116
1980.63567	0.54977
1978.70710	0.54852
1976.77854	0.54736
1974.84998	0.54621
1972.92141	0.54508
1970.99285	0.54410
1969.06428	0.54353
1967.13572	0.54319
1965.20715	0.54244
1963.27859	0.54142
1961.35002	0.54071
1959.42146	0.54037
1957.49290	0.54012
1955.56433	0.53976
1953.63577	0.53921
1951.70720	0.53863
1949.77864	0.53812
1947.85007	0.53761
1945.92151	0.53714
1943.99294	0.53698
1942.06438	0.53674
1940.13582	0.53542
1938.20725	0.53349
1936.27869	0.53193
1934.35012	0.53072
1932.42156	0.52933
1930.49299	0.52769
1928.56443	0.52593
1926.63586	0.52398
1924.70730	0.52228
1922.77874	0.52107
1920.85017	0.51958
1918.92161	0.51788
1916.99304	0.51623
1915.06448	0.51425
1913.13591	0.51235
1911.20735	0.51120
1909.27878	0.51059
1907.35022	0.50982
1905.42166	0.50866
1903.49309	0.50732
1901.56453	0.50618
1899.63596	0.50541
1897.70740	0.50498
1895.77883	0.50476
1893.85027	0.50427
1891.92171	0.50350
1889.99314	0.50322
1888.06458	0.50311
1886.13601	0.50267
1884.20745	0.50230
1882.27888	0.50206
1880.35032	0.50180
1878.42175	0.50139
1876.49319	0.50086
1874.56463	0.50008
1872.63606	0.49906
1870.70750	0.49855
1868.77893	0.49916
1866.85037	0.49896
1864.92180	0.49717
1862.99324	0.49540
1861.06467	0.49412
1859.13611	0.49297
1857.20755	0.49170
1855.27898	0.49036
1853.35042	0.48911
1851.42185	0.48792
1849.49329	0.48680
1847.56472	0.48573
1845.63616	0.48525
1843.70759	0.48533
1841.77903	0.48413
1839.85047	0.48220
1837.92190	0.48084
1835.99334	0.47982
1834.06477	0.47839
1832.13621	0.47724
1830.20764	0.47729
1828.27908	0.47707
1826.35051	0.47586
1824.42195	0.47470
1822.49339	0.47339
1820.56482	0.47194
1818.63626	0.47087
1816.70769	0.46988
1814.77913	0.46878
1812.85056	0.46817
1810.92200	0.46826
1808.99343	0.46797
1807.06487	0.46689
1805.13631	0.46578
1803.20774	0.46519
1801.27918	0.46523
1799.35061	0.46504
1797.42205	0.46419
1795.49348	0.46339
1793.56492	0.46381
1791.63635	0.46541
1789.70779	0.46494
1787.77923	0.46335
1785.85066	0.46272
1783.92210	0.46296
1781.99353	0.46351
1780.06497	0.46436
1778.13640	0.46477
1776.20784	0.46457
1774.27927	0.46531
1772.35071	0.46836
1770.42215	0.47050
1768.49358	0.47038
1766.56502	0.46988
1764.63645	0.46974
1762.70789	0.47120
1760.77932	0.47365
1758.85076	0.47499
1756.92220	0.47661
1754.99363	0.47815
1753.06507	0.47922
1751.13650	0.48266
1749.20794	0.48939
1747.27937	0.49436
1745.35081	0.49691
1743.42224	0.49927
1741.49368	0.50261
1739.56512	0.50676
1737.63655	0.50920
1735.70799	0.51096
1733.77942	0.51753
1731.85086	0.52412
1729.92229	0.52739
1727.99373	0.53061
1726.06516	0.53451
1724.13660	0.54055
1722.20804	0.54704
1720.27947	0.55232
1718.35091	0.56233
1716.42234	0.58428
1714.49378	0.59991
1712.56521	0.60888
1710.63665	0.61929
1708.70808	0.63271
1706.77952	0.65381
1704.85096	0.68270
1702.92239	0.70619
1700.99383	0.73656
1699.06526	0.79079
1697.13670	0.84371
1695.20813	0.88757
1693.27957	0.91381
1691.35100	0.93393
1689.42244	0.96076
1687.49388	0.98533
1685.56531	1.00964
1683.63675	1.05188
1681.70818	1.07821
1679.77962	1.08814
1677.85105	1.09710
1675.92249	1.10995
1673.99392	1.12374
1672.06536	1.13236
1670.13680	1.14207
1668.20823	1.15273
1666.27967	1.15680
1664.35110	1.16119
1662.42254	1.16898
1660.49397	1.17312
1658.56541	1.17366
1656.63684	1.17323
1654.70828	1.17494
1652.77972	1.18168
1650.85115	1.18019
1648.92259	1.17682
1646.99402	1.17805
1645.06546	1.17879
1643.13689	1.17559
1641.20833	1.17228
1639.27976	1.16944
1637.35120	1.16996
1635.42264	1.17489
1633.49407	1.17287
1631.56551	1.16833
1629.63694	1.16459
1627.70838	1.16166
1625.77981	1.15854
1623.85125	1.15362
1621.92269	1.14517
1619.99412	1.13511
1618.06556	1.12199
1616.13699	1.10041
1614.20843	1.07953
1612.27986	1.06143
1610.35130	1.04221
1608.42273	1.02194
1606.49417	1.00363
1604.56561	0.98937
1602.63704	0.97785
1600.70848	0.96829
1598.77991	0.96126
1596.85135	0.95698
1594.92278	0.95481
1592.99422	0.95383
1591.06565	0.95445
1589.13709	0.95764
1587.20853	0.96359
1585.27996	0.97182
1583.35140	0.98193
1581.42283	0.99239
1579.49427	1.00170
1577.56570	1.01417
1575.63714	1.03310
1573.70857	1.04270
1571.78001	1.04702
1569.85145	1.05747
1567.92288	1.06992
1565.99432	1.07681
1564.06575	1.08203
1562.13719	1.08498
1560.20862	1.08946
1558.28006	1.10724
1556.35149	1.11349
1554.42293	1.11193
1552.49437	1.11023
1550.56580	1.10897
1548.63724	1.10734
1546.70867	1.10493
1544.78011	1.10261
1542.85154	1.10095
1540.92298	1.09895
1538.99441	1.09250
1537.06585	1.08630
1535.13729	1.08091
1533.20872	1.07497
1531.28016	1.06812
1529.35159	1.06211
1527.42303	1.05749
1525.49446	1.05385
1523.56590	1.05103
1521.63733	1.04903
1519.70877	1.04783
1517.78021	1.04463
1515.85164	1.03633
1513.92308	1.02459
1511.99451	1.01203
1510.06595	1.00004
1508.13738	0.98379
1506.20882	0.95419
1504.28025	0.93614
1502.35169	0.92325
1500.42313	0.90941
1498.49456	0.89306
1496.56600	0.87399
1494.63743	0.85843
1492.70887	0.84750
1490.78030	0.83710
1488.85174	0.82502
1486.92317	0.81491
1484.99461	0.80788
1483.06605	0.80355
1481.13748	0.80194
1479.20892	0.80264
1477.28035	0.80627
1475.35179	0.81503
1473.42322	0.83236
1471.49466	0.84890
1469.56610	0.85467
1467.63753	0.85839
1465.70897	0.86599
1463.78040	0.87447
1461.85184	0.87709
1459.92327	0.87761
1457.99471	0.88490
1456.06614	0.89657
1454.13758	0.89719
1452.20902	0.89524
1450.28045	0.89382
1448.35189	0.89251
1446.42332	0.89010
1444.49476	0.88646
1442.56619	0.88196
1440.63763	0.87679
1438.70906	0.87105
1436.78050	0.86386
1434.85194	0.85539
1432.92337	0.84739
1430.99481	0.83940
1429.06624	0.83136
1427.13768	0.82497
1425.20911	0.82107
1423.28055	0.81917
1421.35198	0.81872
1419.42342	0.82126
1417.49486	0.82444
1415.56629	0.82349
1413.63773	0.82118
1411.70916	0.81927
1409.78060	0.81800
1407.85203	0.81764
1405.92347	0.81897
1403.99490	0.82094
1402.06634	0.82161
1400.13778	0.82251
1398.20921	0.82449
1396.28065	0.82652
1394.35208	0.82902
1392.42352	0.83169
1390.49495	0.83502
1388.56639	0.84274
1386.63782	0.85644
1384.70926	0.86890
1382.78070	0.87736
1380.85213	0.88282
1378.92357	0.88401
1376.99500	0.88051
1375.06644	0.87215
1373.13787	0.85970
1371.20931	0.84679
1369.28074	0.83330
1367.35218	0.81912
1365.42362	0.80668
1363.49505	0.79577
1361.56649	0.78608
1359.63792	0.77916
1357.70936	0.77473
1355.78079	0.77197
1353.85223	0.77047
1351.92366	0.76984
1349.99510	0.77006
1348.06654	0.77109
1346.13797	0.77258
1344.20941	0.77448
1342.28084	0.77732
1340.35228	0.78234
1338.42371	0.78878
1336.49515	0.79443
1334.56659	0.80049
1332.63802	0.80787
1330.70946	0.81554
1328.78089	0.82204
1326.85233	0.82658
1324.92376	0.82958
1322.99520	0.83220
1321.06663	0.83523
1319.13807	0.83827
1317.20951	0.84007
1315.28094	0.84047
1313.35238	0.84035
1311.42381	0.83988
1309.49525	0.83877
1307.56668	0.83687
1305.63812	0.83430
1303.70955	0.83148
1301.78099	0.82856
1299.85243	0.82529
1297.92386	0.82144
1295.99530	0.81750
1294.06673	0.81463
1292.13817	0.81348
1290.20960	0.81373
1288.28104	0.81462
1286.35247	0.81562
1284.42391	0.81655
1282.49535	0.81757
1280.56678	0.81937
1278.63822	0.82251
1276.70965	0.82668
1274.78109	0.83157
1272.85252	0.83767
1270.92396	0.84514
1268.99539	0.85297
1267.06683	0.86022
1265.13827	0.86631
1263.20970	0.87064
1261.28114	0.87309
1259.35257	0.87442
1257.42401	0.87565
1255.49544	0.87722
1253.56688	0.87880
1251.63831	0.88007
1249.70975	0.88117
1247.78119	0.88225
1245.85262	0.88284
1243.92406	0.88233
1241.99549	0.88069
1240.06693	0.87810
1238.13836	0.87447
1236.20980	0.86976
1234.28123	0.86397
1232.35267	0.85708
1230.42411	0.84939
1228.49554	0.84140
1226.56698	0.83350
1224.63841	0.82574
1222.70985	0.81804
1220.78128	0.81072
1218.85272	0.80468
1216.92415	0.80056
1214.99559	0.79856
1213.06703	0.79884
1211.13846	0.80100
1209.20990	0.80372
1207.28133	0.80570
1205.35277	0.80570
1203.42420	0.80292
1201.49564	0.79821
1199.56708	0.79303
1197.63851	0.78784
1195.70995	0.78283
1193.78138	0.77886
1191.85282	0.77689
1189.92425	0.77717
1187.99569	0.77927
1186.06712	0.78272
1184.13856	0.78728
1182.21000	0.79270
1180.28143	0.79917
1178.35287	0.80682
1176.42430	0.81514
1174.49574	0.82333
1172.56717	0.83088
1170.63861	0.83845
1168.71004	0.84750
1166.78148	0.85878
1164.85292	0.87207
1162.92435	0.88599
1160.99579	0.89793
1159.06722	0.90529
1157.13866	0.90654
1155.21009	0.90172
1153.28153	0.89227
1151.35296	0.88029
1149.42440	0.86777
1147.49584	0.85651
1145.56727	0.84839
1143.63871	0.84492
1141.71014	0.84666
1139.78158	0.85280
1137.85301	0.86174
1135.92445	0.87269
1133.99588	0.88580
1132.06732	0.90061
1130.13876	0.91603
1128.21019	0.93134
1126.28163	0.94548
1124.35306	0.95695
1122.42450	0.96570
1120.49593	0.97257
1118.56737	0.97673
1116.63880	0.97694
1114.71024	0.97331
1112.78168	0.96722
1110.85311	0.96026
1108.92455	0.95316
1106.99598	0.94644
1105.06742	0.94069
1103.13885	0.93557
1101.21029	0.93140
1099.28172	0.92991
1097.35316	0.93184
1095.42460	0.93673
1093.49603	0.94385
1091.56747	0.95251
1089.63890	0.96209
1087.71034	0.97225
1085.78177	0.98305
1083.85321	0.99341
1081.92464	1.00064
1079.99608	1.00369
1078.06752	1.00305
1076.13895	0.99886
1074.21039	0.99178
1072.28182	0.98284
1070.35326	0.97243
1068.42469	0.96149
1066.49613	0.95181
1064.56756	0.94406
1062.63900	0.93723
1060.71044	0.93076
1058.78187	0.92499
1056.85331	0.92011
1054.92474	0.91680
1052.99618	0.91548
1051.06761	0.91534
1049.13905	0.91615
1047.21049	0.91902
1045.28192	0.92486
1043.35336	0.93264
1041.42479	0.94011
1039.49623	0.94593
1037.56766	0.94998
1035.63910	0.95230
1033.71053	0.95289
1031.78197	0.95199
1029.85341	0.94936
1027.92484	0.94453
1025.99628	0.93829
1024.06771	0.93205
1022.13915	0.92646
1020.21058	0.92188
1018.28202	0.91811
1016.35345	0.91327
1014.42489	0.90562
1012.49633	0.89559
1010.56776	0.88425
1008.63920	0.87218
1006.71063	0.86047
1004.78207	0.85032
1002.85350	0.84209
1000.92494	0.83591
998.99637	0.83164
997.06781	0.82870
995.13925	0.82633
993.21068	0.82364
991.28212	0.82034
989.35355	0.81676
987.42499	0.81314
985.49642	0.80992
983.56786	0.80776
981.63929	0.80715
979.71073	0.80797
977.78217	0.80939
975.85360	0.80999
973.92504	0.80871
971.99647	0.80550
970.06791	0.80095
968.13934	0.79582
966.21078	0.79140
964.28221	0.78943
962.35365	0.79115
960.42509	0.79714
958.49652	0.80626
956.56796	0.81431
954.63939	0.81747
952.71083	0.81570
950.78226	0.81104
948.85370	0.80601
946.92513	0.80260
944.99657	0.80125
943.06801	0.80174
941.13944	0.80335
939.21088	0.80478
937.28231	0.80572
935.35375	0.80704
933.42518	0.80875
931.49662	0.80966
929.56805	0.80924
927.63949	0.80808
925.71093	0.80682
923.78236	0.80564
921.85380	0.80427
919.92523	0.80212
917.99667	0.79908
916.06810	0.79603
914.13954	0.79404
912.21098	0.79352
910.28241	0.79455
908.35385	0.79738
906.42528	0.80219
904.49672	0.80843
902.56815	0.81509
900.63959	0.82133
898.71102	0.82651
896.78246	0.83097
894.85390	0.83534
892.92533	0.83902
890.99677	0.84175
889.06820	0.84463
887.13964	0.84821
885.21107	0.85199
883.28251	0.85551
881.35394	0.85894
879.42538	0.86261
877.49682	0.86654
875.56825	0.87051
873.63969	0.87421
871.71112	0.87767
869.78256	0.88121
867.85399	0.88445
865.92543	0.88717
863.99686	0.89002
862.06830	0.89323
860.13974	0.89630
858.21117	0.89879
856.28261	0.90087
854.35404	0.90269
852.42548	0.90398
850.49691	0.90465
848.56835	0.90468
846.63978	0.90466
844.71122	0.90557
842.78266	0.90740
840.85409	0.90960
838.92553	0.91196
836.99696	0.91466
835.06840	0.91783
833.13983	0.92136
831.21127	0.92499
829.28270	0.92907
827.35414	0.93402
825.42558	0.93873
823.49701	0.94217
821.56845	0.94468
819.63988	0.94677
817.71132	0.94875
815.78275	0.95081
813.85419	0.95284
811.92562	0.95414
809.99706	0.95406
808.06850	0.95242
806.13993	0.94929
804.21137	0.94497
802.28280	0.93987
800.35424	0.93453
798.42567	0.92901
796.49711	0.92325
794.56854	0.91794
792.63998	0.91346
790.71142	0.90972
788.78285	0.90720
786.85429	0.90655
784.92572	0.90754
782.99716	0.90925
781.06859	0.91116
779.14003	0.91374
777.21147	0.91749
775.28290	0.92204
773.35434	0.92732
771.42577	0.93394
769.49721	0.94150
767.56864	0.94893
765.64008	0.95620
763.71151	0.96409
761.78295	0.97279
759.85439	0.98147
757.92582	0.98924
755.99726	0.99635
754.06869	1.00323
752.14013	1.00928
750.21156	1.01390
748.28300	1.01720
746.35443	1.01926
744.42587	1.02016
742.49731	1.01970
740.56874	1.01721
738.64018	1.01320
736.71161	1.00857
734.78305	1.00299
732.85448	0.99689
730.92592	0.99097
728.99735	0.98513
727.06879	0.97982
725.14023	0.97550
723.21166	0.97183
721.28310	0.96848
719.35453	0.96554
717.42597	0.96315
715.49740	0.96195
713.56884	0.96322
711.64027	0.96702
709.71171	0.97183
707.78315	0.97680
705.85458	0.98208
703.92602	0.98786
701.99745	0.99474
700.06889	1.00283
698.14032	1.01094
696.21176	1.01740
694.28319	1.02116
692.35463	1.02340
690.42607	1.02580
688.49750	1.02710
686.56894	1.02509
684.64037	1.02036
682.71181	1.01421
680.78324	1.00664
678.85468	0.99742
676.92611	0.98655
674.99755	0.97464
673.06899	0.96357
671.14042	0.95529
669.21186	0.94588
667.28329	0.93051
665.35473	0.92026
663.42616	0.91438
661.49760	0.90796
659.56903	0.90154
657.64047	0.89817
655.71191	0.89813
653.78334	0.90029
651.85478	0.90364
649.92621	0.90704
647.99765	0.91117
646.06908	0.91756
644.14052	0.92707
642.21195	0.93939
640.28339	0.95248
638.35483	0.96516
636.42626	0.97714
634.49770	0.98752
632.56913	0.99692
630.64057	1.00655
628.71200	1.01541
626.78344	1.02334
624.85488	1.03081
622.92631	1.03636
620.99775	1.03899
619.06918	1.03929
617.14062	1.03843
615.21205	1.03724
613.28349	1.03432
611.35492	1.02910
609.42636	1.02334
607.49780	1.01641
605.56923	1.00738
603.64067	0.99861
601.71210	0.99199
599.78354	0.98709
