3997.91406	0.88908
3995.98550	0.88848
3994.05693	0.88922
3992.12837	0.88885
3990.19980	0.88822
3988.27124	0.88897
3986.34268	0.88933
3984.41411	0.88853
3982.48555	0.88809
3980.55698	0.88785
3978.62842	0.88682
3976.69985	0.88542
3974.77129	0.88419
3972.84272	0.88356
3970.91416	0.88411
3968.98560	0.88512
3967.05703	0.88489
3965.12847	0.88390
3963.19990	0.88413
3961.27134	0.88472
3959.34277	0.88385
3957.41421	0.88306
3955.48564	0.88320
3953.55708	0.88230
3951.62852	0.88036
3949.69995	0.88037
3947.77139	0.88149
3945.84282	0.88059
3943.91426	0.87978
3941.98569	0.88026
3940.05713	0.87924
3938.12856	0.87664
3936.20000	0.87389
3934.27144	0.87203
3932.34287	0.87262
3930.41431	0.87436
3928.48574	0.87387
3926.55718	0.87299
3924.62861	0.87333
3922.70005	0.87108
3920.77148	0.86720
3918.84292	0.86736
3916.91436	0.86982
3914.98579	0.86920
3913.05723	0.86742
3911.12866	0.86573
3909.20010	0.86309
3907.27153	0.86044
3905.34297	0.86002
3903.41440	0.86179
3901.48584	0.86246
3899.55728	0.86296
3897.62871	0.86331
3895.70015	0.86182
3893.77158	0.86055
3891.84302	0.86215
3889.91445	0.86140
3887.98589	0.85683
3886.05733	0.85578
3884.12876	0.85877
3882.20020	0.85785
3880.27163	0.85522
3878.34307	0.85359
3876.41450	0.85229
3874.48594	0.85235
3872.55737	0.85278
3870.62881	0.85458
3868.70025	0.85785
3866.77168	0.85855
3864.84312	0.85896
3862.91455	0.85997
3860.98599	0.85829
3859.05742	0.85356
3857.12886	0.84599
3855.20029	0.83846
3853.27173	0.84642
3851.34317	0.85785
3849.41460	0.85696
3847.48604	0.85246
3845.55747	0.84878
3843.62891	0.84783
3841.70034	0.84815
3839.77178	0.84846
3837.84321	0.85005
3835.91465	0.84953
3833.98609	0.84749
3832.05752	0.84629
3830.12896	0.84437
3828.20039	0.84189
3826.27183	0.84047
3824.34326	0.83790
3822.41470	0.83593
3820.48613	0.83938
3818.55757	0.83965
3816.62901	0.83880
3814.70044	0.84081
3812.77188	0.84116
3810.84331	0.84004
3808.91475	0.83901
3806.98618	0.83883
3805.05762	0.83707
3803.12905	0.83522
3801.20049	0.83846
3799.27193	0.83967
3797.34336	0.83736
3795.41480	0.83539
3793.48623	0.83344
3791.55767	0.83270
3789.62910	0.83339
3787.70054	0.83335
3785.77197	0.83355
3783.84341	0.83452
3781.91485	0.83361
3779.98628	0.83262
3778.05772	0.83313
3776.12915	0.83194
3774.20059	0.82889
3772.27202	0.82611
3770.34346	0.82564
3768.41489	0.82623
3766.48633	0.82716
3764.55777	0.82859
3762.62920	0.82748
3760.70064	0.82540
3758.77207	0.82531
3756.84351	0.82440
3754.91494	0.82181
3752.98638	0.82012
3751.05781	0.82332
3749.12925	0.82608
3747.20069	0.82351
3745.27212	0.82286
3743.34356	0.82635
3741.41499	0.82708
3739.48643	0.82408
3737.55786	0.82012
3735.62930	0.81919
3733.70074	0.82063
3731.77217	0.82070
3729.84361	0.82034
3727.91504	0.82051
3725.98648	0.82093
3724.05791	0.82070
3722.12935	0.82083
3720.20078	0.82070
3718.27222	0.81844
3716.34366	0.81482
3714.41509	0.81090
3712.48653	0.80934
3710.55796	0.81472
3708.62940	0.81854
3706.70083	0.81774
3704.77227	0.81623
3702.84370	0.81707
3700.91514	0.81928
3698.98658	0.81925
3697.05801	0.81840
3695.12945	0.81788
3693.20088	0.81688
3691.27232	0.81752
3689.34375	0.82435
3687.41519	0.82877
3685.48662	0.82811
3683.55806	0.82688
3681.62950	0.82596
3679.70093	0.82387
3677.77237	0.81981
3675.84380	0.82308
3673.91524	0.83262
3671.98667	0.83682
3670.05811	0.84566
3668.12954	0.85361
3666.20098	0.85326
3664.27242	0.85091
3662.34385	0.84935
3660.41529	0.84893
3658.48672	0.85093
3656.55816	0.85760
3654.62959	0.86237
3652.70103	0.86124
3650.77246	0.86301
3648.84390	0.88085
3646.91534	0.89115
3644.98677	0.89059
3643.05821	0.89041
3641.12964	0.89218
3639.20108	0.89486
3637.27251	0.89858
3635.34395	0.90256
3633.41538	0.90435
3631.48682	0.90361
3629.55826	0.90921
3627.62969	0.92353
3625.70113	0.92968
3623.77256	0.93192
3621.84400	0.93414
3619.91543	0.93808
3617.98687	0.94397
3616.05830	0.94774
3614.12974	0.95183
3612.20118	0.95789
3610.27261	0.96377
3608.34405	0.97162
3606.41548	0.97798
3604.48692	0.97904
3602.55835	0.98128
3600.62979	0.98884
3598.70123	0.99561
3596.77266	0.99892
3594.84410	1.00398
3592.91553	1.00858
3590.98697	1.00826
3589.05840	1.00867
3587.12984	1.01826
3585.20127	1.02809
3583.27271	1.03188
3581.34415	1.03408
3579.41558	1.03660
3577.48702	1.04018
3575.55845	1.04583
3573.62989	1.05121
3571.70132	1.05294
3569.77276	1.05201
3567.84419	1.05516
3565.91563	1.06597
3563.98707	1.07262
3562.05850	1.07495
3560.12994	1.07764
3558.20137	1.08155
3556.27281	1.08566
3554.34424	1.08964
3552.41568	1.09381
3550.48711	1.09754
3548.55855	1.10189
3546.62999	1.10829
3544.70142	1.11458
3542.77286	1.11865
3540.84429	1.12122
3538.91573	1.12328
3536.98716	1.12538
3535.05860	1.12732
3533.13003	1.12885
3531.20147	1.13108
3529.27291	1.13591
3527.34434	1.14226
3525.41578	1.14671
3523.48721	1.15005
3521.55865	1.15442
3519.63008	1.15930
3517.70152	1.16327
3515.77295	1.16593
3513.84439	1.16868
3511.91583	1.17244
3509.98726	1.17768
3508.05870	1.18364
3506.13013	1.18808
3504.20157	1.19086
3502.27300	1.19252
3500.34444	1.19326
3498.41587	1.19436
3496.48731	1.19805
3494.55875	1.20350
3492.63018	1.20706
3490.70162	1.20880
3488.77305	1.21080
3486.84449	1.21335
3484.91592	1.21535
3482.98736	1.21764
3481.05879	1.22111
3479.13023	1.22212
3477.20167	1.22001
3475.27310	1.21870
3473.34454	1.22041
3471.41597	1.22447
3469.48741	1.22963
3467.55884	1.23517
3465.63028	1.23868
3463.70171	1.23852
3461.77315	1.23811
3459.84459	1.24017
3457.91602	1.24281
3455.98746	1.24502
3454.05889	1.24681
3452.13033	1.24705
3450.20176	1.24497
3448.27320	1.24195
3446.34464	1.24175
3444.41607	1.24449
3442.48751	1.24681
3440.55894	1.24860
3438.63038	1.25176
3436.70181	1.25429
3434.77325	1.25338
3432.84468	1.25137
3430.91612	1.25031
3428.98756	1.24986
3427.05899	1.25069
3425.13043	1.25285
3423.20186	1.25535
3421.27330	1.25641
3419.34473	1.25367
3417.41617	1.24976
3415.48760	1.24972
3413.55904	1.25217
3411.63048	1.25335
3409.70191	1.25410
3407.77335	1.25479
3405.84478	1.25529
3403.91622	1.25586
3401.98765	1.25594
3400.05909	1.25660
3398.13052	1.25771
3396.20196	1.25835
3394.27340	1.26044
3392.34483	1.26270
3390.41627	1.26047
3388.48770	1.25717
3386.55914	1.25903
3384.63057	1.26299
3382.70201	1.26405
3380.77344	1.26415
3378.84488	1.26471
3376.91632	1.26370
3374.98775	1.26143
3373.05919	1.25940
3371.13062	1.25720
3369.20206	1.25647
3367.27349	1.25927
3365.34493	1.26331
3363.41636	1.26432
3361.48780	1.26097
3359.55924	1.25667
3357.63067	1.25483
3355.70211	1.25528
3353.77354	1.25780
3351.84498	1.26205
3349.91641	1.26402
3347.98785	1.26198
3346.05928	1.26077
3344.13072	1.26186
3342.20216	1.26227
3340.27359	1.26269
3338.34503	1.26534
3336.41646	1.26828
3334.48790	1.26830
3332.55933	1.26729
3330.63077	1.26751
3328.70220	1.26897
3326.77364	1.27283
3324.84508	1.27709
3322.91651	1.27823
3320.98795	1.27769
3319.05938	1.27717
3317.13082	1.27570
3315.20225	1.27392
3313.27369	1.27395
3311.34513	1.27561
3309.41656	1.27701
3307.48800	1.27778
3305.55943	1.27889
3303.63087	1.27962
3301.70230	1.27952
3299.77374	1.28027
3297.84517	1.28131
3295.91661	1.28105
3293.98805	1.28064
3292.05948	1.28172
3290.13092	1.28326
3288.20235	1.28309
3286.27379	1.28202
3284.34522	1.28206
3282.41666	1.28234
3280.48809	1.28159
3278.55953	1.28071
3276.63097	1.28061
3274.70240	1.28158
3272.77384	1.28284
3270.84527	1.28247
3268.91671	1.28131
3266.98814	1.28153
3265.05958	1.28265
3263.13101	1.28238
3261.20245	1.27982
3259.27389	1.27616
3257.34532	1.27161
3255.41676	1.26646
3253.48819	1.26262
3251.55963	1.26044
3249.63106	1.25872
3247.70250	1.25598
3245.77393	1.25186
3243.84537	1.24787
3241.91681	1.24393
3239.98824	1.23928
3238.05968	1.23447
3236.13111	1.23037
3234.20255	1.22852
3232.27398	1.22834
3230.34542	1.22777
3228.41685	1.22639
3226.48829	1.22318
3224.55973	1.21879
3222.63116	1.21605
3220.70260	1.21506
3218.77403	1.21383
3216.84547	1.21181
3214.91690	1.20950
3212.98834	1.20626
3211.05977	1.20279
3209.13121	1.20103
3207.20265	1.20013
3205.27408	1.19813
3203.34552	1.19497
3201.41695	1.19223
3199.48839	1.19062
3197.55982	1.18882
3195.63126	1.18576
3193.70269	1.18130
3191.77413	1.17586
3189.84557	1.17181
3187.91700	1.17056
3185.98844	1.16896
3184.05987	1.16423
3182.13131	1.15947
3180.20274	1.15795
3178.27418	1.15778
3176.34562	1.15611
3174.41705	1.15334
3172.48849	1.15031
3170.55992	1.14703
3168.63136	1.14390
3166.70279	1.14048
3164.77423	1.13592
3162.84566	1.13130
3160.91710	1.12859
3158.98854	1.12752
3157.05997	1.12587
3155.13141	1.12316
3153.20284	1.12056
3151.27428	1.11818
3149.34571	1.11587
3147.41715	1.11384
3145.48858	1.11234
3143.56002	1.11159
3141.63146	1.11036
3139.70289	1.10687
3137.77433	1.10291
3135.84576	1.10155
3133.91720	1.10116
3131.98863	1.09924
3130.06007	1.09796
3128.13150	1.09913
3126.20294	1.10015
3124.27438	1.09869
3122.34581	1.09683
3120.41725	1.09735
3118.48868	1.09916
3116.56012	1.09936
3114.63155	1.09755
3112.70299	1.09598
3110.77442	1.09599
3108.84586	1.09671
3106.91730	1.09680
3104.98873	1.09624
3103.06017	1.09567
3101.13160	1.09460
3099.20304	1.09228
3097.27447	1.08942
3095.34591	1.08732
3093.41734	1.08589
3091.48878	1.08426
3089.56022	1.08281
3087.63165	1.08136
3085.70309	1.07883
3083.77452	1.07597
3081.84596	1.07366
3079.91739	1.07096
3077.98883	1.06736
3076.06026	1.06387
3074.13170	1.06125
3072.20314	1.05939
3070.27457	1.05822
3068.34601	1.05718
3066.41744	1.05506
3064.48888	1.05187
3062.56031	1.04882
3060.63175	1.04605
3058.70318	1.04290
3056.77462	1.03987
3054.84606	1.03741
3052.91749	1.03467
3050.98893	1.03127
3049.06036	1.02798
3047.13180	1.02501
3045.20323	1.02154
3043.27467	1.01787
3041.34610	1.01518
3039.41754	1.01302
3037.48898	1.01028
3035.56041	1.00717
3033.63185	1.00438
3031.70328	1.00227
3029.77472	1.00048
3027.84615	0.99841
3025.91759	0.99634
3023.98903	0.99442
3022.06046	0.99203
3020.13190	0.98901
3018.20333	0.98622
3016.27477	0.98401
3014.34620	0.98183
3012.41764	0.97989
3010.48907	0.97841
3008.56051	0.97674
3006.63195	0.97517
3004.70338	0.97424
3002.77482	0.97314
3000.84625	0.97177
2998.91769	0.97108
2996.98912	0.97076
2995.06056	0.97050
2993.13199	0.97090
2991.20343	0.97182
2989.27487	0.97320
2987.34630	0.97503
2985.41774	0.97683
2983.48917	0.97902
2981.56061	0.98191
2979.63204	0.98455
2977.70348	0.98656
2975.77491	0.98898
2973.84635	0.99229
2971.91779	0.99606
2969.98922	1.00032
2968.06066	1.00525
2966.13209	1.00977
2964.20353	1.01245
2962.27496	1.01365
2960.34640	1.01449
2958.41783	1.01434
2956.48927	1.01181
2954.56071	1.00728
2952.63214	1.00204
2950.70358	0.99737
2948.77501	0.99474
2946.84645	0.99491
2944.91788	0.99764
2942.98932	1.00202
2941.06075	1.00704
2939.13219	1.01240
2937.20363	1.01823
2935.27506	1.02446
2933.34650	1.03095
2931.41793	1.03797
2929.48937	1.04553
2927.56080	1.05288
2925.63224	1.05951
2923.70367	1.06552
2921.77511	1.07105
2919.84655	1.07587
2917.91798	1.07820
2915.98942	1.07373
2914.06085	1.05981
2912.13229	1.04122
2910.20372	1.02505
2908.27516	1.01284
2906.34659	1.00299
2904.41803	0.99522
2902.48947	0.98932
2900.56090	0.98477
2898.63234	0.98145
2896.70377	0.97864
2894.77521	0.97560
2892.84664	0.97213
2890.91808	0.96820
2888.98952	0.96434
2887.06095	0.96157
2885.13239	0.96012
2883.20382	0.95895
2881.27526	0.95765
2879.34669	0.95689
2877.41813	0.95625
2875.48956	0.95498
2873.56100	0.95273
2871.63244	0.94904
2869.70387	0.94494
2867.77531	0.94191
2865.84674	0.93950
2863.91818	0.93736
2861.98961	0.93690
2860.06105	0.93945
2858.13248	0.94493
2856.20392	0.95214
2854.27536	0.96040
2852.34679	0.96963
2850.41823	0.97640
2848.48966	0.97270
2846.56110	0.95581
2844.63253	0.93392
2842.70397	0.91533
2840.77540	0.90181
2838.84684	0.89219
2836.91828	0.88504
2834.98971	0.87944
2833.06115	0.87479
2831.13258	0.87074
2829.20402	0.86727
2827.27545	0.86381
2825.34689	0.86004
2823.41832	0.85698
2821.48976	0.85472
2819.56120	0.85211
2817.63263	0.84904
2815.70407	0.84613
2813.77550	0.84359
2811.84694	0.84149
2809.91837	0.83964
2807.98981	0.83737
2806.06124	0.83464
2804.13268	0.83215
2802.20412	0.82984
2800.27555	0.82722
2798.34699	0.82458
2796.41842	0.82257
2794.48986	0.82083
2792.56129	0.81883
2790.63273	0.81720
2788.70416	0.81601
2786.77560	0.81441
2784.84704	0.81252
2782.91847	0.81066
2780.98991	0.80827
2779.06134	0.80573
2777.13278	0.80398
2775.20421	0.80248
2773.27565	0.80049
2771.34708	0.79830
2769.41852	0.79640
2767.48996	0.79480
2765.56139	0.79332
2763.63283	0.79223
2761.70426	0.79119
2759.77570	0.78933
2757.84713	0.78683
2755.91857	0.78462
2753.99001	0.78319
2752.06144	0.78191
2750.13288	0.78046
2748.20431	0.77957
2746.27575	0.77907
2744.34718	0.77782
2742.41862	0.77588
2740.49005	0.77408
2738.56149	0.77249
2736.63293	0.77094
2734.70436	0.76928
2732.77580	0.76756
2730.84723	0.76611
2728.91867	0.76490
2726.99010	0.76384
2725.06154	0.76297
2723.13297	0.76187
2721.20441	0.76044
2719.27585	0.75936
2717.34728	0.75867
2715.41872	0.75742
2713.49015	0.75537
2711.56159	0.75354
2709.63302	0.75245
2707.70446	0.75140
2705.77589	0.75006
2703.84733	0.74868
2701.91877	0.74731
2699.99020	0.74598
2698.06164	0.74477
2696.13307	0.74372
2694.20451	0.74256
2692.27594	0.74103
2690.34738	0.73947
2688.41881	0.73820
2686.49025	0.73740
2684.56169	0.73685
2682.63312	0.73587
2680.70456	0.73426
2678.77599	0.73264
2676.84743	0.73144
2674.91886	0.73053
2672.99030	0.72972
2671.06173	0.72866
2669.13317	0.72709
2667.20461	0.72546
2665.27604	0.72408
2663.34748	0.72296
2661.41891	0.72215
2659.49035	0.72153
2657.56178	0.72092
2655.63322	0.72023
2653.70465	0.71954
2651.77609	0.71872
2649.84753	0.71758
2647.91896	0.71649
2645.99040	0.71567
2644.06183	0.71465
2642.13327	0.71323
2640.20470	0.71198
2638.27614	0.71123
2636.34757	0.71038
2634.41901	0.70902
2632.49045	0.70732
2630.56188	0.70563
2628.63332	0.70439
2626.70475	0.70370
2624.77619	0.70303
2622.84762	0.70193
2620.91906	0.70051
2618.99049	0.69888
2617.06193	0.69715
2615.13337	0.69589
2613.20480	0.69515
2611.27624	0.69415
2609.34767	0.69252
2607.41911	0.69077
2605.49054	0.68931
2603.56198	0.68814
2601.63342	0.68726
2599.70485	0.68649
2597.77629	0.68547
2595.84772	0.68447
2593.91916	0.68393
2591.99059	0.68345
2590.06203	0.68248
2588.13346	0.68105
2586.20490	0.67950
2584.27634	0.67829
2582.34777	0.67735
2580.41921	0.67624
2578.49064	0.67512
2576.56208	0.67418
2574.63351	0.67309
2572.70495	0.67169
2570.77638	0.67024
2568.84782	0.66890
2566.91926	0.66760
2564.99069	0.66634
2563.06213	0.66524
2561.13356	0.66419
2559.20500	0.66306
2557.27643	0.66179
2555.34787	0.66034
2553.41930	0.65884
2551.49074	0.65738
2549.56218	0.65580
2547.63361	0.65411
2545.70505	0.65276
2543.77648	0.65176
2541.84792	0.65077
2539.91935	0.64970
2537.99079	0.64857
2536.06222	0.64733
2534.13366	0.64610
2532.20510	0.64518
2530.27653	0.64446
2528.34797	0.64371
2526.41940	0.64303
2524.49084	0.64211
2522.56227	0.64079
2520.63371	0.63957
2518.70514	0.63867
2516.77658	0.63794
2514.84802	0.63746
2512.91945	0.63703
2510.99089	0.63637
2509.06232	0.63553
2507.13376	0.63464
2505.20519	0.63378
2503.27663	0.63290
2501.34806	0.63202
2499.41950	0.63119
2497.49094	0.63028
2495.56237	0.62920
2493.63381	0.62811
2491.70524	0.62699
2489.77668	0.62556
2487.84811	0.62385
2485.91955	0.62249
2483.99098	0.62163
2482.06242	0.62083
2480.13386	0.61977
2478.20529	0.61864
2476.27673	0.61752
2474.34816	0.61636
2472.41960	0.61526
2470.49103	0.61408
2468.56247	0.61274
2466.63391	0.61160
2464.70534	0.61056
2462.77678	0.60924
2460.84821	0.60789
2458.91965	0.60683
2456.99108	0.60609
2455.06252	0.60547
2453.13395	0.60473
2451.20539	0.60388
2449.27683	0.60288
2447.34826	0.60183
2445.41970	0.60103
2443.49113	0.60044
2441.56257	0.59967
2439.63400	0.59868
2437.70544	0.59775
2435.77687	0.59709
2433.84831	0.59666
2431.91975	0.59626
2429.99118	0.59566
2428.06262	0.59479
2426.13405	0.59390
2424.20549	0.59301
2422.27692	0.59189
2420.34836	0.59067
2418.41979	0.58968
2416.49123	0.58885
2414.56267	0.58797
2412.63410	0.58714
2410.70554	0.58637
2408.77697	0.58537
2406.84841	0.58423
2404.91984	0.58322
2402.99128	0.58218
2401.06271	0.58115
2399.13415	0.58030
2397.20559	0.57954
2395.27702	0.57875
2393.34846	0.57788
2391.41989	0.57698
2389.49133	0.57623
2387.56276	0.57561
2385.63420	0.57497
2383.70563	0.57440
2381.77707	0.57405
2379.84851	0.57400
2377.91994	0.57418
2375.99138	0.57431
2374.06281	0.57442
2372.13425	0.57507
2370.20568	0.57592
2368.27712	0.57482
2366.34855	0.57081
2364.41999	0.56819
2362.49143	0.57022
2360.56286	0.57361
2358.63430	0.57596
2356.70573	0.57633
2354.77717	0.57469
2352.84860	0.57255
2350.92004	0.56931
2348.99147	0.56552
2347.06291	0.56346
2345.13435	0.56523
2343.20578	0.56831
2341.27722	0.56790
2339.34865	0.56606
2337.42009	0.56520
2335.49152	0.56456
2333.56296	0.56411
2331.63440	0.56420
2329.70583	0.56369
2327.77727	0.56232
2325.84870	0.56081
2323.92014	0.55948
2321.99157	0.55848
2320.06301	0.55748
2318.13444	0.55631
2316.20588	0.55539
2314.27732	0.55481
2312.34875	0.55406
2310.42019	0.55289
2308.49162	0.55176
2306.56306	0.55097
2304.63449	0.55016
2302.70593	0.54917
2300.77736	0.54806
2298.84880	0.54686
2296.92024	0.54570
2294.99167	0.54472
2293.06311	0.54379
2291.13454	0.54273
2289.20598	0.54155
2287.27741	0.54025
2285.34885	0.53907
2283.42028	0.53821
2281.49172	0.53731
2279.56316	0.53619
2277.63459	0.53518
2275.70603	0.53446
2273.77746	0.53399
2271.84890	0.53363
2269.92033	0.53315
2267.99177	0.53253
2266.06320	0.53192
2264.13464	0.53145
2262.20608	0.53115
2260.27751	0.53083
2258.34895	0.53031
2256.42038	0.52977
2254.49182	0.52947
2252.56325	0.52936
2250.63469	0.52908
2248.70612	0.52847
2246.77756	0.52780
2244.84900	0.52735
2242.92043	0.52697
2240.99187	0.52659
2239.06330	0.52639
2237.13474	0.52610
2235.20617	0.52549
2233.27761	0.52490
2231.34904	0.52450
2229.42048	0.52419
2227.49192	0.52390
2225.56335	0.52362
2223.63479	0.52335
2221.70622	0.52299
2219.77766	0.52244
2217.84909	0.52180
2215.92053	0.52123
2213.99196	0.52077
2212.06340	0.52043
2210.13484	0.52009
2208.20627	0.51971
2206.27771	0.51926
2204.34914	0.51863
2202.42058	0.51782
2200.49201	0.51710
2198.56345	0.51665
2196.63488	0.51630
2194.70632	0.51586
2192.77776	0.51541
2190.84919	0.51494
2188.92063	0.51443
2186.99206	0.51392
2185.06350	0.51341
2183.13493	0.51285
2181.20637	0.51230
2179.27781	0.51179
2177.34924	0.51126
2175.42068	0.51062
2173.49211	0.51003
2171.56355	0.50955
2169.63498	0.50891
2167.70642	0.50824
2165.77785	0.50799
2163.84929	0.50807
2161.92073	0.50804
2159.99216	0.50779
2158.06360	0.50748
2156.13503	0.50716
2154.20647	0.50680
2152.27790	0.50638
2150.34934	0.50603
2148.42077	0.50585
2146.49221	0.50573
2144.56365	0.50536
2142.63508	0.50466
2140.70652	0.50399
2138.77795	0.50364
2136.84939	0.50352
2134.92082	0.50343
2132.99226	0.50313
2131.06369	0.50250
2129.13513	0.50186
2127.20657	0.50143
2125.27800	0.50097
2123.34944	0.50040
2121.42087	0.49990
2119.49231	0.49938
2117.56374	0.49873
2115.63518	0.49815
2113.70661	0.49777
2111.77805	0.49746
2109.84949	0.49702
2107.92092	0.49638
2105.99236	0.49580
2104.06379	0.49546
2102.13523	0.49525
2100.20666	0.49497
2098.27810	0.49456
2096.34953	0.49426
2094.42097	0.49421
2092.49241	0.49416
2090.56384	0.49393
2088.63528	0.49361
2086.70671	0.49318
2084.77815	0.49249
2082.84958	0.49176
2080.92102	0.49133
2078.99245	0.49112
2077.06389	0.49081
2075.13533	0.49023
2073.20676	0.48949
2071.27820	0.48881
2069.34963	0.48817
2067.42107	0.48761
2065.49250	0.48721
2063.56394	0.48675
2061.63537	0.48606
2059.70681	0.48528
2057.77825	0.48457
2055.84968	0.48392
2053.92112	0.48329
2051.99255	0.48281
2050.06399	0.48248
2048.13542	0.48200
2046.20686	0.48140
2044.27830	0.48103
2042.34973	0.48092
2040.42117	0.48075
2038.49260	0.48032
2036.56404	0.47988
2034.63547	0.47966
2032.70691	0.47951
2030.77834	0.47929
2028.84978	0.47908
2026.92122	0.47902
2024.99265	0.47902
2023.06409	0.47890
2021.13552	0.47869
2019.20696	0.47863
2017.27839	0.47860
2015.34983	0.47829
2013.42126	0.47777
2011.49270	0.47739
2009.56414	0.47714
2007.63557	0.47675
2005.70701	0.47618
2003.77844	0.47559
2001.84988	0.47513
1999.92131	0.47489
1997.99275	0.47477
1996.06418	0.47457
1994.13562	0.47437
1992.20706	0.47444
1990.27849	0.47447
1988.34993	0.47421
1986.42136	0.47399
1984.49280	0.47388
1982.56423	0.47373
1980.63567	0.47357
1978.70710	0.47349
1976.77854	0.47344
1974.84998	0.47331
1972.92141	0.47304
1970.99285	0.47261
1969.06428	0.47238
1967.13572	0.47243
1965.20715	0.47204
1963.27859	0.47114
1961.35002	0.47039
1959.42146	0.46982
1957.49290	0.46923
1955.56433	0.46860
1953.63577	0.46779
1951.70720	0.46688
1949.77864	0.46616
1947.85007	0.46563
1945.92151	0.46530
1943.99294	0.46547
1942.06438	0.46580
1940.13582	0.46531
1938.20725	0.46434
1936.27869	0.46375
1934.35012	0.46367
1932.42156	0.46388
1930.49299	0.46416
1928.56443	0.46426
1926.63586	0.46410
1924.70730	0.46431
1922.77874	0.46518
1920.85017	0.46564
1918.92161	0.46598
1916.99304	0.46673
1915.06448	0.46694
1913.13591	0.46680
1911.20735	0.46726
1909.27878	0.46827
1907.35022	0.46888
1905.42166	0.46884
1903.49309	0.46866
1901.56453	0.46863
1899.63596	0.46869
1897.70740	0.46889
1895.77883	0.46943
1893.85027	0.46966
1891.92171	0.46940
1889.99314	0.46958
1888.06458	0.46979
1886.13601	0.46949
1884.20745	0.46922
1882.27888	0.46901
1880.35032	0.46864
1878.42175	0.46812
1876.49319	0.46760
1874.56463	0.46720
1872.63606	0.46687
1870.70750	0.46719
1868.77893	0.46876
1866.85037	0.46919
1864.92180	0.46780
1862.99324	0.46653
1861.06467	0.46590
1859.13611	0.46561
1857.20755	0.46551
1855.27898	0.46553
1853.35042	0.46572
1851.42185	0.46601
1849.49329	0.46636
1847.56472	0.46682
1845.63616	0.46803
1843.70759	0.46980
1841.77903	0.46976
1839.85047	0.46876
1837.92190	0.46852
1835.99334	0.46872
1834.06477	0.46830
1832.13621	0.46806
1830.20764	0.46925
1828.27908	0.47029
1826.35051	0.46999
1824.42195	0.46961
1822.49339	0.46885
1820.56482	0.46783
1818.63626	0.46742
1816.70769	0.46737
1814.77913	0.46717
1812.85056	0.46728
1810.92200	0.46814
1808.99343	0.46886
1807.06487	0.46883
1805.13631	0.46861
1803.20774	0.46891
1801.27918	0.47028
1799.35061	0.47176
1797.42205	0.47240
1795.49348	0.47280
1793.56492	0.47441
1791.63635	0.47739
1789.70779	0.47814
1787.77923	0.47747
1785.85066	0.47769
1783.92210	0.47874
1781.99353	0.47981
1780.06497	0.48082
1778.13640	0.48126
1776.20784	0.48123
1774.27927	0.48213
1772.35071	0.48497
1770.42215	0.48656
1768.49358	0.48604
1766.56502	0.48536
1764.63645	0.48510
1762.70789	0.48619
1760.77932	0.48812
1758.85076	0.48916
1756.92220	0.49053
1754.99363	0.49191
1753.06507	0.49331
1751.13650	0.49760
1749.20794	0.50484
1747.27937	0.50950
1745.35081	0.51201
1743.42224	0.51493
1741.49368	0.51875
1739.56512	0.52276
1737.63655	0.52481
1735.70799	0.52637
1733.77942	0.53218
1731.85086	0.53708
1729.92229	0.53858
1727.99373	0.53998
1726.06516	0.54201
1724.13660	0.54539
1722.20804	0.54862
1720.27947	0.55105
1718.35091	0.55720
1716.42234	0.57012
1714.49378	0.57654
1712.56521	0.57879
1710.63665	0.58227
1708.70808	0.58769
1706.77952	0.59731
1704.85096	0.61053
1702.92239	0.62111
1700.99383	0.63647
1699.06526	0.66467
1697.13670	0.69287
1695.20813	0.71746
1693.27957	0.73211
1691.35100	0.74366
1689.42244	0.75997
1687.49388	0.77521
1685.56531	0.79072
1683.63675	0.82092
1681.70818	0.84238
1679.77962	0.85200
1677.85105	0.86051
1675.92249	0.87282
1673.99392	0.88748
1672.06536	0.89855
1670.13680	0.91285
1668.20823	0.92796
1666.27967	0.93442
1664.35110	0.94132
1662.42254	0.95462
1660.49397	0.96553
1658.56541	0.97002
1656.63684	0.97203
1654.70828	0.97598
1652.77972	0.98907
1650.85115	0.99372
1648.92259	0.99310
1646.99402	0.99652
1645.06546	0.99877
1643.13689	0.99710
1641.20833	0.99590
1639.27976	0.99577
1637.35120	0.99839
1635.42264	1.00458
1633.49407	1.00428
1631.56551	1.00092
1629.63694	0.99852
1627.70838	0.99732
1625.77981	0.99548
1623.85125	0.99088
1621.92269	0.98255
1619.99412	0.97335
1618.06556	0.96230
1616.13699	0.94590
1614.20843	0.93096
1612.27986	0.91867
1610.35130	0.90625
1608.42273	0.89404
1606.49417	0.88396
1604.56561	0.87659
1602.63704	0.87102
1600.70848	0.86674
1598.77991	0.86389
1596.85135	0.86264
1594.92278	0.86253
1592.99422	0.86294
1591.06565	0.86467
1589.13709	0.86844
1587.20853	0.87371
1585.27996	0.88002
1583.35140	0.88732
1581.42283	0.89449
1579.49427	0.90043
1577.56570	0.90871
1575.63714	0.92247
1573.70857	0.92931
1571.78001	0.93209
1569.85145	0.93927
1567.92288	0.94702
1565.99432	0.95095
1564.06575	0.95478
1562.13719	0.95758
1560.20862	0.96193
1558.28006	0.97602
1556.35149	0.97975
1554.42293	0.97799
1552.49437	0.97676
1550.56580	0.97650
1548.63724	0.97619
1546.70867	0.97491
1544.78011	0.97412
1542.85154	0.97558
1540.92298	0.97700
1538.99441	0.97187
1537.06585	0.96687
1535.13729	0.96387
1533.20872	0.96197
1531.28016	0.95833
1529.35159	0.95406
1527.42303	0.95118
1525.49446	0.94894
1523.56590	0.94613
1521.63733	0.94386
1519.70877	0.94243
1517.78021	0.93848
1515.85164	0.93039
1513.92308	0.92058
1511.99451	0.91102
1510.06595	0.90295
1508.13738	0.89289
1506.20882	0.87158
1504.28025	0.85812
1502.35169	0.84931
1500.42313	0.84058
1498.49456	0.83110
1496.56600	0.82037
1494.63743	0.81111
1492.70887	0.80441
1490.78030	0.79894
1488.85174	0.79347
1486.92317	0.78784
1484.99461	0.78324
1483.06605	0.78079
1481.13748	0.78054
1479.20892	0.78173
1477.28035	0.78504
1475.35179	0.79249
1473.42322	0.80640
1471.49466	0.81870
1469.56610	0.82211
1467.63753	0.82399
1465.70897	0.82907
1463.78040	0.83531
1461.85184	0.83736
1459.92327	0.83789
1457.99471	0.84359
1456.06614	0.85135
1454.13758	0.85023
1452.20902	0.84758
1450.28045	0.84577
1448.35189	0.84448
1446.42332	0.84255
1444.49476	0.83979
1442.56619	0.83680
1440.63763	0.83373
1438.70906	0.83028
1436.78050	0.82560
1434.85194	0.81979
1432.92337	0.81415
1430.99481	0.80823
1429.06624	0.80191
1427.13768	0.79693
1425.20911	0.79425
1423.28055	0.79333
1421.35198	0.79326
1419.42342	0.79517
1417.49486	0.79753
1415.56629	0.79716
1413.63773	0.79612
1411.70916	0.79533
1409.78060	0.79449
1407.85203	0.79385
1405.92347	0.79428
1403.99490	0.79548
1402.06634	0.79628
1400.13778	0.79766
1398.20921	0.79995
1396.28065	0.80193
1394.35208	0.80340
1392.42352	0.80444
1390.49495	0.80634
1388.56639	0.81205
1386.63782	0.82236
1384.70926	0.83180
1382.78070	0.83850
1380.85213	0.84310
1378.92357	0.84456
1376.99500	0.84251
1375.06644	0.83698
1373.13787	0.82874
1371.20931	0.82025
1369.28074	0.81120
1367.35218	0.80109
1365.42362	0.79164
1363.49505	0.78324
1361.56649	0.77596
1359.63792	0.77045
1357.70936	0.76646
1355.78079	0.76373
1353.85223	0.76185
1351.92366	0.76047
1349.99510	0.75968
1348.06654	0.75948
1346.13797	0.75965
1344.20941	0.76024
1342.28084	0.76185
1340.35228	0.76511
1338.42371	0.76902
1336.49515	0.77237
1334.56659	0.77621
1332.63802	0.78102
1330.70946	0.78610
1328.78089	0.79049
1326.85233	0.79369
1324.92376	0.79568
1322.99520	0.79704
1321.06663	0.79865
1319.13807	0.80044
1317.20951	0.80141
1315.28094	0.80163
1313.35238	0.80190
1311.42381	0.80199
1309.49525	0.80142
1307.56668	0.80023
1305.63812	0.79864
1303.70955	0.79691
1301.78099	0.79518
1299.85243	0.79343
1297.92386	0.79147
1295.99530	0.78949
1294.06673	0.78799
1292.13817	0.78740
1290.20960	0.78787
1288.28104	0.78905
1286.35247	0.79019
1284.42391	0.79099
1282.49535	0.79164
1280.56678	0.79220
1278.63822	0.79287
1276.70965	0.79406
1274.78109	0.79609
1272.85252	0.79946
1270.92396	0.80410
1268.99539	0.80917
1267.06683	0.81408
1265.13827	0.81829
1263.20970	0.82108
1261.28114	0.82223
1259.35257	0.82211
1257.42401	0.82140
1255.49544	0.82082
1253.56688	0.82060
1251.63831	0.82055
1249.70975	0.82043
1247.78119	0.82015
1245.85262	0.81981
1243.92406	0.81929
1241.99549	0.81821
1240.06693	0.81656
1238.13836	0.81462
1236.20980	0.81239
1234.28123	0.80963
1232.35267	0.80615
1230.42411	0.80190
1228.49554	0.79717
1226.56698	0.79228
1224.63841	0.78739
1222.70985	0.78262
1220.78128	0.77809
1218.85272	0.77402
1216.92415	0.77080
1214.99559	0.76905
1213.06703	0.76924
1211.13846	0.77131
1209.20990	0.77456
1207.28133	0.77752
1205.35277	0.77858
1203.42420	0.77699
1201.49564	0.77320
1199.56708	0.76790
1197.63851	0.76147
1195.70995	0.75444
1193.78138	0.74772
1191.85282	0.74193
1189.92425	0.73695
1187.99569	0.73258
1186.06712	0.72924
1184.13856	0.72747
1182.21000	0.72717
1180.28143	0.72783
1178.35287	0.72938
1176.42430	0.73172
1174.49574	0.73435
1172.56717	0.73711
1170.63861	0.74058
1168.71004	0.74563
1166.78148	0.75298
1164.85292	0.76257
1162.92435	0.77338
1160.99579	0.78371
1159.06722	0.79198
1157.13866	0.79699
1155.21009	0.79796
1153.28153	0.79470
1151.35296	0.78758
1149.42440	0.77770
1147.49584	0.76667
1145.56727	0.75612
1143.63871	0.74740
1141.71014	0.74126
1139.78158	0.73797
1137.85301	0.73741
1135.92445	0.73899
1133.99588	0.74266
1132.06732	0.74888
1130.13876	0.75731
1128.21019	0.76681
1126.28163	0.77631
1124.35306	0.78487
1122.42450	0.79209
1120.49593	0.79806
1118.56737	0.80268
1116.63880	0.80559
1114.71024	0.80663
1112.78168	0.80556
1110.85311	0.80224
1108.92455	0.79745
1106.99598	0.79239
1105.06742	0.78750
1103.13885	0.78289
1101.21029	0.77920
1099.28172	0.77698
1097.35316	0.77653
1095.42460	0.77830
1093.49603	0.78237
1091.56747	0.78799
1089.63890	0.79455
1087.71034	0.80218
1085.78177	0.81121
1083.85321	0.82168
1081.92464	0.83292
1079.99608	0.84281
1078.06752	0.84914
1076.13895	0.85218
1074.21039	0.85309
1072.28182	0.85213
1070.35326	0.84952
1068.42469	0.84549
1066.49613	0.84039
1064.56756	0.83494
1062.63900	0.82951
1060.71044	0.82410
1058.78187	0.81860
1056.85331	0.81287
1054.92474	0.80717
1052.99618	0.80245
1051.06761	0.79923
1049.13905	0.79701
1047.21049	0.79609
1045.28192	0.79780
1043.35336	0.80223
1041.42479	0.80828
1039.49623	0.81465
1037.56766	0.81993
1035.63910	0.82353
1033.71053	0.82570
1031.78197	0.82628
1029.85341	0.82496
1027.92484	0.82193
1025.99628	0.81755
1024.06771	0.81209
1022.13915	0.80626
1020.21058	0.80110
1018.28202	0.79702
1016.35345	0.79333
1014.42489	0.78861
1012.49633	0.78121
1010.56776	0.77047
1008.63920	0.75703
1006.71063	0.74219
1004.78207	0.72748
1002.85350	0.71425
1000.92494	0.70319
998.99637	0.69431
997.06781	0.68742
995.13925	0.68189
993.21068	0.67653
991.28212	0.67068
989.35355	0.66436
987.42499	0.65783
985.49642	0.65188
983.56786	0.64730
981.63929	0.64402
979.71073	0.64198
977.78217	0.64099
975.85360	0.63976
973.92504	0.63695
971.99647	0.63226
970.06791	0.62597
968.13934	0.61904
966.21078	0.61284
964.28221	0.60860
962.35365	0.60732
960.42509	0.60996
958.49652	0.61643
956.56796	0.62394
954.63939	0.62854
952.71083	0.62815
950.78226	0.62336
948.85370	0.61644
946.92513	0.60955
944.99657	0.60377
943.06801	0.59949
941.13944	0.59634
939.21088	0.59371
937.28231	0.59152
935.35375	0.58998
933.42518	0.58912
931.49662	0.58884
929.56805	0.58887
927.63949	0.58895
925.71093	0.58933
923.78236	0.59044
921.85380	0.59189
919.92523	0.59274
917.99667	0.59260
916.06810	0.59173
914.13954	0.59065
912.21098	0.58988
910.28241	0.58976
908.35385	0.59045
906.42528	0.59204
904.49672	0.59439
902.56815	0.59707
900.63959	0.59940
898.71102	0.60092
896.78246	0.60144
894.85390	0.60093
892.92533	0.59956
890.99677	0.59758
889.06820	0.59540
887.13964	0.59344
885.21107	0.59169
883.28251	0.58997
881.35394	0.58847
879.42538	0.58761
877.49682	0.58732
875.56825	0.58688
873.63969	0.58623
871.71112	0.58588
869.78256	0.58584
867.85399	0.58576
865.92543	0.58576
863.99686	0.58619
862.06830	0.58711
860.13974	0.58851
858.21117	0.59020
856.28261	0.59199
854.35404	0.59409
852.42548	0.59657
850.49691	0.59894
848.56835	0.60079
846.63978	0.60251
844.71122	0.60454
842.78266	0.60665
840.85409	0.60854
838.92553	0.61053
836.99696	0.61276
835.06840	0.61511
833.13983	0.61752
831.21127	0.61965
829.28270	0.62109
827.35414	0.62211
825.42558	0.62274
823.49701	0.62246
821.56845	0.62143
819.63988	0.62044
817.71132	0.61976
815.78275	0.61908
813.85419	0.61803
811.92562	0.61659
809.99706	0.61526
808.06850	0.61411
806.13993	0.61283
804.21137	0.61155
802.28280	0.61047
800.35424	0.60963
798.42567	0.60930
796.49711	0.60957
794.56854	0.61023
792.63998	0.61110
790.71142	0.61229
788.78285	0.61409
786.85429	0.61640
784.92572	0.61908
782.99716	0.62216
781.06859	0.62539
779.14003	0.62830
777.21147	0.63082
775.28290	0.63322
773.35434	0.63545
771.42577	0.63740
769.49721	0.63923
767.56864	0.64071
765.64008	0.64146
763.71151	0.64169
761.78295	0.64160
759.85439	0.64121
757.92582	0.64084
755.99726	0.64034
754.06869	0.63951
752.14013	0.63864
750.21156	0.63790
748.28300	0.63712
746.35443	0.63615
744.42587	0.63532
742.49731	0.63493
740.56874	0.63504
738.64018	0.63556
736.71161	0.63613
734.78305	0.63672
732.85448	0.63809
730.92592	0.64070
728.99735	0.64378
727.06879	0.64649
725.14023	0.64892
723.21166	0.65181
721.28310	0.65574
719.35453	0.65953
717.42597	0.66159
715.49740	0.66269
713.56884	0.66398
711.64027	0.66552
709.71171	0.66699
707.78315	0.66829
705.85458	0.66935
703.92602	0.66970
701.99745	0.66913
700.06889	0.66829
698.14032	0.66759
696.21176	0.66679
694.28319	0.66578
692.35463	0.66450
690.42607	0.66300
688.49750	0.66159
686.56894	0.66057
684.64037	0.66008
682.71181	0.65975
680.78324	0.65907
678.85468	0.65797
676.92611	0.65694
674.99755	0.65659
673.06899	0.65681
671.14042	0.65744
669.21186	0.65897
667.28329	0.66047
665.35473	0.66085
663.42616	0.66118
661.49760	0.66153
659.56903	0.66184
657.64047	0.66160
655.71191	0.66000
653.78334	0.65751
651.85478	0.65536
649.92621	0.65375
647.99765	0.65128
646.06908	0.64777
644.14052	0.64514
642.21195	0.64449
640.28339	0.64544
638.35483	0.64663
636.42626	0.64632
634.49770	0.64408
632.56913	0.64112
630.64057	0.63866
628.71200	0.63679
626.78344	0.63590
624.85488	0.63687
622.92631	0.63925
620.99775	0.64147
619.06918	0.64252
617.14062	0.64368
615.21205	0.64624
613.28349	0.64868
611.35492	0.65043
609.42636	0.65282
607.49780	0.65521
605.56923	0.65613
603.64067	0.65662
601.71210	0.65814
599.78354	0.66032
