3997.91406	0.85933
3995.98550	0.85802
3994.05693	0.85615
3992.12837	0.85426
3990.19980	0.85256
3988.27124	0.85163
3986.34268	0.85196
3984.41411	0.85355
3982.48555	0.85508
3980.55698	0.85464
3978.62842	0.85263
3976.69985	0.85060
3974.77129	0.84913
3972.84272	0.84895
3970.91416	0.84974
3968.98560	0.84951
3967.05703	0.84797
3965.12847	0.84660
3963.19990	0.84577
3961.27134	0.84470
3959.34277	0.84306
3957.41421	0.84200
3955.48564	0.84174
3953.55708	0.84033
3951.62852	0.83751
3949.69995	0.83554
3947.77139	0.83488
3945.84282	0.83328
3943.91426	0.83116
3941.98569	0.83106
3940.05713	0.83243
3938.12856	0.83313
3936.20000	0.83195
3934.27144	0.82929
3932.34287	0.82758
3930.41431	0.82765
3928.48574	0.82743
3926.55718	0.82631
3924.62861	0.82500
3922.70005	0.82389
3920.77148	0.82266
3918.84292	0.82176
3916.91436	0.82302
3914.98579	0.82511
3913.05723	0.82443
3911.12866	0.82214
3909.20010	0.82060
3907.27153	0.81821
3905.34297	0.81379
3903.41440	0.81219
3901.48584	0.81540
3899.55728	0.81732
3897.62871	0.81587
3895.70015	0.81364
3893.77158	0.81307
3891.84302	0.81466
3889.91445	0.81385
3887.98589	0.80992
3886.05733	0.80737
3884.12876	0.80729
3882.20020	0.80719
3880.27163	0.80887
3878.34307	0.80874
3876.41450	0.80444
3874.48594	0.79971
3872.55737	0.79768
3870.62881	0.79876
3868.70025	0.79970
3866.77168	0.79702
3864.84312	0.79573
3862.91455	0.79953
3860.98599	0.80130
3859.05742	0.79909
3857.12886	0.79424
3855.20029	0.78889
3853.27173	0.79373
3851.34317	0.80048
3849.41460	0.79988
3847.48604	0.79786
3845.55747	0.79558
3843.62891	0.79232
3841.70034	0.78671
3839.77178	0.78072
3837.84321	0.78312
3835.91465	0.78901
3833.98609	0.78984
3832.05752	0.78900
3830.12896	0.78836
3828.20039	0.78694
3826.27183	0.78437
3824.34326	0.77934
3822.41470	0.77381
3820.48613	0.77560
3818.55757	0.78010
3816.62901	0.78398
3814.70044	0.78733
3812.77188	0.78626
3810.84331	0.78260
3808.91475	0.77891
3806.98618	0.77716
3805.05762	0.77531
3803.12905	0.77268
3801.20049	0.77370
3799.27193	0.77499
3797.34336	0.77615
3795.41480	0.77925
3793.48623	0.78003
3791.55767	0.77827
3789.62910	0.77617
3787.70054	0.77435
3785.77197	0.77334
3783.84341	0.77276
3781.91485	0.77195
3779.98628	0.77329
3778.05772	0.77577
3776.12915	0.77458
3774.20059	0.77064
3772.27202	0.76683
3770.34346	0.76612
3768.41489	0.76759
3766.48633	0.76800
3764.55777	0.76754
3762.62920	0.76614
3760.70064	0.76554
3758.77207	0.76651
3756.84351	0.76472
3754.91494	0.75995
3752.98638	0.75415
3751.05781	0.75326
3749.12925	0.75682
3747.20069	0.75353
3745.27212	0.75263
3743.34356	0.75954
3741.41499	0.76121
3739.48643	0.75621
3737.55786	0.74985
3735.62930	0.75037
3733.70074	0.75899
3731.77217	0.76307
3729.84361	0.76210
3727.91504	0.76004
3725.98648	0.75872
3724.05791	0.75794
3722.12935	0.75864
3720.20078	0.76114
3718.27222	0.76213
3716.34366	0.75956
3714.41509	0.75448
3712.48653	0.75074
3710.55796	0.75505
3708.62940	0.76087
3706.70083	0.76293
3704.77227	0.76292
3702.84370	0.76366
3700.91514	0.76622
3698.98658	0.76692
3697.05801	0.76601
3695.12945	0.76500
3693.20088	0.76267
3691.27232	0.75960
3689.34375	0.76359
3687.41519	0.77125
3685.48662	0.77430
3683.55806	0.77562
3681.62950	0.77675
3679.70093	0.77679
3677.77237	0.77580
3675.84380	0.78064
3673.91524	0.78704
3671.98667	0.78710
3670.05811	0.79270
3668.12954	0.80343
3666.20098	0.80876
3664.27242	0.81166
3662.34385	0.81490
3660.41529	0.81816
3658.48672	0.82068
3656.55816	0.82511
3654.62959	0.82907
3652.70103	0.82752
3650.77246	0.82571
3648.84390	0.84266
3646.91534	0.86053
3644.98677	0.86555
3643.05821	0.86871
3641.12964	0.87354
3639.20108	0.87912
3637.27251	0.88382
3635.34395	0.88731
3633.41538	0.88843
3631.48682	0.88542
3629.55826	0.88572
3627.62969	0.90074
3625.70113	0.91314
3623.77256	0.91841
3621.84400	0.92021
3619.91543	0.92332
3617.98687	0.92973
3616.05830	0.93499
3614.12974	0.94080
3612.20118	0.94688
3610.27261	0.95013
3608.34405	0.95404
3606.41548	0.95946
3604.48692	0.96283
3602.55835	0.96587
3600.62979	0.97004
3598.70123	0.97402
3596.77266	0.97942
3594.84410	0.98846
3592.91553	0.99603
3590.98697	0.99741
3589.05840	0.99645
3587.12984	1.00076
3585.20127	1.00895
3583.27271	1.01485
3581.34415	1.01824
3579.41558	1.02049
3577.48702	1.02352
3575.55845	1.02705
3573.62989	1.02912
3571.70132	1.02920
3569.77276	1.02937
3567.84419	1.03377
3565.91563	1.04033
3563.98707	1.04402
3562.05850	1.04809
3560.12994	1.05178
3558.20137	1.05359
3556.27281	1.05381
3554.34424	1.05371
3552.41568	1.05631
3550.48711	1.06055
3548.55855	1.06265
3546.62999	1.06465
3544.70142	1.06928
3542.77286	1.07262
3540.84429	1.07303
3538.91573	1.07229
3536.98716	1.07241
3535.05860	1.07448
3533.13003	1.07644
3531.20147	1.07876
3529.27291	1.08394
3527.34434	1.08851
3525.41578	1.08825
3523.48721	1.08672
3521.55865	1.08745
3519.63008	1.08983
3517.70152	1.09270
3515.77295	1.09469
3513.84439	1.09617
3511.91583	1.09768
3509.98726	1.09817
3508.05870	1.09843
3506.13013	1.09943
3504.20157	1.10076
3502.27300	1.10182
3500.34444	1.10272
3498.41587	1.10494
3496.48731	1.10883
3494.55875	1.11308
3492.63018	1.11631
3490.70162	1.11722
3488.77305	1.11557
3486.84449	1.11345
3484.91592	1.11273
3482.98736	1.11356
3481.05879	1.11483
3479.13023	1.11527
3477.20167	1.11573
3475.27310	1.11749
3473.34454	1.11979
3471.41597	1.12011
3469.48741	1.11828
3467.55884	1.11754
3465.63028	1.11942
3463.70171	1.12157
3461.77315	1.12204
3459.84459	1.12075
3457.91602	1.11861
3455.98746	1.11807
3454.05889	1.11963
3452.13033	1.12137
3450.20176	1.12245
3448.27320	1.12259
3446.34464	1.12266
3444.41607	1.12314
3442.48751	1.12195
3440.55894	1.12002
3438.63038	1.12095
3436.70181	1.12373
3434.77325	1.12494
3432.84468	1.12461
3430.91612	1.12395
3428.98756	1.12304
3427.05899	1.12187
3425.13043	1.12104
3423.20186	1.12119
3421.27330	1.12256
3419.34473	1.12469
3417.41617	1.12544
3415.48760	1.12454
3413.55904	1.12406
3411.63048	1.12366
3409.70191	1.12228
3407.77335	1.12168
3405.84478	1.12250
3403.91622	1.12301
3401.98765	1.12356
3400.05909	1.12469
3398.13052	1.12476
3396.20196	1.12457
3394.27340	1.12606
3392.34483	1.12786
3390.41627	1.12745
3388.48770	1.12502
3386.55914	1.12293
3384.63057	1.12336
3382.70201	1.12531
3380.77344	1.12570
3378.84488	1.12413
3376.91632	1.12215
3374.98775	1.12160
3373.05919	1.12289
3371.13062	1.12376
3369.20206	1.12307
3367.27349	1.12181
3365.34493	1.12070
3363.41636	1.11973
3361.48780	1.11965
3359.55924	1.12144
3357.63067	1.12286
3355.70211	1.12153
3353.77354	1.11889
3351.84498	1.11757
3349.91641	1.11908
3347.98785	1.12271
3346.05928	1.12516
3344.13072	1.12426
3342.20216	1.12256
3340.27359	1.12301
3338.34503	1.12426
3336.41646	1.12414
3334.48790	1.12296
3332.55933	1.12241
3330.63077	1.12319
3328.70220	1.12445
3326.77364	1.12573
3324.84508	1.12702
3322.91651	1.12676
3320.98795	1.12444
3319.05938	1.12229
3317.13082	1.12154
3315.20225	1.12187
3313.27369	1.12210
3311.34513	1.12090
3309.41656	1.12030
3307.48800	1.12198
3305.55943	1.12399
3303.63087	1.12485
3301.70230	1.12461
3299.77374	1.12393
3297.84517	1.12327
3295.91661	1.12219
3293.98805	1.12060
3292.05948	1.12008
3290.13092	1.12248
3288.20235	1.12621
3286.27379	1.12705
3284.34522	1.12416
3282.41666	1.12160
3280.48809	1.12222
3278.55953	1.12446
3276.63097	1.12558
3274.70240	1.12506
3272.77384	1.12450
3270.84527	1.12456
3268.91671	1.12499
3266.98814	1.12669
3265.05958	1.12917
3263.13101	1.13011
3261.20245	1.12903
3259.27389	1.12627
3257.34532	1.12274
3255.41676	1.12087
3253.48819	1.12056
3251.55963	1.11936
3249.63106	1.11718
3247.70250	1.11546
3245.77393	1.11422
3243.84537	1.11290
3241.91681	1.11207
3239.98824	1.11214
3238.05968	1.11196
3236.13111	1.11001
3234.20255	1.10733
3232.27398	1.10603
3230.34542	1.10508
3228.41685	1.10357
3226.48829	1.10303
3224.55973	1.10274
3222.63116	1.10117
3220.70260	1.09911
3218.77403	1.09757
3216.84547	1.09690
3214.91690	1.09737
3212.98834	1.09808
3211.05977	1.09724
3209.13121	1.09484
3207.20265	1.09277
3205.27408	1.09172
3203.34552	1.09047
3201.41695	1.08818
3199.48839	1.08577
3197.55982	1.08448
3195.63126	1.08390
3193.70269	1.08266
3191.77413	1.08058
3189.84557	1.07883
3187.91700	1.07776
3185.98844	1.07596
3184.05987	1.07331
3182.13131	1.07081
3180.20274	1.06876
3178.27418	1.06776
3176.34562	1.06746
3174.41705	1.06598
3172.48849	1.06326
3170.55992	1.06065
3168.63136	1.05892
3166.70279	1.05763
3164.77423	1.05591
3162.84566	1.05378
3160.91710	1.05131
3158.98854	1.04906
3157.05997	1.04770
3155.13141	1.04595
3153.20284	1.04299
3151.27428	1.04049
3149.34571	1.03939
3147.41715	1.03826
3145.48858	1.03623
3143.56002	1.03380
3141.63146	1.03138
3139.70289	1.02973
3137.77433	1.02914
3135.84576	1.02880
3133.91720	1.02808
3131.98863	1.02688
3130.06007	1.02576
3128.13150	1.02502
3126.20294	1.02396
3124.27438	1.02233
3122.34581	1.02073
3120.41725	1.01874
3118.48868	1.01640
3116.56012	1.01531
3114.63155	1.01538
3112.70299	1.01514
3110.77442	1.01444
3108.84586	1.01399
3106.91730	1.01378
3104.98873	1.01285
3103.06017	1.01110
3101.13160	1.00935
3099.20304	1.00838
3097.27447	1.00825
3095.34591	1.00799
3093.41734	1.00708
3091.48878	1.00525
3089.56022	1.00195
3087.63165	0.99820
3085.70309	0.99574
3083.77452	0.99424
3081.84596	0.99221
3079.91739	0.98976
3077.98883	0.98804
3076.06026	0.98688
3074.13170	0.98541
3072.20314	0.98339
3070.27457	0.98085
3068.34601	0.97750
3066.41744	0.97409
3064.48888	0.97167
3062.56031	0.96968
3060.63175	0.96734
3058.70318	0.96442
3056.77462	0.96096
3054.84606	0.95780
3052.91749	0.95563
3050.98893	0.95393
3049.06036	0.95199
3047.13180	0.94969
3045.20323	0.94668
3043.27467	0.94322
3041.34610	0.94070
3039.41754	0.93907
3037.48898	0.93686
3035.56041	0.93334
3033.63185	0.92970
3031.70328	0.92771
3029.77472	0.92670
3027.84615	0.92505
3025.91759	0.92280
3023.98903	0.92057
3022.06046	0.91841
3020.13190	0.91583
3018.20333	0.91304
3016.27477	0.91110
3014.34620	0.91008
3012.41764	0.90904
3010.48907	0.90778
3008.56051	0.90652
3006.63195	0.90499
3004.70338	0.90331
3002.77482	0.90208
3000.84625	0.90089
2998.91769	0.89942
2996.98912	0.89866
2995.06056	0.89896
2993.13199	0.89986
2991.20343	0.90112
2989.27487	0.90229
2987.34630	0.90322
2985.41774	0.90440
2983.48917	0.90608
2981.56061	0.90784
2979.63204	0.90932
2977.70348	0.91075
2975.77491	0.91287
2973.84635	0.91574
2971.91779	0.91842
2969.98922	0.92070
2968.06066	0.92323
2966.13209	0.92600
2964.20353	0.92826
2962.27496	0.92920
2960.34640	0.92828
2958.41783	0.92605
2956.48927	0.92371
2954.56071	0.92171
2952.63214	0.91987
2950.70358	0.91820
2948.77501	0.91698
2946.84645	0.91634
2944.91788	0.91632
2942.98932	0.91784
2941.06075	0.92140
2939.13219	0.92570
2937.20363	0.92950
2935.27506	0.93299
2933.34650	0.93664
2931.41793	0.94052
2929.48937	0.94489
2927.56080	0.94913
2925.63224	0.95232
2923.70367	0.95552
2921.77511	0.95951
2919.84655	0.96272
2917.91798	0.96358
2915.98942	0.96042
2914.06085	0.95162
2912.13229	0.93993
2910.20372	0.92994
2908.27516	0.92237
2906.34659	0.91618
2904.41803	0.91130
2902.48947	0.90777
2900.56090	0.90530
2898.63234	0.90329
2896.70377	0.90113
2894.77521	0.89863
2892.84664	0.89648
2890.91808	0.89534
2888.98952	0.89458
2887.06095	0.89349
2885.13239	0.89212
2883.20382	0.89084
2881.27526	0.89011
2879.34669	0.88962
2877.41813	0.88842
2875.48956	0.88647
2873.56100	0.88435
2871.63244	0.88181
2869.70387	0.87858
2867.77531	0.87533
2865.84674	0.87262
2863.91818	0.87057
2861.98961	0.86941
2860.06105	0.86982
2858.13248	0.87208
2856.20392	0.87602
2854.27536	0.88174
2852.34679	0.88890
2850.41823	0.89444
2848.48966	0.89256
2846.56110	0.88119
2844.63253	0.86591
2842.70397	0.85301
2840.77540	0.84386
2838.84684	0.83714
2836.91828	0.83184
2834.98971	0.82739
2833.06115	0.82352
2831.13258	0.82038
2829.20402	0.81799
2827.27545	0.81622
2825.34689	0.81489
2823.41832	0.81337
2821.48976	0.81121
2819.56120	0.80855
2817.63263	0.80586
2815.70407	0.80354
2813.77550	0.80159
2811.84694	0.79982
2809.91837	0.79807
2807.98981	0.79634
2806.06124	0.79482
2804.13268	0.79311
2802.20412	0.79097
2800.27555	0.78911
2798.34699	0.78782
2796.41842	0.78641
2794.48986	0.78452
2792.56129	0.78275
2790.63273	0.78144
2788.70416	0.78009
2786.77560	0.77829
2784.84704	0.77617
2782.91847	0.77410
2780.98991	0.77238
2779.06134	0.77102
2777.13278	0.76972
2775.20421	0.76838
2773.27565	0.76698
2771.34708	0.76541
2769.41852	0.76385
2767.48996	0.76263
2765.56139	0.76162
2763.63283	0.76029
2761.70426	0.75865
2759.77570	0.75722
2757.84713	0.75610
2755.91857	0.75522
2753.99001	0.75439
2752.06144	0.75309
2750.13288	0.75168
2748.20431	0.75105
2746.27575	0.75088
2744.34718	0.75052
2742.41862	0.75001
2740.49005	0.74932
2738.56149	0.74834
2736.63293	0.74724
2734.70436	0.74648
2732.77580	0.74634
2730.84723	0.74630
2728.91867	0.74585
2726.99010	0.74514
2725.06154	0.74458
2723.13297	0.74447
2721.20441	0.74446
2719.27585	0.74411
2717.34728	0.74351
2715.41872	0.74285
2713.49015	0.74216
2711.56159	0.74126
2709.63302	0.74009
2707.70446	0.73888
2705.77589	0.73771
2703.84733	0.73681
2701.91877	0.73624
2699.99020	0.73546
2698.06164	0.73436
2696.13307	0.73342
2694.20451	0.73265
2692.27594	0.73194
2690.34738	0.73134
2688.41881	0.73070
2686.49025	0.72981
2684.56169	0.72876
2682.63312	0.72783
2680.70456	0.72714
2678.77599	0.72661
2676.84743	0.72607
2674.91886	0.72508
2672.99030	0.72376
2671.06173	0.72287
2669.13317	0.72224
2667.20461	0.72106
2665.27604	0.71956
2663.34748	0.71865
2661.41891	0.71819
2659.49035	0.71730
2657.56178	0.71609
2655.63322	0.71484
2653.70465	0.71331
2651.77609	0.71192
2649.84753	0.71109
2647.91896	0.71046
2645.99040	0.70987
2644.06183	0.70963
2642.13327	0.70928
2640.20470	0.70824
2638.27614	0.70702
2636.34757	0.70618
2634.41901	0.70582
2632.49045	0.70583
2630.56188	0.70569
2628.63332	0.70501
2626.70475	0.70397
2624.77619	0.70286
2622.84762	0.70197
2620.91906	0.70133
2618.99049	0.70082
2617.06193	0.70040
2615.13337	0.69992
2613.20480	0.69942
2611.27624	0.69897
2609.34767	0.69834
2607.41911	0.69741
2605.49054	0.69619
2603.56198	0.69484
2601.63342	0.69369
2599.70485	0.69271
2597.77629	0.69176
2595.84772	0.69092
2593.91916	0.69005
2591.99059	0.68905
2590.06203	0.68814
2588.13346	0.68743
2586.20490	0.68674
2584.27634	0.68587
2582.34777	0.68491
2580.41921	0.68407
2578.49064	0.68325
2576.56208	0.68252
2574.63351	0.68212
2572.70495	0.68196
2570.77638	0.68189
2568.84782	0.68160
2566.91926	0.68083
2564.99069	0.68002
2563.06213	0.67947
2561.13356	0.67888
2559.20500	0.67831
2557.27643	0.67784
2555.34787	0.67702
2553.41930	0.67609
2551.49074	0.67556
2549.56218	0.67524
2547.63361	0.67486
2545.70505	0.67425
2543.77648	0.67336
2541.84792	0.67257
2539.91935	0.67197
2537.99079	0.67113
2536.06222	0.67007
2534.13366	0.66905
2532.20510	0.66807
2530.27653	0.66719
2528.34797	0.66647
2526.41940	0.66583
2524.49084	0.66507
2522.56227	0.66420
2520.63371	0.66332
2518.70514	0.66245
2516.77658	0.66162
2514.84802	0.66079
2512.91945	0.65995
2510.99089	0.65910
2509.06232	0.65808
2507.13376	0.65688
2505.20519	0.65570
2503.27663	0.65474
2501.34806	0.65396
2499.41950	0.65338
2497.49094	0.65311
2495.56237	0.65271
2493.63381	0.65185
2491.70524	0.65110
2489.77668	0.65066
2487.84811	0.65014
2485.91955	0.64958
2483.99098	0.64931
2482.06242	0.64929
2480.13386	0.64921
2478.20529	0.64880
2476.27673	0.64799
2474.34816	0.64708
2472.41960	0.64647
2470.49103	0.64618
2468.56247	0.64602
2466.63391	0.64585
2464.70534	0.64540
2462.77678	0.64470
2460.84821	0.64415
2458.91965	0.64378
2456.99108	0.64336
2455.06252	0.64292
2453.13395	0.64251
2451.20539	0.64204
2449.27683	0.64149
2447.34826	0.64101
2445.41970	0.64066
2443.49113	0.64020
2441.56257	0.63956
2439.63400	0.63880
2437.70544	0.63790
2435.77687	0.63696
2433.84831	0.63599
2431.91975	0.63501
2429.99118	0.63415
2428.06262	0.63335
2426.13405	0.63248
2424.20549	0.63158
2422.27692	0.63068
2420.34836	0.62976
2418.41979	0.62875
2416.49123	0.62768
2414.56267	0.62667
2412.63410	0.62571
2410.70554	0.62481
2408.77697	0.62402
2406.84841	0.62318
2404.91984	0.62223
2402.99128	0.62132
2401.06271	0.62045
2399.13415	0.61942
2397.20559	0.61836
2395.27702	0.61757
2393.34846	0.61693
2391.41989	0.61619
2389.49133	0.61526
2387.56276	0.61409
2385.63420	0.61282
2383.70563	0.61150
2381.77707	0.61016
2379.84851	0.60890
2377.91994	0.60745
2375.99138	0.60542
2374.06281	0.60308
2372.13425	0.60089
2370.20568	0.59872
2368.27712	0.59688
2366.34855	0.59551
2364.41999	0.59397
2362.49143	0.59331
2360.56286	0.59462
2358.63430	0.59827
2356.70573	0.60201
2354.77717	0.60350
2352.84860	0.60485
2350.92004	0.60564
2348.99147	0.60450
2347.06291	0.60170
2345.13435	0.59807
2343.20578	0.59569
2341.27722	0.59646
2339.34865	0.59921
2337.42009	0.60105
2335.49152	0.60099
2333.56296	0.60010
2331.63440	0.59925
2329.70583	0.59876
2327.77727	0.59815
2325.84870	0.59737
2323.92014	0.59712
2321.99157	0.59707
2320.06301	0.59666
2318.13444	0.59612
2316.20588	0.59559
2314.27732	0.59497
2312.34875	0.59436
2310.42019	0.59381
2308.49162	0.59333
2306.56306	0.59301
2304.63449	0.59279
2302.70593	0.59271
2300.77736	0.59266
2298.84880	0.59233
2296.92024	0.59200
2294.99167	0.59187
2293.06311	0.59168
2291.13454	0.59147
2289.20598	0.59142
2287.27741	0.59142
2285.34885	0.59129
2283.42028	0.59109
2281.49172	0.59103
2279.56316	0.59104
2277.63459	0.59089
2275.70603	0.59047
2273.77746	0.58982
2271.84890	0.58916
2269.92033	0.58864
2267.99177	0.58819
2266.06320	0.58768
2264.13464	0.58705
2262.20608	0.58637
2260.27751	0.58580
2258.34895	0.58536
2256.42038	0.58485
2254.49182	0.58418
2252.56325	0.58343
2250.63469	0.58294
2248.70612	0.58270
2246.77756	0.58226
2244.84900	0.58146
2242.92043	0.58058
2240.99187	0.57984
2239.06330	0.57925
2237.13474	0.57871
2235.20617	0.57799
2233.27761	0.57711
2231.34904	0.57626
2229.42048	0.57554
2227.49192	0.57485
2225.56335	0.57412
2223.63479	0.57353
2221.70622	0.57298
2219.77766	0.57216
2217.84909	0.57112
2215.92053	0.57010
2213.99196	0.56909
2212.06340	0.56800
2210.13484	0.56697
2208.20627	0.56622
2206.27771	0.56574
2204.34914	0.56545
2202.42058	0.56529
2200.49201	0.56502
2198.56345	0.56454
2196.63488	0.56419
2194.70632	0.56417
2192.77776	0.56420
2190.84919	0.56408
2188.92063	0.56392
2186.99206	0.56365
2185.06350	0.56331
2183.13493	0.56317
2181.20637	0.56323
2179.27781	0.56340
2177.34924	0.56361
2175.42068	0.56372
2173.49211	0.56359
2171.56355	0.56329
2169.63498	0.56300
2167.70642	0.56276
2165.77785	0.56262
2163.84929	0.56250
2161.92073	0.56211
2159.99216	0.56157
2158.06360	0.56113
2156.13503	0.56079
2154.20647	0.56052
2152.27790	0.56032
2150.34934	0.56004
2148.42077	0.55949
2146.49221	0.55880
2144.56365	0.55815
2142.63508	0.55761
2140.70652	0.55716
2138.77795	0.55664
2136.84939	0.55607
2134.92082	0.55563
2132.99226	0.55520
2131.06369	0.55473
2129.13513	0.55422
2127.20657	0.55353
2125.27800	0.55284
2123.34944	0.55229
2121.42087	0.55160
2119.49231	0.55069
2117.56374	0.54979
2115.63518	0.54899
2113.70661	0.54823
2111.77805	0.54745
2109.84949	0.54662
2107.92092	0.54559
2105.99236	0.54440
2104.06379	0.54332
2102.13523	0.54231
2100.20666	0.54121
2098.27810	0.54015
2096.34953	0.53914
2094.42097	0.53810
2092.49241	0.53712
2090.56384	0.53645
2088.63528	0.53594
2086.70671	0.53520
2084.77815	0.53430
2082.84958	0.53352
2080.92102	0.53292
2078.99245	0.53252
2077.06389	0.53214
2075.13533	0.53156
2073.20676	0.53100
2071.27820	0.53062
2069.34963	0.53004
2067.42107	0.52925
2065.49250	0.52871
2063.56394	0.52834
2061.63537	0.52780
2059.70681	0.52728
2057.77825	0.52683
2055.84968	0.52618
2053.92112	0.52532
2051.99255	0.52457
2050.06399	0.52398
2048.13542	0.52324
2046.20686	0.52229
2044.27830	0.52137
2042.34973	0.52059
2040.42117	0.51987
2038.49260	0.51905
2036.56404	0.51820
2034.63547	0.51745
2032.70691	0.51682
2030.77834	0.51621
2028.84978	0.51545
2026.92122	0.51454
2024.99265	0.51363
2023.06409	0.51283
2021.13552	0.51192
2019.20696	0.51094
2017.27839	0.51026
2015.34983	0.50965
2013.42126	0.50871
2011.49270	0.50771
2009.56414	0.50670
2007.63557	0.50555
2005.70701	0.50447
2003.77844	0.50363
2001.84988	0.50276
1999.92131	0.50182
1997.99275	0.50099
1996.06418	0.50005
1994.13562	0.49883
1992.20706	0.49785
1990.27849	0.49720
1988.34993	0.49660
1986.42136	0.49599
1984.49280	0.49528
1982.56423	0.49450
1980.63567	0.49369
1978.70710	0.49290
1976.77854	0.49221
1974.84998	0.49167
1972.92141	0.49116
1970.99285	0.49036
1969.06428	0.48947
1967.13572	0.48913
1965.20715	0.48903
1963.27859	0.48850
1961.35002	0.48782
1959.42146	0.48724
1957.49290	0.48663
1955.56433	0.48602
1953.63577	0.48537
1951.70720	0.48450
1949.77864	0.48354
1947.85007	0.48267
1945.92151	0.48190
1943.99294	0.48144
1942.06438	0.48126
1940.13582	0.48058
1938.20725	0.47941
1936.27869	0.47842
1934.35012	0.47766
1932.42156	0.47693
1930.49299	0.47618
1928.56443	0.47532
1926.63586	0.47426
1924.70730	0.47335
1922.77874	0.47300
1920.85017	0.47265
1918.92161	0.47223
1916.99304	0.47208
1915.06448	0.47158
1913.13591	0.47070
1911.20735	0.47005
1909.27878	0.46984
1907.35022	0.46967
1905.42166	0.46931
1903.49309	0.46911
1901.56453	0.46900
1899.63596	0.46861
1897.70740	0.46798
1895.77883	0.46754
1893.85027	0.46720
1891.92171	0.46663
1889.99314	0.46639
1888.06458	0.46617
1886.13601	0.46530
1884.20745	0.46433
1882.27888	0.46357
1880.35032	0.46283
1878.42175	0.46210
1876.49319	0.46143
1874.56463	0.46048
1872.63606	0.45884
1870.70750	0.45720
1868.77893	0.45725
1866.85037	0.45807
1864.92180	0.45756
1862.99324	0.45646
1861.06467	0.45561
1859.13611	0.45523
1857.20755	0.45499
1855.27898	0.45444
1853.35042	0.45367
1851.42185	0.45282
1849.49329	0.45189
1847.56472	0.45084
1845.63616	0.45016
1843.70759	0.45043
1841.77903	0.45001
1839.85047	0.44859
1837.92190	0.44738
1835.99334	0.44650
1834.06477	0.44501
1832.13621	0.44299
1830.20764	0.44167
1828.27908	0.44106
1826.35051	0.44023
1824.42195	0.43968
1822.49339	0.43911
1820.56482	0.43813
1818.63626	0.43721
1816.70769	0.43645
1814.77913	0.43564
1812.85056	0.43507
1810.92200	0.43536
1808.99343	0.43602
1807.06487	0.43617
1805.13631	0.43593
1803.20774	0.43584
1801.27918	0.43669
1799.35061	0.43787
1797.42205	0.43787
1795.49348	0.43711
1793.56492	0.43732
1791.63635	0.43972
1789.70779	0.44094
1787.77923	0.44013
1785.85066	0.43918
1783.92210	0.43860
1781.99353	0.43816
1780.06497	0.43791
1778.13640	0.43722
1776.20784	0.43560
1774.27927	0.43422
1772.35071	0.43548
1770.42215	0.43808
1768.49358	0.43921
1766.56502	0.43936
1764.63645	0.43899
1762.70789	0.43992
1760.77932	0.44265
1758.85076	0.44490
1756.92220	0.44754
1754.99363	0.44977
1753.06507	0.45050
1751.13650	0.45251
1749.20794	0.45782
1747.27937	0.46268
1745.35081	0.46560
1743.42224	0.46798
1741.49368	0.47069
1739.56512	0.47408
1737.63655	0.47595
1735.70799	0.47701
1733.77942	0.48307
1731.85086	0.49011
1729.92229	0.49408
1727.99373	0.49770
1726.06516	0.50107
1724.13660	0.50545
1722.20804	0.50981
1720.27947	0.51257
1718.35091	0.51760
1716.42234	0.53148
1714.49378	0.54239
1712.56521	0.54762
1710.63665	0.55221
1708.70808	0.55755
1706.77952	0.56684
1704.85096	0.58039
1702.92239	0.59115
1700.99383	0.60533
1699.06526	0.63101
1697.13670	0.65815
1695.20813	0.68401
1693.27957	0.69942
1691.35100	0.71043
1689.42244	0.72535
1687.49388	0.73906
1685.56531	0.75353
1683.63675	0.78288
1681.70818	0.80324
1679.77962	0.81224
1677.85105	0.82003
1675.92249	0.83067
1673.99392	0.84309
1672.06536	0.85163
1670.13680	0.86218
1668.20823	0.87385
1666.27967	0.87788
1664.35110	0.88134
1662.42254	0.88980
1660.49397	0.89726
1658.56541	0.89972
1656.63684	0.89944
1654.70828	0.89977
1652.77972	0.90646
1650.85115	0.90830
1648.92259	0.90673
1646.99402	0.90984
1645.06546	0.91398
1643.13689	0.91372
1641.20833	0.91258
1639.27976	0.91122
1637.35120	0.91151
1635.42264	0.91701
1633.49407	0.91878
1631.56551	0.91690
1629.63694	0.91510
1627.70838	0.91402
1625.77981	0.91242
1623.85125	0.91025
1621.92269	0.90735
1619.99412	0.90251
1618.06556	0.89514
1616.13699	0.88440
1614.20843	0.87425
1612.27986	0.86457
1610.35130	0.85350
1608.42273	0.84142
1606.49417	0.83012
1604.56561	0.82045
1602.63704	0.81197
1600.70848	0.80471
1598.77991	0.79869
1596.85135	0.79381
1594.92278	0.78998
1592.99422	0.78719
1591.06565	0.78593
1589.13709	0.78648
1587.20853	0.78861
1585.27996	0.79214
1583.35140	0.79700
1581.42283	0.80191
1579.49427	0.80535
1577.56570	0.81065
1575.63714	0.82238
1573.70857	0.82890
1571.78001	0.83094
1569.85145	0.83745
1567.92288	0.84630
1565.99432	0.85118
1564.06575	0.85461
1562.13719	0.85602
1560.20862	0.85822
1558.28006	0.87259
1556.35149	0.87956
1554.42293	0.88024
1552.49437	0.88066
1550.56580	0.88093
1548.63724	0.88077
1546.70867	0.87914
1544.78011	0.87614
1542.85154	0.87296
1540.92298	0.87335
1538.99441	0.87315
1537.06585	0.86917
1535.13729	0.86455
1533.20872	0.86028
1531.28016	0.85594
1529.35159	0.85083
1527.42303	0.84541
1525.49446	0.84106
1523.56590	0.83890
1521.63733	0.83884
1519.70877	0.83775
1517.78021	0.83392
1515.85164	0.82876
1513.92308	0.82213
1511.99451	0.81331
1510.06595	0.80288
1508.13738	0.78857
1506.20882	0.77032
1504.28025	0.76082
1502.35169	0.75268
1500.42313	0.74313
1498.49456	0.73207
1496.56600	0.72055
1494.63743	0.71143
1492.70887	0.70402
1490.78030	0.69606
1488.85174	0.68804
1486.92317	0.68282
1484.99461	0.67897
1483.06605	0.67610
1481.13748	0.67462
1479.20892	0.67439
1477.28035	0.67573
1475.35179	0.68024
1473.42322	0.69158
1471.49466	0.70438
1469.56610	0.70915
1467.63753	0.71139
1465.70897	0.71648
1463.78040	0.72347
1461.85184	0.72599
1459.92327	0.72516
1457.99471	0.72793
1456.06614	0.73824
1454.13758	0.74158
1452.20902	0.74123
1450.28045	0.74059
1448.35189	0.74060
1446.42332	0.74079
1444.49476	0.73983
1442.56619	0.73777
1440.63763	0.73478
1438.70906	0.73097
1436.78050	0.72720
1434.85194	0.72387
1432.92337	0.72004
1430.99481	0.71585
1429.06624	0.71209
1427.13768	0.70882
1425.20911	0.70613
1423.28055	0.70458
1421.35198	0.70386
1419.42342	0.70517
1417.49486	0.70819
1415.56629	0.70853
1413.63773	0.70717
1411.70916	0.70565
1409.78060	0.70393
1407.85203	0.70185
1405.92347	0.70042
1403.99490	0.70001
1402.06634	0.69908
1400.13778	0.69783
1398.20921	0.69735
1396.28065	0.69808
1394.35208	0.70004
1392.42352	0.70173
1390.49495	0.70322
1388.56639	0.70782
1386.63782	0.71757
1384.70926	0.72720
1382.78070	0.73387
1380.85213	0.73807
1378.92357	0.73911
1376.99500	0.73672
1375.06644	0.73102
1373.13787	0.72316
1371.20931	0.71533
1369.28074	0.70687
1367.35218	0.69732
1365.42362	0.68812
1363.49505	0.67977
1361.56649	0.67321
1359.63792	0.66902
1357.70936	0.66611
1355.78079	0.66422
1353.85223	0.66325
1351.92366	0.66277
1349.99510	0.66292
1348.06654	0.66403
1346.13797	0.66577
1344.20941	0.66755
1342.28084	0.66920
1340.35228	0.67217
1338.42371	0.67752
1336.49515	0.68310
1334.56659	0.68811
1332.63802	0.69304
1330.70946	0.69764
1328.78089	0.70133
1326.85233	0.70385
1324.92376	0.70536
1322.99520	0.70619
1321.06663	0.70676
1319.13807	0.70721
1317.20951	0.70703
1315.28094	0.70602
1313.35238	0.70494
1311.42381	0.70388
1309.49525	0.70217
1307.56668	0.69968
1305.63812	0.69691
1303.70955	0.69456
1301.78099	0.69280
1299.85243	0.69111
1297.92386	0.68903
1295.99530	0.68690
1294.06673	0.68545
1292.13817	0.68514
1290.20960	0.68592
1288.28104	0.68753
1286.35247	0.68971
1284.42391	0.69198
1282.49535	0.69411
1280.56678	0.69635
1278.63822	0.69893
1276.70965	0.70183
1274.78109	0.70505
1272.85252	0.70900
1270.92396	0.71392
1268.99539	0.71915
1267.06683	0.72379
1265.13827	0.72723
1263.20970	0.72914
1261.28114	0.72976
1259.35257	0.72969
1257.42401	0.72930
1255.49544	0.72882
1253.56688	0.72850
1251.63831	0.72831
1249.70975	0.72786
1247.78119	0.72707
1245.85262	0.72637
1243.92406	0.72603
1241.99549	0.72561
1240.06693	0.72454
1238.13836	0.72280
1236.20980	0.72078
1234.28123	0.71861
1232.35267	0.71587
1230.42411	0.71233
1228.49554	0.70840
1226.56698	0.70442
1224.63841	0.70033
1222.70985	0.69629
1220.78128	0.69267
1218.85272	0.68958
1216.92415	0.68713
1214.99559	0.68587
1213.06703	0.68612
1211.13846	0.68741
1209.20990	0.68918
1207.28133	0.69096
1205.35277	0.69163
1203.42420	0.68987
1201.49564	0.68576
1199.56708	0.68049
1197.63851	0.67493
1195.70995	0.66948
1193.78138	0.66480
1191.85282	0.66160
1189.92425	0.66001
1187.99569	0.65977
1186.06712	0.66091
1184.13856	0.66375
1182.21000	0.66845
1180.28143	0.67486
1178.35287	0.68230
1176.42430	0.68996
1174.49574	0.69768
1172.56717	0.70594
1170.63861	0.71522
1168.71004	0.72567
1166.78148	0.73764
1164.85292	0.75162
1162.92435	0.76697
1160.99579	0.78164
1159.06722	0.79345
1157.13866	0.80078
1155.21009	0.80266
1153.28153	0.79914
1151.35296	0.79154
1149.42440	0.78188
1147.49584	0.77204
1145.56727	0.76327
1143.63871	0.75671
1141.71014	0.75315
1139.78158	0.75261
1137.85301	0.75453
1135.92445	0.75834
1133.99588	0.76390
1132.06732	0.77127
1130.13876	0.78017
1128.21019	0.78972
1126.28163	0.79867
1124.35306	0.80632
1122.42450	0.81298
1120.49593	0.81889
1118.56737	0.82373
1116.63880	0.82705
1114.71024	0.82819
1112.78168	0.82709
1110.85311	0.82484
1108.92455	0.82241
1106.99598	0.81992
1105.06742	0.81739
1103.13885	0.81514
1101.21029	0.81359
1099.28172	0.81320
1097.35316	0.81428
1095.42460	0.81708
1093.49603	0.82180
1091.56747	0.82836
1089.63890	0.83604
1087.71034	0.84369
1085.78177	0.85036
1083.85321	0.85559
1081.92464	0.85918
1079.99608	0.86088
1078.06752	0.86025
1076.13895	0.85715
1074.21039	0.85226
1072.28182	0.84668
1070.35326	0.84074
1068.42469	0.83464
1066.49613	0.82898
1064.56756	0.82409
1062.63900	0.81992
1060.71044	0.81648
1058.78187	0.81409
1056.85331	0.81260
1054.92474	0.81154
1052.99618	0.81130
1051.06761	0.81229
1049.13905	0.81416
1047.21049	0.81677
1045.28192	0.82056
1043.35336	0.82511
1041.42479	0.82890
1039.49623	0.83122
1037.56766	0.83249
1035.63910	0.83259
1033.71053	0.83097
1031.78197	0.82794
1029.85341	0.82376
1027.92484	0.81821
1025.99628	0.81167
1024.06771	0.80487
1022.13915	0.79835
1020.21058	0.79221
1018.28202	0.78604
1016.35345	0.77915
1014.42489	0.77111
1012.49633	0.76194
1010.56776	0.75179
1008.63920	0.74113
1006.71063	0.73093
1004.78207	0.72244
1002.85350	0.71638
1000.92494	0.71267
998.99637	0.71094
997.06781	0.71051
995.13925	0.71010
993.21068	0.70862
991.28212	0.70570
989.35355	0.70136
987.42499	0.69582
985.49642	0.68969
983.56786	0.68402
981.63929	0.67977
979.71073	0.67690
977.78217	0.67509
975.85360	0.67396
973.92504	0.67241
971.99647	0.66925
970.06791	0.66434
968.13934	0.65887
966.21078	0.65431
964.28221	0.65175
962.35365	0.65228
960.42509	0.65644
958.49652	0.66275
956.56796	0.66773
954.63939	0.66865
952.71083	0.66609
950.78226	0.66249
948.85370	0.65965
946.92513	0.65820
944.99657	0.65819
943.06801	0.65969
941.13944	0.66246
939.21088	0.66595
937.28231	0.66969
935.35375	0.67371
933.42518	0.67838
931.49662	0.68380
929.56805	0.68969
927.63949	0.69568
925.71093	0.70162
923.78236	0.70725
921.85380	0.71207
919.92523	0.71595
917.99667	0.71910
916.06810	0.72197
914.13954	0.72502
912.21098	0.72810
910.28241	0.73109
908.35385	0.73456
906.42528	0.73887
904.49672	0.74365
902.56815	0.74816
900.63959	0.75169
898.71102	0.75406
896.78246	0.75582
894.85390	0.75729
892.92533	0.75853
890.99677	0.75990
889.06820	0.76171
887.13964	0.76396
885.21107	0.76673
883.28251	0.77024
881.35394	0.77438
879.42538	0.77833
877.49682	0.78151
875.56825	0.78428
873.63969	0.78701
871.71112	0.78946
869.78256	0.79129
867.85399	0.79242
865.92543	0.79272
863.99686	0.79258
862.06830	0.79279
860.13974	0.79319
858.21117	0.79314
856.28261	0.79271
854.35404	0.79210
852.42548	0.79125
850.49691	0.79027
848.56835	0.78937
846.63978	0.78868
844.71122	0.78824
842.78266	0.78797
840.85409	0.78782
838.92553	0.78792
836.99696	0.78857
835.06840	0.78957
833.13983	0.79042
831.21127	0.79133
829.28270	0.79254
827.35414	0.79401
825.42558	0.79598
823.49701	0.79866
821.56845	0.80185
819.63988	0.80529
817.71132	0.80884
815.78275	0.81241
813.85419	0.81607
811.92562	0.82006
809.99706	0.82412
808.06850	0.82803
806.13993	0.83197
804.21137	0.83559
802.28280	0.83849
800.35424	0.84135
798.42567	0.84453
796.49711	0.84687
794.56854	0.84781
792.63998	0.84822
790.71142	0.84889
788.78285	0.84994
786.85429	0.85088
784.92572	0.85124
782.99716	0.85113
781.06859	0.85056
779.14003	0.84917
777.21147	0.84762
775.28290	0.84703
773.35434	0.84727
771.42577	0.84766
769.49721	0.84783
767.56864	0.84800
765.64008	0.84902
763.71151	0.85083
761.78295	0.85213
759.85439	0.85273
757.92582	0.85385
755.99726	0.85568
754.06869	0.85744
752.14013	0.85920
750.21156	0.86105
748.28300	0.86205
746.35443	0.86163
744.42587	0.86047
742.49731	0.85940
740.56874	0.85881
738.64018	0.85804
736.71161	0.85604
734.78305	0.85318
732.85448	0.84999
730.92592	0.84648
728.99735	0.84285
727.06879	0.83911
725.14023	0.83540
723.21166	0.83190
721.28310	0.82819
719.35453	0.82423
717.42597	0.82067
715.49740	0.81778
713.56884	0.81599
711.64027	0.81556
709.71171	0.81579
707.78315	0.81637
705.85458	0.81758
703.92602	0.81929
701.99745	0.82083
700.06889	0.82230
698.14032	0.82459
696.21176	0.82777
694.28319	0.83132
692.35463	0.83530
690.42607	0.83962
688.49750	0.84334
686.56894	0.84611
684.64037	0.84832
682.71181	0.84923
680.78324	0.84878
678.85468	0.84858
676.92611	0.84890
674.99755	0.84870
673.06899	0.84783
671.14042	0.84727
669.21186	0.84760
667.28329	0.84536
665.35473	0.84041
663.42616	0.83585
661.49760	0.83169
659.56903	0.82809
657.64047	0.82576
655.71191	0.82400
653.78334	0.82164
651.85478	0.81949
649.92621	0.81853
647.99765	0.81870
646.06908	0.82006
644.14052	0.82232
642.21195	0.82525
640.28339	0.82961
638.35483	0.83526
636.42626	0.84103
634.49770	0.84621
632.56913	0.85091
630.64057	0.85630
628.71200	0.86250
626.78344	0.86726
624.85488	0.86971
622.92631	0.87207
620.99775	0.87489
619.06918	0.87624
617.14062	0.87604
615.21205	0.87568
613.28349	0.87482
611.35492	0.87238
609.42636	0.86907
607.49780	0.86526
605.56923	0.86114
603.64067	0.85756
601.71210	0.85308
599.78354	0.84750
