3997.91406	1.21237
3995.98550	1.21252
3994.05693	1.21070
3992.12837	1.20801
3990.19980	1.20787
3988.27124	1.21002
3986.34268	1.21001
3984.41411	1.20771
3982.48555	1.20652
3980.55698	1.20580
3978.62842	1.20285
3976.69985	1.19935
3974.77129	1.19747
3972.84272	1.19616
3970.91416	1.19637
3968.98560	1.19866
3967.05703	1.19967
3965.12847	1.19820
3963.19990	1.19755
3961.27134	1.19894
3959.34277	1.19867
3957.41421	1.19604
3955.48564	1.19344
3953.55708	1.19116
3951.62852	1.18923
3949.69995	1.18868
3947.77139	1.18845
3945.84282	1.18698
3943.91426	1.18775
3941.98569	1.19032
3940.05713	1.18701
3938.12856	1.17934
3936.20000	1.17379
3934.27144	1.17277
3932.34287	1.17669
3930.41431	1.18139
3928.48574	1.18007
3926.55718	1.17579
3924.62861	1.17706
3922.70005	1.18072
3920.77148	1.17924
3918.84292	1.17805
3916.91436	1.18238
3914.98579	1.18449
3913.05723	1.18139
3911.12866	1.17752
3909.20010	1.17223
3907.27153	1.16665
3905.34297	1.16862
3903.41440	1.17677
3901.48584	1.17987
3899.55728	1.18073
3897.62871	1.17849
3895.70015	1.16968
3893.77158	1.16330
3891.84302	1.16844
3889.91445	1.17169
3887.98589	1.16820
3886.05733	1.17344
3884.12876	1.17840
3882.20020	1.17222
3880.27163	1.17230
3878.34307	1.17119
3876.41450	1.16215
3874.48594	1.15659
3872.55737	1.15391
3870.62881	1.15652
3868.70025	1.16221
3866.77168	1.15818
3864.84312	1.15773
3862.91455	1.16467
3860.98599	1.16297
3859.05742	1.15325
3857.12886	1.14008
3855.20029	1.13636
3853.27173	1.16854
3851.34317	1.18528
3849.41460	1.16896
3847.48604	1.15121
3845.55747	1.14175
3843.62891	1.13912
3841.70034	1.13803
3839.77178	1.14156
3837.84321	1.15298
3835.91465	1.15742
3833.98609	1.15453
3832.05752	1.15321
3830.12896	1.14969
3828.20039	1.14323
3826.27183	1.13900
3824.34326	1.13371
3822.41470	1.13260
3820.48613	1.14052
3818.55757	1.13906
3816.62901	1.14175
3814.70044	1.14923
3812.77188	1.14106
3810.84331	1.12562
3808.91475	1.11799
3806.98618	1.12598
3805.05762	1.12936
3803.12905	1.12467
3801.20049	1.13551
3799.27193	1.14328
3797.34336	1.13835
3795.41480	1.13510
3793.48623	1.13245
3791.55767	1.12925
3789.62910	1.12655
3787.70054	1.12486
3785.77197	1.12724
3783.84341	1.12848
3781.91485	1.12459
3779.98628	1.12620
3778.05772	1.13126
3776.12915	1.12771
3774.20059	1.11898
3772.27202	1.11195
3770.34346	1.11344
3768.41489	1.11901
3766.48633	1.12137
3764.55777	1.12062
3762.62920	1.11279
3760.70064	1.10686
3758.77207	1.11290
3756.84351	1.11540
3754.91494	1.10578
3752.98638	1.09734
3751.05781	1.10933
3749.12925	1.12030
3747.20069	1.11064
3745.27212	1.10880
3743.34356	1.11965
3741.41499	1.11616
3739.48643	1.10255
3737.55786	1.09327
3735.62930	1.09883
3733.70074	1.11225
3731.77217	1.11733
3729.84361	1.11275
3727.91504	1.10547
3725.98648	1.10445
3724.05791	1.11006
3722.12935	1.11520
3720.20078	1.11599
3718.27222	1.11112
3716.34366	1.10212
3714.41509	1.09280
3712.48653	1.09504
3710.55796	1.11254
3708.62940	1.11744
3706.70083	1.10841
3704.77227	1.09843
3702.84370	1.09811
3700.91514	1.10666
3698.98658	1.10788
3697.05801	1.10154
3695.12945	1.09534
3693.20088	1.09017
3691.27232	1.08996
3689.34375	1.10486
3687.41519	1.11625
3685.48662	1.11072
3683.55806	1.10073
3681.62950	1.09417
3679.70093	1.09002
3677.77237	1.08935
3675.84380	1.10589
3673.91524	1.11493
3671.98667	1.10353
3670.05811	1.10639
3668.12954	1.11739
3666.20098	1.11544
3664.27242	1.11225
3662.34385	1.11224
3660.41529	1.11139
3658.48672	1.11182
3656.55816	1.11944
3654.62959	1.12358
3652.70103	1.11703
3650.77246	1.11750
3648.84390	1.14477
3646.91534	1.16006
3644.98677	1.15323
3643.05821	1.14672
3641.12964	1.14682
3639.20108	1.14961
3637.27251	1.15242
3635.34395	1.15412
3633.41538	1.15040
3631.48682	1.14508
3629.55826	1.16225
3627.62969	1.19369
3625.70113	1.19437
3623.77256	1.18128
3621.84400	1.17183
3619.91543	1.17749
3617.98687	1.19276
3616.05830	1.19717
3614.12974	1.19832
3612.20118	1.20015
3610.27261	1.19955
3608.34405	1.20716
3606.41548	1.21820
3604.48692	1.21954
3602.55835	1.21982
3600.62979	1.22524
3598.70123	1.22822
3596.77266	1.22990
3594.84410	1.23830
3592.91553	1.24598
3590.98697	1.24410
3589.05840	1.24362
3587.12984	1.25563
3585.20127	1.26382
3583.27271	1.26327
3581.34415	1.26392
3579.41558	1.26874
3577.48702	1.27537
3575.55845	1.27944
3573.62989	1.28088
3571.70132	1.28129
3569.77276	1.28084
3567.84419	1.28710
3565.91563	1.30379
3563.98707	1.31601
3562.05850	1.32180
3560.12994	1.32496
3558.20137	1.32595
3556.27281	1.32638
3554.34424	1.32987
3552.41568	1.33758
3550.48711	1.34220
3548.55855	1.34285
3546.62999	1.35007
3544.70142	1.36236
3542.77286	1.36748
3540.84429	1.36620
3538.91573	1.36476
3536.98716	1.36850
3535.05860	1.37892
3533.13003	1.38733
3531.20147	1.38742
3529.27291	1.38737
3527.34434	1.39610
3525.41578	1.40896
3523.48721	1.41801
3521.55865	1.42185
3519.63008	1.42533
3517.70152	1.43142
3515.77295	1.43620
3513.84439	1.43776
3511.91583	1.44124
3509.98726	1.45038
3508.05870	1.46064
3506.13013	1.46684
3504.20157	1.47323
3502.27300	1.48441
3500.34444	1.49250
3498.41587	1.49199
3496.48731	1.49082
3494.55875	1.49682
3492.63018	1.50767
3490.70162	1.51656
3488.77305	1.52027
3486.84449	1.52007
3484.91592	1.51915
3482.98736	1.52261
3481.05879	1.53061
3479.13023	1.53608
3477.20167	1.53709
3475.27310	1.53780
3473.34454	1.53975
3471.41597	1.54090
3469.48741	1.54218
3467.55884	1.54501
3465.63028	1.54634
3463.70171	1.54578
3461.77315	1.54636
3459.84459	1.55023
3457.91602	1.55907
3455.98746	1.56859
3454.05889	1.57062
3452.13033	1.56723
3450.20176	1.56821
3448.27320	1.57672
3446.34464	1.58223
3444.41607	1.57776
3442.48751	1.57288
3440.55894	1.57326
3438.63038	1.57561
3436.70181	1.57534
3434.77325	1.57141
3432.84468	1.56931
3430.91612	1.57186
3428.98756	1.57571
3427.05899	1.57802
3425.13043	1.57683
3423.20186	1.57194
3421.27330	1.56954
3419.34473	1.57239
3417.41617	1.57419
3415.48760	1.57017
3413.55904	1.56040
3411.63048	1.55461
3409.70191	1.56096
3407.77335	1.57161
3405.84478	1.57579
3403.91622	1.57278
3401.98765	1.57183
3400.05909	1.57792
3398.13052	1.58487
3396.20196	1.58715
3394.27340	1.58355
3392.34483	1.57676
3390.41627	1.57242
3388.48770	1.57430
3386.55914	1.57986
3384.63057	1.58193
3382.70201	1.57899
3380.77344	1.57659
3378.84488	1.57900
3376.91632	1.58301
3374.98775	1.58359
3373.05919	1.58308
3371.13062	1.58452
3369.20206	1.58440
3367.27349	1.58069
3365.34493	1.57938
3363.41636	1.58300
3361.48780	1.58451
3359.55924	1.57985
3357.63067	1.57570
3355.70211	1.57734
3353.77354	1.58027
3351.84498	1.58330
3349.91641	1.58849
3347.98785	1.59059
3346.05928	1.58631
3344.13072	1.58144
3342.20216	1.58358
3340.27359	1.59056
3338.34503	1.59187
3336.41646	1.58636
3334.48790	1.58445
3332.55933	1.58967
3330.63077	1.59469
3328.70220	1.59647
3326.77364	1.59856
3324.84508	1.60036
3322.91651	1.59871
3320.98795	1.59590
3319.05938	1.59593
3317.13082	1.59682
3315.20225	1.59788
3313.27369	1.60244
3311.34513	1.60875
3309.41656	1.61300
3307.48800	1.61451
3305.55943	1.61560
3303.63087	1.61901
3301.70230	1.62335
3299.77374	1.62681
3297.84517	1.62876
3295.91661	1.62659
3293.98805	1.61963
3292.05948	1.60985
3290.13092	1.60252
3288.20235	1.60374
3286.27379	1.60900
3284.34522	1.61200
3282.41666	1.61535
3280.48809	1.61737
3278.55953	1.61392
3276.63097	1.60850
3274.70240	1.60381
3272.77384	1.60046
3270.84527	1.60009
3268.91671	1.59780
3266.98814	1.58977
3265.05958	1.58341
3263.13101	1.58181
3261.20245	1.58147
3259.27389	1.58254
3257.34532	1.58373
3255.41676	1.58236
3253.48819	1.57899
3251.55963	1.57473
3249.63106	1.56975
3247.70250	1.56444
3245.77393	1.55746
3243.84537	1.54767
3241.91681	1.54015
3239.98824	1.53810
3238.05968	1.53658
3236.13111	1.53087
3234.20255	1.52272
3232.27398	1.51718
3230.34542	1.51418
3228.41685	1.51027
3226.48829	1.50659
3224.55973	1.50412
3222.63116	1.50034
3220.70260	1.49569
3218.77403	1.49117
3216.84547	1.48462
3214.91690	1.47805
3212.98834	1.47489
3211.05977	1.47314
3209.13121	1.47045
3207.20265	1.46696
3205.27408	1.46352
3203.34552	1.45925
3201.41695	1.45356
3199.48839	1.44939
3197.55982	1.44652
3195.63126	1.44078
3193.70269	1.43309
3191.77413	1.42751
3189.84557	1.42338
3187.91700	1.41929
3185.98844	1.41716
3184.05987	1.41586
3182.13131	1.41258
3180.20274	1.40849
3178.27418	1.40479
3176.34562	1.40125
3174.41705	1.39824
3172.48849	1.39522
3170.55992	1.39009
3168.63136	1.38341
3166.70279	1.37776
3164.77423	1.37324
3162.84566	1.36938
3160.91710	1.36635
3158.98854	1.36429
3157.05997	1.36325
3155.13141	1.36242
3153.20284	1.36111
3151.27428	1.35823
3149.34571	1.35343
3147.41715	1.34904
3145.48858	1.34651
3143.56002	1.34463
3141.63146	1.34209
3139.70289	1.33941
3137.77433	1.33703
3135.84576	1.33435
3133.91720	1.33254
3131.98863	1.33211
3130.06007	1.32965
3128.13150	1.32433
3126.20294	1.32121
3124.27438	1.32283
3122.34581	1.32597
3120.41725	1.32820
3118.48868	1.32967
3116.56012	1.32980
3114.63155	1.32824
3112.70299	1.32644
3110.77442	1.32439
3108.84586	1.32084
3106.91730	1.31691
3104.98873	1.31395
3103.06017	1.31181
3101.13160	1.31139
3099.20304	1.31327
3097.27447	1.31475
3095.34591	1.31340
3093.41734	1.31132
3091.48878	1.31047
3089.56022	1.30893
3087.63165	1.30531
3085.70309	1.30148
3083.77452	1.29877
3081.84596	1.29557
3079.91739	1.29155
3077.98883	1.28900
3076.06026	1.28850
3074.13170	1.28770
3072.20314	1.28508
3070.27457	1.28125
3068.34601	1.27587
3066.41744	1.26995
3064.48888	1.26634
3062.56031	1.26457
3060.63175	1.26246
3058.70318	1.25945
3056.77462	1.25553
3054.84606	1.25022
3052.91749	1.24492
3050.98893	1.24130
3049.06036	1.23724
3047.13180	1.23170
3045.20323	1.22732
3043.27467	1.22491
3041.34610	1.22235
3039.41754	1.21908
3037.48898	1.21654
3035.56041	1.21408
3033.63185	1.21105
3031.70328	1.20855
3029.77472	1.20585
3027.84615	1.20232
3025.91759	1.19833
3023.98903	1.19321
3022.06046	1.18849
3020.13190	1.18684
3018.20333	1.18622
3016.27477	1.18421
3014.34620	1.18277
3012.41764	1.18213
3010.48907	1.17880
3008.56051	1.17345
3006.63195	1.17097
3004.70338	1.17163
3002.77482	1.17194
3000.84625	1.17044
2998.91769	1.16772
2996.98912	1.16626
2995.06056	1.16848
2993.13199	1.17309
2991.20343	1.17755
2989.27487	1.18070
2987.34630	1.18218
2985.41774	1.18392
2983.48917	1.18746
2981.56061	1.19099
2979.63204	1.19545
2977.70348	1.20272
2975.77491	1.20928
2973.84635	1.21253
2971.91779	1.21479
2969.98922	1.21927
2968.06066	1.22684
2966.13209	1.23510
2964.20353	1.24101
2962.27496	1.24366
2960.34640	1.24420
2958.41783	1.24387
2956.48927	1.24164
2954.56071	1.23600
2952.63214	1.22868
2950.70358	1.22281
2948.77501	1.21955
2946.84645	1.21895
2944.91788	1.22104
2942.98932	1.22615
2941.06075	1.23469
2939.13219	1.24529
2937.20363	1.25641
2935.27506	1.26775
2933.34650	1.27793
2931.41793	1.28581
2929.48937	1.29241
2927.56080	1.29910
2925.63224	1.30519
2923.70367	1.30882
2921.77511	1.31037
2919.84655	1.31043
2917.91798	1.30809
2915.98942	1.30037
2914.06085	1.28401
2912.13229	1.26353
2910.20372	1.24663
2908.27516	1.23440
2906.34659	1.22540
2904.41803	1.22019
2902.48947	1.21740
2900.56090	1.21386
2898.63234	1.20994
2896.70377	1.20714
2894.77521	1.20422
2892.84664	1.20021
2890.91808	1.19546
2888.98952	1.19065
2887.06095	1.18661
2885.13239	1.18382
2883.20382	1.18190
2881.27526	1.18035
2879.34669	1.17974
2877.41813	1.17979
2875.48956	1.17873
2873.56100	1.17628
2871.63244	1.17293
2869.70387	1.16815
2867.77531	1.16206
2865.84674	1.15649
2863.91818	1.15390
2861.98961	1.15500
2860.06105	1.15768
2858.13248	1.16056
2856.20392	1.16565
2854.27536	1.17348
2852.34679	1.18032
2850.41823	1.18163
2848.48966	1.17343
2846.56110	1.15570
2844.63253	1.13477
2842.70397	1.11697
2840.77540	1.10400
2838.84684	1.09399
2836.91828	1.08510
2834.98971	1.07751
2833.06115	1.07158
2831.13258	1.06678
2829.20402	1.06238
2827.27545	1.05874
2825.34689	1.05663
2823.41832	1.05481
2821.48976	1.05200
2819.56120	1.04869
2817.63263	1.04508
2815.70407	1.04138
2813.77550	1.03776
2811.84694	1.03391
2809.91837	1.03090
2807.98981	1.02990
2806.06124	1.02983
2804.13268	1.02848
2802.20412	1.02496
2800.27555	1.02094
2798.34699	1.01821
2796.41842	1.01611
2794.48986	1.01371
2792.56129	1.01123
2790.63273	1.00851
2788.70416	1.00589
2786.77560	1.00431
2784.84704	1.00378
2782.91847	1.00320
2780.98991	1.00152
2779.06134	0.99902
2777.13278	0.99655
2775.20421	0.99455
2773.27565	0.99296
2771.34708	0.99095
2769.41852	0.98832
2767.48996	0.98627
2765.56139	0.98556
2763.63283	0.98518
2761.70426	0.98371
2759.77570	0.98112
2757.84713	0.97895
2755.91857	0.97870
2753.99001	0.97927
2752.06144	0.97880
2750.13288	0.97795
2748.20431	0.97739
2746.27575	0.97630
2744.34718	0.97441
2742.41862	0.97183
2740.49005	0.96886
2738.56149	0.96677
2736.63293	0.96623
2734.70436	0.96603
2732.77580	0.96528
2730.84723	0.96454
2728.91867	0.96349
2726.99010	0.96177
2725.06154	0.96018
2723.13297	0.95922
2721.20441	0.95868
2719.27585	0.95797
2717.34728	0.95626
2715.41872	0.95389
2713.49015	0.95194
2711.56159	0.95026
2709.63302	0.94815
2707.70446	0.94605
2705.77589	0.94469
2703.84733	0.94406
2701.91877	0.94348
2699.99020	0.94255
2698.06164	0.94187
2696.13307	0.94153
2694.20451	0.94088
2692.27594	0.93967
2690.34738	0.93767
2688.41881	0.93528
2686.49025	0.93335
2684.56169	0.93174
2682.63312	0.93036
2680.70456	0.92921
2678.77599	0.92767
2676.84743	0.92606
2674.91886	0.92528
2672.99030	0.92468
2671.06173	0.92292
2669.13317	0.92021
2667.20461	0.91835
2665.27604	0.91781
2663.34748	0.91690
2661.41891	0.91509
2659.49035	0.91362
2657.56178	0.91265
2655.63322	0.91158
2653.70465	0.91018
2651.77609	0.90841
2649.84753	0.90700
2647.91896	0.90629
2645.99040	0.90530
2644.06183	0.90378
2642.13327	0.90266
2640.20470	0.90221
2638.27614	0.90164
2636.34757	0.90056
2634.41901	0.89944
2632.49045	0.89825
2630.56188	0.89687
2628.63332	0.89546
2626.70475	0.89380
2624.77619	0.89208
2622.84762	0.89104
2620.91906	0.89056
2618.99049	0.88981
2617.06193	0.88885
2615.13337	0.88810
2613.20480	0.88721
2611.27624	0.88596
2609.34767	0.88474
2607.41911	0.88375
2605.49054	0.88274
2603.56198	0.88139
2601.63342	0.87977
2599.70485	0.87823
2597.77629	0.87697
2595.84772	0.87594
2593.91916	0.87508
2591.99059	0.87418
2590.06203	0.87308
2588.13346	0.87194
2586.20490	0.87068
2584.27634	0.86978
2582.34777	0.86988
2580.41921	0.86993
2578.49064	0.86884
2576.56208	0.86705
2574.63351	0.86523
2572.70495	0.86381
2570.77638	0.86242
2568.84782	0.86045
2566.91926	0.85850
2564.99069	0.85743
2563.06213	0.85695
2561.13356	0.85623
2559.20500	0.85502
2557.27643	0.85397
2555.34787	0.85358
2553.41930	0.85327
2551.49074	0.85221
2549.56218	0.85047
2547.63361	0.84855
2545.70505	0.84674
2543.77648	0.84523
2541.84792	0.84410
2539.91935	0.84311
2537.99079	0.84211
2536.06222	0.84141
2534.13366	0.84108
2532.20510	0.84068
2530.27653	0.83996
2528.34797	0.83922
2526.41940	0.83883
2524.49084	0.83841
2522.56227	0.83762
2520.63371	0.83644
2518.70514	0.83468
2516.77658	0.83274
2514.84802	0.83140
2512.91945	0.83078
2510.99089	0.83067
2509.06232	0.83061
2507.13376	0.82999
2505.20519	0.82889
2503.27663	0.82794
2501.34806	0.82714
2499.41950	0.82604
2497.49094	0.82459
2495.56237	0.82307
2493.63381	0.82178
2491.70524	0.82084
2489.77668	0.81986
2487.84811	0.81838
2485.91955	0.81669
2483.99098	0.81537
2482.06242	0.81480
2480.13386	0.81496
2478.20529	0.81513
2476.27673	0.81474
2474.34816	0.81380
2472.41960	0.81226
2470.49103	0.81047
2468.56247	0.80925
2466.63391	0.80857
2464.70534	0.80770
2462.77678	0.80649
2460.84821	0.80509
2458.91965	0.80366
2456.99108	0.80254
2455.06252	0.80181
2453.13395	0.80108
2451.20539	0.80007
2449.27683	0.79888
2447.34826	0.79795
2445.41970	0.79742
2443.49113	0.79673
2441.56257	0.79546
2439.63400	0.79406
2437.70544	0.79295
2435.77687	0.79200
2433.84831	0.79112
2431.91975	0.79024
2429.99118	0.78921
2428.06262	0.78805
2426.13405	0.78685
2424.20549	0.78553
2422.27692	0.78418
2420.34836	0.78326
2418.41979	0.78296
2416.49123	0.78260
2414.56267	0.78173
2412.63410	0.78069
2410.70554	0.77963
2408.77697	0.77864
2406.84841	0.77768
2404.91984	0.77646
2402.99128	0.77499
2401.06271	0.77377
2399.13415	0.77299
2397.20559	0.77237
2395.27702	0.77173
2393.34846	0.77128
2391.41989	0.77105
2389.49133	0.77058
2387.56276	0.76939
2385.63420	0.76744
2383.70563	0.76519
2381.77707	0.76309
2379.84851	0.76094
2377.91994	0.75829
2375.99138	0.75582
2374.06281	0.75427
2372.13425	0.75267
2370.20568	0.75114
2368.27712	0.75063
2366.34855	0.74930
2364.41999	0.74673
2362.49143	0.74628
2360.56286	0.74736
2358.63430	0.74662
2356.70573	0.74618
2354.77717	0.74820
2352.84860	0.75082
2350.92004	0.75125
2348.99147	0.74858
2347.06291	0.74484
2345.13435	0.74310
2343.20578	0.74298
2341.27722	0.74170
2339.34865	0.74121
2337.42009	0.74242
2335.49152	0.74254
2333.56296	0.74110
2331.63440	0.74029
2329.70583	0.74001
2327.77727	0.73965
2325.84870	0.74035
2323.92014	0.74194
2321.99157	0.74289
2320.06301	0.74218
2318.13444	0.74037
2316.20588	0.73912
2314.27732	0.73879
2312.34875	0.73827
2310.42019	0.73724
2308.49162	0.73626
2306.56306	0.73541
2304.63449	0.73482
2302.70593	0.73466
2300.77736	0.73420
2298.84880	0.73296
2296.92024	0.73153
2294.99167	0.73038
2293.06311	0.72947
2291.13454	0.72874
2289.20598	0.72807
2287.27741	0.72746
2285.34885	0.72700
2283.42028	0.72641
2281.49172	0.72559
2279.56316	0.72508
2277.63459	0.72494
2275.70603	0.72457
2273.77746	0.72370
2271.84890	0.72272
2269.92033	0.72215
2267.99177	0.72197
2266.06320	0.72149
2264.13464	0.72071
2262.20608	0.72032
2260.27751	0.72032
2258.34895	0.72033
2256.42038	0.72021
2254.49182	0.71988
2252.56325	0.71925
2250.63469	0.71836
2248.70612	0.71731
2246.77756	0.71628
2244.84900	0.71547
2242.92043	0.71474
2240.99187	0.71385
2239.06330	0.71294
2237.13474	0.71229
2235.20617	0.71178
2233.27761	0.71128
2231.34904	0.71110
2229.42048	0.71129
2227.49192	0.71137
2225.56335	0.71102
2223.63479	0.71032
2221.70622	0.70952
2219.77766	0.70864
2217.84909	0.70753
2215.92053	0.70626
2213.99196	0.70501
2212.06340	0.70382
2210.13484	0.70290
2208.20627	0.70241
2206.27771	0.70213
2204.34914	0.70198
2202.42058	0.70188
2200.49201	0.70176
2198.56345	0.70159
2196.63488	0.70125
2194.70632	0.70075
2192.77776	0.70004
2190.84919	0.69905
2188.92063	0.69800
2186.99206	0.69698
2185.06350	0.69565
2183.13493	0.69417
2181.20637	0.69303
2179.27781	0.69224
2177.34924	0.69158
2175.42068	0.69101
2173.49211	0.69054
2171.56355	0.69019
2169.63498	0.68984
2167.70642	0.68924
2165.77785	0.68840
2163.84929	0.68774
2161.92073	0.68721
2159.99216	0.68651
2158.06360	0.68581
2156.13503	0.68517
2154.20647	0.68438
2152.27790	0.68358
2150.34934	0.68286
2148.42077	0.68231
2146.49221	0.68199
2144.56365	0.68170
2142.63508	0.68122
2140.70652	0.68071
2138.77795	0.68042
2136.84939	0.68022
2134.92082	0.67973
2132.99226	0.67905
2131.06369	0.67839
2129.13513	0.67776
2127.20657	0.67711
2125.27800	0.67649
2123.34944	0.67592
2121.42087	0.67538
2119.49231	0.67483
2117.56374	0.67429
2115.63518	0.67398
2113.70661	0.67395
2111.77805	0.67378
2109.84949	0.67324
2107.92092	0.67256
2105.99236	0.67196
2104.06379	0.67167
2102.13523	0.67187
2100.20666	0.67219
2098.27810	0.67208
2096.34953	0.67164
2094.42097	0.67113
2092.49241	0.67051
2090.56384	0.67012
2088.63528	0.67013
2086.70671	0.66987
2084.77815	0.66904
2082.84958	0.66821
2080.92102	0.66763
2078.99245	0.66702
2077.06389	0.66621
2075.13533	0.66527
2073.20676	0.66443
2071.27820	0.66379
2069.34963	0.66330
2067.42107	0.66282
2065.49250	0.66231
2063.56394	0.66171
2061.63537	0.66105
2059.70681	0.66033
2057.77825	0.65939
2055.84968	0.65819
2053.92112	0.65682
2051.99255	0.65548
2050.06399	0.65436
2048.13542	0.65338
2046.20686	0.65226
2044.27830	0.65095
2042.34973	0.64971
2040.42117	0.64870
2038.49260	0.64778
2036.56404	0.64686
2034.63547	0.64600
2032.70691	0.64508
2030.77834	0.64378
2028.84978	0.64220
2026.92122	0.64081
2024.99265	0.63972
2023.06409	0.63852
2021.13552	0.63692
2019.20696	0.63530
2017.27839	0.63428
2015.34983	0.63355
2013.42126	0.63257
2011.49270	0.63144
2009.56414	0.63023
2007.63557	0.62898
2005.70701	0.62780
2003.77844	0.62658
2001.84988	0.62500
1999.92131	0.62320
1997.99275	0.62175
1996.06418	0.62046
1994.13562	0.61915
1992.20706	0.61852
1990.27849	0.61832
1988.34993	0.61786
1986.42136	0.61733
1984.49280	0.61679
1982.56423	0.61624
1980.63567	0.61573
1978.70710	0.61514
1976.77854	0.61465
1974.84998	0.61437
1972.92141	0.61387
1970.99285	0.61283
1969.06428	0.61186
1967.13572	0.61162
1965.20715	0.61144
1963.27859	0.61071
1961.35002	0.60999
1959.42146	0.60954
1957.49290	0.60914
1955.56433	0.60874
1953.63577	0.60826
1951.70720	0.60778
1949.77864	0.60724
1947.85007	0.60641
1945.92151	0.60531
1943.99294	0.60484
1942.06438	0.60554
1940.13582	0.60588
1938.20725	0.60533
1936.27869	0.60479
1934.35012	0.60429
1932.42156	0.60365
1930.49299	0.60304
1928.56443	0.60245
1926.63586	0.60157
1924.70730	0.60081
1922.77874	0.60077
1920.85017	0.60039
1918.92161	0.59975
1916.99304	0.59974
1915.06448	0.59910
1913.13591	0.59758
1911.20735	0.59635
1909.27878	0.59581
1907.35022	0.59546
1905.42166	0.59478
1903.49309	0.59389
1901.56453	0.59294
1899.63596	0.59183
1897.70740	0.59064
1895.77883	0.58963
1893.85027	0.58851
1891.92171	0.58708
1889.99314	0.58643
1888.06458	0.58595
1886.13601	0.58437
1884.20745	0.58282
1882.27888	0.58180
1880.35032	0.58070
1878.42175	0.57936
1876.49319	0.57791
1874.56463	0.57623
1872.63606	0.57397
1870.70750	0.57194
1868.77893	0.57204
1866.85037	0.57288
1864.92180	0.57176
1862.99324	0.56970
1861.06467	0.56793
1859.13611	0.56646
1857.20755	0.56490
1855.27898	0.56311
1853.35042	0.56139
1851.42185	0.55974
1849.49329	0.55788
1847.56472	0.55577
1845.63616	0.55476
1843.70759	0.55600
1841.77903	0.55625
1839.85047	0.55464
1837.92190	0.55342
1835.99334	0.55284
1834.06477	0.55138
1832.13621	0.54946
1830.20764	0.54930
1828.27908	0.54980
1826.35051	0.54911
1824.42195	0.54859
1822.49339	0.54775
1820.56482	0.54612
1818.63626	0.54488
1816.70769	0.54424
1814.77913	0.54357
1812.85056	0.54309
1810.92200	0.54368
1808.99343	0.54468
1807.06487	0.54483
1805.13631	0.54410
1803.20774	0.54307
1801.27918	0.54296
1799.35061	0.54358
1797.42205	0.54304
1795.49348	0.54143
1793.56492	0.54121
1791.63635	0.54362
1789.70779	0.54410
1787.77923	0.54220
1785.85066	0.54112
1783.92210	0.54117
1781.99353	0.54139
1780.06497	0.54208
1778.13640	0.54223
1776.20784	0.54080
1774.27927	0.53974
1772.35071	0.54213
1770.42215	0.54534
1768.49358	0.54628
1766.56502	0.54598
1764.63645	0.54477
1762.70789	0.54485
1760.77932	0.54701
1758.85076	0.54855
1756.92220	0.55036
1754.99363	0.55186
1753.06507	0.55220
1751.13650	0.55498
1749.20794	0.56097
1747.27937	0.56512
1745.35081	0.56695
1743.42224	0.56845
1741.49368	0.57071
1739.56512	0.57340
1737.63655	0.57339
1735.70799	0.57204
1733.77942	0.57614
1731.85086	0.58161
1729.92229	0.58371
1727.99373	0.58545
1726.06516	0.58723
1724.13660	0.58999
1722.20804	0.59227
1720.27947	0.59311
1718.35091	0.59811
1716.42234	0.61151
1714.49378	0.62135
1712.56521	0.62620
1710.63665	0.63073
1708.70808	0.63627
1706.77952	0.64645
1704.85096	0.66116
1702.92239	0.67357
1700.99383	0.69338
1699.06526	0.72771
1697.13670	0.75975
1695.20813	0.79147
1693.27957	0.81414
1691.35100	0.83107
1689.42244	0.85246
1687.49388	0.87170
1685.56531	0.89272
1683.63675	0.93358
1681.70818	0.96461
1679.77962	0.98045
1677.85105	0.99539
1675.92249	1.01556
1673.99392	1.03826
1672.06536	1.05476
1670.13680	1.07388
1668.20823	1.09674
1666.27967	1.10923
1664.35110	1.11924
1662.42254	1.13541
1660.49397	1.14978
1658.56541	1.15611
1656.63684	1.15696
1654.70828	1.15771
1652.77972	1.16835
1650.85115	1.17285
1648.92259	1.16949
1646.99402	1.17138
1645.06546	1.17721
1643.13689	1.17774
1641.20833	1.17627
1639.27976	1.17438
1637.35120	1.17453
1635.42264	1.18029
1633.49407	1.18236
1631.56551	1.17926
1629.63694	1.17521
1627.70838	1.17115
1625.77981	1.16628
1623.85125	1.15904
1621.92269	1.14726
1619.99412	1.13310
1618.06556	1.11636
1616.13699	1.09481
1614.20843	1.07432
1612.27986	1.05478
1610.35130	1.03382
1608.42273	1.01327
1606.49417	0.99547
1604.56561	0.98020
1602.63704	0.96689
1600.70848	0.95635
1598.77991	0.94837
1596.85135	0.94188
1594.92278	0.93645
1592.99422	0.93237
1591.06565	0.93016
1589.13709	0.93019
1587.20853	0.93253
1585.27996	0.93737
1583.35140	0.94479
1581.42283	0.95274
1579.49427	0.95930
1577.56570	0.96916
1575.63714	0.98677
1573.70857	0.99732
1571.78001	1.00193
1569.85145	1.01255
1567.92288	1.02587
1565.99432	1.03462
1564.06575	1.04164
1562.13719	1.04522
1560.20862	1.05064
1558.28006	1.07432
1556.35149	1.08864
1554.42293	1.09263
1552.49437	1.09540
1550.56580	1.09714
1548.63724	1.09754
1546.70867	1.09565
1544.78011	1.09211
1542.85154	1.08837
1540.92298	1.08762
1538.99441	1.08715
1537.06585	1.08178
1535.13729	1.07507
1533.20872	1.06864
1531.28016	1.06183
1529.35159	1.05426
1527.42303	1.04651
1525.49446	1.03953
1523.56590	1.03477
1521.63733	1.03362
1519.70877	1.03330
1517.78021	1.02990
1515.85164	1.02306
1513.92308	1.01206
1511.99451	0.99732
1510.06595	0.98088
1508.13738	0.96231
1506.20882	0.94089
1504.28025	0.92470
1502.35169	0.91024
1500.42313	0.89496
1498.49456	0.87952
1496.56600	0.86522
1494.63743	0.85275
1492.70887	0.84162
1490.78030	0.83102
1488.85174	0.82161
1486.92317	0.81401
1484.99461	0.80741
1483.06605	0.80265
1481.13748	0.80079
1479.20892	0.80121
1477.28035	0.80350
1475.35179	0.80984
1473.42322	0.82502
1471.49466	0.84352
1469.56610	0.85238
1467.63753	0.85677
1465.70897	0.86414
1463.78040	0.87308
1461.85184	0.87604
1459.92327	0.87527
1457.99471	0.88042
1456.06614	0.89241
1454.13758	0.89523
1452.20902	0.89339
1450.28045	0.89167
1448.35189	0.89102
1446.42332	0.89030
1444.49476	0.88815
1442.56619	0.88480
1440.63763	0.88054
1438.70906	0.87580
1436.78050	0.87150
1434.85194	0.86662
1432.92337	0.86023
1430.99481	0.85355
1429.06624	0.84735
1427.13768	0.84176
1425.20911	0.83748
1423.28055	0.83480
1421.35198	0.83308
1419.42342	0.83414
1417.49486	0.83751
1415.56629	0.83789
1413.63773	0.83599
1411.70916	0.83375
1409.78060	0.83147
1407.85203	0.82931
1405.92347	0.82821
1403.99490	0.82777
1402.06634	0.82609
1400.13778	0.82375
1398.20921	0.82171
1396.28065	0.82015
1394.35208	0.81996
1392.42352	0.82035
1390.49495	0.82100
1388.56639	0.82526
1386.63782	0.83511
1384.70926	0.84585
1382.78070	0.85488
1380.85213	0.86210
1378.92357	0.86547
1376.99500	0.86414
1375.06644	0.85912
1373.13787	0.85147
1371.20931	0.84205
1369.28074	0.83087
1367.35218	0.81838
1365.42362	0.80616
1363.49505	0.79503
1361.56649	0.78617
1359.63792	0.77983
1357.70936	0.77484
1355.78079	0.77101
1353.85223	0.76834
1351.92366	0.76636
1349.99510	0.76494
1348.06654	0.76440
1346.13797	0.76460
1344.20941	0.76488
1342.28084	0.76530
1340.35228	0.76732
1338.42371	0.77146
1336.49515	0.77606
1334.56659	0.78080
1332.63802	0.78638
1330.70946	0.79261
1328.78089	0.79839
1326.85233	0.80261
1324.92376	0.80521
1322.99520	0.80695
1321.06663	0.80868
1319.13807	0.81082
1317.20951	0.81278
1315.28094	0.81382
1313.35238	0.81439
1311.42381	0.81495
1309.49525	0.81509
1307.56668	0.81443
1305.63812	0.81316
1303.70955	0.81178
1301.78099	0.81028
1299.85243	0.80812
1297.92386	0.80521
1295.99530	0.80215
1294.06673	0.79966
1292.13817	0.79843
1290.20960	0.79854
1288.28104	0.79943
1286.35247	0.80053
1284.42391	0.80141
1282.49535	0.80219
1280.56678	0.80334
1278.63822	0.80502
1276.70965	0.80712
1274.78109	0.80977
1272.85252	0.81340
1270.92396	0.81783
1268.99539	0.82266
1267.06683	0.82761
1265.13827	0.83181
1263.20970	0.83428
1261.28114	0.83533
1259.35257	0.83575
1257.42401	0.83574
1255.49544	0.83559
1253.56688	0.83589
1251.63831	0.83657
1249.70975	0.83716
1247.78119	0.83757
1245.85262	0.83803
1243.92406	0.83839
1241.99549	0.83812
1240.06693	0.83715
1238.13836	0.83565
1236.20980	0.83345
1234.28123	0.83014
1232.35267	0.82574
1230.42411	0.82080
1228.49554	0.81557
1226.56698	0.80977
1224.63841	0.80341
1222.70985	0.79684
1220.78128	0.79061
1218.85272	0.78521
1216.92415	0.78103
1214.99559	0.77850
1213.06703	0.77806
1211.13846	0.77972
1209.20990	0.78268
1207.28133	0.78528
1205.35277	0.78579
1203.42420	0.78352
1201.49564	0.77912
1199.56708	0.77366
1197.63851	0.76760
1195.70995	0.76141
1193.78138	0.75604
1191.85282	0.75217
1189.92425	0.74968
1187.99569	0.74828
1186.06712	0.74823
1184.13856	0.74990
1182.21000	0.75294
1180.28143	0.75680
1178.35287	0.76157
1176.42430	0.76751
1174.49574	0.77420
1172.56717	0.78124
1170.63861	0.78923
1168.71004	0.79924
1166.78148	0.81190
1164.85292	0.82722
1162.92435	0.84430
1160.99579	0.86114
1159.06722	0.87495
1157.13866	0.88295
1155.21009	0.88382
1153.28153	0.87819
1151.35296	0.86798
1149.42440	0.85544
1147.49584	0.84249
1145.56727	0.83088
1143.63871	0.82193
1141.71014	0.81610
1139.78158	0.81365
1137.85301	0.81452
1135.92445	0.81813
1133.99588	0.82413
1132.06732	0.83218
1130.13876	0.84186
1128.21019	0.85311
1126.28163	0.86517
1124.35306	0.87621
1122.42450	0.88541
1120.49593	0.89344
1118.56737	0.90024
1116.63880	0.90471
1114.71024	0.90645
1112.78168	0.90616
1110.85311	0.90457
1108.92455	0.90209
1106.99598	0.89924
1105.06742	0.89651
1103.13885	0.89426
1101.21029	0.89286
1099.28172	0.89290
1097.35316	0.89502
1095.42460	0.89913
1093.49603	0.90470
1091.56747	0.91159
1089.63890	0.92016
1087.71034	0.93084
1085.78177	0.94364
1083.85321	0.95685
1081.92464	0.96809
1079.99608	0.97640
1078.06752	0.98138
1076.13895	0.98259
1074.21039	0.97964
1072.28182	0.97293
1070.35326	0.96488
1068.42469	0.95711
1066.49613	0.94906
1064.56756	0.94053
1062.63900	0.93205
1060.71044	0.92430
1058.78187	0.91774
1056.85331	0.91211
1054.92474	0.90714
1052.99618	0.90300
1051.06761	0.90011
1049.13905	0.89943
1047.21049	0.90176
1045.28192	0.90678
1043.35336	0.91315
1041.42479	0.91944
1039.49623	0.92510
1037.56766	0.92971
1035.63910	0.93194
1033.71053	0.93101
1031.78197	0.92776
1029.85341	0.92324
1027.92484	0.91738
1025.99628	0.90959
1024.06771	0.90058
1022.13915	0.89208
1020.21058	0.88511
1018.28202	0.87927
1016.35345	0.87371
1014.42489	0.86732
1012.49633	0.85810
1010.56776	0.84519
1008.63920	0.83015
1006.71063	0.81497
1004.78207	0.80056
1002.85350	0.78737
1000.92494	0.77598
998.99637	0.76686
997.06781	0.76024
995.13925	0.75558
993.21068	0.75120
991.28212	0.74575
989.35355	0.73900
987.42499	0.73108
985.49642	0.72246
983.56786	0.71418
981.63929	0.70714
979.71073	0.70144
977.78217	0.69691
975.85360	0.69300
973.92504	0.68866
971.99647	0.68322
970.06791	0.67704
968.13934	0.67107
966.21078	0.66650
964.28221	0.66441
962.35365	0.66578
960.42509	0.67148
958.49652	0.68074
956.56796	0.68995
954.63939	0.69482
952.71083	0.69418
950.78226	0.68988
948.85370	0.68415
946.92513	0.67870
944.99657	0.67450
943.06801	0.67174
941.13944	0.67032
939.21088	0.66993
937.28231	0.67027
935.35375	0.67135
933.42518	0.67311
931.49662	0.67538
929.56805	0.67813
927.63949	0.68121
925.71093	0.68440
923.78236	0.68743
921.85380	0.68988
919.92523	0.69156
917.99667	0.69267
916.06810	0.69361
914.13954	0.69478
912.21098	0.69652
910.28241	0.69900
908.35385	0.70206
906.42528	0.70558
904.49672	0.70978
902.56815	0.71418
900.63959	0.71763
898.71102	0.71969
896.78246	0.72043
894.85390	0.71981
892.92533	0.71821
890.99677	0.71595
889.06820	0.71294
887.13964	0.70980
885.21107	0.70730
883.28251	0.70548
881.35394	0.70445
879.42538	0.70442
877.49682	0.70498
875.56825	0.70550
873.63969	0.70594
871.71112	0.70651
869.78256	0.70688
867.85399	0.70682
865.92543	0.70642
863.99686	0.70575
862.06830	0.70513
860.13974	0.70509
858.21117	0.70586
856.28261	0.70716
854.35404	0.70843
852.42548	0.70931
850.49691	0.70959
848.56835	0.70954
846.63978	0.70991
844.71122	0.71085
842.78266	0.71156
840.85409	0.71156
838.92553	0.71143
836.99696	0.71156
835.06840	0.71130
833.13983	0.71043
831.21127	0.70971
829.28270	0.70954
827.35414	0.70973
825.42558	0.71011
823.49701	0.71035
821.56845	0.71023
819.63988	0.70990
817.71132	0.70974
815.78275	0.71022
813.85419	0.71148
811.92562	0.71304
809.99706	0.71426
808.06850	0.71501
806.13993	0.71560
804.21137	0.71609
802.28280	0.71649
800.35424	0.71720
798.42567	0.71847
796.49711	0.72004
794.56854	0.72175
792.63998	0.72394
790.71142	0.72703
788.78285	0.73068
786.85429	0.73417
784.92572	0.73754
782.99716	0.74095
781.06859	0.74412
779.14003	0.74727
777.21147	0.75089
775.28290	0.75429
773.35434	0.75641
771.42577	0.75755
769.49721	0.75866
767.56864	0.75967
765.64008	0.76030
763.71151	0.76119
761.78295	0.76282
759.85439	0.76479
757.92582	0.76664
755.99726	0.76842
754.06869	0.77056
752.14013	0.77310
750.21156	0.77517
748.28300	0.77582
746.35443	0.77545
744.42587	0.77490
742.49731	0.77380
740.56874	0.77208
738.64018	0.77065
736.71161	0.76990
734.78305	0.76987
732.85448	0.77063
730.92592	0.77241
728.99735	0.77516
727.06879	0.77796
725.14023	0.78017
723.21166	0.78243
721.28310	0.78507
719.35453	0.78643
717.42597	0.78549
715.49740	0.78406
713.56884	0.78313
711.64027	0.78219
709.71171	0.78200
707.78315	0.78313
705.85458	0.78440
703.92602	0.78545
701.99745	0.78710
700.06889	0.78914
698.14032	0.79080
696.21176	0.79199
694.28319	0.79249
692.35463	0.79184
690.42607	0.79042
688.49750	0.78904
686.56894	0.78776
684.64037	0.78545
682.71181	0.78180
680.78324	0.77827
678.85468	0.77591
676.92611	0.77515
674.99755	0.77605
673.06899	0.77712
671.14042	0.77651
669.21186	0.77570
667.28329	0.77870
665.35473	0.78087
663.42616	0.78017
661.49760	0.77830
659.56903	0.77558
657.64047	0.77247
655.71191	0.76948
653.78334	0.76678
651.85478	0.76546
649.92621	0.76610
647.99765	0.76745
646.06908	0.76847
644.14052	0.77009
642.21195	0.77393
640.28339	0.77963
638.35483	0.78498
636.42626	0.78867
634.49770	0.79019
632.56913	0.78913
630.64057	0.78610
628.71200	0.78305
626.78344	0.78128
624.85488	0.77964
622.92631	0.77782
620.99775	0.77759
619.06918	0.77887
617.14062	0.78037
615.21205	0.78214
613.28349	0.78405
611.35492	0.78486
609.42636	0.78451
607.49780	0.78536
605.56923	0.78805
603.64067	0.78874
601.71210	0.78646
599.78354	0.78521
