3997.91406	0.94644
3995.98550	0.94471
3994.05693	0.94539
3992.12837	0.94667
3990.19980	0.94669
3988.27124	0.94513
3986.34268	0.94343
3984.41411	0.94357
3982.48555	0.94416
3980.55698	0.94337
3978.62842	0.94251
3976.69985	0.94136
3974.77129	0.93869
3972.84272	0.93598
3970.91416	0.93523
3968.98560	0.93642
3967.05703	0.93764
3965.12847	0.93712
3963.19990	0.93464
3961.27134	0.93165
3959.34277	0.93025
3957.41421	0.93079
3955.48564	0.93173
3953.55708	0.93228
3951.62852	0.93288
3949.69995	0.93395
3947.77139	0.93402
3945.84282	0.93153
3943.91426	0.92981
3941.98569	0.93102
3940.05713	0.93145
3938.12856	0.92995
3936.20000	0.92811
3934.27144	0.92686
3932.34287	0.92694
3930.41431	0.92659
3928.48574	0.92393
3926.55718	0.92152
3924.62861	0.92226
3922.70005	0.92394
3920.77148	0.92426
3918.84292	0.92422
3916.91436	0.92361
3914.98579	0.92190
3913.05723	0.92011
3911.12866	0.91864
3909.20010	0.91598
3907.27153	0.91170
3905.34297	0.90920
3903.41440	0.91171
3901.48584	0.91682
3899.55728	0.92070
3897.62871	0.91991
3895.70015	0.91501
3893.77158	0.91071
3891.84302	0.91056
3889.91445	0.90987
3887.98589	0.90688
3886.05733	0.90756
3884.12876	0.90822
3882.20020	0.90557
3880.27163	0.90730
3878.34307	0.90791
3876.41450	0.90404
3874.48594	0.90241
3872.55737	0.90385
3870.62881	0.90593
3868.70025	0.90468
3866.77168	0.90033
3864.84312	0.90061
3862.91455	0.90377
3860.98599	0.90208
3859.05742	0.89776
3857.12886	0.89283
3855.20029	0.89029
3853.27173	0.90052
3851.34317	0.90846
3849.41460	0.90441
3847.48604	0.89795
3845.55747	0.89394
3843.62891	0.89305
3841.70034	0.89285
3839.77178	0.89411
3837.84321	0.89817
3835.91465	0.89922
3833.98609	0.89788
3832.05752	0.89792
3830.12896	0.89749
3828.20039	0.89515
3826.27183	0.89106
3824.34326	0.88486
3822.41470	0.88408
3820.48613	0.89241
3818.55757	0.89362
3816.62901	0.89292
3814.70044	0.89423
3812.77188	0.89003
3810.84331	0.88344
3808.91475	0.88045
3806.98618	0.88238
3805.05762	0.87978
3803.12905	0.87495
3801.20049	0.87998
3799.27193	0.88498
3797.34336	0.88495
3795.41480	0.88434
3793.48623	0.88166
3791.55767	0.87905
3789.62910	0.87811
3787.70054	0.87744
3785.77197	0.87705
3783.84341	0.87631
3781.91485	0.87507
3779.98628	0.87706
3778.05772	0.88055
3776.12915	0.87961
3774.20059	0.87593
3772.27202	0.87318
3770.34346	0.87375
3768.41489	0.87563
3766.48633	0.87639
3764.55777	0.87641
3762.62920	0.87456
3760.70064	0.87376
3758.77207	0.87635
3756.84351	0.87579
3754.91494	0.87053
3752.98638	0.86609
3751.05781	0.86906
3749.12925	0.87127
3747.20069	0.86692
3745.27212	0.86948
3743.34356	0.87799
3741.41499	0.87520
3739.48643	0.86526
3737.55786	0.85844
3735.62930	0.86395
3733.70074	0.87426
3731.77217	0.87502
3729.84361	0.86983
3727.91504	0.86520
3725.98648	0.86510
3724.05791	0.86780
3722.12935	0.86907
3720.20078	0.86769
3718.27222	0.86417
3716.34366	0.86027
3714.41509	0.85812
3712.48653	0.86160
3710.55796	0.86739
3708.62940	0.86623
3706.70083	0.86241
3704.77227	0.86055
3702.84370	0.86362
3700.91514	0.86729
3698.98658	0.86535
3697.05801	0.86230
3695.12945	0.85989
3693.20088	0.85595
3691.27232	0.85497
3689.34375	0.86537
3687.41519	0.87449
3685.48662	0.87376
3683.55806	0.87044
3681.62950	0.86764
3679.70093	0.86419
3677.77237	0.86260
3675.84380	0.87368
3673.91524	0.88298
3671.98667	0.87942
3670.05811	0.88262
3668.12954	0.89144
3666.20098	0.89371
3664.27242	0.89370
3662.34385	0.89381
3660.41529	0.89348
3658.48672	0.89517
3656.55816	0.90299
3654.62959	0.90880
3652.70103	0.90676
3650.77246	0.90892
3648.84390	0.92868
3646.91534	0.94266
3644.98677	0.94317
3643.05821	0.94202
3641.12964	0.94372
3639.20108	0.94752
3637.27251	0.95173
3635.34395	0.95668
3633.41538	0.96067
3631.48682	0.96226
3629.55826	0.97130
3627.62969	0.98493
3625.70113	0.98695
3623.77256	0.98710
3621.84400	0.99056
3619.91543	0.99788
3617.98687	1.00596
3616.05830	1.00957
3614.12974	1.01348
3612.20118	1.01931
3610.27261	1.02449
3608.34405	1.03172
3606.41548	1.03732
3604.48692	1.03779
3602.55835	1.03945
3600.62979	1.04518
3598.70123	1.05125
3596.77266	1.05694
3594.84410	1.06388
3592.91553	1.06973
3590.98697	1.07296
3589.05840	1.07976
3587.12984	1.09443
3585.20127	1.10383
3583.27271	1.10471
3581.34415	1.10576
3579.41558	1.11130
3577.48702	1.11997
3575.55845	1.12785
3573.62989	1.13229
3571.70132	1.13368
3569.77276	1.13510
3567.84419	1.14333
3565.91563	1.15731
3563.98707	1.16399
3562.05850	1.16576
3560.12994	1.16897
3558.20137	1.17505
3556.27281	1.18277
3554.34424	1.19061
3552.41568	1.19799
3550.48711	1.20283
3548.55855	1.20501
3546.62999	1.20899
3544.70142	1.21596
3542.77286	1.22229
3540.84429	1.22815
3538.91573	1.23457
3536.98716	1.24061
3535.05860	1.24654
3533.13003	1.25210
3531.20147	1.25626
3529.27291	1.26021
3527.34434	1.26682
3525.41578	1.27668
3523.48721	1.28641
3521.55865	1.29440
3519.63008	1.30363
3517.70152	1.31370
3515.77295	1.31946
3513.84439	1.32018
3511.91583	1.32201
3509.98726	1.32882
3508.05870	1.33614
3506.13013	1.34214
3504.20157	1.35291
3502.27300	1.36828
3500.34444	1.38142
3498.41587	1.39223
3496.48731	1.40324
3494.55875	1.41422
3492.63018	1.42432
3490.70162	1.43399
3488.77305	1.44186
3486.84449	1.44470
3484.91592	1.44400
3482.98736	1.44671
3481.05879	1.45610
3479.13023	1.46616
3477.20167	1.47249
3475.27310	1.47586
3473.34454	1.47740
3471.41597	1.47988
3469.48741	1.48474
3467.55884	1.48959
3465.63028	1.49247
3463.70171	1.49458
3461.77315	1.49655
3459.84459	1.49688
3457.91602	1.49520
3455.98746	1.49390
3454.05889	1.49795
3452.13033	1.50929
3450.20176	1.52331
3448.27320	1.53362
3446.34464	1.53348
3444.41607	1.52520
3442.48751	1.52067
3440.55894	1.52413
3438.63038	1.53236
3436.70181	1.54146
3434.77325	1.54589
3432.84468	1.54383
3430.91612	1.53895
3428.98756	1.53616
3427.05899	1.53623
3425.13043	1.53343
3423.20186	1.52935
3421.27330	1.53302
3419.34473	1.53999
3417.41617	1.54005
3415.48760	1.53473
3413.55904	1.52958
3411.63048	1.53011
3409.70191	1.53547
3407.77335	1.53533
3405.84478	1.52738
3403.91622	1.52289
3401.98765	1.52712
3400.05909	1.53250
3398.13052	1.53288
3396.20196	1.53030
3394.27340	1.53139
3392.34483	1.54100
3390.41627	1.55270
3388.48770	1.55522
3386.55914	1.54928
3384.63057	1.54353
3382.70201	1.54164
3380.77344	1.54450
3378.84488	1.54866
3376.91632	1.54700
3374.98775	1.54394
3373.05919	1.54758
3371.13062	1.55342
3369.20206	1.55127
3367.27349	1.54351
3365.34493	1.54273
3363.41636	1.54889
3361.48780	1.55480
3359.55924	1.55939
3357.63067	1.56044
3355.70211	1.55795
3353.77354	1.55710
3351.84498	1.56179
3349.91641	1.57119
3347.98785	1.57770
3346.05928	1.57562
3344.13072	1.57072
3342.20216	1.56994
3340.27359	1.57191
3338.34503	1.57235
3336.41646	1.57014
3334.48790	1.56877
3332.55933	1.57174
3330.63077	1.57881
3328.70220	1.58822
3326.77364	1.59761
3324.84508	1.60426
3322.91651	1.60652
3320.98795	1.60500
3319.05938	1.60369
3317.13082	1.60676
3315.20225	1.61225
3313.27369	1.61550
3311.34513	1.61798
3309.41656	1.61962
3307.48800	1.61854
3305.55943	1.62029
3303.63087	1.62590
3301.70230	1.62829
3299.77374	1.62680
3297.84517	1.62935
3295.91661	1.63737
3293.98805	1.64119
3292.05948	1.64064
3290.13092	1.64086
3288.20235	1.63626
3286.27379	1.63066
3284.34522	1.63359
3282.41666	1.63847
3280.48809	1.64110
3278.55953	1.64784
3276.63097	1.65224
3274.70240	1.64703
3272.77384	1.64185
3270.84527	1.64252
3268.91671	1.64502
3266.98814	1.64403
3265.05958	1.63900
3263.13101	1.63522
3261.20245	1.62968
3259.27389	1.61808
3257.34532	1.60904
3255.41676	1.60544
3253.48819	1.59723
3251.55963	1.58342
3249.63106	1.57432
3247.70250	1.56906
3245.77393	1.55975
3243.84537	1.55128
3241.91681	1.54823
3239.98824	1.54456
3238.05968	1.53812
3236.13111	1.53070
3234.20255	1.52297
3232.27398	1.51861
3230.34542	1.51748
3228.41685	1.51263
3226.48829	1.50362
3224.55973	1.49608
3222.63116	1.49094
3220.70260	1.48666
3218.77403	1.48391
3216.84547	1.48178
3214.91690	1.47672
3212.98834	1.47018
3211.05977	1.46704
3209.13121	1.46571
3207.20265	1.46065
3205.27408	1.45170
3203.34552	1.44503
3201.41695	1.44211
3199.48839	1.43739
3197.55982	1.43088
3195.63126	1.42571
3193.70269	1.42150
3191.77413	1.41928
3189.84557	1.41881
3187.91700	1.41649
3185.98844	1.41054
3184.05987	1.40274
3182.13131	1.39528
3180.20274	1.38877
3178.27418	1.38419
3176.34562	1.38158
3174.41705	1.37798
3172.48849	1.37178
3170.55992	1.36512
3168.63136	1.35953
3166.70279	1.35475
3164.77423	1.35221
3162.84566	1.35165
3160.91710	1.34927
3158.98854	1.34575
3157.05997	1.34405
3155.13141	1.34080
3153.20284	1.33453
3151.27428	1.33016
3149.34571	1.32862
3147.41715	1.32582
3145.48858	1.31990
3143.56002	1.31399
3141.63146	1.31231
3139.70289	1.31407
3137.77433	1.31462
3135.84576	1.31215
3133.91720	1.30955
3131.98863	1.30749
3130.06007	1.30434
3128.13150	1.30292
3126.20294	1.30556
3124.27438	1.30807
3122.34581	1.30731
3120.41725	1.30636
3118.48868	1.30669
3116.56012	1.30575
3114.63155	1.30412
3112.70299	1.30404
3110.77442	1.30541
3108.84586	1.30606
3106.91730	1.30359
3104.98873	1.30029
3103.06017	1.29905
3101.13160	1.29795
3099.20304	1.29653
3097.27447	1.29601
3095.34591	1.29457
3093.41734	1.29211
3091.48878	1.29079
3089.56022	1.29052
3087.63165	1.29021
3085.70309	1.28859
3083.77452	1.28549
3081.84596	1.28231
3079.91739	1.27857
3077.98883	1.27373
3076.06026	1.26926
3074.13170	1.26578
3072.20314	1.26252
3070.27457	1.25876
3068.34601	1.25445
3066.41744	1.25058
3064.48888	1.24812
3062.56031	1.24600
3060.63175	1.24266
3058.70318	1.23880
3056.77462	1.23537
3054.84606	1.23067
3052.91749	1.22435
3050.98893	1.21898
3049.06036	1.21506
3047.13180	1.21090
3045.20323	1.20619
3043.27467	1.20155
3041.34610	1.19728
3039.41754	1.19308
3037.48898	1.18833
3035.56041	1.18380
3033.63185	1.18052
3031.70328	1.17803
3029.77472	1.17556
3027.84615	1.17227
3025.91759	1.16834
3023.98903	1.16537
3022.06046	1.16344
3020.13190	1.16145
3018.20333	1.15936
3016.27477	1.15716
3014.34620	1.15432
3012.41764	1.15207
3010.48907	1.15136
3008.56051	1.15085
3006.63195	1.15011
3004.70338	1.14991
3002.77482	1.15067
3000.84625	1.15117
2998.91769	1.14989
2996.98912	1.14797
2995.06056	1.14675
2993.13199	1.14664
2991.20343	1.14880
2989.27487	1.15330
2987.34630	1.15782
2985.41774	1.16089
2983.48917	1.16446
2981.56061	1.16989
2979.63204	1.17527
2977.70348	1.17977
2975.77491	1.18517
2973.84635	1.19225
2971.91779	1.20022
2969.98922	1.20853
2968.06066	1.21646
2966.13209	1.22318
2964.20353	1.22879
2962.27496	1.23390
2960.34640	1.23780
2958.41783	1.23840
2956.48927	1.23523
2954.56071	1.22962
2952.63214	1.22242
2950.70358	1.21545
2948.77501	1.21170
2946.84645	1.21216
2944.91788	1.21622
2942.98932	1.22372
2941.06075	1.23348
2939.13219	1.24344
2937.20363	1.25318
2935.27506	1.26331
2933.34650	1.27328
2931.41793	1.28205
2929.48937	1.29016
2927.56080	1.29746
2925.63224	1.30266
2923.70367	1.30750
2921.77511	1.31356
2919.84655	1.31797
2917.91798	1.31721
2915.98942	1.30821
2914.06085	1.29038
2912.13229	1.26862
2910.20372	1.24763
2908.27516	1.22962
2906.34659	1.21613
2904.41803	1.20650
2902.48947	1.19892
2900.56090	1.19273
2898.63234	1.18791
2896.70377	1.18375
2894.77521	1.17972
2892.84664	1.17578
2890.91808	1.17124
2888.98952	1.16606
2887.06095	1.16146
2885.13239	1.15818
2883.20382	1.15618
2881.27526	1.15448
2879.34669	1.15262
2877.41813	1.15187
2875.48956	1.15202
2873.56100	1.15104
2871.63244	1.14818
2869.70387	1.14348
2867.77531	1.13788
2865.84674	1.13424
2863.91818	1.13362
2861.98961	1.13513
2860.06105	1.14010
2858.13248	1.14931
2856.20392	1.15929
2854.27536	1.16813
2852.34679	1.17721
2850.41823	1.18131
2848.48966	1.17014
2846.56110	1.14492
2844.63253	1.11771
2842.70397	1.09588
2840.77540	1.07934
2838.84684	1.06653
2836.91828	1.05628
2834.98971	1.04752
2833.06115	1.04047
2831.13258	1.03543
2829.20402	1.03117
2827.27545	1.02655
2825.34689	1.02145
2823.41832	1.01657
2821.48976	1.01320
2819.56120	1.01097
2817.63263	1.00790
2815.70407	1.00357
2813.77550	0.99921
2811.84694	0.99547
2809.91837	0.99227
2807.98981	0.98956
2806.06124	0.98668
2804.13268	0.98301
2802.20412	0.97962
2800.27555	0.97758
2798.34699	0.97596
2796.41842	0.97364
2794.48986	0.97068
2792.56129	0.96786
2790.63273	0.96562
2788.70416	0.96325
2786.77560	0.96045
2784.84704	0.95796
2782.91847	0.95595
2780.98991	0.95376
2779.06134	0.95129
2777.13278	0.94919
2775.20421	0.94742
2773.27565	0.94551
2771.34708	0.94361
2769.41852	0.94193
2767.48996	0.94034
2765.56139	0.93842
2763.63283	0.93615
2761.70426	0.93425
2759.77570	0.93296
2757.84713	0.93148
2755.91857	0.92920
2753.99001	0.92712
2752.06144	0.92622
2750.13288	0.92545
2748.20431	0.92397
2746.27575	0.92230
2744.34718	0.92063
2742.41862	0.91902
2740.49005	0.91797
2738.56149	0.91693
2736.63293	0.91494
2734.70436	0.91257
2732.77580	0.91069
2730.84723	0.90925
2728.91867	0.90788
2726.99010	0.90633
2725.06154	0.90462
2723.13297	0.90282
2721.20441	0.90074
2719.27585	0.89837
2717.34728	0.89596
2715.41872	0.89408
2713.49015	0.89356
2711.56159	0.89389
2709.63302	0.89326
2707.70446	0.89154
2705.77589	0.89006
2703.84733	0.88914
2701.91877	0.88818
2699.99020	0.88684
2698.06164	0.88534
2696.13307	0.88390
2694.20451	0.88291
2692.27594	0.88230
2690.34738	0.88108
2688.41881	0.87928
2686.49025	0.87780
2684.56169	0.87655
2682.63312	0.87518
2680.70456	0.87383
2678.77599	0.87275
2676.84743	0.87182
2674.91886	0.87057
2672.99030	0.86893
2671.06173	0.86721
2669.13317	0.86541
2667.20461	0.86326
2665.27604	0.86125
2663.34748	0.86027
2661.41891	0.86023
2659.49035	0.86023
2657.56178	0.85944
2655.63322	0.85772
2653.70465	0.85571
2651.77609	0.85416
2649.84753	0.85316
2647.91896	0.85223
2645.99040	0.85126
2644.06183	0.85032
2642.13327	0.84889
2640.20470	0.84698
2638.27614	0.84573
2636.34757	0.84504
2634.41901	0.84378
2632.49045	0.84212
2630.56188	0.84065
2628.63332	0.83921
2626.70475	0.83790
2624.77619	0.83697
2622.84762	0.83618
2620.91906	0.83543
2618.99049	0.83449
2617.06193	0.83293
2615.13337	0.83139
2613.20480	0.83053
2611.27624	0.82998
2609.34767	0.82932
2607.41911	0.82843
2605.49054	0.82725
2603.56198	0.82614
2601.63342	0.82542
2599.70485	0.82484
2597.77629	0.82416
2595.84772	0.82356
2593.91916	0.82296
2591.99059	0.82209
2590.06203	0.82104
2588.13346	0.81998
2586.20490	0.81876
2584.27634	0.81771
2582.34777	0.81705
2580.41921	0.81630
2578.49064	0.81530
2576.56208	0.81419
2574.63351	0.81285
2572.70495	0.81132
2570.77638	0.80987
2568.84782	0.80882
2566.91926	0.80783
2564.99069	0.80637
2563.06213	0.80457
2561.13356	0.80266
2559.20500	0.80068
2557.27643	0.79910
2555.34787	0.79819
2553.41930	0.79727
2551.49074	0.79586
2549.56218	0.79436
2547.63361	0.79299
2545.70505	0.79161
2543.77648	0.79026
2541.84792	0.78925
2539.91935	0.78877
2537.99079	0.78821
2536.06222	0.78681
2534.13366	0.78506
2532.20510	0.78400
2530.27653	0.78354
2528.34797	0.78293
2526.41940	0.78181
2524.49084	0.78049
2522.56227	0.77906
2520.63371	0.77755
2518.70514	0.77643
2516.77658	0.77584
2514.84802	0.77546
2512.91945	0.77495
2510.99089	0.77423
2509.06232	0.77348
2507.13376	0.77253
2505.20519	0.77151
2503.27663	0.77099
2501.34806	0.77062
2499.41950	0.76994
2497.49094	0.76944
2495.56237	0.76922
2493.63381	0.76866
2491.70524	0.76775
2489.77668	0.76657
2487.84811	0.76528
2485.91955	0.76419
2483.99098	0.76307
2482.06242	0.76178
2480.13386	0.76055
2478.20529	0.75956
2476.27673	0.75902
2474.34816	0.75843
2472.41960	0.75711
2470.49103	0.75540
2468.56247	0.75390
2466.63391	0.75255
2464.70534	0.75100
2462.77678	0.74933
2460.84821	0.74795
2458.91965	0.74669
2456.99108	0.74514
2455.06252	0.74368
2453.13395	0.74268
2451.20539	0.74180
2449.27683	0.74074
2447.34826	0.73963
2445.41970	0.73861
2443.49113	0.73756
2441.56257	0.73643
2439.63400	0.73523
2437.70544	0.73407
2435.77687	0.73318
2433.84831	0.73237
2431.91975	0.73115
2429.99118	0.72978
2428.06262	0.72884
2426.13405	0.72831
2424.20549	0.72793
2422.27692	0.72737
2420.34836	0.72653
2418.41979	0.72561
2416.49123	0.72462
2414.56267	0.72369
2412.63410	0.72297
2410.70554	0.72218
2408.77697	0.72130
2406.84841	0.72062
2404.91984	0.71993
2402.99128	0.71890
2401.06271	0.71798
2399.13415	0.71743
2397.20559	0.71662
2395.27702	0.71517
2393.34846	0.71366
2391.41989	0.71255
2389.49133	0.71145
2387.56276	0.70992
2385.63420	0.70803
2383.70563	0.70629
2381.77707	0.70471
2379.84851	0.70306
2377.91994	0.70188
2375.99138	0.70109
2374.06281	0.69967
2372.13425	0.69793
2370.20568	0.69700
2368.27712	0.69699
2366.34855	0.69709
2364.41999	0.69676
2362.49143	0.69619
2360.56286	0.69555
2358.63430	0.69489
2356.70573	0.69456
2354.77717	0.69546
2352.84860	0.69743
2350.92004	0.69738
2348.99147	0.69442
2347.06291	0.69125
2345.13435	0.69094
2343.20578	0.69251
2341.27722	0.69290
2339.34865	0.69291
2337.42009	0.69268
2335.49152	0.69184
2333.56296	0.69144
2331.63440	0.69126
2329.70583	0.69053
2327.77727	0.69016
2325.84870	0.69014
2323.92014	0.68998
2321.99157	0.69042
2320.06301	0.69136
2318.13444	0.69180
2316.20588	0.69134
2314.27732	0.68995
2312.34875	0.68827
2310.42019	0.68712
2308.49162	0.68620
2306.56306	0.68500
2304.63449	0.68376
2302.70593	0.68256
2300.77736	0.68146
2298.84880	0.68072
2296.92024	0.68016
2294.99167	0.67927
2293.06311	0.67813
2291.13454	0.67698
2289.20598	0.67578
2287.27741	0.67460
2285.34885	0.67357
2283.42028	0.67289
2281.49172	0.67258
2279.56316	0.67248
2277.63459	0.67246
2275.70603	0.67225
2273.77746	0.67189
2271.84890	0.67183
2269.92033	0.67228
2267.99177	0.67288
2266.06320	0.67310
2264.13464	0.67295
2262.20608	0.67295
2260.27751	0.67313
2258.34895	0.67317
2256.42038	0.67329
2254.49182	0.67351
2252.56325	0.67342
2250.63469	0.67320
2248.70612	0.67327
2246.77756	0.67355
2244.84900	0.67373
2242.92043	0.67364
2240.99187	0.67325
2239.06330	0.67274
2237.13474	0.67235
2235.20617	0.67211
2233.27761	0.67195
2231.34904	0.67173
2229.42048	0.67130
2227.49192	0.67056
2225.56335	0.66966
2223.63479	0.66890
2221.70622	0.66814
2219.77766	0.66710
2217.84909	0.66573
2215.92053	0.66423
2213.99196	0.66318
2212.06340	0.66267
2210.13484	0.66210
2208.20627	0.66138
2206.27771	0.66074
2204.34914	0.66015
2202.42058	0.65962
2200.49201	0.65923
2198.56345	0.65891
2196.63488	0.65875
2194.70632	0.65877
2192.77776	0.65864
2190.84919	0.65824
2188.92063	0.65788
2186.99206	0.65760
2185.06350	0.65730
2183.13493	0.65705
2181.20637	0.65709
2179.27781	0.65726
2177.34924	0.65712
2175.42068	0.65669
2173.49211	0.65634
2171.56355	0.65630
2169.63498	0.65641
2167.70642	0.65644
2165.77785	0.65658
2163.84929	0.65710
2161.92073	0.65774
2159.99216	0.65813
2158.06360	0.65839
2156.13503	0.65870
2154.20647	0.65923
2152.27790	0.66004
2150.34934	0.66076
2148.42077	0.66114
2146.49221	0.66122
2144.56365	0.66125
2142.63508	0.66152
2140.70652	0.66182
2138.77795	0.66184
2136.84939	0.66167
2134.92082	0.66144
2132.99226	0.66108
2131.06369	0.66049
2129.13513	0.65992
2127.20657	0.65952
2125.27800	0.65904
2123.34944	0.65833
2121.42087	0.65768
2119.49231	0.65723
2117.56374	0.65669
2115.63518	0.65591
2113.70661	0.65517
2111.77805	0.65475
2109.84949	0.65449
2107.92092	0.65405
2105.99236	0.65340
2104.06379	0.65283
2102.13523	0.65239
2100.20666	0.65179
2098.27810	0.65099
2096.34953	0.65014
2094.42097	0.64954
2092.49241	0.64924
2090.56384	0.64878
2088.63528	0.64777
2086.70671	0.64659
2084.77815	0.64582
2082.84958	0.64549
2080.92102	0.64525
2078.99245	0.64489
2077.06389	0.64446
2075.13533	0.64402
2073.20676	0.64364
2071.27820	0.64335
2069.34963	0.64298
2067.42107	0.64262
2065.49250	0.64250
2063.56394	0.64241
2061.63537	0.64221
2059.70681	0.64212
2057.77825	0.64208
2055.84968	0.64186
2053.92112	0.64138
2051.99255	0.64092
2050.06399	0.64080
2048.13542	0.64093
2046.20686	0.64088
2044.27830	0.64060
2042.34973	0.64049
2040.42117	0.64061
2038.49260	0.64078
2036.56404	0.64093
2034.63547	0.64096
2032.70691	0.64095
2030.77834	0.64103
2028.84978	0.64091
2026.92122	0.64021
2024.99265	0.63918
2023.06409	0.63844
2021.13552	0.63796
2019.20696	0.63757
2017.27839	0.63724
2015.34983	0.63661
2013.42126	0.63576
2011.49270	0.63516
2009.56414	0.63466
2007.63557	0.63400
2005.70701	0.63317
2003.77844	0.63221
2001.84988	0.63130
1999.92131	0.63073
1997.99275	0.63050
1996.06418	0.63017
1994.13562	0.62970
1992.20706	0.62948
1990.27849	0.62924
1988.34993	0.62873
1986.42136	0.62814
1984.49280	0.62744
1982.56423	0.62663
1980.63567	0.62579
1978.70710	0.62503
1976.77854	0.62441
1974.84998	0.62382
1972.92141	0.62321
1970.99285	0.62248
1969.06428	0.62174
1967.13572	0.62124
1965.20715	0.62079
1963.27859	0.62025
1961.35002	0.61969
1959.42146	0.61904
1957.49290	0.61849
1955.56433	0.61823
1953.63577	0.61786
1951.70720	0.61730
1949.77864	0.61691
1947.85007	0.61666
1945.92151	0.61626
1943.99294	0.61606
1942.06438	0.61632
1940.13582	0.61625
1938.20725	0.61577
1936.27869	0.61550
1934.35012	0.61543
1932.42156	0.61527
1930.49299	0.61491
1928.56443	0.61447
1926.63586	0.61387
1924.70730	0.61333
1922.77874	0.61324
1920.85017	0.61306
1918.92161	0.61298
1916.99304	0.61348
1915.06448	0.61338
1913.13591	0.61257
1911.20735	0.61228
1909.27878	0.61287
1907.35022	0.61342
1905.42166	0.61336
1903.49309	0.61303
1901.56453	0.61280
1899.63596	0.61268
1897.70740	0.61263
1895.77883	0.61278
1893.85027	0.61268
1891.92171	0.61226
1889.99314	0.61238
1888.06458	0.61252
1886.13601	0.61197
1884.20745	0.61132
1882.27888	0.61069
1880.35032	0.60994
1878.42175	0.60915
1876.49319	0.60832
1874.56463	0.60738
1872.63606	0.60614
1870.70750	0.60515
1868.77893	0.60545
1866.85037	0.60572
1864.92180	0.60445
1862.99324	0.60291
1861.06467	0.60183
1859.13611	0.60087
1857.20755	0.59991
1855.27898	0.59901
1853.35042	0.59818
1851.42185	0.59733
1849.49329	0.59641
1847.56472	0.59538
1845.63616	0.59490
1843.70759	0.59548
1841.77903	0.59522
1839.85047	0.59395
1837.92190	0.59307
1835.99334	0.59257
1834.06477	0.59136
1832.13621	0.58984
1830.20764	0.58967
1828.27908	0.59012
1826.35051	0.58975
1824.42195	0.58939
1822.49339	0.58872
1820.56482	0.58748
1818.63626	0.58657
1816.70769	0.58604
1814.77913	0.58541
1812.85056	0.58496
1810.92200	0.58544
1808.99343	0.58608
1807.06487	0.58578
1805.13631	0.58490
1803.20774	0.58426
1801.27918	0.58475
1799.35061	0.58569
1797.42205	0.58564
1795.49348	0.58496
1793.56492	0.58520
1791.63635	0.58684
1789.70779	0.58694
1787.77923	0.58564
1785.85066	0.58490
1783.92210	0.58468
1781.99353	0.58437
1780.06497	0.58432
1778.13640	0.58397
1776.20784	0.58276
1774.27927	0.58216
1772.35071	0.58410
1770.42215	0.58648
1768.49358	0.58750
1766.56502	0.58821
1764.63645	0.58901
1762.70789	0.59203
1760.77932	0.59784
1758.85076	0.60410
1756.92220	0.61264
1754.99363	0.62190
1753.06507	0.62994
1751.13650	0.64108
1749.20794	0.65522
1747.27937	0.66517
1745.35081	0.66991
1743.42224	0.67151
1741.49368	0.67181
1739.56512	0.67124
1737.63655	0.66894
1735.70799	0.66693
1733.77942	0.66928
1731.85086	0.67255
1729.92229	0.67435
1727.99373	0.67704
1726.06516	0.68076
1724.13660	0.68612
1722.20804	0.69129
1720.27947	0.69523
1718.35091	0.70405
1716.42234	0.72229
1714.49378	0.73658
1712.56521	0.74540
1710.63665	0.75417
1708.70808	0.76449
1706.77952	0.78019
1704.85096	0.80091
1702.92239	0.81952
1700.99383	0.84906
1699.06526	0.89782
1697.13670	0.94286
1695.20813	0.98843
1693.27957	1.02371
1691.35100	1.05173
1689.42244	1.08602
1687.49388	1.11852
1685.56531	1.15465
1683.63675	1.21728
1681.70818	1.26630
1679.77962	1.29499
1677.85105	1.32214
1675.92249	1.35617
1673.99392	1.39343
1672.06536	1.42076
1670.13680	1.44925
1668.20823	1.48088
1666.27967	1.49713
1664.35110	1.50868
1662.42254	1.52686
1660.49397	1.54308
1658.56541	1.55098
1656.63684	1.55454
1654.70828	1.55865
1652.77972	1.56213
1650.85115	1.55920
1648.92259	1.55560
1646.99402	1.55459
1645.06546	1.55382
1643.13689	1.55023
1641.20833	1.54673
1639.27976	1.54256
1637.35120	1.53768
1635.42264	1.53461
1633.49407	1.53175
1631.56551	1.52699
1629.63694	1.51973
1627.70838	1.51022
1625.77981	1.49848
1623.85125	1.48244
1621.92269	1.46166
1619.99412	1.44128
1618.06556	1.41585
1616.13699	1.37797
1614.20843	1.34463
1612.27986	1.31785
1610.35130	1.29053
1608.42273	1.26317
1606.49417	1.23898
1604.56561	1.21890
1602.63704	1.20280
1600.70848	1.19098
1598.77991	1.18230
1596.85135	1.17607
1594.92278	1.17212
1592.99422	1.16983
1591.06565	1.16986
1589.13709	1.17339
1587.20853	1.18032
1585.27996	1.19014
1583.35140	1.20249
1581.42283	1.21513
1579.49427	1.22642
1577.56570	1.24202
1575.63714	1.26674
1573.70857	1.28301
1571.78001	1.29211
1569.85145	1.30826
1567.92288	1.32777
1565.99432	1.34183
1564.06575	1.35352
1562.13719	1.36175
1560.20862	1.37390
1558.28006	1.39909
1556.35149	1.40630
1554.42293	1.40756
1552.49437	1.40986
1550.56580	1.41086
1548.63724	1.40940
1546.70867	1.40490
1544.78011	1.39810
1542.85154	1.39144
1540.92298	1.38854
1538.99441	1.38469
1537.06585	1.37669
1535.13729	1.36685
1533.20872	1.35664
1531.28016	1.34811
1529.35159	1.34092
1527.42303	1.33428
1525.49446	1.32692
1523.56590	1.31861
1521.63733	1.31318
1519.70877	1.31278
1517.78021	1.30877
1515.85164	1.29652
1513.92308	1.28005
1511.99451	1.26254
1510.06595	1.24423
1508.13738	1.21962
1506.20882	1.18503
1504.28025	1.16163
1502.35169	1.14328
1500.42313	1.12416
1498.49456	1.10369
1496.56600	1.08149
1494.63743	1.06200
1492.70887	1.04656
1490.78030	1.03164
1488.85174	1.01750
1486.92317	1.00714
1484.99461	0.99937
1483.06605	0.99420
1481.13748	0.99231
1479.20892	0.99365
1477.28035	0.99885
1475.35179	1.00967
1473.42322	1.02915
1471.49466	1.05101
1469.56610	1.06255
1467.63753	1.06899
1465.70897	1.07758
1463.78040	1.08720
1461.85184	1.09144
1459.92327	1.09260
1457.99471	1.09863
1456.06614	1.10897
1454.13758	1.11115
1452.20902	1.10946
1450.28045	1.10748
1448.35189	1.10601
1446.42332	1.10396
1444.49476	1.09995
1442.56619	1.09466
1440.63763	1.08909
1438.70906	1.08313
1436.78050	1.07630
1434.85194	1.06884
1432.92337	1.06104
1430.99481	1.05306
1429.06624	1.04595
1427.13768	1.04071
1425.20911	1.03778
1423.28055	1.03736
1421.35198	1.03863
1419.42342	1.04243
1417.49486	1.04707
1415.56629	1.04796
1413.63773	1.04640
1411.70916	1.04417
1409.78060	1.04239
1407.85203	1.04175
1405.92347	1.04239
1403.99490	1.04317
1402.06634	1.04280
1400.13778	1.04308
1398.20921	1.04536
1396.28065	1.04775
1394.35208	1.04943
1392.42352	1.05126
1390.49495	1.05452
1388.56639	1.06245
1386.63782	1.07687
1384.70926	1.09232
1382.78070	1.10507
1380.85213	1.11424
1378.92357	1.11787
1376.99500	1.11580
1375.06644	1.10830
1373.13787	1.09582
1371.20931	1.08120
1369.28074	1.06493
1367.35218	1.04729
1365.42362	1.03076
1363.49505	1.01576
1361.56649	1.00282
1359.63792	0.99301
1357.70936	0.98577
1355.78079	0.98056
1353.85223	0.97692
1351.92366	0.97420
1349.99510	0.97185
1348.06654	0.96957
1346.13797	0.96777
1344.20941	0.96703
1342.28084	0.96738
1340.35228	0.96915
1338.42371	0.97229
1336.49515	0.97620
1334.56659	0.98170
1332.63802	0.98947
1330.70946	0.99824
1328.78089	1.00599
1326.85233	1.01201
1324.92376	1.01681
1322.99520	1.02092
1321.06663	1.02493
1319.13807	1.02931
1317.20951	1.03344
1315.28094	1.03683
1313.35238	1.03992
1311.42381	1.04216
1309.49525	1.04269
1307.56668	1.04191
1305.63812	1.04022
1303.70955	1.03770
1301.78099	1.03478
1299.85243	1.03193
1297.92386	1.02866
1295.99530	1.02455
1294.06673	1.02054
1292.13817	1.01786
1290.20960	1.01678
1288.28104	1.01696
1286.35247	1.01784
1284.42391	1.01880
1282.49535	1.01966
1280.56678	1.02072
1278.63822	1.02297
1276.70965	1.02717
1274.78109	1.03263
1272.85252	1.03842
1270.92396	1.04464
1268.99539	1.05138
1267.06683	1.05805
1265.13827	1.06360
1263.20970	1.06691
1261.28114	1.06773
1259.35257	1.06641
1257.42401	1.06396
1255.49544	1.06173
1253.56688	1.05963
1251.63831	1.05686
1249.70975	1.05362
1247.78119	1.05019
1245.85262	1.04684
1243.92406	1.04397
1241.99549	1.04136
1240.06693	1.03872
1238.13836	1.03586
1236.20980	1.03234
1234.28123	1.02833
1232.35267	1.02425
1230.42411	1.01997
1228.49554	1.01543
1226.56698	1.01090
1224.63841	1.00679
1222.70985	1.00343
1220.78128	1.00076
1218.85272	0.99884
1216.92415	0.99820
1214.99559	0.99926
1213.06703	1.00249
1211.13846	1.00783
1209.20990	1.01320
1207.28133	1.01613
1205.35277	1.01565
1203.42420	1.01154
1201.49564	1.00452
1199.56708	0.99583
1197.63851	0.98593
1195.70995	0.97556
1193.78138	0.96611
1191.85282	0.95845
1189.92425	0.95278
1187.99569	0.94903
1186.06712	0.94737
1184.13856	0.94819
1182.21000	0.95168
1180.28143	0.95763
1178.35287	0.96574
1176.42430	0.97571
1174.49574	0.98707
1172.56717	0.99963
1170.63861	1.01383
1168.71004	1.03010
1166.78148	1.04895
1164.85292	1.07022
1162.92435	1.09145
1160.99579	1.10922
1159.06722	1.12053
1157.13866	1.12373
1155.21009	1.11856
1153.28153	1.10560
1151.35296	1.08721
1149.42440	1.06663
1147.49584	1.04626
1145.56727	1.02800
1143.63871	1.01363
1141.71014	1.00418
1139.78158	0.99992
1137.85301	1.00040
1135.92445	1.00421
1133.99588	1.01062
1132.06732	1.02084
1130.13876	1.03577
1128.21019	1.05428
1126.28163	1.07474
1124.35306	1.09540
1122.42450	1.11421
1120.49593	1.13047
1118.56737	1.14388
1116.63880	1.15300
1114.71024	1.15713
1112.78168	1.15729
1110.85311	1.15522
1108.92455	1.15172
1106.99598	1.14611
1105.06742	1.13801
1103.13885	1.12945
1101.21029	1.12315
1099.28172	1.11954
1097.35316	1.11799
1095.42460	1.11907
1093.49603	1.12372
1091.56747	1.13209
1089.63890	1.14394
1087.71034	1.15892
1085.78177	1.17589
1083.85321	1.19365
1081.92464	1.21100
1079.99608	1.22482
1078.06752	1.23210
1076.13895	1.23355
1074.21039	1.23188
1072.28182	1.22810
1070.35326	1.22147
1068.42469	1.21216
1066.49613	1.20181
1064.56756	1.19220
1062.63900	1.18441
1060.71044	1.17747
1058.78187	1.16982
1056.85331	1.16246
1054.92474	1.15609
1052.99618	1.14941
1051.06761	1.14320
1049.13905	1.13952
1047.21049	1.13807
1045.28192	1.13780
1043.35336	1.13872
1041.42479	1.14054
1039.49623	1.14263
1037.56766	1.14477
1035.63910	1.14664
1033.71053	1.14743
1031.78197	1.14617
1029.85341	1.14275
1027.92484	1.13767
1025.99628	1.13060
1024.06771	1.12245
1022.13915	1.11573
1020.21058	1.11106
1018.28202	1.10757
1016.35345	1.10367
1014.42489	1.09694
1012.49633	1.08628
1010.56776	1.07250
1008.63920	1.05689
1006.71063	1.04074
1004.78207	1.02525
1002.85350	1.01069
1000.92494	0.99609
998.99637	0.98175
997.06781	0.96931
995.13925	0.95847
993.21068	0.94721
991.28212	0.93423
989.35355	0.92003
987.42499	0.90599
985.49642	0.89309
983.56786	0.88214
981.63929	0.87419
979.71073	0.86973
977.78217	0.86793
975.85360	0.86743
973.92504	0.86737
971.99647	0.86699
970.06791	0.86568
968.13934	0.86388
966.21078	0.86317
964.28221	0.86506
962.35365	0.87043
960.42509	0.87954
958.49652	0.89096
956.56796	0.90077
954.63939	0.90487
952.71083	0.90201
950.78226	0.89377
948.85370	0.88303
946.92513	0.87216
944.99657	0.86192
943.06801	0.85241
941.13944	0.84390
939.21088	0.83622
937.28231	0.82903
935.35375	0.82261
933.42518	0.81749
931.49662	0.81400
929.56805	0.81240
927.63949	0.81242
925.71093	0.81365
923.78236	0.81636
921.85380	0.82043
919.92523	0.82493
917.99667	0.82946
916.06810	0.83416
914.13954	0.83907
912.21098	0.84410
910.28241	0.84901
908.35385	0.85321
906.42528	0.85619
904.49672	0.85805
902.56815	0.85901
900.63959	0.85871
898.71102	0.85665
896.78246	0.85299
894.85390	0.84818
892.92533	0.84238
890.99677	0.83613
889.06820	0.83009
887.13964	0.82479
885.21107	0.82077
883.28251	0.81793
881.35394	0.81615
879.42538	0.81583
877.49682	0.81673
875.56825	0.81860
873.63969	0.82199
871.71112	0.82653
869.78256	0.83115
867.85399	0.83610
865.92543	0.84181
863.99686	0.84760
862.06830	0.85315
860.13974	0.85862
858.21117	0.86368
856.28261	0.86779
854.35404	0.87063
852.42548	0.87186
850.49691	0.87110
848.56835	0.86847
846.63978	0.86456
844.71122	0.85971
842.78266	0.85434
840.85409	0.84918
838.92553	0.84468
836.99696	0.84115
835.06840	0.83882
833.13983	0.83741
831.21127	0.83675
829.28270	0.83696
827.35414	0.83816
825.42558	0.84050
823.49701	0.84375
821.56845	0.84743
819.63988	0.85124
817.71132	0.85488
815.78275	0.85830
813.85419	0.86140
811.92562	0.86366
809.99706	0.86508
808.06850	0.86623
806.13993	0.86706
804.21137	0.86690
802.28280	0.86529
800.35424	0.86248
798.42567	0.85950
796.49711	0.85737
794.56854	0.85636
792.63998	0.85630
790.71142	0.85695
788.78285	0.85826
786.85429	0.86043
784.92572	0.86368
782.99716	0.86791
781.06859	0.87329
779.14003	0.87989
777.21147	0.88671
775.28290	0.89320
773.35434	0.89997
771.42577	0.90749
769.49721	0.91552
767.56864	0.92324
765.64008	0.92977
763.71151	0.93516
761.78295	0.94003
759.85439	0.94419
757.92582	0.94692
755.99726	0.94843
754.06869	0.94937
752.14013	0.94952
750.21156	0.94813
748.28300	0.94455
746.35443	0.93901
744.42587	0.93347
742.49731	0.92895
740.56874	0.92437
738.64018	0.91934
736.71161	0.91496
734.78305	0.91297
732.85448	0.91437
730.92592	0.91847
728.99735	0.92376
727.06879	0.92913
725.14023	0.93456
723.21166	0.94108
721.28310	0.94920
719.35453	0.95736
717.42597	0.96368
715.49740	0.96869
713.56884	0.97345
711.64027	0.97800
709.71171	0.98235
707.78315	0.98632
705.85458	0.98867
703.92602	0.98904
701.99745	0.98924
700.06889	0.98999
698.14032	0.99011
696.21176	0.98967
694.28319	0.98999
692.35463	0.99098
690.42607	0.99199
688.49750	0.99419
686.56894	0.99928
684.64037	1.00586
682.71181	1.01024
680.78324	1.01251
678.85468	1.01678
676.92611	1.02402
674.99755	1.03112
673.06899	1.03562
671.14042	1.03780
669.21186	1.03931
667.28329	1.03993
665.35473	1.03857
663.42616	1.03624
661.49760	1.03268
659.56903	1.02721
657.64047	1.01993
655.71191	1.01110
653.78334	1.00216
651.85478	0.99529
649.92621	0.98974
647.99765	0.98469
646.06908	0.98175
644.14052	0.98095
642.21195	0.98142
640.28339	0.98355
638.35483	0.98745
636.42626	0.99166
634.49770	0.99537
632.56913	0.99978
630.64057	1.00615
628.71200	1.01477
626.78344	1.02484
624.85488	1.03454
622.92631	1.04261
620.99775	1.04924
619.06918	1.05607
617.14062	1.06404
615.21205	1.06946
613.28349	1.07020
611.35492	1.06845
609.42636	1.06567
607.49780	1.06404
605.56923	1.06392
603.64067	1.06143
601.71210	1.05701
599.78354	1.05584
