3997.91406	1.12725
3995.98550	1.12727
3994.05693	1.12711
3992.12837	1.12745
3990.19980	1.12850
3988.27124	1.12882
3986.34268	1.12730
3984.41411	1.12274
3982.48555	1.11809
3980.55698	1.11778
3978.62842	1.11864
3976.69985	1.11724
3974.77129	1.11680
3972.84272	1.11855
3970.91416	1.11905
3968.98560	1.11685
3967.05703	1.11360
3965.12847	1.11073
3963.19990	1.10798
3961.27134	1.10584
3959.34277	1.10630
3957.41421	1.10913
3955.48564	1.11130
3953.55708	1.11017
3951.62852	1.10615
3949.69995	1.10351
3947.77139	1.10430
3945.84282	1.10553
3943.91426	1.10683
3941.98569	1.10844
3940.05713	1.10761
3938.12856	1.10445
3936.20000	1.10213
3934.27144	1.10239
3932.34287	1.10330
3930.41431	1.10194
3928.48574	1.09852
3926.55718	1.09685
3924.62861	1.09931
3922.70005	1.09927
3920.77148	1.09282
3918.84292	1.08824
3916.91436	1.09015
3914.98579	1.09123
3913.05723	1.09053
3911.12866	1.09159
3909.20010	1.09034
3907.27153	1.08512
3905.34297	1.08247
3903.41440	1.08421
3901.48584	1.08518
3899.55728	1.08691
3897.62871	1.08753
3895.70015	1.08340
3893.77158	1.07855
3891.84302	1.07854
3889.91445	1.07916
3887.98589	1.07699
3886.05733	1.07862
3884.12876	1.08201
3882.20020	1.07956
3880.27163	1.07696
3878.34307	1.07490
3876.41450	1.07023
3874.48594	1.06664
3872.55737	1.06565
3870.62881	1.06677
3868.70025	1.06778
3866.77168	1.06505
3864.84312	1.06331
3862.91455	1.06511
3860.98599	1.06565
3859.05742	1.06259
3857.12886	1.05399
3855.20029	1.04308
3853.27173	1.04949
3851.34317	1.06256
3849.41460	1.06301
3847.48604	1.05956
3845.55747	1.05619
3843.62891	1.05347
3841.70034	1.05057
3839.77178	1.04835
3837.84321	1.04901
3835.91465	1.04874
3833.98609	1.04875
3832.05752	1.05129
3830.12896	1.05117
3828.20039	1.04720
3826.27183	1.04296
3824.34326	1.03928
3822.41470	1.03976
3820.48613	1.04638
3818.55757	1.04724
3816.62901	1.04548
3814.70044	1.04718
3812.77188	1.04733
3810.84331	1.04381
3808.91475	1.04061
3806.98618	1.04278
3805.05762	1.04221
3803.12905	1.03578
3801.20049	1.03371
3799.27193	1.03466
3797.34336	1.03569
3795.41480	1.03791
3793.48623	1.03681
3791.55767	1.03331
3789.62910	1.03123
3787.70054	1.03072
3785.77197	1.02974
3783.84341	1.02737
3781.91485	1.02543
3779.98628	1.02629
3778.05772	1.02823
3776.12915	1.02826
3774.20059	1.02599
3772.27202	1.02248
3770.34346	1.02133
3768.41489	1.02117
3766.48633	1.01966
3764.55777	1.02008
3762.62920	1.02057
3760.70064	1.01929
3758.77207	1.01748
3756.84351	1.01423
3754.91494	1.00822
3752.98638	1.00064
3751.05781	1.00101
3749.12925	1.00972
3747.20069	1.01219
3745.27212	1.01276
3743.34356	1.01477
3741.41499	1.01137
3739.48643	1.00367
3737.55786	0.99800
3735.62930	1.00240
3733.70074	1.01145
3731.77217	1.01252
3729.84361	1.00766
3727.91504	1.00167
3725.98648	0.99922
3724.05791	1.00041
3722.12935	1.00015
3720.20078	0.99867
3718.27222	0.99754
3716.34366	0.99570
3714.41509	0.99353
3712.48653	0.99490
3710.55796	0.99995
3708.62940	1.00057
3706.70083	0.99793
3704.77227	0.99570
3702.84370	0.99587
3700.91514	0.99712
3698.98658	0.99638
3697.05801	0.99444
3695.12945	0.99194
3693.20088	0.98868
3691.27232	0.98714
3689.34375	0.99236
3687.41519	0.99771
3685.48662	0.99697
3683.55806	0.99344
3681.62950	0.98921
3679.70093	0.98482
3677.77237	0.98200
3675.84380	0.98793
3673.91524	0.99536
3671.98667	0.99533
3670.05811	0.99792
3668.12954	1.00197
3666.20098	1.00214
3664.27242	1.00132
3662.34385	1.00030
3660.41529	0.99846
3658.48672	0.99786
3656.55816	1.00256
3654.62959	1.00607
3652.70103	1.00299
3650.77246	1.00099
3648.84390	1.00812
3646.91534	1.01471
3644.98677	1.01635
3643.05821	1.01705
3641.12964	1.01793
3639.20108	1.01810
3637.27251	1.01786
3635.34395	1.01908
3633.41538	1.02104
3631.48682	1.02138
3629.55826	1.02577
3627.62969	1.03406
3625.70113	1.03316
3623.77256	1.02842
3621.84400	1.02690
3619.91543	1.03217
3617.98687	1.03922
3616.05830	1.04070
3614.12974	1.04194
3612.20118	1.04575
3610.27261	1.04972
3608.34405	1.05536
3606.41548	1.05974
3604.48692	1.05912
3602.55835	1.05695
3600.62979	1.05647
3598.70123	1.05810
3596.77266	1.06204
3594.84410	1.06767
3592.91553	1.07069
3590.98697	1.06955
3589.05840	1.07001
3587.12984	1.07699
3585.20127	1.08207
3583.27271	1.08204
3581.34415	1.08246
3579.41558	1.08430
3577.48702	1.08567
3575.55845	1.08750
3573.62989	1.08929
3571.70132	1.08804
3569.77276	1.08547
3567.84419	1.08841
3565.91563	1.09721
3563.98707	1.10294
3562.05850	1.10571
3560.12994	1.10797
3558.20137	1.10945
3556.27281	1.10990
3554.34424	1.11121
3552.41568	1.11451
3550.48711	1.11765
3548.55855	1.12062
3546.62999	1.12466
3544.70142	1.12694
3542.77286	1.12608
3540.84429	1.12612
3538.91573	1.12969
3536.98716	1.13462
3535.05860	1.13742
3533.13003	1.13759
3531.20147	1.13660
3529.27291	1.13626
3527.34434	1.13819
3525.41578	1.14184
3523.48721	1.14551
3521.55865	1.14861
3519.63008	1.15106
3517.70152	1.15221
3515.77295	1.15251
3513.84439	1.15273
3511.91583	1.15221
3509.98726	1.15292
3508.05870	1.15609
3506.13013	1.15902
3504.20157	1.16267
3502.27300	1.16740
3500.34444	1.17065
3498.41587	1.17423
3496.48731	1.17856
3494.55875	1.18099
3492.63018	1.18179
3490.70162	1.18342
3488.77305	1.18619
3486.84449	1.18700
3484.91592	1.18577
3482.98736	1.18599
3481.05879	1.18714
3479.13023	1.18767
3477.20167	1.18924
3475.27310	1.19188
3473.34454	1.19373
3471.41597	1.19433
3469.48741	1.19398
3467.55884	1.19261
3465.63028	1.19118
3463.70171	1.19108
3461.77315	1.19253
3459.84459	1.19428
3457.91602	1.19490
3455.98746	1.19473
3454.05889	1.19462
3452.13033	1.19476
3450.20176	1.19598
3448.27320	1.19958
3446.34464	1.20430
3444.41607	1.20621
3442.48751	1.20543
3440.55894	1.20490
3438.63038	1.20515
3436.70181	1.20503
3434.77325	1.20356
3432.84468	1.20209
3430.91612	1.20152
3428.98756	1.20021
3427.05899	1.19886
3425.13043	1.19952
3423.20186	1.20224
3421.27330	1.20455
3419.34473	1.20334
3417.41617	1.19942
3415.48760	1.19606
3413.55904	1.19467
3411.63048	1.19534
3409.70191	1.19676
3407.77335	1.19674
3405.84478	1.19640
3403.91622	1.19769
3401.98765	1.19898
3400.05909	1.19846
3398.13052	1.19635
3396.20196	1.19387
3394.27340	1.19184
3392.34483	1.19063
3390.41627	1.19028
3388.48770	1.18968
3386.55914	1.18919
3384.63057	1.19022
3382.70201	1.19300
3380.77344	1.19637
3378.84488	1.19716
3376.91632	1.19526
3374.98775	1.19468
3373.05919	1.19532
3371.13062	1.19465
3369.20206	1.19359
3367.27349	1.19269
3365.34493	1.19144
3363.41636	1.19151
3361.48780	1.19359
3359.55924	1.19473
3357.63067	1.19298
3355.70211	1.19052
3353.77354	1.18988
3351.84498	1.19084
3349.91641	1.19160
3347.98785	1.19147
3346.05928	1.19216
3344.13072	1.19430
3342.20216	1.19529
3340.27359	1.19423
3338.34503	1.19358
3336.41646	1.19359
3334.48790	1.19384
3332.55933	1.19540
3330.63077	1.19665
3328.70220	1.19589
3326.77364	1.19530
3324.84508	1.19739
3322.91651	1.20072
3320.98795	1.20184
3319.05938	1.20149
3317.13082	1.20229
3315.20225	1.20349
3313.27369	1.20479
3311.34513	1.20721
3309.41656	1.20852
3307.48800	1.20736
3305.55943	1.20690
3303.63087	1.20855
3301.70230	1.21059
3299.77374	1.21196
3297.84517	1.21304
3295.91661	1.21459
3293.98805	1.21584
3292.05948	1.21474
3290.13092	1.21206
3288.20235	1.21168
3286.27379	1.21450
3284.34522	1.21725
3282.41666	1.21695
3280.48809	1.21393
3278.55953	1.21129
3276.63097	1.21052
3274.70240	1.21071
3272.77384	1.21077
3270.84527	1.20929
3268.91671	1.20658
3266.98814	1.20428
3265.05958	1.20317
3263.13101	1.20296
3261.20245	1.20155
3259.27389	1.19767
3257.34532	1.19249
3255.41676	1.18711
3253.48819	1.18364
3251.55963	1.18351
3249.63106	1.18427
3247.70250	1.18282
3245.77393	1.17846
3243.84537	1.17334
3241.91681	1.16947
3239.98824	1.16671
3238.05968	1.16543
3236.13111	1.16491
3234.20255	1.16337
3232.27398	1.16164
3230.34542	1.15961
3228.41685	1.15499
3226.48829	1.14875
3224.55973	1.14394
3222.63116	1.14081
3220.70260	1.13780
3218.77403	1.13491
3216.84547	1.13235
3214.91690	1.12980
3212.98834	1.12815
3211.05977	1.12807
3209.13121	1.12839
3207.20265	1.12697
3205.27408	1.12293
3203.34552	1.11827
3201.41695	1.11526
3199.48839	1.11362
3197.55982	1.11118
3195.63126	1.10738
3193.70269	1.10396
3191.77413	1.10075
3189.84557	1.09610
3187.91700	1.09123
3185.98844	1.08887
3184.05987	1.08799
3182.13131	1.08547
3180.20274	1.08190
3178.27418	1.07935
3176.34562	1.07790
3174.41705	1.07656
3172.48849	1.07422
3170.55992	1.07113
3168.63136	1.06840
3166.70279	1.06594
3164.77423	1.06396
3162.84566	1.06261
3160.91710	1.06043
3158.98854	1.05681
3157.05997	1.05309
3155.13141	1.05010
3153.20284	1.04775
3151.27428	1.04605
3149.34571	1.04431
3147.41715	1.04113
3145.48858	1.03688
3143.56002	1.03343
3141.63146	1.03163
3139.70289	1.03120
3137.77433	1.03157
3135.84576	1.03186
3133.91720	1.03106
3131.98863	1.02924
3130.06007	1.02799
3128.13150	1.02811
3126.20294	1.02862
3124.27438	1.02809
3122.34581	1.02694
3120.41725	1.02609
3118.48868	1.02472
3116.56012	1.02309
3114.63155	1.02230
3112.70299	1.02156
3110.77442	1.02059
3108.84586	1.01959
3106.91730	1.01785
3104.98873	1.01616
3103.06017	1.01592
3101.13160	1.01602
3099.20304	1.01440
3097.27447	1.01135
3095.34591	1.00913
3093.41734	1.00906
3091.48878	1.01028
3089.56022	1.01122
3087.63165	1.01137
3085.70309	1.01053
3083.77452	1.00797
3081.84596	1.00478
3079.91739	1.00276
3077.98883	1.00139
3076.06026	1.00000
3074.13170	0.99830
3072.20314	0.99511
3070.27457	0.99068
3068.34601	0.98732
3066.41744	0.98626
3064.48888	0.98606
3062.56031	0.98522
3060.63175	0.98320
3058.70318	0.97961
3056.77462	0.97598
3054.84606	0.97385
3052.91749	0.97213
3050.98893	0.97005
3049.06036	0.96824
3047.13180	0.96635
3045.20323	0.96338
3043.27467	0.95967
3041.34610	0.95623
3039.41754	0.95324
3037.48898	0.95028
3035.56041	0.94714
3033.63185	0.94460
3031.70328	0.94310
3029.77472	0.94113
3027.84615	0.93797
3025.91759	0.93464
3023.98903	0.93169
3022.06046	0.92904
3020.13190	0.92703
3018.20333	0.92619
3016.27477	0.92557
3014.34620	0.92394
3012.41764	0.92200
3010.48907	0.91986
3008.56051	0.91699
3006.63195	0.91453
3004.70338	0.91339
3002.77482	0.91315
3000.84625	0.91284
2998.91769	0.91140
2996.98912	0.90921
2995.06056	0.90766
2993.13199	0.90722
2991.20343	0.90787
2989.27487	0.90931
2987.34630	0.91045
2985.41774	0.91085
2983.48917	0.91177
2981.56061	0.91382
2979.63204	0.91598
2977.70348	0.91770
2975.77491	0.91922
2973.84635	0.92090
2971.91779	0.92332
2969.98922	0.92680
2968.06066	0.93027
2966.13209	0.93232
2964.20353	0.93420
2962.27496	0.93730
2960.34640	0.93949
2958.41783	0.93841
2956.48927	0.93518
2954.56071	0.93218
2952.63214	0.92929
2950.70358	0.92569
2948.77501	0.92304
2946.84645	0.92239
2944.91788	0.92264
2942.98932	0.92407
2941.06075	0.92748
2939.13219	0.93220
2937.20363	0.93727
2935.27506	0.94238
2933.34650	0.94834
2931.41793	0.95544
2929.48937	0.96245
2927.56080	0.96893
2925.63224	0.97533
2923.70367	0.98176
2921.77511	0.98886
2919.84655	0.99612
2917.91798	0.99933
2915.98942	0.99392
2914.06085	0.98074
2912.13229	0.96477
2910.20372	0.95008
2908.27516	0.93864
2906.34659	0.93072
2904.41803	0.92490
2902.48947	0.91996
2900.56090	0.91603
2898.63234	0.91296
2896.70377	0.90952
2894.77521	0.90521
2892.84664	0.90130
2890.91808	0.89878
2888.98952	0.89667
2887.06095	0.89397
2885.13239	0.89119
2883.20382	0.88921
2881.27526	0.88828
2879.34669	0.88754
2877.41813	0.88594
2875.48956	0.88412
2873.56100	0.88276
2871.63244	0.88071
2869.70387	0.87723
2867.77531	0.87341
2865.84674	0.87051
2863.91818	0.86909
2861.98961	0.86963
2860.06105	0.87220
2858.13248	0.87654
2856.20392	0.88271
2854.27536	0.89082
2852.34679	0.90048
2850.41823	0.90831
2848.48966	0.90751
2846.56110	0.89552
2844.63253	0.87841
2842.70397	0.86297
2840.77540	0.85113
2838.84684	0.84225
2836.91828	0.83567
2834.98971	0.83089
2833.06115	0.82696
2831.13258	0.82312
2829.20402	0.81967
2827.27545	0.81679
2825.34689	0.81403
2823.41832	0.81138
2821.48976	0.80895
2819.56120	0.80655
2817.63263	0.80416
2815.70407	0.80210
2813.77550	0.80036
2811.84694	0.79825
2809.91837	0.79544
2807.98981	0.79274
2806.06124	0.79058
2804.13268	0.78881
2802.20412	0.78759
2800.27555	0.78646
2798.34699	0.78488
2796.41842	0.78326
2794.48986	0.78180
2792.56129	0.78006
2790.63273	0.77798
2788.70416	0.77605
2786.77560	0.77443
2784.84704	0.77271
2782.91847	0.77080
2780.98991	0.76916
2779.06134	0.76745
2777.13278	0.76503
2775.20421	0.76264
2773.27565	0.76087
2771.34708	0.75939
2769.41852	0.75798
2767.48996	0.75663
2765.56139	0.75560
2763.63283	0.75494
2761.70426	0.75402
2759.77570	0.75264
2757.84713	0.75113
2755.91857	0.74950
2753.99001	0.74780
2752.06144	0.74672
2750.13288	0.74614
2748.20431	0.74480
2746.27575	0.74258
2744.34718	0.74059
2742.41862	0.73962
2740.49005	0.73959
2738.56149	0.73940
2736.63293	0.73822
2734.70436	0.73671
2732.77580	0.73560
2730.84723	0.73449
2728.91867	0.73304
2726.99010	0.73185
2725.06154	0.73094
2723.13297	0.72959
2721.20441	0.72791
2719.27585	0.72652
2717.34728	0.72553
2715.41872	0.72456
2713.49015	0.72363
2711.56159	0.72289
2709.63302	0.72208
2707.70446	0.72106
2705.77589	0.71985
2703.84733	0.71865
2701.91877	0.71791
2699.99020	0.71756
2698.06164	0.71702
2696.13307	0.71611
2694.20451	0.71506
2692.27594	0.71374
2690.34738	0.71225
2688.41881	0.71116
2686.49025	0.71023
2684.56169	0.70914
2682.63312	0.70827
2680.70456	0.70759
2678.77599	0.70664
2676.84743	0.70545
2674.91886	0.70447
2672.99030	0.70364
2671.06173	0.70271
2669.13317	0.70188
2667.20461	0.70131
2665.27604	0.70073
2663.34748	0.69997
2661.41891	0.69912
2659.49035	0.69817
2657.56178	0.69688
2655.63322	0.69536
2653.70465	0.69408
2651.77609	0.69319
2649.84753	0.69244
2647.91896	0.69146
2645.99040	0.69047
2644.06183	0.68998
2642.13327	0.68963
2640.20470	0.68891
2638.27614	0.68777
2636.34757	0.68643
2634.41901	0.68527
2632.49045	0.68443
2630.56188	0.68382
2628.63332	0.68314
2626.70475	0.68221
2624.77619	0.68125
2622.84762	0.68029
2620.91906	0.67933
2618.99049	0.67831
2617.06193	0.67700
2615.13337	0.67583
2613.20480	0.67492
2611.27624	0.67378
2609.34767	0.67266
2607.41911	0.67185
2605.49054	0.67096
2603.56198	0.67000
2601.63342	0.66936
2599.70485	0.66903
2597.77629	0.66847
2595.84772	0.66720
2593.91916	0.66545
2591.99059	0.66387
2590.06203	0.66262
2588.13346	0.66148
2586.20490	0.66029
2584.27634	0.65917
2582.34777	0.65842
2580.41921	0.65800
2578.49064	0.65743
2576.56208	0.65628
2574.63351	0.65472
2572.70495	0.65330
2570.77638	0.65233
2568.84782	0.65182
2566.91926	0.65146
2564.99069	0.65064
2563.06213	0.64926
2561.13356	0.64769
2559.20500	0.64609
2557.27643	0.64476
2555.34787	0.64396
2553.41930	0.64315
2551.49074	0.64182
2549.56218	0.64047
2547.63361	0.63958
2545.70505	0.63880
2543.77648	0.63802
2541.84792	0.63744
2539.91935	0.63684
2537.99079	0.63602
2536.06222	0.63508
2534.13366	0.63410
2532.20510	0.63309
2530.27653	0.63201
2528.34797	0.63107
2526.41940	0.63033
2524.49084	0.62941
2522.56227	0.62827
2520.63371	0.62702
2518.70514	0.62576
2516.77658	0.62493
2514.84802	0.62435
2512.91945	0.62346
2510.99089	0.62262
2509.06232	0.62223
2507.13376	0.62167
2505.20519	0.62067
2503.27663	0.61983
2501.34806	0.61927
2499.41950	0.61842
2497.49094	0.61730
2495.56237	0.61646
2493.63381	0.61600
2491.70524	0.61538
2489.77668	0.61447
2487.84811	0.61353
2485.91955	0.61246
2483.99098	0.61124
2482.06242	0.61025
2480.13386	0.60973
2478.20529	0.60952
2476.27673	0.60912
2474.34816	0.60836
2472.41960	0.60756
2470.49103	0.60678
2468.56247	0.60569
2466.63391	0.60456
2464.70534	0.60394
2462.77678	0.60345
2460.84821	0.60246
2458.91965	0.60123
2456.99108	0.60045
2455.06252	0.60032
2453.13395	0.60034
2451.20539	0.59991
2449.27683	0.59909
2447.34826	0.59839
2445.41970	0.59800
2443.49113	0.59761
2441.56257	0.59694
2439.63400	0.59600
2437.70544	0.59487
2435.77687	0.59367
2433.84831	0.59263
2431.91975	0.59178
2429.99118	0.59098
2428.06262	0.59012
2426.13405	0.58928
2424.20549	0.58853
2422.27692	0.58769
2420.34836	0.58672
2418.41979	0.58586
2416.49123	0.58509
2414.56267	0.58419
2412.63410	0.58345
2410.70554	0.58314
2408.77697	0.58286
2406.84841	0.58227
2404.91984	0.58156
2402.99128	0.58074
2401.06271	0.57975
2399.13415	0.57889
2397.20559	0.57807
2395.27702	0.57696
2393.34846	0.57589
2391.41989	0.57499
2389.49133	0.57398
2387.56276	0.57278
2385.63420	0.57149
2383.70563	0.57009
2381.77707	0.56858
2379.84851	0.56712
2377.91994	0.56571
2375.99138	0.56392
2374.06281	0.56188
2372.13425	0.56039
2370.20568	0.55946
2368.27712	0.55836
2366.34855	0.55768
2364.41999	0.55833
2362.49143	0.55973
2360.56286	0.56077
2358.63430	0.56074
2356.70573	0.56071
2354.77717	0.56157
2352.84860	0.56209
2350.92004	0.56030
2348.99147	0.55651
2347.06291	0.55307
2345.13435	0.55221
2343.20578	0.55316
2341.27722	0.55345
2339.34865	0.55272
2337.42009	0.55103
2335.49152	0.54940
2333.56296	0.54907
2331.63440	0.54935
2329.70583	0.54905
2327.77727	0.54842
2325.84870	0.54799
2323.92014	0.54798
2321.99157	0.54852
2320.06301	0.54908
2318.13444	0.54924
2316.20588	0.54931
2314.27732	0.54901
2312.34875	0.54786
2310.42019	0.54673
2308.49162	0.54647
2306.56306	0.54648
2304.63449	0.54590
2302.70593	0.54504
2300.77736	0.54442
2298.84880	0.54391
2296.92024	0.54344
2294.99167	0.54321
2293.06311	0.54311
2291.13454	0.54284
2289.20598	0.54235
2287.27741	0.54193
2285.34885	0.54177
2283.42028	0.54173
2281.49172	0.54170
2279.56316	0.54170
2277.63459	0.54165
2275.70603	0.54151
2273.77746	0.54121
2271.84890	0.54078
2269.92033	0.54042
2267.99177	0.54026
2266.06320	0.53983
2264.13464	0.53886
2262.20608	0.53781
2260.27751	0.53714
2258.34895	0.53683
2256.42038	0.53672
2254.49182	0.53643
2252.56325	0.53573
2250.63469	0.53502
2248.70612	0.53476
2246.77756	0.53481
2244.84900	0.53485
2242.92043	0.53474
2240.99187	0.53454
2239.06330	0.53437
2237.13474	0.53418
2235.20617	0.53396
2233.27761	0.53381
2231.34904	0.53353
2229.42048	0.53280
2227.49192	0.53183
2225.56335	0.53097
2223.63479	0.53020
2221.70622	0.52954
2219.77766	0.52898
2217.84909	0.52835
2215.92053	0.52772
2213.99196	0.52731
2212.06340	0.52699
2210.13484	0.52649
2208.20627	0.52592
2206.27771	0.52550
2204.34914	0.52514
2202.42058	0.52477
2200.49201	0.52432
2198.56345	0.52364
2196.63488	0.52272
2194.70632	0.52176
2192.77776	0.52093
2190.84919	0.52023
2188.92063	0.51948
2186.99206	0.51864
2185.06350	0.51777
2183.13493	0.51679
2181.20637	0.51578
2179.27781	0.51491
2177.34924	0.51418
2175.42068	0.51350
2173.49211	0.51286
2171.56355	0.51236
2169.63498	0.51197
2167.70642	0.51153
2165.77785	0.51095
2163.84929	0.51043
2161.92073	0.51004
2159.99216	0.50966
2158.06360	0.50924
2156.13503	0.50883
2154.20647	0.50840
2152.27790	0.50798
2150.34934	0.50759
2148.42077	0.50721
2146.49221	0.50683
2144.56365	0.50643
2142.63508	0.50587
2140.70652	0.50517
2138.77795	0.50454
2136.84939	0.50396
2134.92082	0.50335
2132.99226	0.50275
2131.06369	0.50217
2129.13513	0.50163
2127.20657	0.50115
2125.27800	0.50063
2123.34944	0.50016
2121.42087	0.49988
2119.49231	0.49962
2117.56374	0.49935
2115.63518	0.49924
2113.70661	0.49915
2111.77805	0.49886
2109.84949	0.49835
2107.92092	0.49787
2105.99236	0.49753
2104.06379	0.49706
2102.13523	0.49638
2100.20666	0.49561
2098.27810	0.49484
2096.34953	0.49414
2094.42097	0.49352
2092.49241	0.49302
2090.56384	0.49280
2088.63528	0.49284
2086.70671	0.49280
2084.77815	0.49263
2082.84958	0.49272
2080.92102	0.49331
2078.99245	0.49409
2077.06389	0.49473
2075.13533	0.49500
2073.20676	0.49491
2071.27820	0.49472
2069.34963	0.49455
2067.42107	0.49426
2065.49250	0.49403
2063.56394	0.49410
2061.63537	0.49423
2059.70681	0.49409
2057.77825	0.49377
2055.84968	0.49359
2053.92112	0.49374
2051.99255	0.49397
2050.06399	0.49404
2048.13542	0.49410
2046.20686	0.49424
2044.27830	0.49428
2042.34973	0.49431
2040.42117	0.49441
2038.49260	0.49436
2036.56404	0.49399
2034.63547	0.49334
2032.70691	0.49253
2030.77834	0.49168
2028.84978	0.49092
2026.92122	0.49030
2024.99265	0.48966
2023.06409	0.48891
2021.13552	0.48820
2019.20696	0.48779
2017.27839	0.48771
2015.34983	0.48740
2013.42126	0.48672
2011.49270	0.48600
2009.56414	0.48542
2007.63557	0.48499
2005.70701	0.48465
2003.77844	0.48428
2001.84988	0.48382
1999.92131	0.48326
1997.99275	0.48266
1996.06418	0.48198
1994.13562	0.48130
1992.20706	0.48088
1990.27849	0.48055
1988.34993	0.48006
1986.42136	0.47952
1984.49280	0.47887
1982.56423	0.47819
1980.63567	0.47764
1978.70710	0.47713
1976.77854	0.47654
1974.84998	0.47583
1972.92141	0.47498
1970.99285	0.47399
1969.06428	0.47323
1967.13572	0.47308
1965.20715	0.47282
1963.27859	0.47184
1961.35002	0.47072
1959.42146	0.46992
1957.49290	0.46933
1955.56433	0.46883
1953.63577	0.46824
1951.70720	0.46754
1949.77864	0.46693
1947.85007	0.46637
1945.92151	0.46563
1943.99294	0.46502
1942.06438	0.46485
1940.13582	0.46426
1938.20725	0.46307
1936.27869	0.46191
1934.35012	0.46088
1932.42156	0.45992
1930.49299	0.45911
1928.56443	0.45853
1926.63586	0.45797
1924.70730	0.45777
1922.77874	0.45820
1920.85017	0.45821
1918.92161	0.45829
1916.99304	0.45943
1915.06448	0.46017
1913.13591	0.46004
1911.20735	0.46005
1909.27878	0.46045
1907.35022	0.46060
1905.42166	0.46035
1903.49309	0.46007
1901.56453	0.45976
1899.63596	0.45915
1897.70740	0.45833
1895.77883	0.45778
1893.85027	0.45727
1891.92171	0.45663
1889.99314	0.45685
1888.06458	0.45756
1886.13601	0.45751
1884.20745	0.45726
1882.27888	0.45729
1880.35032	0.45746
1878.42175	0.45764
1876.49319	0.45764
1874.56463	0.45740
1872.63606	0.45683
1870.70750	0.45666
1868.77893	0.45802
1866.85037	0.45897
1864.92180	0.45804
1862.99324	0.45686
1861.06467	0.45632
1859.13611	0.45619
1857.20755	0.45613
1855.27898	0.45602
1853.35042	0.45592
1851.42185	0.45582
1849.49329	0.45577
1847.56472	0.45579
1845.63616	0.45674
1843.70759	0.45908
1841.77903	0.45991
1839.85047	0.45921
1837.92190	0.45915
1835.99334	0.45958
1834.06477	0.45898
1832.13621	0.45804
1830.20764	0.45889
1828.27908	0.46033
1826.35051	0.46050
1824.42195	0.46050
1822.49339	0.46011
1820.56482	0.45936
1818.63626	0.45915
1816.70769	0.45905
1814.77913	0.45849
1812.85056	0.45818
1810.92200	0.45884
1808.99343	0.45940
1807.06487	0.45877
1805.13631	0.45751
1803.20774	0.45658
1801.27918	0.45675
1799.35061	0.45735
1797.42205	0.45691
1795.49348	0.45568
1793.56492	0.45560
1791.63635	0.45766
1789.70779	0.45820
1787.77923	0.45685
1785.85066	0.45606
1783.92210	0.45612
1781.99353	0.45639
1780.06497	0.45690
1778.13640	0.45687
1776.20784	0.45591
1774.27927	0.45567
1772.35071	0.45821
1770.42215	0.46079
1768.49358	0.46123
1766.56502	0.46085
1764.63645	0.46005
1762.70789	0.46041
1760.77932	0.46210
1758.85076	0.46292
1756.92220	0.46372
1754.99363	0.46406
1753.06507	0.46350
1751.13650	0.46486
1749.20794	0.46890
1747.27937	0.47189
1745.35081	0.47318
1743.42224	0.47421
1741.49368	0.47606
1739.56512	0.47850
1737.63655	0.47896
1735.70799	0.47894
1733.77942	0.48356
1731.85086	0.48792
1729.92229	0.48886
1727.99373	0.48948
1726.06516	0.49024
1724.13660	0.49184
1722.20804	0.49317
1720.27947	0.49354
1718.35091	0.49669
1716.42234	0.50460
1714.49378	0.50875
1712.56521	0.50931
1710.63665	0.50976
1708.70808	0.51087
1706.77952	0.51452
1704.85096	0.52010
1702.92239	0.52411
1700.99383	0.53230
1699.06526	0.54837
1697.13670	0.56340
1695.20813	0.57765
1693.27957	0.58666
1691.35100	0.59293
1689.42244	0.60158
1687.49388	0.60948
1685.56531	0.61967
1683.63675	0.64036
1681.70818	0.65366
1679.77962	0.65879
1677.85105	0.66396
1675.92249	0.67302
1673.99392	0.68424
1672.06536	0.69243
1670.13680	0.70344
1668.20823	0.71657
1666.27967	0.72280
1664.35110	0.72832
1662.42254	0.73897
1660.49397	0.74885
1658.56541	0.75350
1656.63684	0.75510
1654.70828	0.75834
1652.77972	0.76919
1650.85115	0.77212
1648.92259	0.77007
1646.99402	0.77256
1645.06546	0.77560
1643.13689	0.77445
1641.20833	0.77269
1639.27976	0.77138
1637.35120	0.77209
1635.42264	0.77665
1633.49407	0.77814
1631.56551	0.77644
1629.63694	0.77502
1627.70838	0.77373
1625.77981	0.77125
1623.85125	0.76829
1621.92269	0.76418
1619.99412	0.75775
1618.06556	0.74969
1616.13699	0.74039
1614.20843	0.73124
1612.27986	0.72242
1610.35130	0.71371
1608.42273	0.70558
1606.49417	0.69848
1604.56561	0.69266
1602.63704	0.68845
1600.70848	0.68566
1598.77991	0.68351
1596.85135	0.68180
1594.92278	0.68056
1592.99422	0.67984
1591.06565	0.68016
1589.13709	0.68167
1587.20853	0.68390
1585.27996	0.68688
1583.35140	0.69063
1581.42283	0.69407
1579.49427	0.69650
1577.56570	0.70101
1575.63714	0.70998
1573.70857	0.71444
1571.78001	0.71538
1569.85145	0.71989
1567.92288	0.72632
1565.99432	0.73017
1564.06575	0.73272
1562.13719	0.73358
1560.20862	0.73673
1558.28006	0.75005
1556.35149	0.75528
1554.42293	0.75547
1552.49437	0.75642
1550.56580	0.75773
1548.63724	0.75846
1546.70867	0.75769
1544.78011	0.75648
1542.85154	0.75637
1540.92298	0.75920
1538.99441	0.76073
1537.06585	0.75722
1535.13729	0.75369
1533.20872	0.75205
1531.28016	0.74992
1529.35159	0.74651
1527.42303	0.74382
1525.49446	0.74211
1523.56590	0.74093
1521.63733	0.74111
1519.70877	0.74042
1517.78021	0.73770
1515.85164	0.73386
1513.92308	0.72827
1511.99451	0.72126
1510.06595	0.71411
1508.13738	0.70742
1506.20882	0.69988
1504.28025	0.69171
1502.35169	0.68383
1500.42313	0.67618
1498.49456	0.66911
1496.56600	0.66244
1494.63743	0.65564
1492.70887	0.64929
1490.78030	0.64401
1488.85174	0.63990
1486.92317	0.63556
1484.99461	0.63108
1483.06605	0.62785
1481.13748	0.62616
1479.20892	0.62543
1477.28035	0.62588
1475.35179	0.62889
1473.42322	0.63645
1471.49466	0.64461
1469.56610	0.64715
1467.63753	0.64770
1465.70897	0.65062
1463.78040	0.65488
1461.85184	0.65575
1459.92327	0.65485
1457.99471	0.65798
1456.06614	0.66430
1454.13758	0.66458
1452.20902	0.66253
1450.28045	0.66097
1448.35189	0.66046
1446.42332	0.66000
1444.49476	0.65851
1442.56619	0.65638
1440.63763	0.65373
1438.70906	0.65097
1436.78050	0.64920
1434.85194	0.64696
1432.92337	0.64309
1430.99481	0.63936
1429.06624	0.63641
1427.13768	0.63371
1425.20911	0.63186
1423.28055	0.63105
1421.35198	0.63068
1419.42342	0.63225
1417.49486	0.63475
1415.56629	0.63456
1413.63773	0.63327
1411.70916	0.63250
1409.78060	0.63202
1407.85203	0.63140
1405.92347	0.63142
1403.99490	0.63199
1402.06634	0.63158
1400.13778	0.63079
1398.20921	0.63032
1396.28065	0.62984
1394.35208	0.62966
1392.42352	0.62936
1390.49495	0.62926
1388.56639	0.63143
1386.63782	0.63642
1384.70926	0.64124
1382.78070	0.64512
1380.85213	0.64869
1378.92357	0.65071
1376.99500	0.65048
1375.06644	0.64916
1373.13787	0.64708
1371.20931	0.64359
1369.28074	0.63912
1367.35218	0.63407
1365.42362	0.62883
1363.49505	0.62441
1361.56649	0.62128
1359.63792	0.61856
1357.70936	0.61608
1355.78079	0.61433
1353.85223	0.61333
1351.92366	0.61271
1349.99510	0.61252
1348.06654	0.61278
1346.13797	0.61317
1344.20941	0.61361
1342.28084	0.61444
1340.35228	0.61639
1338.42371	0.61906
1336.49515	0.62109
1334.56659	0.62276
1332.63802	0.62478
1330.70946	0.62707
1328.78089	0.62921
1326.85233	0.63075
1324.92376	0.63159
1322.99520	0.63191
1321.06663	0.63210
1319.13807	0.63268
1317.20951	0.63356
1315.28094	0.63423
1313.35238	0.63487
1311.42381	0.63570
1309.49525	0.63656
1307.56668	0.63731
1305.63812	0.63780
1303.70955	0.63806
1301.78099	0.63822
1299.85243	0.63823
1297.92386	0.63814
1295.99530	0.63822
1294.06673	0.63845
1292.13817	0.63887
1290.20960	0.63974
1288.28104	0.64083
1286.35247	0.64176
1284.42391	0.64251
1282.49535	0.64303
1280.56678	0.64332
1278.63822	0.64375
1276.70965	0.64461
1274.78109	0.64593
1272.85252	0.64762
1270.92396	0.64962
1268.99539	0.65188
1267.06683	0.65421
1265.13827	0.65625
1263.20970	0.65772
1261.28114	0.65857
1259.35257	0.65903
1257.42401	0.65913
1255.49544	0.65893
1253.56688	0.65880
1251.63831	0.65898
1249.70975	0.65933
1247.78119	0.65960
1245.85262	0.65980
1243.92406	0.66015
1241.99549	0.66058
1240.06693	0.66074
1238.13836	0.66045
1236.20980	0.65973
1234.28123	0.65871
1232.35267	0.65746
1230.42411	0.65586
1228.49554	0.65394
1226.56698	0.65176
1224.63841	0.64917
1222.70985	0.64624
1220.78128	0.64345
1218.85272	0.64115
1216.92415	0.63938
1214.99559	0.63825
1213.06703	0.63779
1211.13846	0.63790
1209.20990	0.63845
1207.28133	0.63916
1205.35277	0.63941
1203.42420	0.63854
1201.49564	0.63663
1199.56708	0.63426
1197.63851	0.63174
1195.70995	0.62914
1193.78138	0.62662
1191.85282	0.62422
1189.92425	0.62205
1187.99569	0.62021
1186.06712	0.61876
1184.13856	0.61778
1182.21000	0.61742
1180.28143	0.61773
1178.35287	0.61839
1176.42430	0.61921
1174.49574	0.62040
1172.56717	0.62179
1170.63861	0.62305
1168.71004	0.62460
1166.78148	0.62726
1164.85292	0.63099
1162.92435	0.63507
1160.99579	0.63897
1159.06722	0.64206
1157.13866	0.64335
1155.21009	0.64218
1153.28153	0.63864
1151.35296	0.63342
1149.42440	0.62736
1147.49584	0.62113
1145.56727	0.61531
1143.63871	0.61021
1141.71014	0.60615
1139.78158	0.60361
1137.85301	0.60237
1135.92445	0.60191
1133.99588	0.60218
1132.06732	0.60339
1130.13876	0.60565
1128.21019	0.60898
1126.28163	0.61305
1124.35306	0.61726
1122.42450	0.62118
1120.49593	0.62477
1118.56737	0.62791
1116.63880	0.62999
1114.71024	0.63043
1112.78168	0.62933
1110.85311	0.62727
1108.92455	0.62470
1106.99598	0.62198
1105.06742	0.61932
1103.13885	0.61666
1101.21029	0.61393
1099.28172	0.61132
1097.35316	0.60920
1095.42460	0.60817
1093.49603	0.60869
1091.56747	0.61032
1089.63890	0.61216
1087.71034	0.61453
1085.78177	0.61837
1083.85321	0.62368
1081.92464	0.62965
1079.99608	0.63540
1078.06752	0.64036
1076.13895	0.64414
1074.21039	0.64594
1072.28182	0.64530
1070.35326	0.64303
1068.42469	0.64036
1066.49613	0.63756
1064.56756	0.63418
1062.63900	0.63030
1060.71044	0.62639
1058.78187	0.62242
1056.85331	0.61845
1054.92474	0.61480
1052.99618	0.61131
1051.06761	0.60817
1049.13905	0.60586
1047.21049	0.60440
1045.28192	0.60391
1043.35336	0.60480
1041.42479	0.60736
1039.49623	0.61091
1037.56766	0.61406
1035.63910	0.61652
1033.71053	0.61872
1031.78197	0.62059
1029.85341	0.62183
1027.92484	0.62202
1025.99628	0.62097
1024.06771	0.61896
1022.13915	0.61655
1020.21058	0.61433
1018.28202	0.61269
1016.35345	0.61140
1014.42489	0.60958
1012.49633	0.60648
1010.56776	0.60195
1008.63920	0.59608
1006.71063	0.58911
1004.78207	0.58192
1002.85350	0.57559
1000.92494	0.57048
998.99637	0.56633
997.06781	0.56329
995.13925	0.56164
993.21068	0.56073
991.28212	0.55946
989.35355	0.55763
987.42499	0.55571
985.49642	0.55396
983.56786	0.55247
981.63929	0.55125
979.71073	0.55014
977.78217	0.54892
975.85360	0.54735
973.92504	0.54508
971.99647	0.54188
970.06791	0.53802
968.13934	0.53392
966.21078	0.52982
964.28221	0.52619
962.35365	0.52379
960.42509	0.52342
958.49652	0.52545
956.56796	0.52893
954.63939	0.53218
952.71083	0.53414
950.78226	0.53433
948.85370	0.53286
946.92513	0.53059
944.99657	0.52826
943.06801	0.52595
941.13944	0.52372
939.21088	0.52172
937.28231	0.51966
935.35375	0.51727
933.42518	0.51481
931.49662	0.51267
929.56805	0.51093
927.63949	0.50956
925.71093	0.50852
923.78236	0.50778
921.85380	0.50733
919.92523	0.50704
917.99667	0.50658
916.06810	0.50585
914.13954	0.50505
912.21098	0.50434
910.28241	0.50383
908.35385	0.50347
906.42528	0.50321
904.49672	0.50330
902.56815	0.50378
900.63959	0.50417
898.71102	0.50412
896.78246	0.50378
894.85390	0.50331
892.92533	0.50236
890.99677	0.50068
889.06820	0.49871
887.13964	0.49680
885.21107	0.49492
883.28251	0.49297
881.35394	0.49099
879.42538	0.48919
877.49682	0.48748
875.56825	0.48576
873.63969	0.48419
871.71112	0.48258
869.78256	0.48073
867.85399	0.47898
865.92543	0.47771
863.99686	0.47707
862.06830	0.47706
860.13974	0.47746
858.21117	0.47808
856.28261	0.47878
854.35404	0.47936
852.42548	0.47968
850.49691	0.47968
848.56835	0.47948
846.63978	0.47905
844.71122	0.47836
842.78266	0.47768
840.85409	0.47727
838.92553	0.47713
836.99696	0.47718
835.06840	0.47735
833.13983	0.47770
831.21127	0.47830
829.28270	0.47912
827.35414	0.48023
825.42558	0.48156
823.49701	0.48278
821.56845	0.48397
819.63988	0.48542
817.71132	0.48695
815.78275	0.48809
813.85419	0.48869
811.92562	0.48884
809.99706	0.48859
808.06850	0.48800
806.13993	0.48713
804.21137	0.48590
802.28280	0.48445
800.35424	0.48301
798.42567	0.48178
796.49711	0.48105
794.56854	0.48080
792.63998	0.48065
790.71142	0.48075
788.78285	0.48162
786.85429	0.48318
784.92572	0.48494
782.99716	0.48665
781.06859	0.48838
779.14003	0.49011
777.21147	0.49155
775.28290	0.49236
773.35434	0.49268
771.42577	0.49295
769.49721	0.49322
767.56864	0.49339
765.64008	0.49330
763.71151	0.49306
761.78295	0.49296
759.85439	0.49298
757.92582	0.49287
755.99726	0.49268
754.06869	0.49266
752.14013	0.49293
750.21156	0.49352
748.28300	0.49426
746.35443	0.49482
744.42587	0.49547
742.49731	0.49628
740.56874	0.49696
738.64018	0.49753
736.71161	0.49806
734.78305	0.49870
732.85448	0.49971
730.92592	0.50094
728.99735	0.50189
727.06879	0.50242
725.14023	0.50289
723.21166	0.50355
721.28310	0.50441
719.35453	0.50492
717.42597	0.50453
715.49740	0.50376
713.56884	0.50334
711.64027	0.50356
709.71171	0.50427
707.78315	0.50523
705.85458	0.50622
703.92602	0.50696
701.99745	0.50760
700.06889	0.50871
698.14032	0.51015
696.21176	0.51125
694.28319	0.51156
692.35463	0.51152
690.42607	0.51177
688.49750	0.51213
686.56894	0.51239
684.64037	0.51233
682.71181	0.51119
680.78324	0.50923
678.85468	0.50734
676.92611	0.50555
674.99755	0.50394
673.06899	0.50234
671.14042	0.50050
669.21186	0.49970
667.28329	0.50049
665.35473	0.50025
663.42616	0.49948
661.49760	0.49905
659.56903	0.49927
657.64047	0.50011
655.71191	0.50079
653.78334	0.50108
651.85478	0.50196
649.92621	0.50375
647.99765	0.50535
646.06908	0.50618
644.14052	0.50682
642.21195	0.50781
640.28339	0.50924
638.35483	0.51056
636.42626	0.51075
634.49770	0.50952
632.56913	0.50735
630.64057	0.50469
628.71200	0.50205
626.78344	0.50045
624.85488	0.50072
622.92631	0.50229
620.99775	0.50339
619.06918	0.50324
617.14062	0.50328
615.21205	0.50530
613.28349	0.50853
611.35492	0.51106
609.42636	0.51252
607.49780	0.51358
605.56923	0.51475
603.64067	0.51600
601.71210	0.51722
599.78354	0.51802
