3997.91406	0.91824
3995.98550	0.91581
3994.05693	0.91437
3992.12837	0.91428
3990.19980	0.91486
3988.27124	0.91479
3986.34268	0.91395
3984.41411	0.91362
3982.48555	0.91333
3980.55698	0.91182
3978.62842	0.90974
3976.69985	0.90931
3974.77129	0.91021
3972.84272	0.91017
3970.91416	0.90973
3968.98560	0.91003
3967.05703	0.91071
3965.12847	0.91154
3963.19990	0.91197
3961.27134	0.91088
3959.34277	0.90952
3957.41421	0.90929
3955.48564	0.90828
3953.55708	0.90613
3951.62852	0.90461
3949.69995	0.90437
3947.77139	0.90504
3945.84282	0.90559
3943.91426	0.90629
3941.98569	0.90732
3940.05713	0.90687
3938.12856	0.90484
3936.20000	0.90266
3934.27144	0.90086
3932.34287	0.90008
3930.41431	0.89986
3928.48574	0.89791
3926.55718	0.89582
3924.62861	0.89664
3922.70005	0.89781
3920.77148	0.89670
3918.84292	0.89603
3916.91436	0.89706
3914.98579	0.89626
3913.05723	0.89253
3911.12866	0.88827
3909.20010	0.88573
3907.27153	0.88582
3905.34297	0.88832
3903.41440	0.89049
3901.48584	0.89085
3899.55728	0.89146
3897.62871	0.89055
3895.70015	0.88736
3893.77158	0.88481
3891.84302	0.88496
3889.91445	0.88481
3887.98589	0.88311
3886.05733	0.88348
3884.12876	0.88421
3882.20020	0.88253
3880.27163	0.88263
3878.34307	0.88281
3876.41450	0.88170
3874.48594	0.88276
3872.55737	0.88409
3870.62881	0.88203
3868.70025	0.87722
3866.77168	0.87314
3864.84312	0.87442
3862.91455	0.87813
3860.98599	0.87675
3859.05742	0.87268
3857.12886	0.86794
3855.20029	0.86434
3853.27173	0.87026
3851.34317	0.87608
3849.41460	0.87460
3847.48604	0.87227
3845.55747	0.87163
3843.62891	0.87167
3841.70034	0.86877
3839.77178	0.86278
3837.84321	0.86016
3835.91465	0.86285
3833.98609	0.86626
3832.05752	0.86795
3830.12896	0.86784
3828.20039	0.86822
3826.27183	0.86872
3824.34326	0.86663
3822.41470	0.86536
3820.48613	0.86702
3818.55757	0.86504
3816.62901	0.86343
3814.70044	0.86518
3812.77188	0.86470
3810.84331	0.86123
3808.91475	0.85781
3806.98618	0.85728
3805.05762	0.85674
3803.12905	0.85694
3801.20049	0.86187
3799.27193	0.86357
3797.34336	0.86212
3795.41480	0.86215
3793.48623	0.86177
3791.55767	0.86027
3789.62910	0.85905
3787.70054	0.85844
3785.77197	0.85749
3783.84341	0.85564
3781.91485	0.85368
3779.98628	0.85306
3778.05772	0.85350
3776.12915	0.85313
3774.20059	0.85193
3772.27202	0.85066
3770.34346	0.85049
3768.41489	0.85037
3766.48633	0.84910
3764.55777	0.84804
3762.62920	0.84650
3760.70064	0.84436
3758.77207	0.84325
3756.84351	0.84257
3754.91494	0.84052
3752.98638	0.83797
3751.05781	0.83995
3749.12925	0.84225
3747.20069	0.84019
3745.27212	0.84274
3743.34356	0.84848
3741.41499	0.84744
3739.48643	0.84332
3737.55786	0.84122
3735.62930	0.84363
3733.70074	0.84578
3731.77217	0.84340
3729.84361	0.83979
3727.91504	0.83760
3725.98648	0.83757
3724.05791	0.83825
3722.12935	0.83875
3720.20078	0.83972
3718.27222	0.84059
3716.34366	0.84013
3714.41509	0.83856
3712.48653	0.83958
3710.55796	0.84484
3708.62940	0.84690
3706.70083	0.84505
3704.77227	0.84237
3702.84370	0.84163
3700.91514	0.84242
3698.98658	0.84120
3697.05801	0.83896
3695.12945	0.83779
3693.20088	0.83785
3691.27232	0.83990
3689.34375	0.84455
3687.41519	0.84693
3685.48662	0.84579
3683.55806	0.84339
3681.62950	0.84164
3679.70093	0.84209
3677.77237	0.84485
3675.84380	0.85095
3673.91524	0.85466
3671.98667	0.85442
3670.05811	0.85838
3668.12954	0.86380
3666.20098	0.86530
3664.27242	0.86550
3662.34385	0.86585
3660.41529	0.86706
3658.48672	0.87012
3656.55816	0.87613
3654.62959	0.88013
3652.70103	0.87920
3650.77246	0.88054
3648.84390	0.89341
3646.91534	0.90496
3644.98677	0.90922
3643.05821	0.91289
3641.12964	0.91777
3639.20108	0.92228
3637.27251	0.92553
3635.34395	0.92858
3633.41538	0.93140
3631.48682	0.93270
3629.55826	0.93807
3627.62969	0.94899
3625.70113	0.95405
3623.77256	0.95497
3621.84400	0.95488
3619.91543	0.95748
3617.98687	0.96411
3616.05830	0.96990
3614.12974	0.97544
3612.20118	0.98094
3610.27261	0.98549
3608.34405	0.99141
3606.41548	0.99690
3604.48692	0.99965
3602.55835	1.00298
3600.62979	1.00949
3598.70123	1.01670
3596.77266	1.02152
3594.84410	1.02502
3592.91553	1.02823
3590.98697	1.03004
3589.05840	1.03365
3587.12984	1.04387
3585.20127	1.05430
3583.27271	1.06011
3581.34415	1.06327
3579.41558	1.06470
3577.48702	1.06567
3575.55845	1.06900
3573.62989	1.07462
3571.70132	1.07785
3569.77276	1.07788
3567.84419	1.08353
3565.91563	1.09797
3563.98707	1.10788
3562.05850	1.11294
3560.12994	1.11757
3558.20137	1.12173
3556.27281	1.12422
3554.34424	1.12605
3552.41568	1.12974
3550.48711	1.13377
3548.55855	1.13736
3546.62999	1.14338
3544.70142	1.15080
3542.77286	1.15607
3540.84429	1.15924
3538.91573	1.16145
3536.98716	1.16370
3535.05860	1.16810
3533.13003	1.17401
3531.20147	1.17691
3529.27291	1.17774
3527.34434	1.18270
3525.41578	1.19035
3523.48721	1.19589
3521.55865	1.19955
3519.63008	1.20198
3517.70152	1.20317
3515.77295	1.20508
3513.84439	1.20895
3511.91583	1.21403
3509.98726	1.22071
3508.05870	1.22792
3506.13013	1.23320
3504.20157	1.23771
3502.27300	1.24269
3500.34444	1.24786
3498.41587	1.25325
3496.48731	1.25848
3494.55875	1.26284
3492.63018	1.26538
3490.70162	1.26750
3488.77305	1.27198
3486.84449	1.27706
3484.91592	1.27946
3482.98736	1.28210
3481.05879	1.28798
3479.13023	1.29255
3477.20167	1.29206
3475.27310	1.28799
3473.34454	1.28465
3471.41597	1.28744
3469.48741	1.29455
3467.55884	1.29761
3465.63028	1.29636
3463.70171	1.29749
3461.77315	1.30140
3459.84459	1.30302
3457.91602	1.30219
3455.98746	1.30419
3454.05889	1.30800
3452.13033	1.30861
3450.20176	1.30875
3448.27320	1.31195
3446.34464	1.31372
3444.41607	1.31160
3442.48751	1.31039
3440.55894	1.31179
3438.63038	1.31462
3436.70181	1.31808
3434.77325	1.31946
3432.84468	1.31800
3430.91612	1.31551
3428.98756	1.31418
3427.05899	1.31560
3425.13043	1.31962
3423.20186	1.32530
3421.27330	1.32923
3419.34473	1.32797
3417.41617	1.32329
3415.48760	1.31914
3413.55904	1.31854
3411.63048	1.32177
3409.70191	1.32512
3407.77335	1.32525
3405.84478	1.32326
3403.91622	1.32241
3401.98765	1.32501
3400.05909	1.32928
3398.13052	1.33056
3396.20196	1.32833
3394.27340	1.32621
3392.34483	1.32561
3390.41627	1.32564
3388.48770	1.32641
3386.55914	1.32613
3384.63057	1.32274
3382.70201	1.32050
3380.77344	1.32290
3378.84488	1.32660
3376.91632	1.32775
3374.98775	1.32607
3373.05919	1.32350
3371.13062	1.32283
3369.20206	1.32641
3367.27349	1.33171
3365.34493	1.33305
3363.41636	1.33220
3361.48780	1.33451
3359.55924	1.33778
3357.63067	1.33816
3355.70211	1.33658
3353.77354	1.33420
3351.84498	1.33153
3349.91641	1.33038
3347.98785	1.33171
3346.05928	1.33388
3344.13072	1.33480
3342.20216	1.33501
3340.27359	1.33584
3338.34503	1.33624
3336.41646	1.33625
3334.48790	1.33713
3332.55933	1.33678
3330.63077	1.33421
3328.70220	1.33275
3326.77364	1.33441
3324.84508	1.33806
3322.91651	1.34203
3320.98795	1.34542
3319.05938	1.34679
3317.13082	1.34535
3315.20225	1.34377
3313.27369	1.34494
3311.34513	1.34814
3309.41656	1.35095
3307.48800	1.35269
3305.55943	1.35366
3303.63087	1.35401
3301.70230	1.35502
3299.77374	1.35746
3297.84517	1.36043
3295.91661	1.36291
3293.98805	1.36430
3292.05948	1.36436
3290.13092	1.36344
3288.20235	1.36355
3286.27379	1.36552
3284.34522	1.36665
3282.41666	1.36578
3280.48809	1.36453
3278.55953	1.36167
3276.63097	1.35472
3274.70240	1.34891
3272.77384	1.35138
3270.84527	1.35758
3268.91671	1.35954
3266.98814	1.35866
3265.05958	1.35761
3263.13101	1.35389
3261.20245	1.34772
3259.27389	1.34392
3257.34532	1.34371
3255.41676	1.34283
3253.48819	1.33889
3251.55963	1.33413
3249.63106	1.32948
3247.70250	1.32359
3245.77393	1.31845
3243.84537	1.31676
3241.91681	1.31594
3239.98824	1.31437
3238.05968	1.31385
3236.13111	1.31269
3234.20255	1.30879
3232.27398	1.30461
3230.34542	1.30224
3228.41685	1.29921
3226.48829	1.29425
3224.55973	1.29154
3222.63116	1.29219
3220.70260	1.29149
3218.77403	1.28791
3216.84547	1.28391
3214.91690	1.27958
3212.98834	1.27548
3211.05977	1.27473
3209.13121	1.27481
3207.20265	1.27076
3205.27408	1.26361
3203.34552	1.25607
3201.41695	1.25079
3199.48839	1.24894
3197.55982	1.24788
3195.63126	1.24598
3193.70269	1.24317
3191.77413	1.23912
3189.84557	1.23565
3187.91700	1.23420
3185.98844	1.23220
3184.05987	1.22801
3182.13131	1.22396
3180.20274	1.22108
3178.27418	1.21801
3176.34562	1.21477
3174.41705	1.21188
3172.48849	1.20873
3170.55992	1.20503
3168.63136	1.20091
3166.70279	1.19559
3164.77423	1.18954
3162.84566	1.18553
3160.91710	1.18379
3158.98854	1.18199
3157.05997	1.17957
3155.13141	1.17659
3153.20284	1.17294
3151.27428	1.16958
3149.34571	1.16687
3147.41715	1.16524
3145.48858	1.16533
3143.56002	1.16559
3141.63146	1.16426
3139.70289	1.16211
3137.77433	1.16077
3135.84576	1.16006
3133.91720	1.15841
3131.98863	1.15630
3130.06007	1.15549
3128.13150	1.15510
3126.20294	1.15358
3124.27438	1.15228
3122.34581	1.15334
3120.41725	1.15600
3118.48868	1.15780
3116.56012	1.15868
3114.63155	1.15948
3112.70299	1.15898
3110.77442	1.15727
3108.84586	1.15627
3106.91730	1.15642
3104.98873	1.15676
3103.06017	1.15581
3101.13160	1.15398
3099.20304	1.15272
3097.27447	1.15099
3095.34591	1.14945
3093.41734	1.15007
3091.48878	1.15075
3089.56022	1.14909
3087.63165	1.14544
3085.70309	1.14153
3083.77452	1.13944
3081.84596	1.13864
3079.91739	1.13690
3077.98883	1.13398
3076.06026	1.13108
3074.13170	1.12840
3072.20314	1.12526
3070.27457	1.12224
3068.34601	1.12055
3066.41744	1.11934
3064.48888	1.11713
3062.56031	1.11447
3060.63175	1.11156
3058.70318	1.10719
3056.77462	1.10250
3054.84606	1.09931
3052.91749	1.09641
3050.98893	1.09286
3049.06036	1.08926
3047.13180	1.08622
3045.20323	1.08459
3043.27467	1.08348
3041.34610	1.08051
3039.41754	1.07615
3037.48898	1.07289
3035.56041	1.07084
3033.63185	1.06894
3031.70328	1.06712
3029.77472	1.06519
3027.84615	1.06274
3025.91759	1.05976
3023.98903	1.05690
3022.06046	1.05463
3020.13190	1.05224
3018.20333	1.04910
3016.27477	1.04614
3014.34620	1.04462
3012.41764	1.04385
3010.48907	1.04262
3008.56051	1.04118
3006.63195	1.03995
3004.70338	1.03897
3002.77482	1.03780
3000.84625	1.03633
2998.91769	1.03607
2996.98912	1.03756
2995.06056	1.03937
2993.13199	1.04131
2991.20343	1.04410
2989.27487	1.04737
2987.34630	1.05070
2985.41774	1.05331
2983.48917	1.05518
2981.56061	1.05850
2979.63204	1.06409
2977.70348	1.07035
2975.77491	1.07654
2973.84635	1.08272
2971.91779	1.08822
2969.98922	1.09272
2968.06066	1.09733
2966.13209	1.10302
2964.20353	1.10813
2962.27496	1.11021
2960.34640	1.10999
2958.41783	1.10893
2956.48927	1.10650
2954.56071	1.10327
2952.63214	1.10066
2950.70358	1.09814
2948.77501	1.09525
2946.84645	1.09397
2944.91788	1.09654
2942.98932	1.10211
2941.06075	1.10846
2939.13219	1.11549
2937.20363	1.12355
2935.27506	1.13123
2933.34650	1.13791
2931.41793	1.14551
2929.48937	1.15494
2927.56080	1.16472
2925.63224	1.17279
2923.70367	1.17767
2921.77511	1.18015
2919.84655	1.18214
2917.91798	1.18287
2915.98942	1.17814
2914.06085	1.16543
2912.13229	1.14793
2910.20372	1.13040
2908.27516	1.11601
2906.34659	1.10569
2904.41803	1.09787
2902.48947	1.09144
2900.56090	1.08692
2898.63234	1.08445
2896.70377	1.08222
2894.77521	1.07895
2892.84664	1.07613
2890.91808	1.07402
2888.98952	1.07083
2887.06095	1.06720
2885.13239	1.06508
2883.20382	1.06404
2881.27526	1.06254
2879.34669	1.06043
2877.41813	1.05911
2875.48956	1.05877
2873.56100	1.05767
2871.63244	1.05432
2869.70387	1.04896
2867.77531	1.04340
2865.84674	1.03969
2863.91818	1.03813
2861.98961	1.03799
2860.06105	1.03966
2858.13248	1.04372
2856.20392	1.05014
2854.27536	1.05937
2852.34679	1.07036
2850.41823	1.07733
2848.48966	1.07189
2846.56110	1.05270
2844.63253	1.02906
2842.70397	1.00926
2840.77540	0.99461
2838.84684	0.98389
2836.91828	0.97597
2834.98971	0.96994
2833.06115	0.96503
2831.13258	0.96057
2829.20402	0.95658
2827.27545	0.95317
2825.34689	0.95024
2823.41832	0.94759
2821.48976	0.94514
2819.56120	0.94290
2817.63263	0.94046
2815.70407	0.93771
2813.77550	0.93472
2811.84694	0.93132
2809.91837	0.92815
2807.98981	0.92576
2806.06124	0.92327
2804.13268	0.92031
2802.20412	0.91738
2800.27555	0.91449
2798.34699	0.91173
2796.41842	0.90962
2794.48986	0.90825
2792.56129	0.90702
2790.63273	0.90536
2788.70416	0.90310
2786.77560	0.90071
2784.84704	0.89874
2782.91847	0.89694
2780.98991	0.89512
2779.06134	0.89362
2777.13278	0.89261
2775.20421	0.89170
2773.27565	0.89012
2771.34708	0.88824
2769.41852	0.88720
2767.48996	0.88698
2765.56139	0.88661
2763.63283	0.88520
2761.70426	0.88308
2759.77570	0.88143
2757.84713	0.88054
2755.91857	0.87999
2753.99001	0.87921
2752.06144	0.87792
2750.13288	0.87627
2748.20431	0.87479
2746.27575	0.87425
2744.34718	0.87443
2742.41862	0.87415
2740.49005	0.87291
2738.56149	0.87133
2736.63293	0.87010
2734.70436	0.86946
2732.77580	0.86926
2730.84723	0.86903
2728.91867	0.86859
2726.99010	0.86816
2725.06154	0.86747
2723.13297	0.86625
2721.20441	0.86509
2719.27585	0.86432
2717.34728	0.86305
2715.41872	0.86088
2713.49015	0.85850
2711.56159	0.85673
2709.63302	0.85613
2707.70446	0.85585
2705.77589	0.85441
2703.84733	0.85232
2701.91877	0.85090
2699.99020	0.84994
2698.06164	0.84879
2696.13307	0.84755
2694.20451	0.84632
2692.27594	0.84503
2690.34738	0.84394
2688.41881	0.84314
2686.49025	0.84215
2684.56169	0.84049
2682.63312	0.83848
2680.70456	0.83732
2678.77599	0.83743
2676.84743	0.83766
2674.91886	0.83703
2672.99030	0.83590
2671.06173	0.83511
2669.13317	0.83468
2667.20461	0.83399
2665.27604	0.83274
2663.34748	0.83112
2661.41891	0.83008
2659.49035	0.83008
2657.56178	0.83008
2655.63322	0.82955
2653.70465	0.82895
2651.77609	0.82833
2649.84753	0.82737
2647.91896	0.82647
2645.99040	0.82602
2644.06183	0.82568
2642.13327	0.82516
2640.20470	0.82411
2638.27614	0.82236
2636.34757	0.82078
2634.41901	0.82020
2632.49045	0.81998
2630.56188	0.81854
2628.63332	0.81583
2626.70475	0.81366
2624.77619	0.81285
2622.84762	0.81245
2620.91906	0.81169
2618.99049	0.81067
2617.06193	0.80957
2615.13337	0.80849
2613.20480	0.80757
2611.27624	0.80648
2609.34767	0.80509
2607.41911	0.80403
2605.49054	0.80373
2603.56198	0.80408
2601.63342	0.80441
2599.70485	0.80364
2597.77629	0.80218
2595.84772	0.80116
2593.91916	0.80051
2591.99059	0.79958
2590.06203	0.79823
2588.13346	0.79704
2586.20490	0.79615
2584.27634	0.79501
2582.34777	0.79375
2580.41921	0.79275
2578.49064	0.79173
2576.56208	0.79055
2574.63351	0.78969
2572.70495	0.78887
2570.77638	0.78735
2568.84782	0.78551
2566.91926	0.78423
2564.99069	0.78363
2563.06213	0.78309
2561.13356	0.78218
2559.20500	0.78129
2557.27643	0.78081
2555.34787	0.78046
2553.41930	0.77988
2551.49074	0.77933
2549.56218	0.77885
2547.63361	0.77791
2545.70505	0.77665
2543.77648	0.77565
2541.84792	0.77485
2539.91935	0.77405
2537.99079	0.77334
2536.06222	0.77293
2534.13366	0.77247
2532.20510	0.77125
2530.27653	0.76953
2528.34797	0.76837
2526.41940	0.76798
2524.49084	0.76781
2522.56227	0.76738
2520.63371	0.76647
2518.70514	0.76526
2516.77658	0.76380
2514.84802	0.76198
2512.91945	0.76025
2510.99089	0.75912
2509.06232	0.75842
2507.13376	0.75772
2505.20519	0.75663
2503.27663	0.75521
2501.34806	0.75400
2499.41950	0.75307
2497.49094	0.75208
2495.56237	0.75102
2493.63381	0.75008
2491.70524	0.74926
2489.77668	0.74842
2487.84811	0.74755
2485.91955	0.74680
2483.99098	0.74613
2482.06242	0.74527
2480.13386	0.74419
2478.20529	0.74345
2476.27673	0.74304
2474.34816	0.74196
2472.41960	0.74018
2470.49103	0.73876
2468.56247	0.73793
2466.63391	0.73721
2464.70534	0.73631
2462.77678	0.73500
2460.84821	0.73361
2458.91965	0.73243
2456.99108	0.73116
2455.06252	0.72995
2453.13395	0.72916
2451.20539	0.72845
2449.27683	0.72760
2447.34826	0.72688
2445.41970	0.72629
2443.49113	0.72567
2441.56257	0.72507
2439.63400	0.72459
2437.70544	0.72412
2435.77687	0.72335
2433.84831	0.72246
2431.91975	0.72165
2429.99118	0.72064
2428.06262	0.71960
2426.13405	0.71910
2424.20549	0.71888
2422.27692	0.71831
2420.34836	0.71723
2418.41979	0.71565
2416.49123	0.71369
2414.56267	0.71176
2412.63410	0.71005
2410.70554	0.70839
2408.77697	0.70677
2406.84841	0.70531
2404.91984	0.70380
2402.99128	0.70190
2401.06271	0.69993
2399.13415	0.69838
2397.20559	0.69694
2395.27702	0.69534
2393.34846	0.69399
2391.41989	0.69291
2389.49133	0.69168
2387.56276	0.69034
2385.63420	0.68912
2383.70563	0.68828
2381.77707	0.68787
2379.84851	0.68724
2377.91994	0.68628
2375.99138	0.68590
2374.06281	0.68581
2372.13425	0.68449
2370.20568	0.68212
2368.27712	0.68069
2366.34855	0.68140
2364.41999	0.68284
2362.49143	0.68311
2360.56286	0.68280
2358.63430	0.68176
2356.70573	0.67944
2354.77717	0.67838
2352.84860	0.67941
2350.92004	0.67900
2348.99147	0.67604
2347.06291	0.67273
2345.13435	0.67103
2343.20578	0.67063
2341.27722	0.67030
2339.34865	0.66955
2337.42009	0.66767
2335.49152	0.66576
2333.56296	0.66507
2331.63440	0.66458
2329.70583	0.66305
2327.77727	0.66099
2325.84870	0.65987
2323.92014	0.66040
2321.99157	0.66132
2320.06301	0.66151
2318.13444	0.66143
2316.20588	0.66126
2314.27732	0.66073
2312.34875	0.66012
2310.42019	0.65981
2308.49162	0.65969
2306.56306	0.65948
2304.63449	0.65909
2302.70593	0.65873
2300.77736	0.65847
2298.84880	0.65795
2296.92024	0.65708
2294.99167	0.65626
2293.06311	0.65563
2291.13454	0.65497
2289.20598	0.65412
2287.27741	0.65317
2285.34885	0.65209
2283.42028	0.65069
2281.49172	0.64917
2279.56316	0.64791
2277.63459	0.64673
2275.70603	0.64519
2273.77746	0.64347
2271.84890	0.64197
2269.92033	0.64074
2267.99177	0.63986
2266.06320	0.63937
2264.13464	0.63889
2262.20608	0.63819
2260.27751	0.63753
2258.34895	0.63705
2256.42038	0.63662
2254.49182	0.63600
2252.56325	0.63502
2250.63469	0.63396
2248.70612	0.63323
2246.77756	0.63285
2244.84900	0.63248
2242.92043	0.63191
2240.99187	0.63133
2239.06330	0.63075
2237.13474	0.62996
2235.20617	0.62883
2233.27761	0.62772
2231.34904	0.62703
2229.42048	0.62651
2227.49192	0.62576
2225.56335	0.62480
2223.63479	0.62381
2221.70622	0.62298
2219.77766	0.62215
2217.84909	0.62105
2215.92053	0.62001
2213.99196	0.61924
2212.06340	0.61849
2210.13484	0.61754
2208.20627	0.61651
2206.27771	0.61564
2204.34914	0.61510
2202.42058	0.61476
2200.49201	0.61428
2198.56345	0.61359
2196.63488	0.61308
2194.70632	0.61292
2192.77776	0.61279
2190.84919	0.61245
2188.92063	0.61197
2186.99206	0.61147
2185.06350	0.61106
2183.13493	0.61081
2181.20637	0.61067
2179.27781	0.61048
2177.34924	0.61006
2175.42068	0.60956
2173.49211	0.60933
2171.56355	0.60941
2169.63498	0.60931
2167.70642	0.60870
2165.77785	0.60793
2163.84929	0.60738
2161.92073	0.60693
2159.99216	0.60630
2158.06360	0.60540
2156.13503	0.60424
2154.20647	0.60309
2152.27790	0.60230
2150.34934	0.60185
2148.42077	0.60149
2146.49221	0.60084
2144.56365	0.59981
2142.63508	0.59886
2140.70652	0.59819
2138.77795	0.59764
2136.84939	0.59714
2134.92082	0.59671
2132.99226	0.59624
2131.06369	0.59558
2129.13513	0.59486
2127.20657	0.59433
2125.27800	0.59392
2123.34944	0.59350
2121.42087	0.59298
2119.49231	0.59222
2117.56374	0.59139
2115.63518	0.59086
2113.70661	0.59064
2111.77805	0.59038
2109.84949	0.58982
2107.92092	0.58900
2105.99236	0.58816
2104.06379	0.58752
2102.13523	0.58706
2100.20666	0.58646
2098.27810	0.58549
2096.34953	0.58443
2094.42097	0.58347
2092.49241	0.58236
2090.56384	0.58119
2088.63528	0.58026
2086.70671	0.57953
2084.77815	0.57876
2082.84958	0.57784
2080.92102	0.57698
2078.99245	0.57623
2077.06389	0.57548
2075.13533	0.57474
2073.20676	0.57398
2071.27820	0.57326
2069.34963	0.57265
2067.42107	0.57197
2065.49250	0.57104
2063.56394	0.57002
2061.63537	0.56907
2059.70681	0.56816
2057.77825	0.56729
2055.84968	0.56645
2053.92112	0.56565
2051.99255	0.56478
2050.06399	0.56379
2048.13542	0.56285
2046.20686	0.56197
2044.27830	0.56107
2042.34973	0.56022
2040.42117	0.55940
2038.49260	0.55860
2036.56404	0.55783
2034.63547	0.55712
2032.70691	0.55657
2030.77834	0.55603
2028.84978	0.55533
2026.92122	0.55453
2024.99265	0.55382
2023.06409	0.55340
2021.13552	0.55311
2019.20696	0.55270
2017.27839	0.55226
2015.34983	0.55182
2013.42126	0.55139
2011.49270	0.55113
2009.56414	0.55092
2007.63557	0.55052
2005.70701	0.54996
2003.77844	0.54934
2001.84988	0.54872
1999.92131	0.54823
1997.99275	0.54786
1996.06418	0.54735
1994.13562	0.54682
1992.20706	0.54672
1990.27849	0.54664
1988.34993	0.54605
1986.42136	0.54535
1984.49280	0.54484
1982.56423	0.54438
1980.63567	0.54401
1978.70710	0.54370
1976.77854	0.54330
1974.84998	0.54286
1972.92141	0.54241
1970.99285	0.54181
1969.06428	0.54111
1967.13572	0.54045
1965.20715	0.53980
1963.27859	0.53901
1961.35002	0.53817
1959.42146	0.53731
1957.49290	0.53635
1955.56433	0.53548
1953.63577	0.53472
1951.70720	0.53379
1949.77864	0.53271
1947.85007	0.53167
1945.92151	0.53070
1943.99294	0.52994
1942.06438	0.52937
1940.13582	0.52847
1938.20725	0.52724
1936.27869	0.52605
1934.35012	0.52505
1932.42156	0.52422
1930.49299	0.52340
1928.56443	0.52252
1926.63586	0.52169
1924.70730	0.52117
1922.77874	0.52089
1920.85017	0.52029
1918.92161	0.51961
1916.99304	0.51916
1915.06448	0.51844
1913.13591	0.51754
1911.20735	0.51693
1909.27878	0.51659
1907.35022	0.51612
1905.42166	0.51544
1903.49309	0.51488
1901.56453	0.51440
1899.63596	0.51386
1897.70740	0.51336
1895.77883	0.51305
1893.85027	0.51268
1891.92171	0.51215
1889.99314	0.51188
1888.06458	0.51165
1886.13601	0.51103
1884.20745	0.51046
1882.27888	0.51024
1880.35032	0.51013
1878.42175	0.50996
1876.49319	0.50968
1874.56463	0.50934
1872.63606	0.50906
1870.70750	0.50929
1868.77893	0.51025
1866.85037	0.51055
1864.92180	0.50969
1862.99324	0.50876
1861.06467	0.50817
1859.13611	0.50775
1857.20755	0.50722
1855.27898	0.50655
1853.35042	0.50599
1851.42185	0.50552
1849.49329	0.50498
1847.56472	0.50428
1845.63616	0.50385
1843.70759	0.50390
1841.77903	0.50326
1839.85047	0.50196
1837.92190	0.50096
1835.99334	0.50036
1834.06477	0.49952
1832.13621	0.49867
1830.20764	0.49850
1828.27908	0.49820
1826.35051	0.49730
1824.42195	0.49676
1822.49339	0.49632
1820.56482	0.49548
1818.63626	0.49473
1816.70769	0.49426
1814.77913	0.49374
1812.85056	0.49314
1810.92200	0.49287
1808.99343	0.49277
1807.06487	0.49225
1805.13631	0.49148
1803.20774	0.49093
1801.27918	0.49098
1799.35061	0.49114
1797.42205	0.49078
1795.49348	0.49014
1793.56492	0.49008
1791.63635	0.49101
1789.70779	0.49122
1787.77923	0.49061
1785.85066	0.49025
1783.92210	0.49031
1781.99353	0.49078
1780.06497	0.49153
1778.13640	0.49191
1776.20784	0.49182
1774.27927	0.49242
1772.35071	0.49473
1770.42215	0.49677
1768.49358	0.49751
1766.56502	0.49785
1764.63645	0.49803
1762.70789	0.49904
1760.77932	0.50082
1758.85076	0.50199
1756.92220	0.50338
1754.99363	0.50484
1753.06507	0.50597
1751.13650	0.50859
1749.20794	0.51306
1747.27937	0.51692
1745.35081	0.52001
1743.42224	0.52324
1741.49368	0.52689
1739.56512	0.53040
1737.63655	0.53228
1735.70799	0.53370
1733.77942	0.53796
1731.85086	0.54188
1729.92229	0.54396
1727.99373	0.54628
1726.06516	0.54909
1724.13660	0.55319
1722.20804	0.55748
1720.27947	0.56120
1718.35091	0.56807
1716.42234	0.58032
1714.49378	0.58961
1712.56521	0.59570
1710.63665	0.60234
1708.70808	0.61076
1706.77952	0.62387
1704.85096	0.64108
1702.92239	0.65633
1700.99383	0.67900
1699.06526	0.71518
1697.13670	0.74804
1695.20813	0.77884
1693.27957	0.80068
1691.35100	0.81747
1689.42244	0.83770
1687.49388	0.85588
1685.56531	0.87512
1683.63675	0.90641
1681.70818	0.92800
1679.77962	0.93932
1677.85105	0.94994
1675.92249	0.96300
1673.99392	0.97667
1672.06536	0.98687
1670.13680	0.99920
1668.20823	1.01299
1666.27967	1.01990
1664.35110	1.02583
1662.42254	1.03585
1660.49397	1.04501
1658.56541	1.05013
1656.63684	1.05310
1654.70828	1.05804
1652.77972	1.06713
1650.85115	1.06771
1648.92259	1.06597
1646.99402	1.06892
1645.06546	1.07115
1643.13689	1.06893
1641.20833	1.06676
1639.27976	1.06558
1637.35120	1.06591
1635.42264	1.06870
1633.49407	1.06973
1631.56551	1.06879
1629.63694	1.06789
1627.70838	1.06751
1625.77981	1.06641
1623.85125	1.06362
1621.92269	1.05829
1619.99412	1.05131
1618.06556	1.04274
1616.13699	1.03028
1614.20843	1.01685
1612.27986	1.00393
1610.35130	0.99063
1608.42273	0.97739
1606.49417	0.96509
1604.56561	0.95432
1602.63704	0.94505
1600.70848	0.93740
1598.77991	0.93139
1596.85135	0.92700
1594.92278	0.92422
1592.99422	0.92271
1591.06565	0.92250
1589.13709	0.92422
1587.20853	0.92818
1585.27996	0.93377
1583.35140	0.94025
1581.42283	0.94676
1579.49427	0.95250
1577.56570	0.96022
1575.63714	0.97264
1573.70857	0.98049
1571.78001	0.98440
1569.85145	0.99190
1567.92288	1.00094
1565.99432	1.00675
1564.06575	1.01101
1562.13719	1.01327
1560.20862	1.01719
1558.28006	1.02972
1556.35149	1.03512
1554.42293	1.03621
1552.49437	1.03761
1550.56580	1.03883
1548.63724	1.03906
1546.70867	1.03795
1544.78011	1.03666
1542.85154	1.03619
1540.92298	1.03644
1538.99441	1.03458
1537.06585	1.03082
1535.13729	1.02699
1533.20872	1.02330
1531.28016	1.01959
1529.35159	1.01643
1527.42303	1.01446
1525.49446	1.01269
1523.56590	1.01048
1521.63733	1.00948
1519.70877	1.00949
1517.78021	1.00845
1515.85164	1.00506
1513.92308	0.99858
1511.99451	0.99038
1510.06595	0.98247
1508.13738	0.97349
1506.20882	0.95863
1504.28025	0.94649
1502.35169	0.93691
1500.42313	0.92649
1498.49456	0.91470
1496.56600	0.90223
1494.63743	0.89140
1492.70887	0.88249
1490.78030	0.87328
1488.85174	0.86287
1486.92317	0.85384
1484.99461	0.84718
1483.06605	0.84252
1481.13748	0.83926
1479.20892	0.83719
1477.28035	0.83718
1475.35179	0.84087
1473.42322	0.85043
1471.49466	0.86143
1469.56610	0.86648
1467.63753	0.86912
1465.70897	0.87381
1463.78040	0.87970
1461.85184	0.88212
1459.92327	0.88284
1457.99471	0.88849
1456.06614	0.89770
1454.13758	0.89958
1452.20902	0.89897
1450.28045	0.89909
1448.35189	0.90011
1446.42332	0.90081
1444.49476	0.90011
1442.56619	0.89840
1440.63763	0.89608
1438.70906	0.89311
1436.78050	0.88921
1434.85194	0.88424
1432.92337	0.87868
1430.99481	0.87228
1429.06624	0.86518
1427.13768	0.85894
1425.20911	0.85401
1423.28055	0.85009
1421.35198	0.84711
1419.42342	0.84531
1417.49486	0.84393
1415.56629	0.84137
1413.63773	0.83808
1411.70916	0.83474
1409.78060	0.83137
1407.85203	0.82826
1405.92347	0.82633
1403.99490	0.82559
1402.06634	0.82501
1400.13778	0.82499
1398.20921	0.82603
1396.28065	0.82726
1394.35208	0.82860
1392.42352	0.83014
1390.49495	0.83288
1388.56639	0.83962
1386.63782	0.85111
1384.70926	0.86294
1382.78070	0.87313
1380.85213	0.88139
1378.92357	0.88598
1376.99500	0.88646
1375.06644	0.88330
1373.13787	0.87697
1371.20931	0.86873
1369.28074	0.85877
1367.35218	0.84765
1365.42362	0.83711
1363.49505	0.82689
1361.56649	0.81668
1359.63792	0.80793
1357.70936	0.80097
1355.78079	0.79531
1353.85223	0.79042
1351.92366	0.78596
1349.99510	0.78208
1348.06654	0.77913
1346.13797	0.77715
1344.20941	0.77598
1342.28084	0.77575
1340.35228	0.77684
1338.42371	0.77891
1336.49515	0.78141
1334.56659	0.78498
1332.63802	0.79005
1330.70946	0.79597
1328.78089	0.80129
1326.85233	0.80482
1324.92376	0.80682
1322.99520	0.80854
1321.06663	0.81083
1319.13807	0.81358
1317.20951	0.81594
1315.28094	0.81764
1313.35238	0.81935
1311.42381	0.82092
1309.49525	0.82157
1307.56668	0.82124
1305.63812	0.82021
1303.70955	0.81879
1301.78099	0.81723
1299.85243	0.81549
1297.92386	0.81323
1295.99530	0.81075
1294.06673	0.80903
1292.13817	0.80846
1290.20960	0.80864
1288.28104	0.80905
1286.35247	0.80921
1284.42391	0.80873
1282.49535	0.80775
1280.56678	0.80689
1278.63822	0.80681
1276.70965	0.80776
1274.78109	0.80961
1272.85252	0.81216
1270.92396	0.81533
1268.99539	0.81933
1267.06683	0.82407
1265.13827	0.82863
1263.20970	0.83180
1261.28114	0.83303
1259.35257	0.83292
1257.42401	0.83270
1255.49544	0.83291
1253.56688	0.83315
1251.63831	0.83327
1249.70975	0.83336
1247.78119	0.83349
1245.85262	0.83376
1243.92406	0.83398
1241.99549	0.83395
1240.06693	0.83364
1238.13836	0.83270
1236.20980	0.83084
1234.28123	0.82798
1232.35267	0.82404
1230.42411	0.81899
1228.49554	0.81288
1226.56698	0.80578
1224.63841	0.79807
1222.70985	0.79017
1220.78128	0.78246
1218.85272	0.77549
1216.92415	0.76968
1214.99559	0.76545
1213.06703	0.76317
1211.13846	0.76285
1209.20990	0.76391
1207.28133	0.76505
1205.35277	0.76440
1203.42420	0.76087
1201.49564	0.75522
1199.56708	0.74872
1197.63851	0.74190
1195.70995	0.73504
1193.78138	0.72906
1191.85282	0.72486
1189.92425	0.72235
1187.99569	0.72124
1186.06712	0.72161
1184.13856	0.72320
1182.21000	0.72578
1180.28143	0.72984
1178.35287	0.73569
1176.42430	0.74279
1174.49574	0.75029
1172.56717	0.75778
1170.63861	0.76586
1168.71004	0.77539
1166.78148	0.78637
1164.85292	0.79797
1162.92435	0.80876
1160.99579	0.81720
1159.06722	0.82220
1157.13866	0.82274
1155.21009	0.81855
1153.28153	0.81056
1151.35296	0.79987
1149.42440	0.78744
1147.49584	0.77447
1145.56727	0.76253
1143.63871	0.75315
1141.71014	0.74737
1139.78158	0.74536
1137.85301	0.74630
1135.92445	0.74949
1133.99588	0.75528
1132.06732	0.76418
1130.13876	0.77592
1128.21019	0.78914
1126.28163	0.80202
1124.35306	0.81327
1122.42450	0.82223
1120.49593	0.82908
1118.56737	0.83438
1116.63880	0.83778
1114.71024	0.83860
1112.78168	0.83676
1110.85311	0.83273
1108.92455	0.82799
1106.99598	0.82376
1105.06742	0.81986
1103.13885	0.81648
1101.21029	0.81473
1099.28172	0.81510
1097.35316	0.81734
1095.42460	0.82157
1093.49603	0.82807
1091.56747	0.83642
1089.63890	0.84601
1087.71034	0.85633
1085.78177	0.86651
1083.85321	0.87528
1081.92464	0.88217
1079.99608	0.88713
1078.06752	0.88926
1076.13895	0.88831
1074.21039	0.88508
1072.28182	0.88011
1070.35326	0.87374
1068.42469	0.86637
1066.49613	0.85897
1064.56756	0.85219
1062.63900	0.84540
1060.71044	0.83820
1058.78187	0.83092
1056.85331	0.82405
1054.92474	0.81862
1052.99618	0.81527
1051.06761	0.81360
1049.13905	0.81353
1047.21049	0.81569
1045.28192	0.82057
1043.35336	0.82783
1041.42479	0.83573
1039.49623	0.84240
1037.56766	0.84715
1035.63910	0.84934
1033.71053	0.84888
1031.78197	0.84640
1029.85341	0.84216
1027.92484	0.83639
1025.99628	0.82956
1024.06771	0.82227
1022.13915	0.81536
1020.21058	0.80961
1018.28202	0.80521
1016.35345	0.80075
1014.42489	0.79362
1012.49633	0.78242
1010.56776	0.76769
1008.63920	0.75117
1006.71063	0.73552
1004.78207	0.72264
1002.85350	0.71228
1000.92494	0.70378
998.99637	0.69740
997.06781	0.69306
995.13925	0.68923
993.21068	0.68423
991.28212	0.67780
989.35355	0.67051
987.42499	0.66286
985.49642	0.65533
983.56786	0.64873
981.63929	0.64398
979.71073	0.64132
977.78217	0.64006
975.85360	0.63911
973.92504	0.63721
971.99647	0.63343
970.06791	0.62802
968.13934	0.62223
966.21078	0.61762
964.28221	0.61582
962.35365	0.61822
960.42509	0.62571
958.49652	0.63712
956.56796	0.64772
954.63939	0.65229
952.71083	0.64971
950.78226	0.64276
948.85370	0.63483
946.92513	0.62794
944.99657	0.62255
943.06801	0.61841
941.13944	0.61519
939.21088	0.61257
937.28231	0.61036
935.35375	0.60858
933.42518	0.60729
931.49662	0.60651
929.56805	0.60629
927.63949	0.60672
925.71093	0.60794
923.78236	0.60992
921.85380	0.61199
919.92523	0.61334
917.99667	0.61408
916.06810	0.61501
914.13954	0.61676
912.21098	0.61955
910.28241	0.62365
908.35385	0.62937
906.42528	0.63624
904.49672	0.64323
902.56815	0.64975
900.63959	0.65539
898.71102	0.65973
896.78246	0.66287
894.85390	0.66510
892.92533	0.66651
890.99677	0.66709
889.06820	0.66709
887.13964	0.66712
885.21107	0.66754
883.28251	0.66815
881.35394	0.66870
879.42538	0.66938
877.49682	0.67014
875.56825	0.67067
873.63969	0.67114
871.71112	0.67187
869.78256	0.67284
867.85399	0.67396
865.92543	0.67472
863.99686	0.67506
862.06830	0.67589
860.13974	0.67766
858.21117	0.67999
856.28261	0.68239
854.35404	0.68454
852.42548	0.68685
850.49691	0.68965
848.56835	0.69216
846.63978	0.69376
844.71122	0.69508
842.78266	0.69723
840.85409	0.70046
838.92553	0.70423
836.99696	0.70786
835.06840	0.71098
833.13983	0.71383
831.21127	0.71667
829.28270	0.71941
827.35414	0.72198
825.42558	0.72435
823.49701	0.72646
821.56845	0.72819
819.63988	0.72968
817.71132	0.73113
815.78275	0.73245
813.85419	0.73362
811.92562	0.73468
809.99706	0.73591
808.06850	0.73741
806.13993	0.73829
804.21137	0.73777
802.28280	0.73620
800.35424	0.73443
798.42567	0.73315
796.49711	0.73235
794.56854	0.73178
792.63998	0.73174
790.71142	0.73244
788.78285	0.73390
786.85429	0.73595
784.92572	0.73818
782.99716	0.74053
781.06859	0.74287
779.14003	0.74493
777.21147	0.74703
775.28290	0.74981
773.35434	0.75325
771.42577	0.75666
769.49721	0.75993
767.56864	0.76361
765.64008	0.76793
763.71151	0.77244
761.78295	0.77622
759.85439	0.77910
757.92582	0.78190
755.99726	0.78523
754.06869	0.78885
752.14013	0.79178
750.21156	0.79365
748.28300	0.79512
746.35443	0.79628
744.42587	0.79660
742.49731	0.79579
740.56874	0.79428
738.64018	0.79322
736.71161	0.79265
734.78305	0.79184
732.85448	0.79117
730.92592	0.79147
728.99735	0.79244
727.06879	0.79336
725.14023	0.79451
723.21166	0.79628
721.28310	0.79842
719.35453	0.80071
717.42597	0.80296
715.49740	0.80558
713.56884	0.80968
711.64027	0.81525
709.71171	0.82108
707.78315	0.82654
705.85458	0.83177
703.92602	0.83659
701.99745	0.84072
700.06889	0.84470
698.14032	0.84914
696.21176	0.85392
694.28319	0.85837
692.35463	0.86138
690.42607	0.86260
688.49750	0.86289
686.56894	0.86271
684.64037	0.86177
682.71181	0.85991
680.78324	0.85653
678.85468	0.85165
676.92611	0.84663
674.99755	0.84223
673.06899	0.83830
671.14042	0.83499
669.21186	0.83159
667.28329	0.82655
665.35473	0.82165
663.42616	0.81747
661.49760	0.81303
659.56903	0.80810
657.64047	0.80405
655.71191	0.80186
653.78334	0.80071
651.85478	0.80012
649.92621	0.80062
647.99765	0.80253
646.06908	0.80525
644.14052	0.80903
642.21195	0.81525
640.28339	0.82317
638.35483	0.83003
636.42626	0.83526
634.49770	0.83978
632.56913	0.84311
630.64057	0.84522
628.71200	0.84717
626.78344	0.84857
624.85488	0.84770
622.92631	0.84485
620.99775	0.84257
619.06918	0.84142
617.14062	0.83889
615.21205	0.83372
613.28349	0.82692
611.35492	0.81915
609.42636	0.81109
607.49780	0.80375
605.56923	0.79755
603.64067	0.79313
601.71210	0.78980
599.78354	0.78508
