3997.91406	1.14213
3995.98550	1.13774
3994.05693	1.13758
3992.12837	1.13946
3990.19980	1.14045
3988.27124	1.14032
3986.34268	1.13983
3984.41411	1.13940
3982.48555	1.13859
3980.55698	1.13722
3978.62842	1.13596
3976.69985	1.13652
3974.77129	1.13819
3972.84272	1.13752
3970.91416	1.13495
3968.98560	1.13352
3967.05703	1.13365
3965.12847	1.13397
3963.19990	1.13283
3961.27134	1.13024
3959.34277	1.12998
3957.41421	1.13339
3955.48564	1.13578
3953.55708	1.13413
3951.62852	1.13109
3949.69995	1.13008
3947.77139	1.12997
3945.84282	1.12874
3943.91426	1.12854
3941.98569	1.12855
3940.05713	1.12537
3938.12856	1.12060
3936.20000	1.11688
3934.27144	1.11488
3932.34287	1.11592
3930.41431	1.11858
3928.48574	1.11708
3926.55718	1.11485
3924.62861	1.11823
3922.70005	1.11983
3920.77148	1.11584
3918.84292	1.11530
3916.91436	1.12046
3914.98579	1.12289
3913.05723	1.12096
3911.12866	1.11771
3909.20010	1.11076
3907.27153	1.10166
3905.34297	1.10080
3903.41440	1.10998
3901.48584	1.11639
3899.55728	1.11833
3897.62871	1.11619
3895.70015	1.10894
3893.77158	1.10346
3891.84302	1.10770
3889.91445	1.11124
3887.98589	1.10584
3886.05733	1.10277
3884.12876	1.10509
3882.20020	1.10788
3880.27163	1.11419
3878.34307	1.11499
3876.41450	1.10980
3874.48594	1.10634
3872.55737	1.10364
3870.62881	1.10569
3868.70025	1.10891
3866.77168	1.10326
3864.84312	1.09990
3862.91455	1.10363
3860.98599	1.10266
3859.05742	1.09477
3857.12886	1.08322
3855.20029	1.07817
3853.27173	1.09728
3851.34317	1.10863
3849.41460	1.10137
3847.48604	1.09127
3845.55747	1.08437
3843.62891	1.08285
3841.70034	1.08050
3839.77178	1.07815
3837.84321	1.08299
3835.91465	1.08255
3833.98609	1.07827
3832.05752	1.08077
3830.12896	1.08350
3828.20039	1.08173
3826.27183	1.07922
3824.34326	1.07444
3822.41470	1.07330
3820.48613	1.08187
3818.55757	1.08362
3816.62901	1.08419
3814.70044	1.08674
3812.77188	1.08076
3810.84331	1.07022
3808.91475	1.06434
3806.98618	1.06879
3805.05762	1.07149
3803.12905	1.07153
3801.20049	1.07948
3799.27193	1.08050
3797.34336	1.07578
3795.41480	1.07446
3793.48623	1.07200
3791.55767	1.06795
3789.62910	1.06479
3787.70054	1.06285
3785.77197	1.06336
3783.84341	1.06466
3781.91485	1.06379
3779.98628	1.06398
3778.05772	1.06475
3776.12915	1.06126
3774.20059	1.05494
3772.27202	1.05088
3770.34346	1.05417
3768.41489	1.05803
3766.48633	1.05677
3764.55777	1.05617
3762.62920	1.05523
3760.70064	1.05467
3758.77207	1.05874
3756.84351	1.06128
3754.91494	1.05679
3752.98638	1.05248
3751.05781	1.06537
3749.12925	1.07840
3747.20069	1.07158
3745.27212	1.06491
3743.34356	1.06545
3741.41499	1.06139
3739.48643	1.05326
3737.55786	1.04620
3735.62930	1.04719
3733.70074	1.05640
3731.77217	1.06072
3729.84361	1.05737
3727.91504	1.05241
3725.98648	1.05165
3724.05791	1.05334
3722.12935	1.05239
3720.20078	1.05033
3718.27222	1.04755
3716.34366	1.04209
3714.41509	1.03666
3712.48653	1.04156
3710.55796	1.05865
3708.62940	1.06525
3706.70083	1.05983
3704.77227	1.05215
3702.84370	1.05001
3700.91514	1.05390
3698.98658	1.05550
3697.05801	1.05399
3695.12945	1.05136
3693.20088	1.04844
3691.27232	1.05061
3689.34375	1.06368
3687.41519	1.07269
3685.48662	1.07089
3683.55806	1.06658
3681.62950	1.06372
3679.70093	1.06191
3677.77237	1.06265
3675.84380	1.07617
3673.91524	1.08874
3671.98667	1.08961
3670.05811	1.09829
3668.12954	1.10842
3666.20098	1.10881
3664.27242	1.10904
3662.34385	1.11313
3660.41529	1.11743
3658.48672	1.12125
3656.55816	1.13073
3654.62959	1.13913
3652.70103	1.13930
3650.77246	1.14316
3648.84390	1.16057
3646.91534	1.17048
3644.98677	1.17370
3643.05821	1.18016
3641.12964	1.18798
3639.20108	1.19404
3637.27251	1.20101
3635.34395	1.21019
3633.41538	1.21699
3631.48682	1.21916
3629.55826	1.23018
3627.62969	1.25214
3625.70113	1.26090
3623.77256	1.26141
3621.84400	1.26145
3619.91543	1.26766
3617.98687	1.27983
3616.05830	1.28678
3614.12974	1.29371
3612.20118	1.30724
3610.27261	1.31958
3608.34405	1.32922
3606.41548	1.33966
3604.48692	1.34709
3602.55835	1.35419
3600.62979	1.36670
3598.70123	1.37984
3596.77266	1.38817
3594.84410	1.39572
3592.91553	1.40334
3590.98697	1.40799
3589.05840	1.41565
3587.12984	1.43180
3585.20127	1.44252
3583.27271	1.44492
3581.34415	1.44824
3579.41558	1.45384
3577.48702	1.46135
3575.55845	1.47308
3573.62989	1.48690
3571.70132	1.50158
3569.77276	1.51414
3567.84419	1.51492
3565.91563	1.51081
3563.98707	1.51906
3562.05850	1.53424
3560.12994	1.54565
3558.20137	1.55077
3556.27281	1.55576
3554.34424	1.56459
3552.41568	1.57576
3550.48711	1.58628
3548.55855	1.59724
3546.62999	1.61130
3544.70142	1.62233
3542.77286	1.62130
3540.84429	1.61533
3538.91573	1.61443
3536.98716	1.62076
3535.05860	1.63140
3533.13003	1.64045
3531.20147	1.64634
3529.27291	1.64987
3527.34434	1.65269
3525.41578	1.65731
3523.48721	1.66026
3521.55865	1.66389
3519.63008	1.67693
3517.70152	1.69273
3515.77295	1.69695
3513.84439	1.69480
3511.91583	1.70058
3509.98726	1.71188
3508.05870	1.71702
3506.13013	1.71862
3504.20157	1.72351
3502.27300	1.72902
3500.34444	1.73587
3498.41587	1.74738
3496.48731	1.75988
3494.55875	1.76802
3492.63018	1.77004
3490.70162	1.77057
3488.77305	1.77776
3486.84449	1.79147
3484.91592	1.79771
3482.98736	1.78885
3481.05879	1.77726
3479.13023	1.77409
3477.20167	1.77896
3475.27310	1.78867
3473.34454	1.79984
3471.41597	1.80836
3469.48741	1.81011
3467.55884	1.80387
3465.63028	1.79380
3463.70171	1.79021
3461.77315	1.79666
3459.84459	1.80014
3457.91602	1.79618
3455.98746	1.79716
3454.05889	1.80195
3452.13033	1.79793
3450.20176	1.78739
3448.27320	1.78472
3446.34464	1.79689
3444.41607	1.81247
3442.48751	1.82144
3440.55894	1.82311
3438.63038	1.81659
3436.70181	1.80868
3434.77325	1.80161
3432.84468	1.79022
3430.91612	1.78491
3428.98756	1.79379
3427.05899	1.80125
3425.13043	1.79709
3423.20186	1.79311
3421.27330	1.79440
3419.34473	1.79700
3417.41617	1.80325
3415.48760	1.81145
3413.55904	1.81214
3411.63048	1.80140
3409.70191	1.78927
3407.77335	1.78655
3405.84478	1.78825
3403.91622	1.78970
3401.98765	1.79886
3400.05909	1.80859
3398.13052	1.79990
3396.20196	1.78670
3394.27340	1.79186
3392.34483	1.80170
3390.41627	1.79450
3388.48770	1.78283
3386.55914	1.78658
3384.63057	1.79569
3382.70201	1.78855
3380.77344	1.77601
3378.84488	1.77976
3376.91632	1.79405
3374.98775	1.79899
3373.05919	1.79124
3371.13062	1.78403
3369.20206	1.78441
3367.27349	1.78374
3365.34493	1.77721
3363.41636	1.77438
3361.48780	1.77823
3359.55924	1.78234
3357.63067	1.78377
3355.70211	1.78551
3353.77354	1.79145
3351.84498	1.80179
3349.91641	1.81355
3347.98785	1.81950
3346.05928	1.81711
3344.13072	1.81370
3342.20216	1.81198
3340.27359	1.81095
3338.34503	1.81171
3336.41646	1.80855
3334.48790	1.79898
3332.55933	1.79450
3330.63077	1.79857
3328.70220	1.80381
3326.77364	1.80865
3324.84508	1.81079
3322.91651	1.80931
3320.98795	1.81191
3319.05938	1.82354
3317.13082	1.83886
3315.20225	1.84367
3313.27369	1.83389
3311.34513	1.82506
3309.41656	1.82632
3307.48800	1.82893
3305.55943	1.82873
3303.63087	1.83163
3301.70230	1.83583
3299.77374	1.84125
3297.84517	1.84984
3295.91661	1.85092
3293.98805	1.84146
3292.05948	1.83333
3290.13092	1.83302
3288.20235	1.83853
3286.27379	1.84719
3284.34522	1.85904
3282.41666	1.86696
3280.48809	1.86061
3278.55953	1.84825
3276.63097	1.84035
3274.70240	1.83460
3272.77384	1.83168
3270.84527	1.82909
3268.91671	1.82191
3266.98814	1.81610
3265.05958	1.81349
3263.13101	1.81151
3261.20245	1.81057
3259.27389	1.80527
3257.34532	1.79350
3255.41676	1.78422
3253.48819	1.78080
3251.55963	1.77538
3249.63106	1.76583
3247.70250	1.75555
3245.77393	1.74354
3243.84537	1.73174
3241.91681	1.72295
3239.98824	1.71703
3238.05968	1.71599
3236.13111	1.71954
3234.20255	1.71917
3232.27398	1.70734
3230.34542	1.69189
3228.41685	1.68352
3226.48829	1.68040
3224.55973	1.67827
3222.63116	1.67646
3220.70260	1.67306
3218.77403	1.66697
3216.84547	1.66015
3214.91690	1.65270
3212.98834	1.64351
3211.05977	1.63735
3209.13121	1.63721
3207.20265	1.63791
3205.27408	1.63820
3203.34552	1.63769
3201.41695	1.62816
3199.48839	1.61104
3197.55982	1.60107
3195.63126	1.60260
3193.70269	1.60620
3191.77413	1.60564
3189.84557	1.60010
3187.91700	1.59180
3185.98844	1.58399
3184.05987	1.57389
3182.13131	1.56398
3180.20274	1.56426
3178.27418	1.57032
3176.34562	1.56954
3174.41705	1.56325
3172.48849	1.55616
3170.55992	1.54903
3168.63136	1.54342
3166.70279	1.53725
3164.77423	1.53091
3162.84566	1.52754
3160.91710	1.52393
3158.98854	1.51908
3157.05997	1.51544
3155.13141	1.51291
3153.20284	1.51302
3151.27428	1.51561
3149.34571	1.51646
3147.41715	1.51385
3145.48858	1.50907
3143.56002	1.50431
3141.63146	1.49977
3139.70289	1.49334
3137.77433	1.48805
3135.84576	1.48777
3133.91720	1.48869
3131.98863	1.48532
3130.06007	1.47885
3128.13150	1.47677
3126.20294	1.48047
3124.27438	1.48220
3122.34581	1.48175
3120.41725	1.48429
3118.48868	1.48656
3116.56012	1.48446
3114.63155	1.48231
3112.70299	1.48411
3110.77442	1.48676
3108.84586	1.48623
3106.91730	1.48303
3104.98873	1.48111
3103.06017	1.48206
3101.13160	1.48233
3099.20304	1.47882
3097.27447	1.47363
3095.34591	1.47114
3093.41734	1.47075
3091.48878	1.46824
3089.56022	1.46416
3087.63165	1.46151
3085.70309	1.45973
3083.77452	1.45676
3081.84596	1.45323
3079.91739	1.45103
3077.98883	1.44916
3076.06026	1.44524
3074.13170	1.43995
3072.20314	1.43595
3070.27457	1.43237
3068.34601	1.42604
3066.41744	1.41960
3064.48888	1.41707
3062.56031	1.41473
3060.63175	1.41019
3058.70318	1.40793
3056.77462	1.40846
3054.84606	1.40667
3052.91749	1.40085
3050.98893	1.39286
3049.06036	1.38461
3047.13180	1.37915
3045.20323	1.37740
3043.27467	1.37546
3041.34610	1.37105
3039.41754	1.36632
3037.48898	1.36167
3035.56041	1.35617
3033.63185	1.35269
3031.70328	1.35225
3029.77472	1.35086
3027.84615	1.34764
3025.91759	1.34476
3023.98903	1.34198
3022.06046	1.33832
3020.13190	1.33382
3018.20333	1.32863
3016.27477	1.32425
3014.34620	1.32257
3012.41764	1.32302
3010.48907	1.32402
3008.56051	1.32315
3006.63195	1.31896
3004.70338	1.31484
3002.77482	1.31390
3000.84625	1.31469
2998.91769	1.31602
2996.98912	1.31794
2995.06056	1.31905
2993.13199	1.31879
2991.20343	1.31861
2989.27487	1.32016
2987.34630	1.32472
2985.41774	1.33132
2983.48917	1.33808
2981.56061	1.34499
2979.63204	1.35153
2977.70348	1.35667
2975.77491	1.36117
2973.84635	1.36692
2971.91779	1.37506
2969.98922	1.38415
2968.06066	1.39146
2966.13209	1.39619
2964.20353	1.39995
2962.27496	1.40427
2960.34640	1.40744
2958.41783	1.40532
2956.48927	1.39697
2954.56071	1.38648
2952.63214	1.37900
2950.70358	1.37596
2948.77501	1.37521
2946.84645	1.37695
2944.91788	1.38296
2942.98932	1.39063
2941.06075	1.39707
2939.13219	1.40514
2937.20363	1.41771
2935.27506	1.43105
2933.34650	1.44039
2931.41793	1.44648
2929.48937	1.45280
2927.56080	1.46139
2925.63224	1.47205
2923.70367	1.48126
2921.77511	1.48539
2919.84655	1.48473
2917.91798	1.47906
2915.98942	1.46546
2914.06085	1.44419
2912.13229	1.41959
2910.20372	1.39679
2908.27516	1.38002
2906.34659	1.37009
2904.41803	1.36380
2902.48947	1.35801
2900.56090	1.35205
2898.63234	1.34606
2896.70377	1.34036
2894.77521	1.33522
2892.84664	1.33066
2890.91808	1.32601
2888.98952	1.32054
2887.06095	1.31483
2885.13239	1.31096
2883.20382	1.31016
2881.27526	1.31043
2879.34669	1.30994
2877.41813	1.30954
2875.48956	1.30853
2873.56100	1.30474
2871.63244	1.29923
2869.70387	1.29476
2867.77531	1.29044
2865.84674	1.28456
2863.91818	1.27939
2861.98961	1.27728
2860.06105	1.27847
2858.13248	1.28400
2856.20392	1.29332
2854.27536	1.30272
2852.34679	1.31068
2850.41823	1.31392
2848.48966	1.30319
2846.56110	1.27817
2844.63253	1.25067
2842.70397	1.22843
2840.77540	1.21148
2838.84684	1.19791
2836.91828	1.18665
2834.98971	1.17796
2833.06115	1.17137
2831.13258	1.16511
2829.20402	1.15892
2827.27545	1.15316
2825.34689	1.14768
2823.41832	1.14324
2821.48976	1.14059
2819.56120	1.13920
2817.63263	1.13784
2815.70407	1.13513
2813.77550	1.13092
2811.84694	1.12648
2809.91837	1.12287
2807.98981	1.12022
2806.06124	1.11748
2804.13268	1.11415
2802.20412	1.11123
2800.27555	1.10920
2798.34699	1.10726
2796.41842	1.10373
2794.48986	1.09848
2792.56129	1.09452
2790.63273	1.09340
2788.70416	1.09276
2786.77560	1.09086
2784.84704	1.08893
2782.91847	1.08717
2780.98991	1.08423
2779.06134	1.08074
2777.13278	1.07771
2775.20421	1.07443
2773.27565	1.07081
2771.34708	1.06828
2769.41852	1.06695
2767.48996	1.06533
2765.56139	1.06323
2763.63283	1.06138
2761.70426	1.05970
2759.77570	1.05788
2757.84713	1.05571
2755.91857	1.05342
2753.99001	1.05118
2752.06144	1.04877
2750.13288	1.04678
2748.20431	1.04564
2746.27575	1.04371
2744.34718	1.04016
2742.41862	1.03731
2740.49005	1.03643
2738.56149	1.03642
2736.63293	1.03591
2734.70436	1.03404
2732.77580	1.03181
2730.84723	1.03036
2728.91867	1.02871
2726.99010	1.02663
2725.06154	1.02530
2723.13297	1.02440
2721.20441	1.02268
2719.27585	1.01999
2717.34728	1.01712
2715.41872	1.01476
2713.49015	1.01280
2711.56159	1.01074
2709.63302	1.00833
2707.70446	1.00591
2705.77589	1.00379
2703.84733	1.00197
2701.91877	1.00088
2699.99020	1.00048
2698.06164	0.99972
2696.13307	0.99787
2694.20451	0.99538
2692.27594	0.99327
2690.34738	0.99194
2688.41881	0.99073
2686.49025	0.98889
2684.56169	0.98628
2682.63312	0.98385
2680.70456	0.98283
2678.77599	0.98203
2676.84743	0.97936
2674.91886	0.97560
2672.99030	0.97273
2671.06173	0.97153
2669.13317	0.97135
2667.20461	0.97060
2665.27604	0.96919
2663.34748	0.96807
2661.41891	0.96746
2659.49035	0.96715
2657.56178	0.96634
2655.63322	0.96474
2653.70465	0.96318
2651.77609	0.96178
2649.84753	0.96048
2647.91896	0.95931
2645.99040	0.95770
2644.06183	0.95572
2642.13327	0.95390
2640.20470	0.95216
2638.27614	0.95063
2636.34757	0.94960
2634.41901	0.94874
2632.49045	0.94750
2630.56188	0.94597
2628.63332	0.94442
2626.70475	0.94295
2624.77619	0.94187
2622.84762	0.94111
2620.91906	0.93980
2618.99049	0.93758
2617.06193	0.93484
2615.13337	0.93184
2613.20480	0.92927
2611.27624	0.92760
2609.34767	0.92590
2607.41911	0.92396
2605.49054	0.92282
2603.56198	0.92242
2601.63342	0.92190
2599.70485	0.92094
2597.77629	0.91954
2595.84772	0.91800
2593.91916	0.91662
2591.99059	0.91512
2590.06203	0.91352
2588.13346	0.91228
2586.20490	0.91118
2584.27634	0.90940
2582.34777	0.90693
2580.41921	0.90499
2578.49064	0.90411
2576.56208	0.90316
2574.63351	0.90139
2572.70495	0.89967
2570.77638	0.89871
2568.84782	0.89765
2566.91926	0.89577
2564.99069	0.89357
2563.06213	0.89141
2561.13356	0.88921
2559.20500	0.88730
2557.27643	0.88598
2555.34787	0.88486
2553.41930	0.88350
2551.49074	0.88166
2549.56218	0.87908
2547.63361	0.87621
2545.70505	0.87412
2543.77648	0.87286
2541.84792	0.87181
2539.91935	0.87069
2537.99079	0.86938
2536.06222	0.86829
2534.13366	0.86770
2532.20510	0.86707
2530.27653	0.86587
2528.34797	0.86428
2526.41940	0.86283
2524.49084	0.86156
2522.56227	0.86029
2520.63371	0.85908
2518.70514	0.85786
2516.77658	0.85646
2514.84802	0.85501
2512.91945	0.85376
2510.99089	0.85269
2509.06232	0.85148
2507.13376	0.84979
2505.20519	0.84783
2503.27663	0.84617
2501.34806	0.84502
2499.41950	0.84390
2497.49094	0.84224
2495.56237	0.84026
2493.63381	0.83856
2491.70524	0.83715
2489.77668	0.83577
2487.84811	0.83446
2485.91955	0.83320
2483.99098	0.83171
2482.06242	0.83007
2480.13386	0.82878
2478.20529	0.82782
2476.27673	0.82635
2474.34816	0.82423
2472.41960	0.82222
2470.49103	0.82055
2468.56247	0.81900
2466.63391	0.81764
2464.70534	0.81647
2462.77678	0.81509
2460.84821	0.81335
2458.91965	0.81153
2456.99108	0.80965
2455.06252	0.80767
2453.13395	0.80574
2451.20539	0.80406
2449.27683	0.80284
2447.34826	0.80197
2445.41970	0.80099
2443.49113	0.79960
2441.56257	0.79788
2439.63400	0.79627
2437.70544	0.79504
2435.77687	0.79401
2433.84831	0.79277
2431.91975	0.79118
2429.99118	0.78961
2428.06262	0.78829
2426.13405	0.78686
2424.20549	0.78512
2422.27692	0.78331
2420.34836	0.78156
2418.41979	0.78000
2416.49123	0.77870
2414.56267	0.77743
2412.63410	0.77601
2410.70554	0.77463
2408.77697	0.77348
2406.84841	0.77239
2404.91984	0.77123
2402.99128	0.77020
2401.06271	0.76936
2399.13415	0.76825
2397.20559	0.76648
2395.27702	0.76457
2393.34846	0.76346
2391.41989	0.76308
2389.49133	0.76257
2387.56276	0.76161
2385.63420	0.76062
2383.70563	0.75984
2381.77707	0.75921
2379.84851	0.75886
2377.91994	0.75868
2375.99138	0.75837
2374.06281	0.75812
2372.13425	0.75851
2370.20568	0.75976
2368.27712	0.76065
2366.34855	0.75936
2364.41999	0.75774
2362.49143	0.75862
2360.56286	0.76037
2358.63430	0.76130
2356.70573	0.76169
2354.77717	0.76028
2352.84860	0.75742
2350.92004	0.75377
2348.99147	0.74895
2347.06291	0.74489
2345.13435	0.74581
2343.20578	0.75078
2341.27722	0.75256
2339.34865	0.75144
2337.42009	0.75028
2335.49152	0.74887
2333.56296	0.74730
2331.63440	0.74576
2329.70583	0.74394
2327.77727	0.74208
2325.84870	0.74046
2323.92014	0.73914
2321.99157	0.73779
2320.06301	0.73616
2318.13444	0.73442
2316.20588	0.73236
2314.27732	0.73042
2312.34875	0.72948
2310.42019	0.72903
2308.49162	0.72809
2306.56306	0.72672
2304.63449	0.72502
2302.70593	0.72317
2300.77736	0.72161
2298.84880	0.72061
2296.92024	0.71992
2294.99167	0.71894
2293.06311	0.71763
2291.13454	0.71626
2289.20598	0.71466
2287.27741	0.71295
2285.34885	0.71163
2283.42028	0.71072
2281.49172	0.70999
2279.56316	0.70923
2277.63459	0.70814
2275.70603	0.70679
2273.77746	0.70583
2271.84890	0.70521
2269.92033	0.70417
2267.99177	0.70273
2266.06320	0.70160
2264.13464	0.70116
2262.20608	0.70081
2260.27751	0.70002
2258.34895	0.69912
2256.42038	0.69827
2254.49182	0.69724
2252.56325	0.69616
2250.63469	0.69525
2248.70612	0.69441
2246.77756	0.69364
2244.84900	0.69301
2242.92043	0.69221
2240.99187	0.69113
2239.06330	0.69021
2237.13474	0.68949
2235.20617	0.68867
2233.27761	0.68772
2231.34904	0.68669
2229.42048	0.68549
2227.49192	0.68425
2225.56335	0.68316
2223.63479	0.68214
2221.70622	0.68128
2219.77766	0.68079
2217.84909	0.68018
2215.92053	0.67912
2213.99196	0.67810
2212.06340	0.67751
2210.13484	0.67724
2208.20627	0.67694
2206.27771	0.67649
2204.34914	0.67615
2202.42058	0.67579
2200.49201	0.67524
2198.56345	0.67474
2196.63488	0.67440
2194.70632	0.67401
2192.77776	0.67344
2190.84919	0.67277
2188.92063	0.67227
2186.99206	0.67186
2185.06350	0.67118
2183.13493	0.67032
2181.20637	0.66954
2179.27781	0.66878
2177.34924	0.66786
2175.42068	0.66695
2173.49211	0.66615
2171.56355	0.66533
2169.63498	0.66440
2167.70642	0.66337
2165.77785	0.66246
2163.84929	0.66175
2161.92073	0.66111
2159.99216	0.66031
2158.06360	0.65926
2156.13503	0.65837
2154.20647	0.65805
2152.27790	0.65786
2150.34934	0.65734
2148.42077	0.65672
2146.49221	0.65601
2144.56365	0.65503
2142.63508	0.65415
2140.70652	0.65378
2138.77795	0.65370
2136.84939	0.65336
2134.92082	0.65277
2132.99226	0.65221
2131.06369	0.65145
2129.13513	0.65053
2127.20657	0.64979
2125.27800	0.64923
2123.34944	0.64863
2121.42087	0.64764
2119.49231	0.64624
2117.56374	0.64498
2115.63518	0.64402
2113.70661	0.64289
2111.77805	0.64146
2109.84949	0.64025
2107.92092	0.63938
2105.99236	0.63855
2104.06379	0.63770
2102.13523	0.63699
2100.20666	0.63639
2098.27810	0.63581
2096.34953	0.63517
2094.42097	0.63451
2092.49241	0.63384
2090.56384	0.63304
2088.63528	0.63218
2086.70671	0.63125
2084.77815	0.63000
2082.84958	0.62849
2080.92102	0.62723
2078.99245	0.62645
2077.06389	0.62581
2075.13533	0.62493
2073.20676	0.62391
2071.27820	0.62291
2069.34963	0.62200
2067.42107	0.62113
2065.49250	0.62022
2063.56394	0.61936
2061.63537	0.61854
2059.70681	0.61765
2057.77825	0.61689
2055.84968	0.61642
2053.92112	0.61601
2051.99255	0.61533
2050.06399	0.61448
2048.13542	0.61369
2046.20686	0.61276
2044.27830	0.61164
2042.34973	0.61053
2040.42117	0.60937
2038.49260	0.60802
2036.56404	0.60676
2034.63547	0.60569
2032.70691	0.60453
2030.77834	0.60310
2028.84978	0.60164
2026.92122	0.60034
2024.99265	0.59920
2023.06409	0.59813
2021.13552	0.59702
2019.20696	0.59612
2017.27839	0.59565
2015.34983	0.59506
2013.42126	0.59399
2011.49270	0.59279
2009.56414	0.59175
2007.63557	0.59093
2005.70701	0.59018
2003.77844	0.58946
2001.84988	0.58887
1999.92131	0.58818
1997.99275	0.58722
1996.06418	0.58591
1994.13562	0.58449
1992.20706	0.58362
1990.27849	0.58312
1988.34993	0.58243
1986.42136	0.58143
1984.49280	0.58011
1982.56423	0.57878
1980.63567	0.57778
1978.70710	0.57698
1976.77854	0.57612
1974.84998	0.57511
1972.92141	0.57413
1970.99285	0.57339
1969.06428	0.57303
1967.13572	0.57290
1965.20715	0.57233
1963.27859	0.57122
1961.35002	0.57018
1959.42146	0.56949
1957.49290	0.56892
1955.56433	0.56833
1953.63577	0.56761
1951.70720	0.56675
1949.77864	0.56590
1947.85007	0.56511
1945.92151	0.56429
1943.99294	0.56381
1942.06438	0.56369
1940.13582	0.56273
1938.20725	0.56100
1936.27869	0.55961
1934.35012	0.55866
1932.42156	0.55772
1930.49299	0.55654
1928.56443	0.55516
1926.63586	0.55385
1924.70730	0.55319
1922.77874	0.55313
1920.85017	0.55245
1918.92161	0.55178
1916.99304	0.55196
1915.06448	0.55151
1913.13591	0.55029
1911.20735	0.54939
1909.27878	0.54904
1907.35022	0.54860
1905.42166	0.54763
1903.49309	0.54647
1901.56453	0.54551
1899.63596	0.54470
1897.70740	0.54394
1895.77883	0.54337
1893.85027	0.54262
1891.92171	0.54151
1889.99314	0.54105
1888.06458	0.54085
1886.13601	0.53997
1884.20745	0.53902
1882.27888	0.53812
1880.35032	0.53710
1878.42175	0.53610
1876.49319	0.53520
1874.56463	0.53423
1872.63606	0.53283
1870.70750	0.53183
1868.77893	0.53261
1866.85037	0.53299
1864.92180	0.53112
1862.99324	0.52897
1861.06467	0.52761
1859.13611	0.52661
1857.20755	0.52566
1855.27898	0.52469
1853.35042	0.52376
1851.42185	0.52283
1849.49329	0.52199
1847.56472	0.52125
1845.63616	0.52152
1843.70759	0.52312
1841.77903	0.52300
1839.85047	0.52122
1837.92190	0.52008
1835.99334	0.51956
1834.06477	0.51830
1832.13621	0.51699
1830.20764	0.51749
1828.27908	0.51832
1826.35051	0.51783
1824.42195	0.51747
1822.49339	0.51680
1820.56482	0.51558
1818.63626	0.51477
1816.70769	0.51422
1814.77913	0.51352
1812.85056	0.51317
1810.92200	0.51363
1808.99343	0.51386
1807.06487	0.51309
1805.13631	0.51190
1803.20774	0.51106
1801.27918	0.51133
1799.35061	0.51201
1797.42205	0.51162
1795.49348	0.51046
1793.56492	0.51054
1791.63635	0.51271
1789.70779	0.51309
1787.77923	0.51163
1785.85066	0.51102
1783.92210	0.51134
1781.99353	0.51185
1780.06497	0.51281
1778.13640	0.51323
1776.20784	0.51246
1774.27927	0.51249
1772.35071	0.51558
1770.42215	0.51831
1768.49358	0.51847
1766.56502	0.51781
1764.63645	0.51699
1762.70789	0.51777
1760.77932	0.52011
1758.85076	0.52165
1756.92220	0.52373
1754.99363	0.52570
1753.06507	0.52681
1751.13650	0.53074
1749.20794	0.53817
1747.27937	0.54387
1745.35081	0.54747
1743.42224	0.55113
1741.49368	0.55608
1739.56512	0.56187
1737.63655	0.56485
1735.70799	0.56701
1733.77942	0.57555
1731.85086	0.58364
1729.92229	0.58709
1727.99373	0.59058
1726.06516	0.59475
1724.13660	0.60080
1722.20804	0.60707
1720.27947	0.61235
1718.35091	0.62302
1716.42234	0.64280
1714.49378	0.65721
1712.56521	0.66627
1710.63665	0.67631
1708.70808	0.68905
1706.77952	0.70921
1704.85096	0.73627
1702.92239	0.76020
1700.99383	0.79522
1699.06526	0.85258
1697.13670	0.90631
1695.20813	0.95920
1693.27957	0.99950
1691.35100	1.03165
1689.42244	1.07107
1687.49388	1.10830
1685.56531	1.14803
1683.63675	1.21314
1681.70818	1.26187
1679.77962	1.28781
1677.85105	1.31067
1675.92249	1.33854
1673.99392	1.36789
1672.06536	1.38946
1670.13680	1.41379
1668.20823	1.43965
1666.27967	1.45137
1664.35110	1.46018
1662.42254	1.47330
1660.49397	1.48290
1658.56541	1.48712
1656.63684	1.48823
1654.70828	1.48972
1652.77972	1.49327
1650.85115	1.49095
1648.92259	1.48549
1646.99402	1.48141
1645.06546	1.47972
1643.13689	1.47652
1641.20833	1.47370
1639.27976	1.47112
1637.35120	1.46919
1635.42264	1.46868
1633.49407	1.46432
1631.56551	1.45719
1629.63694	1.44877
1627.70838	1.43997
1625.77981	1.43063
1623.85125	1.41773
1621.92269	1.39897
1619.99412	1.37850
1618.06556	1.35183
1616.13699	1.31220
1614.20843	1.27642
1612.27986	1.24601
1610.35130	1.21461
1608.42273	1.18424
1606.49417	1.15888
1604.56561	1.13911
1602.63704	1.12383
1600.70848	1.11290
1598.77991	1.10577
1596.85135	1.10133
1594.92278	1.09892
1592.99422	1.09871
1591.06565	1.10106
1589.13709	1.10640
1587.20853	1.11509
1585.27996	1.12648
1583.35140	1.14008
1581.42283	1.15475
1579.49427	1.16882
1577.56570	1.18756
1575.63714	1.21456
1573.70857	1.23069
1571.78001	1.23917
1569.85145	1.25409
1567.92288	1.27072
1565.99432	1.28115
1564.06575	1.28940
1562.13719	1.29464
1560.20862	1.30340
1558.28006	1.32948
1556.35149	1.34134
1554.42293	1.34323
1552.49437	1.34450
1550.56580	1.34402
1548.63724	1.34152
1546.70867	1.33875
1544.78011	1.33630
1542.85154	1.33304
1540.92298	1.32932
1538.99441	1.32111
1537.06585	1.31013
1535.13729	1.29890
1533.20872	1.28800
1531.28016	1.27836
1529.35159	1.26884
1527.42303	1.25888
1525.49446	1.24983
1523.56590	1.24347
1521.63733	1.23904
1519.70877	1.23423
1517.78021	1.22653
1515.85164	1.21388
1513.92308	1.19638
1511.99451	1.17632
1510.06595	1.15693
1508.13738	1.13388
1506.20882	1.09722
1504.28025	1.07118
1502.35169	1.05322
1500.42313	1.03521
1498.49456	1.01534
1496.56600	0.99377
1494.63743	0.97515
1492.70887	0.96049
1490.78030	0.94641
1488.85174	0.93209
1486.92317	0.92020
1484.99461	0.91114
1483.06605	0.90516
1481.13748	0.90268
1479.20892	0.90330
1477.28035	0.90726
1475.35179	0.91649
1473.42322	0.93424
1471.49466	0.95391
1469.56610	0.96354
1467.63753	0.96896
1465.70897	0.97767
1463.78040	0.98788
1461.85184	0.99248
1459.92327	0.99490
1457.99471	1.00429
1456.06614	1.01694
1454.13758	1.01853
1452.20902	1.01626
1450.28045	1.01397
1448.35189	1.01165
1446.42332	1.00826
1444.49476	1.00362
1442.56619	0.99827
1440.63763	0.99239
1438.70906	0.98638
1436.78050	0.98047
1434.85194	0.97362
1432.92337	0.96592
1430.99481	0.95846
1429.06624	0.95205
1427.13768	0.94742
1425.20911	0.94518
1423.28055	0.94486
1421.35198	0.94538
1419.42342	0.94879
1417.49486	0.95321
1415.56629	0.95306
1413.63773	0.95086
1411.70916	0.94891
1409.78060	0.94732
1407.85203	0.94673
1405.92347	0.94826
1403.99490	0.95052
1402.06634	0.95130
1400.13778	0.95185
1398.20921	0.95319
1396.28065	0.95470
1394.35208	0.95679
1392.42352	0.95926
1390.49495	0.96248
1388.56639	0.96969
1386.63782	0.98226
1384.70926	0.99455
1382.78070	1.00347
1380.85213	1.00862
1378.92357	1.00829
1376.99500	1.00209
1375.06644	0.99008
1373.13787	0.97380
1371.20931	0.95728
1369.28074	0.94027
1367.35218	0.92231
1365.42362	0.90596
1363.49505	0.89181
1361.56649	0.88017
1359.63792	0.87181
1357.70936	0.86601
1355.78079	0.86222
1353.85223	0.86013
1351.92366	0.85917
1349.99510	0.85910
1348.06654	0.85991
1346.13797	0.86129
1344.20941	0.86291
1342.28084	0.86516
1340.35228	0.86922
1338.42371	0.87482
1336.49515	0.88034
1334.56659	0.88640
1332.63802	0.89406
1330.70946	0.90292
1328.78089	0.91122
1326.85233	0.91717
1324.92376	0.92096
1322.99520	0.92427
1321.06663	0.92798
1319.13807	0.93175
1317.20951	0.93456
1315.28094	0.93580
1313.35238	0.93622
1311.42381	0.93637
1309.49525	0.93593
1307.56668	0.93439
1305.63812	0.93170
1303.70955	0.92842
1301.78099	0.92491
1299.85243	0.92100
1297.92386	0.91654
1295.99530	0.91186
1294.06673	0.90776
1292.13817	0.90502
1290.20960	0.90396
1288.28104	0.90420
1286.35247	0.90481
1284.42391	0.90504
1282.49535	0.90513
1280.56678	0.90576
1278.63822	0.90715
1276.70965	0.90929
1274.78109	0.91208
1272.85252	0.91606
1270.92396	0.92181
1268.99539	0.92848
1267.06683	0.93481
1265.13827	0.94000
1263.20970	0.94348
1261.28114	0.94519
1259.35257	0.94545
1257.42401	0.94509
1255.49544	0.94524
1253.56688	0.94613
1251.63831	0.94716
1249.70975	0.94823
1247.78119	0.94957
1245.85262	0.95088
1243.92406	0.95153
1241.99549	0.95122
1240.06693	0.95007
1238.13836	0.94815
1236.20980	0.94528
1234.28123	0.94139
1232.35267	0.93661
1230.42411	0.93057
1228.49554	0.92300
1226.56698	0.91467
1224.63841	0.90631
1222.70985	0.89783
1220.78128	0.88950
1218.85272	0.88226
1216.92415	0.87664
1214.99559	0.87313
1213.06703	0.87231
1211.13846	0.87384
1209.20990	0.87627
1207.28133	0.87798
1205.35277	0.87744
1203.42420	0.87361
1201.49564	0.86703
1199.56708	0.85931
1197.63851	0.85124
1195.70995	0.84311
1193.78138	0.83578
1191.85282	0.83007
1189.92425	0.82601
1187.99569	0.82322
1186.06712	0.82140
1184.13856	0.82090
1182.21000	0.82266
1180.28143	0.82710
1178.35287	0.83378
1176.42430	0.84194
1174.49574	0.85094
1172.56717	0.86056
1170.63861	0.87144
1168.71004	0.88460
1166.78148	0.90081
1164.85292	0.91979
1162.92435	0.93892
1160.99579	0.95460
1159.06722	0.96461
1157.13866	0.96808
1155.21009	0.96472
1153.28153	0.95529
1151.35296	0.94183
1149.42440	0.92682
1147.49584	0.91250
1145.56727	0.90033
1143.63871	0.89114
1141.71014	0.88600
1139.78158	0.88589
1137.85301	0.89036
1135.92445	0.89806
1133.99588	0.90847
1132.06732	0.92180
1130.13876	0.93806
1128.21019	0.95643
1126.28163	0.97482
1124.35306	0.99113
1122.42450	1.00490
1120.49593	1.01643
1118.56737	1.02564
1116.63880	1.03122
1114.71024	1.03187
1112.78168	1.02830
1110.85311	1.02230
1108.92455	1.01571
1106.99598	1.00966
1105.06742	1.00441
1103.13885	1.00019
1101.21029	0.99746
1099.28172	0.99745
1097.35316	1.00103
1095.42460	1.00803
1093.49603	1.01839
1091.56747	1.03196
1089.63890	1.04820
1087.71034	1.06712
1085.78177	1.08811
1083.85321	1.10819
1081.92464	1.12329
1079.99608	1.13081
1078.06752	1.13109
1076.13895	1.12593
1074.21039	1.11636
1072.28182	1.10330
1070.35326	1.08826
1068.42469	1.07295
1066.49613	1.05953
1064.56756	1.04876
1062.63900	1.03953
1060.71044	1.03067
1058.78187	1.02176
1056.85331	1.01337
1054.92474	1.00682
1052.99618	1.00299
1051.06761	1.00164
1049.13905	1.00207
1047.21049	1.00411
1045.28192	1.00824
1043.35336	1.01518
1041.42479	1.02392
1039.49623	1.03163
1037.56766	1.03694
1035.63910	1.04046
1033.71053	1.04209
1031.78197	1.04038
1029.85341	1.03415
1027.92484	1.02397
1025.99628	1.01181
1024.06771	1.00005
1022.13915	0.99060
1020.21058	0.98383
1018.28202	0.97850
1016.35345	0.97251
1014.42489	0.96344
1012.49633	0.95006
1010.56776	0.93325
1008.63920	0.91480
1006.71063	0.89663
1004.78207	0.88046
1002.85350	0.86756
1000.92494	0.85850
998.99637	0.85266
997.06781	0.84843
995.13925	0.84408
993.21068	0.83813
991.28212	0.82920
989.35355	0.81724
987.42499	0.80364
985.49642	0.78962
983.56786	0.77639
981.63929	0.76506
979.71073	0.75564
977.78217	0.74739
975.85360	0.73986
973.92504	0.73253
971.99647	0.72449
970.06791	0.71557
968.13934	0.70674
966.21078	0.69938
964.28221	0.69500
962.35365	0.69513
960.42509	0.70100
958.49652	0.71194
956.56796	0.72378
954.63939	0.73126
952.71083	0.73201
950.78226	0.72704
948.85370	0.71928
946.92513	0.71184
944.99657	0.70601
943.06801	0.70150
941.13944	0.69806
939.21088	0.69549
937.28231	0.69336
935.35375	0.69153
933.42518	0.69038
931.49662	0.69008
929.56805	0.69032
927.63949	0.69094
925.71093	0.69234
923.78236	0.69438
921.85380	0.69613
919.92523	0.69706
917.99667	0.69708
916.06810	0.69646
914.13954	0.69601
912.21098	0.69617
910.28241	0.69698
908.35385	0.69866
906.42528	0.70106
904.49672	0.70396
902.56815	0.70738
900.63959	0.71031
898.71102	0.71177
896.78246	0.71218
894.85390	0.71201
892.92533	0.71129
890.99677	0.71007
889.06820	0.70830
887.13964	0.70646
885.21107	0.70529
883.28251	0.70486
881.35394	0.70498
879.42538	0.70543
877.49682	0.70608
875.56825	0.70692
873.63969	0.70808
871.71112	0.70968
869.78256	0.71132
867.85399	0.71281
865.92543	0.71476
863.99686	0.71748
862.06830	0.72060
860.13974	0.72395
858.21117	0.72790
856.28261	0.73260
854.35404	0.73738
852.42548	0.74157
850.49691	0.74493
848.56835	0.74744
846.63978	0.74955
844.71122	0.75175
842.78266	0.75377
840.85409	0.75552
838.92553	0.75786
836.99696	0.76098
835.06840	0.76342
833.13983	0.76439
831.21127	0.76500
829.28270	0.76597
827.35414	0.76682
825.42558	0.76756
823.49701	0.76853
821.56845	0.76982
819.63988	0.77164
817.71132	0.77423
815.78275	0.77777
813.85419	0.78194
811.92562	0.78582
809.99706	0.78894
808.06850	0.79144
806.13993	0.79383
804.21137	0.79645
802.28280	0.79845
800.35424	0.79922
798.42567	0.79960
796.49711	0.80046
794.56854	0.80229
792.63998	0.80524
790.71142	0.80904
788.78285	0.81327
786.85429	0.81757
784.92572	0.82207
782.99716	0.82704
781.06859	0.83225
779.14003	0.83696
777.21147	0.84078
775.28290	0.84463
773.35434	0.84898
771.42577	0.85297
769.49721	0.85639
767.56864	0.85982
765.64008	0.86329
763.71151	0.86652
761.78295	0.86984
759.85439	0.87378
757.92582	0.87849
755.99726	0.88373
754.06869	0.88915
752.14013	0.89442
750.21156	0.89966
748.28300	0.90535
746.35443	0.91077
744.42587	0.91449
742.49731	0.91673
740.56874	0.91882
738.64018	0.92083
736.71161	0.92179
734.78305	0.92238
732.85448	0.92430
730.92592	0.92701
728.99735	0.92913
727.06879	0.93115
725.14023	0.93415
723.21166	0.93815
721.28310	0.94237
719.35453	0.94646
717.42597	0.95069
715.49740	0.95534
713.56884	0.96106
711.64027	0.96761
709.71171	0.97350
707.78315	0.97878
705.85458	0.98417
703.92602	0.98807
701.99745	0.98926
700.06889	0.98928
698.14032	0.98869
696.21176	0.98701
694.28319	0.98560
692.35463	0.98515
690.42607	0.98472
688.49750	0.98407
686.56894	0.98388
684.64037	0.98492
682.71181	0.98717
680.78324	0.98982
678.85468	0.99245
676.92611	0.99487
674.99755	0.99642
673.06899	0.99716
671.14042	0.99800
669.21186	0.99988
667.28329	1.00184
665.35473	1.00221
663.42616	1.00256
661.49760	1.00274
659.56903	1.00183
657.64047	1.00003
655.71191	0.99827
653.78334	0.99851
651.85478	1.00131
649.92621	1.00531
647.99765	1.01012
646.06908	1.01580
644.14052	1.02187
642.21195	1.02751
640.28339	1.03238
638.35483	1.03760
636.42626	1.04239
634.49770	1.04203
632.56913	1.03591
630.64057	1.03017
628.71200	1.02904
626.78344	1.03176
624.85488	1.03364
622.92631	1.03173
620.99775	1.02902
619.06918	1.02875
617.14062	1.03056
615.21205	1.03209
613.28349	1.03271
611.35492	1.03386
609.42636	1.03595
607.49780	1.03693
605.56923	1.03490
603.64067	1.03150
601.71210	1.02858
599.78354	1.02666
