3997.91406	0.90171
3995.98550	0.90253
3994.05693	0.90247
3992.12837	0.90319
3990.19980	0.90409
3988.27124	0.90320
3986.34268	0.90170
3984.41411	0.90159
3982.48555	0.90201
3980.55698	0.90130
3978.62842	0.89948
3976.69985	0.89816
3974.77129	0.89840
3972.84272	0.89856
3970.91416	0.89768
3968.98560	0.89721
3967.05703	0.89720
3965.12847	0.89709
3963.19990	0.89758
3961.27134	0.89826
3959.34277	0.89838
3957.41421	0.89817
3955.48564	0.89681
3953.55708	0.89487
3951.62852	0.89494
3949.69995	0.89645
3947.77139	0.89640
3945.84282	0.89541
3943.91426	0.89589
3941.98569	0.89746
3940.05713	0.89900
3938.12856	0.89996
3936.20000	0.89877
3934.27144	0.89700
3932.34287	0.89854
3930.41431	0.90052
3928.48574	0.89810
3926.55718	0.89511
3924.62861	0.89611
3922.70005	0.89751
3920.77148	0.89596
3918.84292	0.89335
3916.91436	0.89129
3914.98579	0.89043
3913.05723	0.89019
3911.12866	0.88984
3909.20010	0.88845
3907.27153	0.88560
3905.34297	0.88339
3903.41440	0.88440
3901.48584	0.88753
3899.55728	0.88977
3897.62871	0.88900
3895.70015	0.88600
3893.77158	0.88401
3891.84302	0.88605
3889.91445	0.88769
3887.98589	0.88598
3886.05733	0.88543
3884.12876	0.88610
3882.20020	0.88483
3880.27163	0.88392
3878.34307	0.88358
3876.41450	0.88320
3874.48594	0.88399
3872.55737	0.88434
3870.62881	0.88483
3868.70025	0.88652
3866.77168	0.88585
3864.84312	0.88403
3862.91455	0.88329
3860.98599	0.88173
3859.05742	0.87813
3857.12886	0.87256
3855.20029	0.86762
3853.27173	0.87206
3851.34317	0.87907
3849.41460	0.88002
3847.48604	0.87840
3845.55747	0.87557
3843.62891	0.87244
3841.70034	0.87036
3839.77178	0.87076
3837.84321	0.87351
3835.91465	0.87423
3833.98609	0.87347
3832.05752	0.87523
3830.12896	0.87772
3828.20039	0.87748
3826.27183	0.87576
3824.34326	0.87389
3822.41470	0.87305
3820.48613	0.87327
3818.55757	0.87092
3816.62901	0.87079
3814.70044	0.87382
3812.77188	0.87347
3810.84331	0.87063
3808.91475	0.86806
3806.98618	0.86787
3805.05762	0.86894
3803.12905	0.86991
3801.20049	0.87254
3799.27193	0.87389
3797.34336	0.87438
3795.41480	0.87567
3793.48623	0.87524
3791.55767	0.87346
3789.62910	0.87257
3787.70054	0.87367
3785.77197	0.87628
3783.84341	0.87622
3781.91485	0.87231
3779.98628	0.87008
3778.05772	0.87152
3776.12915	0.87207
3774.20059	0.87028
3772.27202	0.86826
3770.34346	0.86863
3768.41489	0.86945
3766.48633	0.86876
3764.55777	0.86838
3762.62920	0.86806
3760.70064	0.86811
3758.77207	0.86932
3756.84351	0.86937
3754.91494	0.86769
3752.98638	0.86703
3751.05781	0.86963
3749.12925	0.86824
3747.20069	0.86234
3745.27212	0.86156
3743.34356	0.86747
3741.41499	0.86945
3739.48643	0.86719
3737.55786	0.86434
3735.62930	0.86414
3733.70074	0.86716
3731.77217	0.86878
3729.84361	0.86799
3727.91504	0.86764
3725.98648	0.86958
3724.05791	0.87208
3722.12935	0.87311
3720.20078	0.87300
3718.27222	0.87208
3716.34366	0.86981
3714.41509	0.86601
3712.48653	0.86301
3710.55796	0.86395
3708.62940	0.86550
3706.70083	0.86573
3704.77227	0.86529
3702.84370	0.86483
3700.91514	0.86509
3698.98658	0.86523
3697.05801	0.86500
3695.12945	0.86447
3693.20088	0.86309
3691.27232	0.86319
3689.34375	0.86765
3687.41519	0.87065
3685.48662	0.87080
3683.55806	0.87108
3681.62950	0.87190
3679.70093	0.87261
3677.77237	0.87417
3675.84380	0.87950
3673.91524	0.88202
3671.98667	0.88082
3670.05811	0.88432
3668.12954	0.88909
3666.20098	0.89113
3664.27242	0.89404
3662.34385	0.89699
3660.41529	0.89802
3658.48672	0.89978
3656.55816	0.90510
3654.62959	0.90913
3652.70103	0.90950
3650.77246	0.91111
3648.84390	0.91883
3646.91534	0.92660
3644.98677	0.93116
3643.05821	0.93532
3641.12964	0.93984
3639.20108	0.94389
3637.27251	0.94721
3635.34395	0.95006
3633.41538	0.95151
3631.48682	0.95150
3629.55826	0.95634
3627.62969	0.96660
3625.70113	0.97117
3623.77256	0.97190
3621.84400	0.97174
3619.91543	0.97455
3617.98687	0.98239
3616.05830	0.98848
3614.12974	0.99144
3612.20118	0.99520
3610.27261	1.00161
3608.34405	1.00876
3606.41548	1.01254
3604.48692	1.01336
3602.55835	1.01550
3600.62979	1.02046
3598.70123	1.02577
3596.77266	1.02953
3594.84410	1.03344
3592.91553	1.03860
3590.98697	1.04220
3589.05840	1.04589
3587.12984	1.05456
3585.20127	1.06196
3583.27271	1.06401
3581.34415	1.06502
3579.41558	1.06774
3577.48702	1.07162
3575.55845	1.07484
3573.62989	1.07662
3571.70132	1.07777
3569.77276	1.07994
3567.84419	1.08363
3565.91563	1.08727
3563.98707	1.09232
3562.05850	1.09919
3560.12994	1.10423
3558.20137	1.10615
3556.27281	1.10643
3554.34424	1.10787
3552.41568	1.11297
3550.48711	1.11724
3548.55855	1.11827
3546.62999	1.12143
3544.70142	1.12844
3542.77286	1.13497
3540.84429	1.13830
3538.91573	1.13918
3536.98716	1.14177
3535.05860	1.14700
3533.13003	1.14915
3531.20147	1.14636
3529.27291	1.14480
3527.34434	1.15044
3525.41578	1.16077
3523.48721	1.16908
3521.55865	1.17187
3519.63008	1.17161
3517.70152	1.17361
3515.77295	1.18033
3513.84439	1.18776
3511.91583	1.19026
3509.98726	1.19105
3508.05870	1.19633
3506.13013	1.20365
3504.20157	1.21114
3502.27300	1.21825
3500.34444	1.22286
3498.41587	1.22668
3496.48731	1.22927
3494.55875	1.22880
3492.63018	1.22907
3490.70162	1.23200
3488.77305	1.23309
3486.84449	1.23045
3484.91592	1.23044
3482.98736	1.23763
3481.05879	1.24519
3479.13023	1.24460
3477.20167	1.24005
3475.27310	1.23833
3473.34454	1.23982
3471.41597	1.24271
3469.48741	1.24636
3467.55884	1.25048
3465.63028	1.25314
3463.70171	1.25324
3461.77315	1.25346
3459.84459	1.25478
3457.91602	1.25528
3455.98746	1.25571
3454.05889	1.25747
3452.13033	1.26031
3450.20176	1.26319
3448.27320	1.26489
3446.34464	1.26587
3444.41607	1.26649
3442.48751	1.26596
3440.55894	1.26644
3438.63038	1.27035
3436.70181	1.27518
3434.77325	1.27732
3432.84468	1.27705
3430.91612	1.27709
3428.98756	1.27867
3427.05899	1.27938
3425.13043	1.27764
3423.20186	1.27647
3421.27330	1.27853
3419.34473	1.28105
3417.41617	1.28071
3415.48760	1.27994
3413.55904	1.28107
3411.63048	1.28181
3409.70191	1.28029
3407.77335	1.27843
3405.84478	1.27894
3403.91622	1.28177
3401.98765	1.28464
3400.05909	1.28552
3398.13052	1.28489
3396.20196	1.28458
3394.27340	1.28428
3392.34483	1.28324
3390.41627	1.28141
3388.48770	1.27878
3386.55914	1.27878
3384.63057	1.28287
3382.70201	1.28630
3380.77344	1.28790
3378.84488	1.28991
3376.91632	1.29097
3374.98775	1.28937
3373.05919	1.28628
3371.13062	1.28430
3369.20206	1.28489
3367.27349	1.28651
3365.34493	1.28732
3363.41636	1.28902
3361.48780	1.29267
3359.55924	1.29560
3357.63067	1.29576
3355.70211	1.29450
3353.77354	1.29477
3351.84498	1.29657
3349.91641	1.29827
3347.98785	1.29924
3346.05928	1.29832
3344.13072	1.29649
3342.20216	1.29576
3340.27359	1.29514
3338.34503	1.29505
3336.41646	1.29805
3334.48790	1.30140
3332.55933	1.30098
3330.63077	1.29936
3328.70220	1.29936
3326.77364	1.29995
3324.84508	1.30044
3322.91651	1.30179
3320.98795	1.30260
3319.05938	1.30110
3317.13082	1.30143
3315.20225	1.30517
3313.27369	1.30704
3311.34513	1.30603
3309.41656	1.30651
3307.48800	1.30871
3305.55943	1.30943
3303.63087	1.30937
3301.70230	1.30977
3299.77374	1.31006
3297.84517	1.31174
3295.91661	1.31494
3293.98805	1.31743
3292.05948	1.31788
3290.13092	1.31737
3288.20235	1.31867
3286.27379	1.32147
3284.34522	1.32242
3282.41666	1.32056
3280.48809	1.31785
3278.55953	1.31599
3276.63097	1.31534
3274.70240	1.31579
3272.77384	1.31645
3270.84527	1.31495
3268.91671	1.31082
3266.98814	1.30711
3265.05958	1.30473
3263.13101	1.30205
3261.20245	1.29893
3259.27389	1.29597
3257.34532	1.29434
3255.41676	1.29419
3253.48819	1.29228
3251.55963	1.28745
3249.63106	1.28279
3247.70250	1.27916
3245.77393	1.27545
3243.84537	1.27261
3241.91681	1.27080
3239.98824	1.26842
3238.05968	1.26523
3236.13111	1.26206
3234.20255	1.25949
3232.27398	1.25724
3230.34542	1.25436
3228.41685	1.25068
3226.48829	1.24802
3224.55973	1.24720
3222.63116	1.24572
3220.70260	1.24315
3218.77403	1.24131
3216.84547	1.23954
3214.91690	1.23771
3212.98834	1.23656
3211.05977	1.23577
3209.13121	1.23544
3207.20265	1.23453
3205.27408	1.23219
3203.34552	1.22901
3201.41695	1.22488
3199.48839	1.22124
3197.55982	1.21810
3195.63126	1.21320
3193.70269	1.20910
3191.77413	1.20843
3189.84557	1.20905
3187.91700	1.20862
3185.98844	1.20653
3184.05987	1.20408
3182.13131	1.20257
3180.20274	1.20100
3178.27418	1.19839
3176.34562	1.19542
3174.41705	1.19223
3172.48849	1.18826
3170.55992	1.18364
3168.63136	1.17854
3166.70279	1.17437
3164.77423	1.17233
3162.84566	1.17065
3160.91710	1.16791
3158.98854	1.16450
3157.05997	1.16007
3155.13141	1.15510
3153.20284	1.15244
3151.27428	1.15259
3149.34571	1.15142
3147.41715	1.14708
3145.48858	1.14301
3143.56002	1.14164
3141.63146	1.14217
3139.70289	1.14332
3137.77433	1.14350
3135.84576	1.14147
3133.91720	1.13830
3131.98863	1.13673
3130.06007	1.13766
3128.13150	1.13887
3126.20294	1.13881
3124.27438	1.13813
3122.34581	1.13770
3120.41725	1.13766
3118.48868	1.13843
3116.56012	1.13991
3114.63155	1.13946
3112.70299	1.13646
3110.77442	1.13444
3108.84586	1.13516
3106.91730	1.13668
3104.98873	1.13659
3103.06017	1.13491
3101.13160	1.13375
3099.20304	1.13353
3097.27447	1.13226
3095.34591	1.12957
3093.41734	1.12730
3091.48878	1.12532
3089.56022	1.12270
3087.63165	1.12026
3085.70309	1.11827
3083.77452	1.11596
3081.84596	1.11336
3079.91739	1.11144
3077.98883	1.11067
3076.06026	1.10960
3074.13170	1.10687
3072.20314	1.10404
3070.27457	1.10261
3068.34601	1.10088
3066.41744	1.09722
3064.48888	1.09306
3062.56031	1.09038
3060.63175	1.08910
3058.70318	1.08830
3056.77462	1.08626
3054.84606	1.08191
3052.91749	1.07792
3050.98893	1.07619
3049.06036	1.07479
3047.13180	1.07303
3045.20323	1.07195
3043.27467	1.07111
3041.34610	1.06979
3039.41754	1.06792
3037.48898	1.06557
3035.56041	1.06393
3033.63185	1.06395
3031.70328	1.06369
3029.77472	1.06158
3027.84615	1.05946
3025.91759	1.05843
3023.98903	1.05706
3022.06046	1.05517
3020.13190	1.05406
3018.20333	1.05327
3016.27477	1.05164
3014.34620	1.05010
3012.41764	1.04928
3010.48907	1.04775
3008.56051	1.04560
3006.63195	1.04459
3004.70338	1.04434
3002.77482	1.04247
3000.84625	1.03916
2998.91769	1.03711
2996.98912	1.03679
2995.06056	1.03736
2993.13199	1.03882
2991.20343	1.04041
2989.27487	1.04185
2987.34630	1.04406
2985.41774	1.04697
2983.48917	1.04970
2981.56061	1.05263
2979.63204	1.05671
2977.70348	1.06044
2975.77491	1.06264
2973.84635	1.06520
2971.91779	1.06823
2969.98922	1.07004
2968.06066	1.07263
2966.13209	1.07861
2964.20353	1.08541
2962.27496	1.08902
2960.34640	1.08918
2958.41783	1.08745
2956.48927	1.08448
2954.56071	1.08061
2952.63214	1.07695
2950.70358	1.07454
2948.77501	1.07290
2946.84645	1.07175
2944.91788	1.07315
2942.98932	1.07844
2941.06075	1.08585
2939.13219	1.09333
2937.20363	1.10067
2935.27506	1.10761
2933.34650	1.11322
2931.41793	1.11797
2929.48937	1.12282
2927.56080	1.12788
2925.63224	1.13325
2923.70367	1.13834
2921.77511	1.14215
2919.84655	1.14464
2917.91798	1.14445
2915.98942	1.13794
2914.06085	1.12441
2912.13229	1.10827
2910.20372	1.09439
2908.27516	1.08473
2906.34659	1.07793
2904.41803	1.07247
2902.48947	1.06909
2900.56090	1.06722
2898.63234	1.06466
2896.70377	1.06152
2894.77521	1.05968
2892.84664	1.05892
2890.91808	1.05746
2888.98952	1.05505
2887.06095	1.05188
2885.13239	1.04828
2883.20382	1.04623
2881.27526	1.04658
2879.34669	1.04754
2877.41813	1.04790
2875.48956	1.04786
2873.56100	1.04724
2871.63244	1.04556
2869.70387	1.04253
2867.77531	1.03853
2865.84674	1.03520
2863.91818	1.03417
2861.98961	1.03531
2860.06105	1.03759
2858.13248	1.04131
2856.20392	1.04672
2854.27536	1.05283
2852.34679	1.05936
2850.41823	1.06335
2848.48966	1.05765
2846.56110	1.04088
2844.63253	1.02112
2842.70397	1.00534
2840.77540	0.99367
2838.84684	0.98413
2836.91828	0.97652
2834.98971	0.97096
2833.06115	0.96652
2831.13258	0.96234
2829.20402	0.95817
2827.27545	0.95438
2825.34689	0.95163
2823.41832	0.94973
2821.48976	0.94789
2819.56120	0.94530
2817.63263	0.94145
2815.70407	0.93770
2813.77550	0.93571
2811.84694	0.93471
2809.91837	0.93318
2807.98981	0.93089
2806.06124	0.92809
2804.13268	0.92520
2802.20412	0.92288
2800.27555	0.92085
2798.34699	0.91861
2796.41842	0.91622
2794.48986	0.91398
2792.56129	0.91229
2790.63273	0.91148
2788.70416	0.91116
2786.77560	0.91007
2784.84704	0.90799
2782.91847	0.90591
2780.98991	0.90399
2779.06134	0.90192
2777.13278	0.89968
2775.20421	0.89751
2773.27565	0.89546
2771.34708	0.89383
2769.41852	0.89277
2767.48996	0.89148
2765.56139	0.88979
2763.63283	0.88854
2761.70426	0.88805
2759.77570	0.88758
2757.84713	0.88633
2755.91857	0.88451
2753.99001	0.88274
2752.06144	0.88151
2750.13288	0.88070
2748.20431	0.87991
2746.27575	0.87911
2744.34718	0.87797
2742.41862	0.87621
2740.49005	0.87453
2738.56149	0.87320
2736.63293	0.87152
2734.70436	0.86972
2732.77580	0.86905
2730.84723	0.86932
2728.91867	0.86892
2726.99010	0.86768
2725.06154	0.86651
2723.13297	0.86531
2721.20441	0.86421
2719.27585	0.86364
2717.34728	0.86307
2715.41872	0.86220
2713.49015	0.86145
2711.56159	0.86067
2709.63302	0.85960
2707.70446	0.85826
2705.77589	0.85630
2703.84733	0.85415
2701.91877	0.85278
2699.99020	0.85213
2698.06164	0.85188
2696.13307	0.85147
2694.20451	0.85052
2692.27594	0.84967
2690.34738	0.84924
2688.41881	0.84861
2686.49025	0.84713
2684.56169	0.84492
2682.63312	0.84272
2680.70456	0.84085
2678.77599	0.83901
2676.84743	0.83761
2674.91886	0.83720
2672.99030	0.83641
2671.06173	0.83423
2669.13317	0.83199
2667.20461	0.83061
2665.27604	0.82959
2663.34748	0.82838
2661.41891	0.82674
2659.49035	0.82467
2657.56178	0.82245
2655.63322	0.82065
2653.70465	0.81989
2651.77609	0.81983
2649.84753	0.81935
2647.91896	0.81825
2645.99040	0.81714
2644.06183	0.81601
2642.13327	0.81497
2640.20470	0.81455
2638.27614	0.81452
2636.34757	0.81414
2634.41901	0.81375
2632.49045	0.81374
2630.56188	0.81350
2628.63332	0.81310
2626.70475	0.81293
2624.77619	0.81286
2622.84762	0.81270
2620.91906	0.81223
2618.99049	0.81168
2617.06193	0.81141
2615.13337	0.81092
2613.20480	0.80988
2611.27624	0.80887
2609.34767	0.80837
2607.41911	0.80785
2605.49054	0.80672
2603.56198	0.80517
2601.63342	0.80372
2599.70485	0.80270
2597.77629	0.80188
2595.84772	0.80078
2593.91916	0.79939
2591.99059	0.79788
2590.06203	0.79624
2588.13346	0.79451
2586.20490	0.79292
2584.27634	0.79177
2582.34777	0.79087
2580.41921	0.78986
2578.49064	0.78877
2576.56208	0.78786
2574.63351	0.78717
2572.70495	0.78662
2570.77638	0.78620
2568.84782	0.78570
2566.91926	0.78498
2564.99069	0.78405
2563.06213	0.78291
2561.13356	0.78196
2559.20500	0.78150
2557.27643	0.78118
2555.34787	0.78060
2553.41930	0.77964
2551.49074	0.77861
2549.56218	0.77806
2547.63361	0.77773
2545.70505	0.77717
2543.77648	0.77652
2541.84792	0.77536
2539.91935	0.77358
2537.99079	0.77246
2536.06222	0.77219
2534.13366	0.77154
2532.20510	0.77018
2530.27653	0.76874
2528.34797	0.76745
2526.41940	0.76627
2524.49084	0.76500
2522.56227	0.76352
2520.63371	0.76209
2518.70514	0.76079
2516.77658	0.75952
2514.84802	0.75837
2512.91945	0.75754
2510.99089	0.75695
2509.06232	0.75634
2507.13376	0.75558
2505.20519	0.75474
2503.27663	0.75405
2501.34806	0.75360
2499.41950	0.75318
2497.49094	0.75281
2495.56237	0.75290
2493.63381	0.75340
2491.70524	0.75359
2489.77668	0.75347
2487.84811	0.75375
2485.91955	0.75418
2483.99098	0.75390
2482.06242	0.75338
2480.13386	0.75338
2478.20529	0.75319
2476.27673	0.75211
2474.34816	0.75087
2472.41960	0.75020
2470.49103	0.74992
2468.56247	0.74946
2466.63391	0.74852
2464.70534	0.74733
2462.77678	0.74627
2460.84821	0.74525
2458.91965	0.74428
2456.99108	0.74356
2455.06252	0.74273
2453.13395	0.74152
2451.20539	0.74039
2449.27683	0.73952
2447.34826	0.73873
2445.41970	0.73790
2443.49113	0.73686
2441.56257	0.73579
2439.63400	0.73516
2437.70544	0.73468
2435.77687	0.73381
2433.84831	0.73286
2431.91975	0.73212
2429.99118	0.73152
2428.06262	0.73112
2426.13405	0.73105
2424.20549	0.73119
2422.27692	0.73114
2420.34836	0.73077
2418.41979	0.73048
2416.49123	0.73038
2414.56267	0.73019
2412.63410	0.72989
2410.70554	0.72957
2408.77697	0.72912
2406.84841	0.72857
2404.91984	0.72819
2402.99128	0.72796
2401.06271	0.72750
2399.13415	0.72678
2397.20559	0.72592
2395.27702	0.72481
2393.34846	0.72373
2391.41989	0.72298
2389.49133	0.72225
2387.56276	0.72144
2385.63420	0.72097
2383.70563	0.72070
2381.77707	0.72022
2379.84851	0.72000
2377.91994	0.72046
2375.99138	0.72117
2374.06281	0.72202
2372.13425	0.72244
2370.20568	0.72181
2368.27712	0.72177
2366.34855	0.72376
2364.41999	0.72590
2362.49143	0.72676
2360.56286	0.72750
2358.63430	0.72809
2356.70573	0.72857
2354.77717	0.72842
2352.84860	0.72623
2350.92004	0.72337
2348.99147	0.72130
2347.06291	0.72047
2345.13435	0.72103
2343.20578	0.72113
2341.27722	0.72039
2339.34865	0.72123
2337.42009	0.72216
2335.49152	0.72104
2333.56296	0.71946
2331.63440	0.71875
2329.70583	0.71808
2327.77727	0.71674
2325.84870	0.71472
2323.92014	0.71251
2321.99157	0.71080
2320.06301	0.70946
2318.13444	0.70852
2316.20588	0.70804
2314.27732	0.70733
2312.34875	0.70580
2310.42019	0.70372
2308.49162	0.70193
2306.56306	0.70079
2304.63449	0.70005
2302.70593	0.69938
2300.77736	0.69865
2298.84880	0.69811
2296.92024	0.69798
2294.99167	0.69807
2293.06311	0.69798
2291.13454	0.69757
2289.20598	0.69709
2287.27741	0.69689
2285.34885	0.69709
2283.42028	0.69729
2281.49172	0.69727
2279.56316	0.69737
2277.63459	0.69765
2275.70603	0.69780
2273.77746	0.69801
2271.84890	0.69841
2269.92033	0.69885
2267.99177	0.69930
2266.06320	0.69954
2264.13464	0.69942
2262.20608	0.69923
2260.27751	0.69914
2258.34895	0.69918
2256.42038	0.69941
2254.49182	0.69988
2252.56325	0.70038
2250.63469	0.70070
2248.70612	0.70082
2246.77756	0.70080
2244.84900	0.70071
2242.92043	0.70058
2240.99187	0.70056
2239.06330	0.70036
2237.13474	0.69952
2235.20617	0.69859
2233.27761	0.69829
2231.34904	0.69846
2229.42048	0.69853
2227.49192	0.69822
2225.56335	0.69776
2223.63479	0.69750
2221.70622	0.69734
2219.77766	0.69699
2217.84909	0.69648
2215.92053	0.69600
2213.99196	0.69569
2212.06340	0.69540
2210.13484	0.69470
2208.20627	0.69368
2206.27771	0.69295
2204.34914	0.69271
2202.42058	0.69255
2200.49201	0.69202
2198.56345	0.69123
2196.63488	0.69071
2194.70632	0.69037
2192.77776	0.68970
2190.84919	0.68880
2188.92063	0.68806
2186.99206	0.68758
2185.06350	0.68704
2183.13493	0.68616
2181.20637	0.68528
2179.27781	0.68465
2177.34924	0.68388
2175.42068	0.68268
2173.49211	0.68137
2171.56355	0.68041
2169.63498	0.67979
2167.70642	0.67897
2165.77785	0.67781
2163.84929	0.67689
2161.92073	0.67643
2159.99216	0.67598
2158.06360	0.67540
2156.13503	0.67506
2154.20647	0.67496
2152.27790	0.67467
2150.34934	0.67420
2148.42077	0.67371
2146.49221	0.67310
2144.56365	0.67252
2142.63508	0.67226
2140.70652	0.67214
2138.77795	0.67197
2136.84939	0.67182
2134.92082	0.67198
2132.99226	0.67240
2131.06369	0.67270
2129.13513	0.67276
2127.20657	0.67271
2125.27800	0.67267
2123.34944	0.67277
2121.42087	0.67306
2119.49231	0.67346
2117.56374	0.67386
2115.63518	0.67416
2113.70661	0.67438
2111.77805	0.67437
2109.84949	0.67403
2107.92092	0.67356
2105.99236	0.67315
2104.06379	0.67282
2102.13523	0.67255
2100.20666	0.67227
2098.27810	0.67193
2096.34953	0.67149
2094.42097	0.67089
2092.49241	0.67027
2090.56384	0.66970
2088.63528	0.66921
2086.70671	0.66888
2084.77815	0.66859
2082.84958	0.66831
2080.92102	0.66824
2078.99245	0.66824
2077.06389	0.66807
2075.13533	0.66785
2073.20676	0.66766
2071.27820	0.66745
2069.34963	0.66724
2067.42107	0.66712
2065.49250	0.66712
2063.56394	0.66728
2061.63537	0.66752
2059.70681	0.66767
2057.77825	0.66768
2055.84968	0.66766
2053.92112	0.66756
2051.99255	0.66731
2050.06399	0.66715
2048.13542	0.66714
2046.20686	0.66705
2044.27830	0.66679
2042.34973	0.66651
2040.42117	0.66602
2038.49260	0.66531
2036.56404	0.66481
2034.63547	0.66438
2032.70691	0.66351
2030.77834	0.66233
2028.84978	0.66128
2026.92122	0.66039
2024.99265	0.65939
2023.06409	0.65818
2021.13552	0.65691
2019.20696	0.65567
2017.27839	0.65432
2015.34983	0.65291
2013.42126	0.65167
2011.49270	0.65043
2009.56414	0.64903
2007.63557	0.64781
2005.70701	0.64677
2003.77844	0.64563
2001.84988	0.64442
1999.92131	0.64332
1997.99275	0.64237
1996.06418	0.64154
1994.13562	0.64095
1992.20706	0.64075
1990.27849	0.64051
1988.34993	0.64013
1986.42136	0.63972
1984.49280	0.63911
1982.56423	0.63844
1980.63567	0.63802
1978.70710	0.63779
1976.77854	0.63744
1974.84998	0.63692
1972.92141	0.63644
1970.99285	0.63602
1969.06428	0.63570
1967.13572	0.63529
1965.20715	0.63440
1963.27859	0.63308
1961.35002	0.63164
1959.42146	0.63017
1957.49290	0.62885
1955.56433	0.62770
1953.63577	0.62657
1951.70720	0.62542
1949.77864	0.62425
1947.85007	0.62304
1945.92151	0.62184
1943.99294	0.62090
1942.06438	0.62022
1940.13582	0.61935
1938.20725	0.61828
1936.27869	0.61725
1934.35012	0.61617
1932.42156	0.61506
1930.49299	0.61414
1928.56443	0.61337
1926.63586	0.61271
1924.70730	0.61248
1922.77874	0.61250
1920.85017	0.61193
1918.92161	0.61094
1916.99304	0.61004
1915.06448	0.60899
1913.13591	0.60801
1911.20735	0.60757
1909.27878	0.60747
1907.35022	0.60713
1905.42166	0.60643
1903.49309	0.60576
1901.56453	0.60524
1899.63596	0.60480
1897.70740	0.60455
1895.77883	0.60438
1893.85027	0.60388
1891.92171	0.60319
1889.99314	0.60292
1888.06458	0.60257
1886.13601	0.60166
1884.20745	0.60062
1882.27888	0.59973
1880.35032	0.59898
1878.42175	0.59821
1876.49319	0.59732
1874.56463	0.59619
1872.63606	0.59493
1870.70750	0.59416
1868.77893	0.59395
1866.85037	0.59309
1864.92180	0.59141
1862.99324	0.58977
1861.06467	0.58825
1859.13611	0.58666
1857.20755	0.58496
1855.27898	0.58335
1853.35042	0.58202
1851.42185	0.58079
1849.49329	0.57952
1847.56472	0.57827
1845.63616	0.57736
1843.70759	0.57666
1841.77903	0.57532
1839.85047	0.57377
1837.92190	0.57258
1835.99334	0.57148
1834.06477	0.57012
1832.13621	0.56896
1830.20764	0.56866
1828.27908	0.56842
1826.35051	0.56754
1824.42195	0.56646
1822.49339	0.56511
1820.56482	0.56362
1818.63626	0.56239
1816.70769	0.56127
1814.77913	0.56017
1812.85056	0.55937
1810.92200	0.55869
1808.99343	0.55766
1807.06487	0.55623
1805.13631	0.55473
1803.20774	0.55330
1801.27918	0.55205
1799.35061	0.55091
1797.42205	0.54963
1795.49348	0.54818
1793.56492	0.54697
1791.63635	0.54597
1789.70779	0.54401
1787.77923	0.54165
1785.85066	0.53975
1783.92210	0.53812
1781.99353	0.53650
1780.06497	0.53485
1778.13640	0.53294
1776.20784	0.53083
1774.27927	0.52923
1772.35071	0.52842
1770.42215	0.52720
1768.49358	0.52548
1766.56502	0.52382
1764.63645	0.52253
1762.70789	0.52217
1760.77932	0.52250
1758.85076	0.52256
1756.92220	0.52279
1754.99363	0.52319
1753.06507	0.52381
1751.13650	0.52612
1749.20794	0.52996
1747.27937	0.53306
1745.35081	0.53538
1743.42224	0.53774
1741.49368	0.54037
1739.56512	0.54304
1737.63655	0.54458
1735.70799	0.54581
1733.77942	0.54963
1731.85086	0.55310
1729.92229	0.55438
1727.99373	0.55548
1726.06516	0.55718
1724.13660	0.56034
1722.20804	0.56391
1720.27947	0.56743
1718.35091	0.57445
1716.42234	0.58619
1714.49378	0.59442
1712.56521	0.59979
1710.63665	0.60593
1708.70808	0.61384
1706.77952	0.62611
1704.85096	0.64191
1702.92239	0.65601
1700.99383	0.67736
1699.06526	0.71056
1697.13670	0.73978
1695.20813	0.76726
1693.27957	0.78745
1691.35100	0.80367
1689.42244	0.82313
1687.49388	0.84036
1685.56531	0.85894
1683.63675	0.89038
1681.70818	0.91280
1679.77962	0.92504
1677.85105	0.93653
1675.92249	0.95102
1673.99392	0.96697
1672.06536	0.97886
1670.13680	0.99247
1668.20823	1.00775
1666.27967	1.01613
1664.35110	1.02389
1662.42254	1.03617
1660.49397	1.04719
1658.56541	1.05391
1656.63684	1.05836
1654.70828	1.06392
1652.77972	1.07323
1650.85115	1.07470
1648.92259	1.07258
1646.99402	1.07379
1645.06546	1.07633
1643.13689	1.07604
1641.20833	1.07531
1639.27976	1.07487
1637.35120	1.07535
1635.42264	1.07846
1633.49407	1.08106
1631.56551	1.08196
1629.63694	1.08222
1627.70838	1.08158
1625.77981	1.07948
1623.85125	1.07664
1621.92269	1.07251
1619.99412	1.06650
1618.06556	1.05812
1616.13699	1.04582
1614.20843	1.03322
1612.27986	1.02109
1610.35130	1.00747
1608.42273	0.99211
1606.49417	0.97704
1604.56561	0.96405
1602.63704	0.95250
1600.70848	0.94218
1598.77991	0.93386
1596.85135	0.92753
1594.92278	0.92264
1592.99422	0.91905
1591.06565	0.91686
1589.13709	0.91660
1587.20853	0.91888
1585.27996	0.92334
1583.35140	0.92935
1581.42283	0.93596
1579.49427	0.94217
1577.56570	0.95047
1575.63714	0.96294
1573.70857	0.97087
1571.78001	0.97589
1569.85145	0.98534
1567.92288	0.99598
1565.99432	1.00283
1564.06575	1.00830
1562.13719	1.01212
1560.20862	1.01886
1558.28006	1.03602
1556.35149	1.04225
1554.42293	1.04281
1552.49437	1.04464
1550.56580	1.04704
1548.63724	1.04834
1546.70867	1.04857
1544.78011	1.04918
1542.85154	1.05047
1540.92298	1.05210
1538.99441	1.04955
1537.06585	1.04447
1535.13729	1.04029
1533.20872	1.03750
1531.28016	1.03491
1529.35159	1.03194
1527.42303	1.02970
1525.49446	1.02854
1523.56590	1.02780
1521.63733	1.02663
1519.70877	1.02500
1517.78021	1.02342
1515.85164	1.02056
1513.92308	1.01521
1511.99451	1.00835
1510.06595	1.00173
1508.13738	0.99335
1506.20882	0.97700
1504.28025	0.96297
1502.35169	0.95202
1500.42313	0.94029
1498.49456	0.92605
1496.56600	0.90934
1494.63743	0.89546
1492.70887	0.88528
1490.78030	0.87440
1488.85174	0.86101
1486.92317	0.84950
1484.99461	0.84100
1483.06605	0.83463
1481.13748	0.82995
1479.20892	0.82711
1477.28035	0.82710
1475.35179	0.83100
1473.42322	0.83961
1471.49466	0.84844
1469.56610	0.85238
1467.63753	0.85484
1465.70897	0.85934
1463.78040	0.86462
1461.85184	0.86672
1459.92327	0.86761
1457.99471	0.87244
1456.06614	0.87871
1454.13758	0.87856
1452.20902	0.87680
1450.28045	0.87586
1448.35189	0.87524
1446.42332	0.87381
1444.49476	0.87154
1442.56619	0.86866
1440.63763	0.86512
1438.70906	0.86105
1436.78050	0.85601
1434.85194	0.85010
1432.92337	0.84411
1430.99481	0.83768
1429.06624	0.83083
1427.13768	0.82487
1425.20911	0.82067
1423.28055	0.81820
1421.35198	0.81708
1419.42342	0.81780
1417.49486	0.81925
1415.56629	0.81888
1413.63773	0.81749
1411.70916	0.81584
1409.78060	0.81413
1407.85203	0.81283
1405.92347	0.81251
1403.99490	0.81270
1402.06634	0.81254
1400.13778	0.81260
1398.20921	0.81313
1396.28065	0.81384
1394.35208	0.81507
1392.42352	0.81674
1390.49495	0.81947
1388.56639	0.82573
1386.63782	0.83627
1384.70926	0.84697
1382.78070	0.85593
1380.85213	0.86308
1378.92357	0.86719
1376.99500	0.86746
1375.06644	0.86339
1373.13787	0.85577
1371.20931	0.84692
1369.28074	0.83650
1367.35218	0.82420
1365.42362	0.81199
1363.49505	0.80013
1361.56649	0.78883
1359.63792	0.77983
1357.70936	0.77308
1355.78079	0.76787
1353.85223	0.76379
1351.92366	0.76053
1349.99510	0.75803
1348.06654	0.75630
1346.13797	0.75522
1344.20941	0.75486
1342.28084	0.75547
1340.35228	0.75758
1338.42371	0.76094
1336.49515	0.76449
1334.56659	0.76880
1332.63802	0.77462
1330.70946	0.78122
1328.78089	0.78701
1326.85233	0.79089
1324.92376	0.79297
1322.99520	0.79420
1321.06663	0.79545
1319.13807	0.79674
1317.20951	0.79739
1315.28094	0.79736
1313.35238	0.79721
1311.42381	0.79694
1309.49525	0.79604
1307.56668	0.79420
1305.63812	0.79166
1303.70955	0.78928
1301.78099	0.78748
1299.85243	0.78601
1297.92386	0.78423
1295.99530	0.78205
1294.06673	0.78040
1292.13817	0.78003
1290.20960	0.78087
1288.28104	0.78255
1286.35247	0.78451
1284.42391	0.78594
1282.49535	0.78646
1280.56678	0.78660
1278.63822	0.78732
1276.70965	0.78910
1274.78109	0.79179
1272.85252	0.79517
1270.92396	0.79917
1268.99539	0.80362
1267.06683	0.80819
1265.13827	0.81223
1263.20970	0.81451
1261.28114	0.81441
1259.35257	0.81275
1257.42401	0.81069
1255.49544	0.80887
1253.56688	0.80751
1251.63831	0.80638
1249.70975	0.80519
1247.78119	0.80411
1245.85262	0.80315
1243.92406	0.80192
1241.99549	0.80034
1240.06693	0.79868
1238.13836	0.79694
1236.20980	0.79477
1234.28123	0.79187
1232.35267	0.78799
1230.42411	0.78313
1228.49554	0.77782
1226.56698	0.77248
1224.63841	0.76721
1222.70985	0.76193
1220.78128	0.75672
1218.85272	0.75211
1216.92415	0.74876
1214.99559	0.74687
1213.06703	0.74677
1211.13846	0.74892
1209.20990	0.75228
1207.28133	0.75460
1205.35277	0.75454
1203.42420	0.75218
1201.49564	0.74811
1199.56708	0.74284
1197.63851	0.73681
1195.70995	0.73059
1193.78138	0.72507
1191.85282	0.72113
1189.92425	0.71894
1187.99569	0.71841
1186.06712	0.71938
1184.13856	0.72147
1182.21000	0.72469
1180.28143	0.72935
1178.35287	0.73508
1176.42430	0.74114
1174.49574	0.74735
1172.56717	0.75409
1170.63861	0.76186
1168.71004	0.77090
1166.78148	0.78120
1164.85292	0.79201
1162.92435	0.80185
1160.99579	0.80973
1159.06722	0.81533
1157.13866	0.81788
1155.21009	0.81682
1153.28153	0.81284
1151.35296	0.80678
1149.42440	0.79906
1147.49584	0.79054
1145.56727	0.78252
1143.63871	0.77649
1141.71014	0.77353
1139.78158	0.77353
1137.85301	0.77542
1135.92445	0.77872
1133.99588	0.78378
1132.06732	0.79055
1130.13876	0.79888
1128.21019	0.80832
1126.28163	0.81747
1124.35306	0.82515
1122.42450	0.83129
1120.49593	0.83590
1118.56737	0.83871
1116.63880	0.83983
1114.71024	0.83913
1112.78168	0.83627
1110.85311	0.83203
1108.92455	0.82775
1106.99598	0.82393
1105.06742	0.82054
1103.13885	0.81787
1101.21029	0.81676
1099.28172	0.81805
1097.35316	0.82157
1095.42460	0.82657
1093.49603	0.83305
1091.56747	0.84144
1089.63890	0.85110
1087.71034	0.86035
1085.78177	0.86849
1083.85321	0.87617
1081.92464	0.88330
1079.99608	0.88875
1078.06752	0.89192
1076.13895	0.89322
1074.21039	0.89317
1072.28182	0.89178
1070.35326	0.88913
1068.42469	0.88571
1066.49613	0.88177
1064.56756	0.87687
1062.63900	0.87075
1060.71044	0.86400
1058.78187	0.85731
1056.85331	0.85081
1054.92474	0.84498
1052.99618	0.84045
1051.06761	0.83689
1049.13905	0.83390
1047.21049	0.83167
1045.28192	0.83088
1043.35336	0.83234
1041.42479	0.83549
1039.49623	0.83802
1037.56766	0.83858
1035.63910	0.83733
1033.71053	0.83430
1031.78197	0.82971
1029.85341	0.82411
1027.92484	0.81789
1025.99628	0.81150
1024.06771	0.80539
1022.13915	0.80012
1020.21058	0.79617
1018.28202	0.79295
1016.35345	0.78937
1014.42489	0.78464
1012.49633	0.77779
1010.56776	0.76859
1008.63920	0.75825
1006.71063	0.74856
1004.78207	0.74075
1002.85350	0.73519
1000.92494	0.73146
998.99637	0.72911
997.06781	0.72789
995.13925	0.72690
993.21068	0.72512
991.28212	0.72218
989.35355	0.71802
987.42499	0.71292
985.49642	0.70759
983.56786	0.70269
981.63929	0.69890
979.71073	0.69650
977.78217	0.69484
975.85360	0.69284
973.92504	0.68956
971.99647	0.68456
970.06791	0.67824
968.13934	0.67161
966.21078	0.66583
964.28221	0.66211
962.35365	0.66166
960.42509	0.66530
958.49652	0.67199
956.56796	0.67773
954.63939	0.67823
952.71083	0.67286
950.78226	0.66433
948.85370	0.65602
946.92513	0.65009
944.99657	0.64693
943.06801	0.64571
941.13944	0.64566
939.21088	0.64681
937.28231	0.64928
935.35375	0.65290
933.42518	0.65761
931.49662	0.66324
929.56805	0.66948
927.63949	0.67641
925.71093	0.68419
923.78236	0.69242
921.85380	0.70033
919.92523	0.70750
917.99667	0.71385
916.06810	0.71964
914.13954	0.72544
912.21098	0.73144
910.28241	0.73763
908.35385	0.74410
906.42528	0.75040
904.49672	0.75581
902.56815	0.75997
900.63959	0.76276
898.71102	0.76433
896.78246	0.76470
894.85390	0.76364
892.92533	0.76115
890.99677	0.75753
889.06820	0.75331
887.13964	0.74929
885.21107	0.74605
883.28251	0.74334
881.35394	0.74064
879.42538	0.73783
877.49682	0.73519
875.56825	0.73315
873.63969	0.73170
871.71112	0.73059
869.78256	0.72968
867.85399	0.72867
865.92543	0.72733
863.99686	0.72626
862.06830	0.72612
860.13974	0.72664
858.21117	0.72719
856.28261	0.72784
854.35404	0.72904
852.42548	0.73070
850.49691	0.73230
848.56835	0.73355
846.63978	0.73486
844.71122	0.73681
842.78266	0.73958
840.85409	0.74319
838.92553	0.74720
836.99696	0.75073
835.06840	0.75364
833.13983	0.75665
831.21127	0.75997
829.28270	0.76303
827.35414	0.76593
825.42558	0.76885
823.49701	0.77083
821.56845	0.77135
819.63988	0.77098
817.71132	0.77018
815.78275	0.76918
813.85419	0.76837
811.92562	0.76751
809.99706	0.76541
808.06850	0.76219
806.13993	0.75891
804.21137	0.75541
802.28280	0.75143
800.35424	0.74744
798.42567	0.74399
796.49711	0.74116
794.56854	0.73865
792.63998	0.73659
790.71142	0.73492
788.78285	0.73317
786.85429	0.73183
784.92572	0.73166
782.99716	0.73224
781.06859	0.73300
779.14003	0.73417
777.21147	0.73626
775.28290	0.73932
773.35434	0.74334
771.42577	0.74832
769.49721	0.75377
767.56864	0.75942
765.64008	0.76572
763.71151	0.77251
761.78295	0.77930
759.85439	0.78667
757.92582	0.79460
755.99726	0.80185
754.06869	0.80871
752.14013	0.81630
750.21156	0.82425
748.28300	0.83171
746.35443	0.83845
744.42587	0.84480
742.49731	0.85036
740.56874	0.85404
738.64018	0.85574
736.71161	0.85628
734.78305	0.85650
732.85448	0.85627
730.92592	0.85471
728.99735	0.85175
727.06879	0.84785
725.14023	0.84320
723.21166	0.83786
721.28310	0.83198
719.35453	0.82560
717.42597	0.81859
715.49740	0.81134
713.56884	0.80479
711.64027	0.79928
709.71171	0.79413
707.78315	0.78925
705.85458	0.78501
703.92602	0.78130
701.99745	0.77836
700.06889	0.77679
698.14032	0.77617
696.21176	0.77545
694.28319	0.77494
692.35463	0.77623
690.42607	0.77922
688.49750	0.78222
686.56894	0.78507
684.64037	0.78840
682.71181	0.79166
680.78324	0.79442
678.85468	0.79794
676.92611	0.80312
674.99755	0.80827
673.06899	0.81181
671.14042	0.81465
669.21186	0.81804
667.28329	0.81983
665.35473	0.81920
663.42616	0.81848
661.49760	0.81765
659.56903	0.81662
657.64047	0.81554
655.71191	0.81327
653.78334	0.80887
651.85478	0.80289
649.92621	0.79563
647.99765	0.78754
646.06908	0.77946
644.14052	0.77191
642.21195	0.76603
640.28339	0.76238
638.35483	0.75998
636.42626	0.75718
634.49770	0.75318
632.56913	0.74902
630.64057	0.74575
628.71200	0.74293
626.78344	0.74055
624.85488	0.73961
622.92631	0.74004
620.99775	0.74100
619.06918	0.74267
617.14062	0.74509
615.21205	0.74727
613.28349	0.74896
611.35492	0.75073
609.42636	0.75288
607.49780	0.75595
605.56923	0.76067
603.64067	0.76632
601.71210	0.77123
599.78354	0.77529
