3997.91406	1.20266
3995.98550	1.20135
3994.05693	1.20257
3992.12837	1.20364
3990.19980	1.20292
3988.27124	1.20351
3986.34268	1.20668
3984.41411	1.21074
3982.48555	1.21125
3980.55698	1.20478
3978.62842	1.19669
3976.69985	1.19421
3974.77129	1.19609
3972.84272	1.19762
3970.91416	1.19671
3968.98560	1.19432
3967.05703	1.19468
3965.12847	1.19789
3963.19990	1.19902
3961.27134	1.19711
3959.34277	1.19504
3957.41421	1.19316
3955.48564	1.19089
3953.55708	1.18976
3951.62852	1.19027
3949.69995	1.19226
3947.77139	1.19509
3945.84282	1.19474
3943.91426	1.19118
3941.98569	1.18853
3940.05713	1.18779
3938.12856	1.18583
3936.20000	1.18012
3934.27144	1.17589
3932.34287	1.17915
3930.41431	1.18321
3928.48574	1.18192
3926.55718	1.17966
3924.62861	1.17897
3922.70005	1.17789
3920.77148	1.17691
3918.84292	1.17915
3916.91436	1.18435
3914.98579	1.18669
3913.05723	1.18406
3911.12866	1.17920
3909.20010	1.17347
3907.27153	1.16999
3905.34297	1.17513
3903.41440	1.18580
3901.48584	1.18857
3899.55728	1.18542
3897.62871	1.18250
3895.70015	1.17793
3893.77158	1.17155
3891.84302	1.16804
3889.91445	1.16678
3887.98589	1.16375
3886.05733	1.16259
3884.12876	1.16340
3882.20020	1.16485
3880.27163	1.16905
3878.34307	1.16530
3876.41450	1.15508
3874.48594	1.15093
3872.55737	1.15374
3870.62881	1.15916
3868.70025	1.16212
3866.77168	1.15834
3864.84312	1.15634
3862.91455	1.15785
3860.98599	1.15571
3859.05742	1.15113
3857.12886	1.14557
3855.20029	1.14483
3853.27173	1.16279
3851.34317	1.17159
3849.41460	1.16348
3847.48604	1.15524
3845.55747	1.15207
3843.62891	1.15202
3841.70034	1.14900
3839.77178	1.14699
3837.84321	1.15569
3835.91465	1.16258
3833.98609	1.16088
3832.05752	1.15874
3830.12896	1.15562
3828.20039	1.15067
3826.27183	1.14703
3824.34326	1.14301
3822.41470	1.14492
3820.48613	1.15720
3818.55757	1.15940
3816.62901	1.15701
3814.70044	1.15580
3812.77188	1.14973
3810.84331	1.14308
3808.91475	1.14202
3806.98618	1.14725
3805.05762	1.14580
3803.12905	1.13918
3801.20049	1.14172
3799.27193	1.14549
3797.34336	1.14739
3795.41480	1.15018
3793.48623	1.14766
3791.55767	1.14348
3789.62910	1.14159
3787.70054	1.13985
3785.77197	1.13887
3783.84341	1.13794
3781.91485	1.13575
3779.98628	1.13549
3778.05772	1.13505
3776.12915	1.13184
3774.20059	1.12793
3772.27202	1.12382
3770.34346	1.12273
3768.41489	1.12458
3766.48633	1.12475
3764.55777	1.12346
3762.62920	1.12048
3760.70064	1.11907
3758.77207	1.12148
3756.84351	1.11881
3754.91494	1.10920
3752.98638	1.10185
3751.05781	1.10949
3749.12925	1.11878
3747.20069	1.11476
3745.27212	1.11331
3743.34356	1.11900
3741.41499	1.11717
3739.48643	1.10966
3737.55786	1.10432
3735.62930	1.10763
3733.70074	1.11894
3731.77217	1.12381
3729.84361	1.11762
3727.91504	1.11046
3725.98648	1.11161
3724.05791	1.11841
3722.12935	1.12270
3720.20078	1.12133
3718.27222	1.11437
3716.34366	1.10534
3714.41509	1.09908
3712.48653	1.10176
3710.55796	1.11132
3708.62940	1.11311
3706.70083	1.10930
3704.77227	1.10576
3702.84370	1.10599
3700.91514	1.10887
3698.98658	1.10864
3697.05801	1.10618
3695.12945	1.10300
3693.20088	1.09810
3691.27232	1.09567
3689.34375	1.10527
3687.41519	1.11566
3685.48662	1.11563
3683.55806	1.11184
3681.62950	1.10864
3679.70093	1.10563
3677.77237	1.10287
3675.84380	1.10974
3673.91524	1.12070
3671.98667	1.12584
3670.05811	1.13862
3668.12954	1.14845
3666.20098	1.14591
3664.27242	1.14354
3662.34385	1.14746
3660.41529	1.15479
3658.48672	1.16107
3656.55816	1.16592
3654.62959	1.16493
3652.70103	1.16052
3650.77246	1.16823
3648.84390	1.19318
3646.91534	1.20163
3644.98677	1.19669
3643.05821	1.19266
3641.12964	1.19359
3639.20108	1.19849
3637.27251	1.20477
3635.34395	1.21104
3633.41538	1.21469
3631.48682	1.21675
3629.55826	1.23095
3627.62969	1.25081
3625.70113	1.25108
3623.77256	1.24332
3621.84400	1.23909
3619.91543	1.24732
3617.98687	1.26090
3616.05830	1.26509
3614.12974	1.26961
3612.20118	1.27759
3610.27261	1.28248
3608.34405	1.29068
3606.41548	1.30083
3604.48692	1.30116
3602.55835	1.29559
3600.62979	1.29557
3598.70123	1.30534
3596.77266	1.31927
3594.84410	1.33031
3592.91553	1.33439
3590.98697	1.33350
3589.05840	1.33586
3587.12984	1.34712
3585.20127	1.35636
3583.27271	1.35980
3581.34415	1.36131
3579.41558	1.35960
3577.48702	1.35747
3575.55845	1.36242
3573.62989	1.37178
3571.70132	1.37745
3569.77276	1.38056
3567.84419	1.38483
3565.91563	1.38778
3563.98707	1.39073
3562.05850	1.39968
3560.12994	1.41241
3558.20137	1.42047
3556.27281	1.42298
3554.34424	1.42708
3552.41568	1.43527
3550.48711	1.43976
3548.55855	1.44015
3546.62999	1.44436
3544.70142	1.45015
3542.77286	1.45259
3540.84429	1.45592
3538.91573	1.46327
3536.98716	1.47193
3535.05860	1.47645
3533.13003	1.47685
3531.20147	1.47834
3529.27291	1.48345
3527.34434	1.48841
3525.41578	1.49216
3523.48721	1.49837
3521.55865	1.50299
3519.63008	1.50433
3517.70152	1.50960
3515.77295	1.51876
3513.84439	1.52574
3511.91583	1.53161
3509.98726	1.53821
3508.05870	1.53845
3506.13013	1.53209
3504.20157	1.53240
3502.27300	1.54459
3500.34444	1.55881
3498.41587	1.56959
3496.48731	1.57848
3494.55875	1.58481
3492.63018	1.58917
3490.70162	1.59570
3488.77305	1.60156
3486.84449	1.60269
3484.91592	1.60145
3482.98736	1.59898
3481.05879	1.59800
3479.13023	1.60143
3477.20167	1.60849
3475.27310	1.61458
3473.34454	1.61483
3471.41597	1.61277
3469.48741	1.61167
3467.55884	1.61087
3465.63028	1.61228
3463.70171	1.61596
3461.77315	1.61831
3459.84459	1.61954
3457.91602	1.62336
3455.98746	1.62694
3454.05889	1.62688
3452.13033	1.62886
3450.20176	1.63548
3448.27320	1.64242
3446.34464	1.64742
3444.41607	1.64850
3442.48751	1.64706
3440.55894	1.65043
3438.63038	1.65539
3436.70181	1.65345
3434.77325	1.64758
3432.84468	1.64066
3430.91612	1.63541
3428.98756	1.63819
3427.05899	1.64657
3425.13043	1.65364
3423.20186	1.65786
3421.27330	1.65939
3419.34473	1.65472
3417.41617	1.64263
3415.48760	1.63083
3413.55904	1.62729
3411.63048	1.63337
3409.70191	1.64521
3407.77335	1.65395
3405.84478	1.65319
3403.91622	1.64750
3401.98765	1.64233
3400.05909	1.64095
3398.13052	1.64663
3396.20196	1.64977
3394.27340	1.64469
3392.34483	1.64165
3390.41627	1.63905
3388.48770	1.63395
3386.55914	1.63605
3384.63057	1.64941
3382.70201	1.66572
3380.77344	1.67025
3378.84488	1.66191
3376.91632	1.65284
3374.98775	1.64694
3373.05919	1.64152
3371.13062	1.63478
3369.20206	1.63116
3367.27349	1.63756
3365.34493	1.64904
3363.41636	1.65511
3361.48780	1.65736
3359.55924	1.65849
3357.63067	1.65274
3355.70211	1.64441
3353.77354	1.64371
3351.84498	1.64923
3349.91641	1.65346
3347.98785	1.65327
3346.05928	1.65443
3344.13072	1.65933
3342.20216	1.66030
3340.27359	1.65660
3338.34503	1.65537
3336.41646	1.65933
3334.48790	1.66678
3332.55933	1.67164
3330.63077	1.67041
3328.70220	1.66757
3326.77364	1.66382
3324.84508	1.66103
3322.91651	1.66311
3320.98795	1.66512
3319.05938	1.66683
3317.13082	1.67196
3315.20225	1.67655
3313.27369	1.67664
3311.34513	1.67426
3309.41656	1.67447
3307.48800	1.67678
3305.55943	1.67673
3303.63087	1.67522
3301.70230	1.67763
3299.77374	1.68663
3297.84517	1.69712
3295.91661	1.70098
3293.98805	1.69747
3292.05948	1.69592
3290.13092	1.69893
3288.20235	1.69875
3286.27379	1.69652
3284.34522	1.69783
3282.41666	1.70093
3280.48809	1.70224
3278.55953	1.70116
3276.63097	1.70169
3274.70240	1.70532
3272.77384	1.70518
3270.84527	1.70016
3268.91671	1.69432
3266.98814	1.68513
3265.05958	1.67789
3263.13101	1.68111
3261.20245	1.68552
3259.27389	1.67968
3257.34532	1.66973
3255.41676	1.66494
3253.48819	1.66392
3251.55963	1.66416
3249.63106	1.66630
3247.70250	1.66495
3245.77393	1.65709
3243.84537	1.65011
3241.91681	1.64634
3239.98824	1.64123
3238.05968	1.63447
3236.13111	1.63001
3234.20255	1.63109
3232.27398	1.63313
3230.34542	1.62984
3228.41685	1.62473
3226.48829	1.62103
3224.55973	1.61686
3222.63116	1.61424
3220.70260	1.61530
3218.77403	1.61475
3216.84547	1.60897
3214.91690	1.60074
3212.98834	1.59329
3211.05977	1.58888
3209.13121	1.58457
3207.20265	1.57738
3205.27408	1.57046
3203.34552	1.56600
3201.41695	1.56352
3199.48839	1.56139
3197.55982	1.55966
3195.63126	1.55965
3193.70269	1.55856
3191.77413	1.55337
3189.84557	1.54537
3187.91700	1.53779
3185.98844	1.53368
3184.05987	1.53293
3182.13131	1.52993
3180.20274	1.52344
3178.27418	1.52039
3176.34562	1.51900
3174.41705	1.51199
3172.48849	1.50330
3170.55992	1.49926
3168.63136	1.49867
3166.70279	1.49726
3164.77423	1.49328
3162.84566	1.48825
3160.91710	1.48387
3158.98854	1.48086
3157.05997	1.47814
3155.13141	1.47404
3153.20284	1.47039
3151.27428	1.46776
3149.34571	1.46341
3147.41715	1.45803
3145.48858	1.45175
3143.56002	1.44380
3141.63146	1.43926
3139.70289	1.44240
3137.77433	1.44969
3135.84576	1.45324
3133.91720	1.44922
3131.98863	1.44270
3130.06007	1.43970
3128.13150	1.43982
3126.20294	1.44018
3124.27438	1.43918
3122.34581	1.43868
3120.41725	1.44150
3118.48868	1.44469
3116.56012	1.44507
3114.63155	1.44551
3112.70299	1.44639
3110.77442	1.44333
3108.84586	1.43718
3106.91730	1.43425
3104.98873	1.43560
3103.06017	1.43640
3101.13160	1.43430
3099.20304	1.43171
3097.27447	1.43049
3095.34591	1.42893
3093.41734	1.42646
3091.48878	1.42424
3089.56022	1.42206
3087.63165	1.41970
3085.70309	1.41709
3083.77452	1.41428
3081.84596	1.41137
3079.91739	1.40770
3077.98883	1.40346
3076.06026	1.40025
3074.13170	1.39845
3072.20314	1.39629
3070.27457	1.39382
3068.34601	1.39088
3066.41744	1.38536
3064.48888	1.37966
3062.56031	1.37727
3060.63175	1.37574
3058.70318	1.37142
3056.77462	1.36539
3054.84606	1.36111
3052.91749	1.35903
3050.98893	1.35658
3049.06036	1.35198
3047.13180	1.34632
3045.20323	1.34200
3043.27467	1.33976
3041.34610	1.33706
3039.41754	1.33115
3037.48898	1.32390
3035.56041	1.31866
3033.63185	1.31623
3031.70328	1.31528
3029.77472	1.31309
3027.84615	1.30950
3025.91759	1.30607
3023.98903	1.30230
3022.06046	1.29893
3020.13190	1.29745
3018.20333	1.29683
3016.27477	1.29538
3014.34620	1.29233
3012.41764	1.28865
3010.48907	1.28564
3008.56051	1.28279
3006.63195	1.27972
3004.70338	1.27773
3002.77482	1.27716
3000.84625	1.27631
2998.91769	1.27446
2996.98912	1.27236
2995.06056	1.27083
2993.13199	1.27109
2991.20343	1.27383
2989.27487	1.27804
2987.34630	1.28170
2985.41774	1.28404
2983.48917	1.28615
2981.56061	1.28939
2979.63204	1.29393
2977.70348	1.29869
2975.77491	1.30356
2973.84635	1.30929
2971.91779	1.31582
2969.98922	1.32214
2968.06066	1.32772
2966.13209	1.33395
2964.20353	1.34086
2962.27496	1.34484
2960.34640	1.34333
2958.41783	1.33824
2956.48927	1.33236
2954.56071	1.32654
2952.63214	1.32097
2950.70358	1.31629
2948.77501	1.31293
2946.84645	1.31061
2944.91788	1.31061
2942.98932	1.31375
2941.06075	1.31833
2939.13219	1.32466
2937.20363	1.33338
2935.27506	1.34185
2933.34650	1.34754
2931.41793	1.35192
2929.48937	1.35863
2927.56080	1.36634
2925.63224	1.37102
2923.70367	1.37460
2921.77511	1.37970
2919.84655	1.38323
2917.91798	1.38114
2915.98942	1.37147
2914.06085	1.35590
2912.13229	1.34004
2910.20372	1.32664
2908.27516	1.31458
2906.34659	1.30383
2904.41803	1.29506
2902.48947	1.28852
2900.56090	1.28465
2898.63234	1.28329
2896.70377	1.28225
2894.77521	1.27918
2892.84664	1.27521
2890.91808	1.27240
2888.98952	1.26957
2887.06095	1.26542
2885.13239	1.26171
2883.20382	1.26065
2881.27526	1.26122
2879.34669	1.26060
2877.41813	1.25874
2875.48956	1.25680
2873.56100	1.25397
2871.63244	1.24896
2869.70387	1.24220
2867.77531	1.23566
2865.84674	1.22988
2863.91818	1.22487
2861.98961	1.22297
2860.06105	1.22519
2858.13248	1.22947
2856.20392	1.23440
2854.27536	1.24101
2852.34679	1.25009
2850.41823	1.25743
2848.48966	1.25398
2846.56110	1.23623
2844.63253	1.21154
2842.70397	1.18973
2840.77540	1.17569
2838.84684	1.16749
2836.91828	1.16052
2834.98971	1.15381
2833.06115	1.14809
2831.13258	1.14284
2829.20402	1.13825
2827.27545	1.13486
2825.34689	1.13149
2823.41832	1.12679
2821.48976	1.12213
2819.56120	1.11937
2817.63263	1.11746
2815.70407	1.11480
2813.77550	1.11144
2811.84694	1.10775
2809.91837	1.10435
2807.98981	1.10181
2806.06124	1.09917
2804.13268	1.09555
2802.20412	1.09157
2800.27555	1.08784
2798.34699	1.08459
2796.41842	1.08221
2794.48986	1.08018
2792.56129	1.07777
2790.63273	1.07514
2788.70416	1.07234
2786.77560	1.07023
2784.84704	1.06955
2782.91847	1.06833
2780.98991	1.06513
2779.06134	1.06098
2777.13278	1.05715
2775.20421	1.05426
2773.27565	1.05224
2771.34708	1.05064
2769.41852	1.04926
2767.48996	1.04796
2765.56139	1.04617
2763.63283	1.04356
2761.70426	1.04093
2759.77570	1.03918
2757.84713	1.03743
2755.91857	1.03465
2753.99001	1.03185
2752.06144	1.03025
2750.13288	1.02963
2748.20431	1.02920
2746.27575	1.02798
2744.34718	1.02544
2742.41862	1.02210
2740.49005	1.01932
2738.56149	1.01763
2736.63293	1.01613
2734.70436	1.01451
2732.77580	1.01326
2730.84723	1.01169
2728.91867	1.00944
2726.99010	1.00788
2725.06154	1.00688
2723.13297	1.00485
2721.20441	1.00237
2719.27585	1.00100
2717.34728	1.00044
2715.41872	0.99950
2713.49015	0.99768
2711.56159	0.99570
2709.63302	0.99466
2707.70446	0.99424
2705.77589	0.99299
2703.84733	0.99093
2701.91877	0.98943
2699.99020	0.98854
2698.06164	0.98715
2696.13307	0.98495
2694.20451	0.98296
2692.27594	0.98208
2690.34738	0.98163
2688.41881	0.98018
2686.49025	0.97728
2684.56169	0.97412
2682.63312	0.97163
2680.70456	0.96937
2678.77599	0.96699
2676.84743	0.96497
2674.91886	0.96335
2672.99030	0.96114
2671.06173	0.95888
2669.13317	0.95798
2667.20461	0.95730
2665.27604	0.95509
2663.34748	0.95183
2661.41891	0.94879
2659.49035	0.94632
2657.56178	0.94476
2655.63322	0.94433
2653.70465	0.94397
2651.77609	0.94293
2649.84753	0.94148
2647.91896	0.93999
2645.99040	0.93872
2644.06183	0.93766
2642.13327	0.93649
2640.20470	0.93495
2638.27614	0.93300
2636.34757	0.93099
2634.41901	0.92927
2632.49045	0.92807
2630.56188	0.92748
2628.63332	0.92681
2626.70475	0.92553
2624.77619	0.92407
2622.84762	0.92246
2620.91906	0.92059
2618.99049	0.91884
2617.06193	0.91723
2615.13337	0.91559
2613.20480	0.91428
2611.27624	0.91366
2609.34767	0.91334
2607.41911	0.91265
2605.49054	0.91148
2603.56198	0.91024
2601.63342	0.90919
2599.70485	0.90834
2597.77629	0.90754
2595.84772	0.90672
2593.91916	0.90613
2591.99059	0.90555
2590.06203	0.90446
2588.13346	0.90297
2586.20490	0.90152
2584.27634	0.90026
2582.34777	0.89938
2580.41921	0.89855
2578.49064	0.89684
2576.56208	0.89450
2574.63351	0.89284
2572.70495	0.89168
2570.77638	0.88998
2568.84782	0.88806
2566.91926	0.88650
2564.99069	0.88511
2563.06213	0.88361
2561.13356	0.88187
2559.20500	0.88005
2557.27643	0.87872
2555.34787	0.87809
2553.41930	0.87737
2551.49074	0.87625
2549.56218	0.87514
2547.63361	0.87395
2545.70505	0.87282
2543.77648	0.87212
2541.84792	0.87170
2539.91935	0.87132
2537.99079	0.87101
2536.06222	0.87067
2534.13366	0.87003
2532.20510	0.86899
2530.27653	0.86777
2528.34797	0.86675
2526.41940	0.86591
2524.49084	0.86480
2522.56227	0.86359
2520.63371	0.86280
2518.70514	0.86216
2516.77658	0.86091
2514.84802	0.85903
2512.91945	0.85735
2510.99089	0.85623
2509.06232	0.85543
2507.13376	0.85471
2505.20519	0.85359
2503.27663	0.85208
2501.34806	0.85062
2499.41950	0.84938
2497.49094	0.84830
2495.56237	0.84732
2493.63381	0.84652
2491.70524	0.84579
2489.77668	0.84468
2487.84811	0.84317
2485.91955	0.84216
2483.99098	0.84206
2482.06242	0.84191
2480.13386	0.84120
2478.20529	0.84039
2476.27673	0.83939
2474.34816	0.83811
2472.41960	0.83686
2470.49103	0.83568
2468.56247	0.83469
2466.63391	0.83391
2464.70534	0.83294
2462.77678	0.83167
2460.84821	0.83034
2458.91965	0.82923
2456.99108	0.82824
2455.06252	0.82700
2453.13395	0.82541
2451.20539	0.82379
2449.27683	0.82256
2447.34826	0.82177
2445.41970	0.82115
2443.49113	0.82061
2441.56257	0.82003
2439.63400	0.81923
2437.70544	0.81824
2435.77687	0.81735
2433.84831	0.81675
2431.91975	0.81614
2429.99118	0.81529
2428.06262	0.81434
2426.13405	0.81348
2424.20549	0.81281
2422.27692	0.81219
2420.34836	0.81144
2418.41979	0.81050
2416.49123	0.80931
2414.56267	0.80830
2412.63410	0.80763
2410.70554	0.80679
2408.77697	0.80555
2406.84841	0.80416
2404.91984	0.80293
2402.99128	0.80165
2401.06271	0.79994
2399.13415	0.79806
2397.20559	0.79651
2395.27702	0.79540
2393.34846	0.79438
2391.41989	0.79325
2389.49133	0.79234
2387.56276	0.79178
2385.63420	0.79132
2383.70563	0.79114
2381.77707	0.79139
2379.84851	0.79151
2377.91994	0.79162
2375.99138	0.79241
2374.06281	0.79325
2372.13425	0.79356
2370.20568	0.79434
2368.27712	0.79614
2366.34855	0.79748
2364.41999	0.79630
2362.49143	0.79481
2360.56286	0.79595
2358.63430	0.79773
2356.70573	0.79981
2354.77717	0.80167
2352.84860	0.79962
2350.92004	0.79418
2348.99147	0.78926
2347.06291	0.78781
2345.13435	0.79068
2343.20578	0.79335
2341.27722	0.79231
2339.34865	0.79039
2337.42009	0.78952
2335.49152	0.78959
2333.56296	0.78963
2331.63440	0.78861
2329.70583	0.78582
2327.77727	0.78292
2325.84870	0.78179
2323.92014	0.78167
2321.99157	0.78174
2320.06301	0.78161
2318.13444	0.78028
2316.20588	0.77835
2314.27732	0.77750
2312.34875	0.77744
2310.42019	0.77666
2308.49162	0.77517
2306.56306	0.77363
2304.63449	0.77208
2302.70593	0.77072
2300.77736	0.76980
2298.84880	0.76911
2296.92024	0.76819
2294.99167	0.76687
2293.06311	0.76547
2291.13454	0.76423
2289.20598	0.76301
2287.27741	0.76183
2285.34885	0.76084
2283.42028	0.75994
2281.49172	0.75916
2279.56316	0.75863
2277.63459	0.75809
2275.70603	0.75743
2273.77746	0.75704
2271.84890	0.75699
2269.92033	0.75701
2267.99177	0.75728
2266.06320	0.75748
2264.13464	0.75701
2262.20608	0.75654
2260.27751	0.75682
2258.34895	0.75729
2256.42038	0.75735
2254.49182	0.75715
2252.56325	0.75689
2250.63469	0.75643
2248.70612	0.75588
2246.77756	0.75542
2244.84900	0.75503
2242.92043	0.75454
2240.99187	0.75384
2239.06330	0.75312
2237.13474	0.75264
2235.20617	0.75232
2233.27761	0.75204
2231.34904	0.75159
2229.42048	0.75103
2227.49192	0.75066
2225.56335	0.75043
2223.63479	0.74996
2221.70622	0.74926
2219.77766	0.74878
2217.84909	0.74877
2215.92053	0.74902
2213.99196	0.74928
2212.06340	0.74947
2210.13484	0.74935
2208.20627	0.74889
2206.27771	0.74823
2204.34914	0.74769
2202.42058	0.74768
2200.49201	0.74800
2198.56345	0.74803
2196.63488	0.74772
2194.70632	0.74748
2192.77776	0.74743
2190.84919	0.74737
2188.92063	0.74729
2186.99206	0.74715
2185.06350	0.74675
2183.13493	0.74651
2181.20637	0.74677
2179.27781	0.74692
2177.34924	0.74655
2175.42068	0.74608
2173.49211	0.74601
2171.56355	0.74624
2169.63498	0.74627
2167.70642	0.74587
2165.77785	0.74515
2163.84929	0.74440
2161.92073	0.74395
2159.99216	0.74388
2158.06360	0.74384
2156.13503	0.74355
2154.20647	0.74311
2152.27790	0.74280
2150.34934	0.74261
2148.42077	0.74222
2146.49221	0.74157
2144.56365	0.74101
2142.63508	0.74066
2140.70652	0.74029
2138.77795	0.73983
2136.84939	0.73928
2134.92082	0.73863
2132.99226	0.73788
2131.06369	0.73708
2129.13513	0.73629
2127.20657	0.73560
2125.27800	0.73521
2123.34944	0.73498
2121.42087	0.73458
2119.49231	0.73413
2117.56374	0.73387
2115.63518	0.73372
2113.70661	0.73360
2111.77805	0.73353
2109.84949	0.73336
2107.92092	0.73321
2105.99236	0.73350
2104.06379	0.73408
2102.13523	0.73464
2100.20666	0.73523
2098.27810	0.73563
2096.34953	0.73566
2094.42097	0.73561
2092.49241	0.73586
2090.56384	0.73631
2088.63528	0.73638
2086.70671	0.73598
2084.77815	0.73548
2082.84958	0.73501
2080.92102	0.73447
2078.99245	0.73392
2077.06389	0.73368
2075.13533	0.73354
2073.20676	0.73304
2071.27820	0.73219
2069.34963	0.73131
2067.42107	0.73056
2065.49250	0.72996
2063.56394	0.72946
2061.63537	0.72901
2059.70681	0.72878
2057.77825	0.72875
2055.84968	0.72855
2053.92112	0.72821
2051.99255	0.72791
2050.06399	0.72764
2048.13542	0.72729
2046.20686	0.72691
2044.27830	0.72659
2042.34973	0.72642
2040.42117	0.72631
2038.49260	0.72592
2036.56404	0.72525
2034.63547	0.72468
2032.70691	0.72431
2030.77834	0.72394
2028.84978	0.72350
2026.92122	0.72310
2024.99265	0.72272
2023.06409	0.72217
2021.13552	0.72149
2019.20696	0.72108
2017.27839	0.72099
2015.34983	0.72075
2013.42126	0.72021
2011.49270	0.71962
2009.56414	0.71907
2007.63557	0.71859
2005.70701	0.71816
2003.77844	0.71782
2001.84988	0.71757
1999.92131	0.71723
1997.99275	0.71682
1996.06418	0.71644
1994.13562	0.71616
1992.20706	0.71596
1990.27849	0.71540
1988.34993	0.71452
1986.42136	0.71367
1984.49280	0.71283
1982.56423	0.71208
1980.63567	0.71130
1978.70710	0.71026
1976.77854	0.70923
1974.84998	0.70843
1972.92141	0.70768
1970.99285	0.70677
1969.06428	0.70586
1967.13572	0.70510
1965.20715	0.70423
1963.27859	0.70323
1961.35002	0.70239
1959.42146	0.70159
1957.49290	0.70076
1955.56433	0.70018
1953.63577	0.69971
1951.70720	0.69917
1949.77864	0.69861
1947.85007	0.69788
1945.92151	0.69706
1943.99294	0.69687
1942.06438	0.69736
1940.13582	0.69726
1938.20725	0.69635
1936.27869	0.69546
1934.35012	0.69495
1932.42156	0.69459
1930.49299	0.69408
1928.56443	0.69352
1926.63586	0.69307
1924.70730	0.69295
1922.77874	0.69312
1920.85017	0.69268
1918.92161	0.69190
1916.99304	0.69149
1915.06448	0.69089
1913.13591	0.69004
1911.20735	0.68949
1909.27878	0.68926
1907.35022	0.68900
1905.42166	0.68854
1903.49309	0.68795
1901.56453	0.68729
1899.63596	0.68665
1897.70740	0.68605
1895.77883	0.68562
1893.85027	0.68515
1891.92171	0.68463
1889.99314	0.68469
1888.06458	0.68454
1886.13601	0.68340
1884.20745	0.68214
1882.27888	0.68094
1880.35032	0.67953
1878.42175	0.67824
1876.49319	0.67715
1874.56463	0.67586
1872.63606	0.67427
1870.70750	0.67296
1868.77893	0.67270
1866.85037	0.67224
1864.92180	0.67059
1862.99324	0.66896
1861.06467	0.66794
1859.13611	0.66697
1857.20755	0.66569
1855.27898	0.66454
1853.35042	0.66381
1851.42185	0.66312
1849.49329	0.66223
1847.56472	0.66122
1845.63616	0.66108
1843.70759	0.66231
1841.77903	0.66233
1839.85047	0.66080
1837.92190	0.65962
1835.99334	0.65915
1834.06477	0.65822
1832.13621	0.65703
1830.20764	0.65707
1828.27908	0.65753
1826.35051	0.65705
1824.42195	0.65642
1822.49339	0.65552
1820.56482	0.65432
1818.63626	0.65366
1816.70769	0.65337
1814.77913	0.65281
1812.85056	0.65227
1810.92200	0.65241
1808.99343	0.65260
1807.06487	0.65209
1805.13631	0.65134
1803.20774	0.65092
1801.27918	0.65133
1799.35061	0.65219
1797.42205	0.65222
1795.49348	0.65140
1793.56492	0.65135
1791.63635	0.65281
1789.70779	0.65279
1787.77923	0.65132
1785.85066	0.65056
1783.92210	0.65043
1781.99353	0.64999
1780.06497	0.64926
1778.13640	0.64815
1776.20784	0.64668
1774.27927	0.64585
1772.35071	0.64667
1770.42215	0.64721
1768.49358	0.64613
1766.56502	0.64450
1764.63645	0.64321
1762.70789	0.64340
1760.77932	0.64433
1758.85076	0.64414
1756.92220	0.64413
1754.99363	0.64429
1753.06507	0.64403
1751.13650	0.64532
1749.20794	0.64865
1747.27937	0.65134
1745.35081	0.65280
1743.42224	0.65395
1741.49368	0.65556
1739.56512	0.65735
1737.63655	0.65757
1735.70799	0.65737
1733.77942	0.65998
1731.85086	0.66168
1729.92229	0.66083
1727.99373	0.66016
1726.06516	0.66028
1724.13660	0.66147
1722.20804	0.66255
1720.27947	0.66324
1718.35091	0.66704
1716.42234	0.67565
1714.49378	0.68149
1712.56521	0.68472
1710.63665	0.68873
1708.70808	0.69454
1706.77952	0.70485
1704.85096	0.71904
1702.92239	0.73156
1700.99383	0.75149
1699.06526	0.78411
1697.13670	0.81284
1695.20813	0.83897
1693.27957	0.85699
1691.35100	0.87083
1689.42244	0.88856
1687.49388	0.90495
1685.56531	0.92266
1683.63675	0.95269
1681.70818	0.97285
1679.77962	0.98214
1677.85105	0.99057
1675.92249	1.00205
1673.99392	1.01577
1672.06536	1.02705
1670.13680	1.04031
1668.20823	1.05392
1666.27967	1.06075
1664.35110	1.06786
1662.42254	1.07997
1660.49397	1.09008
1658.56541	1.09467
1656.63684	1.09648
1654.70828	1.09968
1652.77972	1.10967
1650.85115	1.11336
1648.92259	1.11271
1646.99402	1.11533
1645.06546	1.11731
1643.13689	1.11568
1641.20833	1.11397
1639.27976	1.11261
1637.35120	1.11297
1635.42264	1.11805
1633.49407	1.12064
1631.56551	1.11914
1629.63694	1.11755
1627.70838	1.11672
1625.77981	1.11530
1623.85125	1.11312
1621.92269	1.10884
1619.99412	1.10229
1618.06556	1.09459
1616.13699	1.08515
1614.20843	1.07534
1612.27986	1.06572
1610.35130	1.05585
1608.42273	1.04603
1606.49417	1.03703
1604.56561	1.02958
1602.63704	1.02324
1600.70848	1.01733
1598.77991	1.01203
1596.85135	1.00782
1594.92278	1.00470
1592.99422	1.00231
1591.06565	1.00032
1589.13709	0.99935
1587.20853	1.00037
1585.27996	1.00283
1583.35140	1.00570
1581.42283	1.00874
1579.49427	1.01200
1577.56570	1.01824
1575.63714	1.02888
1573.70857	1.03404
1571.78001	1.03569
1569.85145	1.04164
1567.92288	1.04915
1565.99432	1.05316
1564.06575	1.05585
1562.13719	1.05738
1560.20862	1.06245
1558.28006	1.07790
1556.35149	1.08252
1554.42293	1.08204
1552.49437	1.08268
1550.56580	1.08447
1548.63724	1.08660
1546.70867	1.08739
1544.78011	1.08720
1542.85154	1.08685
1540.92298	1.08842
1538.99441	1.08958
1537.06585	1.08622
1535.13729	1.08287
1533.20872	1.08176
1531.28016	1.08030
1529.35159	1.07766
1527.42303	1.07599
1525.49446	1.07495
1523.56590	1.07339
1521.63733	1.07278
1519.70877	1.07218
1517.78021	1.06988
1515.85164	1.06660
1513.92308	1.06201
1511.99451	1.05617
1510.06595	1.05009
1508.13738	1.04330
1506.20882	1.03253
1504.28025	1.02178
1502.35169	1.01233
1500.42313	1.00252
1498.49456	0.99172
1496.56600	0.97963
1494.63743	0.96803
1492.70887	0.95828
1490.78030	0.94895
1488.85174	0.93844
1486.92317	0.92788
1484.99461	0.91898
1483.06605	0.91199
1481.13748	0.90641
1479.20892	0.90235
1477.28035	0.90060
1475.35179	0.90188
1473.42322	0.90778
1471.49466	0.91554
1469.56610	0.91901
1467.63753	0.92065
1465.70897	0.92436
1463.78040	0.92930
1461.85184	0.93138
1459.92327	0.93216
1457.99471	0.93705
1456.06614	0.94413
1454.13758	0.94492
1452.20902	0.94392
1450.28045	0.94356
1448.35189	0.94399
1446.42332	0.94420
1444.49476	0.94292
1442.56619	0.94027
1440.63763	0.93702
1438.70906	0.93432
1436.78050	0.93235
1434.85194	0.92888
1432.92337	0.92392
1430.99481	0.91885
1429.06624	0.91378
1427.13768	0.90934
1425.20911	0.90629
1423.28055	0.90411
1421.35198	0.90282
1419.42342	0.90424
1417.49486	0.90653
1415.56629	0.90592
1413.63773	0.90432
1411.70916	0.90337
1409.78060	0.90279
1407.85203	0.90218
1405.92347	0.90204
1403.99490	0.90195
1402.06634	0.90109
1400.13778	0.90046
1398.20921	0.90055
1396.28065	0.90082
1394.35208	0.90082
1392.42352	0.89974
1390.49495	0.89889
1388.56639	0.90131
1386.63782	0.90811
1384.70926	0.91591
1382.78070	0.92308
1380.85213	0.92961
1378.92357	0.93397
1376.99500	0.93562
1375.06644	0.93547
1373.13787	0.93295
1371.20931	0.92745
1369.28074	0.91979
1367.35218	0.91103
1365.42362	0.90257
1363.49505	0.89466
1361.56649	0.88725
1359.63792	0.88086
1357.70936	0.87548
1355.78079	0.87091
1353.85223	0.86701
1351.92366	0.86373
1349.99510	0.86104
1348.06654	0.85872
1346.13797	0.85660
1344.20941	0.85476
1342.28084	0.85362
1340.35228	0.85348
1338.42371	0.85395
1336.49515	0.85468
1334.56659	0.85615
1332.63802	0.85893
1330.70946	0.86297
1328.78089	0.86700
1326.85233	0.86974
1324.92376	0.87103
1322.99520	0.87158
1321.06663	0.87238
1319.13807	0.87358
1317.20951	0.87425
1315.28094	0.87433
1313.35238	0.87478
1311.42381	0.87541
1309.49525	0.87558
1307.56668	0.87538
1305.63812	0.87500
1303.70955	0.87442
1301.78099	0.87370
1299.85243	0.87288
1297.92386	0.87195
1295.99530	0.87106
1294.06673	0.87071
1292.13817	0.87110
1290.20960	0.87195
1288.28104	0.87287
1286.35247	0.87378
1284.42391	0.87449
1282.49535	0.87488
1280.56678	0.87523
1278.63822	0.87567
1276.70965	0.87623
1274.78109	0.87735
1272.85252	0.87957
1270.92396	0.88293
1268.99539	0.88704
1267.06683	0.89130
1265.13827	0.89484
1263.20970	0.89696
1261.28114	0.89762
1259.35257	0.89730
1257.42401	0.89657
1255.49544	0.89586
1253.56688	0.89538
1251.63831	0.89511
1249.70975	0.89487
1247.78119	0.89458
1245.85262	0.89444
1243.92406	0.89468
1241.99549	0.89500
1240.06693	0.89462
1238.13836	0.89321
1236.20980	0.89114
1234.28123	0.88871
1232.35267	0.88590
1230.42411	0.88243
1228.49554	0.87808
1226.56698	0.87304
1224.63841	0.86758
1222.70985	0.86182
1220.78128	0.85599
1218.85272	0.85028
1216.92415	0.84509
1214.99559	0.84096
1213.06703	0.83818
1211.13846	0.83708
1209.20990	0.83770
1207.28133	0.83890
1205.35277	0.83884
1203.42420	0.83640
1201.49564	0.83179
1199.56708	0.82585
1197.63851	0.81911
1195.70995	0.81165
1193.78138	0.80391
1191.85282	0.79699
1189.92425	0.79171
1187.99569	0.78820
1186.06712	0.78606
1184.13856	0.78479
1182.21000	0.78448
1180.28143	0.78551
1178.35287	0.78786
1176.42430	0.79124
1174.49574	0.79535
1172.56717	0.79993
1170.63861	0.80486
1168.71004	0.81053
1166.78148	0.81770
1164.85292	0.82596
1162.92435	0.83378
1160.99579	0.83994
1159.06722	0.84359
1157.13866	0.84415
1155.21009	0.84156
1153.28153	0.83599
1151.35296	0.82796
1149.42440	0.81839
1147.49584	0.80825
1145.56727	0.79870
1143.63871	0.79087
1141.71014	0.78593
1139.78158	0.78465
1137.85301	0.78618
1135.92445	0.78903
1133.99588	0.79323
1132.06732	0.79994
1130.13876	0.80932
1128.21019	0.82038
1126.28163	0.83140
1124.35306	0.84058
1122.42450	0.84756
1120.49593	0.85282
1118.56737	0.85627
1116.63880	0.85766
1114.71024	0.85678
1112.78168	0.85329
1110.85311	0.84743
1108.92455	0.84072
1106.99598	0.83466
1105.06742	0.82939
1103.13885	0.82440
1101.21029	0.81991
1099.28172	0.81710
1097.35316	0.81747
1095.42460	0.82133
1093.49603	0.82717
1091.56747	0.83373
1089.63890	0.84122
1087.71034	0.85003
1085.78177	0.85999
1083.85321	0.87004
1081.92464	0.87864
1079.99608	0.88533
1078.06752	0.88976
1076.13895	0.89120
1074.21039	0.89046
1072.28182	0.88934
1070.35326	0.88812
1068.42469	0.88604
1066.49613	0.88297
1064.56756	0.87891
1062.63900	0.87346
1060.71044	0.86682
1058.78187	0.85937
1056.85331	0.85123
1054.92474	0.84314
1052.99618	0.83604
1051.06761	0.83031
1049.13905	0.82626
1047.21049	0.82459
1045.28192	0.82582
1043.35336	0.83004
1041.42479	0.83644
1039.49623	0.84312
1037.56766	0.84858
1035.63910	0.85219
1033.71053	0.85382
1031.78197	0.85403
1029.85341	0.85338
1027.92484	0.85170
1025.99628	0.84885
1024.06771	0.84541
1022.13915	0.84252
1020.21058	0.84102
1018.28202	0.84065
1016.35345	0.84024
1014.42489	0.83802
1012.49633	0.83206
1010.56776	0.82172
1008.63920	0.80796
1006.71063	0.79256
1004.78207	0.77721
1002.85350	0.76312
1000.92494	0.75084
998.99637	0.74025
997.06781	0.73103
995.13925	0.72296
993.21068	0.71539
991.28212	0.70768
989.35355	0.69971
987.42499	0.69212
985.49642	0.68603
983.56786	0.68219
981.63929	0.68020
979.71073	0.67951
977.78217	0.67994
975.85360	0.68078
973.92504	0.68072
971.99647	0.67857
970.06791	0.67428
968.13934	0.66894
966.21078	0.66375
964.28221	0.65998
962.35365	0.65959
960.42509	0.66456
958.49652	0.67463
956.56796	0.68529
954.63939	0.69051
952.71083	0.68780
950.78226	0.67893
948.85370	0.66759
946.92513	0.65699
944.99657	0.64856
943.06801	0.64212
941.13944	0.63699
939.21088	0.63282
937.28231	0.62939
935.35375	0.62670
933.42518	0.62500
931.49662	0.62416
929.56805	0.62392
927.63949	0.62436
925.71093	0.62549
923.78236	0.62721
921.85380	0.62931
919.92523	0.63106
917.99667	0.63175
916.06810	0.63193
914.13954	0.63298
912.21098	0.63556
910.28241	0.63935
908.35385	0.64392
906.42528	0.64933
904.49672	0.65561
902.56815	0.66196
900.63959	0.66713
898.71102	0.67087
896.78246	0.67365
894.85390	0.67503
892.92533	0.67480
890.99677	0.67396
889.06820	0.67313
887.13964	0.67256
885.21107	0.67256
883.28251	0.67287
881.35394	0.67329
879.42538	0.67393
877.49682	0.67476
875.56825	0.67596
873.63969	0.67763
871.71112	0.67956
869.78256	0.68178
867.85399	0.68425
865.92543	0.68683
863.99686	0.68971
862.06830	0.69325
860.13974	0.69737
858.21117	0.70163
856.28261	0.70596
854.35404	0.71048
852.42548	0.71488
850.49691	0.71877
848.56835	0.72226
846.63978	0.72579
844.71122	0.72979
842.78266	0.73441
840.85409	0.73926
838.92553	0.74380
836.99696	0.74787
835.06840	0.75154
833.13983	0.75515
831.21127	0.75871
829.28270	0.76174
827.35414	0.76415
825.42558	0.76604
823.49701	0.76755
821.56845	0.76915
819.63988	0.77059
817.71132	0.77139
815.78275	0.77238
813.85419	0.77416
811.92562	0.77587
809.99706	0.77676
808.06850	0.77715
806.13993	0.77746
804.21137	0.77781
802.28280	0.77829
800.35424	0.77901
798.42567	0.77992
796.49711	0.78073
794.56854	0.78101
792.63998	0.78077
790.71142	0.78060
788.78285	0.78073
786.85429	0.78085
784.92572	0.78072
782.99716	0.78049
781.06859	0.78057
779.14003	0.78069
777.21147	0.78012
775.28290	0.77929
773.35434	0.77902
771.42577	0.77923
769.49721	0.77962
767.56864	0.78044
765.64008	0.78179
763.71151	0.78325
761.78295	0.78482
759.85439	0.78675
757.92582	0.78906
755.99726	0.79188
754.06869	0.79500
752.14013	0.79804
750.21156	0.80137
748.28300	0.80514
746.35443	0.80847
744.42587	0.81087
742.49731	0.81291
740.56874	0.81533
738.64018	0.81824
736.71161	0.82078
734.78305	0.82248
732.85448	0.82409
730.92592	0.82629
728.99735	0.82833
727.06879	0.82914
725.14023	0.82944
723.21166	0.83065
721.28310	0.83223
719.35453	0.83277
717.42597	0.83270
715.49740	0.83263
713.56884	0.83216
711.64027	0.83212
709.71171	0.83334
707.78315	0.83488
705.85458	0.83633
703.92602	0.83813
701.99745	0.83989
700.06889	0.84141
698.14032	0.84334
696.21176	0.84599
694.28319	0.84918
692.35463	0.85265
690.42607	0.85666
688.49750	0.86139
686.56894	0.86576
684.64037	0.86944
682.71181	0.87323
680.78324	0.87662
678.85468	0.87883
676.92611	0.88088
674.99755	0.88403
673.06899	0.88713
671.14042	0.88918
669.21186	0.89182
667.28329	0.89344
665.35473	0.89234
663.42616	0.89221
661.49760	0.89298
659.56903	0.89265
657.64047	0.89174
655.71191	0.89127
653.78334	0.89053
651.85478	0.88960
649.92621	0.88887
647.99765	0.88768
646.06908	0.88625
644.14052	0.88587
642.21195	0.88722
640.28339	0.88965
638.35483	0.89192
636.42626	0.89308
634.49770	0.89342
632.56913	0.89393
630.64057	0.89391
628.71200	0.89198
626.78344	0.88929
624.85488	0.88717
622.92631	0.88513
620.99775	0.88391
619.06918	0.88438
617.14062	0.88463
615.21205	0.88210
613.28349	0.87727
611.35492	0.87268
609.42636	0.86890
607.49780	0.86596
605.56923	0.86500
603.64067	0.86535
601.71210	0.86467
599.78354	0.86232
