3997.91406	0.81702
3995.98550	0.81613
3994.05693	0.81614
3992.12837	0.81568
3990.19980	0.81432
3988.27124	0.81262
3986.34268	0.81187
3984.41411	0.81234
3982.48555	0.81230
3980.55698	0.81194
3978.62842	0.81247
3976.69985	0.81295
3974.77129	0.81212
3972.84272	0.81033
3970.91416	0.80901
3968.98560	0.80868
3967.05703	0.80856
3965.12847	0.80816
3963.19990	0.80713
3961.27134	0.80516
3959.34277	0.80392
3957.41421	0.80478
3955.48564	0.80583
3953.55708	0.80533
3951.62852	0.80424
3949.69995	0.80376
3947.77139	0.80293
3945.84282	0.80119
3943.91426	0.80087
3941.98569	0.80195
3940.05713	0.80134
3938.12856	0.79940
3936.20000	0.79790
3934.27144	0.79759
3932.34287	0.79800
3930.41431	0.79715
3928.48574	0.79606
3926.55718	0.79670
3924.62861	0.79708
3922.70005	0.79599
3920.77148	0.79497
3918.84292	0.79399
3916.91436	0.79338
3914.98579	0.79351
3913.05723	0.79347
3911.12866	0.79326
3909.20010	0.79307
3907.27153	0.79249
3905.34297	0.79098
3903.41440	0.78910
3901.48584	0.78953
3899.55728	0.79266
3897.62871	0.79418
3895.70015	0.79182
3893.77158	0.78753
3891.84302	0.78464
3889.91445	0.78446
3887.98589	0.78582
3886.05733	0.78886
3884.12876	0.78978
3882.20020	0.78693
3880.27163	0.78493
3878.34307	0.78387
3876.41450	0.78218
3874.48594	0.78104
3872.55737	0.77981
3870.62881	0.77866
3868.70025	0.77891
3866.77168	0.77812
3864.84312	0.77697
3862.91455	0.77783
3860.98599	0.77870
3859.05742	0.77754
3857.12886	0.77429
3855.20029	0.77221
3853.27173	0.77794
3851.34317	0.78134
3849.41460	0.77950
3847.48604	0.77760
3845.55747	0.77584
3843.62891	0.77415
3841.70034	0.77402
3839.77178	0.77607
3837.84321	0.77710
3835.91465	0.77458
3833.98609	0.77136
3832.05752	0.76935
3830.12896	0.76882
3828.20039	0.76870
3826.27183	0.76754
3824.34326	0.76507
3822.41470	0.76293
3820.48613	0.76309
3818.55757	0.76344
3816.62901	0.76433
3814.70044	0.76564
3812.77188	0.76453
3810.84331	0.76228
3808.91475	0.76114
3806.98618	0.76147
3805.05762	0.76041
3803.12905	0.75865
3801.20049	0.76094
3799.27193	0.76387
3797.34336	0.76390
3795.41480	0.76345
3793.48623	0.76308
3791.55767	0.76228
3789.62910	0.76100
3787.70054	0.75939
3785.77197	0.75808
3783.84341	0.75735
3781.91485	0.75695
3779.98628	0.75825
3778.05772	0.76111
3776.12915	0.76189
3774.20059	0.75997
3772.27202	0.75757
3770.34346	0.75713
3768.41489	0.75851
3766.48633	0.75963
3764.55777	0.75929
3762.62920	0.75731
3760.70064	0.75580
3758.77207	0.75674
3756.84351	0.75733
3754.91494	0.75448
3752.98638	0.74937
3751.05781	0.74794
3749.12925	0.75083
3747.20069	0.75038
3745.27212	0.74852
3743.34356	0.74968
3741.41499	0.75090
3739.48643	0.75026
3737.55786	0.74941
3735.62930	0.75041
3733.70074	0.75269
3731.77217	0.75329
3729.84361	0.75181
3727.91504	0.74967
3725.98648	0.74860
3724.05791	0.74884
3722.12935	0.74857
3720.20078	0.74746
3718.27222	0.74643
3716.34366	0.74554
3714.41509	0.74481
3712.48653	0.74558
3710.55796	0.74812
3708.62940	0.74840
3706.70083	0.74655
3704.77227	0.74485
3702.84370	0.74518
3700.91514	0.74756
3698.98658	0.74941
3697.05801	0.75011
3695.12945	0.75009
3693.20088	0.75005
3691.27232	0.75162
3689.34375	0.75529
3687.41519	0.75730
3685.48662	0.75740
3683.55806	0.75746
3681.62950	0.75771
3679.70093	0.75799
3677.77237	0.75821
3675.84380	0.75976
3673.91524	0.76164
3671.98667	0.76244
3670.05811	0.76595
3668.12954	0.77008
3666.20098	0.77173
3664.27242	0.77344
3662.34385	0.77646
3660.41529	0.77974
3658.48672	0.78255
3656.55816	0.78587
3654.62959	0.78780
3652.70103	0.78825
3650.77246	0.79212
3648.84390	0.80202
3646.91534	0.80906
3644.98677	0.81153
3643.05821	0.81319
3641.12964	0.81574
3639.20108	0.81892
3637.27251	0.82264
3635.34395	0.82729
3633.41538	0.83186
3631.48682	0.83465
3629.55826	0.83812
3627.62969	0.84384
3625.70113	0.84724
3623.77256	0.84948
3621.84400	0.85233
3619.91543	0.85696
3617.98687	0.86255
3616.05830	0.86702
3614.12974	0.87113
3612.20118	0.87393
3610.27261	0.87580
3608.34405	0.88003
3606.41548	0.88478
3604.48692	0.88799
3602.55835	0.89222
3600.62979	0.89802
3598.70123	0.90329
3596.77266	0.90720
3594.84410	0.91082
3592.91553	0.91417
3590.98697	0.91576
3589.05840	0.91873
3587.12984	0.92678
3585.20127	0.93394
3583.27271	0.93816
3581.34415	0.94263
3579.41558	0.94742
3577.48702	0.95155
3575.55845	0.95577
3573.62989	0.95990
3571.70132	0.96272
3569.77276	0.96481
3567.84419	0.96944
3565.91563	0.97758
3563.98707	0.98322
3562.05850	0.98588
3560.12994	0.98914
3558.20137	0.99445
3556.27281	1.00026
3554.34424	1.00616
3552.41568	1.01192
3550.48711	1.01520
3548.55855	1.01729
3546.62999	1.02147
3544.70142	1.02715
3542.77286	1.03202
3540.84429	1.03592
3538.91573	1.04004
3536.98716	1.04501
3535.05860	1.04936
3533.13003	1.05237
3531.20147	1.05549
3529.27291	1.05911
3527.34434	1.06357
3525.41578	1.06926
3523.48721	1.07406
3521.55865	1.07689
3519.63008	1.07916
3517.70152	1.08213
3515.77295	1.08710
3513.84439	1.09405
3511.91583	1.10093
3509.98726	1.10726
3508.05870	1.11295
3506.13013	1.11724
3504.20157	1.12159
3502.27300	1.12545
3500.34444	1.12835
3498.41587	1.13322
3496.48731	1.13986
3494.55875	1.14535
3492.63018	1.14903
3490.70162	1.15223
3488.77305	1.15575
3486.84449	1.15908
3484.91592	1.16277
3482.98736	1.16894
3481.05879	1.17609
3479.13023	1.17944
3477.20167	1.17849
3475.27310	1.17646
3473.34454	1.17724
3471.41597	1.18096
3469.48741	1.18438
3467.55884	1.18673
3465.63028	1.18836
3463.70171	1.18967
3461.77315	1.19229
3459.84459	1.19591
3457.91602	1.19767
3455.98746	1.19777
3454.05889	1.19871
3452.13033	1.20020
3450.20176	1.20140
3448.27320	1.20233
3446.34464	1.20326
3444.41607	1.20516
3442.48751	1.20797
3440.55894	1.21047
3438.63038	1.21177
3436.70181	1.21201
3434.77325	1.21157
3432.84468	1.21133
3430.91612	1.21129
3428.98756	1.21072
3427.05899	1.21054
3425.13043	1.21003
3423.20186	1.20785
3421.27330	1.20672
3419.34473	1.20919
3417.41617	1.21257
3415.48760	1.21446
3413.55904	1.21598
3411.63048	1.21655
3409.70191	1.21370
3407.77335	1.20955
3405.84478	1.20994
3403.91622	1.21391
3401.98765	1.21579
3400.05909	1.21662
3398.13052	1.21767
3396.20196	1.21671
3394.27340	1.21538
3392.34483	1.21620
3390.41627	1.21853
3388.48770	1.22089
3386.55914	1.22206
3384.63057	1.22209
3382.70201	1.22206
3380.77344	1.22167
3378.84488	1.22204
3376.91632	1.22435
3374.98775	1.22532
3373.05919	1.22392
3371.13062	1.22354
3369.20206	1.22591
3367.27349	1.23010
3365.34493	1.23242
3363.41636	1.23070
3361.48780	1.22842
3359.55924	1.22796
3357.63067	1.22792
3355.70211	1.22802
3353.77354	1.22883
3351.84498	1.22993
3349.91641	1.22976
3347.98785	1.22767
3346.05928	1.22611
3344.13072	1.22630
3342.20216	1.22812
3340.27359	1.23059
3338.34503	1.23001
3336.41646	1.22777
3334.48790	1.22957
3332.55933	1.23423
3330.63077	1.23648
3328.70220	1.23635
3326.77364	1.23888
3324.84508	1.24454
3322.91651	1.24737
3320.98795	1.24693
3319.05938	1.24863
3317.13082	1.25268
3315.20225	1.25598
3313.27369	1.25803
3311.34513	1.25951
3309.41656	1.25972
3307.48800	1.25905
3305.55943	1.26074
3303.63087	1.26530
3301.70230	1.26974
3299.77374	1.27202
3297.84517	1.27209
3295.91661	1.27261
3293.98805	1.27503
3292.05948	1.27622
3290.13092	1.27472
3288.20235	1.27383
3286.27379	1.27467
3284.34522	1.27383
3282.41666	1.26948
3280.48809	1.26435
3278.55953	1.26210
3276.63097	1.26271
3274.70240	1.26341
3272.77384	1.26316
3270.84527	1.26318
3268.91671	1.26274
3266.98814	1.25966
3265.05958	1.25604
3263.13101	1.25456
3261.20245	1.25242
3259.27389	1.24734
3257.34532	1.24133
3255.41676	1.23565
3253.48819	1.22998
3251.55963	1.22450
3249.63106	1.21969
3247.70250	1.21584
3245.77393	1.21207
3243.84537	1.20801
3241.91681	1.20442
3239.98824	1.20032
3238.05968	1.19484
3236.13111	1.19019
3234.20255	1.18793
3232.27398	1.18564
3230.34542	1.18195
3228.41685	1.17877
3226.48829	1.17540
3224.55973	1.17058
3222.63116	1.16637
3220.70260	1.16458
3218.77403	1.16430
3216.84547	1.16257
3214.91690	1.15900
3212.98834	1.15578
3211.05977	1.15219
3209.13121	1.14765
3207.20265	1.14368
3205.27408	1.13962
3203.34552	1.13483
3201.41695	1.13058
3199.48839	1.12711
3197.55982	1.12311
3195.63126	1.11808
3193.70269	1.11360
3191.77413	1.11039
3189.84557	1.10709
3187.91700	1.10331
3185.98844	1.10015
3184.05987	1.09770
3182.13131	1.09460
3180.20274	1.09048
3178.27418	1.08610
3176.34562	1.08187
3174.41705	1.07787
3172.48849	1.07447
3170.55992	1.07196
3168.63136	1.06958
3166.70279	1.06677
3164.77423	1.06359
3162.84566	1.06025
3160.91710	1.05793
3158.98854	1.05708
3157.05997	1.05625
3155.13141	1.05409
3153.20284	1.05027
3151.27428	1.04594
3149.34571	1.04282
3147.41715	1.04086
3145.48858	1.03957
3143.56002	1.03901
3141.63146	1.03794
3139.70289	1.03565
3137.77433	1.03351
3135.84576	1.03181
3133.91720	1.03020
3131.98863	1.02960
3130.06007	1.02942
3128.13150	1.02848
3126.20294	1.02784
3124.27438	1.02814
3122.34581	1.02848
3120.41725	1.02779
3118.48868	1.02605
3116.56012	1.02508
3114.63155	1.02562
3112.70299	1.02613
3110.77442	1.02574
3108.84586	1.02469
3106.91730	1.02431
3104.98873	1.02549
3103.06017	1.02582
3101.13160	1.02362
3099.20304	1.02171
3097.27447	1.02158
3095.34591	1.02132
3093.41734	1.02022
3091.48878	1.01882
3089.56022	1.01743
3087.63165	1.01678
3085.70309	1.01693
3083.77452	1.01638
3081.84596	1.01412
3079.91739	1.01145
3077.98883	1.00957
3076.06026	1.00754
3074.13170	1.00488
3072.20314	1.00263
3070.27457	1.00152
3068.34601	1.00131
3066.41744	1.00020
3064.48888	0.99716
3062.56031	0.99397
3060.63175	0.99129
3058.70318	0.98802
3056.77462	0.98452
3054.84606	0.98098
3052.91749	0.97708
3050.98893	0.97371
3049.06036	0.97175
3047.13180	0.97071
3045.20323	0.96867
3043.27467	0.96482
3041.34610	0.96093
3039.41754	0.95813
3037.48898	0.95602
3035.56041	0.95440
3033.63185	0.95255
3031.70328	0.94993
3029.77472	0.94746
3027.84615	0.94568
3025.91759	0.94341
3023.98903	0.94058
3022.06046	0.93829
3020.13190	0.93592
3018.20333	0.93301
3016.27477	0.93085
3014.34620	0.92986
3012.41764	0.92865
3010.48907	0.92667
3008.56051	0.92491
3006.63195	0.92361
3004.70338	0.92247
3002.77482	0.92167
3000.84625	0.92101
2998.91769	0.92038
2996.98912	0.92043
2995.06056	0.92096
2993.13199	0.92180
2991.20343	0.92371
2989.27487	0.92658
2987.34630	0.93033
2985.41774	0.93494
2983.48917	0.93935
2981.56061	0.94342
2979.63204	0.94800
2977.70348	0.95315
2975.77491	0.95865
2973.84635	0.96435
2971.91779	0.96945
2969.98922	0.97373
2968.06066	0.97833
2966.13209	0.98304
2964.20353	0.98690
2962.27496	0.99057
2960.34640	0.99300
2958.41783	0.99131
2956.48927	0.98628
2954.56071	0.98115
2952.63214	0.97706
2950.70358	0.97389
2948.77501	0.97261
2946.84645	0.97388
2944.91788	0.97728
2942.98932	0.98266
2941.06075	0.98950
2939.13219	0.99680
2937.20363	1.00463
2935.27506	1.01327
2933.34650	1.02231
2931.41793	1.03081
2929.48937	1.03819
2927.56080	1.04548
2925.63224	1.05349
2923.70367	1.06118
2921.77511	1.06748
2919.84655	1.07179
2917.91798	1.07156
2915.98942	1.06290
2914.06085	1.04505
2912.13229	1.02233
2910.20372	1.00174
2908.27516	0.98769
2906.34659	0.97906
2904.41803	0.97258
2902.48947	0.96693
2900.56090	0.96221
2898.63234	0.95908
2896.70377	0.95773
2894.77521	0.95595
2892.84664	0.95195
2890.91808	0.94741
2888.98952	0.94406
2887.06095	0.94137
2885.13239	0.93865
2883.20382	0.93644
2881.27526	0.93516
2879.34669	0.93436
2877.41813	0.93390
2875.48956	0.93373
2873.56100	0.93250
2871.63244	0.92900
2869.70387	0.92430
2867.77531	0.92049
2865.84674	0.91779
2863.91818	0.91527
2861.98961	0.91422
2860.06105	0.91717
2858.13248	0.92432
2856.20392	0.93384
2854.27536	0.94413
2852.34679	0.95409
2850.41823	0.95986
2848.48966	0.95339
2846.56110	0.93292
2844.63253	0.90853
2842.70397	0.88908
2840.77540	0.87545
2838.84684	0.86607
2836.91828	0.85982
2834.98971	0.85557
2833.06115	0.85211
2831.13258	0.84859
2829.20402	0.84528
2827.27545	0.84280
2825.34689	0.84075
2823.41832	0.83860
2821.48976	0.83656
2819.56120	0.83457
2817.63263	0.83261
2815.70407	0.83119
2813.77550	0.83011
2811.84694	0.82866
2809.91837	0.82647
2807.98981	0.82377
2806.06124	0.82132
2804.13268	0.81958
2802.20412	0.81785
2800.27555	0.81544
2798.34699	0.81304
2796.41842	0.81141
2794.48986	0.80998
2792.56129	0.80814
2790.63273	0.80653
2788.70416	0.80549
2786.77560	0.80456
2784.84704	0.80356
2782.91847	0.80268
2780.98991	0.80216
2779.06134	0.80179
2777.13278	0.80124
2775.20421	0.80042
2773.27565	0.79896
2771.34708	0.79727
2769.41852	0.79619
2767.48996	0.79561
2765.56139	0.79514
2763.63283	0.79442
2761.70426	0.79317
2759.77570	0.79169
2757.84713	0.79040
2755.91857	0.78936
2753.99001	0.78875
2752.06144	0.78824
2750.13288	0.78676
2748.20431	0.78467
2746.27575	0.78308
2744.34718	0.78196
2742.41862	0.78073
2740.49005	0.77921
2738.56149	0.77759
2736.63293	0.77602
2734.70436	0.77432
2732.77580	0.77263
2730.84723	0.77123
2728.91867	0.76991
2726.99010	0.76847
2725.06154	0.76701
2723.13297	0.76569
2721.20441	0.76479
2719.27585	0.76430
2717.34728	0.76370
2715.41872	0.76296
2713.49015	0.76254
2711.56159	0.76207
2709.63302	0.76107
2707.70446	0.76015
2705.77589	0.75986
2703.84733	0.75991
2701.91877	0.75998
2699.99020	0.76024
2698.06164	0.76067
2696.13307	0.76079
2694.20451	0.76060
2692.27594	0.76028
2690.34738	0.75981
2688.41881	0.75929
2686.49025	0.75851
2684.56169	0.75749
2682.63312	0.75683
2680.70456	0.75638
2678.77599	0.75522
2676.84743	0.75327
2674.91886	0.75143
2672.99030	0.74999
2671.06173	0.74882
2669.13317	0.74777
2667.20461	0.74658
2665.27604	0.74529
2663.34748	0.74394
2661.41891	0.74241
2659.49035	0.74113
2657.56178	0.74050
2655.63322	0.74012
2653.70465	0.73948
2651.77609	0.73856
2649.84753	0.73766
2647.91896	0.73703
2645.99040	0.73646
2644.06183	0.73566
2642.13327	0.73472
2640.20470	0.73388
2638.27614	0.73326
2636.34757	0.73273
2634.41901	0.73210
2632.49045	0.73156
2630.56188	0.73123
2628.63332	0.73071
2626.70475	0.72984
2624.77619	0.72910
2622.84762	0.72846
2620.91906	0.72736
2618.99049	0.72614
2617.06193	0.72540
2615.13337	0.72459
2613.20480	0.72332
2611.27624	0.72206
2609.34767	0.72097
2607.41911	0.71999
2605.49054	0.71895
2603.56198	0.71749
2601.63342	0.71595
2599.70485	0.71527
2597.77629	0.71524
2595.84772	0.71477
2593.91916	0.71368
2591.99059	0.71261
2590.06203	0.71195
2588.13346	0.71163
2586.20490	0.71129
2584.27634	0.71086
2582.34777	0.71053
2580.41921	0.71032
2578.49064	0.71016
2576.56208	0.71000
2574.63351	0.70964
2572.70495	0.70915
2570.77638	0.70883
2568.84782	0.70874
2566.91926	0.70844
2564.99069	0.70782
2563.06213	0.70721
2561.13356	0.70671
2559.20500	0.70623
2557.27643	0.70547
2555.34787	0.70435
2553.41930	0.70342
2551.49074	0.70276
2549.56218	0.70197
2547.63361	0.70109
2545.70505	0.70003
2543.77648	0.69881
2541.84792	0.69783
2539.91935	0.69714
2537.99079	0.69649
2536.06222	0.69570
2534.13366	0.69494
2532.20510	0.69450
2530.27653	0.69421
2528.34797	0.69381
2526.41940	0.69338
2524.49084	0.69312
2522.56227	0.69294
2520.63371	0.69253
2518.70514	0.69185
2516.77658	0.69128
2514.84802	0.69105
2512.91945	0.69092
2510.99089	0.69065
2509.06232	0.69019
2507.13376	0.68955
2505.20519	0.68875
2503.27663	0.68796
2501.34806	0.68740
2499.41950	0.68669
2497.49094	0.68555
2495.56237	0.68463
2493.63381	0.68407
2491.70524	0.68336
2489.77668	0.68249
2487.84811	0.68164
2485.91955	0.68084
2483.99098	0.68005
2482.06242	0.67919
2480.13386	0.67842
2478.20529	0.67756
2476.27673	0.67631
2474.34816	0.67514
2472.41960	0.67441
2470.49103	0.67354
2468.56247	0.67232
2466.63391	0.67112
2464.70534	0.67000
2462.77678	0.66882
2460.84821	0.66763
2458.91965	0.66654
2456.99108	0.66555
2455.06252	0.66445
2453.13395	0.66322
2451.20539	0.66214
2449.27683	0.66124
2447.34826	0.66029
2445.41970	0.65919
2443.49113	0.65800
2441.56257	0.65697
2439.63400	0.65623
2437.70544	0.65560
2435.77687	0.65493
2433.84831	0.65419
2431.91975	0.65333
2429.99118	0.65249
2428.06262	0.65183
2426.13405	0.65124
2424.20549	0.65070
2422.27692	0.65029
2420.34836	0.64987
2418.41979	0.64943
2416.49123	0.64917
2414.56267	0.64895
2412.63410	0.64847
2410.70554	0.64800
2408.77697	0.64795
2406.84841	0.64805
2404.91984	0.64785
2402.99128	0.64751
2401.06271	0.64735
2399.13415	0.64717
2397.20559	0.64668
2395.27702	0.64608
2393.34846	0.64575
2391.41989	0.64578
2389.49133	0.64595
2387.56276	0.64592
2385.63420	0.64573
2383.70563	0.64609
2381.77707	0.64717
2379.84851	0.64818
2377.91994	0.64870
2375.99138	0.64903
2374.06281	0.65002
2372.13425	0.65233
2370.20568	0.65515
2368.27712	0.65728
2366.34855	0.65799
2364.41999	0.65796
2362.49143	0.65900
2360.56286	0.65946
2358.63430	0.65693
2356.70573	0.65416
2354.77717	0.65298
2352.84860	0.65130
2350.92004	0.64861
2348.99147	0.64623
2347.06291	0.64480
2345.13435	0.64455
2343.20578	0.64556
2341.27722	0.64627
2339.34865	0.64510
2337.42009	0.64309
2335.49152	0.64133
2333.56296	0.63966
2331.63440	0.63806
2329.70583	0.63640
2327.77727	0.63496
2325.84870	0.63376
2323.92014	0.63194
2321.99157	0.62973
2320.06301	0.62810
2318.13444	0.62659
2316.20588	0.62451
2314.27732	0.62239
2312.34875	0.62059
2310.42019	0.61876
2308.49162	0.61682
2306.56306	0.61507
2304.63449	0.61327
2302.70593	0.61113
2300.77736	0.60903
2298.84880	0.60740
2296.92024	0.60626
2294.99167	0.60534
2293.06311	0.60430
2291.13454	0.60319
2289.20598	0.60225
2287.27741	0.60157
2285.34885	0.60110
2283.42028	0.60061
2281.49172	0.59993
2279.56316	0.59935
2277.63459	0.59906
2275.70603	0.59884
2273.77746	0.59861
2271.84890	0.59840
2269.92033	0.59812
2267.99177	0.59786
2266.06320	0.59773
2264.13464	0.59765
2262.20608	0.59751
2260.27751	0.59721
2258.34895	0.59667
2256.42038	0.59603
2254.49182	0.59542
2252.56325	0.59474
2250.63469	0.59390
2248.70612	0.59308
2246.77756	0.59258
2244.84900	0.59236
2242.92043	0.59207
2240.99187	0.59151
2239.06330	0.59068
2237.13474	0.58967
2235.20617	0.58867
2233.27761	0.58789
2231.34904	0.58723
2229.42048	0.58648
2227.49192	0.58563
2225.56335	0.58481
2223.63479	0.58411
2221.70622	0.58361
2219.77766	0.58322
2217.84909	0.58262
2215.92053	0.58179
2213.99196	0.58104
2212.06340	0.58043
2210.13484	0.57965
2208.20627	0.57866
2206.27771	0.57772
2204.34914	0.57698
2202.42058	0.57626
2200.49201	0.57543
2198.56345	0.57459
2196.63488	0.57383
2194.70632	0.57303
2192.77776	0.57205
2190.84919	0.57098
2188.92063	0.56994
2186.99206	0.56891
2185.06350	0.56781
2183.13493	0.56656
2181.20637	0.56531
2179.27781	0.56431
2177.34924	0.56346
2175.42068	0.56269
2173.49211	0.56219
2171.56355	0.56190
2169.63498	0.56145
2167.70642	0.56091
2165.77785	0.56060
2163.84929	0.56045
2161.92073	0.56038
2159.99216	0.56048
2158.06360	0.56055
2156.13503	0.56040
2154.20647	0.56037
2152.27790	0.56065
2150.34934	0.56066
2148.42077	0.56028
2146.49221	0.56011
2144.56365	0.56016
2142.63508	0.55985
2140.70652	0.55914
2138.77795	0.55857
2136.84939	0.55811
2134.92082	0.55727
2132.99226	0.55611
2131.06369	0.55502
2129.13513	0.55417
2127.20657	0.55342
2125.27800	0.55256
2123.34944	0.55154
2121.42087	0.55037
2119.49231	0.54915
2117.56374	0.54806
2115.63518	0.54695
2113.70661	0.54564
2111.77805	0.54429
2109.84949	0.54308
2107.92092	0.54198
2105.99236	0.54102
2104.06379	0.54026
2102.13523	0.53963
2100.20666	0.53902
2098.27810	0.53844
2096.34953	0.53798
2094.42097	0.53750
2092.49241	0.53707
2090.56384	0.53702
2088.63528	0.53733
2086.70671	0.53761
2084.77815	0.53771
2082.84958	0.53786
2080.92102	0.53817
2078.99245	0.53848
2077.06389	0.53862
2075.13533	0.53854
2073.20676	0.53832
2071.27820	0.53809
2069.34963	0.53786
2067.42107	0.53750
2065.49250	0.53684
2063.56394	0.53597
2061.63537	0.53511
2059.70681	0.53411
2057.77825	0.53277
2055.84968	0.53139
2053.92112	0.53030
2051.99255	0.52932
2050.06399	0.52815
2048.13542	0.52688
2046.20686	0.52567
2044.27830	0.52444
2042.34973	0.52323
2040.42117	0.52212
2038.49260	0.52108
2036.56404	0.52025
2034.63547	0.51975
2032.70691	0.51938
2030.77834	0.51894
2028.84978	0.51844
2026.92122	0.51787
2024.99265	0.51739
2023.06409	0.51722
2021.13552	0.51713
2019.20696	0.51688
2017.27839	0.51651
2015.34983	0.51591
2013.42126	0.51505
2011.49270	0.51409
2009.56414	0.51310
2007.63557	0.51206
2005.70701	0.51092
2003.77844	0.50980
2001.84988	0.50871
1999.92131	0.50737
1997.99275	0.50569
1996.06418	0.50398
1994.13562	0.50261
1992.20706	0.50151
1990.27849	0.50025
1988.34993	0.49871
1986.42136	0.49708
1984.49280	0.49546
1982.56423	0.49399
1980.63567	0.49281
1978.70710	0.49186
1976.77854	0.49099
1974.84998	0.49007
1972.92141	0.48920
1970.99285	0.48874
1969.06428	0.48884
1967.13572	0.48912
1965.20715	0.48917
1963.27859	0.48921
1961.35002	0.48946
1959.42146	0.48983
1957.49290	0.49039
1955.56433	0.49114
1953.63577	0.49185
1951.70720	0.49245
1949.77864	0.49300
1947.85007	0.49352
1945.92151	0.49403
1943.99294	0.49453
1942.06438	0.49482
1940.13582	0.49460
1938.20725	0.49407
1936.27869	0.49357
1934.35012	0.49316
1932.42156	0.49272
1930.49299	0.49209
1928.56443	0.49121
1926.63586	0.49032
1924.70730	0.48970
1922.77874	0.48901
1920.85017	0.48771
1918.92161	0.48623
1916.99304	0.48496
1915.06448	0.48354
1913.13591	0.48203
1911.20735	0.48086
1909.27878	0.48002
1907.35022	0.47917
1905.42166	0.47840
1903.49309	0.47794
1901.56453	0.47768
1899.63596	0.47750
1897.70740	0.47749
1895.77883	0.47775
1893.85027	0.47808
1891.92171	0.47852
1889.99314	0.47936
1888.06458	0.48011
1886.13601	0.48050
1884.20745	0.48089
1882.27888	0.48135
1880.35032	0.48172
1878.42175	0.48188
1876.49319	0.48189
1874.56463	0.48180
1872.63606	0.48167
1870.70750	0.48172
1868.77893	0.48185
1866.85037	0.48129
1864.92180	0.48010
1862.99324	0.47891
1861.06467	0.47779
1859.13611	0.47658
1857.20755	0.47521
1855.27898	0.47386
1853.35042	0.47262
1851.42185	0.47142
1849.49329	0.47040
1847.56472	0.46976
1845.63616	0.46961
1843.70759	0.46933
1841.77903	0.46827
1839.85047	0.46722
1837.92190	0.46687
1835.99334	0.46695
1834.06477	0.46693
1832.13621	0.46717
1830.20764	0.46832
1828.27908	0.46958
1826.35051	0.47031
1824.42195	0.47106
1822.49339	0.47162
1820.56482	0.47194
1818.63626	0.47239
1816.70769	0.47285
1814.77913	0.47319
1812.85056	0.47345
1810.92200	0.47370
1808.99343	0.47380
1807.06487	0.47345
1805.13631	0.47279
1803.20774	0.47215
1801.27918	0.47156
1799.35061	0.47064
1797.42205	0.46942
1795.49348	0.46814
1793.56492	0.46699
1791.63635	0.46610
1789.70779	0.46479
1787.77923	0.46324
1785.85066	0.46204
1783.92210	0.46130
1781.99353	0.46110
1780.06497	0.46131
1778.13640	0.46161
1776.20784	0.46190
1774.27927	0.46274
1772.35071	0.46460
1770.42215	0.46633
1768.49358	0.46740
1766.56502	0.46831
1764.63645	0.46933
1762.70789	0.47130
1760.77932	0.47401
1758.85076	0.47628
1756.92220	0.47873
1754.99363	0.48109
1753.06507	0.48339
1751.13650	0.48726
1749.20794	0.49236
1747.27937	0.49635
1745.35081	0.49942
1743.42224	0.50248
1741.49368	0.50587
1739.56512	0.50916
1737.63655	0.51108
1735.70799	0.51259
1733.77942	0.51615
1731.85086	0.51897
1729.92229	0.52022
1727.99373	0.52210
1726.06516	0.52492
1724.13660	0.52881
1722.20804	0.53288
1720.27947	0.53706
1718.35091	0.54427
1716.42234	0.55537
1714.49378	0.56391
1712.56521	0.57052
1710.63665	0.57802
1708.70808	0.58714
1706.77952	0.60039
1704.85096	0.61701
1702.92239	0.63177
1700.99383	0.65363
1699.06526	0.68762
1697.13670	0.71826
1695.20813	0.74740
1693.27957	0.76870
1691.35100	0.78543
1689.42244	0.80541
1687.49388	0.82360
1685.56531	0.84281
1683.63675	0.87475
1681.70818	0.89911
1679.77962	0.91293
1677.85105	0.92521
1675.92249	0.94035
1673.99392	0.95740
1672.06536	0.97076
1670.13680	0.98506
1668.20823	1.00073
1666.27967	1.01036
1664.35110	1.01912
1662.42254	1.03120
1660.49397	1.04103
1658.56541	1.04605
1656.63684	1.04876
1654.70828	1.05231
1652.77972	1.05950
1650.85115	1.06309
1648.92259	1.06478
1646.99402	1.06741
1645.06546	1.06767
1643.13689	1.06620
1641.20833	1.06566
1639.27976	1.06598
1637.35120	1.06763
1635.42264	1.06997
1633.49407	1.06956
1631.56551	1.06827
1629.63694	1.06721
1627.70838	1.06597
1625.77981	1.06312
1623.85125	1.05695
1621.92269	1.04777
1619.99412	1.03866
1618.06556	1.02723
1616.13699	1.00928
1614.20843	0.99200
1612.27986	0.97680
1610.35130	0.96046
1608.42273	0.94377
1606.49417	0.92904
1604.56561	0.91691
1602.63704	0.90679
1600.70848	0.89890
1598.77991	0.89345
1596.85135	0.88975
1594.92278	0.88702
1592.99422	0.88560
1591.06565	0.88605
1589.13709	0.88831
1587.20853	0.89256
1585.27996	0.89900
1583.35140	0.90722
1581.42283	0.91612
1579.49427	0.92483
1577.56570	0.93612
1575.63714	0.95134
1573.70857	0.96024
1571.78001	0.96520
1569.85145	0.97440
1567.92288	0.98564
1565.99432	0.99353
1564.06575	0.99946
1562.13719	1.00353
1560.20862	1.00977
1558.28006	1.02210
1556.35149	1.02558
1554.42293	1.02606
1552.49437	1.02668
1550.56580	1.02659
1548.63724	1.02599
1546.70867	1.02526
1544.78011	1.02442
1542.85154	1.02294
1540.92298	1.02012
1538.99441	1.01520
1537.06585	1.01071
1535.13729	1.00685
1533.20872	1.00261
1531.28016	0.99748
1529.35159	0.99257
1527.42303	0.98837
1525.49446	0.98486
1523.56590	0.98234
1521.63733	0.98077
1519.70877	0.97949
1517.78021	0.97660
1515.85164	0.97087
1513.92308	0.96286
1511.99451	0.95360
1510.06595	0.94479
1508.13738	0.93397
1506.20882	0.91263
1504.28025	0.89619
1502.35169	0.88526
1500.42313	0.87417
1498.49456	0.86118
1496.56600	0.84635
1494.63743	0.83423
1492.70887	0.82570
1490.78030	0.81711
1488.85174	0.80693
1486.92317	0.79837
1484.99461	0.79247
1483.06605	0.78877
1481.13748	0.78689
1479.20892	0.78674
1477.28035	0.78910
1475.35179	0.79517
1473.42322	0.80596
1471.49466	0.81650
1469.56610	0.82140
1467.63753	0.82463
1465.70897	0.82940
1463.78040	0.83422
1461.85184	0.83618
1459.92327	0.83718
1457.99471	0.84073
1456.06614	0.84549
1454.13758	0.84656
1452.20902	0.84616
1450.28045	0.84543
1448.35189	0.84434
1446.42332	0.84264
1444.49476	0.84061
1442.56619	0.83832
1440.63763	0.83553
1438.70906	0.83230
1436.78050	0.82829
1434.85194	0.82327
1432.92337	0.81782
1430.99481	0.81172
1429.06624	0.80555
1427.13768	0.80110
1425.20911	0.79871
1423.28055	0.79777
1421.35198	0.79790
1419.42342	0.79966
1417.49486	0.80121
1415.56629	0.80042
1413.63773	0.79879
1411.70916	0.79686
1409.78060	0.79452
1407.85203	0.79241
1405.92347	0.79095
1403.99490	0.78964
1402.06634	0.78848
1400.13778	0.78804
1398.20921	0.78777
1396.28065	0.78662
1394.35208	0.78504
1392.42352	0.78442
1390.49495	0.78583
1388.56639	0.79103
1386.63782	0.80080
1384.70926	0.81160
1382.78070	0.82115
1380.85213	0.82875
1378.92357	0.83240
1376.99500	0.83100
1375.06644	0.82510
1373.13787	0.81631
1371.20931	0.80648
1369.28074	0.79513
1367.35218	0.78265
1365.42362	0.77155
1363.49505	0.76214
1361.56649	0.75442
1359.63792	0.74948
1357.70936	0.74697
1355.78079	0.74613
1353.85223	0.74656
1351.92366	0.74782
1349.99510	0.74952
1348.06654	0.75131
1346.13797	0.75307
1344.20941	0.75494
1342.28084	0.75707
1340.35228	0.75971
1338.42371	0.76243
1336.49515	0.76501
1334.56659	0.76860
1332.63802	0.77355
1330.70946	0.77853
1328.78089	0.78193
1326.85233	0.78332
1324.92376	0.78300
1322.99520	0.78174
1321.06663	0.78051
1319.13807	0.77976
1317.20951	0.77911
1315.28094	0.77821
1313.35238	0.77703
1311.42381	0.77572
1309.49525	0.77429
1307.56668	0.77254
1305.63812	0.77070
1303.70955	0.76933
1301.78099	0.76828
1299.85243	0.76708
1297.92386	0.76581
1295.99530	0.76502
1294.06673	0.76540
1292.13817	0.76727
1290.20960	0.77044
1288.28104	0.77432
1286.35247	0.77818
1284.42391	0.78155
1282.49535	0.78457
1280.56678	0.78753
1278.63822	0.79052
1276.70965	0.79362
1274.78109	0.79693
1272.85252	0.80064
1270.92396	0.80497
1268.99539	0.80966
1267.06683	0.81388
1265.13827	0.81685
1263.20970	0.81797
1261.28114	0.81701
1259.35257	0.81481
1257.42401	0.81257
1255.49544	0.81053
1253.56688	0.80831
1251.63831	0.80589
1249.70975	0.80378
1247.78119	0.80226
1245.85262	0.80129
1243.92406	0.80061
1241.99549	0.79975
1240.06693	0.79846
1238.13836	0.79685
1236.20980	0.79494
1234.28123	0.79271
1232.35267	0.79015
1230.42411	0.78699
1228.49554	0.78335
1226.56698	0.77967
1224.63841	0.77590
1222.70985	0.77197
1220.78128	0.76820
1218.85272	0.76495
1216.92415	0.76263
1214.99559	0.76179
1213.06703	0.76264
1211.13846	0.76488
1209.20990	0.76773
1207.28133	0.76980
1205.35277	0.76961
1203.42420	0.76646
1201.49564	0.76074
1199.56708	0.75331
1197.63851	0.74485
1195.70995	0.73596
1193.78138	0.72759
1191.85282	0.72078
1189.92425	0.71608
1187.99569	0.71332
1186.06712	0.71197
1184.13856	0.71195
1182.21000	0.71342
1180.28143	0.71625
1178.35287	0.72056
1176.42430	0.72664
1174.49574	0.73404
1172.56717	0.74221
1170.63861	0.75118
1168.71004	0.76159
1166.78148	0.77387
1164.85292	0.78710
1162.92435	0.79952
1160.99579	0.80970
1159.06722	0.81641
1157.13866	0.81878
1155.21009	0.81673
1153.28153	0.81097
1151.35296	0.80296
1149.42440	0.79390
1147.49584	0.78456
1145.56727	0.77604
1143.63871	0.76957
1141.71014	0.76588
1139.78158	0.76501
1137.85301	0.76618
1135.92445	0.76861
1133.99588	0.77226
1132.06732	0.77767
1130.13876	0.78549
1128.21019	0.79530
1126.28163	0.80521
1124.35306	0.81327
1122.42450	0.81894
1120.49593	0.82278
1118.56737	0.82516
1116.63880	0.82550
1114.71024	0.82283
1112.78168	0.81727
1110.85311	0.81004
1108.92455	0.80243
1106.99598	0.79561
1105.06742	0.79009
1103.13885	0.78555
1101.21029	0.78250
1099.28172	0.78235
1097.35316	0.78507
1095.42460	0.78977
1093.49603	0.79661
1091.56747	0.80557
1089.63890	0.81557
1087.71034	0.82628
1085.78177	0.83822
1083.85321	0.85099
1081.92464	0.86320
1079.99608	0.87349
1078.06752	0.88091
1076.13895	0.88511
1074.21039	0.88602
1072.28182	0.88368
1070.35326	0.87883
1068.42469	0.87269
1066.49613	0.86636
1064.56756	0.86009
1062.63900	0.85311
1060.71044	0.84495
1058.78187	0.83634
1056.85331	0.82847
1054.92474	0.82183
1052.99618	0.81578
1051.06761	0.81041
1049.13905	0.80740
1047.21049	0.80756
1045.28192	0.81038
1043.35336	0.81564
1041.42479	0.82239
1039.49623	0.82876
1037.56766	0.83390
1035.63910	0.83737
1033.71053	0.83860
1031.78197	0.83808
1029.85341	0.83670
1027.92484	0.83419
1025.99628	0.82998
1024.06771	0.82498
1022.13915	0.82034
1020.21058	0.81648
1018.28202	0.81348
1016.35345	0.81036
1014.42489	0.80553
1012.49633	0.79824
1010.56776	0.78840
1008.63920	0.77613
1006.71063	0.76245
1004.78207	0.74896
1002.85350	0.73639
1000.92494	0.72491
998.99637	0.71477
997.06781	0.70578
995.13925	0.69747
993.21068	0.68938
991.28212	0.68083
989.35355	0.67166
987.42499	0.66278
985.49642	0.65536
983.56786	0.64984
981.63929	0.64613
979.71073	0.64396
977.78217	0.64276
975.85360	0.64168
973.92504	0.63984
971.99647	0.63659
970.06791	0.63252
968.13934	0.62890
966.21078	0.62668
964.28221	0.62698
962.35365	0.63111
960.42509	0.63960
958.49652	0.65112
956.56796	0.66211
954.63939	0.66881
952.71083	0.67004
950.78226	0.66729
948.85370	0.66293
946.92513	0.65893
944.99657	0.65603
943.06801	0.65396
941.13944	0.65216
939.21088	0.65029
937.28231	0.64844
935.35375	0.64660
933.42518	0.64469
931.49662	0.64284
929.56805	0.64112
927.63949	0.63952
925.71093	0.63833
923.78236	0.63744
921.85380	0.63643
919.92523	0.63521
917.99667	0.63358
916.06810	0.63143
914.13954	0.62939
912.21098	0.62832
910.28241	0.62831
908.35385	0.62912
906.42528	0.63067
904.49672	0.63295
902.56815	0.63557
900.63959	0.63764
898.71102	0.63878
896.78246	0.63940
894.85390	0.63954
892.92533	0.63904
890.99677	0.63804
889.06820	0.63670
887.13964	0.63548
885.21107	0.63498
883.28251	0.63504
881.35394	0.63510
879.42538	0.63518
877.49682	0.63542
875.56825	0.63580
873.63969	0.63641
871.71112	0.63715
869.78256	0.63770
867.85399	0.63825
865.92543	0.63895
863.99686	0.63966
862.06830	0.64055
860.13974	0.64180
858.21117	0.64317
856.28261	0.64430
854.35404	0.64500
852.42548	0.64526
850.49691	0.64529
848.56835	0.64536
846.63978	0.64537
844.71122	0.64525
842.78266	0.64536
840.85409	0.64587
838.92553	0.64686
836.99696	0.64865
835.06840	0.65102
833.13983	0.65326
831.21127	0.65523
829.28270	0.65717
827.35414	0.65905
825.42558	0.66091
823.49701	0.66249
821.56845	0.66349
819.63988	0.66415
817.71132	0.66481
815.78275	0.66535
813.85419	0.66568
811.92562	0.66591
809.99706	0.66598
808.06850	0.66574
806.13993	0.66470
804.21137	0.66249
802.28280	0.65988
800.35424	0.65760
798.42567	0.65528
796.49711	0.65235
794.56854	0.64905
792.63998	0.64588
790.71142	0.64292
788.78285	0.64006
786.85429	0.63725
784.92572	0.63459
782.99716	0.63202
781.06859	0.62941
779.14003	0.62716
777.21147	0.62577
775.28290	0.62499
773.35434	0.62456
771.42577	0.62479
769.49721	0.62536
767.56864	0.62579
765.64008	0.62674
763.71151	0.62870
761.78295	0.63142
759.85439	0.63465
757.92582	0.63832
755.99726	0.64213
754.06869	0.64584
752.14013	0.64988
750.21156	0.65477
748.28300	0.66008
746.35443	0.66515
744.42587	0.66998
742.49731	0.67466
740.56874	0.67907
738.64018	0.68357
736.71161	0.68870
734.78305	0.69443
732.85448	0.70053
730.92592	0.70669
728.99735	0.71228
727.06879	0.71731
725.14023	0.72220
723.21166	0.72690
721.28310	0.73134
719.35453	0.73491
717.42597	0.73666
715.49740	0.73682
713.56884	0.73683
711.64027	0.73758
709.71171	0.73811
707.78315	0.73784
705.85458	0.73729
703.92602	0.73596
701.99745	0.73359
700.06889	0.73085
698.14032	0.72780
696.21176	0.72476
694.28319	0.72200
692.35463	0.71901
690.42607	0.71555
688.49750	0.71187
686.56894	0.70810
684.64037	0.70445
682.71181	0.70099
680.78324	0.69751
678.85468	0.69383
676.92611	0.69044
674.99755	0.68805
673.06899	0.68704
671.14042	0.68725
669.21186	0.68745
667.28329	0.68646
665.35473	0.68621
663.42616	0.68714
661.49760	0.68828
659.56903	0.68907
657.64047	0.68994
655.71191	0.69098
653.78334	0.69103
651.85478	0.69013
649.92621	0.69004
647.99765	0.69100
646.06908	0.69153
644.14052	0.69118
642.21195	0.69087
640.28339	0.69169
638.35483	0.69367
636.42626	0.69494
634.49770	0.69402
632.56913	0.69192
630.64057	0.69023
628.71200	0.68905
626.78344	0.68794
624.85488	0.68730
622.92631	0.68771
620.99775	0.68892
619.06918	0.69047
617.14062	0.69291
615.21205	0.69569
613.28349	0.69696
611.35492	0.69677
609.42636	0.69736
607.49780	0.70038
605.56923	0.70458
603.64067	0.70852
601.71210	0.71285
599.78354	0.71755
