3997.91406	0.79429
3995.98550	0.79245
3994.05693	0.79196
3992.12837	0.79270
3990.19980	0.79188
3988.27124	0.78959
3986.34268	0.78844
3984.41411	0.78898
3982.48555	0.79098
3980.55698	0.79283
3978.62842	0.79161
3976.69985	0.78836
3974.77129	0.78683
3972.84272	0.78693
3970.91416	0.78619
3968.98560	0.78518
3967.05703	0.78542
3965.12847	0.78593
3963.19990	0.78538
3961.27134	0.78437
3959.34277	0.78366
3957.41421	0.78297
3955.48564	0.78318
3953.55708	0.78450
3951.62852	0.78463
3949.69995	0.78288
3947.77139	0.78229
3945.84282	0.78393
3943.91426	0.78404
3941.98569	0.78105
3940.05713	0.77864
3938.12856	0.77828
3936.20000	0.77863
3934.27144	0.77819
3932.34287	0.77645
3930.41431	0.77508
3928.48574	0.77485
3926.55718	0.77450
3924.62861	0.77417
3922.70005	0.77547
3920.77148	0.77725
3918.84292	0.77694
3916.91436	0.77492
3914.98579	0.77444
3913.05723	0.77555
3911.12866	0.77644
3909.20010	0.77769
3907.27153	0.77953
3905.34297	0.77964
3903.41440	0.77715
3901.48584	0.77441
3899.55728	0.77248
3897.62871	0.77230
3895.70015	0.77394
3893.77158	0.77514
3891.84302	0.77293
3889.91445	0.77075
3887.98589	0.77188
3886.05733	0.77230
3884.12876	0.77193
3882.20020	0.77273
3880.27163	0.77008
3878.34307	0.76671
3876.41450	0.76632
3874.48594	0.76595
3872.55737	0.76452
3870.62881	0.76169
3868.70025	0.75984
3866.77168	0.76044
3864.84312	0.75931
3862.91455	0.75798
3860.98599	0.76088
3859.05742	0.76540
3857.12886	0.76819
3855.20029	0.76451
3853.27173	0.75296
3851.34317	0.75242
3849.41460	0.75767
3847.48604	0.76094
3845.55747	0.76263
3843.62891	0.76289
3841.70034	0.76221
3839.77178	0.76136
3837.84321	0.75991
3835.91465	0.75954
3833.98609	0.76008
3832.05752	0.75976
3830.12896	0.75874
3828.20039	0.75719
3826.27183	0.75628
3824.34326	0.75823
3822.41470	0.75897
3820.48613	0.75487
3818.55757	0.75353
3816.62901	0.75370
3814.70044	0.75348
3812.77188	0.75470
3810.84331	0.75661
3808.91475	0.75736
3806.98618	0.75461
3805.05762	0.75289
3803.12905	0.75339
3801.20049	0.75152
3799.27193	0.75103
3797.34336	0.75077
3795.41480	0.74760
3793.48623	0.74552
3791.55767	0.74583
3789.62910	0.74650
3787.70054	0.74636
3785.77197	0.74508
3783.84341	0.74395
3781.91485	0.74401
3779.98628	0.74342
3778.05772	0.74265
3776.12915	0.74348
3774.20059	0.74499
3772.27202	0.74591
3770.34346	0.74450
3768.41489	0.74259
3766.48633	0.74266
3764.55777	0.74314
3762.62920	0.74332
3760.70064	0.74200
3758.77207	0.73944
3756.84351	0.73978
3754.91494	0.74268
3752.98638	0.74509
3751.05781	0.74296
3749.12925	0.73858
3747.20069	0.73799
3745.27212	0.73724
3743.34356	0.73575
3741.41499	0.73750
3739.48643	0.74022
3737.55786	0.74055
3735.62930	0.73589
3733.70074	0.73057
3731.77217	0.73065
3729.84361	0.73329
3727.91504	0.73541
3725.98648	0.73541
3724.05791	0.73334
3722.12935	0.73110
3720.20078	0.73090
3718.27222	0.73317
3716.34366	0.73697
3714.41509	0.74151
3712.48653	0.74302
3710.55796	0.73780
3708.62940	0.73407
3706.70083	0.73541
3704.77227	0.73850
3702.84370	0.73918
3700.91514	0.73811
3698.98658	0.74011
3697.05801	0.74416
3695.12945	0.74741
3693.20088	0.74902
3691.27232	0.74857
3689.34375	0.74621
3687.41519	0.74709
3685.48662	0.75121
3683.55806	0.75516
3681.62950	0.75803
3679.70093	0.76096
3677.77237	0.76346
3675.84380	0.76204
3673.91524	0.76133
3671.98667	0.76340
3670.05811	0.76518
3668.12954	0.76997
3666.20098	0.77602
3664.27242	0.78079
3662.34385	0.78539
3660.41529	0.79039
3658.48672	0.79447
3656.55816	0.79811
3654.62959	0.80421
3652.70103	0.81234
3650.77246	0.81818
3648.84390	0.81784
3646.91534	0.82181
3644.98677	0.83064
3643.05821	0.83927
3641.12964	0.84686
3639.20108	0.85447
3637.27251	0.86231
3635.34395	0.86935
3633.41538	0.87633
3631.48682	0.88396
3629.55826	0.89055
3627.62969	0.89574
3625.70113	0.90225
3623.77256	0.90924
3621.84400	0.91599
3619.91543	0.92229
3617.98687	0.92798
3616.05830	0.93427
3614.12974	0.94012
3612.20118	0.94474
3610.27261	0.94922
3608.34405	0.95426
3606.41548	0.96017
3604.48692	0.96614
3602.55835	0.97297
3600.62979	0.98175
3598.70123	0.98997
3596.77266	0.99489
3594.84410	0.99872
3592.91553	1.00516
3590.98697	1.01420
3589.05840	1.02427
3587.12984	1.03122
3585.20127	1.03512
3583.27271	1.04130
3581.34415	1.04924
3579.41558	1.05636
3577.48702	1.06260
3575.55845	1.06975
3573.62989	1.07778
3571.70132	1.08634
3569.77276	1.09446
3567.84419	1.09966
3565.91563	1.10417
3563.98707	1.11336
3562.05850	1.12395
3560.12994	1.13173
3558.20137	1.13929
3556.27281	1.14995
3554.34424	1.16025
3552.41568	1.16623
3550.48711	1.17191
3548.55855	1.18110
3546.62999	1.18943
3544.70142	1.19496
3542.77286	1.20081
3540.84429	1.20770
3538.91573	1.21425
3536.98716	1.21910
3535.05860	1.22473
3533.13003	1.23124
3531.20147	1.23456
3529.27291	1.23443
3527.34434	1.23573
3525.41578	1.24282
3523.48721	1.25407
3521.55865	1.26322
3519.63008	1.26868
3517.70152	1.27614
3515.77295	1.28705
3513.84439	1.29551
3511.91583	1.29963
3509.98726	1.30516
3508.05870	1.31461
3506.13013	1.32430
3504.20157	1.33346
3502.27300	1.34277
3500.34444	1.35241
3498.41587	1.36054
3496.48731	1.36459
3494.55875	1.36805
3492.63018	1.37439
3490.70162	1.38226
3488.77305	1.38893
3486.84449	1.39292
3484.91592	1.39503
3482.98736	1.39564
3481.05879	1.39554
3479.13023	1.39629
3477.20167	1.39803
3475.27310	1.40057
3473.34454	1.40468
3471.41597	1.41054
3469.48741	1.41708
3467.55884	1.42274
3465.63028	1.42745
3463.70171	1.42959
3461.77315	1.42613
3459.84459	1.42272
3457.91602	1.42630
3455.98746	1.43618
3454.05889	1.44538
3452.13033	1.44638
3450.20176	1.44499
3448.27320	1.44706
3446.34464	1.44626
3444.41607	1.44238
3442.48751	1.43933
3440.55894	1.43654
3438.63038	1.43709
3436.70181	1.44167
3434.77325	1.44324
3432.84468	1.44110
3430.91612	1.44247
3428.98756	1.44849
3427.05899	1.45197
3425.13043	1.44864
3423.20186	1.44517
3421.27330	1.44640
3419.34473	1.44675
3417.41617	1.44291
3415.48760	1.43866
3413.55904	1.43753
3411.63048	1.43905
3409.70191	1.44025
3407.77335	1.43974
3405.84478	1.43928
3403.91622	1.44083
3401.98765	1.44308
3400.05909	1.44357
3398.13052	1.44287
3396.20196	1.44342
3394.27340	1.44449
3392.34483	1.44353
3390.41627	1.44059
3388.48770	1.43818
3386.55914	1.43884
3384.63057	1.44125
3382.70201	1.44366
3380.77344	1.44529
3378.84488	1.44176
3376.91632	1.43473
3374.98775	1.43106
3373.05919	1.43189
3371.13062	1.43594
3369.20206	1.43984
3367.27349	1.43999
3365.34493	1.43828
3363.41636	1.43772
3361.48780	1.43975
3359.55924	1.44432
3357.63067	1.44773
3355.70211	1.44639
3353.77354	1.44271
3351.84498	1.44164
3349.91641	1.44355
3347.98785	1.44713
3346.05928	1.45278
3344.13072	1.45797
3342.20216	1.45772
3340.27359	1.45263
3338.34503	1.44831
3336.41646	1.44747
3334.48790	1.44998
3332.55933	1.45555
3330.63077	1.46049
3328.70220	1.46040
3326.77364	1.45724
3324.84508	1.45574
3322.91651	1.45691
3320.98795	1.45843
3319.05938	1.45883
3317.13082	1.45933
3315.20225	1.45827
3313.27369	1.45259
3311.34513	1.44677
3309.41656	1.44722
3307.48800	1.45408
3305.55943	1.46295
3303.63087	1.46711
3301.70230	1.46447
3299.77374	1.46087
3297.84517	1.46023
3295.91661	1.46091
3293.98805	1.46163
3292.05948	1.46285
3290.13092	1.46299
3288.20235	1.45967
3286.27379	1.45355
3284.34522	1.44825
3282.41666	1.44585
3280.48809	1.44559
3278.55953	1.44736
3276.63097	1.44943
3274.70240	1.44930
3272.77384	1.44857
3270.84527	1.44884
3268.91671	1.44830
3266.98814	1.44554
3265.05958	1.44276
3263.13101	1.44017
3261.20245	1.43429
3259.27389	1.42590
3257.34532	1.41983
3255.41676	1.41750
3253.48819	1.41418
3251.55963	1.40793
3249.63106	1.40449
3247.70250	1.40469
3245.77393	1.40314
3243.84537	1.40022
3241.91681	1.39895
3239.98824	1.39682
3238.05968	1.39223
3236.13111	1.38817
3234.20255	1.38400
3232.27398	1.37712
3230.34542	1.37121
3228.41685	1.36998
3226.48829	1.37001
3224.55973	1.36634
3222.63116	1.35988
3220.70260	1.35677
3218.77403	1.35750
3216.84547	1.35492
3214.91690	1.34911
3212.98834	1.34748
3211.05977	1.35111
3209.13121	1.35348
3207.20265	1.35090
3205.27408	1.34768
3203.34552	1.34711
3201.41695	1.34637
3199.48839	1.34338
3197.55982	1.33984
3195.63126	1.33662
3193.70269	1.33310
3191.77413	1.33005
3189.84557	1.32817
3187.91700	1.32682
3185.98844	1.32486
3184.05987	1.32171
3182.13131	1.31832
3180.20274	1.31539
3178.27418	1.31215
3176.34562	1.30901
3174.41705	1.30719
3172.48849	1.30560
3170.55992	1.30303
3168.63136	1.30014
3166.70279	1.29701
3164.77423	1.29359
3162.84566	1.29037
3160.91710	1.28661
3158.98854	1.28173
3157.05997	1.27816
3155.13141	1.27839
3153.20284	1.27954
3151.27428	1.27704
3149.34571	1.27230
3147.41715	1.26962
3145.48858	1.26944
3143.56002	1.26906
3141.63146	1.26568
3139.70289	1.25989
3137.77433	1.25709
3135.84576	1.25940
3133.91720	1.26161
3131.98863	1.26062
3130.06007	1.25903
3128.13150	1.25791
3126.20294	1.25718
3124.27438	1.25829
3122.34581	1.26010
3120.41725	1.26066
3118.48868	1.26077
3116.56012	1.26114
3114.63155	1.26195
3112.70299	1.26208
3110.77442	1.26103
3108.84586	1.26111
3106.91730	1.26154
3104.98873	1.25841
3103.06017	1.25325
3101.13160	1.25200
3099.20304	1.25466
3097.27447	1.25481
3095.34591	1.25130
3093.41734	1.24961
3091.48878	1.25135
3089.56022	1.25250
3087.63165	1.25112
3085.70309	1.24922
3083.77452	1.24743
3081.84596	1.24407
3079.91739	1.23952
3077.98883	1.23707
3076.06026	1.23803
3074.13170	1.23897
3072.20314	1.23664
3070.27457	1.23280
3068.34601	1.23107
3066.41744	1.23122
3064.48888	1.23022
3062.56031	1.22754
3060.63175	1.22468
3058.70318	1.22182
3056.77462	1.21939
3054.84606	1.21869
3052.91749	1.21833
3050.98893	1.21504
3049.06036	1.20983
3047.13180	1.20674
3045.20323	1.20613
3043.27467	1.20595
3041.34610	1.20551
3039.41754	1.20388
3037.48898	1.20025
3035.56041	1.19597
3033.63185	1.19247
3031.70328	1.19018
3029.77472	1.18884
3027.84615	1.18716
3025.91759	1.18419
3023.98903	1.17962
3022.06046	1.17465
3020.13190	1.17235
3018.20333	1.17228
3016.27477	1.17110
3014.34620	1.16912
3012.41764	1.16779
3010.48907	1.16574
3008.56051	1.16251
3006.63195	1.15996
3004.70338	1.15957
3002.77482	1.16097
3000.84625	1.16191
2998.91769	1.16123
2996.98912	1.16025
2995.06056	1.15992
2993.13199	1.16010
2991.20343	1.16110
2989.27487	1.16379
2987.34630	1.16788
2985.41774	1.17241
2983.48917	1.17868
2981.56061	1.18674
2979.63204	1.19372
2977.70348	1.19973
2975.77491	1.20652
2973.84635	1.21294
2971.91779	1.21793
2969.98922	1.22255
2968.06066	1.22818
2966.13209	1.23493
2964.20353	1.24003
2962.27496	1.24086
2960.34640	1.23844
2958.41783	1.23436
2956.48927	1.22942
2954.56071	1.22470
2952.63214	1.22042
2950.70358	1.21644
2948.77501	1.21391
2946.84645	1.21414
2944.91788	1.21670
2942.98932	1.22035
2941.06075	1.22476
2939.13219	1.23048
2937.20363	1.23679
2935.27506	1.24196
2933.34650	1.24654
2931.41793	1.25198
2929.48937	1.25823
2927.56080	1.26384
2925.63224	1.26686
2923.70367	1.26717
2921.77511	1.26650
2919.84655	1.26533
2917.91798	1.26074
2915.98942	1.24930
2914.06085	1.23285
2912.13229	1.21564
2910.20372	1.19948
2908.27516	1.18632
2906.34659	1.17792
2904.41803	1.17319
2902.48947	1.17038
2900.56090	1.16829
2898.63234	1.16603
2896.70377	1.16413
2894.77521	1.16244
2892.84664	1.16003
2890.91808	1.15714
2888.98952	1.15492
2887.06095	1.15476
2885.13239	1.15559
2883.20382	1.15505
2881.27526	1.15364
2879.34669	1.15270
2877.41813	1.15208
2875.48956	1.15079
2873.56100	1.14774
2871.63244	1.14319
2869.70387	1.13742
2867.77531	1.13049
2865.84674	1.12423
2863.91818	1.11983
2861.98961	1.11682
2860.06105	1.11620
2858.13248	1.11954
2856.20392	1.12581
2854.27536	1.13175
2852.34679	1.13503
2850.41823	1.13351
2848.48966	1.12289
2846.56110	1.10324
2844.63253	1.08110
2842.70397	1.06206
2840.77540	1.04857
2838.84684	1.03980
2836.91828	1.03268
2834.98971	1.02665
2833.06115	1.02253
2831.13258	1.01956
2829.20402	1.01731
2827.27545	1.01530
2825.34689	1.01269
2823.41832	1.00996
2821.48976	1.00765
2819.56120	1.00536
2817.63263	1.00313
2815.70407	1.00087
2813.77550	0.99797
2811.84694	0.99505
2809.91837	0.99294
2807.98981	0.99020
2806.06124	0.98592
2804.13268	0.98170
2802.20412	0.97851
2800.27555	0.97512
2798.34699	0.97113
2796.41842	0.96781
2794.48986	0.96502
2792.56129	0.96146
2790.63273	0.95762
2788.70416	0.95509
2786.77560	0.95368
2784.84704	0.95161
2782.91847	0.94841
2780.98991	0.94541
2779.06134	0.94360
2777.13278	0.94201
2775.20421	0.93923
2773.27565	0.93601
2771.34708	0.93380
2769.41852	0.93232
2767.48996	0.93077
2765.56139	0.92938
2763.63283	0.92835
2761.70426	0.92709
2759.77570	0.92544
2757.84713	0.92448
2755.91857	0.92472
2753.99001	0.92508
2752.06144	0.92402
2750.13288	0.92191
2748.20431	0.92066
2746.27575	0.92008
2744.34718	0.91855
2742.41862	0.91676
2740.49005	0.91608
2738.56149	0.91530
2736.63293	0.91285
2734.70436	0.90975
2732.77580	0.90752
2730.84723	0.90566
2728.91867	0.90324
2726.99010	0.90022
2725.06154	0.89671
2723.13297	0.89305
2721.20441	0.88981
2719.27585	0.88675
2717.34728	0.88341
2715.41872	0.88007
2713.49015	0.87693
2711.56159	0.87370
2709.63302	0.87026
2707.70446	0.86677
2705.77589	0.86366
2703.84733	0.86165
2701.91877	0.86089
2699.99020	0.86028
2698.06164	0.85893
2696.13307	0.85750
2694.20451	0.85678
2692.27594	0.85645
2690.34738	0.85581
2688.41881	0.85486
2686.49025	0.85444
2684.56169	0.85506
2682.63312	0.85584
2680.70456	0.85584
2678.77599	0.85520
2676.84743	0.85426
2674.91886	0.85316
2672.99030	0.85251
2671.06173	0.85234
2669.13317	0.85167
2667.20461	0.85058
2665.27604	0.84984
2663.34748	0.84904
2661.41891	0.84756
2659.49035	0.84572
2657.56178	0.84386
2655.63322	0.84215
2653.70465	0.84049
2651.77609	0.83854
2649.84753	0.83657
2647.91896	0.83503
2645.99040	0.83358
2644.06183	0.83205
2642.13327	0.83068
2640.20470	0.82908
2638.27614	0.82704
2636.34757	0.82530
2634.41901	0.82425
2632.49045	0.82378
2630.56188	0.82353
2628.63332	0.82278
2626.70475	0.82173
2624.77619	0.82115
2622.84762	0.82086
2620.91906	0.82047
2618.99049	0.82026
2617.06193	0.82039
2615.13337	0.82028
2613.20480	0.81933
2611.27624	0.81791
2609.34767	0.81685
2607.41911	0.81621
2605.49054	0.81560
2603.56198	0.81475
2601.63342	0.81358
2599.70485	0.81209
2597.77629	0.81040
2595.84772	0.80865
2593.91916	0.80682
2591.99059	0.80498
2590.06203	0.80349
2588.13346	0.80225
2586.20490	0.80068
2584.27634	0.79838
2582.34777	0.79543
2580.41921	0.79258
2578.49064	0.79032
2576.56208	0.78824
2574.63351	0.78607
2572.70495	0.78404
2570.77638	0.78224
2568.84782	0.78022
2566.91926	0.77793
2564.99069	0.77614
2563.06213	0.77498
2561.13356	0.77362
2559.20500	0.77181
2557.27643	0.77020
2555.34787	0.76937
2553.41930	0.76904
2551.49074	0.76871
2549.56218	0.76828
2547.63361	0.76782
2545.70505	0.76752
2543.77648	0.76741
2541.84792	0.76689
2539.91935	0.76593
2537.99079	0.76528
2536.06222	0.76501
2534.13366	0.76489
2532.20510	0.76480
2530.27653	0.76419
2528.34797	0.76311
2526.41940	0.76220
2524.49084	0.76129
2522.56227	0.76016
2520.63371	0.75892
2518.70514	0.75732
2516.77658	0.75521
2514.84802	0.75299
2512.91945	0.75136
2510.99089	0.75027
2509.06232	0.74878
2507.13376	0.74674
2505.20519	0.74493
2503.27663	0.74346
2501.34806	0.74183
2499.41950	0.74012
2497.49094	0.73876
2495.56237	0.73774
2493.63381	0.73657
2491.70524	0.73513
2489.77668	0.73392
2487.84811	0.73301
2485.91955	0.73197
2483.99098	0.73095
2482.06242	0.73048
2480.13386	0.73048
2478.20529	0.73025
2476.27673	0.72928
2474.34816	0.72813
2472.41960	0.72754
2470.49103	0.72726
2468.56247	0.72686
2466.63391	0.72640
2464.70534	0.72584
2462.77678	0.72508
2460.84821	0.72434
2458.91965	0.72355
2456.99108	0.72225
2455.06252	0.72023
2453.13395	0.71794
2451.20539	0.71589
2449.27683	0.71403
2447.34826	0.71213
2445.41970	0.71018
2443.49113	0.70808
2441.56257	0.70577
2439.63400	0.70351
2437.70544	0.70136
2435.77687	0.69903
2433.84831	0.69657
2431.91975	0.69419
2429.99118	0.69202
2428.06262	0.69024
2426.13405	0.68890
2424.20549	0.68779
2422.27692	0.68685
2420.34836	0.68593
2418.41979	0.68480
2416.49123	0.68369
2414.56267	0.68302
2412.63410	0.68278
2410.70554	0.68270
2408.77697	0.68238
2406.84841	0.68171
2404.91984	0.68102
2402.99128	0.68059
2401.06271	0.68028
2399.13415	0.67994
2397.20559	0.67955
2395.27702	0.67912
2393.34846	0.67879
2391.41989	0.67846
2389.49133	0.67776
2387.56276	0.67691
2385.63420	0.67654
2383.70563	0.67665
2381.77707	0.67665
2379.84851	0.67641
2377.91994	0.67633
2375.99138	0.67613
2374.06281	0.67513
2372.13425	0.67373
2370.20568	0.67302
2368.27712	0.67299
2366.34855	0.67230
2364.41999	0.66958
2362.49143	0.66659
2360.56286	0.66612
2358.63430	0.66601
2356.70573	0.66417
2354.77717	0.66296
2352.84860	0.66303
2350.92004	0.66318
2348.99147	0.66333
2347.06291	0.66325
2345.13435	0.66256
2343.20578	0.66162
2341.27722	0.66044
2339.34865	0.65953
2337.42009	0.65948
2335.49152	0.65905
2333.56296	0.65776
2331.63440	0.65746
2329.70583	0.65910
2327.77727	0.66026
2325.84870	0.65961
2323.92014	0.65887
2321.99157	0.65899
2320.06301	0.65897
2318.13444	0.65822
2316.20588	0.65699
2314.27732	0.65547
2312.34875	0.65418
2310.42019	0.65342
2308.49162	0.65246
2306.56306	0.65097
2304.63449	0.64952
2302.70593	0.64829
2300.77736	0.64703
2298.84880	0.64561
2296.92024	0.64402
2294.99167	0.64242
2293.06311	0.64087
2291.13454	0.63943
2289.20598	0.63832
2287.27741	0.63741
2285.34885	0.63639
2283.42028	0.63535
2281.49172	0.63461
2279.56316	0.63422
2277.63459	0.63406
2275.70603	0.63377
2273.77746	0.63309
2271.84890	0.63254
2269.92033	0.63250
2267.99177	0.63257
2266.06320	0.63265
2264.13464	0.63278
2262.20608	0.63276
2260.27751	0.63283
2258.34895	0.63335
2256.42038	0.63405
2254.49182	0.63453
2252.56325	0.63474
2250.63469	0.63483
2248.70612	0.63494
2246.77756	0.63528
2244.84900	0.63601
2242.92043	0.63672
2240.99187	0.63693
2239.06330	0.63692
2237.13474	0.63698
2235.20617	0.63701
2233.27761	0.63694
2231.34904	0.63682
2229.42048	0.63675
2227.49192	0.63671
2225.56335	0.63635
2223.63479	0.63557
2221.70622	0.63476
2219.77766	0.63413
2217.84909	0.63353
2215.92053	0.63297
2213.99196	0.63247
2212.06340	0.63194
2210.13484	0.63153
2208.20627	0.63139
2206.27771	0.63118
2204.34914	0.63062
2202.42058	0.62997
2200.49201	0.62933
2198.56345	0.62856
2196.63488	0.62779
2194.70632	0.62703
2192.77776	0.62622
2190.84919	0.62547
2188.92063	0.62468
2186.99206	0.62367
2185.06350	0.62247
2183.13493	0.62139
2181.20637	0.62054
2179.27781	0.61969
2177.34924	0.61861
2175.42068	0.61745
2173.49211	0.61631
2171.56355	0.61508
2169.63498	0.61400
2167.70642	0.61317
2165.77785	0.61240
2163.84929	0.61164
2161.92073	0.61094
2159.99216	0.61044
2158.06360	0.61008
2156.13503	0.60963
2154.20647	0.60915
2152.27790	0.60881
2150.34934	0.60843
2148.42077	0.60803
2146.49221	0.60792
2144.56365	0.60791
2142.63508	0.60768
2140.70652	0.60750
2138.77795	0.60765
2136.84939	0.60784
2134.92082	0.60760
2132.99226	0.60725
2131.06369	0.60724
2129.13513	0.60734
2127.20657	0.60730
2125.27800	0.60723
2123.34944	0.60710
2121.42087	0.60680
2119.49231	0.60651
2117.56374	0.60641
2115.63518	0.60638
2113.70661	0.60621
2111.77805	0.60592
2109.84949	0.60563
2107.92092	0.60530
2105.99236	0.60486
2104.06379	0.60437
2102.13523	0.60387
2100.20666	0.60338
2098.27810	0.60305
2096.34953	0.60287
2094.42097	0.60256
2092.49241	0.60214
2090.56384	0.60173
2088.63528	0.60126
2086.70671	0.60073
2084.77815	0.60021
2082.84958	0.59963
2080.92102	0.59913
2078.99245	0.59882
2077.06389	0.59850
2075.13533	0.59797
2073.20676	0.59736
2071.27820	0.59696
2069.34963	0.59675
2067.42107	0.59640
2065.49250	0.59574
2063.56394	0.59502
2061.63537	0.59453
2059.70681	0.59412
2057.77825	0.59341
2055.84968	0.59253
2053.92112	0.59189
2051.99255	0.59141
2050.06399	0.59084
2048.13542	0.59019
2046.20686	0.58946
2044.27830	0.58860
2042.34973	0.58754
2040.42117	0.58641
2038.49260	0.58550
2036.56404	0.58477
2034.63547	0.58398
2032.70691	0.58286
2030.77834	0.58147
2028.84978	0.58013
2026.92122	0.57908
2024.99265	0.57821
2023.06409	0.57716
2021.13552	0.57589
2019.20696	0.57471
2017.27839	0.57362
2015.34983	0.57243
2013.42126	0.57128
2011.49270	0.57037
2009.56414	0.56969
2007.63557	0.56917
2005.70701	0.56862
2003.77844	0.56790
2001.84988	0.56708
1999.92131	0.56633
1997.99275	0.56572
1996.06418	0.56526
1994.13562	0.56469
1992.20706	0.56380
1990.27849	0.56272
1988.34993	0.56170
1986.42136	0.56085
1984.49280	0.56020
1982.56423	0.55953
1980.63567	0.55867
1978.70710	0.55783
1976.77854	0.55726
1974.84998	0.55680
1972.92141	0.55607
1970.99285	0.55510
1969.06428	0.55407
1967.13572	0.55295
1965.20715	0.55182
1963.27859	0.55061
1961.35002	0.54901
1959.42146	0.54708
1957.49290	0.54519
1955.56433	0.54326
1953.63577	0.54106
1951.70720	0.53871
1949.77864	0.53652
1947.85007	0.53458
1945.92151	0.53278
1943.99294	0.53058
1942.06438	0.52773
1940.13582	0.52515
1938.20725	0.52329
1936.27869	0.52179
1934.35012	0.52029
1932.42156	0.51874
1930.49299	0.51739
1928.56443	0.51630
1926.63586	0.51545
1924.70730	0.51461
1922.77874	0.51362
1920.85017	0.51294
1918.92161	0.51249
1916.99304	0.51206
1915.06448	0.51203
1913.13591	0.51218
1911.20735	0.51210
1909.27878	0.51187
1907.35022	0.51159
1905.42166	0.51129
1903.49309	0.51104
1901.56453	0.51076
1899.63596	0.51029
1897.70740	0.50963
1895.77883	0.50878
1893.85027	0.50809
1891.92171	0.50763
1889.99314	0.50679
1888.06458	0.50559
1886.13601	0.50465
1884.20745	0.50374
1882.27888	0.50275
1880.35032	0.50180
1878.42175	0.50078
1876.49319	0.49980
1874.56463	0.49907
1872.63606	0.49851
1870.70750	0.49782
1868.77893	0.49674
1866.85037	0.49592
1864.92180	0.49580
1862.99324	0.49593
1861.06467	0.49597
1859.13611	0.49597
1857.20755	0.49612
1855.27898	0.49633
1853.35042	0.49647
1851.42185	0.49673
1849.49329	0.49708
1847.56472	0.49721
1845.63616	0.49691
1843.70759	0.49615
1841.77903	0.49572
1839.85047	0.49573
1837.92190	0.49550
1835.99334	0.49475
1834.06477	0.49391
1832.13621	0.49324
1830.20764	0.49196
1828.27908	0.49012
1826.35051	0.48864
1824.42195	0.48727
1822.49339	0.48607
1820.56482	0.48505
1818.63626	0.48396
1816.70769	0.48281
1814.77913	0.48179
1812.85056	0.48088
1810.92200	0.47982
1808.99343	0.47872
1807.06487	0.47783
1805.13631	0.47723
1803.20774	0.47673
1801.27918	0.47612
1799.35061	0.47554
1797.42205	0.47527
1795.49348	0.47508
1793.56492	0.47456
1791.63635	0.47398
1789.70779	0.47390
1787.77923	0.47408
1785.85066	0.47417
1783.92210	0.47419
1781.99353	0.47426
1780.06497	0.47434
1778.13640	0.47465
1776.20784	0.47511
1774.27927	0.47558
1772.35071	0.47600
1770.42215	0.47685
1768.49358	0.47835
1766.56502	0.48001
1764.63645	0.48173
1762.70789	0.48396
1760.77932	0.48709
1758.85076	0.49082
1756.92220	0.49568
1754.99363	0.50140
1753.06507	0.50760
1751.13650	0.51612
1749.20794	0.52715
1747.27937	0.53735
1745.35081	0.54600
1743.42224	0.55401
1741.49368	0.56165
1739.56512	0.56882
1737.63655	0.57418
1735.70799	0.57775
1733.77942	0.58169
1731.85086	0.58593
1729.92229	0.58972
1727.99373	0.59370
1726.06516	0.59822
1724.13660	0.60407
1722.20804	0.61057
1720.27947	0.61690
1718.35091	0.62521
1716.42234	0.63819
1714.49378	0.65103
1712.56521	0.66293
1710.63665	0.67648
1708.70808	0.69253
1706.77952	0.71507
1704.85096	0.74483
1702.92239	0.77308
1700.99383	0.81147
1699.06526	0.87052
1697.13670	0.92518
1695.20813	0.97742
1693.27957	1.01638
1691.35100	1.04559
1689.42244	1.07756
1687.49388	1.10548
1685.56531	1.13197
1683.63675	1.16815
1681.70818	1.19000
1679.77962	1.19979
1677.85105	1.20886
1675.92249	1.21811
1673.99392	1.22515
1672.06536	1.22939
1670.13680	1.23156
1668.20823	1.23317
1666.27967	1.23422
1664.35110	1.23432
1662.42254	1.23301
1660.49397	1.23089
1658.56541	1.22903
1656.63684	1.22646
1654.70828	1.22164
1652.77972	1.21375
1650.85115	1.21203
1648.92259	1.21071
1646.99402	1.20357
1645.06546	1.19747
1643.13689	1.19579
1641.20833	1.19458
1639.27976	1.19217
1637.35120	1.18726
1635.42264	1.17896
1633.49407	1.17386
1631.56551	1.17156
1629.63694	1.16731
1627.70838	1.16013
1625.77981	1.15214
1623.85125	1.14348
1621.92269	1.13511
1619.99412	1.12945
1618.06556	1.12265
1616.13699	1.11030
1614.20843	1.09925
1612.27986	1.09038
1610.35130	1.07984
1608.42273	1.06779
1606.49417	1.05725
1604.56561	1.04920
1602.63704	1.04223
1600.70848	1.03638
1598.77991	1.03192
1596.85135	1.02831
1594.92278	1.02550
1592.99422	1.02452
1591.06565	1.02584
1589.13709	1.02923
1587.20853	1.03463
1585.27996	1.04153
1583.35140	1.04967
1581.42283	1.05851
1579.49427	1.06715
1577.56570	1.07723
1575.63714	1.09006
1573.70857	1.09927
1571.78001	1.10591
1569.85145	1.11443
1567.92288	1.12246
1565.99432	1.12790
1564.06575	1.13296
1562.13719	1.13701
1560.20862	1.14080
1558.28006	1.14574
1556.35149	1.14685
1554.42293	1.14628
1552.49437	1.14474
1550.56580	1.14233
1548.63724	1.14004
1546.70867	1.13866
1544.78011	1.13729
1542.85154	1.13455
1540.92298	1.12605
1538.99441	1.11552
1537.06585	1.11276
1535.13729	1.11094
1533.20872	1.10720
1531.28016	1.10354
1529.35159	1.10043
1527.42303	1.09584
1525.49446	1.09003
1523.56590	1.08524
1521.63733	1.08120
1519.70877	1.07804
1517.78021	1.07323
1515.85164	1.06527
1513.92308	1.05712
1511.99451	1.04934
1510.06595	1.04124
1508.13738	1.02767
1506.20882	1.00482
1504.28025	0.99395
1502.35169	0.98793
1500.42313	0.98034
1498.49456	0.96984
1496.56600	0.95748
1494.63743	0.94879
1492.70887	0.94359
1490.78030	0.93700
1488.85174	0.92762
1486.92317	0.92197
1484.99461	0.92016
1483.06605	0.91934
1481.13748	0.91904
1479.20892	0.92020
1477.28035	0.92379
1475.35179	0.93005
1473.42322	0.93899
1471.49466	0.94774
1469.56610	0.95263
1467.63753	0.95549
1465.70897	0.95772
1463.78040	0.95903
1461.85184	0.95931
1459.92327	0.95921
1457.99471	0.95885
1456.06614	0.95749
1454.13758	0.95537
1452.20902	0.95272
1450.28045	0.94933
1448.35189	0.94462
1446.42332	0.93909
1444.49476	0.93397
1442.56619	0.92856
1440.63763	0.92295
1438.70906	0.91714
1436.78050	0.90934
1434.85194	0.90176
1432.92337	0.89668
1430.99481	0.89212
1429.06624	0.88857
1427.13768	0.88778
1425.20911	0.88962
1423.28055	0.89322
1421.35198	0.89730
1419.42342	0.90312
1417.49486	0.91095
1415.56629	0.91650
1413.63773	0.92002
1411.70916	0.92317
1409.78060	0.92663
1407.85203	0.93029
1405.92347	0.93397
1403.99490	0.93718
1402.06634	0.93939
1400.13778	0.94062
1398.20921	0.94082
1396.28065	0.94008
1394.35208	0.93833
1392.42352	0.93651
1390.49495	0.93563
1388.56639	0.93630
1386.63782	0.93900
1384.70926	0.94248
1382.78070	0.94534
1380.85213	0.94616
1378.92357	0.94381
1376.99500	0.93801
1375.06644	0.92750
1373.13787	0.91371
1371.20931	0.90102
1369.28074	0.88803
1367.35218	0.87394
1365.42362	0.86132
1363.49505	0.84988
1361.56649	0.84018
1359.63792	0.83441
1357.70936	0.83160
1355.78079	0.83077
1353.85223	0.83197
1351.92366	0.83488
1349.99510	0.83891
1348.06654	0.84350
1346.13797	0.84848
1344.20941	0.85411
1342.28084	0.86044
1340.35228	0.86803
1338.42371	0.87693
1336.49515	0.88595
1334.56659	0.89519
1332.63802	0.90486
1330.70946	0.91413
1328.78089	0.92162
1326.85233	0.92662
1324.92376	0.92970
1322.99520	0.93189
1321.06663	0.93375
1319.13807	0.93531
1317.20951	0.93603
1315.28094	0.93544
1313.35238	0.93382
1311.42381	0.93143
1309.49525	0.92805
1307.56668	0.92365
1305.63812	0.91860
1303.70955	0.91322
1301.78099	0.90762
1299.85243	0.90162
1297.92386	0.89492
1295.99530	0.88795
1294.06673	0.88209
1292.13817	0.87834
1290.20960	0.87625
1288.28104	0.87471
1286.35247	0.87355
1284.42391	0.87334
1282.49535	0.87417
1280.56678	0.87614
1278.63822	0.87932
1276.70965	0.88335
1274.78109	0.88819
1272.85252	0.89440
1270.92396	0.90201
1268.99539	0.91025
1267.06683	0.91825
1265.13827	0.92534
1263.20970	0.93152
1261.28114	0.93680
1259.35257	0.94064
1257.42401	0.94322
1255.49544	0.94559
1253.56688	0.94803
1251.63831	0.94979
1249.70975	0.95017
1247.78119	0.94935
1245.85262	0.94780
1243.92406	0.94544
1241.99549	0.94210
1240.06693	0.93764
1238.13836	0.93196
1236.20980	0.92548
1234.28123	0.91857
1232.35267	0.91087
1230.42411	0.90191
1228.49554	0.89210
1226.56698	0.88193
1224.63841	0.87161
1222.70985	0.86178
1220.78128	0.85265
1218.85272	0.84432
1216.92415	0.83778
1214.99559	0.83387
1213.06703	0.83260
1211.13846	0.83362
1209.20990	0.83614
1207.28133	0.83849
1205.35277	0.83897
1203.42420	0.83742
1201.49564	0.83504
1199.56708	0.83284
1197.63851	0.83118
1195.70995	0.83043
1193.78138	0.83109
1191.85282	0.83331
1189.92425	0.83686
1187.99569	0.84120
1186.06712	0.84598
1184.13856	0.85135
1182.21000	0.85754
1180.28143	0.86487
1178.35287	0.87346
1176.42430	0.88231
1174.49574	0.89036
1172.56717	0.89783
1170.63861	0.90560
1168.71004	0.91399
1166.78148	0.92283
1164.85292	0.93142
1162.92435	0.93804
1160.99579	0.94086
1159.06722	0.93903
1157.13866	0.93225
1155.21009	0.92091
1153.28153	0.90670
1151.35296	0.89163
1149.42440	0.87723
1147.49584	0.86463
1145.56727	0.85479
1143.63871	0.84823
1141.71014	0.84554
1139.78158	0.84725
1137.85301	0.85284
1135.92445	0.86128
1133.99588	0.87207
1132.06732	0.88514
1130.13876	0.90074
1128.21019	0.91841
1126.28163	0.93606
1124.35306	0.95169
1122.42450	0.96524
1120.49593	0.97691
1118.56737	0.98602
1116.63880	0.99198
1114.71024	0.99437
1112.78168	0.99408
1110.85311	0.99343
1108.92455	0.99381
1106.99598	0.99526
1105.06742	0.99766
1103.13885	1.00091
1101.21029	1.00439
1099.28172	1.00796
1097.35316	1.01253
1095.42460	1.01857
1093.49603	1.02563
1091.56747	1.03244
1089.63890	1.03793
1087.71034	1.04274
1085.78177	1.04758
1083.85321	1.05050
1081.92464	1.05021
1079.99608	1.04850
1078.06752	1.04557
1076.13895	1.04010
1074.21039	1.03260
1072.28182	1.02392
1070.35326	1.01450
1068.42469	1.00527
1066.49613	0.99668
1064.56756	0.98816
1062.63900	0.97939
1060.71044	0.97086
1058.78187	0.96350
1056.85331	0.95795
1054.92474	0.95378
1052.99618	0.95040
1051.06761	0.94789
1049.13905	0.94643
1047.21049	0.94646
1045.28192	0.94828
1043.35336	0.95100
1041.42479	0.95365
1039.49623	0.95561
1037.56766	0.95605
1035.63910	0.95459
1033.71053	0.95186
1031.78197	0.94817
1029.85341	0.94245
1027.92484	0.93411
1025.99628	0.92460
1024.06771	0.91529
1022.13915	0.90593
1020.21058	0.89640
1018.28202	0.88723
1016.35345	0.87789
1014.42489	0.86724
1012.49633	0.85499
1010.56776	0.84117
1008.63920	0.82616
1006.71063	0.81086
1004.78207	0.79595
1002.85350	0.78211
1000.92494	0.77016
998.99637	0.76050
997.06781	0.75300
995.13925	0.74718
993.21068	0.74221
991.28212	0.73724
989.35355	0.73231
987.42499	0.72835
985.49642	0.72609
983.56786	0.72570
981.63929	0.72711
979.71073	0.72983
977.78217	0.73291
975.85360	0.73564
973.92504	0.73732
971.99647	0.73727
970.06791	0.73568
968.13934	0.73326
966.21078	0.73107
964.28221	0.73064
962.35365	0.73321
960.42509	0.73939
958.49652	0.74867
956.56796	0.75804
954.63939	0.76321
952.71083	0.76241
950.78226	0.75715
948.85370	0.75021
946.92513	0.74423
944.99657	0.74064
943.06801	0.73901
941.13944	0.73797
939.21088	0.73685
937.28231	0.73567
935.35375	0.73422
933.42518	0.73220
931.49662	0.72933
929.56805	0.72583
927.63949	0.72211
925.71093	0.71760
923.78236	0.71186
921.85380	0.70549
919.92523	0.69880
917.99667	0.69150
916.06810	0.68379
914.13954	0.67630
912.21098	0.66950
910.28241	0.66384
908.35385	0.65966
906.42528	0.65707
904.49672	0.65580
902.56815	0.65530
900.63959	0.65490
898.71102	0.65447
896.78246	0.65414
894.85390	0.65370
892.92533	0.65312
890.99677	0.65273
889.06820	0.65302
887.13964	0.65449
885.21107	0.65712
883.28251	0.66040
881.35394	0.66437
879.42538	0.66922
877.49682	0.67473
875.56825	0.68043
873.63969	0.68611
871.71112	0.69182
869.78256	0.69743
867.85399	0.70278
865.92543	0.70810
863.99686	0.71363
862.06830	0.71938
860.13974	0.72493
858.21117	0.72996
856.28261	0.73485
854.35404	0.73981
852.42548	0.74420
850.49691	0.74756
848.56835	0.75054
846.63978	0.75341
844.71122	0.75578
842.78266	0.75809
840.85409	0.76087
838.92553	0.76352
836.99696	0.76555
835.06840	0.76749
833.13983	0.76975
831.21127	0.77192
829.28270	0.77376
827.35414	0.77556
825.42558	0.77710
823.49701	0.77799
821.56845	0.77896
819.63988	0.78089
817.71132	0.78354
815.78275	0.78631
813.85419	0.78913
811.92562	0.79211
809.99706	0.79509
808.06850	0.79751
806.13993	0.79903
804.21137	0.80011
802.28280	0.80074
800.35424	0.80039
798.42567	0.79928
796.49711	0.79757
794.56854	0.79474
792.63998	0.79080
790.71142	0.78661
788.78285	0.78243
786.85429	0.77761
784.92572	0.77166
782.99716	0.76488
781.06859	0.75806
779.14003	0.75150
777.21147	0.74528
775.28290	0.73992
773.35434	0.73507
771.42577	0.72981
769.49721	0.72461
767.56864	0.72062
765.64008	0.71803
763.71151	0.71627
761.78295	0.71492
759.85439	0.71418
757.92582	0.71477
755.99726	0.71690
754.06869	0.72022
752.14013	0.72466
750.21156	0.73050
748.28300	0.73809
746.35443	0.74752
744.42587	0.75845
742.49731	0.77041
740.56874	0.78347
738.64018	0.79818
736.71161	0.81486
734.78305	0.83332
732.85448	0.85344
730.92592	0.87491
728.99735	0.89654
727.06879	0.91760
725.14023	0.93818
723.21166	0.95759
721.28310	0.97504
719.35453	0.98978
717.42597	0.99996
715.49740	1.00525
713.56884	1.00711
711.64027	1.00605
709.71171	1.00169
707.78315	0.99400
705.85458	0.98371
703.92602	0.97171
701.99745	0.95808
700.06889	0.94281
698.14032	0.92681
696.21176	0.91041
694.28319	0.89351
692.35463	0.87774
690.42607	0.86466
688.49750	0.85323
686.56894	0.84251
684.64037	0.83371
682.71181	0.82717
680.78324	0.82231
678.85468	0.81924
676.92611	0.81795
674.99755	0.81852
673.06899	0.82098
671.14042	0.82410
669.21186	0.82851
667.28329	0.83764
665.35473	0.84751
663.42616	0.85635
661.49760	0.86527
659.56903	0.87421
657.64047	0.88287
655.71191	0.89105
653.78334	0.89953
651.85478	0.90814
649.92621	0.91514
647.99765	0.91962
646.06908	0.92240
644.14052	0.92395
642.21195	0.92396
640.28339	0.92219
638.35483	0.91852
636.42626	0.91339
634.49770	0.90709
632.56913	0.89981
630.64057	0.89237
628.71200	0.88507
626.78344	0.87705
624.85488	0.86809
622.92631	0.85983
620.99775	0.85408
619.06918	0.85028
617.14062	0.84672
615.21205	0.84357
613.28349	0.84106
611.35492	0.83857
609.42636	0.83689
607.49780	0.83668
605.56923	0.83716
603.64067	0.83851
601.71210	0.84166
599.78354	0.84713
