3997.91406	0.91760
3995.98550	0.91585
3994.05693	0.91289
3992.12837	0.91043
3990.19980	0.90947
3988.27124	0.90978
3986.34268	0.91074
3984.41411	0.91098
3982.48555	0.91122
3980.55698	0.91319
3978.62842	0.91475
3976.69985	0.91400
3974.77129	0.91314
3972.84272	0.91317
3970.91416	0.91270
3968.98560	0.91151
3967.05703	0.91029
3965.12847	0.90961
3963.19990	0.90841
3961.27134	0.90603
3959.34277	0.90463
3957.41421	0.90495
3955.48564	0.90602
3953.55708	0.90713
3951.62852	0.90713
3949.69995	0.90572
3947.77139	0.90376
3945.84282	0.90127
3943.91426	0.89754
3941.98569	0.89501
3940.05713	0.89667
3938.12856	0.89943
3936.20000	0.90056
3934.27144	0.90151
3932.34287	0.90178
3930.41431	0.89989
3928.48574	0.89866
3926.55718	0.89874
3924.62861	0.89840
3922.70005	0.89803
3920.77148	0.89817
3918.84292	0.89689
3916.91436	0.89434
3914.98579	0.89404
3913.05723	0.89476
3911.12866	0.89489
3909.20010	0.89654
3907.27153	0.89940
3905.34297	0.90040
3903.41440	0.89866
3901.48584	0.89779
3899.55728	0.89884
3897.62871	0.89855
3895.70015	0.89704
3893.77158	0.89523
3891.84302	0.89261
3889.91445	0.89146
3887.98589	0.89203
3886.05733	0.89273
3884.12876	0.89428
3882.20020	0.89611
3880.27163	0.89671
3878.34307	0.89575
3876.41450	0.89353
3874.48594	0.89121
3872.55737	0.89058
3870.62881	0.89068
3868.70025	0.89077
3866.77168	0.89167
3864.84312	0.89183
3862.91455	0.89026
3860.98599	0.88920
3859.05742	0.88889
3857.12886	0.88874
3855.20029	0.88742
3853.27173	0.88183
3851.34317	0.87897
3849.41460	0.87930
3847.48604	0.87937
3845.55747	0.88063
3843.62891	0.88309
3841.70034	0.88253
3839.77178	0.87917
3837.84321	0.87903
3835.91465	0.87886
3833.98609	0.87488
3832.05752	0.87179
3830.12896	0.87329
3828.20039	0.87691
3826.27183	0.87792
3824.34326	0.87639
3822.41470	0.87572
3820.48613	0.87503
3818.55757	0.87211
3816.62901	0.86950
3814.70044	0.87043
3812.77188	0.87307
3810.84331	0.87462
3808.91475	0.87404
3806.98618	0.87099
3805.05762	0.86873
3803.12905	0.86826
3801.20049	0.86798
3799.27193	0.86863
3797.34336	0.87024
3795.41480	0.87182
3793.48623	0.87264
3791.55767	0.87274
3789.62910	0.87253
3787.70054	0.87238
3785.77197	0.87220
3783.84341	0.87235
3781.91485	0.87286
3779.98628	0.87113
3778.05772	0.86698
3776.12915	0.86440
3774.20059	0.86434
3772.27202	0.86603
3770.34346	0.86873
3768.41489	0.87058
3766.48633	0.87013
3764.55777	0.86899
3762.62920	0.86878
3760.70064	0.86879
3758.77207	0.86794
3756.84351	0.86613
3754.91494	0.86357
3752.98638	0.85904
3751.05781	0.85275
3749.12925	0.85238
3747.20069	0.85629
3745.27212	0.85910
3743.34356	0.85934
3741.41499	0.85924
3739.48643	0.85977
3737.55786	0.85992
3735.62930	0.85702
3733.70074	0.85275
3731.77217	0.85335
3729.84361	0.85559
3727.91504	0.85550
3725.98648	0.85338
3724.05791	0.85213
3722.12935	0.85241
3720.20078	0.85298
3718.27222	0.85358
3716.34366	0.85389
3714.41509	0.85394
3712.48653	0.85564
3710.55796	0.85835
3708.62940	0.85599
3706.70083	0.85193
3704.77227	0.84977
3702.84370	0.84821
3700.91514	0.84778
3698.98658	0.85059
3697.05801	0.85463
3695.12945	0.85688
3693.20088	0.85632
3691.27232	0.85382
3689.34375	0.85186
3687.41519	0.85338
3685.48662	0.85580
3683.55806	0.85742
3681.62950	0.85889
3679.70093	0.86086
3677.77237	0.86282
3675.84380	0.86516
3673.91524	0.86868
3671.98667	0.87094
3670.05811	0.87299
3668.12954	0.87660
3666.20098	0.87978
3664.27242	0.88279
3662.34385	0.88720
3660.41529	0.89236
3658.48672	0.89714
3656.55816	0.90268
3654.62959	0.90797
3652.70103	0.91200
3650.77246	0.91664
3648.84390	0.92089
3646.91534	0.92358
3644.98677	0.92753
3643.05821	0.93301
3641.12964	0.93919
3639.20108	0.94439
3637.27251	0.94873
3635.34395	0.95429
3633.41538	0.96091
3631.48682	0.96607
3629.55826	0.97133
3627.62969	0.97925
3625.70113	0.98472
3623.77256	0.98709
3621.84400	0.98852
3619.91543	0.99276
3617.98687	1.00016
3616.05830	1.00585
3614.12974	1.01125
3612.20118	1.01806
3610.27261	1.02418
3608.34405	1.02882
3606.41548	1.03251
3604.48692	1.03619
3602.55835	1.04066
3600.62979	1.04651
3598.70123	1.05301
3596.77266	1.05837
3594.84410	1.06400
3592.91553	1.06902
3590.98697	1.06957
3589.05840	1.06907
3587.12984	1.07462
3585.20127	1.08341
3583.27271	1.08897
3581.34415	1.09183
3579.41558	1.09427
3577.48702	1.09789
3575.55845	1.10287
3573.62989	1.10892
3571.70132	1.11505
3569.77276	1.11886
3567.84419	1.12004
3565.91563	1.12378
3563.98707	1.12997
3562.05850	1.13494
3560.12994	1.13827
3558.20137	1.14041
3556.27281	1.14172
3554.34424	1.14391
3552.41568	1.14963
3550.48711	1.15509
3548.55855	1.15733
3546.62999	1.16056
3544.70142	1.16543
3542.77286	1.16939
3540.84429	1.17254
3538.91573	1.17542
3536.98716	1.17908
3535.05860	1.18134
3533.13003	1.18023
3531.20147	1.17986
3529.27291	1.18201
3527.34434	1.18427
3525.41578	1.18661
3523.48721	1.18937
3521.55865	1.19305
3519.63008	1.19842
3517.70152	1.20341
3515.77295	1.20722
3513.84439	1.21251
3511.91583	1.21933
3509.98726	1.22458
3508.05870	1.22743
3506.13013	1.22859
3504.20157	1.22944
3502.27300	1.23230
3500.34444	1.23600
3498.41587	1.23910
3496.48731	1.24327
3494.55875	1.24932
3492.63018	1.25465
3490.70162	1.25707
3488.77305	1.25697
3486.84449	1.25582
3484.91592	1.25675
3482.98736	1.26199
3481.05879	1.26929
3479.13023	1.27391
3477.20167	1.27463
3475.27310	1.27398
3473.34454	1.27324
3471.41597	1.27202
3469.48741	1.27128
3467.55884	1.27219
3465.63028	1.27318
3463.70171	1.27267
3461.77315	1.27317
3459.84459	1.27519
3457.91602	1.27485
3455.98746	1.27226
3454.05889	1.27200
3452.13033	1.27480
3450.20176	1.27598
3448.27320	1.27414
3446.34464	1.27377
3444.41607	1.27645
3442.48751	1.27950
3440.55894	1.28100
3438.63038	1.27960
3436.70181	1.27581
3434.77325	1.27343
3432.84468	1.27529
3430.91612	1.27901
3428.98756	1.28134
3427.05899	1.28254
3425.13043	1.28282
3423.20186	1.28275
3421.27330	1.28332
3419.34473	1.28266
3417.41617	1.28063
3415.48760	1.27998
3413.55904	1.28145
3411.63048	1.28309
3409.70191	1.28396
3407.77335	1.28562
3405.84478	1.28839
3403.91622	1.29019
3401.98765	1.28934
3400.05909	1.28875
3398.13052	1.29071
3396.20196	1.29223
3394.27340	1.29301
3392.34483	1.29425
3390.41627	1.29502
3388.48770	1.29571
3386.55914	1.29609
3384.63057	1.29543
3382.70201	1.29543
3380.77344	1.29820
3378.84488	1.30187
3376.91632	1.30185
3374.98775	1.29879
3373.05919	1.29812
3371.13062	1.29928
3369.20206	1.29905
3367.27349	1.29950
3365.34493	1.30012
3363.41636	1.29906
3361.48780	1.29851
3359.55924	1.29778
3357.63067	1.29606
3355.70211	1.29701
3353.77354	1.30172
3351.84498	1.30471
3349.91641	1.30269
3347.98785	1.29995
3346.05928	1.29943
3344.13072	1.29994
3342.20216	1.29994
3340.27359	1.29786
3338.34503	1.29490
3336.41646	1.29375
3334.48790	1.29367
3332.55933	1.29339
3330.63077	1.29406
3328.70220	1.29710
3326.77364	1.30116
3324.84508	1.30302
3322.91651	1.30354
3320.98795	1.30416
3319.05938	1.30233
3317.13082	1.29976
3315.20225	1.30036
3313.27369	1.30194
3311.34513	1.30163
3309.41656	1.30221
3307.48800	1.30569
3305.55943	1.30755
3303.63087	1.30645
3301.70230	1.30679
3299.77374	1.30827
3297.84517	1.30935
3295.91661	1.31231
3293.98805	1.31604
3292.05948	1.31793
3290.13092	1.31912
3288.20235	1.31958
3286.27379	1.31891
3284.34522	1.31884
3282.41666	1.31961
3280.48809	1.32168
3278.55953	1.32541
3276.63097	1.32857
3274.70240	1.32963
3272.77384	1.32814
3270.84527	1.32524
3268.91671	1.32336
3266.98814	1.32117
3265.05958	1.31855
3263.13101	1.32000
3261.20245	1.32446
3259.27389	1.32557
3257.34532	1.32176
3255.41676	1.31618
3253.48819	1.31277
3251.55963	1.31319
3249.63106	1.31452
3247.70250	1.31354
3245.77393	1.30985
3243.84537	1.30524
3241.91681	1.30228
3239.98824	1.30090
3238.05968	1.29996
3236.13111	1.29992
3234.20255	1.29964
3232.27398	1.29613
3230.34542	1.28994
3228.41685	1.28699
3226.48829	1.28877
3224.55973	1.28793
3222.63116	1.28170
3220.70260	1.27597
3218.77403	1.27421
3216.84547	1.27525
3214.91690	1.27776
3212.98834	1.27983
3211.05977	1.27949
3209.13121	1.27728
3207.20265	1.27363
3205.27408	1.26876
3203.34552	1.26568
3201.41695	1.26755
3199.48839	1.27232
3197.55982	1.27421
3195.63126	1.27080
3193.70269	1.26445
3191.77413	1.25921
3189.84557	1.25737
3187.91700	1.25698
3185.98844	1.25586
3184.05987	1.25346
3182.13131	1.25001
3180.20274	1.24788
3178.27418	1.24837
3176.34562	1.24852
3174.41705	1.24629
3172.48849	1.24410
3170.55992	1.24248
3168.63136	1.23963
3166.70279	1.23608
3164.77423	1.23313
3162.84566	1.23236
3160.91710	1.23450
3158.98854	1.23703
3157.05997	1.23761
3155.13141	1.23602
3153.20284	1.23255
3151.27428	1.22884
3149.34571	1.22707
3147.41715	1.22766
3145.48858	1.22933
3143.56002	1.22996
3141.63146	1.22912
3139.70289	1.22838
3137.77433	1.22862
3135.84576	1.22935
3133.91720	1.22910
3131.98863	1.22789
3130.06007	1.22774
3128.13150	1.22881
3126.20294	1.22969
3124.27438	1.23042
3122.34581	1.23127
3120.41725	1.23102
3118.48868	1.22910
3116.56012	1.22672
3114.63155	1.22534
3112.70299	1.22561
3110.77442	1.22648
3108.84586	1.22607
3106.91730	1.22484
3104.98873	1.22440
3103.06017	1.22454
3101.13160	1.22440
3099.20304	1.22307
3097.27447	1.21973
3095.34591	1.21562
3093.41734	1.21284
3091.48878	1.21161
3089.56022	1.21130
3087.63165	1.21167
3085.70309	1.21183
3083.77452	1.21057
3081.84596	1.20832
3079.91739	1.20625
3077.98883	1.20500
3076.06026	1.20424
3074.13170	1.20236
3072.20314	1.19923
3070.27457	1.19685
3068.34601	1.19599
3066.41744	1.19630
3064.48888	1.19721
3062.56031	1.19791
3060.63175	1.19699
3058.70318	1.19363
3056.77462	1.18900
3054.84606	1.18429
3052.91749	1.17953
3050.98893	1.17523
3049.06036	1.17269
3047.13180	1.17192
3045.20323	1.17054
3043.27467	1.16718
3041.34610	1.16331
3039.41754	1.15988
3037.48898	1.15568
3035.56041	1.15131
3033.63185	1.14917
3031.70328	1.14837
3029.77472	1.14615
3027.84615	1.14279
3025.91759	1.14041
3023.98903	1.13987
3022.06046	1.14022
3020.13190	1.13990
3018.20333	1.13843
3016.27477	1.13688
3014.34620	1.13580
3012.41764	1.13492
3010.48907	1.13408
3008.56051	1.13262
3006.63195	1.12989
3004.70338	1.12661
3002.77482	1.12512
3000.84625	1.12583
2998.91769	1.12629
2996.98912	1.12586
2995.06056	1.12616
2993.13199	1.12789
2991.20343	1.13024
2989.27487	1.13262
2987.34630	1.13445
2985.41774	1.13604
2983.48917	1.13885
2981.56061	1.14231
2979.63204	1.14605
2977.70348	1.15106
2975.77491	1.15641
2973.84635	1.16093
2971.91779	1.16530
2969.98922	1.17094
2968.06066	1.17704
2966.13209	1.18080
2964.20353	1.18266
2962.27496	1.18497
2960.34640	1.18682
2958.41783	1.18649
2956.48927	1.18481
2954.56071	1.18235
2952.63214	1.17927
2950.70358	1.17693
2948.77501	1.17648
2946.84645	1.17815
2944.91788	1.18124
2942.98932	1.18531
2941.06075	1.19165
2939.13219	1.20052
2937.20363	1.20901
2935.27506	1.21485
2933.34650	1.21945
2931.41793	1.22411
2929.48937	1.22816
2927.56080	1.23233
2925.63224	1.23775
2923.70367	1.24313
2921.77511	1.24690
2919.84655	1.24834
2917.91798	1.24602
2915.98942	1.23757
2914.06085	1.22383
2912.13229	1.20967
2910.20372	1.19811
2908.27516	1.18925
2906.34659	1.18223
2904.41803	1.17631
2902.48947	1.17232
2900.56090	1.16933
2898.63234	1.16525
2896.70377	1.16208
2894.77521	1.16133
2892.84664	1.15932
2890.91808	1.15415
2888.98952	1.14911
2887.06095	1.14590
2885.13239	1.14309
2883.20382	1.13995
2881.27526	1.13726
2879.34669	1.13649
2877.41813	1.13765
2875.48956	1.13811
2873.56100	1.13631
2871.63244	1.13348
2869.70387	1.13001
2867.77531	1.12546
2865.84674	1.12138
2863.91818	1.11967
2861.98961	1.12081
2860.06105	1.12433
2858.13248	1.12930
2856.20392	1.13503
2854.27536	1.14143
2852.34679	1.14790
2850.41823	1.15010
2848.48966	1.14125
2846.56110	1.12141
2844.63253	1.09885
2842.70397	1.08086
2840.77540	1.06897
2838.84684	1.06047
2836.91828	1.05248
2834.98971	1.04481
2833.06115	1.03892
2831.13258	1.03479
2829.20402	1.03098
2827.27545	1.02708
2825.34689	1.02309
2823.41832	1.01886
2821.48976	1.01461
2819.56120	1.01049
2817.63263	1.00712
2815.70407	1.00453
2813.77550	1.00175
2811.84694	0.99888
2809.91837	0.99639
2807.98981	0.99383
2806.06124	0.99092
2804.13268	0.98817
2802.20412	0.98559
2800.27555	0.98278
2798.34699	0.98026
2796.41842	0.97856
2794.48986	0.97682
2792.56129	0.97394
2790.63273	0.97094
2788.70416	0.96880
2786.77560	0.96666
2784.84704	0.96408
2782.91847	0.96134
2780.98991	0.95866
2779.06134	0.95618
2777.13278	0.95433
2775.20421	0.95318
2773.27565	0.95189
2771.34708	0.95013
2769.41852	0.94818
2767.48996	0.94592
2765.56139	0.94325
2763.63283	0.94045
2761.70426	0.93811
2759.77570	0.93625
2757.84713	0.93462
2755.91857	0.93358
2753.99001	0.93270
2752.06144	0.93138
2750.13288	0.93039
2748.20431	0.93002
2746.27575	0.92925
2744.34718	0.92767
2742.41862	0.92611
2740.49005	0.92527
2738.56149	0.92423
2736.63293	0.92243
2734.70436	0.92081
2732.77580	0.91966
2730.84723	0.91839
2728.91867	0.91707
2726.99010	0.91590
2725.06154	0.91471
2723.13297	0.91360
2721.20441	0.91255
2719.27585	0.91148
2717.34728	0.91079
2715.41872	0.91056
2713.49015	0.91033
2711.56159	0.90978
2709.63302	0.90896
2707.70446	0.90807
2705.77589	0.90712
2703.84733	0.90646
2701.91877	0.90608
2699.99020	0.90528
2698.06164	0.90399
2696.13307	0.90264
2694.20451	0.90149
2692.27594	0.90073
2690.34738	0.90007
2688.41881	0.89884
2686.49025	0.89740
2684.56169	0.89650
2682.63312	0.89549
2680.70456	0.89394
2678.77599	0.89252
2676.84743	0.89104
2674.91886	0.88865
2672.99030	0.88586
2671.06173	0.88369
2669.13317	0.88222
2667.20461	0.88110
2665.27604	0.87989
2663.34748	0.87801
2661.41891	0.87584
2659.49035	0.87432
2657.56178	0.87344
2655.63322	0.87248
2653.70465	0.87113
2651.77609	0.86964
2649.84753	0.86830
2647.91896	0.86733
2645.99040	0.86676
2644.06183	0.86602
2642.13327	0.86486
2640.20470	0.86396
2638.27614	0.86315
2636.34757	0.86171
2634.41901	0.86021
2632.49045	0.85926
2630.56188	0.85841
2628.63332	0.85724
2626.70475	0.85591
2624.77619	0.85434
2622.84762	0.85240
2620.91906	0.85039
2618.99049	0.84863
2617.06193	0.84743
2615.13337	0.84648
2613.20480	0.84486
2611.27624	0.84282
2609.34767	0.84078
2607.41911	0.83856
2605.49054	0.83634
2603.56198	0.83432
2601.63342	0.83227
2599.70485	0.83024
2597.77629	0.82867
2595.84772	0.82740
2593.91916	0.82593
2591.99059	0.82460
2590.06203	0.82368
2588.13346	0.82273
2586.20490	0.82153
2584.27634	0.82023
2582.34777	0.81926
2580.41921	0.81853
2578.49064	0.81754
2576.56208	0.81650
2574.63351	0.81573
2572.70495	0.81495
2570.77638	0.81402
2568.84782	0.81327
2566.91926	0.81285
2564.99069	0.81256
2563.06213	0.81227
2561.13356	0.81173
2559.20500	0.81045
2557.27643	0.80861
2555.34787	0.80712
2553.41930	0.80608
2551.49074	0.80484
2549.56218	0.80329
2547.63361	0.80186
2545.70505	0.80046
2543.77648	0.79876
2541.84792	0.79695
2539.91935	0.79548
2537.99079	0.79436
2536.06222	0.79318
2534.13366	0.79151
2532.20510	0.78954
2530.27653	0.78797
2528.34797	0.78720
2526.41940	0.78674
2524.49084	0.78594
2522.56227	0.78497
2520.63371	0.78412
2518.70514	0.78322
2516.77658	0.78227
2514.84802	0.78177
2512.91945	0.78172
2510.99089	0.78156
2509.06232	0.78103
2507.13376	0.78059
2505.20519	0.78061
2503.27663	0.78069
2501.34806	0.78024
2499.41950	0.77952
2497.49094	0.77924
2495.56237	0.77925
2493.63381	0.77886
2491.70524	0.77808
2489.77668	0.77697
2487.84811	0.77536
2485.91955	0.77383
2483.99098	0.77305
2482.06242	0.77271
2480.13386	0.77218
2478.20529	0.77129
2476.27673	0.77003
2474.34816	0.76840
2472.41960	0.76661
2470.49103	0.76513
2468.56247	0.76419
2466.63391	0.76317
2464.70534	0.76153
2462.77678	0.75968
2460.84821	0.75808
2458.91965	0.75672
2456.99108	0.75551
2455.06252	0.75431
2453.13395	0.75288
2451.20539	0.75125
2449.27683	0.74966
2447.34826	0.74816
2445.41970	0.74664
2443.49113	0.74524
2441.56257	0.74437
2439.63400	0.74389
2437.70544	0.74334
2435.77687	0.74287
2433.84831	0.74233
2431.91975	0.74150
2429.99118	0.74069
2428.06262	0.73994
2426.13405	0.73923
2424.20549	0.73883
2422.27692	0.73868
2420.34836	0.73845
2418.41979	0.73777
2416.49123	0.73654
2414.56267	0.73537
2412.63410	0.73456
2410.70554	0.73353
2408.77697	0.73205
2406.84841	0.73022
2404.91984	0.72831
2402.99128	0.72684
2401.06271	0.72563
2399.13415	0.72415
2397.20559	0.72238
2395.27702	0.72028
2393.34846	0.71804
2391.41989	0.71624
2389.49133	0.71499
2387.56276	0.71397
2385.63420	0.71354
2383.70563	0.71429
2381.77707	0.71551
2379.84851	0.71629
2377.91994	0.71727
2375.99138	0.71935
2374.06281	0.72226
2372.13425	0.72642
2370.20568	0.73187
2368.27712	0.73575
2366.34855	0.73725
2364.41999	0.73782
2362.49143	0.73646
2360.56286	0.73415
2358.63430	0.73126
2356.70573	0.72687
2354.77717	0.72327
2352.84860	0.72008
2350.92004	0.71744
2348.99147	0.71721
2347.06291	0.71908
2345.13435	0.72159
2343.20578	0.72412
2341.27722	0.72588
2339.34865	0.72456
2337.42009	0.72101
2335.49152	0.71842
2333.56296	0.71750
2331.63440	0.71691
2329.70583	0.71562
2327.77727	0.71312
2325.84870	0.70995
2323.92014	0.70711
2321.99157	0.70406
2320.06301	0.70033
2318.13444	0.69698
2316.20588	0.69474
2314.27732	0.69325
2312.34875	0.69170
2310.42019	0.68987
2308.49162	0.68805
2306.56306	0.68633
2304.63449	0.68477
2302.70593	0.68355
2300.77736	0.68267
2298.84880	0.68194
2296.92024	0.68123
2294.99167	0.68067
2293.06311	0.68049
2291.13454	0.68062
2289.20598	0.68076
2287.27741	0.68064
2285.34885	0.68030
2283.42028	0.68002
2281.49172	0.67993
2279.56316	0.67993
2277.63459	0.68005
2275.70603	0.68015
2273.77746	0.67986
2271.84890	0.67922
2269.92033	0.67857
2267.99177	0.67790
2266.06320	0.67693
2264.13464	0.67573
2262.20608	0.67451
2260.27751	0.67324
2258.34895	0.67190
2256.42038	0.67045
2254.49182	0.66894
2252.56325	0.66755
2250.63469	0.66620
2248.70612	0.66481
2246.77756	0.66345
2244.84900	0.66202
2242.92043	0.66038
2240.99187	0.65882
2239.06330	0.65766
2237.13474	0.65667
2235.20617	0.65565
2233.27761	0.65472
2231.34904	0.65393
2229.42048	0.65323
2227.49192	0.65266
2225.56335	0.65237
2223.63479	0.65231
2221.70622	0.65240
2219.77766	0.65263
2217.84909	0.65271
2215.92053	0.65257
2213.99196	0.65253
2212.06340	0.65268
2210.13484	0.65265
2208.20627	0.65247
2206.27771	0.65257
2204.34914	0.65268
2202.42058	0.65229
2200.49201	0.65156
2198.56345	0.65072
2196.63488	0.64997
2194.70632	0.64947
2192.77776	0.64892
2190.84919	0.64799
2188.92063	0.64695
2186.99206	0.64588
2185.06350	0.64464
2183.13493	0.64338
2181.20637	0.64227
2179.27781	0.64117
2177.34924	0.64003
2175.42068	0.63888
2173.49211	0.63770
2171.56355	0.63650
2169.63498	0.63534
2167.70642	0.63422
2165.77785	0.63333
2163.84929	0.63280
2161.92073	0.63230
2159.99216	0.63161
2158.06360	0.63094
2156.13503	0.63042
2154.20647	0.63008
2152.27790	0.62982
2150.34934	0.62958
2148.42077	0.62950
2146.49221	0.62949
2144.56365	0.62945
2142.63508	0.62948
2140.70652	0.62955
2138.77795	0.62951
2136.84939	0.62953
2134.92082	0.62978
2132.99226	0.62999
2131.06369	0.62997
2129.13513	0.62979
2127.20657	0.62939
2125.27800	0.62891
2123.34944	0.62846
2121.42087	0.62796
2119.49231	0.62747
2117.56374	0.62700
2115.63518	0.62621
2113.70661	0.62506
2111.77805	0.62404
2109.84949	0.62332
2107.92092	0.62256
2105.99236	0.62163
2104.06379	0.62061
2102.13523	0.61953
2100.20666	0.61865
2098.27810	0.61808
2096.34953	0.61750
2094.42097	0.61669
2092.49241	0.61592
2090.56384	0.61534
2088.63528	0.61484
2086.70671	0.61451
2084.77815	0.61434
2082.84958	0.61404
2080.92102	0.61377
2078.99245	0.61386
2077.06389	0.61423
2075.13533	0.61470
2073.20676	0.61523
2071.27820	0.61573
2069.34963	0.61615
2067.42107	0.61659
2065.49250	0.61708
2063.56394	0.61750
2061.63537	0.61777
2059.70681	0.61803
2057.77825	0.61835
2055.84968	0.61867
2053.92112	0.61899
2051.99255	0.61913
2050.06399	0.61884
2048.13542	0.61809
2046.20686	0.61704
2044.27830	0.61585
2042.34973	0.61455
2040.42117	0.61318
2038.49260	0.61159
2036.56404	0.60973
2034.63547	0.60777
2032.70691	0.60591
2030.77834	0.60424
2028.84978	0.60259
2026.92122	0.60086
2024.99265	0.59920
2023.06409	0.59765
2021.13552	0.59621
2019.20696	0.59494
2017.27839	0.59390
2015.34983	0.59309
2013.42126	0.59252
2011.49270	0.59216
2009.56414	0.59197
2007.63557	0.59177
2005.70701	0.59152
2003.77844	0.59153
2001.84988	0.59189
1999.92131	0.59227
1997.99275	0.59250
1996.06418	0.59276
1994.13562	0.59316
1992.20706	0.59340
1990.27849	0.59328
1988.34993	0.59293
1986.42136	0.59254
1984.49280	0.59223
1982.56423	0.59189
1980.63567	0.59139
1978.70710	0.59063
1976.77854	0.58960
1974.84998	0.58851
1972.92141	0.58736
1970.99285	0.58613
1969.06428	0.58487
1967.13572	0.58335
1965.20715	0.58148
1963.27859	0.57951
1961.35002	0.57760
1959.42146	0.57576
1957.49290	0.57400
1955.56433	0.57232
1953.63577	0.57083
1951.70720	0.56960
1949.77864	0.56857
1947.85007	0.56766
1945.92151	0.56686
1943.99294	0.56611
1942.06438	0.56520
1940.13582	0.56440
1938.20725	0.56401
1936.27869	0.56384
1934.35012	0.56354
1932.42156	0.56296
1930.49299	0.56237
1928.56443	0.56200
1926.63586	0.56176
1924.70730	0.56134
1922.77874	0.56048
1920.85017	0.55949
1918.92161	0.55833
1916.99304	0.55681
1915.06448	0.55555
1913.13591	0.55468
1911.20735	0.55362
1909.27878	0.55225
1907.35022	0.55098
1905.42166	0.54997
1903.49309	0.54902
1901.56453	0.54808
1899.63596	0.54726
1897.70740	0.54654
1895.77883	0.54586
1893.85027	0.54520
1891.92171	0.54457
1889.99314	0.54393
1888.06458	0.54340
1886.13601	0.54319
1884.20745	0.54302
1882.27888	0.54272
1880.35032	0.54253
1878.42175	0.54225
1876.49319	0.54171
1874.56463	0.54121
1872.63606	0.54108
1870.70750	0.54106
1868.77893	0.54025
1866.85037	0.53858
1864.92180	0.53719
1862.99324	0.53613
1861.06467	0.53490
1859.13611	0.53343
1857.20755	0.53194
1855.27898	0.53051
1853.35042	0.52903
1851.42185	0.52764
1849.49329	0.52647
1847.56472	0.52546
1845.63616	0.52442
1843.70759	0.52315
1841.77903	0.52230
1839.85047	0.52220
1837.92190	0.52233
1835.99334	0.52238
1834.06477	0.52253
1832.13621	0.52285
1830.20764	0.52316
1828.27908	0.52353
1826.35051	0.52402
1824.42195	0.52444
1822.49339	0.52488
1820.56482	0.52548
1818.63626	0.52615
1816.70769	0.52662
1814.77913	0.52693
1812.85056	0.52723
1810.92200	0.52742
1808.99343	0.52722
1807.06487	0.52660
1805.13631	0.52576
1803.20774	0.52470
1801.27918	0.52330
1799.35061	0.52169
1797.42205	0.52028
1795.49348	0.51907
1793.56492	0.51748
1791.63635	0.51531
1789.70779	0.51368
1787.77923	0.51290
1785.85066	0.51236
1783.92210	0.51198
1781.99353	0.51187
1780.06497	0.51189
1778.13640	0.51228
1776.20784	0.51313
1774.27927	0.51417
1772.35071	0.51513
1770.42215	0.51617
1768.49358	0.51753
1766.56502	0.51910
1764.63645	0.52097
1762.70789	0.52359
1760.77932	0.52713
1758.85076	0.53101
1756.92220	0.53589
1754.99363	0.54158
1753.06507	0.54766
1751.13650	0.55605
1749.20794	0.56714
1747.27937	0.57736
1745.35081	0.58587
1743.42224	0.59378
1741.49368	0.60111
1739.56512	0.60720
1737.63655	0.61131
1735.70799	0.61435
1733.77942	0.61839
1731.85086	0.62226
1729.92229	0.62535
1727.99373	0.62903
1726.06516	0.63356
1724.13660	0.63945
1722.20804	0.64582
1720.27947	0.65207
1718.35091	0.66090
1716.42234	0.67443
1714.49378	0.68669
1712.56521	0.69776
1710.63665	0.71060
1708.70808	0.72600
1706.77952	0.74763
1704.85096	0.77589
1702.92239	0.80196
1700.99383	0.83617
1699.06526	0.88771
1697.13670	0.93376
1695.20813	0.97606
1693.27957	1.00656
1691.35100	1.02830
1689.42244	1.05125
1687.49388	1.07068
1685.56531	1.08815
1683.63675	1.11135
1681.70818	1.12600
1679.77962	1.13285
1677.85105	1.13884
1675.92249	1.14588
1673.99392	1.15199
1672.06536	1.15488
1670.13680	1.15762
1668.20823	1.16193
1666.27967	1.16423
1664.35110	1.16624
1662.42254	1.16933
1660.49397	1.17090
1658.56541	1.17071
1656.63684	1.16958
1654.70828	1.16884
1652.77972	1.16880
1650.85115	1.16672
1648.92259	1.16341
1646.99402	1.15941
1645.06546	1.15758
1643.13689	1.15706
1641.20833	1.15656
1639.27976	1.15527
1637.35120	1.15224
1635.42264	1.14837
1633.49407	1.14649
1631.56551	1.14482
1629.63694	1.14204
1627.70838	1.13862
1625.77981	1.13483
1623.85125	1.12979
1621.92269	1.12371
1619.99412	1.11843
1618.06556	1.11231
1616.13699	1.10246
1614.20843	1.09303
1612.27986	1.08511
1610.35130	1.07683
1608.42273	1.06806
1606.49417	1.06017
1604.56561	1.05456
1602.63704	1.05086
1600.70848	1.04833
1598.77991	1.04672
1596.85135	1.04579
1594.92278	1.04514
1592.99422	1.04527
1591.06565	1.04700
1589.13709	1.05000
1587.20853	1.05360
1585.27996	1.05777
1583.35140	1.06311
1581.42283	1.06884
1579.49427	1.07359
1577.56570	1.07887
1575.63714	1.08661
1573.70857	1.09210
1571.78001	1.09550
1569.85145	1.10011
1567.92288	1.10469
1565.99432	1.10750
1564.06575	1.10973
1562.13719	1.11124
1560.20862	1.11291
1558.28006	1.11684
1556.35149	1.11829
1554.42293	1.11769
1552.49437	1.11699
1550.56580	1.11633
1548.63724	1.11512
1546.70867	1.11372
1544.78011	1.11225
1542.85154	1.10998
1540.92298	1.10630
1538.99441	1.10392
1537.06585	1.10330
1535.13729	1.10186
1533.20872	1.09928
1531.28016	1.09682
1529.35159	1.09502
1527.42303	1.09325
1525.49446	1.09168
1523.56590	1.09119
1521.63733	1.09091
1519.70877	1.08992
1517.78021	1.08753
1515.85164	1.08251
1513.92308	1.07621
1511.99451	1.07013
1510.06595	1.06467
1508.13738	1.05654
1506.20882	1.04128
1504.28025	1.03210
1502.35169	1.02588
1500.42313	1.01814
1498.49456	1.00764
1496.56600	0.99440
1494.63743	0.98322
1492.70887	0.97526
1490.78030	0.96613
1488.85174	0.95376
1486.92317	0.94347
1484.99461	0.93649
1483.06605	0.93153
1481.13748	0.92830
1479.20892	0.92701
1477.28035	0.92802
1475.35179	0.93215
1473.42322	0.94137
1471.49466	0.95244
1469.56610	0.95901
1467.63753	0.96336
1465.70897	0.96796
1463.78040	0.97227
1461.85184	0.97467
1459.92327	0.97643
1457.99471	0.98129
1456.06614	0.98834
1454.13758	0.99022
1452.20902	0.98990
1450.28045	0.98904
1448.35189	0.98755
1446.42332	0.98593
1444.49476	0.98445
1442.56619	0.98202
1440.63763	0.97877
1438.70906	0.97543
1436.78050	0.97071
1434.85194	0.96491
1432.92337	0.96007
1430.99481	0.95525
1429.06624	0.95067
1427.13768	0.94803
1425.20911	0.94726
1423.28055	0.94796
1421.35198	0.94973
1419.42342	0.95199
1417.49486	0.95348
1415.56629	0.95398
1413.63773	0.95468
1411.70916	0.95577
1409.78060	0.95706
1407.85203	0.95908
1405.92347	0.96247
1403.99490	0.96624
1402.06634	0.96913
1400.13778	0.97187
1398.20921	0.97457
1396.28065	0.97666
1394.35208	0.97854
1392.42352	0.98027
1390.49495	0.98209
1388.56639	0.98545
1386.63782	0.99130
1384.70926	0.99754
1382.78070	1.00262
1380.85213	1.00573
1378.92357	1.00597
1376.99500	1.00345
1375.06644	0.99818
1373.13787	0.99048
1371.20931	0.98226
1369.28074	0.97338
1367.35218	0.96363
1365.42362	0.95473
1363.49505	0.94650
1361.56649	0.93878
1359.63792	0.93303
1357.70936	0.92887
1355.78079	0.92554
1353.85223	0.92313
1351.92366	0.92171
1349.99510	0.92090
1348.06654	0.92050
1346.13797	0.92047
1344.20941	0.92087
1342.28084	0.92196
1340.35228	0.92391
1338.42371	0.92616
1336.49515	0.92878
1334.56659	0.93253
1332.63802	0.93731
1330.70946	0.94246
1328.78089	0.94709
1326.85233	0.95072
1324.92376	0.95339
1322.99520	0.95570
1321.06663	0.95853
1319.13807	0.96164
1317.20951	0.96386
1315.28094	0.96498
1313.35238	0.96547
1311.42381	0.96536
1309.49525	0.96457
1307.56668	0.96330
1305.63812	0.96182
1303.70955	0.96022
1301.78099	0.95834
1299.85243	0.95576
1297.92386	0.95243
1295.99530	0.94939
1294.06673	0.94773
1292.13817	0.94716
1290.20960	0.94667
1288.28104	0.94598
1286.35247	0.94548
1284.42391	0.94521
1282.49535	0.94494
1280.56678	0.94461
1278.63822	0.94440
1276.70965	0.94487
1274.78109	0.94633
1272.85252	0.94870
1270.92396	0.95177
1268.99539	0.95526
1267.06683	0.95896
1265.13827	0.96246
1263.20970	0.96514
1261.28114	0.96718
1259.35257	0.96945
1257.42401	0.97200
1255.49544	0.97433
1253.56688	0.97674
1251.63831	0.97959
1249.70975	0.98224
1247.78119	0.98411
1245.85262	0.98549
1243.92406	0.98649
1241.99549	0.98703
1240.06693	0.98754
1238.13836	0.98787
1236.20980	0.98726
1234.28123	0.98546
1232.35267	0.98282
1230.42411	0.97947
1228.49554	0.97519
1226.56698	0.97022
1224.63841	0.96537
1222.70985	0.96093
1220.78128	0.95653
1218.85272	0.95204
1216.92415	0.94762
1214.99559	0.94385
1213.06703	0.94151
1211.13846	0.94107
1209.20990	0.94184
1207.28133	0.94190
1205.35277	0.93996
1203.42420	0.93616
1201.49564	0.93125
1199.56708	0.92584
1197.63851	0.92024
1195.70995	0.91477
1193.78138	0.90978
1191.85282	0.90595
1189.92425	0.90359
1187.99569	0.90238
1186.06712	0.90248
1184.13856	0.90438
1182.21000	0.90800
1180.28143	0.91326
1178.35287	0.92012
1176.42430	0.92824
1174.49574	0.93716
1172.56717	0.94658
1170.63861	0.95663
1168.71004	0.96734
1166.78148	0.97838
1164.85292	0.98944
1162.92435	0.99904
1160.99579	1.00512
1159.06722	1.00729
1157.13866	1.00597
1155.21009	1.00164
1153.28153	0.99540
1151.35296	0.98817
1149.42440	0.98075
1147.49584	0.97395
1145.56727	0.96790
1143.63871	0.96323
1141.71014	0.96092
1139.78158	0.96086
1137.85301	0.96306
1135.92445	0.96751
1133.99588	0.97341
1132.06732	0.98042
1130.13876	0.98876
1128.21019	0.99781
1126.28163	1.00597
1124.35306	1.01229
1122.42450	1.01733
1120.49593	1.02180
1118.56737	1.02516
1116.63880	1.02601
1114.71024	1.02398
1112.78168	1.02040
1110.85311	1.01668
1108.92455	1.01324
1106.99598	1.00963
1105.06742	1.00562
1103.13885	1.00233
1101.21029	1.00100
1099.28172	1.00125
1097.35316	1.00288
1095.42460	1.00654
1093.49603	1.01156
1091.56747	1.01710
1089.63890	1.02362
1087.71034	1.03097
1085.78177	1.03726
1083.85321	1.04049
1081.92464	1.04097
1079.99608	1.03947
1078.06752	1.03512
1076.13895	1.02872
1074.21039	1.02306
1072.28182	1.01794
1070.35326	1.01132
1068.42469	1.00359
1066.49613	0.99607
1064.56756	0.98882
1062.63900	0.98150
1060.71044	0.97435
1058.78187	0.96806
1056.85331	0.96276
1054.92474	0.95827
1052.99618	0.95470
1051.06761	0.95226
1049.13905	0.95115
1047.21049	0.95090
1045.28192	0.95120
1043.35336	0.95271
1041.42479	0.95512
1039.49623	0.95706
1037.56766	0.95774
1035.63910	0.95690
1033.71053	0.95446
1031.78197	0.95049
1029.85341	0.94501
1027.92484	0.93837
1025.99628	0.93117
1024.06771	0.92394
1022.13915	0.91741
1020.21058	0.91215
1018.28202	0.90750
1016.35345	0.90189
1014.42489	0.89451
1012.49633	0.88591
1010.56776	0.87721
1008.63920	0.86923
1006.71063	0.86214
1004.78207	0.85601
1002.85350	0.85121
1000.92494	0.84793
998.99637	0.84614
997.06781	0.84576
995.13925	0.84654
993.21068	0.84766
991.28212	0.84773
989.35355	0.84621
987.42499	0.84402
985.49642	0.84209
983.56786	0.84051
981.63929	0.83894
979.71073	0.83731
977.78217	0.83555
975.85360	0.83300
973.92504	0.82870
971.99647	0.82266
970.06791	0.81532
968.13934	0.80683
966.21078	0.79816
964.28221	0.79079
962.35365	0.78587
960.42509	0.78449
958.49652	0.78664
956.56796	0.78986
954.63939	0.79085
952.71083	0.78844
950.78226	0.78360
948.85370	0.77833
946.92513	0.77478
944.99657	0.77368
943.06801	0.77430
941.13944	0.77598
939.21088	0.77830
937.28231	0.78050
935.35375	0.78226
933.42518	0.78361
931.49662	0.78431
929.56805	0.78402
927.63949	0.78272
925.71093	0.78091
923.78236	0.77837
921.85380	0.77432
919.92523	0.76887
917.99667	0.76247
916.06810	0.75556
914.13954	0.74865
912.21098	0.74182
910.28241	0.73516
908.35385	0.72962
906.42528	0.72614
904.49672	0.72415
902.56815	0.72262
900.63959	0.72159
898.71102	0.72119
896.78246	0.72088
894.85390	0.72049
892.92533	0.72038
890.99677	0.72069
889.06820	0.72179
887.13964	0.72437
885.21107	0.72868
883.28251	0.73441
881.35394	0.74118
879.42538	0.74865
877.49682	0.75627
875.56825	0.76340
873.63969	0.76976
871.71112	0.77545
869.78256	0.78046
867.85399	0.78447
865.92543	0.78710
863.99686	0.78814
862.06830	0.78797
860.13974	0.78700
858.21117	0.78539
856.28261	0.78303
854.35404	0.77974
852.42548	0.77589
850.49691	0.77195
848.56835	0.76776
846.63978	0.76310
844.71122	0.75867
842.78266	0.75560
840.85409	0.75389
838.92553	0.75301
836.99696	0.75303
835.06840	0.75381
833.13983	0.75519
831.21127	0.75789
829.28270	0.76224
827.35414	0.76777
825.42558	0.77399
823.49701	0.78034
821.56845	0.78682
819.63988	0.79374
817.71132	0.80098
815.78275	0.80837
813.85419	0.81576
811.92562	0.82290
809.99706	0.82917
808.06850	0.83394
806.13993	0.83763
804.21137	0.84121
802.28280	0.84458
800.35424	0.84665
798.42567	0.84672
796.49711	0.84521
794.56854	0.84300
792.63998	0.84030
790.71142	0.83749
788.78285	0.83514
786.85429	0.83291
784.92572	0.83056
782.99716	0.82835
781.06859	0.82647
779.14003	0.82509
777.21147	0.82425
775.28290	0.82426
773.35434	0.82565
771.42577	0.82869
769.49721	0.83298
767.56864	0.83824
765.64008	0.84529
763.71151	0.85430
761.78295	0.86382
759.85439	0.87272
757.92582	0.88146
755.99726	0.89077
754.06869	0.90038
752.14013	0.90955
750.21156	0.91744
748.28300	0.92334
746.35443	0.92763
744.42587	0.93113
742.49731	0.93326
740.56874	0.93327
738.64018	0.93218
736.71161	0.93075
734.78305	0.92805
732.85448	0.92435
730.92592	0.92079
728.99735	0.91674
727.06879	0.91161
725.14023	0.90608
723.21166	0.90100
721.28310	0.89633
719.35453	0.89041
717.42597	0.88312
715.49740	0.87712
713.56884	0.87376
711.64027	0.87212
709.71171	0.87141
707.78315	0.87163
705.85458	0.87316
703.92602	0.87580
701.99745	0.87825
700.06889	0.88084
698.14032	0.88501
696.21176	0.89043
694.28319	0.89630
692.35463	0.90283
690.42607	0.91010
688.49750	0.91666
686.56894	0.92243
684.64037	0.92943
682.71181	0.93575
680.78324	0.93816
678.85468	0.93892
676.92611	0.94074
674.99755	0.94208
673.06899	0.94234
671.14042	0.94330
669.21186	0.94263
667.28329	0.93513
665.35473	0.92811
663.42616	0.92325
661.49760	0.91771
659.56903	0.91125
657.64047	0.90557
655.71191	0.90092
653.78334	0.89470
651.85478	0.88741
649.92621	0.88179
647.99765	0.87747
646.06908	0.87385
644.14052	0.87104
642.21195	0.86860
640.28339	0.86839
638.35483	0.87210
636.42626	0.87699
634.49770	0.88080
632.56913	0.88502
630.64057	0.89074
628.71200	0.89692
626.78344	0.90336
624.85488	0.91099
622.92631	0.91941
620.99775	0.92803
619.06918	0.93764
617.14062	0.94824
615.21205	0.95767
613.28349	0.96533
611.35492	0.97254
609.42636	0.97832
607.49780	0.98115
605.56923	0.98195
603.64067	0.98118
601.71210	0.97863
599.78354	0.97422
