3997.91406	0.58095
3995.98550	0.58043
3994.05693	0.58059
3992.12837	0.58070
3990.19980	0.58039
3988.27124	0.58079
3986.34268	0.58166
3984.41411	0.58142
3982.48555	0.58046
3980.55698	0.58022
3978.62842	0.58077
3976.69985	0.58130
3974.77129	0.58092
3972.84272	0.57964
3970.91416	0.57855
3968.98560	0.57802
3967.05703	0.57779
3965.12847	0.57773
3963.19990	0.57751
3961.27134	0.57705
3959.34277	0.57659
3957.41421	0.57614
3955.48564	0.57580
3953.55708	0.57545
3951.62852	0.57537
3949.69995	0.57564
3947.77139	0.57571
3945.84282	0.57580
3943.91426	0.57561
3941.98569	0.57478
3940.05713	0.57431
3938.12856	0.57437
3936.20000	0.57459
3934.27144	0.57498
3932.34287	0.57469
3930.41431	0.57331
3928.48574	0.57262
3926.55718	0.57301
3924.62861	0.57317
3922.70005	0.57298
3920.77148	0.57270
3918.84292	0.57161
3916.91436	0.57044
3914.98579	0.57093
3913.05723	0.57205
3911.12866	0.57236
3909.20010	0.57284
3907.27153	0.57452
3905.34297	0.57599
3903.41440	0.57542
3901.48584	0.57356
3899.55728	0.57106
3897.62871	0.56966
3895.70015	0.57098
3893.77158	0.57263
3891.84302	0.57097
3889.91445	0.56864
3887.98589	0.56914
3886.05733	0.56984
3884.12876	0.56972
3882.20020	0.57006
3880.27163	0.56952
3878.34307	0.56932
3876.41450	0.56992
3874.48594	0.56927
3872.55737	0.56826
3870.62881	0.56751
3868.70025	0.56682
3866.77168	0.56744
3864.84312	0.56686
3862.91455	0.56388
3860.98599	0.56230
3859.05742	0.56336
3857.12886	0.56633
3855.20029	0.56830
3853.27173	0.56272
3851.34317	0.55790
3849.41460	0.55859
3847.48604	0.56013
3845.55747	0.56117
3843.62891	0.56139
3841.70034	0.56185
3839.77178	0.56258
3837.84321	0.56087
3835.91465	0.55882
3833.98609	0.55825
3832.05752	0.55763
3830.12896	0.55740
3828.20039	0.55750
3826.27183	0.55726
3824.34326	0.55788
3822.41470	0.55761
3820.48613	0.55426
3818.55757	0.55345
3816.62901	0.55391
3814.70044	0.55346
3812.77188	0.55427
3810.84331	0.55599
3808.91475	0.55714
3806.98618	0.55627
3805.05762	0.55524
3803.12905	0.55456
3801.20049	0.55220
3799.27193	0.55182
3797.34336	0.55274
3795.41480	0.55242
3793.48623	0.55258
3791.55767	0.55339
3789.62910	0.55375
3787.70054	0.55369
3785.77197	0.55348
3783.84341	0.55391
3781.91485	0.55461
3779.98628	0.55297
3778.05772	0.54985
3776.12915	0.54903
3774.20059	0.55007
3772.27202	0.55129
3770.34346	0.55151
3768.41489	0.55085
3766.48633	0.54962
3764.55777	0.54829
3762.62920	0.54865
3760.70064	0.54933
3758.77207	0.54812
3756.84351	0.54734
3754.91494	0.54862
3752.98638	0.55048
3751.05781	0.54972
3749.12925	0.54769
3747.20069	0.54867
3745.27212	0.54863
3743.34356	0.54555
3741.41499	0.54458
3739.48643	0.54583
3737.55786	0.54709
3735.62930	0.54624
3733.70074	0.54413
3731.77217	0.54376
3729.84361	0.54477
3727.91504	0.54600
3725.98648	0.54569
3724.05791	0.54326
3722.12935	0.54105
3720.20078	0.54042
3718.27222	0.54075
3716.34366	0.54168
3714.41509	0.54299
3712.48653	0.54315
3710.55796	0.54198
3708.62940	0.54181
3706.70083	0.54191
3704.77227	0.54176
3702.84370	0.54121
3700.91514	0.54052
3698.98658	0.54064
3697.05801	0.54141
3695.12945	0.54229
3693.20088	0.54298
3691.27232	0.54280
3689.34375	0.54054
3687.41519	0.53902
3685.48662	0.53989
3683.55806	0.54170
3681.62950	0.54373
3679.70093	0.54625
3677.77237	0.54894
3675.84380	0.54852
3673.91524	0.54713
3671.98667	0.54845
3670.05811	0.54868
3668.12954	0.54821
3666.20098	0.54937
3664.27242	0.55120
3662.34385	0.55315
3660.41529	0.55511
3658.48672	0.55703
3656.55816	0.55855
3654.62959	0.56058
3652.70103	0.56451
3650.77246	0.56806
3648.84390	0.56541
3646.91534	0.56337
3644.98677	0.56616
3643.05821	0.56990
3641.12964	0.57323
3639.20108	0.57586
3637.27251	0.57785
3635.34395	0.57979
3633.41538	0.58245
3631.48682	0.58587
3629.55826	0.58818
3627.62969	0.58780
3625.70113	0.58865
3623.77256	0.59108
3621.84400	0.59391
3619.91543	0.59663
3617.98687	0.59889
3616.05830	0.60091
3614.12974	0.60198
3612.20118	0.60178
3610.27261	0.60189
3608.34405	0.60315
3606.41548	0.60547
3604.48692	0.60800
3602.55835	0.61042
3600.62979	0.61284
3598.70123	0.61456
3596.77266	0.61518
3594.84410	0.61607
3592.91553	0.61834
3590.98697	0.62108
3589.05840	0.62312
3587.12984	0.62383
3585.20127	0.62498
3583.27271	0.62679
3581.34415	0.62844
3579.41558	0.63048
3577.48702	0.63280
3575.55845	0.63462
3573.62989	0.63652
3571.70132	0.63932
3569.77276	0.64208
3567.84419	0.64279
3565.91563	0.64231
3563.98707	0.64394
3562.05850	0.64647
3560.12994	0.64808
3558.20137	0.64959
3556.27281	0.65227
3554.34424	0.65507
3552.41568	0.65694
3550.48711	0.65873
3548.55855	0.66076
3546.62999	0.66183
3544.70142	0.66227
3542.77286	0.66331
3540.84429	0.66464
3538.91573	0.66580
3536.98716	0.66700
3535.05860	0.66919
3533.13003	0.67232
3531.20147	0.67472
3529.27291	0.67559
3527.34434	0.67635
3525.41578	0.67793
3523.48721	0.67957
3521.55865	0.68178
3519.63008	0.68436
3517.70152	0.68558
3515.77295	0.68602
3513.84439	0.68760
3511.91583	0.68986
3509.98726	0.69195
3508.05870	0.69458
3506.13013	0.69756
3504.20157	0.69993
3502.27300	0.70144
3500.34444	0.70286
3498.41587	0.70467
3496.48731	0.70639
3494.55875	0.70774
3492.63018	0.70907
3490.70162	0.71029
3488.77305	0.71096
3486.84449	0.71154
3484.91592	0.71285
3482.98736	0.71454
3481.05879	0.71617
3479.13023	0.71770
3477.20167	0.71853
3475.27310	0.71895
3473.34454	0.71982
3471.41597	0.72059
3469.48741	0.72113
3467.55884	0.72225
3465.63028	0.72384
3463.70171	0.72515
3461.77315	0.72595
3459.84459	0.72685
3457.91602	0.72800
3455.98746	0.72885
3454.05889	0.72933
3452.13033	0.72971
3450.20176	0.73008
3448.27320	0.73013
3446.34464	0.72961
3444.41607	0.72916
3442.48751	0.72987
3440.55894	0.73156
3438.63038	0.73295
3436.70181	0.73343
3434.77325	0.73372
3432.84468	0.73481
3430.91612	0.73647
3428.98756	0.73726
3427.05899	0.73680
3425.13043	0.73636
3423.20186	0.73645
3421.27330	0.73640
3419.34473	0.73665
3417.41617	0.73812
3415.48760	0.73965
3413.55904	0.73949
3411.63048	0.73877
3409.70191	0.73915
3407.77335	0.73946
3405.84478	0.73869
3403.91622	0.73816
3401.98765	0.73861
3400.05909	0.73912
3398.13052	0.73985
3396.20196	0.74118
3394.27340	0.74217
3392.34483	0.74255
3390.41627	0.74232
3388.48770	0.74145
3386.55914	0.74109
3384.63057	0.74194
3382.70201	0.74338
3380.77344	0.74451
3378.84488	0.74479
3376.91632	0.74465
3374.98775	0.74519
3373.05919	0.74623
3371.13062	0.74677
3369.20206	0.74687
3367.27349	0.74683
3365.34493	0.74674
3363.41636	0.74751
3361.48780	0.74940
3359.55924	0.75064
3357.63067	0.75057
3355.70211	0.75077
3353.77354	0.75177
3351.84498	0.75290
3349.91641	0.75366
3347.98785	0.75376
3346.05928	0.75386
3344.13072	0.75452
3342.20216	0.75527
3340.27359	0.75578
3338.34503	0.75589
3336.41646	0.75607
3334.48790	0.75730
3332.55933	0.75916
3330.63077	0.76061
3328.70220	0.76125
3326.77364	0.76143
3324.84508	0.76171
3322.91651	0.76243
3320.98795	0.76320
3319.05938	0.76328
3317.13082	0.76357
3315.20225	0.76506
3313.27369	0.76629
3311.34513	0.76630
3309.41656	0.76696
3307.48800	0.76940
3305.55943	0.77209
3303.63087	0.77363
3301.70230	0.77407
3299.77374	0.77368
3297.84517	0.77324
3295.91661	0.77397
3293.98805	0.77535
3292.05948	0.77594
3290.13092	0.77577
3288.20235	0.77576
3286.27379	0.77634
3284.34522	0.77759
3282.41666	0.77904
3280.48809	0.77957
3278.55953	0.77893
3276.63097	0.77818
3274.70240	0.77797
3272.77384	0.77790
3270.84527	0.77728
3268.91671	0.77612
3266.98814	0.77519
3265.05958	0.77476
3263.13101	0.77435
3261.20245	0.77392
3259.27389	0.77348
3257.34532	0.77229
3255.41676	0.77045
3253.48819	0.76907
3251.55963	0.76808
3249.63106	0.76672
3247.70250	0.76520
3245.77393	0.76402
3243.84537	0.76283
3241.91681	0.76124
3239.98824	0.75952
3238.05968	0.75789
3236.13111	0.75680
3234.20255	0.75645
3232.27398	0.75603
3230.34542	0.75510
3228.41685	0.75376
3226.48829	0.75191
3224.55973	0.75025
3222.63116	0.74949
3220.70260	0.74843
3218.77403	0.74646
3216.84547	0.74515
3214.91690	0.74534
3212.98834	0.74592
3211.05977	0.74542
3209.13121	0.74372
3207.20265	0.74177
3205.27408	0.74043
3203.34552	0.73976
3201.41695	0.73883
3199.48839	0.73717
3197.55982	0.73558
3195.63126	0.73433
3193.70269	0.73327
3191.77413	0.73226
3189.84557	0.73089
3187.91700	0.72917
3185.98844	0.72763
3184.05987	0.72662
3182.13131	0.72597
3180.20274	0.72502
3178.27418	0.72365
3176.34562	0.72250
3174.41705	0.72155
3172.48849	0.72032
3170.55992	0.71887
3168.63136	0.71732
3166.70279	0.71573
3164.77423	0.71433
3162.84566	0.71332
3160.91710	0.71269
3158.98854	0.71215
3157.05997	0.71140
3155.13141	0.71043
3153.20284	0.70950
3151.27428	0.70843
3149.34571	0.70688
3147.41715	0.70552
3145.48858	0.70490
3143.56002	0.70433
3141.63146	0.70386
3139.70289	0.70401
3137.77433	0.70414
3135.84576	0.70374
3133.91720	0.70325
3131.98863	0.70286
3130.06007	0.70232
3128.13150	0.70184
3126.20294	0.70190
3124.27438	0.70232
3122.34581	0.70216
3120.41725	0.70121
3118.48868	0.70042
3116.56012	0.70026
3114.63155	0.70059
3112.70299	0.70126
3110.77442	0.70160
3108.84586	0.70133
3106.91730	0.70130
3104.98873	0.70157
3103.06017	0.70141
3101.13160	0.70122
3099.20304	0.70141
3097.27447	0.70143
3095.34591	0.70106
3093.41734	0.70009
3091.48878	0.69858
3089.56022	0.69765
3087.63165	0.69746
3085.70309	0.69720
3083.77452	0.69691
3081.84596	0.69659
3079.91739	0.69567
3077.98883	0.69451
3076.06026	0.69355
3074.13170	0.69224
3072.20314	0.69065
3070.27457	0.68994
3068.34601	0.68989
3066.41744	0.68928
3064.48888	0.68796
3062.56031	0.68643
3060.63175	0.68505
3058.70318	0.68401
3056.77462	0.68308
3054.84606	0.68179
3052.91749	0.68001
3050.98893	0.67824
3049.06036	0.67675
3047.13180	0.67535
3045.20323	0.67428
3043.27467	0.67357
3041.34610	0.67250
3039.41754	0.67107
3037.48898	0.67029
3035.56041	0.67007
3033.63185	0.66942
3031.70328	0.66806
3029.77472	0.66634
3027.84615	0.66462
3025.91759	0.66329
3023.98903	0.66236
3022.06046	0.66139
3020.13190	0.66029
3018.20333	0.65940
3016.27477	0.65871
3014.34620	0.65782
3012.41764	0.65661
3010.48907	0.65547
3008.56051	0.65493
3006.63195	0.65486
3004.70338	0.65445
3002.77482	0.65363
3000.84625	0.65333
2998.91769	0.65377
2996.98912	0.65425
2995.06056	0.65452
2993.13199	0.65488
2991.20343	0.65544
2989.27487	0.65633
2987.34630	0.65778
2985.41774	0.65963
2983.48917	0.66160
2981.56061	0.66375
2979.63204	0.66607
2977.70348	0.66846
2975.77491	0.67089
2973.84635	0.67339
2971.91779	0.67596
2969.98922	0.67850
2968.06066	0.68083
2966.13209	0.68303
2964.20353	0.68480
2962.27496	0.68557
2960.34640	0.68565
2958.41783	0.68530
2956.48927	0.68436
2954.56071	0.68287
2952.63214	0.68094
2950.70358	0.67887
2948.77501	0.67753
2946.84645	0.67764
2944.91788	0.67878
2942.98932	0.68062
2941.06075	0.68346
2939.13219	0.68720
2937.20363	0.69147
2935.27506	0.69588
2933.34650	0.70024
2931.41793	0.70470
2929.48937	0.70909
2927.56080	0.71306
2925.63224	0.71684
2923.70367	0.72101
2921.77511	0.72533
2919.84655	0.72844
2917.91798	0.72891
2915.98942	0.72535
2914.06085	0.71748
2912.13229	0.70772
2910.20372	0.69896
2908.27516	0.69224
2906.34659	0.68729
2904.41803	0.68319
2902.48947	0.67971
2900.56090	0.67737
2898.63234	0.67575
2896.70377	0.67408
2894.77521	0.67229
2892.84664	0.67064
2890.91808	0.66922
2888.98952	0.66775
2887.06095	0.66607
2885.13239	0.66417
2883.20382	0.66239
2881.27526	0.66143
2879.34669	0.66104
2877.41813	0.66047
2875.48956	0.65989
2873.56100	0.65924
2871.63244	0.65785
2869.70387	0.65569
2867.77531	0.65337
2865.84674	0.65141
2863.91818	0.65016
2861.98961	0.65007
2860.06105	0.65167
2858.13248	0.65518
2856.20392	0.66019
2854.27536	0.66561
2852.34679	0.67072
2850.41823	0.67410
2848.48966	0.67158
2846.56110	0.66133
2844.63253	0.64799
2842.70397	0.63686
2840.77540	0.62902
2838.84684	0.62303
2836.91828	0.61790
2834.98971	0.61372
2833.06115	0.61066
2831.13258	0.60827
2829.20402	0.60590
2827.27545	0.60378
2825.34689	0.60234
2823.41832	0.60110
2821.48976	0.59940
2819.56120	0.59730
2817.63263	0.59521
2815.70407	0.59337
2813.77550	0.59171
2811.84694	0.59002
2809.91837	0.58824
2807.98981	0.58674
2806.06124	0.58575
2804.13268	0.58468
2802.20412	0.58308
2800.27555	0.58131
2798.34699	0.57958
2796.41842	0.57802
2794.48986	0.57698
2792.56129	0.57596
2790.63273	0.57446
2788.70416	0.57292
2786.77560	0.57176
2784.84704	0.57070
2782.91847	0.56925
2780.98991	0.56760
2779.06134	0.56632
2777.13278	0.56542
2775.20421	0.56467
2773.27565	0.56390
2771.34708	0.56285
2769.41852	0.56176
2767.48996	0.56090
2765.56139	0.56009
2763.63283	0.55917
2761.70426	0.55837
2759.77570	0.55771
2757.84713	0.55693
2755.91857	0.55597
2753.99001	0.55488
2752.06144	0.55361
2750.13288	0.55241
2748.20431	0.55146
2746.27575	0.55051
2744.34718	0.54925
2742.41862	0.54798
2740.49005	0.54721
2738.56149	0.54668
2736.63293	0.54589
2734.70436	0.54514
2732.77580	0.54464
2730.84723	0.54408
2728.91867	0.54338
2726.99010	0.54259
2725.06154	0.54153
2723.13297	0.54041
2721.20441	0.53959
2719.27585	0.53876
2717.34728	0.53769
2715.41872	0.53655
2713.49015	0.53528
2711.56159	0.53395
2709.63302	0.53291
2707.70446	0.53200
2705.77589	0.53109
2703.84733	0.53030
2701.91877	0.52944
2699.99020	0.52848
2698.06164	0.52760
2696.13307	0.52662
2694.20451	0.52553
2692.27594	0.52466
2690.34738	0.52393
2688.41881	0.52317
2686.49025	0.52254
2684.56169	0.52206
2682.63312	0.52149
2680.70456	0.52058
2678.77599	0.51949
2676.84743	0.51850
2674.91886	0.51761
2672.99030	0.51671
2671.06173	0.51579
2669.13317	0.51502
2667.20461	0.51442
2665.27604	0.51363
2663.34748	0.51247
2661.41891	0.51135
2659.49035	0.51063
2657.56178	0.51010
2655.63322	0.50947
2653.70465	0.50867
2651.77609	0.50785
2649.84753	0.50713
2647.91896	0.50647
2645.99040	0.50583
2644.06183	0.50515
2642.13327	0.50447
2640.20470	0.50391
2638.27614	0.50337
2636.34757	0.50284
2634.41901	0.50235
2632.49045	0.50163
2630.56188	0.50056
2628.63332	0.49939
2626.70475	0.49838
2624.77619	0.49777
2622.84762	0.49734
2620.91906	0.49659
2618.99049	0.49578
2617.06193	0.49527
2615.13337	0.49482
2613.20480	0.49414
2611.27624	0.49323
2609.34767	0.49216
2607.41911	0.49102
2605.49054	0.48990
2603.56198	0.48883
2601.63342	0.48783
2599.70485	0.48692
2597.77629	0.48610
2595.84772	0.48547
2593.91916	0.48505
2591.99059	0.48461
2590.06203	0.48398
2588.13346	0.48330
2586.20490	0.48249
2584.27634	0.48130
2582.34777	0.47990
2580.41921	0.47865
2578.49064	0.47763
2576.56208	0.47680
2574.63351	0.47604
2572.70495	0.47509
2570.77638	0.47403
2568.84782	0.47306
2566.91926	0.47226
2564.99069	0.47165
2563.06213	0.47103
2561.13356	0.47018
2559.20500	0.46930
2557.27643	0.46848
2555.34787	0.46756
2553.41930	0.46659
2551.49074	0.46570
2549.56218	0.46483
2547.63361	0.46381
2545.70505	0.46263
2543.77648	0.46162
2541.84792	0.46075
2539.91935	0.45979
2537.99079	0.45893
2536.06222	0.45814
2534.13366	0.45721
2532.20510	0.45640
2530.27653	0.45602
2528.34797	0.45587
2526.41940	0.45543
2524.49084	0.45470
2522.56227	0.45407
2520.63371	0.45366
2518.70514	0.45319
2516.77658	0.45244
2514.84802	0.45141
2512.91945	0.45021
2510.99089	0.44913
2509.06232	0.44823
2507.13376	0.44729
2505.20519	0.44640
2503.27663	0.44573
2501.34806	0.44513
2499.41950	0.44443
2497.49094	0.44379
2495.56237	0.44320
2493.63381	0.44241
2491.70524	0.44145
2489.77668	0.44057
2487.84811	0.43980
2485.91955	0.43906
2483.99098	0.43824
2482.06242	0.43726
2480.13386	0.43616
2478.20529	0.43508
2476.27673	0.43406
2474.34816	0.43322
2472.41960	0.43261
2470.49103	0.43193
2468.56247	0.43103
2466.63391	0.43020
2464.70534	0.42962
2462.77678	0.42910
2460.84821	0.42834
2458.91965	0.42724
2456.99108	0.42608
2455.06252	0.42523
2453.13395	0.42467
2451.20539	0.42413
2449.27683	0.42344
2447.34826	0.42255
2445.41970	0.42163
2443.49113	0.42094
2441.56257	0.42047
2439.63400	0.42007
2437.70544	0.41956
2435.77687	0.41877
2433.84831	0.41770
2431.91975	0.41661
2429.99118	0.41564
2428.06262	0.41474
2426.13405	0.41393
2424.20549	0.41319
2422.27692	0.41252
2420.34836	0.41182
2418.41979	0.41094
2416.49123	0.41013
2414.56267	0.40963
2412.63410	0.40929
2410.70554	0.40894
2408.77697	0.40860
2406.84841	0.40835
2404.91984	0.40808
2402.99128	0.40764
2401.06271	0.40692
2399.13415	0.40601
2397.20559	0.40518
2395.27702	0.40451
2393.34846	0.40379
2391.41989	0.40303
2389.49133	0.40243
2387.56276	0.40221
2385.63420	0.40255
2383.70563	0.40358
2381.77707	0.40521
2379.84851	0.40719
2377.91994	0.40927
2375.99138	0.41136
2374.06281	0.41351
2372.13425	0.41588
2370.20568	0.41865
2368.27712	0.42171
2366.34855	0.42443
2364.41999	0.42592
2362.49143	0.42537
2360.56286	0.42310
2358.63430	0.42128
2356.70573	0.42017
2354.77717	0.41739
2352.84860	0.41289
2350.92004	0.40957
2348.99147	0.40908
2347.06291	0.41112
2345.13435	0.41429
2343.20578	0.41583
2341.27722	0.41519
2339.34865	0.41410
2337.42009	0.41301
2335.49152	0.41181
2333.56296	0.41042
2331.63440	0.40893
2329.70583	0.40781
2327.77727	0.40663
2325.84870	0.40510
2323.92014	0.40340
2321.99157	0.40132
2320.06301	0.39889
2318.13444	0.39653
2316.20588	0.39465
2314.27732	0.39338
2312.34875	0.39240
2310.42019	0.39117
2308.49162	0.38939
2306.56306	0.38744
2304.63449	0.38594
2302.70593	0.38488
2300.77736	0.38386
2298.84880	0.38284
2296.92024	0.38184
2294.99167	0.38084
2293.06311	0.38001
2291.13454	0.37943
2289.20598	0.37899
2287.27741	0.37850
2285.34885	0.37778
2283.42028	0.37698
2281.49172	0.37651
2279.56316	0.37646
2277.63459	0.37641
2275.70603	0.37598
2273.77746	0.37528
2271.84890	0.37457
2269.92033	0.37403
2267.99177	0.37373
2266.06320	0.37346
2264.13464	0.37309
2262.20608	0.37290
2260.27751	0.37300
2258.34895	0.37306
2256.42038	0.37293
2254.49182	0.37271
2252.56325	0.37235
2250.63469	0.37176
2248.70612	0.37108
2246.77756	0.37049
2244.84900	0.36986
2242.92043	0.36904
2240.99187	0.36821
2239.06330	0.36764
2237.13474	0.36728
2235.20617	0.36701
2233.27761	0.36687
2231.34904	0.36673
2229.42048	0.36653
2227.49192	0.36638
2225.56335	0.36636
2223.63479	0.36637
2221.70622	0.36627
2219.77766	0.36596
2217.84909	0.36546
2215.92053	0.36479
2213.99196	0.36395
2212.06340	0.36309
2210.13484	0.36244
2208.20627	0.36202
2206.27771	0.36163
2204.34914	0.36133
2202.42058	0.36122
2200.49201	0.36114
2198.56345	0.36103
2196.63488	0.36098
2194.70632	0.36096
2192.77776	0.36097
2190.84919	0.36092
2188.92063	0.36070
2186.99206	0.36036
2185.06350	0.35998
2183.13493	0.35959
2181.20637	0.35931
2179.27781	0.35912
2177.34924	0.35888
2175.42068	0.35868
2173.49211	0.35861
2171.56355	0.35859
2169.63498	0.35856
2167.70642	0.35854
2165.77785	0.35854
2163.84929	0.35861
2161.92073	0.35872
2159.99216	0.35876
2158.06360	0.35866
2156.13503	0.35846
2154.20647	0.35820
2152.27790	0.35792
2150.34934	0.35775
2148.42077	0.35777
2146.49221	0.35787
2144.56365	0.35799
2142.63508	0.35815
2140.70652	0.35838
2138.77795	0.35862
2136.84939	0.35893
2134.92082	0.35939
2132.99226	0.35987
2131.06369	0.36012
2129.13513	0.36006
2127.20657	0.35983
2125.27800	0.35959
2123.34944	0.35933
2121.42087	0.35891
2119.49231	0.35842
2117.56374	0.35818
2115.63518	0.35815
2113.70661	0.35801
2111.77805	0.35791
2109.84949	0.35812
2107.92092	0.35844
2105.99236	0.35867
2104.06379	0.35878
2102.13523	0.35883
2100.20666	0.35894
2098.27810	0.35907
2096.34953	0.35911
2094.42097	0.35900
2092.49241	0.35875
2090.56384	0.35837
2088.63528	0.35789
2086.70671	0.35753
2084.77815	0.35726
2082.84958	0.35688
2080.92102	0.35653
2078.99245	0.35644
2077.06389	0.35645
2075.13533	0.35641
2073.20676	0.35629
2071.27820	0.35615
2069.34963	0.35615
2067.42107	0.35616
2065.49250	0.35583
2063.56394	0.35524
2061.63537	0.35477
2059.70681	0.35455
2057.77825	0.35432
2055.84968	0.35387
2053.92112	0.35342
2051.99255	0.35319
2050.06399	0.35301
2048.13542	0.35265
2046.20686	0.35230
2044.27830	0.35212
2042.34973	0.35206
2040.42117	0.35196
2038.49260	0.35174
2036.56404	0.35152
2034.63547	0.35145
2032.70691	0.35140
2030.77834	0.35128
2028.84978	0.35110
2026.92122	0.35086
2024.99265	0.35064
2023.06409	0.35041
2021.13552	0.35022
2019.20696	0.35022
2017.27839	0.35036
2015.34983	0.35049
2013.42126	0.35075
2011.49270	0.35106
2009.56414	0.35129
2007.63557	0.35149
2005.70701	0.35180
2003.77844	0.35221
2001.84988	0.35255
1999.92131	0.35276
1997.99275	0.35296
1996.06418	0.35342
1994.13562	0.35409
1992.20706	0.35451
1990.27849	0.35455
1988.34993	0.35445
1986.42136	0.35444
1984.49280	0.35477
1982.56423	0.35535
1980.63567	0.35581
1978.70710	0.35599
1976.77854	0.35606
1974.84998	0.35623
1972.92141	0.35663
1970.99285	0.35717
1969.06428	0.35768
1967.13572	0.35792
1965.20715	0.35787
1963.27859	0.35779
1961.35002	0.35773
1959.42146	0.35757
1957.49290	0.35739
1955.56433	0.35717
1953.63577	0.35685
1951.70720	0.35652
1949.77864	0.35633
1947.85007	0.35634
1945.92151	0.35654
1943.99294	0.35672
1942.06438	0.35657
1940.13582	0.35632
1938.20725	0.35632
1936.27869	0.35640
1934.35012	0.35632
1932.42156	0.35611
1930.49299	0.35588
1928.56443	0.35560
1926.63586	0.35539
1924.70730	0.35528
1922.77874	0.35489
1920.85017	0.35422
1918.92161	0.35338
1916.99304	0.35240
1915.06448	0.35169
1913.13591	0.35144
1911.20735	0.35144
1909.27878	0.35134
1907.35022	0.35104
1905.42166	0.35078
1903.49309	0.35060
1901.56453	0.35047
1899.63596	0.35047
1897.70740	0.35061
1895.77883	0.35064
1893.85027	0.35050
1891.92171	0.35040
1889.99314	0.35018
1888.06458	0.34961
1886.13601	0.34913
1884.20745	0.34892
1882.27888	0.34893
1880.35032	0.34900
1878.42175	0.34884
1876.49319	0.34853
1874.56463	0.34841
1872.63606	0.34870
1870.70750	0.34920
1868.77893	0.34918
1866.85037	0.34839
1864.92180	0.34780
1862.99324	0.34766
1861.06467	0.34765
1859.13611	0.34763
1857.20755	0.34758
1855.27898	0.34767
1853.35042	0.34801
1851.42185	0.34857
1849.49329	0.34942
1847.56472	0.35036
1845.63616	0.35091
1843.70759	0.35078
1841.77903	0.35069
1839.85047	0.35104
1837.92190	0.35144
1835.99334	0.35156
1834.06477	0.35154
1832.13621	0.35170
1830.20764	0.35167
1828.27908	0.35124
1826.35051	0.35075
1824.42195	0.35002
1822.49339	0.34931
1820.56482	0.34904
1818.63626	0.34902
1816.70769	0.34893
1814.77913	0.34894
1812.85056	0.34919
1810.92200	0.34935
1808.99343	0.34928
1807.06487	0.34920
1805.13631	0.34927
1803.20774	0.34945
1801.27918	0.34943
1799.35061	0.34902
1797.42205	0.34867
1795.49348	0.34863
1793.56492	0.34836
1791.63635	0.34703
1789.70779	0.34556
1787.77923	0.34490
1785.85066	0.34438
1783.92210	0.34360
1781.99353	0.34283
1780.06497	0.34202
1778.13640	0.34139
1776.20784	0.34134
1774.27927	0.34160
1772.35071	0.34117
1770.42215	0.33996
1768.49358	0.33901
1766.56502	0.33842
1764.63645	0.33833
1762.70789	0.33842
1760.77932	0.33852
1758.85076	0.33896
1756.92220	0.33982
1754.99363	0.34111
1753.06507	0.34308
1751.13650	0.34617
1749.20794	0.34973
1747.27937	0.35268
1745.35081	0.35544
1743.42224	0.35842
1741.49368	0.36116
1739.56512	0.36305
1737.63655	0.36434
1735.70799	0.36540
1733.77942	0.36592
1731.85086	0.36571
1729.92229	0.36548
1727.99373	0.36553
1726.06516	0.36626
1724.13660	0.36795
1722.20804	0.37028
1720.27947	0.37321
1718.35091	0.37767
1716.42234	0.38325
1714.49378	0.38733
1712.56521	0.39148
1710.63665	0.39726
1708.70808	0.40467
1706.77952	0.41510
1704.85096	0.42845
1702.92239	0.44106
1700.99383	0.45854
1699.06526	0.48481
1697.13670	0.50867
1695.20813	0.53084
1693.27957	0.54772
1691.35100	0.56192
1689.42244	0.57856
1687.49388	0.59382
1685.56531	0.60890
1683.63675	0.63141
1681.70818	0.64860
1679.77962	0.65941
1677.85105	0.66976
1675.92249	0.68216
1673.99392	0.69572
1672.06536	0.70670
1670.13680	0.71816
1668.20823	0.73055
1666.27967	0.73952
1664.35110	0.74822
1662.42254	0.75865
1660.49397	0.76734
1658.56541	0.77349
1656.63684	0.77850
1654.70828	0.78279
1652.77972	0.78604
1650.85115	0.78866
1648.92259	0.79133
1646.99402	0.79223
1645.06546	0.79118
1643.13689	0.79133
1641.20833	0.79245
1639.27976	0.79358
1637.35120	0.79395
1635.42264	0.79274
1633.49407	0.79238
1631.56551	0.79338
1629.63694	0.79381
1627.70838	0.79254
1625.77981	0.78975
1623.85125	0.78474
1621.92269	0.77787
1619.99412	0.77255
1618.06556	0.76607
1616.13699	0.75432
1614.20843	0.74402
1612.27986	0.73635
1610.35130	0.72787
1608.42273	0.71867
1606.49417	0.71088
1604.56561	0.70501
1602.63704	0.69982
1600.70848	0.69505
1598.77991	0.69143
1596.85135	0.68890
1594.92278	0.68674
1592.99422	0.68491
1591.06565	0.68382
1589.13709	0.68379
1587.20853	0.68512
1585.27996	0.68767
1583.35140	0.69121
1581.42283	0.69557
1579.49427	0.70059
1577.56570	0.70698
1575.63714	0.71474
1573.70857	0.72014
1571.78001	0.72459
1569.85145	0.73096
1567.92288	0.73771
1565.99432	0.74334
1564.06575	0.74900
1562.13719	0.75404
1560.20862	0.75998
1558.28006	0.76984
1556.35149	0.77493
1554.42293	0.77740
1552.49437	0.77982
1550.56580	0.78254
1548.63724	0.78531
1546.70867	0.78770
1544.78011	0.78991
1542.85154	0.79146
1540.92298	0.78994
1538.99441	0.78635
1537.06585	0.78562
1535.13729	0.78503
1533.20872	0.78304
1531.28016	0.78147
1529.35159	0.78113
1527.42303	0.78066
1525.49446	0.77996
1523.56590	0.78017
1521.63733	0.78056
1519.70877	0.78066
1517.78021	0.77954
1515.85164	0.77574
1513.92308	0.77094
1511.99451	0.76667
1510.06595	0.76345
1508.13738	0.75692
1506.20882	0.73955
1504.28025	0.72949
1502.35169	0.72438
1500.42313	0.71849
1498.49456	0.71018
1496.56600	0.69918
1494.63743	0.69023
1492.70887	0.68455
1490.78030	0.67773
1488.85174	0.66695
1486.92317	0.65786
1484.99461	0.65236
1483.06605	0.64828
1481.13748	0.64458
1479.20892	0.64205
1477.28035	0.64185
1475.35179	0.64448
1473.42322	0.64975
1471.49466	0.65467
1469.56610	0.65771
1467.63753	0.66063
1465.70897	0.66423
1463.78040	0.66771
1461.85184	0.67001
1459.92327	0.67185
1457.99471	0.67415
1456.06614	0.67637
1454.13758	0.67735
1452.20902	0.67780
1450.28045	0.67808
1448.35189	0.67795
1446.42332	0.67696
1444.49476	0.67540
1442.56619	0.67359
1440.63763	0.67192
1438.70906	0.66994
1436.78050	0.66525
1434.85194	0.65886
1432.92337	0.65386
1430.99481	0.64847
1429.06624	0.64231
1427.13768	0.63776
1425.20911	0.63489
1423.28055	0.63298
1421.35198	0.63221
1419.42342	0.63210
1417.49486	0.63157
1415.56629	0.63075
1413.63773	0.62986
1411.70916	0.62882
1409.78060	0.62803
1407.85203	0.62794
1405.92347	0.62851
1403.99490	0.62939
1402.06634	0.63052
1400.13778	0.63179
1398.20921	0.63282
1396.28065	0.63353
1394.35208	0.63402
1392.42352	0.63472
1390.49495	0.63638
1388.56639	0.63969
1386.63782	0.64498
1384.70926	0.65106
1382.78070	0.65722
1380.85213	0.66298
1378.92357	0.66724
1376.99500	0.66897
1375.06644	0.66708
1373.13787	0.66215
1371.20931	0.65660
1369.28074	0.64983
1367.35218	0.64144
1365.42362	0.63338
1363.49505	0.62527
1361.56649	0.61682
1359.63792	0.61025
1357.70936	0.60547
1355.78079	0.60152
1353.85223	0.59831
1351.92366	0.59591
1349.99510	0.59417
1348.06654	0.59283
1346.13797	0.59184
1344.20941	0.59144
1342.28084	0.59166
1340.35228	0.59227
1338.42371	0.59274
1336.49515	0.59340
1334.56659	0.59519
1332.63802	0.59832
1330.70946	0.60206
1328.78089	0.60536
1326.85233	0.60764
1324.92376	0.60892
1322.99520	0.60976
1321.06663	0.61062
1319.13807	0.61132
1317.20951	0.61181
1315.28094	0.61248
1313.35238	0.61342
1311.42381	0.61422
1309.49525	0.61444
1307.56668	0.61406
1305.63812	0.61340
1303.70955	0.61271
1301.78099	0.61169
1299.85243	0.61007
1297.92386	0.60791
1295.99530	0.60554
1294.06673	0.60352
1292.13817	0.60223
1290.20960	0.60167
1288.28104	0.60159
1286.35247	0.60166
1284.42391	0.60155
1282.49535	0.60136
1280.56678	0.60132
1278.63822	0.60146
1276.70965	0.60197
1274.78109	0.60308
1272.85252	0.60485
1270.92396	0.60721
1268.99539	0.61005
1267.06683	0.61312
1265.13827	0.61593
1263.20970	0.61798
1261.28114	0.61920
1259.35257	0.61993
1257.42401	0.62061
1255.49544	0.62142
1253.56688	0.62244
1251.63831	0.62368
1249.70975	0.62504
1247.78119	0.62626
1245.85262	0.62711
1243.92406	0.62765
1241.99549	0.62807
1240.06693	0.62821
1238.13836	0.62768
1236.20980	0.62628
1234.28123	0.62413
1232.35267	0.62159
1230.42411	0.61864
1228.49554	0.61501
1226.56698	0.61069
1224.63841	0.60587
1222.70985	0.60078
1220.78128	0.59549
1218.85272	0.59019
1216.92415	0.58542
1214.99559	0.58204
1213.06703	0.58060
1211.13846	0.58074
1209.20990	0.58154
1207.28133	0.58207
1205.35277	0.58141
1203.42420	0.57876
1201.49564	0.57418
1199.56708	0.56852
1197.63851	0.56226
1195.70995	0.55570
1193.78138	0.54955
1191.85282	0.54454
1189.92425	0.54094
1187.99569	0.53850
1186.06712	0.53685
1184.13856	0.53591
1182.21000	0.53590
1180.28143	0.53715
1178.35287	0.54000
1176.42430	0.54413
1174.49574	0.54870
1172.56717	0.55341
1170.63861	0.55877
1168.71004	0.56546
1166.78148	0.57360
1164.85292	0.58260
1162.92435	0.59145
1160.99579	0.59905
1159.06722	0.60398
1157.13866	0.60512
1155.21009	0.60240
1153.28153	0.59673
1151.35296	0.58910
1149.42440	0.58025
1147.49584	0.57097
1145.56727	0.56225
1143.63871	0.55489
1141.71014	0.54968
1139.78158	0.54710
1137.85301	0.54674
1135.92445	0.54792
1133.99588	0.55068
1132.06732	0.55544
1130.13876	0.56220
1128.21019	0.57060
1126.28163	0.58001
1124.35306	0.58918
1122.42450	0.59722
1120.49593	0.60411
1118.56737	0.60960
1116.63880	0.61306
1114.71024	0.61385
1112.78168	0.61183
1110.85311	0.60806
1108.92455	0.60340
1106.99598	0.59830
1105.06742	0.59369
1103.13885	0.59002
1101.21029	0.58719
1099.28172	0.58584
1097.35316	0.58678
1095.42460	0.58985
1093.49603	0.59468
1091.56747	0.60131
1089.63890	0.60940
1087.71034	0.61852
1085.78177	0.62864
1083.85321	0.63937
1081.92464	0.64972
1079.99608	0.65848
1078.06752	0.66459
1076.13895	0.66774
1074.21039	0.66830
1072.28182	0.66656
1070.35326	0.66262
1068.42469	0.65707
1066.49613	0.65109
1064.56756	0.64533
1062.63900	0.63933
1060.71044	0.63255
1058.78187	0.62532
1056.85331	0.61858
1054.92474	0.61296
1052.99618	0.60844
1051.06761	0.60505
1049.13905	0.60339
1047.21049	0.60349
1045.28192	0.60494
1043.35336	0.60806
1041.42479	0.61284
1039.49623	0.61788
1037.56766	0.62189
1035.63910	0.62470
1033.71053	0.62666
1031.78197	0.62787
1029.85341	0.62805
1027.92484	0.62697
1025.99628	0.62476
1024.06771	0.62171
1022.13915	0.61864
1020.21058	0.61646
1018.28202	0.61490
1016.35345	0.61272
1014.42489	0.60874
1012.49633	0.60201
1010.56776	0.59214
1008.63920	0.57974
1006.71063	0.56633
1004.78207	0.55321
1002.85350	0.54100
1000.92494	0.53017
998.99637	0.52127
997.06781	0.51441
995.13925	0.50905
993.21068	0.50443
991.28212	0.50003
989.35355	0.49542
987.42499	0.49072
985.49642	0.48672
983.56786	0.48381
981.63929	0.48189
979.71073	0.48099
977.78217	0.48070
975.85360	0.48006
973.92504	0.47814
971.99647	0.47454
970.06791	0.46940
968.13934	0.46344
966.21078	0.45810
964.28221	0.45484
962.35365	0.45447
960.42509	0.45756
958.49652	0.46395
956.56796	0.47109
954.63939	0.47496
952.71083	0.47356
950.78226	0.46789
948.85370	0.46012
946.92513	0.45216
944.99657	0.44512
943.06801	0.43934
941.13944	0.43473
939.21088	0.43103
937.28231	0.42811
935.35375	0.42621
933.42518	0.42547
931.49662	0.42560
929.56805	0.42621
927.63949	0.42733
925.71093	0.42915
923.78236	0.43141
921.85380	0.43330
919.92523	0.43415
917.99667	0.43390
916.06810	0.43299
914.13954	0.43205
912.21098	0.43148
910.28241	0.43158
908.35385	0.43277
906.42528	0.43511
904.49672	0.43824
902.56815	0.44198
900.63959	0.44594
898.71102	0.44958
896.78246	0.45273
894.85390	0.45529
892.92533	0.45731
890.99677	0.45902
889.06820	0.46060
887.13964	0.46206
885.21107	0.46329
883.28251	0.46438
881.35394	0.46552
879.42538	0.46666
877.49682	0.46771
875.56825	0.46854
873.63969	0.46905
871.71112	0.46961
869.78256	0.47062
867.85399	0.47209
865.92543	0.47389
863.99686	0.47615
862.06830	0.47903
860.13974	0.48231
858.21117	0.48561
856.28261	0.48887
854.35404	0.49209
852.42548	0.49472
850.49691	0.49625
848.56835	0.49697
846.63978	0.49756
844.71122	0.49824
842.78266	0.49880
840.85409	0.49924
838.92553	0.49988
836.99696	0.50100
835.06840	0.50265
833.13983	0.50478
831.21127	0.50705
829.28270	0.50887
827.35414	0.51028
825.42558	0.51135
823.49701	0.51162
821.56845	0.51108
819.63988	0.51023
817.71132	0.50915
815.78275	0.50772
813.85419	0.50592
811.92562	0.50409
809.99706	0.50262
808.06850	0.50137
806.13993	0.50026
804.21137	0.49971
802.28280	0.49993
800.35424	0.50074
798.42567	0.50214
796.49711	0.50410
794.56854	0.50615
792.63998	0.50778
790.71142	0.50894
788.78285	0.51008
786.85429	0.51105
784.92572	0.51122
782.99716	0.51057
781.06859	0.50955
779.14003	0.50866
777.21147	0.50811
775.28290	0.50770
773.35434	0.50757
771.42577	0.50836
769.49721	0.51010
767.56864	0.51242
765.64008	0.51538
763.71151	0.51888
761.78295	0.52227
759.85439	0.52522
757.92582	0.52802
755.99726	0.53089
754.06869	0.53337
752.14013	0.53491
750.21156	0.53566
748.28300	0.53637
746.35443	0.53736
744.42587	0.53810
742.49731	0.53850
740.56874	0.53911
738.64018	0.54027
736.71161	0.54213
734.78305	0.54491
732.85448	0.54849
730.92592	0.55236
728.99735	0.55591
727.06879	0.55886
725.14023	0.56155
723.21166	0.56458
721.28310	0.56795
719.35453	0.57038
717.42597	0.57092
715.49740	0.57061
713.56884	0.57036
711.64027	0.57030
709.71171	0.57084
707.78315	0.57228
705.85458	0.57447
703.92602	0.57671
701.99745	0.57841
700.06889	0.57971
698.14032	0.58079
696.21176	0.58173
694.28319	0.58245
692.35463	0.58263
690.42607	0.58236
688.49750	0.58179
686.56894	0.58069
684.64037	0.57920
682.71181	0.57753
680.78324	0.57551
678.85468	0.57318
676.92611	0.57101
674.99755	0.56945
673.06899	0.56889
671.14042	0.56984
669.21186	0.57168
667.28329	0.57126
665.35473	0.57008
663.42616	0.57047
661.49760	0.57128
659.56903	0.57149
657.64047	0.57135
655.71191	0.57065
653.78334	0.56886
651.85478	0.56683
649.92621	0.56538
647.99765	0.56397
646.06908	0.56237
644.14052	0.56159
642.21195	0.56233
640.28339	0.56434
638.35483	0.56696
636.42626	0.56916
634.49770	0.57031
632.56913	0.57108
630.64057	0.57204
628.71200	0.57307
626.78344	0.57458
624.85488	0.57645
622.92631	0.57748
620.99775	0.57759
619.06918	0.57756
617.14062	0.57684
615.21205	0.57482
613.28349	0.57245
611.35492	0.57049
609.42636	0.56871
607.49780	0.56734
605.56923	0.56711
603.64067	0.56783
601.71210	0.56872
599.78354	0.56948
