3997.91406	0.79573
3995.98550	0.79446
3994.05693	0.79297
3992.12837	0.79162
3990.19980	0.79013
3988.27124	0.79037
3986.34268	0.79215
3984.41411	0.79257
3982.48555	0.79130
3980.55698	0.78892
3978.62842	0.78622
3976.69985	0.78613
3974.77129	0.78819
3972.84272	0.78852
3970.91416	0.78703
3968.98560	0.78534
3967.05703	0.78398
3965.12847	0.78414
3963.19990	0.78560
3961.27134	0.78661
3959.34277	0.78683
3957.41421	0.78609
3955.48564	0.78431
3953.55708	0.78337
3951.62852	0.78488
3949.69995	0.78688
3947.77139	0.78696
3945.84282	0.78677
3943.91426	0.78693
3941.98569	0.78659
3940.05713	0.78654
3938.12856	0.78709
3936.20000	0.78786
3934.27144	0.78782
3932.34287	0.78602
3930.41431	0.78368
3928.48574	0.78219
3926.55718	0.78079
3924.62861	0.77907
3922.70005	0.77854
3920.77148	0.77901
3918.84292	0.77849
3916.91436	0.77608
3914.98579	0.77311
3913.05723	0.77100
3911.12866	0.77022
3909.20010	0.77171
3907.27153	0.77470
3905.34297	0.77587
3903.41440	0.77313
3901.48584	0.76854
3899.55728	0.76515
3897.62871	0.76499
3895.70015	0.76684
3893.77158	0.76764
3891.84302	0.76455
3889.91445	0.76073
3887.98589	0.75931
3886.05733	0.75814
3884.12876	0.75977
3882.20020	0.76393
3880.27163	0.76475
3878.34307	0.76543
3876.41450	0.76860
3874.48594	0.77054
3872.55737	0.77040
3870.62881	0.76829
3868.70025	0.76572
3866.77168	0.76480
3864.84312	0.76081
3862.91455	0.75569
3860.98599	0.75688
3859.05742	0.76173
3857.12886	0.76693
3855.20029	0.76891
3853.27173	0.76010
3851.34317	0.75423
3849.41460	0.75713
3847.48604	0.76132
3845.55747	0.76411
3843.62891	0.76467
3841.70034	0.76451
3839.77178	0.76340
3837.84321	0.75975
3835.91465	0.75754
3833.98609	0.75751
3832.05752	0.75721
3830.12896	0.75630
3828.20039	0.75539
3826.27183	0.75509
3824.34326	0.75655
3822.41470	0.75741
3820.48613	0.75394
3818.55757	0.75134
3816.62901	0.75023
3814.70044	0.74967
3812.77188	0.75121
3810.84331	0.75394
3808.91475	0.75573
3806.98618	0.75416
3805.05762	0.75281
3803.12905	0.75236
3801.20049	0.74979
3799.27193	0.75016
3797.34336	0.75127
3795.41480	0.74973
3793.48623	0.74809
3791.55767	0.74694
3789.62910	0.74643
3787.70054	0.74734
3785.77197	0.74817
3783.84341	0.74815
3781.91485	0.74842
3779.98628	0.74783
3778.05772	0.74671
3776.12915	0.74725
3774.20059	0.74834
3772.27202	0.74858
3770.34346	0.74740
3768.41489	0.74653
3766.48633	0.74687
3764.55777	0.74723
3762.62920	0.74830
3760.70064	0.74826
3758.77207	0.74513
3756.84351	0.74386
3754.91494	0.74647
3752.98638	0.74968
3751.05781	0.74822
3749.12925	0.74423
3747.20069	0.74389
3745.27212	0.74206
3743.34356	0.73887
3741.41499	0.74071
3739.48643	0.74564
3737.55786	0.75005
3735.62930	0.74918
3733.70074	0.74390
3731.77217	0.74298
3729.84361	0.74594
3727.91504	0.74810
3725.98648	0.74688
3724.05791	0.74499
3722.12935	0.74426
3720.20078	0.74337
3718.27222	0.74353
3716.34366	0.74585
3714.41509	0.74968
3712.48653	0.75175
3710.55796	0.74788
3708.62940	0.74361
3706.70083	0.74378
3704.77227	0.74660
3702.84370	0.74730
3700.91514	0.74537
3698.98658	0.74596
3697.05801	0.74826
3695.12945	0.75005
3693.20088	0.75208
3691.27232	0.75321
3689.34375	0.74804
3687.41519	0.74274
3685.48662	0.74369
3683.55806	0.74743
3681.62950	0.75212
3679.70093	0.75729
3677.77237	0.76137
3675.84380	0.76014
3673.91524	0.75852
3671.98667	0.76116
3670.05811	0.76158
3668.12954	0.76094
3666.20098	0.76385
3664.27242	0.76807
3662.34385	0.77217
3660.41529	0.77675
3658.48672	0.78138
3656.55816	0.78463
3654.62959	0.78840
3652.70103	0.79384
3650.77246	0.79667
3648.84390	0.79275
3646.91534	0.79318
3644.98677	0.79913
3643.05821	0.80588
3641.12964	0.81213
3639.20108	0.81764
3637.27251	0.82255
3635.34395	0.82702
3633.41538	0.83160
3631.48682	0.83568
3629.55826	0.83718
3627.62969	0.83976
3625.70113	0.84636
3623.77256	0.85323
3621.84400	0.85985
3619.91543	0.86494
3617.98687	0.86698
3616.05830	0.87051
3614.12974	0.87624
3612.20118	0.88115
3610.27261	0.88442
3608.34405	0.88647
3606.41548	0.88910
3604.48692	0.89376
3602.55835	0.89910
3600.62979	0.90307
3598.70123	0.90633
3596.77266	0.91036
3594.84410	0.91463
3592.91553	0.91935
3590.98697	0.92510
3589.05840	0.93168
3587.12984	0.93758
3585.20127	0.94119
3583.27271	0.94308
3581.34415	0.94423
3579.41558	0.94567
3577.48702	0.94781
3575.55845	0.95136
3573.62989	0.95761
3571.70132	0.96599
3569.77276	0.97319
3567.84419	0.97584
3565.91563	0.97625
3563.98707	0.98019
3562.05850	0.98488
3560.12994	0.98708
3558.20137	0.98879
3556.27281	0.99149
3554.34424	0.99462
3552.41568	0.99874
3550.48711	1.00319
3548.55855	1.00730
3546.62999	1.01163
3544.70142	1.01566
3542.77286	1.01843
3540.84429	1.02150
3538.91573	1.02626
3536.98716	1.03071
3535.05860	1.03331
3533.13003	1.03533
3531.20147	1.03799
3529.27291	1.04098
3527.34434	1.04314
3525.41578	1.04614
3523.48721	1.05182
3521.55865	1.05741
3519.63008	1.06000
3517.70152	1.06063
3515.77295	1.06202
3513.84439	1.06523
3511.91583	1.06893
3509.98726	1.07207
3508.05870	1.07523
3506.13013	1.07911
3504.20157	1.08302
3502.27300	1.08538
3500.34444	1.08744
3498.41587	1.09161
3496.48731	1.09629
3494.55875	1.09875
3492.63018	1.09963
3490.70162	1.09957
3488.77305	1.09923
3486.84449	1.10115
3484.91592	1.10357
3482.98736	1.10335
3481.05879	1.10348
3479.13023	1.10650
3477.20167	1.11001
3475.27310	1.11223
3473.34454	1.11335
3471.41597	1.11523
3469.48741	1.11910
3467.55884	1.12185
3465.63028	1.12085
3463.70171	1.11848
3461.77315	1.11746
3459.84459	1.11933
3457.91602	1.12287
3455.98746	1.12484
3454.05889	1.12514
3452.13033	1.12613
3450.20176	1.12871
3448.27320	1.13024
3446.34464	1.12919
3444.41607	1.12907
3442.48751	1.13037
3440.55894	1.13158
3438.63038	1.13408
3436.70181	1.13758
3434.77325	1.13933
3432.84468	1.13830
3430.91612	1.13647
3428.98756	1.13615
3427.05899	1.13709
3425.13043	1.13766
3423.20186	1.13770
3421.27330	1.13917
3419.34473	1.14152
3417.41617	1.14238
3415.48760	1.14292
3413.55904	1.14335
3411.63048	1.14180
3409.70191	1.13943
3407.77335	1.13877
3405.84478	1.14041
3403.91622	1.14241
3401.98765	1.14342
3400.05909	1.14468
3398.13052	1.14620
3396.20196	1.14688
3394.27340	1.14717
3392.34483	1.14767
3390.41627	1.14780
3388.48770	1.14688
3386.55914	1.14614
3384.63057	1.14783
3382.70201	1.15100
3380.77344	1.15230
3378.84488	1.15132
3376.91632	1.15012
3374.98775	1.14941
3373.05919	1.14939
3371.13062	1.15074
3369.20206	1.15267
3367.27349	1.15391
3365.34493	1.15458
3363.41636	1.15549
3361.48780	1.15715
3359.55924	1.15829
3357.63067	1.15765
3355.70211	1.15683
3353.77354	1.15739
3351.84498	1.15964
3349.91641	1.16338
3347.98785	1.16571
3346.05928	1.16465
3344.13072	1.16327
3342.20216	1.16422
3340.27359	1.16623
3338.34503	1.16709
3336.41646	1.16717
3334.48790	1.16892
3332.55933	1.17119
3330.63077	1.17020
3328.70220	1.16700
3326.77364	1.16554
3324.84508	1.16633
3322.91651	1.16804
3320.98795	1.17038
3319.05938	1.17163
3317.13082	1.17021
3315.20225	1.16983
3313.27369	1.17322
3311.34513	1.17731
3309.41656	1.18042
3307.48800	1.18251
3305.55943	1.18154
3303.63087	1.17850
3301.70230	1.17753
3299.77374	1.17986
3297.84517	1.18332
3295.91661	1.18566
3293.98805	1.18548
3292.05948	1.18283
3290.13092	1.17981
3288.20235	1.17842
3286.27379	1.17868
3284.34522	1.17988
3282.41666	1.18127
3280.48809	1.18180
3278.55953	1.18162
3276.63097	1.18176
3274.70240	1.18274
3272.77384	1.18353
3270.84527	1.18232
3268.91671	1.17993
3266.98814	1.17819
3265.05958	1.17723
3263.13101	1.17700
3261.20245	1.17672
3259.27389	1.17504
3257.34532	1.17310
3255.41676	1.17305
3253.48819	1.17383
3251.55963	1.17303
3249.63106	1.17072
3247.70250	1.16823
3245.77393	1.16665
3243.84537	1.16634
3241.91681	1.16630
3239.98824	1.16561
3238.05968	1.16541
3236.13111	1.16691
3234.20255	1.16840
3232.27398	1.16800
3230.34542	1.16595
3228.41685	1.16381
3226.48829	1.16233
3224.55973	1.16058
3222.63116	1.15873
3220.70260	1.15839
3218.77403	1.15960
3216.84547	1.16060
3214.91690	1.16061
3212.98834	1.16081
3211.05977	1.16135
3209.13121	1.16058
3207.20265	1.15904
3205.27408	1.15889
3203.34552	1.15922
3201.41695	1.15849
3199.48839	1.15733
3197.55982	1.15567
3195.63126	1.15375
3193.70269	1.15223
3191.77413	1.15037
3189.84557	1.14877
3187.91700	1.14854
3185.98844	1.14851
3184.05987	1.14749
3182.13131	1.14622
3180.20274	1.14562
3178.27418	1.14442
3176.34562	1.14164
3174.41705	1.13966
3172.48849	1.13933
3170.55992	1.13884
3168.63136	1.13788
3166.70279	1.13685
3164.77423	1.13635
3162.84566	1.13686
3160.91710	1.13644
3158.98854	1.13352
3157.05997	1.12996
3155.13141	1.12757
3153.20284	1.12615
3151.27428	1.12562
3149.34571	1.12601
3147.41715	1.12699
3145.48858	1.12773
3143.56002	1.12712
3141.63146	1.12546
3139.70289	1.12402
3137.77433	1.12354
3135.84576	1.12325
3133.91720	1.12196
3131.98863	1.12029
3130.06007	1.11908
3128.13150	1.11831
3126.20294	1.11819
3124.27438	1.11927
3122.34581	1.12101
3120.41725	1.12192
3118.48868	1.12203
3116.56012	1.12124
3114.63155	1.11838
3112.70299	1.11581
3110.77442	1.11703
3108.84586	1.11979
3106.91730	1.11985
3104.98873	1.11812
3103.06017	1.11751
3101.13160	1.11772
3099.20304	1.11736
3097.27447	1.11721
3095.34591	1.11849
3093.41734	1.11969
3091.48878	1.11822
3089.56022	1.11455
3087.63165	1.11186
3085.70309	1.11178
3083.77452	1.11268
3081.84596	1.11170
3079.91739	1.10856
3077.98883	1.10614
3076.06026	1.10533
3074.13170	1.10477
3072.20314	1.10380
3070.27457	1.10274
3068.34601	1.10271
3066.41744	1.10300
3064.48888	1.10141
3062.56031	1.09877
3060.63175	1.09696
3058.70318	1.09525
3056.77462	1.09239
3054.84606	1.08987
3052.91749	1.08939
3050.98893	1.08942
3049.06036	1.08797
3047.13180	1.08538
3045.20323	1.08288
3043.27467	1.08072
3041.34610	1.07866
3039.41754	1.07672
3037.48898	1.07479
3035.56041	1.07344
3033.63185	1.07307
3031.70328	1.07236
3029.77472	1.07095
3027.84615	1.06944
3025.91759	1.06686
3023.98903	1.06330
3022.06046	1.06086
3020.13190	1.06025
3018.20333	1.06033
3016.27477	1.06023
3014.34620	1.06004
3012.41764	1.05972
3010.48907	1.05795
3008.56051	1.05478
3006.63195	1.05292
3004.70338	1.05342
3002.77482	1.05397
3000.84625	1.05303
2998.91769	1.05171
2996.98912	1.05161
2995.06056	1.05276
2993.13199	1.05418
2991.20343	1.05491
2989.27487	1.05479
2987.34630	1.05558
2985.41774	1.05871
2983.48917	1.06304
2981.56061	1.06647
2979.63204	1.06807
2977.70348	1.06970
2975.77491	1.07344
2973.84635	1.07783
2971.91779	1.08105
2969.98922	1.08379
2968.06066	1.08702
2966.13209	1.09052
2964.20353	1.09403
2962.27496	1.09719
2960.34640	1.09884
2958.41783	1.09865
2956.48927	1.09786
2954.56071	1.09582
2952.63214	1.09139
2950.70358	1.08793
2948.77501	1.08841
2946.84645	1.09101
2944.91788	1.09386
2942.98932	1.09691
2941.06075	1.10090
2939.13219	1.10615
2937.20363	1.11076
2935.27506	1.11315
2933.34650	1.11487
2931.41793	1.11840
2929.48937	1.12352
2927.56080	1.12796
2925.63224	1.13098
2923.70367	1.13302
2921.77511	1.13397
2919.84655	1.13391
2917.91798	1.13238
2915.98942	1.12767
2914.06085	1.11978
2912.13229	1.11106
2910.20372	1.10318
2908.27516	1.09674
2906.34659	1.09115
2904.41803	1.08550
2902.48947	1.08041
2900.56090	1.07618
2898.63234	1.07302
2896.70377	1.07173
2894.77521	1.07118
2892.84664	1.06905
2890.91808	1.06546
2888.98952	1.06250
2887.06095	1.06102
2885.13239	1.06005
2883.20382	1.05871
2881.27526	1.05772
2879.34669	1.05841
2877.41813	1.06028
2875.48956	1.06149
2873.56100	1.06107
2871.63244	1.05827
2869.70387	1.05278
2867.77531	1.04695
2865.84674	1.04361
2863.91818	1.04275
2861.98961	1.04295
2860.06105	1.04334
2858.13248	1.04453
2856.20392	1.04701
2854.27536	1.04956
2852.34679	1.05214
2850.41823	1.05376
2848.48966	1.04879
2846.56110	1.03552
2844.63253	1.01981
2842.70397	1.00646
2840.77540	0.99733
2838.84684	0.99156
2836.91828	0.98622
2834.98971	0.98065
2833.06115	0.97603
2831.13258	0.97270
2829.20402	0.97048
2827.27545	0.96871
2825.34689	0.96666
2823.41832	0.96385
2821.48976	0.96001
2819.56120	0.95557
2817.63263	0.95180
2815.70407	0.94928
2813.77550	0.94703
2811.84694	0.94468
2809.91837	0.94267
2807.98981	0.94114
2806.06124	0.94033
2804.13268	0.93953
2802.20412	0.93749
2800.27555	0.93514
2798.34699	0.93360
2796.41842	0.93152
2794.48986	0.92871
2792.56129	0.92673
2790.63273	0.92515
2788.70416	0.92251
2786.77560	0.91911
2784.84704	0.91598
2782.91847	0.91302
2780.98991	0.90991
2779.06134	0.90739
2777.13278	0.90572
2775.20421	0.90422
2773.27565	0.90265
2771.34708	0.90075
2769.41852	0.89810
2767.48996	0.89532
2765.56139	0.89310
2763.63283	0.89169
2761.70426	0.89130
2759.77570	0.89107
2757.84713	0.88932
2755.91857	0.88615
2753.99001	0.88341
2752.06144	0.88187
2750.13288	0.88086
2748.20431	0.87985
2746.27575	0.87875
2744.34718	0.87777
2742.41862	0.87699
2740.49005	0.87578
2738.56149	0.87396
2736.63293	0.87233
2734.70436	0.87119
2732.77580	0.86989
2730.84723	0.86795
2728.91867	0.86580
2726.99010	0.86437
2725.06154	0.86339
2723.13297	0.86205
2721.20441	0.86044
2719.27585	0.85883
2717.34728	0.85743
2715.41872	0.85654
2713.49015	0.85599
2711.56159	0.85510
2709.63302	0.85354
2707.70446	0.85197
2705.77589	0.85107
2703.84733	0.85061
2701.91877	0.85007
2699.99020	0.84876
2698.06164	0.84643
2696.13307	0.84381
2694.20451	0.84143
2692.27594	0.83939
2690.34738	0.83768
2688.41881	0.83586
2686.49025	0.83395
2684.56169	0.83239
2682.63312	0.83099
2680.70456	0.82954
2678.77599	0.82833
2676.84743	0.82712
2674.91886	0.82549
2672.99030	0.82359
2671.06173	0.82158
2669.13317	0.81974
2667.20461	0.81813
2665.27604	0.81629
2663.34748	0.81434
2661.41891	0.81287
2659.49035	0.81161
2657.56178	0.81024
2655.63322	0.80901
2653.70465	0.80784
2651.77609	0.80698
2649.84753	0.80669
2647.91896	0.80600
2645.99040	0.80445
2644.06183	0.80291
2642.13327	0.80180
2640.20470	0.80092
2638.27614	0.80008
2636.34757	0.79910
2634.41901	0.79787
2632.49045	0.79640
2630.56188	0.79496
2628.63332	0.79403
2626.70475	0.79339
2624.77619	0.79235
2622.84762	0.79113
2620.91906	0.79038
2618.99049	0.78967
2617.06193	0.78846
2615.13337	0.78690
2613.20480	0.78539
2611.27624	0.78409
2609.34767	0.78269
2607.41911	0.78104
2605.49054	0.77950
2603.56198	0.77825
2601.63342	0.77708
2599.70485	0.77577
2597.77629	0.77444
2595.84772	0.77317
2593.91916	0.77193
2591.99059	0.77085
2590.06203	0.76981
2588.13346	0.76844
2586.20490	0.76657
2584.27634	0.76444
2582.34777	0.76257
2580.41921	0.76103
2578.49064	0.75953
2576.56208	0.75787
2574.63351	0.75627
2572.70495	0.75512
2570.77638	0.75428
2568.84782	0.75354
2566.91926	0.75308
2564.99069	0.75284
2563.06213	0.75231
2561.13356	0.75140
2559.20500	0.75054
2557.27643	0.74945
2555.34787	0.74783
2553.41930	0.74650
2551.49074	0.74588
2549.56218	0.74519
2547.63361	0.74390
2545.70505	0.74263
2543.77648	0.74199
2541.84792	0.74167
2539.91935	0.74099
2537.99079	0.73978
2536.06222	0.73857
2534.13366	0.73782
2532.20510	0.73727
2530.27653	0.73632
2528.34797	0.73482
2526.41940	0.73321
2524.49084	0.73215
2522.56227	0.73180
2520.63371	0.73133
2518.70514	0.72984
2516.77658	0.72762
2514.84802	0.72588
2512.91945	0.72491
2510.99089	0.72383
2509.06232	0.72227
2507.13376	0.72056
2505.20519	0.71886
2503.27663	0.71726
2501.34806	0.71582
2499.41950	0.71449
2497.49094	0.71327
2495.56237	0.71203
2493.63381	0.71055
2491.70524	0.70883
2489.77668	0.70718
2487.84811	0.70570
2485.91955	0.70427
2483.99098	0.70293
2482.06242	0.70174
2480.13386	0.70083
2478.20529	0.70022
2476.27673	0.69954
2474.34816	0.69888
2472.41960	0.69847
2470.49103	0.69776
2468.56247	0.69644
2466.63391	0.69491
2464.70534	0.69344
2462.77678	0.69206
2460.84821	0.69085
2458.91965	0.68966
2456.99108	0.68839
2455.06252	0.68706
2453.13395	0.68570
2451.20539	0.68456
2449.27683	0.68360
2447.34826	0.68241
2445.41970	0.68094
2443.49113	0.67959
2441.56257	0.67847
2439.63400	0.67744
2437.70544	0.67652
2435.77687	0.67559
2433.84831	0.67457
2431.91975	0.67371
2429.99118	0.67283
2428.06262	0.67188
2426.13405	0.67124
2424.20549	0.67066
2422.27692	0.66965
2420.34836	0.66835
2418.41979	0.66730
2416.49123	0.66661
2414.56267	0.66574
2412.63410	0.66426
2410.70554	0.66250
2408.77697	0.66095
2406.84841	0.65952
2404.91984	0.65799
2402.99128	0.65664
2401.06271	0.65543
2399.13415	0.65398
2397.20559	0.65250
2395.27702	0.65153
2393.34846	0.65112
2391.41989	0.65079
2389.49133	0.65023
2387.56276	0.64972
2385.63420	0.64987
2383.70563	0.65080
2381.77707	0.65209
2379.84851	0.65345
2377.91994	0.65507
2375.99138	0.65712
2374.06281	0.65937
2372.13425	0.66179
2370.20568	0.66446
2368.27712	0.66624
2366.34855	0.66628
2364.41999	0.66618
2362.49143	0.66716
2360.56286	0.66769
2358.63430	0.66593
2356.70573	0.66183
2354.77717	0.65569
2352.84860	0.64906
2350.92004	0.64548
2348.99147	0.64566
2347.06291	0.64778
2345.13435	0.64978
2343.20578	0.65088
2341.27722	0.65207
2339.34865	0.65261
2337.42009	0.65160
2335.49152	0.64968
2333.56296	0.64774
2331.63440	0.64623
2329.70583	0.64487
2327.77727	0.64340
2325.84870	0.64195
2323.92014	0.63974
2321.99157	0.63627
2320.06301	0.63288
2318.13444	0.63061
2316.20588	0.62915
2314.27732	0.62763
2312.34875	0.62561
2310.42019	0.62370
2308.49162	0.62211
2306.56306	0.62028
2304.63449	0.61827
2302.70593	0.61664
2300.77736	0.61570
2298.84880	0.61514
2296.92024	0.61414
2294.99167	0.61247
2293.06311	0.61061
2291.13454	0.60869
2289.20598	0.60660
2287.27741	0.60469
2285.34885	0.60320
2283.42028	0.60165
2281.49172	0.59988
2279.56316	0.59839
2277.63459	0.59738
2275.70603	0.59646
2273.77746	0.59524
2271.84890	0.59375
2269.92033	0.59226
2267.99177	0.59094
2266.06320	0.58970
2264.13464	0.58823
2262.20608	0.58684
2260.27751	0.58617
2258.34895	0.58598
2256.42038	0.58564
2254.49182	0.58517
2252.56325	0.58475
2250.63469	0.58434
2248.70612	0.58391
2246.77756	0.58353
2244.84900	0.58328
2242.92043	0.58314
2240.99187	0.58305
2239.06330	0.58295
2237.13474	0.58276
2235.20617	0.58260
2233.27761	0.58273
2231.34904	0.58305
2229.42048	0.58320
2227.49192	0.58306
2225.56335	0.58295
2223.63479	0.58314
2221.70622	0.58352
2219.77766	0.58391
2217.84909	0.58408
2215.92053	0.58383
2213.99196	0.58333
2212.06340	0.58293
2210.13484	0.58274
2208.20627	0.58259
2206.27771	0.58233
2204.34914	0.58190
2202.42058	0.58125
2200.49201	0.58055
2198.56345	0.57996
2196.63488	0.57928
2194.70632	0.57842
2192.77776	0.57749
2190.84919	0.57637
2188.92063	0.57514
2186.99206	0.57405
2185.06350	0.57284
2183.13493	0.57138
2181.20637	0.56994
2179.27781	0.56856
2177.34924	0.56733
2175.42068	0.56638
2173.49211	0.56570
2171.56355	0.56528
2169.63498	0.56505
2167.70642	0.56476
2165.77785	0.56439
2163.84929	0.56416
2161.92073	0.56414
2159.99216	0.56428
2158.06360	0.56450
2156.13503	0.56452
2154.20647	0.56426
2152.27790	0.56393
2150.34934	0.56370
2148.42077	0.56355
2146.49221	0.56334
2144.56365	0.56322
2142.63508	0.56339
2140.70652	0.56394
2138.77795	0.56475
2136.84939	0.56542
2134.92082	0.56588
2132.99226	0.56639
2131.06369	0.56690
2129.13513	0.56723
2127.20657	0.56756
2125.27800	0.56800
2123.34944	0.56839
2121.42087	0.56872
2119.49231	0.56892
2117.56374	0.56890
2115.63518	0.56864
2113.70661	0.56822
2111.77805	0.56765
2109.84949	0.56687
2107.92092	0.56598
2105.99236	0.56518
2104.06379	0.56459
2102.13523	0.56406
2100.20666	0.56331
2098.27810	0.56236
2096.34953	0.56136
2094.42097	0.56025
2092.49241	0.55907
2090.56384	0.55800
2088.63528	0.55697
2086.70671	0.55597
2084.77815	0.55513
2082.84958	0.55450
2080.92102	0.55409
2078.99245	0.55372
2077.06389	0.55319
2075.13533	0.55257
2073.20676	0.55192
2071.27820	0.55119
2069.34963	0.55044
2067.42107	0.54964
2065.49250	0.54860
2063.56394	0.54749
2061.63537	0.54653
2059.70681	0.54555
2057.77825	0.54451
2055.84968	0.54357
2053.92112	0.54272
2051.99255	0.54200
2050.06399	0.54155
2048.13542	0.54132
2046.20686	0.54114
2044.27830	0.54109
2042.34973	0.54120
2040.42117	0.54137
2038.49260	0.54158
2036.56404	0.54174
2034.63547	0.54162
2032.70691	0.54142
2030.77834	0.54130
2028.84978	0.54102
2026.92122	0.54046
2024.99265	0.53976
2023.06409	0.53896
2021.13552	0.53816
2019.20696	0.53752
2017.27839	0.53681
2015.34983	0.53591
2013.42126	0.53517
2011.49270	0.53459
2009.56414	0.53400
2007.63557	0.53342
2005.70701	0.53299
2003.77844	0.53279
2001.84988	0.53267
1999.92131	0.53254
1997.99275	0.53241
1996.06418	0.53230
1994.13562	0.53211
1992.20706	0.53166
1990.27849	0.53098
1988.34993	0.53007
1986.42136	0.52907
1984.49280	0.52828
1982.56423	0.52756
1980.63567	0.52665
1978.70710	0.52573
1976.77854	0.52479
1974.84998	0.52361
1972.92141	0.52229
1970.99285	0.52117
1969.06428	0.52028
1967.13572	0.51918
1965.20715	0.51781
1963.27859	0.51670
1961.35002	0.51603
1959.42146	0.51568
1957.49290	0.51556
1955.56433	0.51555
1953.63577	0.51554
1951.70720	0.51551
1949.77864	0.51557
1947.85007	0.51582
1945.92151	0.51609
1943.99294	0.51588
1942.06438	0.51481
1940.13582	0.51354
1938.20725	0.51262
1936.27869	0.51180
1934.35012	0.51083
1932.42156	0.50979
1930.49299	0.50898
1928.56443	0.50862
1926.63586	0.50881
1924.70730	0.50925
1922.77874	0.50926
1920.85017	0.50905
1918.92161	0.50903
1916.99304	0.50884
1915.06448	0.50872
1913.13591	0.50914
1911.20735	0.50982
1909.27878	0.51013
1907.35022	0.50991
1905.42166	0.50974
1903.49309	0.50988
1901.56453	0.51019
1899.63596	0.51045
1897.70740	0.51050
1895.77883	0.51025
1893.85027	0.50995
1891.92171	0.51003
1889.99314	0.51004
1888.06458	0.50949
1886.13601	0.50887
1884.20745	0.50833
1882.27888	0.50775
1880.35032	0.50713
1878.42175	0.50648
1876.49319	0.50590
1874.56463	0.50550
1872.63606	0.50563
1870.70750	0.50604
1868.77893	0.50554
1866.85037	0.50398
1864.92180	0.50280
1862.99324	0.50219
1861.06467	0.50170
1859.13611	0.50091
1857.20755	0.49985
1855.27898	0.49897
1853.35042	0.49840
1851.42185	0.49795
1849.49329	0.49770
1847.56472	0.49777
1845.63616	0.49769
1843.70759	0.49650
1841.77903	0.49533
1839.85047	0.49515
1837.92190	0.49524
1835.99334	0.49518
1834.06477	0.49537
1832.13621	0.49602
1830.20764	0.49630
1828.27908	0.49582
1826.35051	0.49533
1824.42195	0.49466
1822.49339	0.49396
1820.56482	0.49371
1818.63626	0.49367
1816.70769	0.49356
1814.77913	0.49381
1812.85056	0.49447
1810.92200	0.49468
1808.99343	0.49432
1807.06487	0.49417
1805.13631	0.49451
1803.20774	0.49532
1801.27918	0.49614
1799.35061	0.49654
1797.42205	0.49726
1795.49348	0.49862
1793.56492	0.49966
1791.63635	0.49919
1789.70779	0.49827
1787.77923	0.49821
1785.85066	0.49839
1783.92210	0.49841
1781.99353	0.49840
1780.06497	0.49802
1778.13640	0.49773
1776.20784	0.49814
1774.27927	0.49885
1772.35071	0.49861
1770.42215	0.49742
1768.49358	0.49659
1766.56502	0.49635
1764.63645	0.49698
1762.70789	0.49810
1760.77932	0.49935
1758.85076	0.50104
1756.92220	0.50358
1754.99363	0.50712
1753.06507	0.51197
1751.13650	0.51902
1749.20794	0.52747
1747.27937	0.53511
1745.35081	0.54190
1743.42224	0.54810
1741.49368	0.55335
1739.56512	0.55769
1737.63655	0.56129
1735.70799	0.56440
1733.77942	0.56705
1731.85086	0.56846
1729.92229	0.56977
1727.99373	0.57200
1726.06516	0.57528
1724.13660	0.57974
1722.20804	0.58506
1720.27947	0.59151
1718.35091	0.60136
1716.42234	0.61462
1714.49378	0.62496
1712.56521	0.63432
1710.63665	0.64591
1708.70808	0.66021
1706.77952	0.68007
1704.85096	0.70542
1702.92239	0.72888
1700.99383	0.76038
1699.06526	0.80839
1697.13670	0.85330
1695.20813	0.89601
1693.27957	0.92780
1691.35100	0.95310
1689.42244	0.98235
1687.49388	1.00855
1685.56531	1.03273
1683.63675	1.06601
1681.70818	1.08954
1679.77962	1.10321
1677.85105	1.11543
1675.92249	1.12821
1673.99392	1.14082
1672.06536	1.15109
1670.13680	1.16084
1668.20823	1.17037
1666.27967	1.17744
1664.35110	1.18413
1662.42254	1.19074
1660.49397	1.19580
1658.56541	1.20055
1656.63684	1.20524
1654.70828	1.20959
1652.77972	1.21135
1650.85115	1.21285
1648.92259	1.21580
1646.99402	1.21661
1645.06546	1.21483
1643.13689	1.21382
1641.20833	1.21349
1639.27976	1.21324
1637.35120	1.21281
1635.42264	1.21050
1633.49407	1.20785
1631.56551	1.20612
1629.63694	1.20334
1627.70838	1.19959
1625.77981	1.19564
1623.85125	1.18936
1621.92269	1.18071
1619.99412	1.17386
1618.06556	1.16509
1616.13699	1.14896
1614.20843	1.13552
1612.27986	1.12604
1610.35130	1.11522
1608.42273	1.10314
1606.49417	1.09301
1604.56561	1.08575
1602.63704	1.07962
1600.70848	1.07427
1598.77991	1.07072
1596.85135	1.06859
1594.92278	1.06644
1592.99422	1.06452
1591.06565	1.06411
1589.13709	1.06539
1587.20853	1.06836
1585.27996	1.07291
1583.35140	1.07871
1581.42283	1.08521
1579.49427	1.09192
1577.56570	1.09975
1575.63714	1.10921
1573.70857	1.11674
1571.78001	1.12331
1569.85145	1.13130
1567.92288	1.13878
1565.99432	1.14492
1564.06575	1.15137
1562.13719	1.15734
1560.20862	1.16363
1558.28006	1.17237
1556.35149	1.17851
1554.42293	1.18343
1552.49437	1.18787
1550.56580	1.19121
1548.63724	1.19325
1546.70867	1.19536
1544.78011	1.19834
1542.85154	1.20067
1540.92298	1.19728
1538.99441	1.18973
1537.06585	1.18831
1535.13729	1.18821
1533.20872	1.18476
1531.28016	1.17970
1529.35159	1.17718
1527.42303	1.17619
1525.49446	1.17478
1523.56590	1.17243
1521.63733	1.16804
1519.70877	1.16412
1517.78021	1.16043
1515.85164	1.15334
1513.92308	1.14495
1511.99451	1.13699
1510.06595	1.12976
1508.13738	1.11777
1506.20882	1.09170
1504.28025	1.07619
1502.35169	1.06733
1500.42313	1.05727
1498.49456	1.04349
1496.56600	1.02565
1494.63743	1.01155
1492.70887	1.00305
1490.78030	0.99379
1488.85174	0.97923
1486.92317	0.96612
1484.99461	0.95829
1483.06605	0.95370
1481.13748	0.95074
1479.20892	0.94973
1477.28035	0.95202
1475.35179	0.95834
1473.42322	0.96965
1471.49466	0.98216
1469.56610	0.98995
1467.63753	0.99594
1465.70897	1.00268
1463.78040	1.00893
1461.85184	1.01342
1459.92327	1.01794
1457.99471	1.02425
1456.06614	1.02928
1454.13758	1.03043
1452.20902	1.03045
1450.28045	1.02994
1448.35189	1.02821
1446.42332	1.02510
1444.49476	1.02226
1442.56619	1.01951
1440.63763	1.01644
1438.70906	1.01302
1436.78050	1.00692
1434.85194	0.99934
1432.92337	0.99406
1430.99481	0.98931
1429.06624	0.98461
1427.13768	0.98204
1425.20911	0.98183
1423.28055	0.98339
1421.35198	0.98643
1419.42342	0.99055
1417.49486	0.99370
1415.56629	0.99536
1413.63773	0.99703
1411.70916	0.99846
1409.78060	0.99954
1407.85203	1.00154
1405.92347	1.00496
1403.99490	1.00811
1402.06634	1.00990
1400.13778	1.01094
1398.20921	1.01099
1396.28065	1.00980
1394.35208	1.00760
1392.42352	1.00607
1390.49495	1.00624
1388.56639	1.00752
1386.63782	1.00951
1384.70926	1.01182
1382.78070	1.01374
1380.85213	1.01456
1378.92357	1.01374
1376.99500	1.01069
1375.06644	1.00426
1373.13787	0.99546
1371.20931	0.98737
1369.28074	0.97874
1367.35218	0.96868
1365.42362	0.95949
1363.49505	0.95061
1361.56649	0.94151
1359.63792	0.93476
1357.70936	0.93049
1355.78079	0.92753
1353.85223	0.92528
1351.92366	0.92356
1349.99510	0.92239
1348.06654	0.92180
1346.13797	0.92187
1344.20941	0.92258
1342.28084	0.92379
1340.35228	0.92509
1338.42371	0.92566
1336.49515	0.92643
1334.56659	0.92869
1332.63802	0.93214
1330.70946	0.93608
1328.78089	0.93967
1326.85233	0.94233
1324.92376	0.94433
1322.99520	0.94643
1321.06663	0.94903
1319.13807	0.95179
1317.20951	0.95392
1315.28094	0.95531
1313.35238	0.95616
1311.42381	0.95625
1309.49525	0.95583
1307.56668	0.95519
1305.63812	0.95402
1303.70955	0.95217
1301.78099	0.94977
1299.85243	0.94685
1297.92386	0.94342
1295.99530	0.93995
1294.06673	0.93711
1292.13817	0.93516
1290.20960	0.93407
1288.28104	0.93330
1286.35247	0.93235
1284.42391	0.93132
1282.49535	0.93058
1280.56678	0.93023
1278.63822	0.93006
1276.70965	0.92983
1274.78109	0.92986
1272.85252	0.93057
1270.92396	0.93206
1268.99539	0.93420
1267.06683	0.93649
1265.13827	0.93845
1263.20970	0.93984
1261.28114	0.94037
1259.35257	0.94029
1257.42401	0.94052
1255.49544	0.94160
1253.56688	0.94326
1251.63831	0.94504
1249.70975	0.94663
1247.78119	0.94788
1245.85262	0.94879
1243.92406	0.94921
1241.99549	0.94909
1240.06693	0.94864
1238.13836	0.94781
1236.20980	0.94623
1234.28123	0.94363
1232.35267	0.94014
1230.42411	0.93586
1228.49554	0.93061
1226.56698	0.92457
1224.63841	0.91828
1222.70985	0.91229
1220.78128	0.90659
1218.85272	0.90078
1216.92415	0.89541
1214.99559	0.89151
1213.06703	0.88908
1211.13846	0.88767
1209.20990	0.88712
1207.28133	0.88653
1205.35277	0.88447
1203.42420	0.88030
1201.49564	0.87456
1199.56708	0.86815
1197.63851	0.86165
1195.70995	0.85524
1193.78138	0.84918
1191.85282	0.84370
1189.92425	0.83893
1187.99569	0.83516
1186.06712	0.83274
1184.13856	0.83205
1182.21000	0.83309
1180.28143	0.83557
1178.35287	0.84011
1176.42430	0.84706
1174.49574	0.85530
1172.56717	0.86398
1170.63861	0.87350
1168.71004	0.88430
1166.78148	0.89663
1164.85292	0.91015
1162.92435	0.92342
1160.99579	0.93476
1159.06722	0.94242
1157.13866	0.94514
1155.21009	0.94315
1153.28153	0.93756
1151.35296	0.92962
1149.42440	0.92014
1147.49584	0.91021
1145.56727	0.90135
1143.63871	0.89489
1141.71014	0.89185
1139.78158	0.89242
1137.85301	0.89621
1135.92445	0.90278
1133.99588	0.91175
1132.06732	0.92240
1130.13876	0.93375
1128.21019	0.94579
1126.28163	0.95849
1124.35306	0.97047
1122.42450	0.98079
1120.49593	0.98993
1118.56737	0.99794
1116.63880	1.00386
1114.71024	1.00749
1112.78168	1.00948
1110.85311	1.01007
1108.92455	1.00937
1106.99598	1.00831
1105.06742	1.00758
1103.13885	1.00672
1101.21029	1.00554
1099.28172	1.00507
1097.35316	1.00635
1095.42460	1.00953
1093.49603	1.01473
1091.56747	1.02297
1089.63890	1.03419
1087.71034	1.04592
1085.78177	1.05653
1083.85321	1.06650
1081.92464	1.07505
1079.99608	1.07992
1078.06752	1.08037
1076.13895	1.07725
1074.21039	1.07150
1072.28182	1.06345
1070.35326	1.05340
1068.42469	1.04263
1066.49613	1.03261
1064.56756	1.02389
1062.63900	1.01642
1060.71044	1.01082
1058.78187	1.00710
1056.85331	1.00349
1054.92474	0.99930
1052.99618	0.99629
1051.06761	0.99550
1049.13905	0.99601
1047.21049	0.99726
1045.28192	1.00024
1043.35336	1.00564
1041.42479	1.01183
1039.49623	1.01650
1037.56766	1.01920
1035.63910	1.02082
1033.71053	1.02129
1031.78197	1.01875
1029.85341	1.01276
1027.92484	1.00508
1025.99628	0.99621
1024.06771	0.98597
1022.13915	0.97594
1020.21058	0.96738
1018.28202	0.95970
1016.35345	0.95245
1014.42489	0.94465
1012.49633	0.93474
1010.56776	0.92279
1008.63920	0.90929
1006.71063	0.89454
1004.78207	0.88017
1002.85350	0.86790
1000.92494	0.85829
998.99637	0.85122
997.06781	0.84659
995.13925	0.84378
993.21068	0.84114
991.28212	0.83680
989.35355	0.82951
987.42499	0.81933
985.49642	0.80741
983.56786	0.79470
981.63929	0.78200
979.71073	0.77044
977.78217	0.76048
975.85360	0.75127
973.92504	0.74171
971.99647	0.73125
970.06791	0.71996
968.13934	0.70876
966.21078	0.69905
964.28221	0.69190
962.35365	0.68835
960.42509	0.68925
958.49652	0.69382
956.56796	0.69878
954.63939	0.70021
952.71083	0.69654
950.78226	0.68912
948.85370	0.68041
946.92513	0.67240
944.99657	0.66608
943.06801	0.66158
941.13944	0.65854
939.21088	0.65680
937.28231	0.65640
935.35375	0.65752
933.42518	0.66038
931.49662	0.66445
929.56805	0.66893
927.63949	0.67378
925.71093	0.67897
923.78236	0.68378
921.85380	0.68744
919.92523	0.68973
917.99667	0.69063
916.06810	0.69035
914.13954	0.68957
912.21098	0.68929
910.28241	0.69006
908.35385	0.69194
906.42528	0.69517
904.49672	0.69965
902.56815	0.70463
900.63959	0.70917
898.71102	0.71249
896.78246	0.71410
894.85390	0.71368
892.92533	0.71107
890.99677	0.70641
889.06820	0.70038
887.13964	0.69388
885.21107	0.68735
883.28251	0.68148
881.35394	0.67735
879.42538	0.67508
877.49682	0.67404
875.56825	0.67353
873.63969	0.67299
871.71112	0.67248
869.78256	0.67212
867.85399	0.67160
865.92543	0.67089
863.99686	0.67023
862.06830	0.66979
860.13974	0.66945
858.21117	0.66900
856.28261	0.66891
854.35404	0.66961
852.42548	0.67060
850.49691	0.67142
848.56835	0.67233
846.63978	0.67346
844.71122	0.67510
842.78266	0.67747
840.85409	0.68004
838.92553	0.68214
836.99696	0.68333
835.06840	0.68375
833.13983	0.68398
831.21127	0.68373
829.28270	0.68282
827.35414	0.68190
825.42558	0.68112
823.49701	0.68080
821.56845	0.68174
819.63988	0.68369
817.71132	0.68623
815.78275	0.68967
813.85419	0.69395
811.92562	0.69869
809.99706	0.70357
808.06850	0.70838
806.13993	0.71241
804.21137	0.71454
802.28280	0.71487
800.35424	0.71455
798.42567	0.71408
796.49711	0.71365
794.56854	0.71362
792.63998	0.71411
790.71142	0.71524
788.78285	0.71761
786.85429	0.72137
784.92572	0.72580
782.99716	0.73013
781.06859	0.73414
779.14003	0.73784
777.21147	0.74087
775.28290	0.74276
773.35434	0.74384
771.42577	0.74431
769.49721	0.74369
767.56864	0.74214
765.64008	0.74040
763.71151	0.73918
761.78295	0.73871
759.85439	0.73852
757.92582	0.73898
755.99726	0.74102
754.06869	0.74367
752.14013	0.74522
750.21156	0.74582
748.28300	0.74609
746.35443	0.74565
744.42587	0.74459
742.49731	0.74318
740.56874	0.74117
738.64018	0.73889
736.71161	0.73689
734.78305	0.73581
732.85448	0.73680
730.92592	0.74007
728.99735	0.74449
727.06879	0.74937
725.14023	0.75525
723.21166	0.76237
721.28310	0.76916
719.35453	0.77340
717.42597	0.77571
715.49740	0.77787
713.56884	0.77964
711.64027	0.78141
709.71171	0.78443
707.78315	0.78818
705.85458	0.79153
703.92602	0.79455
701.99745	0.79733
700.06889	0.79967
698.14032	0.80200
696.21176	0.80499
694.28319	0.80791
692.35463	0.80922
690.42607	0.80919
688.49750	0.80955
686.56894	0.81023
684.64037	0.80928
682.71181	0.80672
680.78324	0.80467
678.85468	0.80368
676.92611	0.80308
674.99755	0.80300
673.06899	0.80359
671.14042	0.80482
669.21186	0.80625
667.28329	0.80584
665.35473	0.80466
663.42616	0.80431
661.49760	0.80425
659.56903	0.80311
657.64047	0.80024
655.71191	0.79757
653.78334	0.79623
651.85478	0.79524
649.92621	0.79439
647.99765	0.79374
646.06908	0.79391
644.14052	0.79667
642.21195	0.80163
640.28339	0.80570
638.35483	0.80754
636.42626	0.80867
634.49770	0.80895
632.56913	0.80714
630.64057	0.80426
628.71200	0.80166
626.78344	0.79958
624.85488	0.79787
622.92631	0.79591
620.99775	0.79351
619.06918	0.79165
617.14062	0.79087
615.21205	0.79025
613.28349	0.78985
611.35492	0.79114
609.42636	0.79420
607.49780	0.79765
605.56923	0.80000
603.64067	0.80127
601.71210	0.80342
599.78354	0.80690
