3997.91406	0.91372
3995.98550	0.91316
3994.05693	0.91555
3992.12837	0.91959
3990.19980	0.92245
3988.27124	0.92412
3986.34268	0.92466
3984.41411	0.92258
3982.48555	0.91916
3980.55698	0.91779
3978.62842	0.91840
3976.69985	0.91749
3974.77129	0.91413
3972.84272	0.91030
3970.91416	0.90727
3968.98560	0.90607
3967.05703	0.90674
3965.12847	0.90737
3963.19990	0.90581
3961.27134	0.90208
3959.34277	0.89926
3957.41421	0.89929
3955.48564	0.90166
3953.55708	0.90425
3951.62852	0.90508
3949.69995	0.90520
3947.77139	0.90589
3945.84282	0.90626
3943.91426	0.90513
3941.98569	0.90332
3940.05713	0.90317
3938.12856	0.90437
3936.20000	0.90617
3934.27144	0.90739
3932.34287	0.90457
3930.41431	0.89858
3928.48574	0.89516
3926.55718	0.89381
3924.62861	0.89173
3922.70005	0.89151
3920.77148	0.89323
3918.84292	0.89199
3916.91436	0.88862
3914.98579	0.88839
3913.05723	0.89085
3911.12866	0.89265
3909.20010	0.89288
3907.27153	0.89279
3905.34297	0.89168
3903.41440	0.88815
3901.48584	0.88465
3899.55728	0.88257
3897.62871	0.88346
3895.70015	0.88842
3893.77158	0.89267
3891.84302	0.88936
3889.91445	0.88587
3887.98589	0.88817
3886.05733	0.88735
3884.12876	0.88429
3882.20020	0.88379
3880.27163	0.87975
3878.34307	0.87881
3876.41450	0.88238
3874.48594	0.88151
3872.55737	0.87650
3870.62881	0.87041
3868.70025	0.86789
3866.77168	0.87242
3864.84312	0.87354
3862.91455	0.86816
3860.98599	0.86733
3859.05742	0.87194
3857.12886	0.87784
3855.20029	0.87798
3853.27173	0.86222
3851.34317	0.85564
3849.41460	0.86293
3847.48604	0.87082
3845.55747	0.87521
3843.62891	0.87553
3841.70034	0.87431
3839.77178	0.87236
3837.84321	0.86877
3835.91465	0.86544
3833.98609	0.86146
3832.05752	0.85781
3830.12896	0.85744
3828.20039	0.85760
3826.27183	0.85666
3824.34326	0.85820
3822.41470	0.85772
3820.48613	0.85147
3818.55757	0.85048
3816.62901	0.84978
3814.70044	0.84940
3812.77188	0.85479
3810.84331	0.86060
3808.91475	0.86119
3806.98618	0.85568
3805.05762	0.85416
3803.12905	0.85415
3801.20049	0.84721
3799.27193	0.84671
3797.34336	0.85097
3795.41480	0.85222
3793.48623	0.85377
3791.55767	0.85530
3789.62910	0.85548
3787.70054	0.85629
3785.77197	0.85682
3783.84341	0.85653
3781.91485	0.85747
3779.98628	0.85578
3778.05772	0.85079
3776.12915	0.84962
3774.20059	0.85215
3772.27202	0.85417
3770.34346	0.85205
3768.41489	0.84843
3766.48633	0.84667
3764.55777	0.84677
3762.62920	0.84986
3760.70064	0.85035
3758.77207	0.84486
3756.84351	0.84399
3754.91494	0.84888
3752.98638	0.84991
3751.05781	0.84018
3749.12925	0.83494
3747.20069	0.84013
3745.27212	0.84174
3743.34356	0.83795
3741.41499	0.83994
3739.48643	0.84574
3737.55786	0.84721
3735.62930	0.83872
3733.70074	0.83140
3731.77217	0.83273
3729.84361	0.83645
3727.91504	0.83867
3725.98648	0.83721
3724.05791	0.83445
3722.12935	0.83405
3720.20078	0.83602
3718.27222	0.83878
3716.34366	0.84166
3714.41509	0.84386
3712.48653	0.83941
3710.55796	0.82976
3708.62940	0.82934
3706.70083	0.83364
3704.77227	0.83664
3702.84370	0.83653
3700.91514	0.83652
3698.98658	0.84030
3697.05801	0.84425
3695.12945	0.84681
3693.20088	0.84941
3691.27232	0.84874
3689.34375	0.84062
3687.41519	0.83751
3685.48662	0.84279
3683.55806	0.85014
3681.62950	0.85612
3679.70093	0.85896
3677.77237	0.85847
3675.84380	0.85362
3673.91524	0.85337
3671.98667	0.85716
3670.05811	0.85513
3668.12954	0.85640
3666.20098	0.86488
3664.27242	0.87258
3662.34385	0.87794
3660.41529	0.88234
3658.48672	0.88471
3656.55816	0.88433
3654.62959	0.88724
3652.70103	0.89413
3650.77246	0.89467
3648.84390	0.88449
3646.91534	0.88804
3644.98677	0.90038
3643.05821	0.91015
3641.12964	0.91636
3639.20108	0.92218
3637.27251	0.92850
3635.34395	0.93263
3633.41538	0.93576
3631.48682	0.93939
3629.55826	0.93711
3627.62969	0.93496
3625.70113	0.94365
3623.77256	0.95297
3621.84400	0.95894
3619.91543	0.96157
3617.98687	0.96343
3616.05830	0.96744
3614.12974	0.97046
3612.20118	0.97512
3610.27261	0.98292
3608.34405	0.98765
3606.41548	0.99157
3604.48692	0.99955
3602.55835	1.00826
3600.62979	1.01306
3598.70123	1.01419
3596.77266	1.01454
3594.84410	1.01514
3592.91553	1.01871
3590.98697	1.02582
3589.05840	1.03286
3587.12984	1.03690
3585.20127	1.04127
3583.27271	1.04754
3581.34415	1.05274
3579.41558	1.05517
3577.48702	1.05679
3575.55845	1.05966
3573.62989	1.06336
3571.70132	1.06881
3569.77276	1.07444
3567.84419	1.07414
3565.91563	1.07181
3563.98707	1.07721
3562.05850	1.08428
3560.12994	1.08810
3558.20137	1.09196
3556.27281	1.09844
3554.34424	1.10391
3552.41568	1.10646
3550.48711	1.11081
3548.55855	1.11886
3546.62999	1.12399
3544.70142	1.12175
3542.77286	1.12056
3540.84429	1.12595
3538.91573	1.13441
3536.98716	1.14111
3535.05860	1.14530
3533.13003	1.14915
3531.20147	1.15162
3529.27291	1.15157
3527.34434	1.15415
3525.41578	1.16171
3523.48721	1.16854
3521.55865	1.17320
3519.63008	1.17812
3517.70152	1.18261
3515.77295	1.18755
3513.84439	1.19259
3511.91583	1.19320
3509.98726	1.19147
3508.05870	1.19604
3506.13013	1.20779
3504.20157	1.21961
3502.27300	1.22538
3500.34444	1.22912
3498.41587	1.23657
3496.48731	1.24409
3494.55875	1.24711
3492.63018	1.24832
3490.70162	1.24988
3488.77305	1.25062
3486.84449	1.25207
3484.91592	1.25615
3482.98736	1.26029
3481.05879	1.26151
3479.13023	1.26118
3477.20167	1.26126
3475.27310	1.26287
3473.34454	1.26649
3471.41597	1.27122
3469.48741	1.27756
3467.55884	1.28302
3465.63028	1.28242
3463.70171	1.27853
3461.77315	1.27856
3459.84459	1.28151
3457.91602	1.28061
3455.98746	1.27779
3454.05889	1.28089
3452.13033	1.28920
3450.20176	1.29477
3448.27320	1.29530
3446.34464	1.29592
3444.41607	1.29830
3442.48751	1.30010
3440.55894	1.30186
3438.63038	1.30473
3436.70181	1.30763
3434.77325	1.30968
3432.84468	1.31064
3430.91612	1.30933
3428.98756	1.30645
3427.05899	1.30425
3425.13043	1.30377
3423.20186	1.30455
3421.27330	1.30580
3419.34473	1.30849
3417.41617	1.31195
3415.48760	1.31278
3413.55904	1.31130
3411.63048	1.31177
3409.70191	1.31530
3407.77335	1.31796
3405.84478	1.31764
3403.91622	1.31755
3401.98765	1.31884
3400.05909	1.31861
3398.13052	1.31752
3396.20196	1.31818
3394.27340	1.31829
3392.34483	1.31664
3390.41627	1.31751
3388.48770	1.32129
3386.55914	1.32445
3384.63057	1.32696
3382.70201	1.32875
3380.77344	1.32866
3378.84488	1.32808
3376.91632	1.32766
3374.98775	1.32679
3373.05919	1.32735
3371.13062	1.33039
3369.20206	1.33085
3367.27349	1.32644
3365.34493	1.32388
3363.41636	1.32547
3361.48780	1.32712
3359.55924	1.32813
3357.63067	1.32907
3355.70211	1.33029
3353.77354	1.33233
3351.84498	1.33394
3349.91641	1.33518
3347.98785	1.33615
3346.05928	1.33696
3344.13072	1.34067
3342.20216	1.34666
3340.27359	1.35114
3338.34503	1.35324
3336.41646	1.35376
3334.48790	1.35510
3332.55933	1.35680
3330.63077	1.35652
3328.70220	1.35684
3326.77364	1.35981
3324.84508	1.36275
3322.91651	1.36414
3320.98795	1.36601
3319.05938	1.36946
3317.13082	1.37177
3315.20225	1.37097
3313.27369	1.36920
3311.34513	1.36936
3309.41656	1.37270
3307.48800	1.37944
3305.55943	1.38695
3303.63087	1.39026
3301.70230	1.38898
3299.77374	1.38726
3297.84517	1.38739
3295.91661	1.38921
3293.98805	1.38986
3292.05948	1.38762
3290.13092	1.38645
3288.20235	1.38833
3286.27379	1.39031
3284.34522	1.39044
3282.41666	1.38952
3280.48809	1.38964
3278.55953	1.39021
3276.63097	1.38801
3274.70240	1.38403
3272.77384	1.38106
3270.84527	1.37809
3268.91671	1.37412
3266.98814	1.37055
3265.05958	1.36761
3263.13101	1.36394
3261.20245	1.36121
3259.27389	1.36183
3257.34532	1.36229
3255.41676	1.35750
3253.48819	1.34966
3251.55963	1.34297
3249.63106	1.33636
3247.70250	1.33017
3245.77393	1.32664
3243.84537	1.32284
3241.91681	1.31720
3239.98824	1.31362
3238.05968	1.31284
3236.13111	1.31129
3234.20255	1.30759
3232.27398	1.30355
3230.34542	1.30032
3228.41685	1.29729
3226.48829	1.29279
3224.55973	1.28521
3222.63116	1.27672
3220.70260	1.27175
3218.77403	1.27092
3216.84547	1.27131
3214.91690	1.27023
3212.98834	1.26770
3211.05977	1.26449
3209.13121	1.25962
3207.20265	1.25436
3205.27408	1.25155
3203.34552	1.25004
3201.41695	1.24737
3199.48839	1.24469
3197.55982	1.24316
3195.63126	1.24148
3193.70269	1.23945
3191.77413	1.23697
3189.84557	1.23413
3187.91700	1.23220
3185.98844	1.22983
3184.05987	1.22580
3182.13131	1.22178
3180.20274	1.21831
3178.27418	1.21412
3176.34562	1.20844
3174.41705	1.20283
3172.48849	1.19900
3170.55992	1.19583
3168.63136	1.19269
3166.70279	1.19062
3164.77423	1.18892
3162.84566	1.18676
3160.91710	1.18364
3158.98854	1.17996
3157.05997	1.17788
3155.13141	1.17723
3153.20284	1.17656
3151.27428	1.17493
3149.34571	1.17120
3147.41715	1.16778
3145.48858	1.16763
3143.56002	1.16855
3141.63146	1.16713
3139.70289	1.16444
3137.77433	1.16333
3135.84576	1.16359
3133.91720	1.16393
3131.98863	1.16486
3130.06007	1.16526
3128.13150	1.16290
3126.20294	1.16083
3124.27438	1.16190
3122.34581	1.16276
3120.41725	1.16230
3118.48868	1.16272
3116.56012	1.16388
3114.63155	1.16459
3112.70299	1.16419
3110.77442	1.16398
3108.84586	1.16512
3106.91730	1.16535
3104.98873	1.16353
3103.06017	1.16209
3101.13160	1.16215
3099.20304	1.16201
3097.27447	1.16018
3095.34591	1.15767
3093.41734	1.15618
3091.48878	1.15600
3089.56022	1.15668
3087.63165	1.15608
3085.70309	1.15264
3083.77452	1.14801
3081.84596	1.14373
3079.91739	1.14152
3077.98883	1.14229
3076.06026	1.14257
3074.13170	1.13983
3072.20314	1.13634
3070.27457	1.13436
3068.34601	1.13331
3066.41744	1.13220
3064.48888	1.13067
3062.56031	1.12781
3060.63175	1.12352
3058.70318	1.11909
3056.77462	1.11578
3054.84606	1.11332
3052.91749	1.10966
3050.98893	1.10499
3049.06036	1.10192
3047.13180	1.10014
3045.20323	1.09757
3043.27467	1.09391
3041.34610	1.09010
3039.41754	1.08723
3037.48898	1.08501
3035.56041	1.08254
3033.63185	1.07940
3031.70328	1.07562
3029.77472	1.07267
3027.84615	1.07144
3025.91759	1.07049
3023.98903	1.06909
3022.06046	1.06757
3020.13190	1.06558
3018.20333	1.06402
3016.27477	1.06365
3014.34620	1.06295
3012.41764	1.06152
3010.48907	1.06024
3008.56051	1.05909
3006.63195	1.05773
3004.70338	1.05626
3002.77482	1.05518
3000.84625	1.05485
2998.91769	1.05503
2996.98912	1.05533
2995.06056	1.05611
2993.13199	1.05806
2991.20343	1.06088
2989.27487	1.06402
2987.34630	1.06781
2985.41774	1.07256
2983.48917	1.07732
2981.56061	1.08128
2979.63204	1.08539
2977.70348	1.09044
2975.77491	1.09566
2973.84635	1.10011
2971.91779	1.10403
2969.98922	1.10856
2968.06066	1.11457
2966.13209	1.12068
2964.20353	1.12421
2962.27496	1.12533
2960.34640	1.12567
2958.41783	1.12499
2956.48927	1.12312
2954.56071	1.12050
2952.63214	1.11687
2950.70358	1.11292
2948.77501	1.10987
2946.84645	1.10913
2944.91788	1.11196
2942.98932	1.11759
2941.06075	1.12483
2939.13219	1.13360
2937.20363	1.14340
2935.27506	1.15271
2933.34650	1.16046
2931.41793	1.16770
2929.48937	1.17509
2927.56080	1.18251
2925.63224	1.19070
2923.70367	1.19890
2921.77511	1.20577
2919.84655	1.20927
2917.91798	1.20436
2915.98942	1.18833
2914.06085	1.16544
2912.13229	1.14276
2910.20372	1.12472
2908.27516	1.11208
2906.34659	1.10300
2904.41803	1.09534
2902.48947	1.08845
2900.56090	1.08316
2898.63234	1.08052
2896.70377	1.07971
2894.77521	1.07808
2892.84664	1.07412
2890.91808	1.06945
2888.98952	1.06636
2887.06095	1.06409
2885.13239	1.06157
2883.20382	1.05978
2881.27526	1.05905
2879.34669	1.05880
2877.41813	1.05831
2875.48956	1.05685
2873.56100	1.05435
2871.63244	1.05032
2869.70387	1.04454
2867.77531	1.03866
2865.84674	1.03388
2863.91818	1.03033
2861.98961	1.02959
2860.06105	1.03313
2858.13248	1.04006
2856.20392	1.04886
2854.27536	1.05834
2852.34679	1.06719
2850.41823	1.07053
2848.48966	1.05985
2846.56110	1.03624
2844.63253	1.01160
2842.70397	0.99282
2840.77540	0.97919
2838.84684	0.96903
2836.91828	0.96115
2834.98971	0.95496
2833.06115	0.95040
2831.13258	0.94704
2829.20402	0.94402
2827.27545	0.94075
2825.34689	0.93757
2823.41832	0.93493
2821.48976	0.93255
2819.56120	0.93006
2817.63263	0.92747
2815.70407	0.92524
2813.77550	0.92356
2811.84694	0.92197
2809.91837	0.91987
2807.98981	0.91664
2806.06124	0.91316
2804.13268	0.91087
2802.20412	0.90906
2800.27555	0.90657
2798.34699	0.90373
2796.41842	0.90121
2794.48986	0.89944
2792.56129	0.89799
2790.63273	0.89572
2788.70416	0.89262
2786.77560	0.88977
2784.84704	0.88770
2782.91847	0.88620
2780.98991	0.88487
2779.06134	0.88355
2777.13278	0.88231
2775.20421	0.88094
2773.27565	0.87920
2771.34708	0.87751
2769.41852	0.87617
2767.48996	0.87480
2765.56139	0.87335
2763.63283	0.87237
2761.70426	0.87162
2759.77570	0.87052
2757.84713	0.86954
2755.91857	0.86903
2753.99001	0.86804
2752.06144	0.86615
2750.13288	0.86406
2748.20431	0.86229
2746.27575	0.86089
2744.34718	0.85975
2742.41862	0.85891
2740.49005	0.85823
2738.56149	0.85693
2736.63293	0.85525
2734.70436	0.85430
2732.77580	0.85368
2730.84723	0.85268
2728.91867	0.85198
2726.99010	0.85141
2725.06154	0.85014
2723.13297	0.84826
2721.20441	0.84624
2719.27585	0.84475
2717.34728	0.84399
2715.41872	0.84316
2713.49015	0.84178
2711.56159	0.84048
2709.63302	0.83968
2707.70446	0.83887
2705.77589	0.83760
2703.84733	0.83622
2701.91877	0.83513
2699.99020	0.83414
2698.06164	0.83294
2696.13307	0.83170
2694.20451	0.83055
2692.27594	0.82933
2690.34738	0.82785
2688.41881	0.82615
2686.49025	0.82480
2684.56169	0.82392
2682.63312	0.82282
2680.70456	0.82137
2678.77599	0.81984
2676.84743	0.81818
2674.91886	0.81623
2672.99030	0.81441
2671.06173	0.81322
2669.13317	0.81244
2667.20461	0.81191
2665.27604	0.81148
2663.34748	0.81061
2661.41891	0.80933
2659.49035	0.80824
2657.56178	0.80766
2655.63322	0.80734
2653.70465	0.80673
2651.77609	0.80565
2649.84753	0.80468
2647.91896	0.80405
2645.99040	0.80332
2644.06183	0.80256
2642.13327	0.80200
2640.20470	0.80153
2638.27614	0.80104
2636.34757	0.80036
2634.41901	0.79948
2632.49045	0.79873
2630.56188	0.79805
2628.63332	0.79695
2626.70475	0.79576
2624.77619	0.79515
2622.84762	0.79475
2620.91906	0.79393
2618.99049	0.79281
2617.06193	0.79182
2615.13337	0.79094
2613.20480	0.79001
2611.27624	0.78934
2609.34767	0.78902
2607.41911	0.78829
2605.49054	0.78678
2603.56198	0.78548
2601.63342	0.78481
2599.70485	0.78365
2597.77629	0.78190
2595.84772	0.78060
2593.91916	0.77962
2591.99059	0.77838
2590.06203	0.77710
2588.13346	0.77589
2586.20490	0.77475
2584.27634	0.77378
2582.34777	0.77307
2580.41921	0.77256
2578.49064	0.77171
2576.56208	0.77048
2574.63351	0.76941
2572.70495	0.76845
2570.77638	0.76741
2568.84782	0.76627
2566.91926	0.76525
2564.99069	0.76460
2563.06213	0.76404
2561.13356	0.76309
2559.20500	0.76177
2557.27643	0.76053
2555.34787	0.75941
2553.41930	0.75819
2551.49074	0.75707
2549.56218	0.75612
2547.63361	0.75515
2545.70505	0.75402
2543.77648	0.75285
2541.84792	0.75184
2539.91935	0.75083
2537.99079	0.74961
2536.06222	0.74847
2534.13366	0.74789
2532.20510	0.74768
2530.27653	0.74714
2528.34797	0.74626
2526.41940	0.74536
2524.49084	0.74437
2522.56227	0.74359
2520.63371	0.74313
2518.70514	0.74232
2516.77658	0.74102
2514.84802	0.73993
2512.91945	0.73908
2510.99089	0.73790
2509.06232	0.73644
2507.13376	0.73497
2505.20519	0.73347
2503.27663	0.73217
2501.34806	0.73108
2499.41950	0.72978
2497.49094	0.72840
2495.56237	0.72720
2493.63381	0.72609
2491.70524	0.72492
2489.77668	0.72348
2487.84811	0.72207
2485.91955	0.72138
2483.99098	0.72114
2482.06242	0.72042
2480.13386	0.71915
2478.20529	0.71810
2476.27673	0.71742
2474.34816	0.71665
2472.41960	0.71576
2470.49103	0.71477
2468.56247	0.71347
2466.63391	0.71194
2464.70534	0.71027
2462.77678	0.70866
2460.84821	0.70757
2458.91965	0.70662
2456.99108	0.70541
2455.06252	0.70426
2453.13395	0.70316
2451.20539	0.70178
2449.27683	0.70031
2447.34826	0.69912
2445.41970	0.69820
2443.49113	0.69730
2441.56257	0.69632
2439.63400	0.69536
2437.70544	0.69443
2435.77687	0.69345
2433.84831	0.69243
2431.91975	0.69122
2429.99118	0.68986
2428.06262	0.68859
2426.13405	0.68720
2424.20549	0.68552
2422.27692	0.68387
2420.34836	0.68248
2418.41979	0.68117
2416.49123	0.67984
2414.56267	0.67855
2412.63410	0.67729
2410.70554	0.67596
2408.77697	0.67452
2406.84841	0.67312
2404.91984	0.67191
2402.99128	0.67078
2401.06271	0.66943
2399.13415	0.66794
2397.20559	0.66674
2395.27702	0.66572
2393.34846	0.66446
2391.41989	0.66307
2389.49133	0.66198
2387.56276	0.66128
2385.63420	0.66066
2383.70563	0.65998
2381.77707	0.65928
2379.84851	0.65843
2377.91994	0.65695
2375.99138	0.65430
2374.06281	0.65104
2372.13425	0.64815
2370.20568	0.64622
2368.27712	0.64497
2366.34855	0.64135
2364.41999	0.63433
2362.49143	0.62943
2360.56286	0.62951
2358.63430	0.63048
2356.70573	0.63013
2354.77717	0.62963
2352.84860	0.63012
2350.92004	0.63239
2348.99147	0.63486
2347.06291	0.63503
2345.13435	0.63223
2343.20578	0.62939
2341.27722	0.62770
2339.34865	0.62590
2337.42009	0.62470
2335.49152	0.62412
2333.56296	0.62341
2331.63440	0.62244
2329.70583	0.62136
2327.77727	0.62084
2325.84870	0.62141
2323.92014	0.62189
2321.99157	0.62125
2320.06301	0.62055
2318.13444	0.62084
2316.20588	0.62156
2314.27732	0.62152
2312.34875	0.62067
2310.42019	0.61975
2308.49162	0.61876
2306.56306	0.61776
2304.63449	0.61719
2302.70593	0.61695
2300.77736	0.61654
2298.84880	0.61590
2296.92024	0.61514
2294.99167	0.61411
2293.06311	0.61294
2291.13454	0.61217
2289.20598	0.61179
2287.27741	0.61147
2285.34885	0.61094
2283.42028	0.61016
2281.49172	0.60925
2279.56316	0.60846
2277.63459	0.60796
2275.70603	0.60770
2273.77746	0.60755
2271.84890	0.60740
2269.92033	0.60715
2267.99177	0.60680
2266.06320	0.60619
2264.13464	0.60537
2262.20608	0.60486
2260.27751	0.60457
2258.34895	0.60390
2256.42038	0.60291
2254.49182	0.60205
2252.56325	0.60124
2250.63469	0.60021
2248.70612	0.59886
2246.77756	0.59731
2244.84900	0.59581
2242.92043	0.59457
2240.99187	0.59346
2239.06330	0.59232
2237.13474	0.59110
2235.20617	0.58997
2233.27761	0.58919
2231.34904	0.58854
2229.42048	0.58785
2227.49192	0.58725
2225.56335	0.58676
2223.63479	0.58657
2221.70622	0.58656
2219.77766	0.58618
2217.84909	0.58550
2215.92053	0.58489
2213.99196	0.58429
2212.06340	0.58357
2210.13484	0.58277
2208.20627	0.58196
2206.27771	0.58112
2204.34914	0.58001
2202.42058	0.57846
2200.49201	0.57660
2198.56345	0.57481
2196.63488	0.57333
2194.70632	0.57212
2192.77776	0.57114
2190.84919	0.57028
2188.92063	0.56949
2186.99206	0.56885
2185.06350	0.56844
2183.13493	0.56824
2181.20637	0.56836
2179.27781	0.56883
2177.34924	0.56931
2175.42068	0.56959
2173.49211	0.56976
2171.56355	0.56989
2169.63498	0.57001
2167.70642	0.56997
2165.77785	0.56973
2163.84929	0.56938
2161.92073	0.56901
2159.99216	0.56856
2158.06360	0.56796
2156.13503	0.56729
2154.20647	0.56637
2152.27790	0.56490
2150.34934	0.56313
2148.42077	0.56148
2146.49221	0.56012
2144.56365	0.55913
2142.63508	0.55829
2140.70652	0.55734
2138.77795	0.55656
2136.84939	0.55623
2134.92082	0.55620
2132.99226	0.55619
2131.06369	0.55621
2129.13513	0.55663
2127.20657	0.55742
2125.27800	0.55796
2123.34944	0.55813
2121.42087	0.55823
2119.49231	0.55817
2117.56374	0.55774
2115.63518	0.55702
2113.70661	0.55619
2111.77805	0.55527
2109.84949	0.55403
2107.92092	0.55235
2105.99236	0.55041
2104.06379	0.54838
2102.13523	0.54626
2100.20666	0.54414
2098.27810	0.54216
2096.34953	0.54038
2094.42097	0.53886
2092.49241	0.53760
2090.56384	0.53638
2088.63528	0.53518
2086.70671	0.53443
2084.77815	0.53429
2082.84958	0.53439
2080.92102	0.53441
2078.99245	0.53445
2077.06389	0.53482
2075.13533	0.53538
2073.20676	0.53574
2071.27820	0.53587
2069.34963	0.53589
2067.42107	0.53566
2065.49250	0.53503
2063.56394	0.53424
2061.63537	0.53347
2059.70681	0.53265
2057.77825	0.53170
2055.84968	0.53056
2053.92112	0.52927
2051.99255	0.52789
2050.06399	0.52640
2048.13542	0.52465
2046.20686	0.52285
2044.27830	0.52142
2042.34973	0.52020
2040.42117	0.51902
2038.49260	0.51822
2036.56404	0.51786
2034.63547	0.51752
2032.70691	0.51694
2030.77834	0.51633
2028.84978	0.51592
2026.92122	0.51567
2024.99265	0.51545
2023.06409	0.51516
2021.13552	0.51472
2019.20696	0.51398
2017.27839	0.51308
2015.34983	0.51234
2013.42126	0.51159
2011.49270	0.51049
2009.56414	0.50912
2007.63557	0.50759
2005.70701	0.50586
2003.77844	0.50404
2001.84988	0.50231
1999.92131	0.50057
1997.99275	0.49882
1996.06418	0.49734
1994.13562	0.49586
1992.20706	0.49402
1990.27849	0.49247
1988.34993	0.49154
1986.42136	0.49087
1984.49280	0.49050
1982.56423	0.49028
1980.63567	0.48990
1978.70710	0.48956
1976.77854	0.48945
1974.84998	0.48940
1972.92141	0.48936
1970.99285	0.48939
1969.06428	0.48926
1967.13572	0.48876
1965.20715	0.48836
1963.27859	0.48833
1961.35002	0.48824
1959.42146	0.48769
1957.49290	0.48673
1955.56433	0.48565
1953.63577	0.48458
1951.70720	0.48339
1949.77864	0.48195
1947.85007	0.48024
1945.92151	0.47839
1943.99294	0.47641
1942.06438	0.47444
1940.13582	0.47306
1938.20725	0.47207
1936.27869	0.47096
1934.35012	0.46970
1932.42156	0.46839
1930.49299	0.46726
1928.56443	0.46641
1926.63586	0.46568
1924.70730	0.46467
1922.77874	0.46352
1920.85017	0.46310
1918.92161	0.46289
1916.99304	0.46227
1915.06448	0.46198
1913.13591	0.46193
1911.20735	0.46143
1909.27878	0.46057
1907.35022	0.45979
1905.42166	0.45906
1903.49309	0.45823
1901.56453	0.45743
1899.63596	0.45665
1897.70740	0.45549
1895.77883	0.45394
1893.85027	0.45278
1891.92171	0.45210
1889.99314	0.45104
1888.06458	0.44989
1886.13601	0.44921
1884.20745	0.44856
1882.27888	0.44793
1880.35032	0.44743
1878.42175	0.44686
1876.49319	0.44632
1874.56463	0.44604
1872.63606	0.44597
1870.70750	0.44528
1868.77893	0.44371
1866.85037	0.44312
1864.92180	0.44379
1862.99324	0.44419
1861.06467	0.44392
1859.13611	0.44345
1857.20755	0.44288
1855.27898	0.44204
1853.35042	0.44099
1851.42185	0.43988
1849.49329	0.43858
1847.56472	0.43702
1845.63616	0.43486
1843.70759	0.43214
1841.77903	0.43086
1839.85047	0.43048
1837.92190	0.42936
1835.99334	0.42779
1834.06477	0.42668
1832.13621	0.42558
1830.20764	0.42358
1828.27908	0.42206
1826.35051	0.42160
1824.42195	0.42108
1822.49339	0.42101
1820.56482	0.42145
1818.63626	0.42159
1816.70769	0.42143
1814.77913	0.42151
1812.85056	0.42146
1810.92200	0.42091
1808.99343	0.42073
1807.06487	0.42119
1805.13631	0.42169
1803.20774	0.42164
1801.27918	0.42074
1799.35061	0.41975
1797.42205	0.41956
1795.49348	0.41975
1793.56492	0.41904
1791.63635	0.41761
1789.70779	0.41771
1787.77923	0.41876
1785.85066	0.41897
1783.92210	0.41831
1781.99353	0.41763
1780.06497	0.41721
1778.13640	0.41751
1776.20784	0.41810
1774.27927	0.41797
1772.35071	0.41710
1770.42215	0.41781
1768.49358	0.42021
1766.56502	0.42280
1764.63645	0.42499
1762.70789	0.42668
1760.77932	0.42890
1758.85076	0.43210
1756.92220	0.43616
1754.99363	0.44099
1753.06507	0.44596
1751.13650	0.45150
1749.20794	0.45857
1747.27937	0.46682
1745.35081	0.47491
1743.42224	0.48212
1741.49368	0.48787
1739.56512	0.49214
1737.63655	0.49538
1735.70799	0.49717
1733.77942	0.49730
1731.85086	0.49847
1729.92229	0.50140
1727.99373	0.50504
1726.06516	0.50902
1724.13660	0.51377
1722.20804	0.51914
1720.27947	0.52452
1718.35091	0.53129
1716.42234	0.54306
1714.49378	0.55706
1712.56521	0.57041
1710.63665	0.58454
1708.70808	0.60013
1706.77952	0.62114
1704.85096	0.64927
1702.92239	0.67665
1700.99383	0.71259
1699.06526	0.76623
1697.13670	0.81723
1695.20813	0.86757
1693.27957	0.90602
1691.35100	0.93652
1689.42244	0.97186
1687.49388	1.00464
1685.56531	1.03699
1683.63675	1.08622
1681.70818	1.12508
1679.77962	1.14900
1677.85105	1.17052
1675.92249	1.19345
1673.99392	1.21599
1672.06536	1.23315
1670.13680	1.25120
1668.20823	1.27209
1666.27967	1.28550
1664.35110	1.29512
1662.42254	1.30501
1660.49397	1.31347
1658.56541	1.31918
1656.63684	1.32177
1654.70828	1.32136
1652.77972	1.31578
1650.85115	1.31333
1648.92259	1.31217
1646.99402	1.30858
1645.06546	1.30815
1643.13689	1.30928
1641.20833	1.30980
1639.27976	1.30918
1637.35120	1.30530
1635.42264	1.29702
1633.49407	1.29365
1631.56551	1.29360
1629.63694	1.29006
1627.70838	1.28190
1625.77981	1.27173
1623.85125	1.25797
1621.92269	1.24141
1619.99412	1.22863
1618.06556	1.21188
1616.13699	1.18229
1614.20843	1.15814
1612.27986	1.14081
1610.35130	1.12156
1608.42273	1.10080
1606.49417	1.08346
1604.56561	1.07094
1602.63704	1.06115
1600.70848	1.05384
1598.77991	1.04912
1596.85135	1.04561
1594.92278	1.04259
1592.99422	1.04086
1591.06565	1.04031
1589.13709	1.04102
1587.20853	1.04439
1585.27996	1.05044
1583.35140	1.05841
1581.42283	1.06726
1579.49427	1.07566
1577.56570	1.08574
1575.63714	1.10148
1573.70857	1.11550
1571.78001	1.12618
1569.85145	1.14039
1567.92288	1.15671
1565.99432	1.16955
1564.06575	1.18092
1562.13719	1.18992
1560.20862	1.19743
1558.28006	1.21094
1556.35149	1.22276
1554.42293	1.23006
1552.49437	1.23540
1550.56580	1.23921
1548.63724	1.24139
1546.70867	1.24139
1544.78011	1.23792
1542.85154	1.23124
1540.92298	1.22247
1538.99441	1.21435
1537.06585	1.21191
1535.13729	1.20842
1533.20872	1.20116
1531.28016	1.19537
1529.35159	1.19180
1527.42303	1.18614
1525.49446	1.17884
1523.56590	1.17338
1521.63733	1.16969
1519.70877	1.16850
1517.78021	1.16580
1515.85164	1.15962
1513.92308	1.15204
1511.99451	1.14276
1510.06595	1.13184
1508.13738	1.11096
1506.20882	1.07470
1504.28025	1.05880
1502.35169	1.04995
1500.42313	1.03706
1498.49456	1.01779
1496.56600	0.99417
1494.63743	0.97641
1492.70887	0.96412
1490.78030	0.94714
1488.85174	0.92276
1486.92317	0.90503
1484.99461	0.89459
1483.06605	0.88566
1481.13748	0.87700
1479.20892	0.87140
1477.28035	0.87061
1475.35179	0.87406
1473.42322	0.88235
1471.49466	0.89433
1469.56610	0.90412
1467.63753	0.91161
1465.70897	0.91927
1463.78040	0.92773
1461.85184	0.93405
1459.92327	0.93760
1457.99471	0.94174
1456.06614	0.95054
1454.13758	0.95707
1452.20902	0.96015
1450.28045	0.96106
1448.35189	0.95996
1446.42332	0.95738
1444.49476	0.95380
1442.56619	0.94880
1440.63763	0.94279
1438.70906	0.93486
1436.78050	0.92166
1434.85194	0.90838
1432.92337	0.89931
1430.99481	0.88927
1429.06624	0.87819
1427.13768	0.87033
1425.20911	0.86530
1423.28055	0.86228
1421.35198	0.86157
1419.42342	0.86236
1417.49486	0.86481
1415.56629	0.86769
1413.63773	0.86930
1411.70916	0.86982
1409.78060	0.87068
1407.85203	0.87253
1405.92347	0.87489
1403.99490	0.87750
1402.06634	0.87996
1400.13778	0.88192
1398.20921	0.88322
1396.28065	0.88419
1394.35208	0.88578
1392.42352	0.88846
1390.49495	0.89192
1388.56639	0.89755
1386.63782	0.90764
1384.70926	0.91995
1382.78070	0.93083
1380.85213	0.93828
1378.92357	0.94079
1376.99500	0.93767
1375.06644	0.92805
1373.13787	0.91408
1371.20931	0.90015
1369.28074	0.88471
1367.35218	0.86767
1365.42362	0.85210
1363.49505	0.83684
1361.56649	0.82285
1359.63792	0.81397
1357.70936	0.80858
1355.78079	0.80453
1353.85223	0.80166
1351.92366	0.79997
1349.99510	0.79884
1348.06654	0.79797
1346.13797	0.79754
1344.20941	0.79747
1342.28084	0.79739
1340.35228	0.79777
1338.42371	0.79982
1336.49515	0.80393
1334.56659	0.80998
1332.63802	0.81783
1330.70946	0.82637
1328.78089	0.83356
1326.85233	0.83845
1324.92376	0.84167
1322.99520	0.84406
1321.06663	0.84624
1319.13807	0.84853
1317.20951	0.85070
1315.28094	0.85235
1313.35238	0.85376
1311.42381	0.85490
1309.49525	0.85498
1307.56668	0.85357
1305.63812	0.85107
1303.70955	0.84794
1301.78099	0.84425
1299.85243	0.84002
1297.92386	0.83534
1295.99530	0.83080
1294.06673	0.82737
1292.13817	0.82547
1290.20960	0.82482
1288.28104	0.82471
1286.35247	0.82468
1284.42391	0.82463
1282.49535	0.82440
1280.56678	0.82425
1278.63822	0.82480
1276.70965	0.82635
1274.78109	0.82904
1272.85252	0.83315
1270.92396	0.83861
1268.99539	0.84467
1267.06683	0.85039
1265.13827	0.85529
1263.20970	0.85910
1261.28114	0.86143
1259.35257	0.86260
1257.42401	0.86354
1255.49544	0.86450
1253.56688	0.86512
1251.63831	0.86548
1249.70975	0.86591
1247.78119	0.86636
1245.85262	0.86662
1243.92406	0.86657
1241.99549	0.86615
1240.06693	0.86524
1238.13836	0.86368
1236.20980	0.86108
1234.28123	0.85722
1232.35267	0.85224
1230.42411	0.84639
1228.49554	0.83997
1226.56698	0.83282
1224.63841	0.82476
1222.70985	0.81645
1220.78128	0.80857
1218.85272	0.80139
1216.92415	0.79525
1214.99559	0.79086
1213.06703	0.78865
1211.13846	0.78845
1209.20990	0.78947
1207.28133	0.78994
1205.35277	0.78791
1203.42420	0.78284
1201.49564	0.77579
1199.56708	0.76795
1197.63851	0.75970
1195.70995	0.75153
1193.78138	0.74448
1191.85282	0.73924
1189.92425	0.73596
1187.99569	0.73450
1186.06712	0.73427
1184.13856	0.73486
1182.21000	0.73667
1180.28143	0.73998
1178.35287	0.74507
1176.42430	0.75227
1174.49574	0.76094
1172.56717	0.77006
1170.63861	0.77973
1168.71004	0.79107
1166.78148	0.80454
1164.85292	0.81880
1162.92435	0.83140
1160.99579	0.83990
1159.06722	0.84263
1157.13866	0.83951
1155.21009	0.83156
1153.28153	0.82005
1151.35296	0.80678
1149.42440	0.79357
1147.49584	0.78194
1145.56727	0.77298
1143.63871	0.76737
1141.71014	0.76559
1139.78158	0.76760
1137.85301	0.77269
1135.92445	0.77981
1133.99588	0.78881
1132.06732	0.80041
1130.13876	0.81429
1128.21019	0.82931
1126.28163	0.84425
1124.35306	0.85752
1122.42450	0.86843
1120.49593	0.87760
1118.56737	0.88394
1116.63880	0.88550
1114.71024	0.88304
1112.78168	0.87831
1110.85311	0.87244
1108.92455	0.86662
1106.99598	0.86139
1105.06742	0.85676
1103.13885	0.85367
1101.21029	0.85337
1099.28172	0.85641
1097.35316	0.86320
1095.42460	0.87329
1093.49603	0.88508
1091.56747	0.89721
1089.63890	0.90929
1087.71034	0.92218
1085.78177	0.93648
1083.85321	0.95027
1081.92464	0.96054
1079.99608	0.96606
1078.06752	0.96715
1076.13895	0.96373
1074.21039	0.95551
1072.28182	0.94343
1070.35326	0.92979
1068.42469	0.91574
1066.49613	0.90148
1064.56756	0.88805
1062.63900	0.87569
1060.71044	0.86340
1058.78187	0.85097
1056.85331	0.84005
1054.92474	0.83238
1052.99618	0.82759
1051.06761	0.82466
1049.13905	0.82397
1047.21049	0.82660
1045.28192	0.83277
1043.35336	0.84165
1041.42479	0.85150
1039.49623	0.86015
1037.56766	0.86605
1035.63910	0.86841
1033.71053	0.86746
1031.78197	0.86363
1029.85341	0.85684
1027.92484	0.84768
1025.99628	0.83761
1024.06771	0.82757
1022.13915	0.81761
1020.21058	0.80822
1018.28202	0.80011
1016.35345	0.79245
1014.42489	0.78313
1012.49633	0.77067
1010.56776	0.75521
1008.63920	0.73829
1006.71063	0.72197
1004.78207	0.70755
1002.85350	0.69577
1000.92494	0.68717
998.99637	0.68143
997.06781	0.67782
995.13925	0.67557
993.21068	0.67344
991.28212	0.67041
989.35355	0.66639
987.42499	0.66197
985.49642	0.65787
983.56786	0.65439
981.63929	0.65134
979.71073	0.64846
977.78217	0.64532
975.85360	0.64083
973.92504	0.63416
971.99647	0.62535
970.06791	0.61511
968.13934	0.60489
966.21078	0.59624
964.28221	0.59031
962.35365	0.58843
960.42509	0.59212
958.49652	0.60125
956.56796	0.61227
954.63939	0.62015
952.71083	0.62252
950.78226	0.62036
948.85370	0.61605
946.92513	0.61216
944.99657	0.61023
943.06801	0.61019
941.13944	0.61096
939.21088	0.61136
937.28231	0.61108
935.35375	0.61034
933.42518	0.60864
931.49662	0.60559
929.56805	0.60178
927.63949	0.59779
925.71093	0.59377
923.78236	0.58989
921.85380	0.58616
919.92523	0.58248
917.99667	0.57900
916.06810	0.57642
914.13954	0.57553
912.21098	0.57669
910.28241	0.58007
908.35385	0.58562
906.42528	0.59326
904.49672	0.60261
902.56815	0.61275
900.63959	0.62259
898.71102	0.63141
896.78246	0.63868
894.85390	0.64374
892.92533	0.64616
890.99677	0.64642
889.06820	0.64509
887.13964	0.64222
885.21107	0.63785
883.28251	0.63260
881.35394	0.62707
879.42538	0.62100
877.49682	0.61448
875.56825	0.60867
873.63969	0.60417
871.71112	0.60083
869.78256	0.59892
867.85399	0.59877
865.92543	0.60065
863.99686	0.60488
862.06830	0.61147
860.13974	0.61989
858.21117	0.62970
856.28261	0.64107
854.35404	0.65398
852.42548	0.66760
850.49691	0.68084
848.56835	0.69301
846.63978	0.70406
844.71122	0.71392
842.78266	0.72237
840.85409	0.72920
838.92553	0.73375
836.99696	0.73559
835.06840	0.73508
833.13983	0.73274
831.21127	0.72909
829.28270	0.72483
827.35414	0.72050
825.42558	0.71631
823.49701	0.71231
821.56845	0.70907
819.63988	0.70705
817.71132	0.70614
815.78275	0.70653
813.85419	0.70811
811.92562	0.71058
809.99706	0.71455
808.06850	0.71986
806.13993	0.72529
804.21137	0.73065
802.28280	0.73625
800.35424	0.74195
798.42567	0.74768
796.49711	0.75302
794.56854	0.75708
792.63998	0.75974
790.71142	0.76147
788.78285	0.76230
786.85429	0.76229
784.92572	0.76159
782.99716	0.76056
781.06859	0.75959
779.14003	0.75849
777.21147	0.75736
775.28290	0.75695
773.35434	0.75780
771.42577	0.76022
769.49721	0.76418
767.56864	0.76916
765.64008	0.77498
763.71151	0.78219
761.78295	0.79065
759.85439	0.79945
757.92582	0.80863
755.99726	0.81897
754.06869	0.83011
752.14013	0.84052
750.21156	0.84937
748.28300	0.85714
746.35443	0.86410
744.42587	0.86970
742.49731	0.87347
740.56874	0.87527
738.64018	0.87526
736.71161	0.87450
734.78305	0.87430
732.85448	0.87439
730.92592	0.87354
728.99735	0.87196
727.06879	0.87074
725.14023	0.87023
723.21166	0.87049
721.28310	0.87121
719.35453	0.87131
717.42597	0.87018
715.49740	0.86911
713.56884	0.86959
711.64027	0.87149
709.71171	0.87377
707.78315	0.87600
705.85458	0.87887
703.92602	0.88208
701.99745	0.88381
700.06889	0.88486
698.14032	0.88727
696.21176	0.88971
694.28319	0.89053
692.35463	0.89101
690.42607	0.89212
688.49750	0.89241
686.56894	0.89143
684.64037	0.89154
682.71181	0.89383
680.78324	0.89660
678.85468	0.89750
676.92611	0.89600
674.99755	0.89528
673.06899	0.89680
671.14042	0.89761
669.21186	0.89680
667.28329	0.89737
665.35473	0.89855
663.42616	0.89824
661.49760	0.89604
659.56903	0.89288
657.64047	0.89095
655.71191	0.88959
653.78334	0.88686
651.85478	0.88425
649.92621	0.88430
647.99765	0.88716
646.06908	0.89142
644.14052	0.89581
642.21195	0.90067
640.28339	0.90681
638.35483	0.91313
636.42626	0.91903
634.49770	0.92517
632.56913	0.93031
630.64057	0.93354
628.71200	0.93642
626.78344	0.94004
624.85488	0.94404
622.92631	0.94666
620.99775	0.94635
619.06918	0.94492
617.14062	0.94418
615.21205	0.94319
613.28349	0.94172
611.35492	0.93945
609.42636	0.93677
607.49780	0.93546
605.56923	0.93476
603.64067	0.93383
601.71210	0.93332
599.78354	0.93356
