3997.91406	0.84288
3995.98550	0.84340
3994.05693	0.84284
3992.12837	0.84262
3990.19980	0.84150
3988.27124	0.83889
3986.34268	0.83843
3984.41411	0.83994
3982.48555	0.83915
3980.55698	0.83693
3978.62842	0.83558
3976.69985	0.83417
3974.77129	0.83299
3972.84272	0.83278
3970.91416	0.83270
3968.98560	0.83290
3967.05703	0.83424
3965.12847	0.83525
3963.19990	0.83416
3961.27134	0.83255
3959.34277	0.83302
3957.41421	0.83516
3955.48564	0.83622
3953.55708	0.83499
3951.62852	0.83394
3949.69995	0.83416
3947.77139	0.83340
3945.84282	0.83248
3943.91426	0.83275
3941.98569	0.83251
3940.05713	0.83101
3938.12856	0.82919
3936.20000	0.82879
3934.27144	0.83052
3932.34287	0.83157
3930.41431	0.82983
3928.48574	0.82750
3926.55718	0.82579
3924.62861	0.82413
3922.70005	0.82448
3920.77148	0.82773
3918.84292	0.82969
3916.91436	0.82735
3914.98579	0.82422
3913.05723	0.82267
3911.12866	0.82189
3909.20010	0.82252
3907.27153	0.82429
3905.34297	0.82439
3903.41440	0.82308
3901.48584	0.82262
3899.55728	0.82066
3897.62871	0.81830
3895.70015	0.81825
3893.77158	0.81900
3891.84302	0.81714
3889.91445	0.81496
3887.98589	0.81535
3886.05733	0.81486
3884.12876	0.81455
3882.20020	0.81635
3880.27163	0.81497
3878.34307	0.81218
3876.41450	0.81196
3874.48594	0.81309
3872.55737	0.81591
3870.62881	0.81842
3868.70025	0.81744
3866.77168	0.81629
3864.84312	0.81574
3862.91455	0.81393
3860.98599	0.81266
3859.05742	0.81450
3857.12886	0.81878
3855.20029	0.81981
3853.27173	0.80812
3851.34317	0.79948
3849.41460	0.80099
3847.48604	0.80487
3845.55747	0.80874
3843.62891	0.81144
3841.70034	0.81169
3839.77178	0.80871
3837.84321	0.80499
3835.91465	0.80414
3833.98609	0.80343
3832.05752	0.80235
3830.12896	0.80290
3828.20039	0.80326
3826.27183	0.80280
3824.34326	0.80477
3822.41470	0.80657
3820.48613	0.80210
3818.55757	0.79814
3816.62901	0.79667
3814.70044	0.79605
3812.77188	0.79779
3810.84331	0.80081
3808.91475	0.80333
3806.98618	0.80352
3805.05762	0.80447
3803.12905	0.80577
3801.20049	0.80111
3799.27193	0.79698
3797.34336	0.79566
3795.41480	0.79333
3793.48623	0.79261
3791.55767	0.79356
3789.62910	0.79442
3787.70054	0.79469
3785.77197	0.79355
3783.84341	0.79209
3781.91485	0.79202
3779.98628	0.79122
3778.05772	0.78982
3776.12915	0.79104
3774.20059	0.79336
3772.27202	0.79406
3770.34346	0.79277
3768.41489	0.79286
3766.48633	0.79457
3764.55777	0.79468
3762.62920	0.79483
3760.70064	0.79575
3758.77207	0.79444
3756.84351	0.79201
3754.91494	0.79142
3752.98638	0.79270
3751.05781	0.79418
3749.12925	0.79423
3747.20069	0.79301
3745.27212	0.78809
3743.34356	0.78445
3741.41499	0.78774
3739.48643	0.79342
3737.55786	0.79873
3735.62930	0.80089
3733.70074	0.79663
3731.77217	0.79135
3729.84361	0.79008
3727.91504	0.79067
3725.98648	0.78949
3724.05791	0.78719
3722.12935	0.78591
3720.20078	0.78548
3718.27222	0.78652
3716.34366	0.78959
3714.41509	0.79371
3712.48653	0.79479
3710.55796	0.78980
3708.62940	0.78705
3706.70083	0.78863
3704.77227	0.79060
3702.84370	0.78981
3700.91514	0.78786
3698.98658	0.78886
3697.05801	0.79107
3695.12945	0.79259
3693.20088	0.79394
3691.27232	0.79351
3689.34375	0.78856
3687.41519	0.78642
3685.48662	0.78927
3683.55806	0.79274
3681.62950	0.79592
3679.70093	0.80004
3677.77237	0.80433
3675.84380	0.80378
3673.91524	0.80179
3671.98667	0.80352
3670.05811	0.80243
3668.12954	0.79984
3666.20098	0.80160
3664.27242	0.80520
3662.34385	0.80877
3660.41529	0.81281
3658.48672	0.81745
3656.55816	0.82129
3654.62959	0.82417
3652.70103	0.82825
3650.77246	0.83262
3648.84390	0.83124
3646.91534	0.82949
3644.98677	0.83311
3643.05821	0.83718
3641.12964	0.83880
3639.20108	0.84024
3637.27251	0.84355
3635.34395	0.84723
3633.41538	0.85149
3631.48682	0.85733
3629.55826	0.86096
3627.62969	0.85907
3625.70113	0.86026
3623.77256	0.86515
3621.84400	0.87005
3619.91543	0.87250
3617.98687	0.87491
3616.05830	0.88063
3614.12974	0.88563
3612.20118	0.88775
3610.27261	0.89051
3608.34405	0.89358
3606.41548	0.89480
3604.48692	0.89626
3602.55835	0.89908
3600.62979	0.90189
3598.70123	0.90388
3596.77266	0.90536
3594.84410	0.90678
3592.91553	0.90943
3590.98697	0.91375
3589.05840	0.91890
3587.12984	0.92239
3585.20127	0.92398
3583.27271	0.92644
3581.34415	0.92893
3579.41558	0.93005
3577.48702	0.93096
3575.55845	0.93362
3573.62989	0.93831
3571.70132	0.94356
3569.77276	0.94674
3567.84419	0.94748
3565.91563	0.95056
3563.98707	0.95536
3562.05850	0.95842
3560.12994	0.96038
3558.20137	0.96165
3556.27281	0.96311
3554.34424	0.96644
3552.41568	0.97052
3550.48711	0.97398
3548.55855	0.97892
3546.62999	0.98473
3544.70142	0.98710
3542.77286	0.98741
3540.84429	0.98936
3538.91573	0.99197
3536.98716	0.99346
3535.05860	0.99420
3533.13003	0.99597
3531.20147	0.99968
3529.27291	1.00391
3527.34434	1.00828
3525.41578	1.01380
3523.48721	1.01884
3521.55865	1.02211
3519.63008	1.02421
3517.70152	1.02532
3515.77295	1.02585
3513.84439	1.02762
3511.91583	1.03150
3509.98726	1.03512
3508.05870	1.03770
3506.13013	1.04265
3504.20157	1.04949
3502.27300	1.05385
3500.34444	1.05687
3498.41587	1.06002
3496.48731	1.06182
3494.55875	1.06329
3492.63018	1.06486
3490.70162	1.06648
3488.77305	1.06867
3486.84449	1.07079
3484.91592	1.07375
3482.98736	1.07869
3481.05879	1.08394
3479.13023	1.08731
3477.20167	1.08828
3475.27310	1.08687
3473.34454	1.08433
3471.41597	1.08378
3469.48741	1.08656
3467.55884	1.09062
3465.63028	1.09405
3463.70171	1.09640
3461.77315	1.09734
3459.84459	1.09801
3457.91602	1.09971
3455.98746	1.10189
3454.05889	1.10319
3452.13033	1.10273
3450.20176	1.10211
3448.27320	1.10333
3446.34464	1.10521
3444.41607	1.10572
3442.48751	1.10496
3440.55894	1.10415
3438.63038	1.10477
3436.70181	1.10752
3434.77325	1.11060
3432.84468	1.11163
3430.91612	1.11148
3428.98756	1.11146
3427.05899	1.11101
3425.13043	1.11118
3423.20186	1.11177
3421.27330	1.10941
3419.34473	1.10618
3417.41617	1.10761
3415.48760	1.11134
3413.55904	1.11186
3411.63048	1.11026
3409.70191	1.11069
3407.77335	1.11254
3405.84478	1.11330
3403.91622	1.11433
3401.98765	1.11650
3400.05909	1.11728
3398.13052	1.11646
3396.20196	1.11699
3394.27340	1.11944
3392.34483	1.12061
3390.41627	1.11998
3388.48770	1.12078
3386.55914	1.12229
3384.63057	1.12273
3382.70201	1.12350
3380.77344	1.12498
3378.84488	1.12660
3376.91632	1.12716
3374.98775	1.12621
3373.05919	1.12649
3371.13062	1.12821
3369.20206	1.12821
3367.27349	1.12707
3365.34493	1.12785
3363.41636	1.13051
3361.48780	1.13230
3359.55924	1.13178
3357.63067	1.13122
3355.70211	1.13244
3353.77354	1.13438
3351.84498	1.13610
3349.91641	1.13639
3347.98785	1.13513
3346.05928	1.13524
3344.13072	1.13772
3342.20216	1.14041
3340.27359	1.14264
3338.34503	1.14499
3336.41646	1.14720
3334.48790	1.14883
3332.55933	1.14967
3330.63077	1.14980
3328.70220	1.14928
3326.77364	1.14893
3324.84508	1.15059
3322.91651	1.15359
3320.98795	1.15571
3319.05938	1.15627
3317.13082	1.15605
3315.20225	1.15682
3313.27369	1.15887
3311.34513	1.16123
3309.41656	1.16416
3307.48800	1.16771
3305.55943	1.16955
3303.63087	1.16890
3301.70230	1.16927
3299.77374	1.17148
3297.84517	1.17210
3295.91661	1.17196
3293.98805	1.17403
3292.05948	1.17564
3290.13092	1.17431
3288.20235	1.17332
3286.27379	1.17432
3284.34522	1.17501
3282.41666	1.17391
3280.48809	1.17199
3278.55953	1.17113
3276.63097	1.17140
3274.70240	1.17228
3272.77384	1.17395
3270.84527	1.17475
3268.91671	1.17232
3266.98814	1.16770
3265.05958	1.16411
3263.13101	1.16175
3261.20245	1.15955
3259.27389	1.15830
3257.34532	1.15793
3255.41676	1.15737
3253.48819	1.15589
3251.55963	1.15362
3249.63106	1.15185
3247.70250	1.14997
3245.77393	1.14585
3243.84537	1.13931
3241.91681	1.13273
3239.98824	1.12909
3238.05968	1.12843
3236.13111	1.12735
3234.20255	1.12401
3232.27398	1.12003
3230.34542	1.11796
3228.41685	1.11780
3226.48829	1.11674
3224.55973	1.11407
3222.63116	1.11193
3220.70260	1.11143
3218.77403	1.11095
3216.84547	1.10770
3214.91690	1.10310
3212.98834	1.10095
3211.05977	1.10050
3209.13121	1.09930
3207.20265	1.09679
3205.27408	1.09278
3203.34552	1.08869
3201.41695	1.08680
3199.48839	1.08657
3197.55982	1.08542
3195.63126	1.08237
3193.70269	1.07852
3191.77413	1.07473
3189.84557	1.07171
3187.91700	1.07000
3185.98844	1.06850
3184.05987	1.06639
3182.13131	1.06466
3180.20274	1.06332
3178.27418	1.06127
3176.34562	1.05912
3174.41705	1.05779
3172.48849	1.05662
3170.55992	1.05484
3168.63136	1.05196
3166.70279	1.04836
3164.77423	1.04552
3162.84566	1.04373
3160.91710	1.04249
3158.98854	1.04183
3157.05997	1.04153
3155.13141	1.04149
3153.20284	1.04102
3151.27428	1.03898
3149.34571	1.03592
3147.41715	1.03322
3145.48858	1.03126
3143.56002	1.03022
3141.63146	1.03075
3139.70289	1.03180
3137.77433	1.03103
3135.84576	1.02875
3133.91720	1.02687
3131.98863	1.02566
3130.06007	1.02505
3128.13150	1.02522
3126.20294	1.02566
3124.27438	1.02597
3122.34581	1.02606
3120.41725	1.02597
3118.48868	1.02593
3116.56012	1.02598
3114.63155	1.02605
3112.70299	1.02572
3110.77442	1.02498
3108.84586	1.02495
3106.91730	1.02596
3104.98873	1.02687
3103.06017	1.02705
3101.13160	1.02656
3099.20304	1.02538
3097.27447	1.02361
3095.34591	1.02171
3093.41734	1.02034
3091.48878	1.01956
3089.56022	1.01854
3087.63165	1.01644
3085.70309	1.01382
3083.77452	1.01178
3081.84596	1.01036
3079.91739	1.00945
3077.98883	1.00875
3076.06026	1.00741
3074.13170	1.00539
3072.20314	1.00330
3070.27457	1.00161
3068.34601	1.00042
3066.41744	0.99910
3064.48888	0.99697
3062.56031	0.99432
3060.63175	0.99233
3058.70318	0.99169
3056.77462	0.99128
3054.84606	0.98979
3052.91749	0.98781
3050.98893	0.98554
3049.06036	0.98247
3047.13180	0.97939
3045.20323	0.97676
3043.27467	0.97410
3041.34610	0.97121
3039.41754	0.96863
3037.48898	0.96709
3035.56041	0.96587
3033.63185	0.96372
3031.70328	0.96092
3029.77472	0.95851
3027.84615	0.95723
3025.91759	0.95683
3023.98903	0.95529
3022.06046	0.95195
3020.13190	0.94912
3018.20333	0.94773
3016.27477	0.94658
3014.34620	0.94567
3012.41764	0.94527
3010.48907	0.94450
3008.56051	0.94346
3006.63195	0.94271
3004.70338	0.94177
3002.77482	0.94105
3000.84625	0.94132
2998.91769	0.94183
2996.98912	0.94213
2995.06056	0.94259
2993.13199	0.94326
2991.20343	0.94425
2989.27487	0.94611
2987.34630	0.94840
2985.41774	0.95051
2983.48917	0.95328
2981.56061	0.95702
2979.63204	0.96126
2977.70348	0.96582
2975.77491	0.97038
2973.84635	0.97496
2971.91779	0.97915
2969.98922	0.98251
2968.06066	0.98600
2966.13209	0.99028
2964.20353	0.99409
2962.27496	0.99559
2960.34640	0.99485
2958.41783	0.99327
2956.48927	0.99135
2954.56071	0.98886
2952.63214	0.98568
2950.70358	0.98195
2948.77501	0.97895
2946.84645	0.97856
2944.91788	0.98042
2942.98932	0.98310
2941.06075	0.98706
2939.13219	0.99303
2937.20363	1.00023
2935.27506	1.00758
2933.34650	1.01433
2931.41793	1.01959
2929.48937	1.02383
2927.56080	1.02900
2925.63224	1.03498
2923.70367	1.04034
2921.77511	1.04495
2919.84655	1.04815
2917.91798	1.04764
2915.98942	1.04083
2914.06085	1.02725
2912.13229	1.01090
2910.20372	0.99728
2908.27516	0.98814
2906.34659	0.98181
2904.41803	0.97658
2902.48947	0.97209
2900.56090	0.96810
2898.63234	0.96417
2896.70377	0.96076
2894.77521	0.95784
2892.84664	0.95471
2890.91808	0.95154
2888.98952	0.94852
2887.06095	0.94594
2885.13239	0.94407
2883.20382	0.94235
2881.27526	0.94113
2879.34669	0.94066
2877.41813	0.93998
2875.48956	0.93911
2873.56100	0.93826
2871.63244	0.93618
2869.70387	0.93263
2867.77531	0.92923
2865.84674	0.92645
2863.91818	0.92397
2861.98961	0.92309
2860.06105	0.92479
2858.13248	0.92870
2856.20392	0.93461
2854.27536	0.94205
2852.34679	0.94950
2850.41823	0.95274
2848.48966	0.94591
2846.56110	0.92954
2844.63253	0.91105
2842.70397	0.89561
2840.77540	0.88413
2838.84684	0.87630
2836.91828	0.87084
2834.98971	0.86647
2833.06115	0.86272
2831.13258	0.85933
2829.20402	0.85624
2827.27545	0.85326
2825.34689	0.85035
2823.41832	0.84798
2821.48976	0.84618
2819.56120	0.84399
2817.63263	0.84105
2815.70407	0.83831
2813.77550	0.83640
2811.84694	0.83494
2809.91837	0.83332
2807.98981	0.83165
2806.06124	0.83027
2804.13268	0.82829
2802.20412	0.82547
2800.27555	0.82323
2798.34699	0.82182
2796.41842	0.82060
2794.48986	0.81958
2792.56129	0.81854
2790.63273	0.81728
2788.70416	0.81570
2786.77560	0.81370
2784.84704	0.81169
2782.91847	0.81012
2780.98991	0.80876
2779.06134	0.80745
2777.13278	0.80634
2775.20421	0.80495
2773.27565	0.80307
2771.34708	0.80120
2769.41852	0.79933
2767.48996	0.79751
2765.56139	0.79652
2763.63283	0.79643
2761.70426	0.79619
2759.77570	0.79509
2757.84713	0.79381
2755.91857	0.79304
2753.99001	0.79230
2752.06144	0.79117
2750.13288	0.79020
2748.20431	0.78991
2746.27575	0.78973
2744.34718	0.78900
2742.41862	0.78812
2740.49005	0.78744
2738.56149	0.78638
2736.63293	0.78464
2734.70436	0.78285
2732.77580	0.78171
2730.84723	0.78114
2728.91867	0.78050
2726.99010	0.77947
2725.06154	0.77795
2723.13297	0.77635
2721.20441	0.77554
2719.27585	0.77507
2717.34728	0.77393
2715.41872	0.77284
2713.49015	0.77230
2711.56159	0.77123
2709.63302	0.76933
2707.70446	0.76738
2705.77589	0.76565
2703.84733	0.76416
2701.91877	0.76316
2699.99020	0.76215
2698.06164	0.76055
2696.13307	0.75921
2694.20451	0.75837
2692.27594	0.75744
2690.34738	0.75687
2688.41881	0.75671
2686.49025	0.75621
2684.56169	0.75523
2682.63312	0.75423
2680.70456	0.75366
2678.77599	0.75322
2676.84743	0.75237
2674.91886	0.75115
2672.99030	0.74991
2671.06173	0.74856
2669.13317	0.74692
2667.20461	0.74553
2665.27604	0.74462
2663.34748	0.74363
2661.41891	0.74221
2659.49035	0.74041
2657.56178	0.73855
2655.63322	0.73745
2653.70465	0.73724
2651.77609	0.73698
2649.84753	0.73637
2647.91896	0.73580
2645.99040	0.73523
2644.06183	0.73458
2642.13327	0.73423
2640.20470	0.73423
2638.27614	0.73359
2636.34757	0.73227
2634.41901	0.73141
2632.49045	0.73109
2630.56188	0.73058
2628.63332	0.72948
2626.70475	0.72788
2624.77619	0.72653
2622.84762	0.72595
2620.91906	0.72549
2618.99049	0.72465
2617.06193	0.72362
2615.13337	0.72250
2613.20480	0.72127
2611.27624	0.72023
2609.34767	0.71939
2607.41911	0.71833
2605.49054	0.71709
2603.56198	0.71583
2601.63342	0.71437
2599.70485	0.71310
2597.77629	0.71266
2595.84772	0.71268
2593.91916	0.71209
2591.99059	0.71076
2590.06203	0.70938
2588.13346	0.70845
2586.20490	0.70793
2584.27634	0.70737
2582.34777	0.70642
2580.41921	0.70520
2578.49064	0.70405
2576.56208	0.70310
2574.63351	0.70217
2572.70495	0.70118
2570.77638	0.70015
2568.84782	0.69916
2566.91926	0.69834
2564.99069	0.69759
2563.06213	0.69662
2561.13356	0.69533
2559.20500	0.69386
2557.27643	0.69259
2555.34787	0.69154
2553.41930	0.69033
2551.49074	0.68903
2549.56218	0.68774
2547.63361	0.68627
2545.70505	0.68483
2543.77648	0.68382
2541.84792	0.68299
2539.91935	0.68192
2537.99079	0.68096
2536.06222	0.68027
2534.13366	0.67965
2532.20510	0.67904
2530.27653	0.67828
2528.34797	0.67740
2526.41940	0.67637
2524.49084	0.67526
2522.56227	0.67457
2520.63371	0.67410
2518.70514	0.67322
2516.77658	0.67193
2514.84802	0.67056
2512.91945	0.66927
2510.99089	0.66812
2509.06232	0.66710
2507.13376	0.66605
2505.20519	0.66491
2503.27663	0.66373
2501.34806	0.66255
2499.41950	0.66132
2497.49094	0.66018
2495.56237	0.65941
2493.63381	0.65886
2491.70524	0.65829
2489.77668	0.65754
2487.84811	0.65656
2485.91955	0.65548
2483.99098	0.65451
2482.06242	0.65381
2480.13386	0.65318
2478.20529	0.65225
2476.27673	0.65109
2474.34816	0.64981
2472.41960	0.64852
2470.49103	0.64728
2468.56247	0.64593
2466.63391	0.64447
2464.70534	0.64297
2462.77678	0.64145
2460.84821	0.64018
2458.91965	0.63924
2456.99108	0.63831
2455.06252	0.63736
2453.13395	0.63651
2451.20539	0.63577
2449.27683	0.63510
2447.34826	0.63440
2445.41970	0.63365
2443.49113	0.63285
2441.56257	0.63199
2439.63400	0.63107
2437.70544	0.62974
2435.77687	0.62806
2433.84831	0.62689
2431.91975	0.62633
2429.99118	0.62567
2428.06262	0.62453
2426.13405	0.62289
2424.20549	0.62115
2422.27692	0.62014
2420.34836	0.61980
2418.41979	0.61922
2416.49123	0.61815
2414.56267	0.61718
2412.63410	0.61670
2410.70554	0.61633
2408.77697	0.61570
2406.84841	0.61506
2404.91984	0.61447
2402.99128	0.61367
2401.06271	0.61256
2399.13415	0.61134
2397.20559	0.61035
2395.27702	0.60979
2393.34846	0.60919
2391.41989	0.60803
2389.49133	0.60674
2387.56276	0.60612
2385.63420	0.60623
2383.70563	0.60668
2381.77707	0.60729
2379.84851	0.60821
2377.91994	0.60946
2375.99138	0.61072
2374.06281	0.61222
2372.13425	0.61471
2370.20568	0.61760
2368.27712	0.61930
2366.34855	0.61869
2364.41999	0.61615
2362.49143	0.61426
2360.56286	0.61393
2358.63430	0.61334
2356.70573	0.61098
2354.77717	0.60654
2352.84860	0.60167
2350.92004	0.59913
2348.99147	0.59964
2347.06291	0.60190
2345.13435	0.60388
2343.20578	0.60369
2341.27722	0.60168
2339.34865	0.59979
2337.42009	0.59849
2335.49152	0.59676
2333.56296	0.59479
2331.63440	0.59337
2329.70583	0.59284
2327.77727	0.59268
2325.84870	0.59163
2323.92014	0.58945
2321.99157	0.58687
2320.06301	0.58429
2318.13444	0.58197
2316.20588	0.58011
2314.27732	0.57833
2312.34875	0.57651
2310.42019	0.57484
2308.49162	0.57297
2306.56306	0.57097
2304.63449	0.56952
2302.70593	0.56860
2300.77736	0.56763
2298.84880	0.56656
2296.92024	0.56557
2294.99167	0.56447
2293.06311	0.56349
2291.13454	0.56299
2289.20598	0.56258
2287.27741	0.56193
2285.34885	0.56108
2283.42028	0.56005
2281.49172	0.55908
2279.56316	0.55829
2277.63459	0.55753
2275.70603	0.55661
2273.77746	0.55539
2271.84890	0.55408
2269.92033	0.55304
2267.99177	0.55225
2266.06320	0.55156
2264.13464	0.55082
2262.20608	0.54996
2260.27751	0.54922
2258.34895	0.54865
2256.42038	0.54821
2254.49182	0.54803
2252.56325	0.54787
2250.63469	0.54740
2248.70612	0.54683
2246.77756	0.54634
2244.84900	0.54576
2242.92043	0.54501
2240.99187	0.54429
2239.06330	0.54368
2237.13474	0.54294
2235.20617	0.54203
2233.27761	0.54107
2231.34904	0.53993
2229.42048	0.53862
2227.49192	0.53746
2225.56335	0.53660
2223.63479	0.53590
2221.70622	0.53526
2219.77766	0.53473
2217.84909	0.53428
2215.92053	0.53385
2213.99196	0.53355
2212.06340	0.53334
2210.13484	0.53308
2208.20627	0.53284
2206.27771	0.53259
2204.34914	0.53202
2202.42058	0.53109
2200.49201	0.52995
2198.56345	0.52878
2196.63488	0.52758
2194.70632	0.52631
2192.77776	0.52516
2190.84919	0.52426
2188.92063	0.52350
2186.99206	0.52275
2185.06350	0.52200
2183.13493	0.52138
2181.20637	0.52085
2179.27781	0.52033
2177.34924	0.51990
2175.42068	0.51965
2173.49211	0.51955
2171.56355	0.51932
2169.63498	0.51873
2167.70642	0.51788
2165.77785	0.51707
2163.84929	0.51651
2161.92073	0.51596
2159.99216	0.51497
2158.06360	0.51359
2156.13503	0.51223
2154.20647	0.51107
2152.27790	0.51011
2150.34934	0.50932
2148.42077	0.50875
2146.49221	0.50831
2144.56365	0.50778
2142.63508	0.50715
2140.70652	0.50668
2138.77795	0.50645
2136.84939	0.50641
2134.92082	0.50644
2132.99226	0.50632
2131.06369	0.50596
2129.13513	0.50543
2127.20657	0.50485
2125.27800	0.50427
2123.34944	0.50354
2121.42087	0.50263
2119.49231	0.50172
2117.56374	0.50084
2115.63518	0.49981
2113.70661	0.49878
2111.77805	0.49814
2109.84949	0.49791
2107.92092	0.49783
2105.99236	0.49769
2104.06379	0.49740
2102.13523	0.49706
2100.20666	0.49687
2098.27810	0.49698
2096.34953	0.49703
2094.42097	0.49659
2092.49241	0.49589
2090.56384	0.49528
2088.63528	0.49455
2086.70671	0.49361
2084.77815	0.49260
2082.84958	0.49148
2080.92102	0.49036
2078.99245	0.48953
2077.06389	0.48914
2075.13533	0.48892
2073.20676	0.48858
2071.27820	0.48823
2069.34963	0.48807
2067.42107	0.48797
2065.49250	0.48775
2063.56394	0.48744
2061.63537	0.48726
2059.70681	0.48719
2057.77825	0.48693
2055.84968	0.48632
2053.92112	0.48556
2051.99255	0.48489
2050.06399	0.48430
2048.13542	0.48352
2046.20686	0.48240
2044.27830	0.48123
2042.34973	0.48014
2040.42117	0.47894
2038.49260	0.47772
2036.56404	0.47675
2034.63547	0.47603
2032.70691	0.47550
2030.77834	0.47505
2028.84978	0.47440
2026.92122	0.47364
2024.99265	0.47309
2023.06409	0.47279
2021.13552	0.47275
2019.20696	0.47288
2017.27839	0.47266
2015.34983	0.47194
2013.42126	0.47118
2011.49270	0.47048
2009.56414	0.46973
2007.63557	0.46891
2005.70701	0.46804
2003.77844	0.46720
2001.84988	0.46646
1999.92131	0.46579
1997.99275	0.46509
1996.06418	0.46460
1994.13562	0.46435
1992.20706	0.46390
1990.27849	0.46325
1988.34993	0.46254
1986.42136	0.46179
1984.49280	0.46135
1982.56423	0.46126
1980.63567	0.46119
1978.70710	0.46103
1976.77854	0.46090
1974.84998	0.46084
1972.92141	0.46068
1970.99285	0.46054
1969.06428	0.46056
1967.13572	0.46027
1965.20715	0.45956
1963.27859	0.45880
1961.35002	0.45803
1959.42146	0.45740
1957.49290	0.45707
1955.56433	0.45665
1953.63577	0.45608
1951.70720	0.45571
1949.77864	0.45566
1947.85007	0.45585
1945.92151	0.45622
1943.99294	0.45650
1942.06438	0.45613
1940.13582	0.45545
1938.20725	0.45519
1936.27869	0.45538
1934.35012	0.45564
1932.42156	0.45562
1930.49299	0.45541
1928.56443	0.45526
1926.63586	0.45551
1924.70730	0.45593
1922.77874	0.45584
1920.85017	0.45546
1918.92161	0.45491
1916.99304	0.45385
1915.06448	0.45297
1913.13591	0.45284
1911.20735	0.45308
1909.27878	0.45307
1907.35022	0.45261
1905.42166	0.45215
1903.49309	0.45196
1901.56453	0.45195
1899.63596	0.45212
1897.70740	0.45247
1895.77883	0.45259
1893.85027	0.45237
1891.92171	0.45232
1889.99314	0.45200
1888.06458	0.45093
1886.13601	0.45003
1884.20745	0.44945
1882.27888	0.44893
1880.35032	0.44852
1878.42175	0.44809
1876.49319	0.44747
1874.56463	0.44699
1872.63606	0.44746
1870.70750	0.44865
1868.77893	0.44884
1866.85037	0.44763
1864.92180	0.44689
1862.99324	0.44687
1861.06467	0.44699
1859.13611	0.44684
1857.20755	0.44631
1855.27898	0.44571
1853.35042	0.44528
1851.42185	0.44509
1849.49329	0.44519
1847.56472	0.44550
1845.63616	0.44525
1843.70759	0.44336
1841.77903	0.44168
1839.85047	0.44151
1837.92190	0.44174
1835.99334	0.44170
1834.06477	0.44211
1832.13621	0.44346
1830.20764	0.44457
1828.27908	0.44483
1826.35051	0.44511
1824.42195	0.44510
1822.49339	0.44491
1820.56482	0.44514
1818.63626	0.44543
1816.70769	0.44539
1814.77913	0.44561
1812.85056	0.44628
1810.92200	0.44650
1808.99343	0.44600
1807.06487	0.44569
1805.13631	0.44619
1803.20774	0.44734
1801.27918	0.44822
1799.35061	0.44849
1797.42205	0.44922
1795.49348	0.45079
1793.56492	0.45221
1791.63635	0.45218
1789.70779	0.45164
1787.77923	0.45210
1785.85066	0.45284
1783.92210	0.45331
1781.99353	0.45375
1780.06497	0.45394
1778.13640	0.45417
1776.20784	0.45515
1774.27927	0.45658
1772.35071	0.45685
1770.42215	0.45614
1768.49358	0.45608
1766.56502	0.45662
1764.63645	0.45808
1762.70789	0.46012
1760.77932	0.46208
1758.85076	0.46434
1756.92220	0.46736
1754.99363	0.47113
1753.06507	0.47607
1751.13650	0.48280
1749.20794	0.48976
1747.27937	0.49505
1745.35081	0.49973
1743.42224	0.50461
1741.49368	0.50906
1739.56512	0.51254
1737.63655	0.51570
1735.70799	0.51884
1733.77942	0.52082
1731.85086	0.52106
1729.92229	0.52151
1727.99373	0.52280
1726.06516	0.52537
1724.13660	0.52930
1722.20804	0.53400
1720.27947	0.53956
1718.35091	0.54687
1716.42234	0.55470
1714.49378	0.56062
1712.56521	0.56705
1710.63665	0.57577
1708.70808	0.58697
1706.77952	0.60276
1704.85096	0.62298
1702.92239	0.64255
1700.99383	0.67012
1699.06526	0.71120
1697.13670	0.74848
1695.20813	0.78374
1693.27957	0.81080
1691.35100	0.83404
1689.42244	0.86229
1687.49388	0.88873
1685.56531	0.91498
1683.63675	0.95342
1681.70818	0.98186
1679.77962	0.99955
1677.85105	1.01710
1675.92249	1.03806
1673.99392	1.05983
1672.06536	1.07668
1670.13680	1.09375
1668.20823	1.11130
1666.27967	1.12337
1664.35110	1.13509
1662.42254	1.14874
1660.49397	1.15948
1658.56541	1.16732
1656.63684	1.17425
1654.70828	1.18066
1652.77972	1.18375
1650.85115	1.18487
1648.92259	1.18729
1646.99402	1.18811
1645.06546	1.18555
1643.13689	1.18334
1641.20833	1.18318
1639.27976	1.18438
1637.35120	1.18553
1635.42264	1.18350
1633.49407	1.17982
1631.56551	1.17740
1629.63694	1.17406
1627.70838	1.16851
1625.77981	1.16128
1623.85125	1.15041
1621.92269	1.13597
1619.99412	1.12407
1618.06556	1.10888
1616.13699	1.08164
1614.20843	1.05792
1612.27986	1.04111
1610.35130	1.02448
1608.42273	1.00725
1606.49417	0.99176
1604.56561	0.98000
1602.63704	0.97169
1600.70848	0.96593
1598.77991	0.96209
1596.85135	0.95975
1594.92278	0.95805
1592.99422	0.95685
1591.06565	0.95708
1589.13709	0.95907
1587.20853	0.96307
1585.27996	0.96953
1583.35140	0.97829
1581.42283	0.98838
1579.49427	0.99896
1577.56570	1.01213
1575.63714	1.02868
1573.70857	1.03990
1571.78001	1.04813
1569.85145	1.06005
1567.92288	1.07348
1565.99432	1.08413
1564.06575	1.09374
1562.13719	1.10217
1560.20862	1.11267
1558.28006	1.12834
1556.35149	1.13439
1554.42293	1.13721
1552.49437	1.13979
1550.56580	1.14123
1548.63724	1.14183
1546.70867	1.14337
1544.78011	1.14651
1542.85154	1.15013
1540.92298	1.14871
1538.99441	1.13819
1537.06585	1.13287
1535.13729	1.13063
1533.20872	1.12636
1531.28016	1.12094
1529.35159	1.11786
1527.42303	1.11575
1525.49446	1.11336
1523.56590	1.11241
1521.63733	1.11188
1519.70877	1.11004
1517.78021	1.10551
1515.85164	1.09605
1513.92308	1.08431
1511.99451	1.07262
1510.06595	1.06208
1508.13738	1.04531
1506.20882	1.01026
1504.28025	0.99064
1502.35169	0.98010
1500.42313	0.96797
1498.49456	0.95152
1496.56600	0.93077
1494.63743	0.91462
1492.70887	0.90530
1490.78030	0.89516
1488.85174	0.87843
1486.92317	0.86369
1484.99461	0.85506
1483.06605	0.84936
1481.13748	0.84520
1479.20892	0.84392
1477.28035	0.84706
1475.35179	0.85475
1473.42322	0.86647
1471.49466	0.87763
1469.56610	0.88450
1467.63753	0.89055
1465.70897	0.89824
1463.78040	0.90646
1461.85184	0.91272
1459.92327	0.91847
1457.99471	0.92649
1456.06614	0.93257
1454.13758	0.93273
1452.20902	0.93215
1450.28045	0.93206
1448.35189	0.93089
1446.42332	0.92754
1444.49476	0.92367
1442.56619	0.91976
1440.63763	0.91567
1438.70906	0.91069
1436.78050	0.90192
1434.85194	0.89190
1432.92337	0.88484
1430.99481	0.87760
1429.06624	0.86964
1427.13768	0.86433
1425.20911	0.86184
1423.28055	0.86112
1421.35198	0.86228
1419.42342	0.86485
1417.49486	0.86567
1415.56629	0.86429
1413.63773	0.86309
1411.70916	0.86219
1409.78060	0.86145
1407.85203	0.86164
1405.92347	0.86274
1403.99490	0.86402
1402.06634	0.86594
1400.13778	0.86881
1398.20921	0.87150
1396.28065	0.87351
1394.35208	0.87567
1392.42352	0.87841
1390.49495	0.88275
1388.56639	0.89040
1386.63782	0.90096
1384.70926	0.91097
1382.78070	0.91999
1380.85213	0.92775
1378.92357	0.93185
1376.99500	0.93084
1375.06644	0.92367
1373.13787	0.91131
1371.20931	0.89833
1369.28074	0.88429
1367.35218	0.86896
1365.42362	0.85560
1363.49505	0.84323
1361.56649	0.83133
1359.63792	0.82326
1357.70936	0.81861
1355.78079	0.81545
1353.85223	0.81335
1351.92366	0.81244
1349.99510	0.81220
1348.06654	0.81198
1346.13797	0.81187
1344.20941	0.81236
1342.28084	0.81369
1340.35228	0.81565
1338.42371	0.81748
1336.49515	0.81962
1334.56659	0.82350
1332.63802	0.82920
1330.70946	0.83549
1328.78089	0.84087
1326.85233	0.84457
1324.92376	0.84666
1322.99520	0.84803
1321.06663	0.84977
1319.13807	0.85186
1317.20951	0.85359
1315.28094	0.85482
1313.35238	0.85574
1311.42381	0.85638
1309.49525	0.85657
1307.56668	0.85592
1305.63812	0.85446
1303.70955	0.85258
1301.78099	0.85030
1299.85243	0.84762
1297.92386	0.84463
1295.99530	0.84190
1294.06673	0.84019
1292.13817	0.83946
1290.20960	0.83943
1288.28104	0.83977
1286.35247	0.84002
1284.42391	0.84001
1282.49535	0.83983
1280.56678	0.83938
1278.63822	0.83888
1276.70965	0.83920
1274.78109	0.84079
1272.85252	0.84360
1270.92396	0.84759
1268.99539	0.85239
1267.06683	0.85730
1265.13827	0.86180
1263.20970	0.86581
1261.28114	0.86938
1259.35257	0.87231
1257.42401	0.87491
1255.49544	0.87772
1253.56688	0.88054
1251.63831	0.88278
1249.70975	0.88421
1247.78119	0.88488
1245.85262	0.88490
1243.92406	0.88424
1241.99549	0.88266
1240.06693	0.87992
1238.13836	0.87614
1236.20980	0.87176
1234.28123	0.86675
1232.35267	0.86084
1230.42411	0.85445
1228.49554	0.84797
1226.56698	0.84107
1224.63841	0.83407
1222.70985	0.82800
1220.78128	0.82288
1218.85272	0.81855
1216.92415	0.81538
1214.99559	0.81364
1213.06703	0.81371
1211.13846	0.81547
1209.20990	0.81790
1207.28133	0.81937
1205.35277	0.81800
1203.42420	0.81291
1201.49564	0.80505
1199.56708	0.79607
1197.63851	0.78687
1195.70995	0.77804
1193.78138	0.77081
1191.85282	0.76604
1189.92425	0.76362
1187.99569	0.76298
1186.06712	0.76351
1184.13856	0.76524
1182.21000	0.76842
1180.28143	0.77295
1178.35287	0.77894
1176.42430	0.78619
1174.49574	0.79345
1172.56717	0.79974
1170.63861	0.80590
1168.71004	0.81367
1166.78148	0.82365
1164.85292	0.83487
1162.92435	0.84526
1160.99579	0.85254
1159.06722	0.85582
1157.13866	0.85532
1155.21009	0.85087
1153.28153	0.84249
1151.35296	0.83174
1149.42440	0.82091
1147.49584	0.81158
1145.56727	0.80420
1143.63871	0.79892
1141.71014	0.79639
1139.78158	0.79666
1137.85301	0.79878
1135.92445	0.80166
1133.99588	0.80502
1132.06732	0.80975
1130.13876	0.81633
1128.21019	0.82420
1126.28163	0.83266
1124.35306	0.84085
1122.42450	0.84771
1120.49593	0.85319
1118.56737	0.85790
1116.63880	0.86155
1114.71024	0.86335
1112.78168	0.86312
1110.85311	0.86144
1108.92455	0.85945
1106.99598	0.85783
1105.06742	0.85698
1103.13885	0.85715
1101.21029	0.85808
1099.28172	0.85955
1097.35316	0.86163
1095.42460	0.86488
1093.49603	0.86969
1091.56747	0.87566
1089.63890	0.88274
1087.71034	0.89155
1085.78177	0.90187
1083.85321	0.91231
1081.92464	0.92182
1079.99608	0.92997
1078.06752	0.93627
1076.13895	0.94024
1074.21039	0.94080
1072.28182	0.93765
1070.35326	0.93274
1068.42469	0.92807
1066.49613	0.92358
1064.56756	0.91803
1062.63900	0.91065
1060.71044	0.90196
1058.78187	0.89255
1056.85331	0.88255
1054.92474	0.87221
1052.99618	0.86177
1051.06761	0.85166
1049.13905	0.84362
1047.21049	0.83978
1045.28192	0.84064
1043.35336	0.84546
1041.42479	0.85312
1039.49623	0.86208
1037.56766	0.87105
1035.63910	0.87954
1033.71053	0.88717
1031.78197	0.89295
1029.85341	0.89629
1027.92484	0.89746
1025.99628	0.89604
1024.06771	0.89162
1022.13915	0.88515
1020.21058	0.87740
1018.28202	0.86844
1016.35345	0.85763
1014.42489	0.84394
1012.49633	0.82703
1010.56776	0.80718
1008.63920	0.78557
1006.71063	0.76451
1004.78207	0.74618
1002.85350	0.73196
1000.92494	0.72218
998.99637	0.71604
997.06781	0.71296
995.13925	0.71274
993.21068	0.71400
991.28212	0.71466
989.35355	0.71398
987.42499	0.71228
985.49642	0.70960
983.56786	0.70592
981.63929	0.70150
979.71073	0.69628
977.78217	0.68977
975.85360	0.68157
973.92504	0.67165
971.99647	0.66018
970.06791	0.64785
968.13934	0.63623
966.21078	0.62685
964.28221	0.62071
962.35365	0.61920
960.42509	0.62360
958.49652	0.63332
956.56796	0.64508
954.63939	0.65436
952.71083	0.65858
950.78226	0.65796
948.85370	0.65399
946.92513	0.64844
944.99657	0.64266
943.06801	0.63712
941.13944	0.63146
939.21088	0.62517
937.28231	0.61842
935.35375	0.61203
933.42518	0.60643
931.49662	0.60160
929.56805	0.59779
927.63949	0.59547
925.71093	0.59474
923.78236	0.59492
921.85380	0.59551
919.92523	0.59643
917.99667	0.59732
916.06810	0.59813
914.13954	0.59921
912.21098	0.60051
910.28241	0.60214
908.35385	0.60439
906.42528	0.60706
904.49672	0.60983
902.56815	0.61238
900.63959	0.61414
898.71102	0.61489
896.78246	0.61489
894.85390	0.61429
892.92533	0.61310
890.99677	0.61168
889.06820	0.61052
887.13964	0.60991
885.21107	0.61018
883.28251	0.61144
881.35394	0.61333
879.42538	0.61576
877.49682	0.61877
875.56825	0.62188
873.63969	0.62473
871.71112	0.62737
869.78256	0.62974
867.85399	0.63136
865.92543	0.63177
863.99686	0.63128
862.06830	0.63056
860.13974	0.62992
858.21117	0.62939
856.28261	0.62887
854.35404	0.62821
852.42548	0.62772
850.49691	0.62753
848.56835	0.62733
846.63978	0.62771
844.71122	0.62971
842.78266	0.63335
840.85409	0.63833
838.92553	0.64426
836.99696	0.65043
835.06840	0.65666
833.13983	0.66312
831.21127	0.66948
829.28270	0.67488
827.35414	0.67852
825.42558	0.68016
823.49701	0.68000
821.56845	0.67835
819.63988	0.67558
817.71132	0.67225
815.78275	0.66902
813.85419	0.66611
811.92562	0.66356
809.99706	0.66143
808.06850	0.65983
806.13993	0.65914
804.21137	0.65966
802.28280	0.66159
800.35424	0.66515
798.42567	0.66984
796.49711	0.67479
794.56854	0.67996
792.63998	0.68539
790.71142	0.69015
788.78285	0.69351
786.85429	0.69555
784.92572	0.69639
782.99716	0.69578
781.06859	0.69347
779.14003	0.68980
777.21147	0.68572
775.28290	0.68218
773.35434	0.67941
771.42577	0.67737
769.49721	0.67676
767.56864	0.67824
765.64008	0.68162
763.71151	0.68634
761.78295	0.69188
759.85439	0.69782
757.92582	0.70431
755.99726	0.71162
754.06869	0.71872
752.14013	0.72399
750.21156	0.72752
748.28300	0.73031
746.35443	0.73212
744.42587	0.73200
742.49731	0.72983
740.56874	0.72638
738.64018	0.72260
736.71161	0.71944
734.78305	0.71804
732.85448	0.71895
730.92592	0.72154
728.99735	0.72483
727.06879	0.72863
725.14023	0.73313
723.21166	0.73847
721.28310	0.74513
719.35453	0.75222
717.42597	0.75784
715.49740	0.76234
713.56884	0.76667
711.64027	0.77017
709.71171	0.77215
707.78315	0.77304
705.85458	0.77345
703.92602	0.77342
701.99745	0.77267
700.06889	0.77139
698.14032	0.77035
696.21176	0.76968
694.28319	0.76908
692.35463	0.76882
690.42607	0.76905
688.49750	0.76961
686.56894	0.77081
684.64037	0.77254
682.71181	0.77411
680.78324	0.77529
678.85468	0.77674
676.92611	0.77872
674.99755	0.78023
673.06899	0.78102
671.14042	0.78137
669.21186	0.78023
667.28329	0.77768
665.35473	0.77632
663.42616	0.77476
661.49760	0.77172
659.56903	0.76767
657.64047	0.76363
655.71191	0.75989
653.78334	0.75618
651.85478	0.75289
649.92621	0.75034
647.99765	0.74820
646.06908	0.74667
644.14052	0.74642
642.21195	0.74818
640.28339	0.75180
638.35483	0.75581
636.42626	0.75942
634.49770	0.76410
632.56913	0.77057
630.64057	0.77618
628.71200	0.77925
626.78344	0.78166
624.85488	0.78430
622.92631	0.78526
620.99775	0.78385
619.06918	0.78199
617.14062	0.78010
615.21205	0.77599
613.28349	0.76904
611.35492	0.76066
609.42636	0.75276
607.49780	0.74649
605.56923	0.74100
603.64067	0.73619
601.71210	0.73407
599.78354	0.73570
