3997.91406	0.76058
3995.98550	0.76095
3994.05693	0.76089
3992.12837	0.76086
3990.19980	0.76098
3988.27124	0.76041
3986.34268	0.75903
3984.41411	0.75755
3982.48555	0.75630
3980.55698	0.75471
3978.62842	0.75332
3976.69985	0.75360
3974.77129	0.75519
3972.84272	0.75595
3970.91416	0.75516
3968.98560	0.75415
3967.05703	0.75360
3965.12847	0.75298
3963.19990	0.75185
3961.27134	0.75007
3959.34277	0.74829
3957.41421	0.74745
3955.48564	0.74695
3953.55708	0.74628
3951.62852	0.74743
3949.69995	0.75063
3947.77139	0.75188
3945.84282	0.75020
3943.91426	0.74802
3941.98569	0.74656
3940.05713	0.74634
3938.12856	0.74692
3936.20000	0.74741
3934.27144	0.74824
3932.34287	0.74908
3930.41431	0.74831
3928.48574	0.74765
3926.55718	0.74775
3924.62861	0.74644
3922.70005	0.74502
3920.77148	0.74553
3918.84292	0.74594
3916.91436	0.74509
3914.98579	0.74485
3913.05723	0.74492
3911.12866	0.74394
3909.20010	0.74339
3907.27153	0.74453
3905.34297	0.74535
3903.41440	0.74475
3901.48584	0.74478
3899.55728	0.74390
3897.62871	0.74076
3895.70015	0.73795
3893.77158	0.73671
3891.84302	0.73662
3889.91445	0.73707
3887.98589	0.73775
3886.05733	0.73793
3884.12876	0.73765
3882.20020	0.73797
3880.27163	0.73762
3878.34307	0.73705
3876.41450	0.73833
3874.48594	0.74003
3872.55737	0.73919
3870.62881	0.73564
3868.70025	0.73300
3866.77168	0.73336
3864.84312	0.73463
3862.91455	0.73516
3860.98599	0.73496
3859.05742	0.73412
3857.12886	0.73303
3855.20029	0.73327
3853.27173	0.73500
3851.34317	0.73414
3849.41460	0.73249
3847.48604	0.73139
3845.55747	0.73072
3843.62891	0.73083
3841.70034	0.73252
3839.77178	0.73505
3837.84321	0.73546
3835.91465	0.73345
3833.98609	0.73031
3832.05752	0.72695
3830.12896	0.72592
3828.20039	0.72680
3826.27183	0.72687
3824.34326	0.72677
3822.41470	0.72807
3820.48613	0.72845
3818.55757	0.72789
3816.62901	0.72771
3814.70044	0.72566
3812.77188	0.72295
3810.84331	0.72176
3808.91475	0.72248
3806.98618	0.72336
3805.05762	0.72274
3803.12905	0.72237
3801.20049	0.72240
3799.27193	0.72140
3797.34336	0.71981
3795.41480	0.71837
3793.48623	0.71792
3791.55767	0.71818
3789.62910	0.71828
3787.70054	0.71878
3785.77197	0.72023
3783.84341	0.72075
3781.91485	0.71998
3779.98628	0.71910
3778.05772	0.71775
3776.12915	0.71671
3774.20059	0.71727
3772.27202	0.71855
3770.34346	0.71790
3768.41489	0.71532
3766.48633	0.71413
3764.55777	0.71482
3762.62920	0.71594
3760.70064	0.71653
3758.77207	0.71672
3756.84351	0.71752
3754.91494	0.71925
3752.98638	0.72117
3751.05781	0.72019
3749.12925	0.71532
3747.20069	0.71194
3745.27212	0.71078
3743.34356	0.71098
3741.41499	0.71115
3739.48643	0.71068
3737.55786	0.70996
3735.62930	0.71035
3733.70074	0.71130
3731.77217	0.71189
3729.84361	0.71323
3727.91504	0.71449
3725.98648	0.71365
3724.05791	0.71090
3722.12935	0.70916
3720.20078	0.70959
3718.27222	0.71070
3716.34366	0.71131
3714.41509	0.71230
3712.48653	0.71442
3710.55796	0.71491
3708.62940	0.71316
3706.70083	0.71222
3704.77227	0.71218
3702.84370	0.71218
3700.91514	0.71189
3698.98658	0.71192
3697.05801	0.71265
3695.12945	0.71344
3693.20088	0.71373
3691.27232	0.71436
3689.34375	0.71559
3687.41519	0.71574
3685.48662	0.71600
3683.55806	0.71755
3681.62950	0.71962
3679.70093	0.72206
3677.77237	0.72588
3675.84380	0.72863
3673.91524	0.72772
3671.98667	0.72847
3670.05811	0.73183
3668.12954	0.73431
3666.20098	0.73602
3664.27242	0.73888
3662.34385	0.74229
3660.41529	0.74512
3658.48672	0.74785
3656.55816	0.75172
3654.62959	0.75607
3652.70103	0.76042
3650.77246	0.76528
3648.84390	0.76879
3646.91534	0.77124
3644.98677	0.77360
3643.05821	0.77529
3641.12964	0.77792
3639.20108	0.78254
3637.27251	0.78715
3635.34395	0.79066
3633.41538	0.79432
3631.48682	0.79881
3629.55826	0.80440
3627.62969	0.80885
3625.70113	0.81140
3623.77256	0.81425
3621.84400	0.81839
3619.91543	0.82484
3617.98687	0.83026
3616.05830	0.83184
3614.12974	0.83326
3612.20118	0.83632
3610.27261	0.83992
3608.34405	0.84539
3606.41548	0.85250
3604.48692	0.85748
3602.55835	0.86067
3600.62979	0.86428
3598.70123	0.86892
3596.77266	0.87358
3594.84410	0.87757
3592.91553	0.88065
3590.98697	0.88306
3589.05840	0.88605
3587.12984	0.89080
3585.20127	0.89631
3583.27271	0.90208
3581.34415	0.90803
3579.41558	0.91204
3577.48702	0.91400
3575.55845	0.91688
3573.62989	0.92083
3571.70132	0.92458
3569.77276	0.92953
3567.84419	0.93726
3565.91563	0.94351
3563.98707	0.94631
3562.05850	0.95003
3560.12994	0.95513
3558.20137	0.95983
3556.27281	0.96339
3554.34424	0.96791
3552.41568	0.97484
3550.48711	0.98160
3548.55855	0.98734
3546.62999	0.99309
3544.70142	0.99861
3542.77286	1.00328
3540.84429	1.00659
3538.91573	1.00919
3536.98716	1.01324
3535.05860	1.01976
3533.13003	1.02691
3531.20147	1.03337
3529.27291	1.03890
3527.34434	1.04375
3525.41578	1.04850
3523.48721	1.05271
3521.55865	1.05566
3519.63008	1.05882
3517.70152	1.06453
3515.77295	1.07251
3513.84439	1.08129
3511.91583	1.08971
3509.98726	1.09662
3508.05870	1.10327
3506.13013	1.11126
3504.20157	1.11945
3502.27300	1.12573
3500.34444	1.13112
3498.41587	1.13789
3496.48731	1.14558
3494.55875	1.15209
3492.63018	1.15799
3490.70162	1.16629
3488.77305	1.17525
3486.84449	1.18113
3484.91592	1.18502
3482.98736	1.18918
3481.05879	1.19406
3479.13023	1.19802
3477.20167	1.19917
3475.27310	1.19790
3473.34454	1.19767
3471.41597	1.20083
3469.48741	1.20521
3467.55884	1.20883
3465.63028	1.21234
3463.70171	1.21589
3461.77315	1.21918
3459.84459	1.22218
3457.91602	1.22442
3455.98746	1.22682
3454.05889	1.22957
3452.13033	1.23025
3450.20176	1.23016
3448.27320	1.23314
3446.34464	1.23735
3444.41607	1.23950
3442.48751	1.24286
3440.55894	1.24797
3438.63038	1.24993
3436.70181	1.24934
3434.77325	1.25006
3432.84468	1.25115
3430.91612	1.25029
3428.98756	1.24862
3427.05899	1.24782
3425.13043	1.24830
3423.20186	1.24881
3421.27330	1.24796
3419.34473	1.24750
3417.41617	1.24806
3415.48760	1.24892
3413.55904	1.24978
3411.63048	1.24947
3409.70191	1.25021
3407.77335	1.25271
3405.84478	1.25294
3403.91622	1.25145
3401.98765	1.25184
3400.05909	1.25347
3398.13052	1.25401
3396.20196	1.25405
3394.27340	1.25466
3392.34483	1.25448
3390.41627	1.25318
3388.48770	1.25233
3386.55914	1.25207
3384.63057	1.25185
3382.70201	1.25321
3380.77344	1.25648
3378.84488	1.25815
3376.91632	1.25831
3374.98775	1.26114
3373.05919	1.26530
3371.13062	1.26653
3369.20206	1.26640
3367.27349	1.26865
3365.34493	1.27305
3363.41636	1.27698
3361.48780	1.27734
3359.55924	1.27494
3357.63067	1.27557
3355.70211	1.28047
3353.77354	1.28433
3351.84498	1.28414
3349.91641	1.28331
3347.98785	1.28566
3346.05928	1.28989
3344.13072	1.29284
3342.20216	1.29319
3340.27359	1.29295
3338.34503	1.29522
3336.41646	1.29851
3334.48790	1.30133
3332.55933	1.30616
3330.63077	1.31214
3328.70220	1.31647
3326.77364	1.31988
3324.84508	1.32211
3322.91651	1.32337
3320.98795	1.32695
3319.05938	1.33236
3317.13082	1.33596
3315.20225	1.33721
3313.27369	1.33885
3311.34513	1.34281
3309.41656	1.34712
3307.48800	1.35051
3305.55943	1.35469
3303.63087	1.35941
3301.70230	1.36219
3299.77374	1.36221
3297.84517	1.36066
3295.91661	1.35813
3293.98805	1.35660
3292.05948	1.35940
3290.13092	1.36430
3288.20235	1.36594
3286.27379	1.36545
3284.34522	1.36664
3282.41666	1.36662
3280.48809	1.36301
3278.55953	1.36126
3276.63097	1.36340
3274.70240	1.36492
3272.77384	1.36291
3270.84527	1.35831
3268.91671	1.35337
3266.98814	1.34779
3265.05958	1.34209
3263.13101	1.33909
3261.20245	1.33528
3259.27389	1.32520
3257.34532	1.31283
3255.41676	1.30516
3253.48819	1.30071
3251.55963	1.29466
3249.63106	1.28893
3247.70250	1.28632
3245.77393	1.28363
3243.84537	1.27767
3241.91681	1.26994
3239.98824	1.26280
3238.05968	1.25727
3236.13111	1.25300
3234.20255	1.24753
3232.27398	1.24068
3230.34542	1.23509
3228.41685	1.22995
3226.48829	1.22349
3224.55973	1.21701
3222.63116	1.21195
3220.70260	1.20822
3218.77403	1.20489
3216.84547	1.20214
3214.91690	1.20003
3212.98834	1.19694
3211.05977	1.19237
3209.13121	1.18704
3207.20265	1.18100
3205.27408	1.17498
3203.34552	1.17014
3201.41695	1.16604
3199.48839	1.16144
3197.55982	1.15591
3195.63126	1.15095
3193.70269	1.14725
3191.77413	1.14322
3189.84557	1.13928
3187.91700	1.13606
3185.98844	1.13266
3184.05987	1.12884
3182.13131	1.12417
3180.20274	1.11928
3178.27418	1.11491
3176.34562	1.11068
3174.41705	1.10642
3172.48849	1.10173
3170.55992	1.09701
3168.63136	1.09403
3166.70279	1.09253
3164.77423	1.09021
3162.84566	1.08714
3160.91710	1.08429
3158.98854	1.08072
3157.05997	1.07661
3155.13141	1.07358
3153.20284	1.07179
3151.27428	1.06968
3149.34571	1.06637
3147.41715	1.06323
3145.48858	1.06198
3143.56002	1.06165
3141.63146	1.06060
3139.70289	1.05990
3137.77433	1.06026
3135.84576	1.06007
3133.91720	1.05818
3131.98863	1.05543
3130.06007	1.05377
3128.13150	1.05362
3126.20294	1.05382
3124.27438	1.05368
3122.34581	1.05343
3120.41725	1.05355
3118.48868	1.05432
3116.56012	1.05566
3114.63155	1.05653
3112.70299	1.05543
3110.77442	1.05357
3108.84586	1.05294
3106.91730	1.05284
3104.98873	1.05278
3103.06017	1.05246
3101.13160	1.05135
3099.20304	1.05082
3097.27447	1.05033
3095.34591	1.04818
3093.41734	1.04566
3091.48878	1.04431
3089.56022	1.04363
3087.63165	1.04286
3085.70309	1.04171
3083.77452	1.03928
3081.84596	1.03594
3079.91739	1.03333
3077.98883	1.03061
3076.06026	1.02634
3074.13170	1.02172
3072.20314	1.01858
3070.27457	1.01665
3068.34601	1.01488
3066.41744	1.01341
3064.48888	1.01143
3062.56031	1.00736
3060.63175	1.00202
3058.70318	0.99720
3056.77462	0.99342
3054.84606	0.99053
3052.91749	0.98794
3050.98893	0.98496
3049.06036	0.98118
3047.13180	0.97671
3045.20323	0.97265
3043.27467	0.96949
3041.34610	0.96675
3039.41754	0.96380
3037.48898	0.96062
3035.56041	0.95814
3033.63185	0.95641
3031.70328	0.95436
3029.77472	0.95165
3027.84615	0.94879
3025.91759	0.94589
3023.98903	0.94283
3022.06046	0.94005
3020.13190	0.93772
3018.20333	0.93545
3016.27477	0.93308
3014.34620	0.93095
3012.41764	0.92924
3010.48907	0.92744
3008.56051	0.92585
3006.63195	0.92532
3004.70338	0.92569
3002.77482	0.92620
3000.84625	0.92670
2998.91769	0.92765
2996.98912	0.92887
2995.06056	0.92974
2993.13199	0.93109
2991.20343	0.93443
2989.27487	0.93901
2987.34630	0.94308
2985.41774	0.94713
2983.48917	0.95206
2981.56061	0.95728
2979.63204	0.96239
2977.70348	0.96844
2975.77491	0.97629
2973.84635	0.98431
2971.91779	0.99071
2969.98922	0.99620
2968.06066	1.00190
2966.13209	1.00713
2964.20353	1.01044
2962.27496	1.01170
2960.34640	1.01209
2958.41783	1.01153
2956.48927	1.00900
2954.56071	1.00445
2952.63214	0.99891
2950.70358	0.99470
2948.77501	0.99298
2946.84645	0.99267
2944.91788	0.99397
2942.98932	0.99853
2941.06075	1.00676
2939.13219	1.01727
2937.20363	1.02798
2935.27506	1.03779
2933.34650	1.04684
2931.41793	1.05587
2929.48937	1.06576
2927.56080	1.07562
2925.63224	1.08329
2923.70367	1.08951
2921.77511	1.09563
2919.84655	1.09946
2917.91798	1.09662
2915.98942	1.08289
2914.06085	1.05938
2912.13229	1.03428
2910.20372	1.01490
2908.27516	1.00130
2906.34659	0.99033
2904.41803	0.98118
2902.48947	0.97427
2900.56090	0.96981
2898.63234	0.96682
2896.70377	0.96347
2894.77521	0.95974
2892.84664	0.95613
2890.91808	0.95224
2888.98952	0.94792
2887.06095	0.94353
2885.13239	0.94000
2883.20382	0.93789
2881.27526	0.93696
2879.34669	0.93705
2877.41813	0.93754
2875.48956	0.93705
2873.56100	0.93492
2871.63244	0.93083
2869.70387	0.92445
2867.77531	0.91696
2865.84674	0.91055
2863.91818	0.90700
2861.98961	0.90715
2860.06105	0.91066
2858.13248	0.91682
2856.20392	0.92515
2854.27536	0.93522
2852.34679	0.94555
2850.41823	0.95039
2848.48966	0.94118
2846.56110	0.91787
2844.63253	0.89119
2842.70397	0.86975
2840.77540	0.85442
2838.84684	0.84322
2836.91828	0.83482
2834.98971	0.82848
2833.06115	0.82356
2831.13258	0.81937
2829.20402	0.81557
2827.27545	0.81189
2825.34689	0.80814
2823.41832	0.80460
2821.48976	0.80134
2819.56120	0.79816
2817.63263	0.79514
2815.70407	0.79237
2813.77550	0.78990
2811.84694	0.78771
2809.91837	0.78571
2807.98981	0.78376
2806.06124	0.78165
2804.13268	0.77919
2802.20412	0.77655
2800.27555	0.77428
2798.34699	0.77218
2796.41842	0.76980
2794.48986	0.76783
2792.56129	0.76649
2790.63273	0.76481
2788.70416	0.76237
2786.77560	0.75974
2784.84704	0.75735
2782.91847	0.75523
2780.98991	0.75368
2779.06134	0.75273
2777.13278	0.75174
2775.20421	0.75019
2773.27565	0.74827
2771.34708	0.74653
2769.41852	0.74502
2767.48996	0.74353
2765.56139	0.74221
2763.63283	0.74107
2761.70426	0.73984
2759.77570	0.73833
2757.84713	0.73691
2755.91857	0.73596
2753.99001	0.73493
2752.06144	0.73348
2750.13288	0.73220
2748.20431	0.73125
2746.27575	0.73035
2744.34718	0.72966
2742.41862	0.72907
2740.49005	0.72813
2738.56149	0.72685
2736.63293	0.72560
2734.70436	0.72438
2732.77580	0.72287
2730.84723	0.72109
2728.91867	0.71928
2726.99010	0.71753
2725.06154	0.71589
2723.13297	0.71446
2721.20441	0.71337
2719.27585	0.71226
2717.34728	0.71075
2715.41872	0.70933
2713.49015	0.70832
2711.56159	0.70727
2709.63302	0.70582
2707.70446	0.70412
2705.77589	0.70270
2703.84733	0.70192
2701.91877	0.70153
2699.99020	0.70081
2698.06164	0.69955
2696.13307	0.69851
2694.20451	0.69776
2692.27594	0.69654
2690.34738	0.69514
2688.41881	0.69427
2686.49025	0.69365
2684.56169	0.69313
2682.63312	0.69281
2680.70456	0.69224
2678.77599	0.69103
2676.84743	0.68940
2674.91886	0.68777
2672.99030	0.68668
2671.06173	0.68615
2669.13317	0.68567
2667.20461	0.68484
2665.27604	0.68351
2663.34748	0.68187
2661.41891	0.68044
2659.49035	0.67932
2657.56178	0.67821
2655.63322	0.67724
2653.70465	0.67648
2651.77609	0.67584
2649.84753	0.67533
2647.91896	0.67461
2645.99040	0.67375
2644.06183	0.67329
2642.13327	0.67295
2640.20470	0.67222
2638.27614	0.67158
2636.34757	0.67157
2634.41901	0.67184
2632.49045	0.67180
2630.56188	0.67129
2628.63332	0.67053
2626.70475	0.66970
2624.77619	0.66915
2622.84762	0.66904
2620.91906	0.66897
2618.99049	0.66868
2617.06193	0.66829
2615.13337	0.66766
2613.20480	0.66658
2611.27624	0.66539
2609.34767	0.66445
2607.41911	0.66358
2605.49054	0.66255
2603.56198	0.66127
2601.63342	0.65979
2599.70485	0.65832
2597.77629	0.65703
2595.84772	0.65592
2593.91916	0.65512
2591.99059	0.65461
2590.06203	0.65401
2588.13346	0.65315
2586.20490	0.65223
2584.27634	0.65133
2582.34777	0.65043
2580.41921	0.64954
2578.49064	0.64882
2576.56208	0.64843
2574.63351	0.64835
2572.70495	0.64816
2570.77638	0.64766
2568.84782	0.64705
2566.91926	0.64634
2564.99069	0.64562
2563.06213	0.64505
2561.13356	0.64464
2559.20500	0.64432
2557.27643	0.64373
2555.34787	0.64272
2553.41930	0.64170
2551.49074	0.64101
2549.56218	0.64047
2547.63361	0.63976
2545.70505	0.63877
2543.77648	0.63774
2541.84792	0.63687
2539.91935	0.63607
2537.99079	0.63536
2536.06222	0.63454
2534.13366	0.63356
2532.20510	0.63284
2530.27653	0.63225
2528.34797	0.63167
2526.41940	0.63135
2524.49084	0.63111
2522.56227	0.63081
2520.63371	0.63054
2518.70514	0.63032
2516.77658	0.63009
2514.84802	0.62972
2512.91945	0.62922
2510.99089	0.62877
2509.06232	0.62835
2507.13376	0.62794
2505.20519	0.62757
2503.27663	0.62716
2501.34806	0.62673
2499.41950	0.62630
2497.49094	0.62583
2495.56237	0.62530
2493.63381	0.62457
2491.70524	0.62358
2489.77668	0.62248
2487.84811	0.62156
2485.91955	0.62085
2483.99098	0.62020
2482.06242	0.61953
2480.13386	0.61886
2478.20529	0.61809
2476.27673	0.61723
2474.34816	0.61627
2472.41960	0.61525
2470.49103	0.61455
2468.56247	0.61427
2466.63391	0.61384
2464.70534	0.61305
2462.77678	0.61240
2460.84821	0.61202
2458.91965	0.61155
2456.99108	0.61084
2455.06252	0.61001
2453.13395	0.60943
2451.20539	0.60928
2449.27683	0.60925
2447.34826	0.60884
2445.41970	0.60783
2443.49113	0.60671
2441.56257	0.60595
2439.63400	0.60544
2437.70544	0.60504
2435.77687	0.60468
2433.84831	0.60423
2431.91975	0.60363
2429.99118	0.60307
2428.06262	0.60268
2426.13405	0.60223
2424.20549	0.60188
2422.27692	0.60175
2420.34836	0.60154
2418.41979	0.60123
2416.49123	0.60102
2414.56267	0.60066
2412.63410	0.59987
2410.70554	0.59889
2408.77697	0.59811
2406.84841	0.59757
2404.91984	0.59723
2402.99128	0.59693
2401.06271	0.59646
2399.13415	0.59584
2397.20559	0.59522
2395.27702	0.59460
2393.34846	0.59409
2391.41989	0.59391
2389.49133	0.59398
2387.56276	0.59417
2385.63420	0.59483
2383.70563	0.59614
2381.77707	0.59774
2379.84851	0.59945
2377.91994	0.60143
2375.99138	0.60384
2374.06281	0.60650
2372.13425	0.60923
2370.20568	0.61213
2368.27712	0.61405
2366.34855	0.61347
2364.41999	0.61264
2362.49143	0.61380
2360.56286	0.61495
2358.63430	0.61454
2356.70573	0.61318
2354.77717	0.61081
2352.84860	0.60637
2350.92004	0.60233
2348.99147	0.60139
2347.06291	0.60283
2345.13435	0.60486
2343.20578	0.60631
2341.27722	0.60678
2339.34865	0.60645
2337.42009	0.60569
2335.49152	0.60455
2333.56296	0.60332
2331.63440	0.60208
2329.70583	0.60084
2327.77727	0.59979
2325.84870	0.59861
2323.92014	0.59666
2321.99157	0.59413
2320.06301	0.59190
2318.13444	0.59028
2316.20588	0.58929
2314.27732	0.58877
2312.34875	0.58806
2310.42019	0.58671
2308.49162	0.58489
2306.56306	0.58295
2304.63449	0.58127
2302.70593	0.58029
2300.77736	0.57982
2298.84880	0.57916
2296.92024	0.57815
2294.99167	0.57694
2293.06311	0.57581
2291.13454	0.57497
2289.20598	0.57414
2287.27741	0.57311
2285.34885	0.57223
2283.42028	0.57180
2281.49172	0.57172
2279.56316	0.57173
2277.63459	0.57157
2275.70603	0.57119
2273.77746	0.57088
2271.84890	0.57078
2269.92033	0.57069
2267.99177	0.57063
2266.06320	0.57078
2264.13464	0.57093
2262.20608	0.57073
2260.27751	0.57039
2258.34895	0.57033
2256.42038	0.57041
2254.49182	0.57038
2252.56325	0.57028
2250.63469	0.57007
2248.70612	0.56969
2246.77756	0.56938
2244.84900	0.56916
2242.92043	0.56891
2240.99187	0.56882
2239.06330	0.56881
2237.13474	0.56866
2235.20617	0.56863
2233.27761	0.56875
2231.34904	0.56865
2229.42048	0.56836
2227.49192	0.56821
2225.56335	0.56831
2223.63479	0.56841
2221.70622	0.56819
2219.77766	0.56754
2217.84909	0.56657
2215.92053	0.56562
2213.99196	0.56488
2212.06340	0.56418
2210.13484	0.56338
2208.20627	0.56251
2206.27771	0.56184
2204.34914	0.56142
2202.42058	0.56090
2200.49201	0.56013
2198.56345	0.55944
2196.63488	0.55909
2194.70632	0.55901
2192.77776	0.55892
2190.84919	0.55884
2188.92063	0.55886
2186.99206	0.55890
2185.06350	0.55880
2183.13493	0.55862
2181.20637	0.55873
2179.27781	0.55908
2177.34924	0.55919
2175.42068	0.55900
2173.49211	0.55867
2171.56355	0.55799
2169.63498	0.55689
2167.70642	0.55574
2165.77785	0.55496
2163.84929	0.55425
2161.92073	0.55312
2159.99216	0.55170
2158.06360	0.55035
2156.13503	0.54930
2154.20647	0.54847
2152.27790	0.54761
2150.34934	0.54666
2148.42077	0.54583
2146.49221	0.54536
2144.56365	0.54528
2142.63508	0.54541
2140.70652	0.54548
2138.77795	0.54554
2136.84939	0.54575
2134.92082	0.54609
2132.99226	0.54647
2131.06369	0.54674
2129.13513	0.54669
2127.20657	0.54637
2125.27800	0.54612
2123.34944	0.54591
2121.42087	0.54551
2119.49231	0.54500
2117.56374	0.54457
2115.63518	0.54420
2113.70661	0.54395
2111.77805	0.54390
2109.84949	0.54382
2107.92092	0.54351
2105.99236	0.54325
2104.06379	0.54328
2102.13523	0.54329
2100.20666	0.54311
2098.27810	0.54306
2096.34953	0.54335
2094.42097	0.54384
2092.49241	0.54432
2090.56384	0.54462
2088.63528	0.54467
2086.70671	0.54460
2084.77815	0.54456
2082.84958	0.54459
2080.92102	0.54460
2078.99245	0.54440
2077.06389	0.54404
2075.13533	0.54375
2073.20676	0.54356
2071.27820	0.54341
2069.34963	0.54331
2067.42107	0.54315
2065.49250	0.54290
2063.56394	0.54267
2061.63537	0.54254
2059.70681	0.54257
2057.77825	0.54275
2055.84968	0.54293
2053.92112	0.54308
2051.99255	0.54324
2050.06399	0.54314
2048.13542	0.54267
2046.20686	0.54204
2044.27830	0.54133
2042.34973	0.54037
2040.42117	0.53900
2038.49260	0.53724
2036.56404	0.53537
2034.63547	0.53360
2032.70691	0.53188
2030.77834	0.53022
2028.84978	0.52878
2026.92122	0.52755
2024.99265	0.52633
2023.06409	0.52511
2021.13552	0.52418
2019.20696	0.52368
2017.27839	0.52330
2015.34983	0.52271
2013.42126	0.52210
2011.49270	0.52166
2009.56414	0.52138
2007.63557	0.52117
2005.70701	0.52095
2003.77844	0.52053
2001.84988	0.51978
1999.92131	0.51895
1997.99275	0.51820
1996.06418	0.51765
1994.13562	0.51710
1992.20706	0.51581
1990.27849	0.51375
1988.34993	0.51166
1986.42136	0.50963
1984.49280	0.50767
1982.56423	0.50600
1980.63567	0.50462
1978.70710	0.50326
1976.77854	0.50174
1974.84998	0.50032
1972.92141	0.49932
1970.99285	0.49883
1969.06428	0.49860
1967.13572	0.49821
1965.20715	0.49770
1963.27859	0.49748
1961.35002	0.49737
1959.42146	0.49713
1957.49290	0.49709
1955.56433	0.49724
1953.63577	0.49718
1951.70720	0.49706
1949.77864	0.49725
1947.85007	0.49766
1945.92151	0.49799
1943.99294	0.49804
1942.06438	0.49740
1940.13582	0.49621
1938.20725	0.49525
1936.27869	0.49460
1934.35012	0.49398
1932.42156	0.49336
1930.49299	0.49280
1928.56443	0.49237
1926.63586	0.49229
1924.70730	0.49262
1922.77874	0.49279
1920.85017	0.49251
1918.92161	0.49201
1916.99304	0.49136
1915.06448	0.49107
1913.13591	0.49137
1911.20735	0.49185
1909.27878	0.49203
1907.35022	0.49185
1905.42166	0.49158
1903.49309	0.49142
1901.56453	0.49135
1899.63596	0.49129
1897.70740	0.49115
1895.77883	0.49094
1893.85027	0.49096
1891.92171	0.49135
1889.99314	0.49135
1888.06458	0.49061
1886.13601	0.48996
1884.20745	0.48941
1882.27888	0.48872
1880.35032	0.48800
1878.42175	0.48714
1876.49319	0.48614
1874.56463	0.48515
1872.63606	0.48451
1870.70750	0.48432
1868.77893	0.48337
1866.85037	0.48085
1864.92180	0.47852
1862.99324	0.47714
1861.06467	0.47611
1859.13611	0.47490
1857.20755	0.47346
1855.27898	0.47215
1853.35042	0.47114
1851.42185	0.47036
1849.49329	0.46996
1847.56472	0.47005
1845.63616	0.47009
1843.70759	0.46889
1841.77903	0.46737
1839.85047	0.46681
1837.92190	0.46677
1835.99334	0.46657
1834.06477	0.46646
1832.13621	0.46698
1830.20764	0.46725
1828.27908	0.46646
1826.35051	0.46545
1824.42195	0.46429
1822.49339	0.46304
1820.56482	0.46202
1818.63626	0.46106
1816.70769	0.46006
1814.77913	0.45954
1812.85056	0.45961
1810.92200	0.45929
1808.99343	0.45822
1807.06487	0.45727
1805.13631	0.45701
1803.20774	0.45736
1801.27918	0.45773
1799.35061	0.45772
1797.42205	0.45796
1795.49348	0.45886
1793.56492	0.45988
1791.63635	0.45980
1789.70779	0.45890
1787.77923	0.45881
1785.85066	0.45937
1783.92210	0.45980
1781.99353	0.46000
1780.06497	0.45999
1778.13640	0.46012
1776.20784	0.46086
1774.27927	0.46218
1772.35071	0.46316
1770.42215	0.46317
1768.49358	0.46320
1766.56502	0.46375
1764.63645	0.46514
1762.70789	0.46732
1760.77932	0.46973
1758.85076	0.47228
1756.92220	0.47539
1754.99363	0.47883
1753.06507	0.48304
1751.13650	0.48940
1749.20794	0.49710
1747.27937	0.50340
1745.35081	0.50855
1743.42224	0.51357
1741.49368	0.51861
1739.56512	0.52320
1737.63655	0.52673
1735.70799	0.52989
1733.77942	0.53322
1731.85086	0.53478
1729.92229	0.53586
1727.99373	0.53796
1726.06516	0.54122
1724.13660	0.54587
1722.20804	0.55117
1720.27947	0.55716
1718.35091	0.56650
1716.42234	0.57947
1714.49378	0.58891
1712.56521	0.59697
1710.63665	0.60751
1708.70808	0.62115
1706.77952	0.64040
1704.85096	0.66470
1702.92239	0.68705
1700.99383	0.71760
1699.06526	0.76425
1697.13670	0.80642
1695.20813	0.84519
1693.27957	0.87465
1691.35100	0.89981
1689.42244	0.93080
1687.49388	0.95996
1685.56531	0.98916
1683.63675	1.03482
1681.70818	1.07103
1679.77962	1.09346
1677.85105	1.11449
1675.92249	1.13958
1673.99392	1.16693
1672.06536	1.18908
1670.13680	1.21255
1668.20823	1.23712
1666.27967	1.25264
1664.35110	1.26729
1662.42254	1.28596
1660.49397	1.30024
1658.56541	1.30801
1656.63684	1.31257
1654.70828	1.31566
1652.77972	1.32003
1650.85115	1.32582
1648.92259	1.33033
1646.99402	1.33134
1645.06546	1.32770
1643.13689	1.32473
1641.20833	1.32406
1639.27976	1.32452
1637.35120	1.32489
1635.42264	1.31987
1633.49407	1.31227
1631.56551	1.30845
1629.63694	1.30454
1627.70838	1.29824
1625.77981	1.28921
1623.85125	1.27437
1621.92269	1.25571
1619.99412	1.24097
1618.06556	1.22163
1616.13699	1.18701
1614.20843	1.15676
1612.27986	1.13479
1610.35130	1.11213
1608.42273	1.08785
1606.49417	1.06687
1604.56561	1.05165
1602.63704	1.03994
1600.70848	1.03081
1598.77991	1.02458
1596.85135	1.02038
1594.92278	1.01718
1592.99422	1.01549
1591.06565	1.01632
1589.13709	1.01972
1587.20853	1.02532
1585.27996	1.03297
1583.35140	1.04296
1581.42283	1.05467
1579.49427	1.06663
1577.56570	1.08145
1575.63714	1.10219
1573.70857	1.11727
1571.78001	1.12769
1569.85145	1.14292
1567.92288	1.15977
1565.99432	1.17230
1564.06575	1.18430
1562.13719	1.19497
1560.20862	1.20679
1558.28006	1.22671
1556.35149	1.23669
1554.42293	1.24141
1552.49437	1.24638
1550.56580	1.25094
1548.63724	1.25343
1546.70867	1.25381
1544.78011	1.25261
1542.85154	1.24961
1540.92298	1.24394
1538.99441	1.23741
1537.06585	1.23526
1535.13729	1.23280
1533.20872	1.22679
1531.28016	1.22053
1529.35159	1.21730
1527.42303	1.21514
1525.49446	1.21254
1523.56590	1.21049
1521.63733	1.20903
1519.70877	1.20837
1517.78021	1.20546
1515.85164	1.19691
1513.92308	1.18520
1511.99451	1.17304
1510.06595	1.16151
1508.13738	1.14045
1506.20882	1.09684
1504.28025	1.07259
1502.35169	1.05894
1500.42313	1.04336
1498.49456	1.02175
1496.56600	0.99342
1494.63743	0.97069
1492.70887	0.95641
1490.78030	0.94089
1488.85174	0.91829
1486.92317	0.89925
1484.99461	0.88790
1483.06605	0.88065
1481.13748	0.87569
1479.20892	0.87382
1477.28035	0.87649
1475.35179	0.88414
1473.42322	0.89650
1471.49466	0.90880
1469.56610	0.91696
1467.63753	0.92421
1465.70897	0.93325
1463.78040	0.94240
1461.85184	0.94820
1459.92327	0.95309
1457.99471	0.96192
1456.06614	0.97074
1454.13758	0.97262
1452.20902	0.97307
1450.28045	0.97353
1448.35189	0.97295
1446.42332	0.97032
1444.49476	0.96639
1442.56619	0.96183
1440.63763	0.95741
1438.70906	0.95257
1436.78050	0.94366
1434.85194	0.93246
1432.92337	0.92388
1430.99481	0.91512
1429.06624	0.90515
1427.13768	0.89761
1425.20911	0.89303
1423.28055	0.89025
1421.35198	0.88931
1419.42342	0.88965
1417.49486	0.88936
1415.56629	0.88810
1413.63773	0.88655
1411.70916	0.88453
1409.78060	0.88253
1407.85203	0.88173
1405.92347	0.88252
1403.99490	0.88423
1402.06634	0.88619
1400.13778	0.88840
1398.20921	0.89062
1396.28065	0.89291
1394.35208	0.89547
1392.42352	0.89853
1390.49495	0.90347
1388.56639	0.91265
1386.63782	0.92672
1384.70926	0.94132
1382.78070	0.95426
1380.85213	0.96481
1378.92357	0.97086
1376.99500	0.97138
1375.06644	0.96460
1373.13787	0.95065
1371.20931	0.93496
1369.28074	0.91764
1367.35218	0.89871
1365.42362	0.88178
1363.49505	0.86554
1361.56649	0.84960
1359.63792	0.83819
1357.70936	0.83085
1355.78079	0.82555
1353.85223	0.82192
1351.92366	0.81964
1349.99510	0.81796
1348.06654	0.81680
1346.13797	0.81647
1344.20941	0.81723
1342.28084	0.81912
1340.35228	0.82211
1338.42371	0.82560
1336.49515	0.82944
1334.56659	0.83491
1332.63802	0.84254
1330.70946	0.85116
1328.78089	0.85862
1326.85233	0.86376
1324.92376	0.86699
1322.99520	0.86932
1321.06663	0.87149
1319.13807	0.87372
1317.20951	0.87577
1315.28094	0.87747
1313.35238	0.87895
1311.42381	0.87979
1309.49525	0.87949
1307.56668	0.87815
1305.63812	0.87626
1303.70955	0.87439
1301.78099	0.87246
1299.85243	0.86985
1297.92386	0.86607
1295.99530	0.86175
1294.06673	0.85851
1292.13817	0.85734
1290.20960	0.85784
1288.28104	0.85898
1286.35247	0.86011
1284.42391	0.86108
1282.49535	0.86212
1280.56678	0.86329
1278.63822	0.86457
1276.70965	0.86660
1274.78109	0.87001
1272.85252	0.87481
1270.92396	0.88088
1268.99539	0.88776
1267.06683	0.89436
1265.13827	0.89966
1263.20970	0.90341
1261.28114	0.90563
1259.35257	0.90635
1257.42401	0.90625
1255.49544	0.90638
1253.56688	0.90698
1251.63831	0.90754
1249.70975	0.90783
1247.78119	0.90795
1245.85262	0.90812
1243.92406	0.90837
1241.99549	0.90830
1240.06693	0.90737
1238.13836	0.90559
1236.20980	0.90326
1234.28123	0.90001
1232.35267	0.89546
1230.42411	0.88996
1228.49554	0.88369
1226.56698	0.87634
1224.63841	0.86798
1222.70985	0.85920
1220.78128	0.85045
1218.85272	0.84247
1216.92415	0.83618
1214.99559	0.83209
1213.06703	0.83054
1211.13846	0.83131
1209.20990	0.83321
1207.28133	0.83437
1205.35277	0.83285
1203.42420	0.82764
1201.49564	0.81975
1199.56708	0.81128
1197.63851	0.80302
1195.70995	0.79491
1193.78138	0.78767
1191.85282	0.78217
1189.92425	0.77864
1187.99569	0.77728
1186.06712	0.77806
1184.13856	0.78023
1182.21000	0.78337
1180.28143	0.78761
1178.35287	0.79320
1176.42430	0.80034
1174.49574	0.80882
1172.56717	0.81833
1170.63861	0.82899
1168.71004	0.84141
1166.78148	0.85616
1164.85292	0.87211
1162.92435	0.88666
1160.99579	0.89787
1159.06722	0.90415
1157.13866	0.90407
1155.21009	0.89757
1153.28153	0.88568
1151.35296	0.86995
1149.42440	0.85263
1147.49584	0.83618
1145.56727	0.82227
1143.63871	0.81200
1141.71014	0.80620
1139.78158	0.80453
1137.85301	0.80589
1135.92445	0.80970
1133.99588	0.81614
1132.06732	0.82565
1130.13876	0.83834
1128.21019	0.85362
1126.28163	0.86998
1124.35306	0.88556
1122.42450	0.89886
1120.49593	0.90922
1118.56737	0.91649
1116.63880	0.92015
1114.71024	0.91959
1112.78168	0.91524
1110.85311	0.90859
1108.92455	0.90118
1106.99598	0.89412
1105.06742	0.88780
1103.13885	0.88217
1101.21029	0.87820
1099.28172	0.87725
1097.35316	0.87977
1095.42460	0.88547
1093.49603	0.89364
1091.56747	0.90388
1089.63890	0.91630
1087.71034	0.93058
1085.78177	0.94598
1083.85321	0.96228
1081.92464	0.97877
1079.99608	0.99307
1078.06752	1.00292
1076.13895	1.00772
1074.21039	1.00757
1072.28182	1.00266
1070.35326	0.99383
1068.42469	0.98253
1066.49613	0.96990
1064.56756	0.95619
1062.63900	0.94212
1060.71044	0.92929
1058.78187	0.91804
1056.85331	0.90770
1054.92474	0.89865
1052.99618	0.89143
1051.06761	0.88637
1049.13905	0.88456
1047.21049	0.88678
1045.28192	0.89223
1043.35336	0.90004
1041.42479	0.90976
1039.49623	0.91968
1037.56766	0.92740
1035.63910	0.93203
1033.71053	0.93458
1031.78197	0.93572
1029.85341	0.93436
1027.92484	0.92963
1025.99628	0.92199
1024.06771	0.91290
1022.13915	0.90374
1020.21058	0.89557
1018.28202	0.88898
1016.35345	0.88273
1014.42489	0.87454
1012.49633	0.86306
1010.56776	0.84832
1008.63920	0.83147
1006.71063	0.81439
1004.78207	0.79864
1002.85350	0.78490
1000.92494	0.77339
998.99637	0.76431
997.06781	0.75787
995.13925	0.75337
993.21068	0.74898
991.28212	0.74354
989.35355	0.73750
987.42499	0.73164
985.49642	0.72647
983.56786	0.72232
981.63929	0.71923
979.71073	0.71716
977.78217	0.71567
975.85360	0.71376
973.92504	0.71098
971.99647	0.70714
970.06791	0.70205
968.13934	0.69642
966.21078	0.69164
964.28221	0.68899
962.35365	0.69017
960.42509	0.69655
958.49652	0.70712
956.56796	0.71796
954.63939	0.72474
952.71083	0.72551
950.78226	0.72103
948.85370	0.71360
946.92513	0.70568
944.99657	0.69848
943.06801	0.69196
941.13944	0.68574
939.21088	0.67971
937.28231	0.67374
935.35375	0.66769
933.42518	0.66203
931.49662	0.65712
929.56805	0.65320
927.63949	0.65065
925.71093	0.64924
923.78236	0.64854
921.85380	0.64870
919.92523	0.64965
917.99667	0.65105
916.06810	0.65290
914.13954	0.65535
912.21098	0.65830
910.28241	0.66158
908.35385	0.66521
906.42528	0.66909
904.49672	0.67267
902.56815	0.67531
900.63959	0.67625
898.71102	0.67489
896.78246	0.67169
894.85390	0.66762
892.92533	0.66283
890.99677	0.65720
889.06820	0.65106
887.13964	0.64494
885.21107	0.63949
883.28251	0.63523
881.35394	0.63199
879.42538	0.62962
877.49682	0.62823
875.56825	0.62786
873.63969	0.62866
871.71112	0.63049
869.78256	0.63267
867.85399	0.63509
865.92543	0.63830
863.99686	0.64222
862.06830	0.64627
860.13974	0.65014
858.21117	0.65399
856.28261	0.65780
854.35404	0.66097
852.42548	0.66301
850.49691	0.66421
848.56835	0.66507
846.63978	0.66588
844.71122	0.66692
842.78266	0.66855
840.85409	0.67094
838.92553	0.67388
836.99696	0.67726
835.06840	0.68145
833.13983	0.68668
831.21127	0.69244
829.28270	0.69790
827.35414	0.70287
825.42558	0.70785
823.49701	0.71280
821.56845	0.71682
819.63988	0.71961
817.71132	0.72177
815.78275	0.72339
813.85419	0.72392
811.92562	0.72332
809.99706	0.72195
808.06850	0.71974
806.13993	0.71697
804.21137	0.71435
802.28280	0.71190
800.35424	0.70925
798.42567	0.70681
796.49711	0.70530
794.56854	0.70470
792.63998	0.70482
790.71142	0.70597
788.78285	0.70841
786.85429	0.71155
784.92572	0.71459
782.99716	0.71740
781.06859	0.72013
779.14003	0.72271
777.21147	0.72505
775.28290	0.72708
773.35434	0.72870
771.42577	0.72965
769.49721	0.72958
767.56864	0.72841
765.64008	0.72662
763.71151	0.72473
761.78295	0.72229
759.85439	0.71903
757.92582	0.71608
755.99726	0.71401
754.06869	0.71219
752.14013	0.71043
750.21156	0.70912
748.28300	0.70813
746.35443	0.70734
744.42587	0.70680
742.49731	0.70615
740.56874	0.70584
738.64018	0.70654
736.71161	0.70803
734.78305	0.71011
732.85448	0.71249
730.92592	0.71458
728.99735	0.71626
727.06879	0.71780
725.14023	0.71955
723.21166	0.72205
721.28310	0.72479
719.35453	0.72571
717.42597	0.72448
715.49740	0.72316
713.56884	0.72279
711.64027	0.72300
709.71171	0.72337
707.78315	0.72393
705.85458	0.72503
703.92602	0.72655
701.99745	0.72764
700.06889	0.72790
698.14032	0.72818
696.21176	0.72923
694.28319	0.73037
692.35463	0.73084
690.42607	0.73111
688.49750	0.73173
686.56894	0.73239
684.64037	0.73277
682.71181	0.73297
680.78324	0.73271
678.85468	0.73161
676.92611	0.73019
674.99755	0.72920
673.06899	0.72921
671.14042	0.73044
669.21186	0.73151
667.28329	0.73018
665.35473	0.72938
663.42616	0.73005
661.49760	0.73099
659.56903	0.73167
657.64047	0.73199
655.71191	0.73203
653.78334	0.73139
651.85478	0.73000
649.92621	0.72901
647.99765	0.72899
646.06908	0.72961
644.14052	0.73065
642.21195	0.73279
640.28339	0.73615
638.35483	0.73870
636.42626	0.73965
634.49770	0.74005
632.56913	0.73969
630.64057	0.73843
628.71200	0.73700
626.78344	0.73571
624.85488	0.73451
622.92631	0.73303
620.99775	0.73169
619.06918	0.73160
617.14062	0.73200
615.21205	0.73116
613.28349	0.72896
611.35492	0.72660
609.42636	0.72496
607.49780	0.72346
605.56923	0.72159
603.64067	0.72053
601.71210	0.72109
599.78354	0.72185
