3997.91406	0.86414
3995.98550	0.86280
3994.05693	0.86074
3992.12837	0.85910
3990.19980	0.85811
3988.27124	0.85867
3986.34268	0.86080
3984.41411	0.86262
3982.48555	0.86411
3980.55698	0.86569
3978.62842	0.86640
3976.69985	0.86621
3974.77129	0.86535
3972.84272	0.86486
3970.91416	0.86629
3968.98560	0.86791
3967.05703	0.86644
3965.12847	0.86318
3963.19990	0.86014
3961.27134	0.85704
3959.34277	0.85658
3957.41421	0.85936
3955.48564	0.86138
3953.55708	0.86161
3951.62852	0.86016
3949.69995	0.85726
3947.77139	0.85681
3945.84282	0.85874
3943.91426	0.85749
3941.98569	0.85298
3940.05713	0.85097
3938.12856	0.85259
3936.20000	0.85546
3934.27144	0.85672
3932.34287	0.85522
3930.41431	0.85366
3928.48574	0.85516
3926.55718	0.85880
3924.62861	0.86064
3922.70005	0.85950
3920.77148	0.85802
3918.84292	0.85614
3916.91436	0.85390
3914.98579	0.85337
3913.05723	0.85399
3911.12866	0.85410
3909.20010	0.85343
3907.27153	0.85184
3905.34297	0.85100
3903.41440	0.85364
3901.48584	0.85410
3899.55728	0.85062
3897.62871	0.85065
3895.70015	0.85508
3893.77158	0.85966
3891.84302	0.85874
3889.91445	0.85370
3887.98589	0.85099
3886.05733	0.84983
3884.12876	0.84893
3882.20020	0.84857
3880.27163	0.84937
3878.34307	0.85257
3876.41450	0.85531
3874.48594	0.85451
3872.55737	0.85235
3870.62881	0.85088
3868.70025	0.84876
3866.77168	0.84726
3864.84312	0.84600
3862.91455	0.84612
3860.98599	0.84831
3859.05742	0.84955
3857.12886	0.84835
3855.20029	0.84318
3853.27173	0.83449
3851.34317	0.83456
3849.41460	0.83982
3847.48604	0.84444
3845.55747	0.84672
3843.62891	0.84579
3841.70034	0.84332
3839.77178	0.84179
3837.84321	0.84058
3835.91465	0.83874
3833.98609	0.83713
3832.05752	0.83642
3830.12896	0.83655
3828.20039	0.83608
3826.27183	0.83421
3824.34326	0.83274
3822.41470	0.83122
3820.48613	0.83061
3818.55757	0.83571
3816.62901	0.83909
3814.70044	0.83490
3812.77188	0.83151
3810.84331	0.83221
3808.91475	0.83355
3806.98618	0.83260
3805.05762	0.83284
3803.12905	0.83441
3801.20049	0.83157
3799.27193	0.82845
3797.34336	0.82788
3795.41480	0.82760
3793.48623	0.82859
3791.55767	0.83094
3789.62910	0.83368
3787.70054	0.83514
3785.77197	0.83276
3783.84341	0.82855
3781.91485	0.82738
3779.98628	0.82806
3778.05772	0.82815
3776.12915	0.82787
3774.20059	0.82746
3772.27202	0.82699
3770.34346	0.82591
3768.41489	0.82492
3766.48633	0.82346
3764.55777	0.82046
3762.62920	0.81824
3760.70064	0.81752
3758.77207	0.81767
3756.84351	0.81780
3754.91494	0.81811
3752.98638	0.81970
3751.05781	0.81868
3749.12925	0.81363
3747.20069	0.81234
3745.27212	0.81349
3743.34356	0.81542
3741.41499	0.81942
3739.48643	0.82398
3737.55786	0.82618
3735.62930	0.82304
3733.70074	0.81862
3731.77217	0.81842
3729.84361	0.82073
3727.91504	0.82469
3725.98648	0.82771
3724.05791	0.82636
3722.12935	0.82268
3720.20078	0.82014
3718.27222	0.81957
3716.34366	0.81953
3714.41509	0.81916
3712.48653	0.81812
3710.55796	0.81578
3708.62940	0.81508
3706.70083	0.81745
3704.77227	0.82058
3702.84370	0.82124
3700.91514	0.82045
3698.98658	0.82159
3697.05801	0.82333
3695.12945	0.82505
3693.20088	0.82795
3691.27232	0.82972
3689.34375	0.82634
3687.41519	0.82528
3685.48662	0.82898
3683.55806	0.83300
3681.62950	0.83585
3679.70093	0.83862
3677.77237	0.84396
3675.84380	0.85130
3673.91524	0.85562
3671.98667	0.85815
3670.05811	0.85940
3668.12954	0.85988
3666.20098	0.86250
3664.27242	0.86738
3662.34385	0.87346
3660.41529	0.87969
3658.48672	0.88615
3656.55816	0.89355
3654.62959	0.90006
3652.70103	0.90434
3650.77246	0.90698
3648.84390	0.90979
3646.91534	0.91561
3644.98677	0.92167
3643.05821	0.92785
3641.12964	0.93492
3639.20108	0.94250
3637.27251	0.94983
3635.34395	0.95546
3633.41538	0.95833
3631.48682	0.96042
3629.55826	0.96780
3627.62969	0.98171
3625.70113	0.99142
3623.77256	0.99815
3621.84400	1.00431
3619.91543	1.00878
3617.98687	1.01091
3616.05830	1.01476
3614.12974	1.02277
3612.20118	1.03231
3610.27261	1.03975
3608.34405	1.04728
3606.41548	1.05788
3604.48692	1.06835
3602.55835	1.07534
3600.62979	1.07939
3598.70123	1.08496
3596.77266	1.09407
3594.84410	1.10399
3592.91553	1.11183
3590.98697	1.11890
3589.05840	1.12808
3587.12984	1.13811
3585.20127	1.14380
3583.27271	1.14648
3581.34415	1.14865
3579.41558	1.15167
3577.48702	1.15716
3575.55845	1.16472
3573.62989	1.17238
3571.70132	1.18097
3569.77276	1.19106
3567.84419	1.20191
3565.91563	1.21198
3563.98707	1.21892
3562.05850	1.22364
3560.12994	1.22823
3558.20137	1.23507
3556.27281	1.24194
3554.34424	1.24678
3552.41568	1.25456
3550.48711	1.26564
3548.55855	1.27437
3546.62999	1.28163
3544.70142	1.28958
3542.77286	1.29492
3540.84429	1.29665
3538.91573	1.29755
3536.98716	1.30256
3535.05860	1.31437
3533.13003	1.32630
3531.20147	1.33208
3529.27291	1.33413
3527.34434	1.33943
3525.41578	1.34886
3523.48721	1.35472
3521.55865	1.35545
3519.63008	1.35935
3517.70152	1.37114
3515.77295	1.38696
3513.84439	1.39725
3511.91583	1.39682
3509.98726	1.39639
3508.05870	1.40482
3506.13013	1.41248
3504.20157	1.41760
3502.27300	1.42844
3500.34444	1.44107
3498.41587	1.45018
3496.48731	1.46002
3494.55875	1.47258
3492.63018	1.48318
3490.70162	1.48943
3488.77305	1.49121
3486.84449	1.48881
3484.91592	1.48637
3482.98736	1.49184
3481.05879	1.50285
3479.13023	1.50005
3477.20167	1.48615
3475.27310	1.48424
3473.34454	1.49723
3471.41597	1.50998
3469.48741	1.51176
3467.55884	1.50400
3465.63028	1.49995
3463.70171	1.50646
3461.77315	1.51709
3459.84459	1.52535
3457.91602	1.52725
3455.98746	1.52348
3454.05889	1.52142
3452.13033	1.52439
3450.20176	1.52948
3448.27320	1.53217
3446.34464	1.52937
3444.41607	1.52643
3442.48751	1.53169
3440.55894	1.54170
3438.63038	1.54728
3436.70181	1.54955
3434.77325	1.55339
3432.84468	1.55962
3430.91612	1.56752
3428.98756	1.57273
3427.05899	1.56894
3425.13043	1.55998
3423.20186	1.55675
3421.27330	1.56023
3419.34473	1.56309
3417.41617	1.56267
3415.48760	1.56143
3413.55904	1.56193
3411.63048	1.56428
3409.70191	1.56634
3407.77335	1.56520
3405.84478	1.56217
3403.91622	1.56269
3401.98765	1.56595
3400.05909	1.56893
3398.13052	1.57487
3396.20196	1.57988
3394.27340	1.57594
3392.34483	1.57027
3390.41627	1.57174
3388.48770	1.57569
3386.55914	1.57506
3384.63057	1.57307
3382.70201	1.57714
3380.77344	1.58312
3378.84488	1.58216
3376.91632	1.57812
3374.98775	1.57930
3373.05919	1.58325
3371.13062	1.58539
3369.20206	1.58526
3367.27349	1.58202
3365.34493	1.57899
3363.41636	1.57801
3361.48780	1.57976
3359.55924	1.58703
3357.63067	1.59306
3355.70211	1.59139
3353.77354	1.58422
3351.84498	1.57751
3349.91641	1.57989
3347.98785	1.59119
3346.05928	1.60182
3344.13072	1.60406
3342.20216	1.59654
3340.27359	1.58807
3338.34503	1.58910
3336.41646	1.59946
3334.48790	1.61119
3332.55933	1.61522
3330.63077	1.61149
3328.70220	1.60861
3326.77364	1.60741
3324.84508	1.60746
3322.91651	1.61377
3320.98795	1.62221
3319.05938	1.62412
3317.13082	1.62023
3315.20225	1.61741
3313.27369	1.61894
3311.34513	1.62357
3309.41656	1.62659
3307.48800	1.62419
3305.55943	1.62078
3303.63087	1.62085
3301.70230	1.62376
3299.77374	1.62697
3297.84517	1.62739
3295.91661	1.62501
3293.98805	1.62273
3292.05948	1.62190
3290.13092	1.62174
3288.20235	1.62218
3286.27379	1.62515
3284.34522	1.63128
3282.41666	1.63325
3280.48809	1.62835
3278.55953	1.62478
3276.63097	1.61958
3274.70240	1.60992
3272.77384	1.60522
3270.84527	1.60770
3268.91671	1.61180
3266.98814	1.61083
3265.05958	1.60387
3263.13101	1.59695
3261.20245	1.59202
3259.27389	1.58807
3257.34532	1.58757
3255.41676	1.59319
3253.48819	1.59933
3251.55963	1.59521
3249.63106	1.58233
3247.70250	1.57367
3245.77393	1.57128
3243.84537	1.56623
3241.91681	1.55765
3239.98824	1.55218
3238.05968	1.55407
3236.13111	1.55846
3234.20255	1.55537
3232.27398	1.54317
3230.34542	1.53152
3228.41685	1.53088
3226.48829	1.53709
3224.55973	1.53717
3222.63116	1.52967
3220.70260	1.52253
3218.77403	1.52056
3216.84547	1.52048
3214.91690	1.51597
3212.98834	1.50798
3211.05977	1.50426
3209.13121	1.50990
3207.20265	1.51740
3205.27408	1.51518
3203.34552	1.50879
3201.41695	1.50533
3199.48839	1.49995
3197.55982	1.49416
3195.63126	1.49202
3193.70269	1.48984
3191.77413	1.48317
3189.84557	1.47313
3187.91700	1.46571
3185.98844	1.46349
3184.05987	1.46692
3182.13131	1.47283
3180.20274	1.47328
3178.27418	1.46843
3176.34562	1.46362
3174.41705	1.45918
3172.48849	1.45347
3170.55992	1.44828
3168.63136	1.44692
3166.70279	1.44696
3164.77423	1.44366
3162.84566	1.43729
3160.91710	1.43043
3158.98854	1.42632
3157.05997	1.42628
3155.13141	1.42499
3153.20284	1.41956
3151.27428	1.41549
3149.34571	1.41511
3147.41715	1.41535
3145.48858	1.41472
3143.56002	1.41315
3141.63146	1.41008
3139.70289	1.40590
3137.77433	1.40305
3135.84576	1.40257
3133.91720	1.40335
3131.98863	1.40394
3130.06007	1.40209
3128.13150	1.39901
3126.20294	1.39825
3124.27438	1.39889
3122.34581	1.39698
3120.41725	1.39186
3118.48868	1.38817
3116.56012	1.38919
3114.63155	1.39168
3112.70299	1.39091
3110.77442	1.38693
3108.84586	1.38467
3106.91730	1.38631
3104.98873	1.38709
3103.06017	1.38448
3101.13160	1.38247
3099.20304	1.38369
3097.27447	1.38434
3095.34591	1.38046
3093.41734	1.37559
3091.48878	1.37440
3089.56022	1.37596
3087.63165	1.37736
3085.70309	1.37775
3083.77452	1.37893
3081.84596	1.38040
3079.91739	1.37797
3077.98883	1.37302
3076.06026	1.36993
3074.13170	1.36618
3072.20314	1.36024
3070.27457	1.35648
3068.34601	1.35545
3066.41744	1.35322
3064.48888	1.34814
3062.56031	1.34242
3060.63175	1.33959
3058.70318	1.33994
3056.77462	1.34012
3054.84606	1.33725
3052.91749	1.33210
3050.98893	1.32787
3049.06036	1.32494
3047.13180	1.32040
3045.20323	1.31401
3043.27467	1.30866
3041.34610	1.30399
3039.41754	1.29785
3037.48898	1.29234
3035.56041	1.28983
3033.63185	1.28955
3031.70328	1.29021
3029.77472	1.28946
3027.84615	1.28518
3025.91759	1.27931
3023.98903	1.27544
3022.06046	1.27347
3020.13190	1.27122
3018.20333	1.26931
3016.27477	1.26922
3014.34620	1.27011
3012.41764	1.26911
3010.48907	1.26487
3008.56051	1.25998
3006.63195	1.25794
3004.70338	1.25865
3002.77482	1.25770
3000.84625	1.25426
2998.91769	1.25333
2996.98912	1.25544
2995.06056	1.25690
2993.13199	1.25818
2991.20343	1.26135
2989.27487	1.26607
2987.34630	1.27097
2985.41774	1.27453
2983.48917	1.27737
2981.56061	1.28272
2979.63204	1.29078
2977.70348	1.29697
2975.77491	1.29977
2973.84635	1.30374
2971.91779	1.31182
2969.98922	1.32001
2968.06066	1.32477
2966.13209	1.32858
2964.20353	1.33173
2962.27496	1.33237
2960.34640	1.33229
2958.41783	1.33161
2956.48927	1.32893
2954.56071	1.32583
2952.63214	1.32328
2950.70358	1.31971
2948.77501	1.31542
2946.84645	1.31488
2944.91788	1.32057
2942.98932	1.32833
2941.06075	1.33429
2939.13219	1.34053
2937.20363	1.34933
2935.27506	1.36047
2933.34650	1.37343
2931.41793	1.38571
2929.48937	1.39476
2927.56080	1.40228
2925.63224	1.40972
2923.70367	1.41513
2921.77511	1.41772
2919.84655	1.41843
2917.91798	1.41616
2915.98942	1.40755
2914.06085	1.39025
2912.13229	1.36728
2910.20372	1.34496
2908.27516	1.32692
2906.34659	1.31529
2904.41803	1.31008
2902.48947	1.30603
2900.56090	1.29973
2898.63234	1.29356
2896.70377	1.28889
2894.77521	1.28472
2892.84664	1.28058
2890.91808	1.27648
2888.98952	1.27134
2887.06095	1.26463
2885.13239	1.26000
2883.20382	1.26057
2881.27526	1.26316
2879.34669	1.26384
2877.41813	1.26299
2875.48956	1.26174
2873.56100	1.25926
2871.63244	1.25571
2869.70387	1.25223
2867.77531	1.24817
2865.84674	1.24402
2863.91818	1.24306
2861.98961	1.24500
2860.06105	1.24693
2858.13248	1.25012
2856.20392	1.25683
2854.27536	1.26592
2852.34679	1.27461
2850.41823	1.27866
2848.48966	1.27138
2846.56110	1.24956
2844.63253	1.22115
2842.70397	1.19728
2840.77540	1.18079
2838.84684	1.16866
2836.91828	1.15824
2834.98971	1.14937
2833.06115	1.14284
2831.13258	1.13820
2829.20402	1.13388
2827.27545	1.12902
2825.34689	1.12393
2823.41832	1.11867
2821.48976	1.11344
2819.56120	1.10883
2817.63263	1.10526
2815.70407	1.10297
2813.77550	1.10080
2811.84694	1.09788
2809.91837	1.09522
2807.98981	1.09282
2806.06124	1.08989
2804.13268	1.08738
2802.20412	1.08618
2800.27555	1.08521
2798.34699	1.08359
2796.41842	1.08148
2794.48986	1.07896
2792.56129	1.07643
2790.63273	1.07435
2788.70416	1.07274
2786.77560	1.07138
2784.84704	1.06964
2782.91847	1.06753
2780.98991	1.06593
2779.06134	1.06501
2777.13278	1.06350
2775.20421	1.06039
2773.27565	1.05716
2771.34708	1.05468
2769.41852	1.05195
2767.48996	1.04931
2765.56139	1.04738
2763.63283	1.04554
2761.70426	1.04402
2759.77570	1.04283
2757.84713	1.04091
2755.91857	1.03793
2753.99001	1.03440
2752.06144	1.03130
2750.13288	1.02891
2748.20431	1.02664
2746.27575	1.02497
2744.34718	1.02448
2742.41862	1.02443
2740.49005	1.02366
2738.56149	1.02163
2736.63293	1.01961
2734.70436	1.01894
2732.77580	1.01845
2730.84723	1.01711
2728.91867	1.01609
2726.99010	1.01571
2725.06154	1.01439
2723.13297	1.01184
2721.20441	1.00937
2719.27585	1.00829
2717.34728	1.00806
2715.41872	1.00599
2713.49015	1.00207
2711.56159	0.99921
2709.63302	0.99842
2707.70446	0.99810
2705.77589	0.99624
2703.84733	0.99312
2701.91877	0.99073
2699.99020	0.98912
2698.06164	0.98701
2696.13307	0.98441
2694.20451	0.98206
2692.27594	0.98010
2690.34738	0.97822
2688.41881	0.97615
2686.49025	0.97421
2684.56169	0.97296
2682.63312	0.97231
2680.70456	0.97175
2678.77599	0.97066
2676.84743	0.96903
2674.91886	0.96751
2672.99030	0.96610
2671.06173	0.96444
2669.13317	0.96250
2667.20461	0.96050
2665.27604	0.95871
2663.34748	0.95674
2661.41891	0.95441
2659.49035	0.95317
2657.56178	0.95370
2655.63322	0.95374
2653.70465	0.95172
2651.77609	0.94890
2649.84753	0.94678
2647.91896	0.94543
2645.99040	0.94403
2644.06183	0.94228
2642.13327	0.94059
2640.20470	0.93912
2638.27614	0.93763
2636.34757	0.93561
2634.41901	0.93302
2632.49045	0.93060
2630.56188	0.92869
2628.63332	0.92684
2626.70475	0.92520
2624.77619	0.92418
2622.84762	0.92317
2620.91906	0.92200
2618.99049	0.92124
2617.06193	0.92067
2615.13337	0.92000
2613.20480	0.91912
2611.27624	0.91806
2609.34767	0.91759
2607.41911	0.91754
2605.49054	0.91663
2603.56198	0.91522
2601.63342	0.91415
2599.70485	0.91291
2597.77629	0.91131
2595.84772	0.90973
2593.91916	0.90837
2591.99059	0.90738
2590.06203	0.90655
2588.13346	0.90586
2586.20490	0.90538
2584.27634	0.90433
2582.34777	0.90243
2580.41921	0.90055
2578.49064	0.89913
2576.56208	0.89794
2574.63351	0.89670
2572.70495	0.89523
2570.77638	0.89393
2568.84782	0.89307
2566.91926	0.89228
2564.99069	0.89151
2563.06213	0.89123
2561.13356	0.89120
2559.20500	0.89066
2557.27643	0.89002
2555.34787	0.88967
2553.41930	0.88879
2551.49074	0.88754
2549.56218	0.88689
2547.63361	0.88668
2545.70505	0.88587
2543.77648	0.88428
2541.84792	0.88322
2539.91935	0.88325
2537.99079	0.88357
2536.06222	0.88384
2534.13366	0.88384
2532.20510	0.88305
2530.27653	0.88167
2528.34797	0.88025
2526.41940	0.87885
2524.49084	0.87776
2522.56227	0.87721
2520.63371	0.87650
2518.70514	0.87511
2516.77658	0.87345
2514.84802	0.87198
2512.91945	0.87068
2510.99089	0.86953
2509.06232	0.86841
2507.13376	0.86683
2505.20519	0.86486
2503.27663	0.86314
2501.34806	0.86162
2499.41950	0.85988
2497.49094	0.85806
2495.56237	0.85652
2493.63381	0.85529
2491.70524	0.85409
2489.77668	0.85275
2487.84811	0.85150
2485.91955	0.85033
2483.99098	0.84896
2482.06242	0.84768
2480.13386	0.84679
2478.20529	0.84589
2476.27673	0.84464
2474.34816	0.84330
2472.41960	0.84212
2470.49103	0.84084
2468.56247	0.83934
2466.63391	0.83766
2464.70534	0.83564
2462.77678	0.83333
2460.84821	0.83107
2458.91965	0.82890
2456.99108	0.82693
2455.06252	0.82522
2453.13395	0.82314
2451.20539	0.82053
2449.27683	0.81802
2447.34826	0.81574
2445.41970	0.81315
2443.49113	0.81047
2441.56257	0.80826
2439.63400	0.80635
2437.70544	0.80438
2435.77687	0.80259
2433.84831	0.80103
2431.91975	0.79930
2429.99118	0.79736
2428.06262	0.79556
2426.13405	0.79404
2424.20549	0.79278
2422.27692	0.79166
2420.34836	0.79035
2418.41979	0.78902
2416.49123	0.78820
2414.56267	0.78731
2412.63410	0.78599
2410.70554	0.78499
2408.77697	0.78432
2406.84841	0.78375
2404.91984	0.78335
2402.99128	0.78246
2401.06271	0.78100
2399.13415	0.77959
2397.20559	0.77803
2395.27702	0.77627
2393.34846	0.77494
2391.41989	0.77398
2389.49133	0.77303
2387.56276	0.77208
2385.63420	0.77106
2383.70563	0.77018
2381.77707	0.76955
2379.84851	0.76879
2377.91994	0.76829
2375.99138	0.76861
2374.06281	0.76964
2372.13425	0.77157
2370.20568	0.77374
2368.27712	0.77382
2366.34855	0.77189
2364.41999	0.77005
2362.49143	0.76622
2360.56286	0.76078
2358.63430	0.75948
2356.70573	0.75980
2354.77717	0.75875
2352.84860	0.75826
2350.92004	0.75805
2348.99147	0.75838
2347.06291	0.75950
2345.13435	0.75977
2343.20578	0.75834
2341.27722	0.75783
2339.34865	0.75866
2337.42009	0.75821
2335.49152	0.75568
2333.56296	0.75358
2331.63440	0.75371
2329.70583	0.75448
2327.77727	0.75432
2325.84870	0.75400
2323.92014	0.75372
2321.99157	0.75306
2320.06301	0.75210
2318.13444	0.75068
2316.20588	0.74910
2314.27732	0.74805
2312.34875	0.74762
2310.42019	0.74741
2308.49162	0.74696
2306.56306	0.74610
2304.63449	0.74517
2302.70593	0.74449
2300.77736	0.74386
2298.84880	0.74290
2296.92024	0.74146
2294.99167	0.73990
2293.06311	0.73872
2291.13454	0.73787
2289.20598	0.73689
2287.27741	0.73590
2285.34885	0.73515
2283.42028	0.73452
2281.49172	0.73407
2279.56316	0.73391
2277.63459	0.73374
2275.70603	0.73337
2273.77746	0.73285
2271.84890	0.73221
2269.92033	0.73163
2267.99177	0.73124
2266.06320	0.73084
2264.13464	0.73018
2262.20608	0.72921
2260.27751	0.72799
2258.34895	0.72665
2256.42038	0.72531
2254.49182	0.72404
2252.56325	0.72276
2250.63469	0.72148
2248.70612	0.72021
2246.77756	0.71878
2244.84900	0.71718
2242.92043	0.71540
2240.99187	0.71337
2239.06330	0.71147
2237.13474	0.70987
2235.20617	0.70810
2233.27761	0.70630
2231.34904	0.70486
2229.42048	0.70351
2227.49192	0.70213
2225.56335	0.70076
2223.63479	0.69951
2221.70622	0.69861
2219.77766	0.69794
2217.84909	0.69721
2215.92053	0.69641
2213.99196	0.69565
2212.06340	0.69491
2210.13484	0.69391
2208.20627	0.69286
2206.27771	0.69241
2204.34914	0.69248
2202.42058	0.69226
2200.49201	0.69155
2198.56345	0.69083
2196.63488	0.69032
2194.70632	0.68984
2192.77776	0.68915
2190.84919	0.68846
2188.92063	0.68792
2186.99206	0.68718
2185.06350	0.68600
2183.13493	0.68457
2181.20637	0.68320
2179.27781	0.68199
2177.34924	0.68080
2175.42068	0.67970
2173.49211	0.67882
2171.56355	0.67807
2169.63498	0.67722
2167.70642	0.67630
2165.77785	0.67541
2163.84929	0.67441
2161.92073	0.67332
2159.99216	0.67239
2158.06360	0.67173
2156.13503	0.67129
2154.20647	0.67107
2152.27790	0.67094
2150.34934	0.67077
2148.42077	0.67089
2146.49221	0.67139
2144.56365	0.67186
2142.63508	0.67211
2140.70652	0.67248
2138.77795	0.67319
2136.84939	0.67394
2134.92082	0.67456
2132.99226	0.67534
2131.06369	0.67650
2129.13513	0.67767
2127.20657	0.67835
2125.27800	0.67868
2123.34944	0.67912
2121.42087	0.67985
2119.49231	0.68068
2117.56374	0.68129
2115.63518	0.68136
2113.70661	0.68099
2111.77805	0.68067
2109.84949	0.68048
2107.92092	0.68025
2105.99236	0.68017
2104.06379	0.68005
2102.13523	0.67950
2100.20666	0.67874
2098.27810	0.67808
2096.34953	0.67753
2094.42097	0.67724
2092.49241	0.67712
2090.56384	0.67687
2088.63528	0.67667
2086.70671	0.67692
2084.77815	0.67729
2082.84958	0.67741
2080.92102	0.67748
2078.99245	0.67773
2077.06389	0.67832
2075.13533	0.67918
2073.20676	0.67995
2071.27820	0.68038
2069.34963	0.68069
2067.42107	0.68124
2065.49250	0.68187
2063.56394	0.68202
2061.63537	0.68164
2059.70681	0.68122
2057.77825	0.68115
2055.84968	0.68090
2053.92112	0.67976
2051.99255	0.67829
2050.06399	0.67729
2048.13542	0.67645
2046.20686	0.67519
2044.27830	0.67362
2042.34973	0.67211
2040.42117	0.67074
2038.49260	0.66946
2036.56404	0.66824
2034.63547	0.66699
2032.70691	0.66564
2030.77834	0.66412
2028.84978	0.66242
2026.92122	0.66070
2024.99265	0.65919
2023.06409	0.65798
2021.13552	0.65689
2019.20696	0.65566
2017.27839	0.65426
2015.34983	0.65296
2013.42126	0.65188
2011.49270	0.65094
2009.56414	0.65029
2007.63557	0.64966
2005.70701	0.64854
2003.77844	0.64721
2001.84988	0.64604
1999.92131	0.64489
1997.99275	0.64371
1996.06418	0.64267
1994.13562	0.64168
1992.20706	0.64049
1990.27849	0.63917
1988.34993	0.63796
1986.42136	0.63686
1984.49280	0.63561
1982.56423	0.63412
1980.63567	0.63268
1978.70710	0.63154
1976.77854	0.63063
1974.84998	0.62963
1972.92141	0.62810
1970.99285	0.62623
1969.06428	0.62467
1967.13572	0.62353
1965.20715	0.62247
1963.27859	0.62121
1961.35002	0.61984
1959.42146	0.61856
1957.49290	0.61733
1955.56433	0.61594
1953.63577	0.61444
1951.70720	0.61321
1949.77864	0.61233
1947.85007	0.61146
1945.92151	0.61038
1943.99294	0.60909
1942.06438	0.60771
1940.13582	0.60658
1938.20725	0.60575
1936.27869	0.60506
1934.35012	0.60451
1932.42156	0.60398
1930.49299	0.60346
1928.56443	0.60298
1926.63586	0.60261
1924.70730	0.60232
1922.77874	0.60225
1920.85017	0.60259
1918.92161	0.60283
1916.99304	0.60277
1915.06448	0.60280
1913.13591	0.60299
1911.20735	0.60337
1909.27878	0.60385
1907.35022	0.60410
1905.42166	0.60424
1903.49309	0.60455
1901.56453	0.60479
1899.63596	0.60475
1897.70740	0.60457
1895.77883	0.60429
1893.85027	0.60383
1891.92171	0.60336
1889.99314	0.60282
1888.06458	0.60218
1886.13601	0.60159
1884.20745	0.60095
1882.27888	0.60012
1880.35032	0.59903
1878.42175	0.59788
1876.49319	0.59696
1874.56463	0.59626
1872.63606	0.59576
1870.70750	0.59547
1868.77893	0.59526
1866.85037	0.59495
1864.92180	0.59460
1862.99324	0.59428
1861.06467	0.59395
1859.13611	0.59363
1857.20755	0.59339
1855.27898	0.59338
1853.35042	0.59346
1851.42185	0.59346
1849.49329	0.59361
1847.56472	0.59399
1845.63616	0.59407
1843.70759	0.59364
1841.77903	0.59342
1839.85047	0.59354
1837.92190	0.59369
1835.99334	0.59382
1834.06477	0.59395
1832.13621	0.59404
1830.20764	0.59365
1828.27908	0.59293
1826.35051	0.59240
1824.42195	0.59187
1822.49339	0.59133
1820.56482	0.59085
1818.63626	0.59043
1816.70769	0.59003
1814.77913	0.58963
1812.85056	0.58916
1810.92200	0.58852
1808.99343	0.58781
1807.06487	0.58726
1805.13631	0.58703
1803.20774	0.58684
1801.27918	0.58646
1799.35061	0.58610
1797.42205	0.58600
1795.49348	0.58608
1793.56492	0.58602
1791.63635	0.58562
1789.70779	0.58513
1787.77923	0.58489
1785.85066	0.58493
1783.92210	0.58536
1781.99353	0.58605
1780.06497	0.58662
1778.13640	0.58723
1776.20784	0.58802
1774.27927	0.58886
1772.35071	0.58975
1770.42215	0.59071
1768.49358	0.59170
1766.56502	0.59296
1764.63645	0.59455
1762.70789	0.59653
1760.77932	0.59910
1758.85076	0.60216
1756.92220	0.60611
1754.99363	0.61051
1753.06507	0.61519
1751.13650	0.62190
1749.20794	0.63111
1747.27937	0.64008
1745.35081	0.64808
1743.42224	0.65559
1741.49368	0.66269
1739.56512	0.66950
1737.63655	0.67477
1735.70799	0.67862
1733.77942	0.68323
1731.85086	0.68783
1729.92229	0.69209
1727.99373	0.69699
1726.06516	0.70257
1724.13660	0.70962
1722.20804	0.71731
1720.27947	0.72476
1718.35091	0.73520
1716.42234	0.75139
1714.49378	0.76548
1712.56521	0.77733
1710.63665	0.79057
1708.70808	0.80595
1706.77952	0.82689
1704.85096	0.85385
1702.92239	0.87908
1700.99383	0.91403
1699.06526	0.96856
1697.13670	1.01866
1695.20813	1.06617
1693.27957	1.10219
1691.35100	1.13048
1689.42244	1.16276
1687.49388	1.19108
1685.56531	1.21624
1683.63675	1.25346
1681.70818	1.28173
1679.77962	1.29719
1677.85105	1.31037
1675.92249	1.32472
1673.99392	1.33885
1672.06536	1.34958
1670.13680	1.35827
1668.20823	1.36439
1666.27967	1.36745
1664.35110	1.37094
1662.42254	1.37500
1660.49397	1.37726
1658.56541	1.37809
1656.63684	1.37743
1654.70828	1.37596
1652.77972	1.37382
1650.85115	1.37275
1648.92259	1.37223
1646.99402	1.36809
1645.06546	1.36280
1643.13689	1.36088
1641.20833	1.35983
1639.27976	1.35794
1637.35120	1.35536
1635.42264	1.35110
1633.49407	1.34734
1631.56551	1.34538
1629.63694	1.34247
1627.70838	1.33753
1625.77981	1.33210
1623.85125	1.32501
1621.92269	1.31388
1619.99412	1.30339
1618.06556	1.29263
1616.13699	1.27745
1614.20843	1.26409
1612.27986	1.25240
1610.35130	1.23961
1608.42273	1.22697
1606.49417	1.21603
1604.56561	1.20669
1602.63704	1.19843
1600.70848	1.19173
1598.77991	1.18691
1596.85135	1.18387
1594.92278	1.18198
1592.99422	1.18064
1591.06565	1.18035
1589.13709	1.18228
1587.20853	1.18718
1585.27996	1.19361
1583.35140	1.19986
1581.42283	1.20588
1579.49427	1.21237
1577.56570	1.22192
1575.63714	1.23559
1573.70857	1.24482
1571.78001	1.25136
1569.85145	1.26063
1567.92288	1.26989
1565.99432	1.27687
1564.06575	1.28397
1562.13719	1.29000
1560.20862	1.29550
1558.28006	1.30380
1556.35149	1.30952
1554.42293	1.31280
1552.49437	1.31392
1550.56580	1.31335
1548.63724	1.31290
1546.70867	1.31259
1544.78011	1.31039
1542.85154	1.30492
1540.92298	1.29767
1538.99441	1.29469
1537.06585	1.29507
1535.13729	1.29329
1533.20872	1.28618
1531.28016	1.27813
1529.35159	1.27347
1527.42303	1.26917
1525.49446	1.26442
1523.56590	1.26131
1521.63733	1.25863
1519.70877	1.25581
1517.78021	1.25167
1515.85164	1.24417
1513.92308	1.23517
1511.99451	1.22613
1510.06595	1.21729
1508.13738	1.20275
1506.20882	1.17729
1504.28025	1.16545
1502.35169	1.15886
1500.42313	1.14989
1498.49456	1.13714
1496.56600	1.12082
1494.63743	1.10739
1492.70887	1.09866
1490.78030	1.08875
1488.85174	1.07385
1486.92317	1.06152
1484.99461	1.05443
1483.06605	1.04964
1481.13748	1.04590
1479.20892	1.04437
1477.28035	1.04626
1475.35179	1.05205
1473.42322	1.06372
1471.49466	1.07714
1469.56610	1.08434
1467.63753	1.08870
1465.70897	1.09369
1463.78040	1.09918
1461.85184	1.10291
1459.92327	1.10544
1457.99471	1.10957
1456.06614	1.11484
1454.13758	1.11624
1452.20902	1.11589
1450.28045	1.11526
1448.35189	1.11446
1446.42332	1.11290
1444.49476	1.11038
1442.56619	1.10729
1440.63763	1.10439
1438.70906	1.10127
1436.78050	1.09610
1434.85194	1.09056
1432.92337	1.08624
1430.99481	1.08164
1429.06624	1.07775
1427.13768	1.07595
1425.20911	1.07532
1423.28055	1.07544
1421.35198	1.07633
1419.42342	1.07788
1417.49486	1.07961
1415.56629	1.08061
1413.63773	1.08085
1411.70916	1.08070
1409.78060	1.08064
1407.85203	1.08064
1405.92347	1.08020
1403.99490	1.07944
1402.06634	1.07935
1400.13778	1.08004
1398.20921	1.08061
1396.28065	1.08064
1394.35208	1.08021
1392.42352	1.07983
1390.49495	1.08065
1388.56639	1.08400
1386.63782	1.09006
1384.70926	1.09635
1382.78070	1.10171
1380.85213	1.10588
1378.92357	1.10710
1376.99500	1.10387
1375.06644	1.09669
1373.13787	1.08806
1371.20931	1.07987
1369.28074	1.07038
1367.35218	1.05940
1365.42362	1.04904
1363.49505	1.03859
1361.56649	1.02832
1359.63792	1.02119
1357.70936	1.01703
1355.78079	1.01439
1353.85223	1.01226
1351.92366	1.01009
1349.99510	1.00807
1348.06654	1.00675
1346.13797	1.00593
1344.20941	1.00534
1342.28084	1.00509
1340.35228	1.00528
1338.42371	1.00621
1336.49515	1.00820
1334.56659	1.01144
1332.63802	1.01606
1330.70946	1.02148
1328.78089	1.02610
1326.85233	1.02909
1324.92376	1.03128
1322.99520	1.03346
1321.06663	1.03561
1319.13807	1.03770
1317.20951	1.04004
1315.28094	1.04239
1313.35238	1.04409
1311.42381	1.04502
1309.49525	1.04561
1307.56668	1.04615
1305.63812	1.04668
1303.70955	1.04671
1301.78099	1.04562
1299.85243	1.04389
1297.92386	1.04223
1295.99530	1.04073
1294.06673	1.03978
1292.13817	1.03977
1290.20960	1.04060
1288.28104	1.04185
1286.35247	1.04287
1284.42391	1.04359
1282.49535	1.04423
1280.56678	1.04489
1278.63822	1.04604
1276.70965	1.04804
1274.78109	1.05026
1272.85252	1.05219
1270.92396	1.05471
1268.99539	1.05891
1267.06683	1.06415
1265.13827	1.06864
1263.20970	1.07155
1261.28114	1.07352
1259.35257	1.07539
1257.42401	1.07711
1255.49544	1.07847
1253.56688	1.07984
1251.63831	1.08141
1249.70975	1.08299
1247.78119	1.08457
1245.85262	1.08616
1243.92406	1.08730
1241.99549	1.08788
1240.06693	1.08820
1238.13836	1.08806
1236.20980	1.08712
1234.28123	1.08519
1232.35267	1.08202
1230.42411	1.07784
1228.49554	1.07319
1226.56698	1.06858
1224.63841	1.06367
1222.70985	1.05786
1220.78128	1.05180
1218.85272	1.04622
1216.92415	1.04119
1214.99559	1.03751
1213.06703	1.03609
1211.13846	1.03649
1209.20990	1.03767
1207.28133	1.03861
1205.35277	1.03772
1203.42420	1.03416
1201.49564	1.02906
1199.56708	1.02357
1197.63851	1.01777
1195.70995	1.01164
1193.78138	1.00567
1191.85282	1.00047
1189.92425	0.99681
1187.99569	0.99524
1186.06712	0.99515
1184.13856	0.99590
1182.21000	0.99764
1180.28143	1.00073
1178.35287	1.00561
1176.42430	1.01232
1174.49574	1.02038
1172.56717	1.02912
1170.63861	1.03818
1168.71004	1.04841
1166.78148	1.06085
1164.85292	1.07455
1162.92435	1.08720
1160.99579	1.09681
1159.06722	1.10180
1157.13866	1.10182
1155.21009	1.09768
1153.28153	1.08942
1151.35296	1.07783
1149.42440	1.06610
1147.49584	1.05582
1145.56727	1.04648
1143.63871	1.03907
1141.71014	1.03487
1139.78158	1.03408
1137.85301	1.03632
1135.92445	1.04059
1133.99588	1.04674
1132.06732	1.05529
1130.13876	1.06625
1128.21019	1.07870
1126.28163	1.09051
1124.35306	1.10042
1122.42450	1.10940
1120.49593	1.11771
1118.56737	1.12351
1116.63880	1.12541
1114.71024	1.12407
1112.78168	1.12123
1110.85311	1.11812
1108.92455	1.11498
1106.99598	1.11205
1105.06742	1.10949
1103.13885	1.10696
1101.21029	1.10468
1099.28172	1.10419
1097.35316	1.10678
1095.42460	1.11234
1093.49603	1.12074
1091.56747	1.13117
1089.63890	1.14229
1087.71034	1.15425
1085.78177	1.16700
1083.85321	1.17892
1081.92464	1.18787
1079.99608	1.19225
1078.06752	1.19250
1076.13895	1.18952
1074.21039	1.18367
1072.28182	1.17557
1070.35326	1.16544
1068.42469	1.15494
1066.49613	1.14669
1064.56756	1.14032
1062.63900	1.13455
1060.71044	1.12973
1058.78187	1.12558
1056.85331	1.12181
1054.92474	1.11882
1052.99618	1.11636
1051.06761	1.11520
1049.13905	1.11594
1047.21049	1.11787
1045.28192	1.12128
1043.35336	1.12618
1041.42479	1.13114
1039.49623	1.13513
1037.56766	1.13791
1035.63910	1.13932
1033.71053	1.13900
1031.78197	1.13706
1029.85341	1.13348
1027.92484	1.12772
1025.99628	1.11967
1024.06771	1.11042
1022.13915	1.10186
1020.21058	1.09446
1018.28202	1.08756
1016.35345	1.08067
1014.42489	1.07261
1012.49633	1.06268
1010.56776	1.05119
1008.63920	1.03836
1006.71063	1.02522
1004.78207	1.01406
1002.85350	1.00608
1000.92494	1.00049
998.99637	0.99725
997.06781	0.99674
995.13925	0.99724
993.21068	0.99656
991.28212	0.99422
989.35355	0.99084
987.42499	0.98604
985.49642	0.97906
983.56786	0.97128
981.63929	0.96461
979.71073	0.95916
977.78217	0.95429
975.85360	0.94960
973.92504	0.94445
971.99647	0.93821
970.06791	0.93149
968.13934	0.92527
966.21078	0.91979
964.28221	0.91570
962.35365	0.91476
960.42509	0.91829
958.49652	0.92586
956.56796	0.93470
954.63939	0.94043
952.71083	0.94087
950.78226	0.93796
948.85370	0.93414
946.92513	0.93030
944.99657	0.92690
943.06801	0.92435
941.13944	0.92251
939.21088	0.92046
937.28231	0.91730
935.35375	0.91332
933.42518	0.90915
931.49662	0.90480
929.56805	0.90089
927.63949	0.89822
925.71093	0.89605
923.78236	0.89357
921.85380	0.89097
919.92523	0.88775
917.99667	0.88352
916.06810	0.87940
914.13954	0.87624
912.21098	0.87346
910.28241	0.87105
908.35385	0.87018
906.42528	0.87123
904.49672	0.87328
902.56815	0.87527
900.63959	0.87688
898.71102	0.87801
896.78246	0.87808
894.85390	0.87690
892.92533	0.87498
890.99677	0.87278
889.06820	0.87043
887.13964	0.86754
885.21107	0.86379
883.28251	0.85962
881.35394	0.85548
879.42538	0.85136
877.49682	0.84760
875.56825	0.84412
873.63969	0.84035
871.71112	0.83679
869.78256	0.83374
867.85399	0.83069
865.92543	0.82749
863.99686	0.82453
862.06830	0.82222
860.13974	0.82088
858.21117	0.82074
856.28261	0.82180
854.35404	0.82380
852.42548	0.82610
850.49691	0.82799
848.56835	0.82987
846.63978	0.83262
844.71122	0.83649
842.78266	0.84127
840.85409	0.84644
838.92553	0.85146
836.99696	0.85616
835.06840	0.86067
833.13983	0.86463
831.21127	0.86850
829.28270	0.87341
827.35414	0.87843
825.42558	0.88187
823.49701	0.88352
821.56845	0.88439
819.63988	0.88571
817.71132	0.88748
815.78275	0.88836
813.85419	0.88786
811.92562	0.88668
809.99706	0.88536
808.06850	0.88385
806.13993	0.88144
804.21137	0.87822
802.28280	0.87551
800.35424	0.87403
798.42567	0.87296
796.49711	0.87126
794.56854	0.86923
792.63998	0.86830
790.71142	0.86974
788.78285	0.87354
786.85429	0.87811
784.92572	0.88295
782.99716	0.88970
781.06859	0.89885
779.14003	0.90878
777.21147	0.91829
775.28290	0.92802
773.35434	0.93890
771.42577	0.95017
769.49721	0.96035
767.56864	0.96950
765.64008	0.97822
763.71151	0.98621
761.78295	0.99402
759.85439	1.00278
757.92582	1.01181
755.99726	1.01962
754.06869	1.02613
752.14013	1.03165
750.21156	1.03590
748.28300	1.03925
746.35443	1.04177
744.42587	1.04266
742.49731	1.04207
740.56874	1.04099
738.64018	1.04031
736.71161	1.04016
734.78305	1.04013
732.85448	1.04030
730.92592	1.04036
728.99735	1.04055
727.06879	1.04248
725.14023	1.04591
723.21166	1.04970
721.28310	1.05452
719.35453	1.05997
717.42597	1.06483
715.49740	1.07030
713.56884	1.07730
711.64027	1.08572
709.71171	1.09608
707.78315	1.10704
705.85458	1.11599
703.92602	1.12245
701.99745	1.12780
700.06889	1.13333
698.14032	1.13823
696.21176	1.14180
694.28319	1.14567
692.35463	1.14861
690.42607	1.14681
688.49750	1.14252
686.56894	1.14120
684.64037	1.14137
682.71181	1.13743
680.78324	1.12905
678.85468	1.12019
676.92611	1.11236
674.99755	1.10487
673.06899	1.09762
671.14042	1.09024
669.21186	1.07887
667.28329	1.06471
665.35473	1.05840
663.42616	1.05655
661.49760	1.05601
659.56903	1.05598
657.64047	1.05508
655.71191	1.05361
653.78334	1.05499
651.85478	1.05990
649.92621	1.06412
647.99765	1.06637
646.06908	1.07056
644.14052	1.07926
642.21195	1.09068
640.28339	1.10236
638.35483	1.11454
636.42626	1.12610
634.49770	1.13437
632.56913	1.13949
630.64057	1.14117
628.71200	1.14024
626.78344	1.14175
624.85488	1.14671
622.92631	1.15049
620.99775	1.15140
619.06918	1.15058
617.14062	1.14654
615.21205	1.13837
613.28349	1.12885
611.35492	1.12016
609.42636	1.11332
607.49780	1.10820
605.56923	1.10337
603.64067	1.09843
601.71210	1.09209
599.78354	1.08270
