3997.91406	0.78719
3995.98550	0.78585
3994.05693	0.78656
3992.12837	0.78780
3990.19980	0.78765
3988.27124	0.78682
3986.34268	0.78640
3984.41411	0.78727
3982.48555	0.78976
3980.55698	0.79143
3978.62842	0.79038
3976.69985	0.78831
3974.77129	0.78721
3972.84272	0.78730
3970.91416	0.78846
3968.98560	0.78950
3967.05703	0.78875
3965.12847	0.78792
3963.19990	0.78897
3961.27134	0.79029
3959.34277	0.79075
3957.41421	0.79061
3955.48564	0.79024
3953.55708	0.79063
3951.62852	0.79093
3949.69995	0.78963
3947.77139	0.78813
3945.84282	0.78672
3943.91426	0.78370
3941.98569	0.78151
3940.05713	0.78332
3938.12856	0.78647
3936.20000	0.78792
3934.27144	0.78731
3932.34287	0.78510
3930.41431	0.78233
3928.48574	0.78086
3926.55718	0.78041
3924.62861	0.77933
3922.70005	0.77894
3920.77148	0.78041
3918.84292	0.78141
3916.91436	0.78025
3914.98579	0.77796
3913.05723	0.77649
3911.12866	0.77666
3909.20010	0.77678
3907.27153	0.77513
3905.34297	0.77288
3903.41440	0.77197
3901.48584	0.77162
3899.55728	0.77199
3897.62871	0.77306
3895.70015	0.77370
3893.77158	0.77397
3891.84302	0.77218
3889.91445	0.76904
3887.98589	0.76875
3886.05733	0.77001
3884.12876	0.76931
3882.20020	0.76600
3880.27163	0.76132
3878.34307	0.75995
3876.41450	0.76190
3874.48594	0.76376
3872.55737	0.76305
3870.62881	0.75978
3868.70025	0.75945
3866.77168	0.76240
3864.84312	0.76309
3862.91455	0.76190
3860.98599	0.76199
3859.05742	0.76127
3857.12886	0.75896
3855.20029	0.75664
3853.27173	0.75599
3851.34317	0.75830
3849.41460	0.76017
3847.48604	0.75968
3845.55747	0.75688
3843.62891	0.75329
3841.70034	0.75196
3839.77178	0.75438
3837.84321	0.75741
3835.91465	0.75573
3833.98609	0.75170
3832.05752	0.75032
3830.12896	0.75153
3828.20039	0.75144
3826.27183	0.74919
3824.34326	0.74773
3822.41470	0.74715
3820.48613	0.74733
3818.55757	0.75145
3816.62901	0.75424
3814.70044	0.75117
3812.77188	0.74838
3810.84331	0.74846
3808.91475	0.74967
3806.98618	0.75001
3805.05762	0.74960
3803.12905	0.74889
3801.20049	0.74685
3799.27193	0.74544
3797.34336	0.74399
3795.41480	0.74165
3793.48623	0.74136
3791.55767	0.74400
3789.62910	0.74670
3787.70054	0.74651
3785.77197	0.74453
3783.84341	0.74391
3781.91485	0.74444
3779.98628	0.74430
3778.05772	0.74420
3776.12915	0.74477
3774.20059	0.74527
3772.27202	0.74464
3770.34346	0.74229
3768.41489	0.74145
3766.48633	0.74339
3764.55777	0.74529
3762.62920	0.74577
3760.70064	0.74469
3758.77207	0.74337
3756.84351	0.74434
3754.91494	0.74723
3752.98638	0.74858
3751.05781	0.74398
3749.12925	0.74174
3747.20069	0.74519
3745.27212	0.74460
3743.34356	0.73934
3741.41499	0.73833
3739.48643	0.74032
3737.55786	0.74216
3735.62930	0.74294
3733.70074	0.74266
3731.77217	0.74047
3729.84361	0.73710
3727.91504	0.73406
3725.98648	0.73206
3724.05791	0.73169
3722.12935	0.73332
3720.20078	0.73572
3718.27222	0.73697
3716.34366	0.73748
3714.41509	0.73862
3712.48653	0.74089
3710.55796	0.74375
3708.62940	0.74405
3706.70083	0.74263
3704.77227	0.74161
3702.84370	0.74046
3700.91514	0.74029
3698.98658	0.74240
3697.05801	0.74416
3695.12945	0.74478
3693.20088	0.74586
3691.27232	0.74798
3689.34375	0.75004
3687.41519	0.75140
3685.48662	0.75333
3683.55806	0.75598
3681.62950	0.75874
3679.70093	0.76214
3677.77237	0.76674
3675.84380	0.77015
3673.91524	0.77132
3671.98667	0.77390
3670.05811	0.77761
3668.12954	0.78075
3666.20098	0.78465
3664.27242	0.78929
3662.34385	0.79386
3660.41529	0.79917
3658.48672	0.80523
3656.55816	0.81155
3654.62959	0.81825
3652.70103	0.82556
3650.77246	0.83513
3648.84390	0.84335
3646.91534	0.84415
3644.98677	0.84676
3643.05821	0.85334
3641.12964	0.86118
3639.20108	0.86931
3637.27251	0.87854
3635.34395	0.88749
3633.41538	0.89526
3631.48682	0.90440
3629.55826	0.91668
3627.62969	0.92372
3625.70113	0.92603
3623.77256	0.93047
3621.84400	0.93694
3619.91543	0.94608
3617.98687	0.95647
3616.05830	0.96324
3614.12974	0.96728
3612.20118	0.97164
3610.27261	0.97754
3608.34405	0.98641
3606.41548	0.99584
3604.48692	1.00169
3602.55835	1.00835
3600.62979	1.01878
3598.70123	1.02780
3596.77266	1.03471
3594.84410	1.04441
3592.91553	1.05383
3590.98697	1.05792
3589.05840	1.06036
3587.12984	1.06940
3585.20127	1.08231
3583.27271	1.08946
3581.34415	1.09336
3579.41558	1.09842
3577.48702	1.10409
3575.55845	1.11193
3573.62989	1.12254
3571.70132	1.13164
3569.77276	1.13816
3567.84419	1.14715
3565.91563	1.15950
3563.98707	1.16678
3562.05850	1.17272
3560.12994	1.18136
3558.20137	1.18917
3556.27281	1.19406
3554.34424	1.19923
3552.41568	1.20654
3550.48711	1.21402
3548.55855	1.22287
3546.62999	1.23456
3544.70142	1.24293
3542.77286	1.24616
3540.84429	1.25253
3538.91573	1.26439
3536.98716	1.27525
3535.05860	1.27993
3533.13003	1.28119
3531.20147	1.28324
3529.27291	1.28895
3527.34434	1.29989
3525.41578	1.31148
3523.48721	1.31888
3521.55865	1.32302
3519.63008	1.32647
3517.70152	1.33301
3515.77295	1.34363
3513.84439	1.35415
3511.91583	1.36037
3509.98726	1.36166
3508.05870	1.36318
3506.13013	1.36902
3504.20157	1.38087
3502.27300	1.39867
3500.34444	1.41316
3498.41587	1.41596
3496.48731	1.41129
3494.55875	1.41273
3492.63018	1.42557
3490.70162	1.43860
3488.77305	1.44282
3486.84449	1.44240
3484.91592	1.43974
3482.98736	1.43739
3481.05879	1.44161
3479.13023	1.44935
3477.20167	1.45585
3475.27310	1.45981
3473.34454	1.46134
3471.41597	1.46662
3469.48741	1.47759
3467.55884	1.48609
3465.63028	1.48600
3463.70171	1.48179
3461.77315	1.48002
3459.84459	1.48139
3457.91602	1.48562
3455.98746	1.49213
3454.05889	1.49439
3452.13033	1.48747
3450.20176	1.47989
3448.27320	1.48405
3446.34464	1.49632
3444.41607	1.50316
3442.48751	1.50469
3440.55894	1.50584
3438.63038	1.51011
3436.70181	1.51940
3434.77325	1.52515
3432.84468	1.52117
3430.91612	1.51547
3428.98756	1.51277
3427.05899	1.50796
3425.13043	1.50449
3423.20186	1.51221
3421.27330	1.52507
3419.34473	1.52930
3417.41617	1.52892
3415.48760	1.53051
3413.55904	1.53001
3411.63048	1.52868
3409.70191	1.53121
3407.77335	1.53348
3405.84478	1.53395
3403.91622	1.54006
3401.98765	1.54776
3400.05909	1.54322
3398.13052	1.53157
3396.20196	1.52936
3394.27340	1.54002
3392.34483	1.55061
3390.41627	1.54691
3388.48770	1.53535
3386.55914	1.53216
3384.63057	1.54065
3382.70201	1.55039
3380.77344	1.55376
3378.84488	1.55290
3376.91632	1.54827
3374.98775	1.54107
3373.05919	1.54048
3371.13062	1.54910
3369.20206	1.55727
3367.27349	1.55967
3365.34493	1.55798
3363.41636	1.55393
3361.48780	1.55049
3359.55924	1.54990
3357.63067	1.55406
3355.70211	1.56179
3353.77354	1.56738
3351.84498	1.56965
3349.91641	1.57033
3347.98785	1.56936
3346.05928	1.56878
3344.13072	1.57020
3342.20216	1.57128
3340.27359	1.56831
3338.34503	1.56210
3336.41646	1.56044
3334.48790	1.56573
3332.55933	1.56947
3330.63077	1.56918
3328.70220	1.57210
3326.77364	1.57775
3324.84508	1.57721
3322.91651	1.57239
3320.98795	1.57542
3319.05938	1.58648
3317.13082	1.58913
3315.20225	1.57985
3313.27369	1.57477
3311.34513	1.57437
3309.41656	1.57171
3307.48800	1.57378
3305.55943	1.58218
3303.63087	1.58878
3301.70230	1.58831
3299.77374	1.58485
3297.84517	1.58327
3295.91661	1.57922
3293.98805	1.57588
3292.05948	1.58162
3290.13092	1.58742
3288.20235	1.58493
3286.27379	1.58743
3284.34522	1.59762
3282.41666	1.59645
3280.48809	1.58371
3278.55953	1.57783
3276.63097	1.58316
3274.70240	1.59064
3272.77384	1.59024
3270.84527	1.58055
3268.91671	1.56969
3266.98814	1.56548
3265.05958	1.56830
3263.13101	1.57134
3261.20245	1.57016
3259.27389	1.56786
3257.34532	1.56534
3255.41676	1.56222
3253.48819	1.56266
3251.55963	1.56453
3249.63106	1.56093
3247.70250	1.55467
3245.77393	1.54962
3243.84537	1.54272
3241.91681	1.53705
3239.98824	1.53792
3238.05968	1.53997
3236.13111	1.53843
3234.20255	1.53960
3232.27398	1.54521
3230.34542	1.54424
3228.41685	1.53539
3226.48829	1.52811
3224.55973	1.52192
3222.63116	1.51663
3220.70260	1.51624
3218.77403	1.51864
3216.84547	1.52155
3214.91690	1.52327
3212.98834	1.52040
3211.05977	1.51505
3209.13121	1.51241
3207.20265	1.51118
3205.27408	1.50729
3203.34552	1.50330
3201.41695	1.50230
3199.48839	1.50331
3197.55982	1.50368
3195.63126	1.49844
3193.70269	1.48964
3191.77413	1.48541
3189.84557	1.48400
3187.91700	1.48040
3185.98844	1.47923
3184.05987	1.48081
3182.13131	1.47742
3180.20274	1.47123
3178.27418	1.46890
3176.34562	1.46818
3174.41705	1.46473
3172.48849	1.45807
3170.55992	1.45006
3168.63136	1.44569
3166.70279	1.44709
3164.77423	1.44853
3162.84566	1.44698
3160.91710	1.44493
3158.98854	1.44229
3157.05997	1.43918
3155.13141	1.43716
3153.20284	1.43573
3151.27428	1.43316
3149.34571	1.43040
3147.41715	1.43018
3145.48858	1.43169
3143.56002	1.43268
3141.63146	1.43139
3139.70289	1.42795
3137.77433	1.42692
3135.84576	1.43004
3133.91720	1.43126
3131.98863	1.42594
3130.06007	1.41895
3128.13150	1.41632
3126.20294	1.41620
3124.27438	1.41283
3122.34581	1.40781
3120.41725	1.40746
3118.48868	1.40918
3116.56012	1.40838
3114.63155	1.40777
3112.70299	1.40765
3110.77442	1.40666
3108.84586	1.40758
3106.91730	1.41086
3104.98873	1.41325
3103.06017	1.41254
3101.13160	1.40777
3099.20304	1.40176
3097.27447	1.39952
3095.34591	1.40077
3093.41734	1.40273
3091.48878	1.40424
3089.56022	1.40269
3087.63165	1.39666
3085.70309	1.39157
3083.77452	1.39212
3081.84596	1.39386
3079.91739	1.39269
3077.98883	1.38972
3076.06026	1.38612
3074.13170	1.38416
3072.20314	1.38529
3070.27457	1.38666
3068.34601	1.38427
3066.41744	1.37880
3064.48888	1.37323
3062.56031	1.36682
3060.63175	1.36178
3058.70318	1.36159
3056.77462	1.36153
3054.84606	1.35783
3052.91749	1.35441
3050.98893	1.35288
3049.06036	1.35021
3047.13180	1.34442
3045.20323	1.33710
3043.27467	1.33082
3041.34610	1.32666
3039.41754	1.32491
3037.48898	1.32418
3035.56041	1.32159
3033.63185	1.31611
3031.70328	1.30989
3029.77472	1.30639
3027.84615	1.30553
3025.91759	1.30382
3023.98903	1.30070
3022.06046	1.29812
3020.13190	1.29567
3018.20333	1.29347
3016.27477	1.29276
3014.34620	1.29269
3012.41764	1.29200
3010.48907	1.28943
3008.56051	1.28563
3006.63195	1.28335
3004.70338	1.28273
3002.77482	1.28284
3000.84625	1.28232
2998.91769	1.28017
2996.98912	1.27978
2995.06056	1.28409
2993.13199	1.29053
2991.20343	1.29595
2989.27487	1.30042
2987.34630	1.30423
2985.41774	1.30731
2983.48917	1.31124
2981.56061	1.31706
2979.63204	1.32389
2977.70348	1.33055
2975.77491	1.33682
2973.84635	1.34304
2971.91779	1.35035
2969.98922	1.36022
2968.06066	1.37028
2966.13209	1.37716
2964.20353	1.38211
2962.27496	1.38621
2960.34640	1.38808
2958.41783	1.38622
2956.48927	1.38088
2954.56071	1.37548
2952.63214	1.37170
2950.70358	1.36821
2948.77501	1.36553
2946.84645	1.36608
2944.91788	1.37098
2942.98932	1.37879
2941.06075	1.38827
2939.13219	1.39950
2937.20363	1.41135
2935.27506	1.42181
2933.34650	1.42997
2931.41793	1.43740
2929.48937	1.44601
2927.56080	1.45628
2925.63224	1.46853
2923.70367	1.48023
2921.77511	1.48483
2919.84655	1.47957
2917.91798	1.46832
2915.98942	1.45225
2914.06085	1.43034
2912.13229	1.40758
2910.20372	1.38911
2908.27516	1.37408
2906.34659	1.36046
2904.41803	1.34924
2902.48947	1.34179
2900.56090	1.33753
2898.63234	1.33440
2896.70377	1.33069
2894.77521	1.32636
2892.84664	1.32198
2890.91808	1.31782
2888.98952	1.31227
2887.06095	1.30430
2885.13239	1.29840
2883.20382	1.29786
2881.27526	1.29941
2879.34669	1.30039
2877.41813	1.30136
2875.48956	1.30219
2873.56100	1.30236
2871.63244	1.30085
2869.70387	1.29570
2867.77531	1.28813
2865.84674	1.28137
2863.91818	1.27744
2861.98961	1.27844
2860.06105	1.28477
2858.13248	1.29450
2856.20392	1.30521
2854.27536	1.31537
2852.34679	1.32398
2850.41823	1.32609
2848.48966	1.31303
2846.56110	1.28474
2844.63253	1.25345
2842.70397	1.22789
2840.77540	1.20850
2838.84684	1.19566
2836.91828	1.18837
2834.98971	1.18228
2833.06115	1.17531
2831.13258	1.16835
2829.20402	1.16200
2827.27545	1.15613
2825.34689	1.15056
2823.41832	1.14554
2821.48976	1.14188
2819.56120	1.13955
2817.63263	1.13710
2815.70407	1.13421
2813.77550	1.13177
2811.84694	1.12888
2809.91837	1.12430
2807.98981	1.11941
2806.06124	1.11582
2804.13268	1.11277
2802.20412	1.10872
2800.27555	1.10410
2798.34699	1.10034
2796.41842	1.09678
2794.48986	1.09292
2792.56129	1.09029
2790.63273	1.08791
2788.70416	1.08299
2786.77560	1.07713
2784.84704	1.07345
2782.91847	1.07106
2780.98991	1.06833
2779.06134	1.06577
2777.13278	1.06371
2775.20421	1.06152
2773.27565	1.05836
2771.34708	1.05421
2769.41852	1.05041
2767.48996	1.04806
2765.56139	1.04650
2763.63283	1.04475
2761.70426	1.04305
2759.77570	1.04103
2757.84713	1.03806
2755.91857	1.03572
2753.99001	1.03506
2752.06144	1.03396
2750.13288	1.03108
2748.20431	1.02820
2746.27575	1.02593
2744.34718	1.02369
2742.41862	1.02265
2740.49005	1.02257
2738.56149	1.02136
2736.63293	1.01948
2734.70436	1.01819
2732.77580	1.01645
2730.84723	1.01397
2728.91867	1.01200
2726.99010	1.01075
2725.06154	1.00998
2723.13297	1.00885
2721.20441	1.00609
2719.27585	1.00254
2717.34728	1.00028
2715.41872	0.99985
2713.49015	1.00002
2711.56159	0.99952
2709.63302	0.99804
2707.70446	0.99656
2705.77589	0.99626
2703.84733	0.99641
2701.91877	0.99567
2699.99020	0.99423
2698.06164	0.99281
2696.13307	0.99176
2694.20451	0.99084
2692.27594	0.98947
2690.34738	0.98797
2688.41881	0.98682
2686.49025	0.98555
2684.56169	0.98385
2682.63312	0.98213
2680.70456	0.98062
2678.77599	0.97909
2676.84743	0.97732
2674.91886	0.97531
2672.99030	0.97301
2671.06173	0.97035
2669.13317	0.96809
2667.20461	0.96707
2665.27604	0.96609
2663.34748	0.96355
2661.41891	0.96013
2659.49035	0.95762
2657.56178	0.95663
2655.63322	0.95605
2653.70465	0.95435
2651.77609	0.95170
2649.84753	0.94969
2647.91896	0.94854
2645.99040	0.94713
2644.06183	0.94485
2642.13327	0.94235
2640.20470	0.94058
2638.27614	0.93890
2636.34757	0.93677
2634.41901	0.93508
2632.49045	0.93379
2630.56188	0.93199
2628.63332	0.92967
2626.70475	0.92738
2624.77619	0.92531
2622.84762	0.92356
2620.91906	0.92200
2618.99049	0.92038
2617.06193	0.91918
2615.13337	0.91842
2613.20480	0.91690
2611.27624	0.91455
2609.34767	0.91277
2607.41911	0.91192
2605.49054	0.91094
2603.56198	0.90903
2601.63342	0.90650
2599.70485	0.90438
2597.77629	0.90343
2595.84772	0.90311
2593.91916	0.90209
2591.99059	0.90031
2590.06203	0.89846
2588.13346	0.89623
2586.20490	0.89398
2584.27634	0.89272
2582.34777	0.89208
2580.41921	0.89157
2578.49064	0.89120
2576.56208	0.89086
2574.63351	0.89071
2572.70495	0.89050
2570.77638	0.88958
2568.84782	0.88856
2566.91926	0.88817
2564.99069	0.88751
2563.06213	0.88579
2561.13356	0.88397
2559.20500	0.88295
2557.27643	0.88233
2555.34787	0.88132
2553.41930	0.87997
2551.49074	0.87901
2549.56218	0.87846
2547.63361	0.87753
2545.70505	0.87619
2543.77648	0.87531
2541.84792	0.87526
2539.91935	0.87516
2537.99079	0.87433
2536.06222	0.87343
2534.13366	0.87294
2532.20510	0.87245
2530.27653	0.87172
2528.34797	0.87097
2526.41940	0.87046
2524.49084	0.86988
2522.56227	0.86908
2520.63371	0.86874
2518.70514	0.86859
2516.77658	0.86759
2514.84802	0.86580
2512.91945	0.86398
2510.99089	0.86265
2509.06232	0.86179
2507.13376	0.86052
2505.20519	0.85843
2503.27663	0.85660
2501.34806	0.85530
2499.41950	0.85352
2497.49094	0.85137
2495.56237	0.84938
2493.63381	0.84735
2491.70524	0.84541
2489.77668	0.84361
2487.84811	0.84119
2485.91955	0.83807
2483.99098	0.83491
2482.06242	0.83206
2480.13386	0.82955
2478.20529	0.82725
2476.27673	0.82489
2474.34816	0.82244
2472.41960	0.82001
2470.49103	0.81768
2468.56247	0.81555
2466.63391	0.81362
2464.70534	0.81152
2462.77678	0.80917
2460.84821	0.80699
2458.91965	0.80483
2456.99108	0.80253
2455.06252	0.80038
2453.13395	0.79878
2451.20539	0.79780
2449.27683	0.79684
2447.34826	0.79507
2445.41970	0.79266
2443.49113	0.79067
2441.56257	0.78931
2439.63400	0.78799
2437.70544	0.78655
2435.77687	0.78515
2433.84831	0.78363
2431.91975	0.78185
2429.99118	0.78006
2428.06262	0.77878
2426.13405	0.77782
2424.20549	0.77646
2422.27692	0.77502
2420.34836	0.77411
2418.41979	0.77351
2416.49123	0.77260
2414.56267	0.77125
2412.63410	0.77005
2410.70554	0.76940
2408.77697	0.76879
2406.84841	0.76794
2404.91984	0.76741
2402.99128	0.76726
2401.06271	0.76681
2399.13415	0.76597
2397.20559	0.76531
2395.27702	0.76513
2393.34846	0.76517
2391.41989	0.76503
2389.49133	0.76446
2387.56276	0.76345
2385.63420	0.76273
2383.70563	0.76277
2381.77707	0.76297
2379.84851	0.76290
2377.91994	0.76276
2375.99138	0.76227
2374.06281	0.76119
2372.13425	0.76045
2370.20568	0.76082
2368.27712	0.76177
2366.34855	0.76223
2364.41999	0.76309
2362.49143	0.76564
2360.56286	0.76685
2358.63430	0.76506
2356.70573	0.76212
2354.77717	0.75969
2352.84860	0.75808
2350.92004	0.75674
2348.99147	0.75649
2347.06291	0.75763
2345.13435	0.75890
2343.20578	0.75898
2341.27722	0.75873
2339.34865	0.75884
2337.42009	0.75815
2335.49152	0.75662
2333.56296	0.75500
2331.63440	0.75295
2329.70583	0.75176
2327.77727	0.75212
2325.84870	0.75168
2323.92014	0.74972
2321.99157	0.74698
2320.06301	0.74330
2318.13444	0.73917
2316.20588	0.73591
2314.27732	0.73387
2312.34875	0.73177
2310.42019	0.72873
2308.49162	0.72543
2306.56306	0.72230
2304.63449	0.71949
2302.70593	0.71729
2300.77736	0.71553
2298.84880	0.71381
2296.92024	0.71170
2294.99167	0.70941
2293.06311	0.70794
2291.13454	0.70750
2289.20598	0.70721
2287.27741	0.70660
2285.34885	0.70585
2283.42028	0.70508
2281.49172	0.70432
2279.56316	0.70363
2277.63459	0.70337
2275.70603	0.70353
2273.77746	0.70339
2271.84890	0.70300
2269.92033	0.70300
2267.99177	0.70330
2266.06320	0.70334
2264.13464	0.70293
2262.20608	0.70242
2260.27751	0.70202
2258.34895	0.70143
2256.42038	0.70072
2254.49182	0.70016
2252.56325	0.69973
2250.63469	0.69931
2248.70612	0.69881
2246.77756	0.69829
2244.84900	0.69781
2242.92043	0.69761
2240.99187	0.69796
2239.06330	0.69839
2237.13474	0.69861
2235.20617	0.69903
2233.27761	0.69998
2231.34904	0.70128
2229.42048	0.70249
2227.49192	0.70357
2225.56335	0.70483
2223.63479	0.70601
2221.70622	0.70674
2219.77766	0.70720
2217.84909	0.70763
2215.92053	0.70793
2213.99196	0.70792
2212.06340	0.70775
2210.13484	0.70754
2208.20627	0.70720
2206.27771	0.70650
2204.34914	0.70533
2202.42058	0.70400
2200.49201	0.70286
2198.56345	0.70172
2196.63488	0.70041
2194.70632	0.69916
2192.77776	0.69814
2190.84919	0.69729
2188.92063	0.69642
2186.99206	0.69562
2185.06350	0.69505
2183.13493	0.69456
2181.20637	0.69404
2179.27781	0.69366
2177.34924	0.69349
2175.42068	0.69336
2173.49211	0.69317
2171.56355	0.69293
2169.63498	0.69253
2167.70642	0.69201
2165.77785	0.69147
2163.84929	0.69074
2161.92073	0.68971
2159.99216	0.68843
2158.06360	0.68689
2156.13503	0.68537
2154.20647	0.68405
2152.27790	0.68256
2150.34934	0.68062
2148.42077	0.67839
2146.49221	0.67618
2144.56365	0.67428
2142.63508	0.67268
2140.70652	0.67083
2138.77795	0.66839
2136.84939	0.66603
2134.92082	0.66444
2132.99226	0.66327
2131.06369	0.66206
2129.13513	0.66080
2127.20657	0.65948
2125.27800	0.65815
2123.34944	0.65692
2121.42087	0.65584
2119.49231	0.65476
2117.56374	0.65365
2115.63518	0.65252
2113.70661	0.65129
2111.77805	0.64998
2109.84949	0.64869
2107.92092	0.64771
2105.99236	0.64709
2104.06379	0.64645
2102.13523	0.64555
2100.20666	0.64456
2098.27810	0.64377
2096.34953	0.64322
2094.42097	0.64283
2092.49241	0.64266
2090.56384	0.64269
2088.63528	0.64278
2086.70671	0.64296
2084.77815	0.64313
2082.84958	0.64312
2080.92102	0.64315
2078.99245	0.64331
2077.06389	0.64349
2075.13533	0.64386
2073.20676	0.64450
2071.27820	0.64494
2069.34963	0.64504
2067.42107	0.64509
2065.49250	0.64521
2063.56394	0.64527
2061.63537	0.64510
2059.70681	0.64469
2057.77825	0.64418
2055.84968	0.64373
2053.92112	0.64320
2051.99255	0.64240
2050.06399	0.64154
2048.13542	0.64062
2046.20686	0.63925
2044.27830	0.63761
2042.34973	0.63607
2040.42117	0.63439
2038.49260	0.63248
2036.56404	0.63070
2034.63547	0.62933
2032.70691	0.62816
2030.77834	0.62667
2028.84978	0.62493
2026.92122	0.62344
2024.99265	0.62217
2023.06409	0.62105
2021.13552	0.62018
2019.20696	0.61944
2017.27839	0.61868
2015.34983	0.61768
2013.42126	0.61644
2011.49270	0.61519
2009.56414	0.61408
2007.63557	0.61305
2005.70701	0.61188
2003.77844	0.61042
2001.84988	0.60873
1999.92131	0.60713
1997.99275	0.60573
1996.06418	0.60448
1994.13562	0.60320
1992.20706	0.60166
1990.27849	0.60023
1988.34993	0.59902
1986.42136	0.59756
1984.49280	0.59581
1982.56423	0.59406
1980.63567	0.59259
1978.70710	0.59138
1976.77854	0.59009
1974.84998	0.58857
1972.92141	0.58689
1970.99285	0.58537
1969.06428	0.58420
1967.13572	0.58312
1965.20715	0.58193
1963.27859	0.58084
1961.35002	0.57994
1959.42146	0.57915
1957.49290	0.57829
1955.56433	0.57736
1953.63577	0.57657
1951.70720	0.57608
1949.77864	0.57589
1947.85007	0.57599
1945.92151	0.57625
1943.99294	0.57648
1942.06438	0.57640
1940.13582	0.57594
1938.20725	0.57555
1936.27869	0.57551
1934.35012	0.57568
1932.42156	0.57585
1930.49299	0.57598
1928.56443	0.57604
1926.63586	0.57597
1924.70730	0.57579
1922.77874	0.57551
1920.85017	0.57533
1918.92161	0.57532
1916.99304	0.57530
1915.06448	0.57548
1913.13591	0.57600
1911.20735	0.57666
1909.27878	0.57735
1907.35022	0.57812
1905.42166	0.57889
1903.49309	0.57954
1901.56453	0.58019
1899.63596	0.58113
1897.70740	0.58223
1895.77883	0.58320
1893.85027	0.58392
1891.92171	0.58443
1889.99314	0.58469
1888.06458	0.58463
1886.13601	0.58447
1884.20745	0.58418
1882.27888	0.58361
1880.35032	0.58285
1878.42175	0.58196
1876.49319	0.58096
1874.56463	0.57994
1872.63606	0.57918
1870.70750	0.57854
1868.77893	0.57742
1866.85037	0.57575
1864.92180	0.57439
1862.99324	0.57358
1861.06467	0.57303
1859.13611	0.57252
1857.20755	0.57202
1855.27898	0.57158
1853.35042	0.57117
1851.42185	0.57082
1849.49329	0.57075
1847.56472	0.57092
1845.63616	0.57083
1843.70759	0.56996
1841.77903	0.56896
1839.85047	0.56828
1837.92190	0.56751
1835.99334	0.56656
1834.06477	0.56589
1832.13621	0.56571
1830.20764	0.56518
1828.27908	0.56411
1826.35051	0.56336
1824.42195	0.56230
1822.49339	0.56073
1820.56482	0.55945
1818.63626	0.55859
1816.70769	0.55780
1814.77913	0.55721
1812.85056	0.55686
1810.92200	0.55638
1808.99343	0.55566
1807.06487	0.55503
1805.13631	0.55470
1803.20774	0.55428
1801.27918	0.55336
1799.35061	0.55217
1797.42205	0.55122
1795.49348	0.55069
1793.56492	0.55023
1791.63635	0.54935
1789.70779	0.54825
1787.77923	0.54757
1785.85066	0.54731
1783.92210	0.54746
1781.99353	0.54797
1780.06497	0.54865
1778.13640	0.54971
1776.20784	0.55130
1774.27927	0.55367
1772.35071	0.55669
1770.42215	0.55918
1768.49358	0.56152
1766.56502	0.56449
1764.63645	0.56791
1762.70789	0.57241
1760.77932	0.57815
1758.85076	0.58386
1756.92220	0.59037
1754.99363	0.59738
1753.06507	0.60453
1751.13650	0.61446
1749.20794	0.62765
1747.27937	0.63930
1745.35081	0.64833
1743.42224	0.65648
1741.49368	0.66444
1739.56512	0.67158
1737.63655	0.67632
1735.70799	0.67962
1733.77942	0.68379
1731.85086	0.68743
1729.92229	0.69016
1727.99373	0.69331
1726.06516	0.69733
1724.13660	0.70310
1722.20804	0.70980
1720.27947	0.71686
1718.35091	0.72801
1716.42234	0.74589
1714.49378	0.76072
1712.56521	0.77294
1710.63665	0.78717
1708.70808	0.80423
1706.77952	0.82801
1704.85096	0.85972
1702.92239	0.89010
1700.99383	0.93092
1699.06526	0.99292
1697.13670	1.05004
1695.20813	1.10502
1693.27957	1.14552
1691.35100	1.17655
1689.42244	1.21269
1687.49388	1.24462
1685.56531	1.27249
1683.63675	1.31023
1681.70818	1.33700
1679.77962	1.35219
1677.85105	1.36545
1675.92249	1.37903
1673.99392	1.39081
1672.06536	1.39814
1670.13680	1.40461
1668.20823	1.41271
1666.27967	1.41765
1664.35110	1.42083
1662.42254	1.42322
1660.49397	1.42380
1658.56541	1.42442
1656.63684	1.42446
1654.70828	1.42285
1652.77972	1.41993
1650.85115	1.41896
1648.92259	1.41708
1646.99402	1.41384
1645.06546	1.41279
1643.13689	1.41164
1641.20833	1.40994
1639.27976	1.40849
1637.35120	1.40802
1635.42264	1.40668
1633.49407	1.40325
1631.56551	1.39938
1629.63694	1.39445
1627.70838	1.38992
1625.77981	1.38521
1623.85125	1.37728
1621.92269	1.36806
1619.99412	1.36078
1618.06556	1.35053
1616.13699	1.33242
1614.20843	1.31704
1612.27986	1.30568
1610.35130	1.29362
1608.42273	1.28025
1606.49417	1.26796
1604.56561	1.25804
1602.63704	1.24891
1600.70848	1.24107
1598.77991	1.23580
1596.85135	1.23277
1594.92278	1.23135
1592.99422	1.23096
1591.06565	1.23162
1589.13709	1.23452
1587.20853	1.24032
1585.27996	1.24756
1583.35140	1.25531
1581.42283	1.26337
1579.49427	1.27123
1577.56570	1.28094
1575.63714	1.29334
1573.70857	1.30143
1571.78001	1.30738
1569.85145	1.31575
1567.92288	1.32345
1565.99432	1.32887
1564.06575	1.33392
1562.13719	1.33664
1560.20862	1.33982
1558.28006	1.35107
1556.35149	1.35527
1554.42293	1.35544
1552.49437	1.35687
1550.56580	1.35778
1548.63724	1.35708
1546.70867	1.35587
1544.78011	1.35392
1542.85154	1.35066
1540.92298	1.34695
1538.99441	1.34210
1537.06585	1.33835
1535.13729	1.33553
1533.20872	1.33295
1531.28016	1.33031
1529.35159	1.32807
1527.42303	1.32606
1525.49446	1.32371
1523.56590	1.32142
1521.63733	1.31861
1519.70877	1.31525
1517.78021	1.31008
1515.85164	1.30274
1513.92308	1.29488
1511.99451	1.28622
1510.06595	1.27789
1508.13738	1.26691
1506.20882	1.24267
1504.28025	1.22477
1502.35169	1.21272
1500.42313	1.19964
1498.49456	1.18289
1496.56600	1.16214
1494.63743	1.14524
1492.70887	1.13371
1490.78030	1.12031
1488.85174	1.10204
1486.92317	1.08878
1484.99461	1.08174
1483.06605	1.07776
1481.13748	1.07638
1479.20892	1.07777
1477.28035	1.08244
1475.35179	1.09133
1473.42322	1.10657
1471.49466	1.12431
1469.56610	1.13509
1467.63753	1.14191
1465.70897	1.14955
1463.78040	1.15815
1461.85184	1.16407
1459.92327	1.16842
1457.99471	1.17495
1456.06614	1.18163
1454.13758	1.18339
1452.20902	1.18315
1450.28045	1.18178
1448.35189	1.17871
1446.42332	1.17450
1444.49476	1.17089
1442.56619	1.16753
1440.63763	1.16377
1438.70906	1.15894
1436.78050	1.15041
1434.85194	1.14003
1432.92337	1.13241
1430.99481	1.12603
1429.06624	1.12031
1427.13768	1.11659
1425.20911	1.11503
1423.28055	1.11553
1421.35198	1.11787
1419.42342	1.12279
1417.49486	1.12801
1415.56629	1.12955
1413.63773	1.13002
1411.70916	1.13111
1409.78060	1.13192
1407.85203	1.13237
1405.92347	1.13395
1403.99490	1.13645
1402.06634	1.13813
1400.13778	1.13846
1398.20921	1.13787
1396.28065	1.13698
1394.35208	1.13555
1392.42352	1.13439
1390.49495	1.13444
1388.56639	1.13624
1386.63782	1.14060
1384.70926	1.14578
1382.78070	1.14994
1380.85213	1.15267
1378.92357	1.15287
1376.99500	1.14947
1375.06644	1.14245
1373.13787	1.13392
1371.20931	1.12632
1369.28074	1.11809
1367.35218	1.10885
1365.42362	1.10067
1363.49505	1.09283
1361.56649	1.08536
1359.63792	1.08087
1357.70936	1.07891
1355.78079	1.07810
1353.85223	1.07756
1351.92366	1.07654
1349.99510	1.07537
1348.06654	1.07500
1346.13797	1.07488
1344.20941	1.07400
1342.28084	1.07304
1340.35228	1.07313
1338.42371	1.07389
1336.49515	1.07480
1334.56659	1.07655
1332.63802	1.07942
1330.70946	1.08305
1328.78089	1.08673
1326.85233	1.08959
1324.92376	1.09107
1322.99520	1.09190
1321.06663	1.09329
1319.13807	1.09497
1317.20951	1.09623
1315.28094	1.09717
1313.35238	1.09757
1311.42381	1.09734
1309.49525	1.09708
1307.56668	1.09684
1305.63812	1.09627
1303.70955	1.09575
1301.78099	1.09513
1299.85243	1.09336
1297.92386	1.09045
1295.99530	1.08752
1294.06673	1.08523
1292.13817	1.08380
1290.20960	1.08309
1288.28104	1.08240
1286.35247	1.08185
1284.42391	1.08167
1282.49535	1.08139
1280.56678	1.08125
1278.63822	1.08157
1276.70965	1.08190
1274.78109	1.08232
1272.85252	1.08356
1270.92396	1.08572
1268.99539	1.08854
1267.06683	1.09132
1265.13827	1.09287
1263.20970	1.09312
1261.28114	1.09286
1259.35257	1.09241
1257.42401	1.09200
1255.49544	1.09159
1253.56688	1.09102
1251.63831	1.09014
1249.70975	1.08908
1247.78119	1.08844
1245.85262	1.08787
1243.92406	1.08650
1241.99549	1.08469
1240.06693	1.08266
1238.13836	1.07993
1236.20980	1.07642
1234.28123	1.07237
1232.35267	1.06794
1230.42411	1.06281
1228.49554	1.05660
1226.56698	1.04976
1224.63841	1.04279
1222.70985	1.03585
1220.78128	1.02937
1218.85272	1.02376
1216.92415	1.01923
1214.99559	1.01664
1213.06703	1.01673
1211.13846	1.01857
1209.20990	1.02067
1207.28133	1.02188
1205.35277	1.02088
1203.42420	1.01710
1201.49564	1.01127
1199.56708	1.00446
1197.63851	0.99739
1195.70995	0.99012
1193.78138	0.98280
1191.85282	0.97683
1189.92425	0.97308
1187.99569	0.97095
1186.06712	0.97015
1184.13856	0.97103
1182.21000	0.97392
1180.28143	0.97943
1178.35287	0.98784
1176.42430	0.99829
1174.49574	1.00958
1172.56717	1.02098
1170.63861	1.03288
1168.71004	1.04645
1166.78148	1.06197
1164.85292	1.07867
1162.92435	1.09450
1160.99579	1.10649
1159.06722	1.11320
1157.13866	1.11500
1155.21009	1.11286
1153.28153	1.10786
1151.35296	1.10074
1149.42440	1.09239
1147.49584	1.08393
1145.56727	1.07613
1143.63871	1.06998
1141.71014	1.06667
1139.78158	1.06708
1137.85301	1.07128
1135.92445	1.07793
1133.99588	1.08506
1132.06732	1.09210
1130.13876	1.10023
1128.21019	1.11010
1126.28163	1.12027
1124.35306	1.12895
1122.42450	1.13561
1120.49593	1.14117
1118.56737	1.14602
1116.63880	1.14817
1114.71024	1.14703
1112.78168	1.14420
1110.85311	1.13972
1108.92455	1.13392
1106.99598	1.12875
1105.06742	1.12480
1103.13885	1.12149
1101.21029	1.11886
1099.28172	1.11760
1097.35316	1.11830
1095.42460	1.12095
1093.49603	1.12581
1091.56747	1.13388
1089.63890	1.14546
1087.71034	1.15958
1085.78177	1.17386
1083.85321	1.18517
1081.92464	1.19235
1079.99608	1.19617
1078.06752	1.19639
1076.13895	1.19205
1074.21039	1.18385
1072.28182	1.17323
1070.35326	1.16126
1068.42469	1.14954
1066.49613	1.13977
1064.56756	1.13268
1062.63900	1.12809
1060.71044	1.12514
1058.78187	1.12284
1056.85331	1.12080
1054.92474	1.11906
1052.99618	1.11832
1051.06761	1.11937
1049.13905	1.12172
1047.21049	1.12474
1045.28192	1.12911
1043.35336	1.13541
1041.42479	1.14236
1039.49623	1.14735
1037.56766	1.14931
1035.63910	1.14918
1033.71053	1.14723
1031.78197	1.14319
1029.85341	1.13742
1027.92484	1.12926
1025.99628	1.11796
1024.06771	1.10546
1022.13915	1.09390
1020.21058	1.08292
1018.28202	1.07183
1016.35345	1.06099
1014.42489	1.04937
1012.49633	1.03499
1010.56776	1.01825
1008.63920	1.00106
1006.71063	0.98516
1004.78207	0.97198
1002.85350	0.96233
1000.92494	0.95615
998.99637	0.95292
997.06781	0.95236
995.13925	0.95330
993.21068	0.95288
991.28212	0.94901
989.35355	0.94190
987.42499	0.93264
985.49642	0.92201
983.56786	0.91105
981.63929	0.90097
979.71073	0.89243
977.78217	0.88545
975.85360	0.87946
973.92504	0.87356
971.99647	0.86685
970.06791	0.85927
968.13934	0.85152
966.21078	0.84429
964.28221	0.83859
962.35365	0.83597
960.42509	0.83755
958.49652	0.84241
956.56796	0.84724
954.63939	0.84855
952.71083	0.84524
950.78226	0.83854
948.85370	0.83046
946.92513	0.82283
944.99657	0.81647
943.06801	0.81083
941.13944	0.80506
939.21088	0.79923
937.28231	0.79350
935.35375	0.78736
933.42518	0.78040
931.49662	0.77284
929.56805	0.76509
927.63949	0.75758
925.71093	0.75062
923.78236	0.74393
921.85380	0.73681
919.92523	0.72852
917.99667	0.71937
916.06810	0.71066
914.13954	0.70321
912.21098	0.69723
910.28241	0.69301
908.35385	0.69088
906.42528	0.69123
904.49672	0.69416
902.56815	0.69881
900.63959	0.70397
898.71102	0.70890
896.78246	0.71326
894.85390	0.71740
892.92533	0.72221
890.99677	0.72791
889.06820	0.73403
887.13964	0.74060
885.21107	0.74826
883.28251	0.75697
881.35394	0.76591
879.42538	0.77461
877.49682	0.78299
875.56825	0.79093
873.63969	0.79793
871.71112	0.80341
869.78256	0.80724
867.85399	0.80944
865.92543	0.80997
863.99686	0.80892
862.06830	0.80698
860.13974	0.80522
858.21117	0.80411
856.28261	0.80329
854.35404	0.80228
852.42548	0.80142
850.49691	0.80110
848.56835	0.80135
846.63978	0.80235
844.71122	0.80470
842.78266	0.80878
840.85409	0.81422
838.92553	0.82047
836.99696	0.82715
835.06840	0.83355
833.13983	0.83961
831.21127	0.84632
829.28270	0.85374
827.35414	0.86087
825.42558	0.86777
823.49701	0.87536
821.56845	0.88337
819.63988	0.89026
817.71132	0.89548
815.78275	0.90015
813.85419	0.90496
811.92562	0.90994
809.99706	0.91483
808.06850	0.91861
806.13993	0.92068
804.21137	0.92135
802.28280	0.92127
800.35424	0.92127
798.42567	0.92199
796.49711	0.92257
794.56854	0.92233
792.63998	0.92296
790.71142	0.92578
788.78285	0.92988
786.85429	0.93473
784.92572	0.94024
782.99716	0.94522
781.06859	0.94934
779.14003	0.95309
777.21147	0.95591
775.28290	0.95773
773.35434	0.95919
771.42577	0.96023
769.49721	0.96002
767.56864	0.95802
765.64008	0.95482
763.71151	0.95110
761.78295	0.94689
759.85439	0.94243
757.92582	0.93899
755.99726	0.93685
754.06869	0.93427
752.14013	0.93102
750.21156	0.92882
748.28300	0.92830
746.35443	0.92842
744.42587	0.92770
742.49731	0.92598
740.56874	0.92457
738.64018	0.92429
736.71161	0.92534
734.78305	0.92877
732.85448	0.93535
730.92592	0.94331
728.99735	0.95019
727.06879	0.95695
725.14023	0.96576
723.21166	0.97608
721.28310	0.98688
719.35453	0.99699
717.42597	1.00510
715.49740	1.01329
713.56884	1.02318
711.64027	1.03282
709.71171	1.04215
707.78315	1.05238
705.85458	1.06155
703.92602	1.06767
701.99745	1.07136
700.06889	1.07435
698.14032	1.07773
696.21176	1.08111
694.28319	1.08402
692.35463	1.08649
690.42607	1.08768
688.49750	1.08697
686.56894	1.08592
684.64037	1.08605
682.71181	1.08619
680.78324	1.08606
678.85468	1.08741
676.92611	1.08938
674.99755	1.09007
673.06899	1.09067
671.14042	1.09223
669.21186	1.09450
667.28329	1.09654
665.35473	1.09657
663.42616	1.09496
661.49760	1.09323
659.56903	1.09254
657.64047	1.09044
655.71191	1.08546
653.78334	1.07992
651.85478	1.07492
649.92621	1.07048
647.99765	1.06693
646.06908	1.06499
644.14052	1.06558
642.21195	1.06733
640.28339	1.06837
638.35483	1.06874
636.42626	1.06897
634.49770	1.07054
632.56913	1.07399
630.64057	1.07790
628.71200	1.08250
626.78344	1.08814
624.85488	1.09342
622.92631	1.09819
620.99775	1.10340
619.06918	1.10890
617.14062	1.11284
615.21205	1.11371
613.28349	1.11230
611.35492	1.11037
609.42636	1.10969
607.49780	1.10947
605.56923	1.10744
603.64067	1.10346
601.71210	1.09792
599.78354	1.09241
