3997.91406	0.88204
3995.98550	0.88040
3994.05693	0.87862
3992.12837	0.87757
3990.19980	0.87672
3988.27124	0.87596
3986.34268	0.87497
3984.41411	0.87350
3982.48555	0.87262
3980.55698	0.87274
3978.62842	0.87300
3976.69985	0.87308
3974.77129	0.87314
3972.84272	0.87304
3970.91416	0.87255
3968.98560	0.87196
3967.05703	0.87226
3965.12847	0.87320
3963.19990	0.87348
3961.27134	0.87394
3959.34277	0.87494
3957.41421	0.87391
3955.48564	0.87150
3953.55708	0.87157
3951.62852	0.87346
3949.69995	0.87286
3947.77139	0.87026
3945.84282	0.86961
3943.91426	0.86970
3941.98569	0.86806
3940.05713	0.86697
3938.12856	0.86812
3936.20000	0.86967
3934.27144	0.86951
3932.34287	0.86755
3930.41431	0.86632
3928.48574	0.86612
3926.55718	0.86458
3924.62861	0.86258
3922.70005	0.86238
3920.77148	0.86267
3918.84292	0.86184
3916.91436	0.86045
3914.98579	0.85964
3913.05723	0.85906
3911.12866	0.85810
3909.20010	0.85744
3907.27153	0.85762
3905.34297	0.85823
3903.41440	0.85852
3901.48584	0.85694
3899.55728	0.85366
3897.62871	0.85208
3895.70015	0.85300
3893.77158	0.85440
3891.84302	0.85457
3889.91445	0.85440
3887.98589	0.85553
3886.05733	0.85671
3884.12876	0.85615
3882.20020	0.85506
3880.27163	0.85433
3878.34307	0.85332
3876.41450	0.85164
3874.48594	0.85073
3872.55737	0.85378
3870.62881	0.85821
3868.70025	0.85750
3866.77168	0.85455
3864.84312	0.85263
3862.91455	0.85122
3860.98599	0.85069
3859.05742	0.85116
3857.12886	0.85232
3855.20029	0.85312
3853.27173	0.85010
3851.34317	0.84598
3849.41460	0.84490
3847.48604	0.84517
3845.55747	0.84535
3843.62891	0.84494
3841.70034	0.84479
3839.77178	0.84501
3837.84321	0.84481
3835.91465	0.84521
3833.98609	0.84621
3832.05752	0.84614
3830.12896	0.84501
3828.20039	0.84423
3826.27183	0.84466
3824.34326	0.84632
3822.41470	0.84870
3820.48613	0.85089
3818.55757	0.85095
3816.62901	0.84763
3814.70044	0.84292
3812.77188	0.84139
3810.84331	0.84243
3808.91475	0.84365
3806.98618	0.84347
3805.05762	0.84281
3803.12905	0.84235
3801.20049	0.84025
3799.27193	0.83729
3797.34336	0.83568
3795.41480	0.83585
3793.48623	0.83673
3791.55767	0.83668
3789.62910	0.83566
3787.70054	0.83483
3785.77197	0.83465
3783.84341	0.83474
3781.91485	0.83483
3779.98628	0.83407
3778.05772	0.83245
3776.12915	0.83229
3774.20059	0.83332
3772.27202	0.83361
3770.34346	0.83318
3768.41489	0.83286
3766.48633	0.83210
3764.55777	0.83107
3762.62920	0.83029
3760.70064	0.82927
3758.77207	0.82756
3756.84351	0.82632
3754.91494	0.82607
3752.98638	0.82711
3751.05781	0.82990
3749.12925	0.83025
3747.20069	0.82800
3745.27212	0.82623
3743.34356	0.82659
3741.41499	0.82805
3739.48643	0.82884
3737.55786	0.82898
3735.62930	0.82987
3733.70074	0.83081
3731.77217	0.82890
3729.84361	0.82612
3727.91504	0.82498
3725.98648	0.82531
3724.05791	0.82507
3722.12935	0.82403
3720.20078	0.82400
3718.27222	0.82524
3716.34366	0.82639
3714.41509	0.82727
3712.48653	0.82861
3710.55796	0.82911
3708.62940	0.82758
3706.70083	0.82592
3704.77227	0.82453
3702.84370	0.82306
3700.91514	0.82246
3698.98658	0.82300
3697.05801	0.82375
3695.12945	0.82450
3693.20088	0.82530
3691.27232	0.82646
3689.34375	0.82829
3687.41519	0.82998
3685.48662	0.83087
3683.55806	0.83120
3681.62950	0.83178
3679.70093	0.83350
3677.77237	0.83587
3675.84380	0.83787
3673.91524	0.83900
3671.98667	0.83988
3670.05811	0.84384
3668.12954	0.84985
3666.20098	0.85345
3664.27242	0.85621
3662.34385	0.85946
3660.41529	0.86261
3658.48672	0.86555
3656.55816	0.86959
3654.62959	0.87338
3652.70103	0.87513
3650.77246	0.87623
3648.84390	0.88056
3646.91534	0.88836
3644.98677	0.89493
3643.05821	0.90001
3641.12964	0.90403
3639.20108	0.90785
3637.27251	0.91186
3635.34395	0.91524
3633.41538	0.91812
3631.48682	0.92128
3629.55826	0.92571
3627.62969	0.93099
3625.70113	0.93579
3623.77256	0.94068
3621.84400	0.94470
3619.91543	0.94718
3617.98687	0.95037
3616.05830	0.95557
3614.12974	0.96071
3612.20118	0.96365
3610.27261	0.96654
3608.34405	0.97255
3606.41548	0.97886
3604.48692	0.98268
3602.55835	0.98589
3600.62979	0.98967
3598.70123	0.99397
3596.77266	0.99796
3594.84410	1.00203
3592.91553	1.00756
3590.98697	1.01305
3589.05840	1.01822
3587.12984	1.02409
3585.20127	1.02925
3583.27271	1.03324
3581.34415	1.03657
3579.41558	1.04020
3577.48702	1.04531
3575.55845	1.05137
3573.62989	1.05702
3571.70132	1.06206
3569.77276	1.06667
3567.84419	1.07157
3565.91563	1.07752
3563.98707	1.08296
3562.05850	1.08765
3560.12994	1.09172
3558.20137	1.09546
3556.27281	1.09984
3554.34424	1.10504
3552.41568	1.11052
3550.48711	1.11627
3548.55855	1.12254
3546.62999	1.12870
3544.70142	1.13464
3542.77286	1.14069
3540.84429	1.14588
3538.91573	1.15022
3536.98716	1.15477
3535.05860	1.16060
3533.13003	1.16840
3531.20147	1.17774
3529.27291	1.18645
3527.34434	1.19201
3525.41578	1.19540
3523.48721	1.20011
3521.55865	1.20701
3519.63008	1.21466
3517.70152	1.22396
3515.77295	1.23431
3513.84439	1.24174
3511.91583	1.24538
3509.98726	1.24852
3508.05870	1.25359
3506.13013	1.26084
3504.20157	1.27107
3502.27300	1.28243
3500.34444	1.29150
3498.41587	1.29838
3496.48731	1.30397
3494.55875	1.31064
3492.63018	1.31895
3490.70162	1.32587
3488.77305	1.33171
3486.84449	1.33916
3484.91592	1.34745
3482.98736	1.35479
3481.05879	1.36091
3479.13023	1.36552
3477.20167	1.36887
3475.27310	1.37144
3473.34454	1.37235
3471.41597	1.37214
3469.48741	1.37388
3467.55884	1.37776
3465.63028	1.38207
3463.70171	1.38593
3461.77315	1.38915
3459.84459	1.39500
3457.91602	1.40415
3455.98746	1.41260
3454.05889	1.41937
3452.13033	1.42525
3450.20176	1.42967
3448.27320	1.43022
3446.34464	1.42560
3444.41607	1.42272
3442.48751	1.42836
3440.55894	1.43746
3438.63038	1.44178
3436.70181	1.44255
3434.77325	1.44385
3432.84468	1.44653
3430.91612	1.44966
3428.98756	1.45020
3427.05899	1.44707
3425.13043	1.44346
3423.20186	1.44170
3421.27330	1.44080
3419.34473	1.44021
3417.41617	1.44014
3415.48760	1.44049
3413.55904	1.44300
3411.63048	1.44925
3409.70191	1.45566
3407.77335	1.45757
3405.84478	1.45817
3403.91622	1.46135
3401.98765	1.46415
3400.05909	1.46540
3398.13052	1.46749
3396.20196	1.47073
3394.27340	1.47315
3392.34483	1.47450
3390.41627	1.47702
3388.48770	1.47788
3386.55914	1.47502
3384.63057	1.47543
3382.70201	1.47971
3380.77344	1.48055
3378.84488	1.48053
3376.91632	1.48482
3374.98775	1.48840
3373.05919	1.48776
3371.13062	1.48626
3369.20206	1.48518
3367.27349	1.48574
3365.34493	1.48824
3363.41636	1.48865
3361.48780	1.48796
3359.55924	1.49075
3357.63067	1.49496
3355.70211	1.49670
3353.77354	1.49612
3351.84498	1.49536
3349.91641	1.49714
3347.98785	1.50185
3346.05928	1.50831
3344.13072	1.51654
3342.20216	1.52440
3340.27359	1.52903
3338.34503	1.53260
3336.41646	1.53893
3334.48790	1.54613
3332.55933	1.55021
3330.63077	1.55137
3328.70220	1.55253
3326.77364	1.55843
3324.84508	1.56995
3322.91651	1.57998
3320.98795	1.58374
3319.05938	1.58608
3317.13082	1.59155
3315.20225	1.59552
3313.27369	1.59565
3311.34513	1.59770
3309.41656	1.60350
3307.48800	1.61056
3305.55943	1.61719
3303.63087	1.62149
3301.70230	1.62468
3299.77374	1.62933
3297.84517	1.63276
3295.91661	1.63253
3293.98805	1.63215
3292.05948	1.63446
3290.13092	1.63827
3288.20235	1.64192
3286.27379	1.64465
3284.34522	1.64671
3282.41666	1.64900
3280.48809	1.64902
3278.55953	1.64356
3276.63097	1.63715
3274.70240	1.63452
3272.77384	1.63188
3270.84527	1.62830
3268.91671	1.62790
3266.98814	1.62758
3265.05958	1.62184
3263.13101	1.61129
3261.20245	1.59985
3259.27389	1.59188
3257.34532	1.58648
3255.41676	1.57839
3253.48819	1.56632
3251.55963	1.55398
3249.63106	1.54344
3247.70250	1.53315
3245.77393	1.52327
3243.84537	1.51389
3241.91681	1.50492
3239.98824	1.49813
3238.05968	1.49091
3236.13111	1.48152
3234.20255	1.47202
3232.27398	1.46163
3230.34542	1.45137
3228.41685	1.44405
3226.48829	1.43781
3224.55973	1.43143
3222.63116	1.42717
3220.70260	1.42367
3218.77403	1.41832
3216.84547	1.41334
3214.91690	1.40999
3212.98834	1.40553
3211.05977	1.39877
3209.13121	1.39281
3207.20265	1.39020
3205.27408	1.38855
3203.34552	1.38365
3201.41695	1.37535
3199.48839	1.36751
3197.55982	1.36235
3195.63126	1.35835
3193.70269	1.35431
3191.77413	1.35167
3189.84557	1.35049
3187.91700	1.34799
3185.98844	1.34341
3184.05987	1.33760
3182.13131	1.33054
3180.20274	1.32350
3178.27418	1.31836
3176.34562	1.31393
3174.41705	1.30843
3172.48849	1.30357
3170.55992	1.30012
3168.63136	1.29574
3166.70279	1.28925
3164.77423	1.28170
3162.84566	1.27442
3160.91710	1.26848
3158.98854	1.26418
3157.05997	1.26084
3155.13141	1.25807
3153.20284	1.25516
3151.27428	1.25183
3149.34571	1.24883
3147.41715	1.24579
3145.48858	1.24331
3143.56002	1.24257
3141.63146	1.24180
3139.70289	1.23954
3137.77433	1.23708
3135.84576	1.23598
3133.91720	1.23651
3131.98863	1.23747
3130.06007	1.23759
3128.13150	1.23830
3126.20294	1.24018
3124.27438	1.24030
3122.34581	1.23831
3120.41725	1.23729
3118.48868	1.23763
3116.56012	1.23756
3114.63155	1.23807
3112.70299	1.24088
3110.77442	1.24277
3108.84586	1.24087
3106.91730	1.23824
3104.98873	1.23758
3103.06017	1.23751
3101.13160	1.23636
3099.20304	1.23481
3097.27447	1.23309
3095.34591	1.23004
3093.41734	1.22675
3091.48878	1.22470
3089.56022	1.22316
3087.63165	1.22111
3085.70309	1.21790
3083.77452	1.21412
3081.84596	1.21122
3079.91739	1.20865
3077.98883	1.20565
3076.06026	1.20310
3074.13170	1.20079
3072.20314	1.19801
3070.27457	1.19522
3068.34601	1.19246
3066.41744	1.18997
3064.48888	1.18850
3062.56031	1.18690
3060.63175	1.18385
3058.70318	1.18051
3056.77462	1.17742
3054.84606	1.17405
3052.91749	1.17112
3050.98893	1.16893
3049.06036	1.16641
3047.13180	1.16254
3045.20323	1.15748
3043.27467	1.15246
3041.34610	1.14844
3039.41754	1.14537
3037.48898	1.14259
3035.56041	1.14001
3033.63185	1.13690
3031.70328	1.13188
3029.77472	1.12603
3027.84615	1.12176
3025.91759	1.11929
3023.98903	1.11690
3022.06046	1.11342
3020.13190	1.10968
3018.20333	1.10745
3016.27477	1.10657
3014.34620	1.10566
3012.41764	1.10475
3010.48907	1.10358
3008.56051	1.10159
3006.63195	1.09958
3004.70338	1.09835
3002.77482	1.09849
3000.84625	1.10026
2998.91769	1.10216
2996.98912	1.10304
2995.06056	1.10503
2993.13199	1.10947
2991.20343	1.11427
2989.27487	1.11802
2987.34630	1.12106
2985.41774	1.12470
2983.48917	1.13090
2981.56061	1.13932
2979.63204	1.14774
2977.70348	1.15509
2975.77491	1.16126
2973.84635	1.16709
2971.91779	1.17434
2969.98922	1.18293
2968.06066	1.19168
2966.13209	1.20036
2964.20353	1.20739
2962.27496	1.20983
2960.34640	1.20723
2958.41783	1.20251
2956.48927	1.19770
2954.56071	1.19229
2952.63214	1.18615
2950.70358	1.18080
2948.77501	1.17920
2946.84645	1.18231
2944.91788	1.18703
2942.98932	1.19229
2941.06075	1.20084
2939.13219	1.21336
2937.20363	1.22752
2935.27506	1.24023
2933.34650	1.25102
2931.41793	1.26244
2929.48937	1.27438
2927.56080	1.28595
2925.63224	1.29784
2923.70367	1.30883
2921.77511	1.31816
2919.84655	1.32449
2917.91798	1.32098
2915.98942	1.30278
2914.06085	1.27505
2912.13229	1.24660
2910.20372	1.22245
2908.27516	1.20315
2906.34659	1.18826
2904.41803	1.17817
2902.48947	1.17161
2900.56090	1.16605
2898.63234	1.16076
2896.70377	1.15619
2894.77521	1.15193
2892.84664	1.14696
2890.91808	1.14097
2888.98952	1.13479
2887.06095	1.12977
2885.13239	1.12612
2883.20382	1.12386
2881.27526	1.12375
2879.34669	1.12503
2877.41813	1.12584
2875.48956	1.12564
2873.56100	1.12369
2871.63244	1.11852
2869.70387	1.11083
2867.77531	1.10355
2865.84674	1.09833
2863.91818	1.09561
2861.98961	1.09645
2860.06105	1.10151
2858.13248	1.11083
2856.20392	1.12371
2854.27536	1.13819
2852.34679	1.15176
2850.41823	1.15779
2848.48966	1.14606
2846.56110	1.11690
2844.63253	1.08402
2842.70397	1.05889
2840.77540	1.04288
2838.84684	1.03150
2836.91828	1.02160
2834.98971	1.01367
2833.06115	1.00806
2831.13258	1.00355
2829.20402	0.99937
2827.27545	0.99548
2825.34689	0.99193
2823.41832	0.98920
2821.48976	0.98723
2819.56120	0.98472
2817.63263	0.98133
2815.70407	0.97830
2813.77550	0.97593
2811.84694	0.97355
2809.91837	0.97069
2807.98981	0.96714
2806.06124	0.96340
2804.13268	0.96011
2802.20412	0.95721
2800.27555	0.95457
2798.34699	0.95186
2796.41842	0.94850
2794.48986	0.94499
2792.56129	0.94216
2790.63273	0.93980
2788.70416	0.93725
2786.77560	0.93413
2784.84704	0.93083
2782.91847	0.92803
2780.98991	0.92598
2779.06134	0.92450
2777.13278	0.92280
2775.20421	0.92077
2773.27565	0.91911
2771.34708	0.91779
2769.41852	0.91644
2767.48996	0.91501
2765.56139	0.91343
2763.63283	0.91177
2761.70426	0.91043
2759.77570	0.90955
2757.84713	0.90878
2755.91857	0.90766
2753.99001	0.90615
2752.06144	0.90462
2750.13288	0.90314
2748.20431	0.90180
2746.27575	0.90081
2744.34718	0.89967
2742.41862	0.89837
2740.49005	0.89721
2738.56149	0.89583
2736.63293	0.89417
2734.70436	0.89244
2732.77580	0.89096
2730.84723	0.88994
2728.91867	0.88906
2726.99010	0.88797
2725.06154	0.88664
2723.13297	0.88530
2721.20441	0.88434
2719.27585	0.88387
2717.34728	0.88345
2715.41872	0.88265
2713.49015	0.88161
2711.56159	0.88057
2709.63302	0.87990
2707.70446	0.87965
2705.77589	0.87899
2703.84733	0.87798
2701.91877	0.87771
2699.99020	0.87781
2698.06164	0.87697
2696.13307	0.87558
2694.20451	0.87485
2692.27594	0.87437
2690.34738	0.87327
2688.41881	0.87167
2686.49025	0.86986
2684.56169	0.86826
2682.63312	0.86716
2680.70456	0.86595
2678.77599	0.86412
2676.84743	0.86208
2674.91886	0.86028
2672.99030	0.85875
2671.06173	0.85705
2669.13317	0.85504
2667.20461	0.85329
2665.27604	0.85194
2663.34748	0.85082
2661.41891	0.84990
2659.49035	0.84866
2657.56178	0.84715
2655.63322	0.84625
2653.70465	0.84603
2651.77609	0.84580
2649.84753	0.84537
2647.91896	0.84493
2645.99040	0.84439
2644.06183	0.84349
2642.13327	0.84244
2640.20470	0.84177
2638.27614	0.84144
2636.34757	0.84096
2634.41901	0.84032
2632.49045	0.83961
2630.56188	0.83889
2628.63332	0.83834
2626.70475	0.83757
2624.77619	0.83639
2622.84762	0.83503
2620.91906	0.83331
2618.99049	0.83141
2617.06193	0.82982
2615.13337	0.82856
2613.20480	0.82748
2611.27624	0.82641
2609.34767	0.82511
2607.41911	0.82365
2605.49054	0.82218
2603.56198	0.82076
2601.63342	0.81942
2599.70485	0.81834
2597.77629	0.81765
2595.84772	0.81717
2593.91916	0.81659
2591.99059	0.81601
2590.06203	0.81568
2588.13346	0.81542
2586.20490	0.81509
2584.27634	0.81503
2582.34777	0.81560
2580.41921	0.81629
2578.49064	0.81613
2576.56208	0.81507
2574.63351	0.81405
2572.70495	0.81371
2570.77638	0.81387
2568.84782	0.81377
2566.91926	0.81300
2564.99069	0.81192
2563.06213	0.81076
2561.13356	0.80960
2559.20500	0.80853
2557.27643	0.80738
2555.34787	0.80609
2553.41930	0.80483
2551.49074	0.80363
2549.56218	0.80237
2547.63361	0.80094
2545.70505	0.79926
2543.77648	0.79761
2541.84792	0.79657
2539.91935	0.79595
2537.99079	0.79495
2536.06222	0.79357
2534.13366	0.79257
2532.20510	0.79226
2530.27653	0.79205
2528.34797	0.79136
2526.41940	0.79050
2524.49084	0.78990
2522.56227	0.78917
2520.63371	0.78795
2518.70514	0.78683
2516.77658	0.78645
2514.84802	0.78628
2512.91945	0.78558
2510.99089	0.78470
2509.06232	0.78388
2507.13376	0.78263
2505.20519	0.78096
2503.27663	0.77946
2501.34806	0.77828
2499.41950	0.77697
2497.49094	0.77527
2495.56237	0.77350
2493.63381	0.77199
2491.70524	0.77050
2489.77668	0.76869
2487.84811	0.76675
2485.91955	0.76509
2483.99098	0.76362
2482.06242	0.76220
2480.13386	0.76081
2478.20529	0.75949
2476.27673	0.75830
2474.34816	0.75704
2472.41960	0.75585
2470.49103	0.75520
2468.56247	0.75498
2466.63391	0.75472
2464.70534	0.75441
2462.77678	0.75419
2460.84821	0.75433
2458.91965	0.75483
2456.99108	0.75527
2455.06252	0.75533
2453.13395	0.75523
2451.20539	0.75538
2449.27683	0.75581
2447.34826	0.75589
2445.41970	0.75532
2443.49113	0.75475
2441.56257	0.75455
2439.63400	0.75440
2437.70544	0.75394
2435.77687	0.75324
2433.84831	0.75239
2431.91975	0.75112
2429.99118	0.74954
2428.06262	0.74797
2426.13405	0.74623
2424.20549	0.74436
2422.27692	0.74260
2420.34836	0.74091
2418.41979	0.73913
2416.49123	0.73747
2414.56267	0.73619
2412.63410	0.73514
2410.70554	0.73408
2408.77697	0.73302
2406.84841	0.73173
2404.91984	0.73020
2402.99128	0.72907
2401.06271	0.72845
2399.13415	0.72773
2397.20559	0.72693
2395.27702	0.72643
2393.34846	0.72608
2391.41989	0.72561
2389.49133	0.72504
2387.56276	0.72442
2385.63420	0.72355
2383.70563	0.72255
2381.77707	0.72191
2379.84851	0.72188
2377.91994	0.72195
2375.99138	0.72138
2374.06281	0.72000
2372.13425	0.71801
2370.20568	0.71578
2368.27712	0.71441
2366.34855	0.71266
2364.41999	0.70785
2362.49143	0.70286
2360.56286	0.70185
2358.63430	0.70314
2356.70573	0.70298
2354.77717	0.70171
2352.84860	0.70065
2350.92004	0.69914
2348.99147	0.69740
2347.06291	0.69579
2345.13435	0.69483
2343.20578	0.69514
2341.27722	0.69445
2339.34865	0.69246
2337.42009	0.69209
2335.49152	0.69347
2333.56296	0.69522
2331.63440	0.69694
2329.70583	0.69806
2327.77727	0.69832
2325.84870	0.69859
2323.92014	0.69931
2321.99157	0.69971
2320.06301	0.69928
2318.13444	0.69880
2316.20588	0.69891
2314.27732	0.69885
2312.34875	0.69818
2310.42019	0.69737
2308.49162	0.69608
2306.56306	0.69413
2304.63449	0.69238
2302.70593	0.69096
2300.77736	0.68904
2298.84880	0.68641
2296.92024	0.68366
2294.99167	0.68111
2293.06311	0.67877
2291.13454	0.67667
2289.20598	0.67460
2287.27741	0.67237
2285.34885	0.67020
2283.42028	0.66851
2281.49172	0.66733
2279.56316	0.66643
2277.63459	0.66564
2275.70603	0.66491
2273.77746	0.66443
2271.84890	0.66428
2269.92033	0.66429
2267.99177	0.66434
2266.06320	0.66462
2264.13464	0.66512
2262.20608	0.66561
2260.27751	0.66600
2258.34895	0.66646
2256.42038	0.66698
2254.49182	0.66732
2252.56325	0.66743
2250.63469	0.66736
2248.70612	0.66717
2246.77756	0.66682
2244.84900	0.66627
2242.92043	0.66572
2240.99187	0.66511
2239.06330	0.66408
2237.13474	0.66267
2235.20617	0.66112
2233.27761	0.65958
2231.34904	0.65807
2229.42048	0.65657
2227.49192	0.65510
2225.56335	0.65380
2223.63479	0.65272
2221.70622	0.65153
2219.77766	0.65002
2217.84909	0.64867
2215.92053	0.64783
2213.99196	0.64729
2212.06340	0.64692
2210.13484	0.64668
2208.20627	0.64654
2206.27771	0.64645
2204.34914	0.64662
2202.42058	0.64720
2200.49201	0.64781
2198.56345	0.64837
2196.63488	0.64907
2194.70632	0.64975
2192.77776	0.65012
2190.84919	0.65018
2188.92063	0.65028
2186.99206	0.65063
2185.06350	0.65089
2183.13493	0.65066
2181.20637	0.64995
2179.27781	0.64909
2177.34924	0.64829
2175.42068	0.64746
2173.49211	0.64637
2171.56355	0.64489
2169.63498	0.64306
2167.70642	0.64102
2165.77785	0.63901
2163.84929	0.63710
2161.92073	0.63508
2159.99216	0.63300
2158.06360	0.63106
2156.13503	0.62933
2154.20647	0.62790
2152.27790	0.62661
2150.34934	0.62506
2148.42077	0.62345
2146.49221	0.62228
2144.56365	0.62161
2142.63508	0.62125
2140.70652	0.62108
2138.77795	0.62109
2136.84939	0.62126
2134.92082	0.62161
2132.99226	0.62206
2131.06369	0.62259
2129.13513	0.62327
2127.20657	0.62416
2125.27800	0.62514
2123.34944	0.62604
2121.42087	0.62677
2119.49231	0.62727
2117.56374	0.62767
2115.63518	0.62807
2113.70661	0.62836
2111.77805	0.62847
2109.84949	0.62836
2107.92092	0.62795
2105.99236	0.62724
2104.06379	0.62635
2102.13523	0.62527
2100.20666	0.62409
2098.27810	0.62302
2096.34953	0.62209
2094.42097	0.62121
2092.49241	0.62033
2090.56384	0.61926
2088.63528	0.61791
2086.70671	0.61656
2084.77815	0.61550
2082.84958	0.61488
2080.92102	0.61465
2078.99245	0.61450
2077.06389	0.61423
2075.13533	0.61398
2073.20676	0.61384
2071.27820	0.61380
2069.34963	0.61372
2067.42107	0.61369
2065.49250	0.61387
2063.56394	0.61414
2061.63537	0.61429
2059.70681	0.61411
2057.77825	0.61374
2055.84968	0.61346
2053.92112	0.61320
2051.99255	0.61281
2050.06399	0.61229
2048.13542	0.61151
2046.20686	0.61041
2044.27830	0.60932
2042.34973	0.60832
2040.42117	0.60714
2038.49260	0.60584
2036.56404	0.60459
2034.63547	0.60333
2032.70691	0.60183
2030.77834	0.60005
2028.84978	0.59827
2026.92122	0.59669
2024.99265	0.59528
2023.06409	0.59394
2021.13552	0.59257
2019.20696	0.59117
2017.27839	0.58984
2015.34983	0.58874
2013.42126	0.58793
2011.49270	0.58733
2009.56414	0.58695
2007.63557	0.58688
2005.70701	0.58693
2003.77844	0.58688
2001.84988	0.58690
1999.92131	0.58724
1997.99275	0.58781
1996.06418	0.58864
1994.13562	0.58952
1992.20706	0.59009
1990.27849	0.59056
1988.34993	0.59126
1986.42136	0.59200
1984.49280	0.59253
1982.56423	0.59280
1980.63567	0.59289
1978.70710	0.59289
1976.77854	0.59281
1974.84998	0.59267
1972.92141	0.59247
1970.99285	0.59219
1969.06428	0.59175
1967.13572	0.59117
1965.20715	0.59055
1963.27859	0.58977
1961.35002	0.58877
1959.42146	0.58781
1957.49290	0.58690
1955.56433	0.58578
1953.63577	0.58439
1951.70720	0.58293
1949.77864	0.58156
1947.85007	0.58033
1945.92151	0.57927
1943.99294	0.57817
1942.06438	0.57686
1940.13582	0.57570
1938.20725	0.57477
1936.27869	0.57391
1934.35012	0.57320
1932.42156	0.57268
1930.49299	0.57225
1928.56443	0.57198
1926.63586	0.57196
1924.70730	0.57207
1922.77874	0.57220
1920.85017	0.57252
1918.92161	0.57316
1916.99304	0.57372
1915.06448	0.57400
1913.13591	0.57437
1911.20735	0.57468
1909.27878	0.57456
1907.35022	0.57422
1905.42166	0.57386
1903.49309	0.57349
1901.56453	0.57304
1899.63596	0.57235
1897.70740	0.57138
1895.77883	0.57022
1893.85027	0.56894
1891.92171	0.56763
1889.99314	0.56610
1888.06458	0.56457
1886.13601	0.56340
1884.20745	0.56231
1882.27888	0.56125
1880.35032	0.56036
1878.42175	0.55965
1876.49319	0.55926
1874.56463	0.55918
1872.63606	0.55937
1870.70750	0.55976
1868.77893	0.55998
1866.85037	0.55985
1864.92180	0.55987
1862.99324	0.56026
1861.06467	0.56088
1859.13611	0.56151
1857.20755	0.56195
1855.27898	0.56240
1853.35042	0.56302
1851.42185	0.56371
1849.49329	0.56446
1847.56472	0.56516
1845.63616	0.56550
1843.70759	0.56522
1841.77903	0.56478
1839.85047	0.56427
1837.92190	0.56339
1835.99334	0.56227
1834.06477	0.56123
1832.13621	0.56032
1830.20764	0.55895
1828.27908	0.55721
1826.35051	0.55571
1824.42195	0.55429
1822.49339	0.55311
1820.56482	0.55221
1818.63626	0.55131
1816.70769	0.55046
1814.77913	0.54995
1812.85056	0.54979
1810.92200	0.54979
1808.99343	0.54992
1807.06487	0.55029
1805.13631	0.55109
1803.20774	0.55210
1801.27918	0.55300
1799.35061	0.55381
1797.42205	0.55480
1795.49348	0.55582
1793.56492	0.55651
1791.63635	0.55683
1789.70779	0.55710
1787.77923	0.55760
1785.85066	0.55812
1783.92210	0.55851
1781.99353	0.55868
1780.06497	0.55845
1778.13640	0.55812
1776.20784	0.55789
1774.27927	0.55782
1772.35071	0.55763
1770.42215	0.55709
1768.49358	0.55663
1766.56502	0.55657
1764.63645	0.55719
1762.70789	0.55857
1760.77932	0.56076
1758.85076	0.56378
1756.92220	0.56825
1754.99363	0.57365
1753.06507	0.57962
1751.13650	0.58824
1749.20794	0.59985
1747.27937	0.61083
1745.35081	0.62008
1743.42224	0.62830
1741.49368	0.63550
1739.56512	0.64125
1737.63655	0.64489
1735.70799	0.64692
1733.77942	0.64820
1731.85086	0.64852
1729.92229	0.64882
1727.99373	0.64981
1726.06516	0.65139
1724.13660	0.65373
1722.20804	0.65662
1720.27947	0.65989
1718.35091	0.66493
1716.42234	0.67372
1714.49378	0.68332
1712.56521	0.69284
1710.63665	0.70431
1708.70808	0.71871
1706.77952	0.73969
1704.85096	0.76739
1702.92239	0.79330
1700.99383	0.82913
1699.06526	0.88510
1697.13670	0.93570
1695.20813	0.98189
1693.27957	1.01659
1691.35100	1.04421
1689.42244	1.07632
1687.49388	1.10612
1685.56531	1.13687
1683.63675	1.18388
1681.70818	1.21808
1679.77962	1.23811
1677.85105	1.25787
1675.92249	1.28152
1673.99392	1.30569
1672.06536	1.32408
1670.13680	1.34483
1668.20823	1.36775
1666.27967	1.38064
1664.35110	1.39197
1662.42254	1.40810
1660.49397	1.42155
1658.56541	1.42931
1656.63684	1.43372
1654.70828	1.43647
1652.77972	1.43881
1650.85115	1.44066
1648.92259	1.44153
1646.99402	1.44119
1645.06546	1.44050
1643.13689	1.43994
1641.20833	1.44064
1639.27976	1.44208
1637.35120	1.44317
1635.42264	1.44176
1633.49407	1.43830
1631.56551	1.43562
1629.63694	1.43230
1627.70838	1.42661
1625.77981	1.41731
1623.85125	1.40239
1621.92269	1.38348
1619.99412	1.36674
1618.06556	1.34463
1616.13699	1.31088
1614.20843	1.28452
1612.27986	1.26443
1610.35130	1.24185
1608.42273	1.21762
1606.49417	1.19624
1604.56561	1.17943
1602.63704	1.16681
1600.70848	1.15817
1598.77991	1.15206
1596.85135	1.14707
1594.92278	1.14320
1592.99422	1.14115
1591.06565	1.14072
1589.13709	1.14170
1587.20853	1.14518
1585.27996	1.15171
1583.35140	1.16089
1581.42283	1.17140
1579.49427	1.18162
1577.56570	1.19411
1575.63714	1.21309
1573.70857	1.22826
1571.78001	1.23895
1569.85145	1.25433
1567.92288	1.27218
1565.99432	1.28626
1564.06575	1.29906
1562.13719	1.30930
1560.20862	1.31957
1558.28006	1.33605
1556.35149	1.34420
1554.42293	1.34930
1552.49437	1.35504
1550.56580	1.35871
1548.63724	1.35930
1546.70867	1.35917
1544.78011	1.35900
1542.85154	1.35797
1540.92298	1.35354
1538.99441	1.34290
1537.06585	1.33709
1535.13729	1.33282
1533.20872	1.32531
1531.28016	1.31825
1529.35159	1.31427
1527.42303	1.31029
1525.49446	1.30636
1523.56590	1.30451
1521.63733	1.30266
1519.70877	1.30124
1517.78021	1.30017
1515.85164	1.29597
1513.92308	1.28740
1511.99451	1.27601
1510.06595	1.26426
1508.13738	1.24531
1506.20882	1.20909
1504.28025	1.18881
1502.35169	1.17615
1500.42313	1.15995
1498.49456	1.13714
1496.56600	1.10956
1494.63743	1.08874
1492.70887	1.07492
1490.78030	1.05854
1488.85174	1.03708
1486.92317	1.02134
1484.99461	1.01184
1483.06605	1.00495
1481.13748	1.00002
1479.20892	0.99828
1477.28035	1.00068
1475.35179	1.00729
1473.42322	1.01943
1471.49466	1.03383
1469.56610	1.04321
1467.63753	1.04970
1465.70897	1.05593
1463.78040	1.06167
1461.85184	1.06577
1459.92327	1.06891
1457.99471	1.07298
1456.06614	1.07740
1454.13758	1.07895
1452.20902	1.07914
1450.28045	1.07873
1448.35189	1.07695
1446.42332	1.07361
1444.49476	1.07019
1442.56619	1.06650
1440.63763	1.06223
1438.70906	1.05741
1436.78050	1.04987
1434.85194	1.04046
1432.92337	1.03257
1430.99481	1.02477
1429.06624	1.01737
1427.13768	1.01262
1425.20911	1.01009
1423.28055	1.00922
1421.35198	1.01005
1419.42342	1.01217
1417.49486	1.01398
1415.56629	1.01455
1413.63773	1.01474
1411.70916	1.01469
1409.78060	1.01438
1407.85203	1.01429
1405.92347	1.01503
1403.99490	1.01638
1402.06634	1.01760
1400.13778	1.01858
1398.20921	1.01914
1396.28065	1.01929
1394.35208	1.01959
1392.42352	1.02046
1390.49495	1.02231
1388.56639	1.02666
1386.63782	1.03448
1384.70926	1.04331
1382.78070	1.05172
1380.85213	1.05949
1378.92357	1.06485
1376.99500	1.06542
1375.06644	1.05923
1373.13787	1.04751
1371.20931	1.03456
1369.28074	1.01967
1367.35218	1.00311
1365.42362	0.98856
1363.49505	0.97549
1361.56649	0.96390
1359.63792	0.95676
1357.70936	0.95338
1355.78079	0.95188
1353.85223	0.95137
1351.92366	0.95158
1349.99510	0.95251
1348.06654	0.95408
1346.13797	0.95589
1344.20941	0.95774
1342.28084	0.95968
1340.35228	0.96177
1338.42371	0.96376
1336.49515	0.96590
1334.56659	0.96934
1332.63802	0.97446
1330.70946	0.98026
1328.78089	0.98492
1326.85233	0.98726
1324.92376	0.98762
1322.99520	0.98742
1321.06663	0.98789
1319.13807	0.98891
1317.20951	0.98971
1315.28094	0.99039
1313.35238	0.99128
1311.42381	0.99206
1309.49525	0.99243
1307.56668	0.99246
1305.63812	0.99253
1303.70955	0.99291
1301.78099	0.99335
1299.85243	0.99302
1297.92386	0.99132
1295.99530	0.98907
1294.06673	0.98767
1292.13817	0.98758
1290.20960	0.98845
1288.28104	0.98990
1286.35247	0.99155
1284.42391	0.99227
1282.49535	0.99161
1280.56678	0.99039
1278.63822	0.98949
1276.70965	0.98963
1274.78109	0.99106
1272.85252	0.99316
1270.92396	0.99552
1268.99539	0.99844
1267.06683	1.00187
1265.13827	1.00494
1263.20970	1.00697
1261.28114	1.00780
1259.35257	1.00754
1257.42401	1.00713
1255.49544	1.00751
1253.56688	1.00870
1251.63831	1.01068
1249.70975	1.01345
1247.78119	1.01634
1245.85262	1.01890
1243.92406	1.02117
1241.99549	1.02344
1240.06693	1.02564
1238.13836	1.02677
1236.20980	1.02614
1234.28123	1.02453
1232.35267	1.02260
1230.42411	1.01993
1228.49554	1.01627
1226.56698	1.01158
1224.63841	1.00543
1222.70985	0.99822
1220.78128	0.99099
1218.85272	0.98413
1216.92415	0.97793
1214.99559	0.97293
1213.06703	0.96935
1211.13846	0.96747
1209.20990	0.96683
1207.28133	0.96530
1205.35277	0.96092
1203.42420	0.95374
1201.49564	0.94472
1199.56708	0.93467
1197.63851	0.92435
1195.70995	0.91446
1193.78138	0.90590
1191.85282	0.89955
1189.92425	0.89547
1187.99569	0.89325
1186.06712	0.89269
1184.13856	0.89387
1182.21000	0.89707
1180.28143	0.90210
1178.35287	0.90858
1176.42430	0.91679
1174.49574	0.92671
1172.56717	0.93712
1170.63861	0.94731
1168.71004	0.95839
1166.78148	0.97096
1164.85292	0.98341
1162.92435	0.99387
1160.99579	1.00111
1159.06722	1.00348
1157.13866	1.00028
1155.21009	0.99232
1153.28153	0.98027
1151.35296	0.96478
1149.42440	0.94765
1147.49584	0.93074
1145.56727	0.91518
1143.63871	0.90256
1141.71014	0.89397
1139.78158	0.88906
1137.85301	0.88730
1135.92445	0.88841
1133.99588	0.89223
1132.06732	0.89888
1130.13876	0.90882
1128.21019	0.92202
1126.28163	0.93716
1124.35306	0.95227
1122.42450	0.96620
1120.49593	0.97806
1118.56737	0.98655
1116.63880	0.99151
1114.71024	0.99381
1112.78168	0.99333
1110.85311	0.99017
1108.92455	0.98625
1106.99598	0.98340
1105.06742	0.98163
1103.13885	0.98102
1101.21029	0.98223
1099.28172	0.98479
1097.35316	0.98830
1095.42460	0.99398
1093.49603	1.00240
1091.56747	1.01178
1089.63890	1.02091
1087.71034	1.03090
1085.78177	1.04269
1083.85321	1.05573
1081.92464	1.06874
1079.99608	1.07948
1078.06752	1.08523
1076.13895	1.08578
1074.21039	1.08274
1072.28182	1.07648
1070.35326	1.06725
1068.42469	1.05637
1066.49613	1.04592
1064.56756	1.03683
1062.63900	1.02783
1060.71044	1.01815
1058.78187	1.00810
1056.85331	0.99813
1054.92474	0.98990
1052.99618	0.98505
1051.06761	0.98328
1049.13905	0.98326
1047.21049	0.98480
1045.28192	0.98861
1043.35336	0.99451
1041.42479	1.00166
1039.49623	1.00861
1037.56766	1.01384
1035.63910	1.01744
1033.71053	1.02009
1031.78197	1.02104
1029.85341	1.01889
1027.92484	1.01357
1025.99628	1.00594
1024.06771	0.99652
1022.13915	0.98628
1020.21058	0.97620
1018.28202	0.96674
1016.35345	0.95744
1014.42489	0.94625
1012.49633	0.93172
1010.56776	0.91440
1008.63920	0.89523
1006.71063	0.87490
1004.78207	0.85428
1002.85350	0.83459
1000.92494	0.81715
998.99637	0.80277
997.06781	0.79170
995.13925	0.78296
993.21068	0.77500
991.28212	0.76764
989.35355	0.76179
987.42499	0.75770
985.49642	0.75549
983.56786	0.75573
981.63929	0.75845
979.71073	0.76321
977.78217	0.76928
975.85360	0.77523
973.92504	0.77930
971.99647	0.78055
970.06791	0.77923
968.13934	0.77629
966.21078	0.77283
964.28221	0.77036
962.35365	0.77037
960.42509	0.77364
958.49652	0.77972
956.56796	0.78582
954.63939	0.78744
952.71083	0.78211
950.78226	0.77104
948.85370	0.75739
946.92513	0.74396
944.99657	0.73227
943.06801	0.72303
941.13944	0.71600
939.21088	0.71037
937.28231	0.70614
935.35375	0.70361
933.42518	0.70243
931.49662	0.70232
929.56805	0.70323
927.63949	0.70526
925.71093	0.70850
923.78236	0.71245
921.85380	0.71641
919.92523	0.71992
917.99667	0.72284
916.06810	0.72547
914.13954	0.72805
912.21098	0.73046
910.28241	0.73259
908.35385	0.73475
906.42528	0.73715
904.49672	0.73945
902.56815	0.74110
900.63959	0.74165
898.71102	0.74084
896.78246	0.73881
894.85390	0.73556
892.92533	0.73100
890.99677	0.72545
889.06820	0.71948
887.13964	0.71357
885.21107	0.70804
883.28251	0.70303
881.35394	0.69847
879.42538	0.69417
877.49682	0.69009
875.56825	0.68653
873.63969	0.68377
871.71112	0.68157
869.78256	0.67985
867.85399	0.67895
865.92543	0.67912
863.99686	0.68063
862.06830	0.68411
860.13974	0.68988
858.21117	0.69747
856.28261	0.70611
854.35404	0.71553
852.42548	0.72569
850.49691	0.73603
848.56835	0.74601
846.63978	0.75543
844.71122	0.76414
842.78266	0.77159
840.85409	0.77723
838.92553	0.78168
836.99696	0.78554
835.06840	0.78820
833.13983	0.78915
831.21127	0.78845
829.28270	0.78659
827.35414	0.78426
825.42558	0.78226
823.49701	0.78083
821.56845	0.77915
819.63988	0.77693
817.71132	0.77525
815.78275	0.77462
813.85419	0.77413
811.92562	0.77344
809.99706	0.77322
808.06850	0.77367
806.13993	0.77455
804.21137	0.77571
802.28280	0.77693
800.35424	0.77817
798.42567	0.77966
796.49711	0.78098
794.56854	0.78186
792.63998	0.78322
790.71142	0.78520
788.78285	0.78647
786.85429	0.78660
784.92572	0.78651
782.99716	0.78611
781.06859	0.78452
779.14003	0.78228
777.21147	0.78043
775.28290	0.77903
773.35434	0.77835
771.42577	0.77861
769.49721	0.77921
767.56864	0.78027
765.64008	0.78247
763.71151	0.78536
761.78295	0.78800
759.85439	0.79056
757.92582	0.79412
755.99726	0.79851
754.06869	0.80238
752.14013	0.80566
750.21156	0.80920
748.28300	0.81249
746.35443	0.81409
744.42587	0.81401
742.49731	0.81380
740.56874	0.81418
738.64018	0.81453
736.71161	0.81431
734.78305	0.81354
732.85448	0.81257
730.92592	0.81175
728.99735	0.81094
727.06879	0.80979
725.14023	0.80818
723.21166	0.80659
721.28310	0.80529
719.35453	0.80338
717.42597	0.80027
715.49740	0.79698
713.56884	0.79440
711.64027	0.79285
709.71171	0.79234
707.78315	0.79269
705.85458	0.79435
703.92602	0.79806
701.99745	0.80332
700.06889	0.80902
698.14032	0.81414
696.21176	0.81841
694.28319	0.82295
692.35463	0.82839
690.42607	0.83378
688.49750	0.83842
686.56894	0.84299
684.64037	0.84786
682.71181	0.85238
680.78324	0.85632
678.85468	0.85928
676.92611	0.86012
674.99755	0.85915
673.06899	0.85794
671.14042	0.85655
669.21186	0.85282
667.28329	0.84675
665.35473	0.84260
663.42616	0.83906
661.49760	0.83517
659.56903	0.83030
657.64047	0.82298
655.71191	0.81459
653.78334	0.80784
651.85478	0.80282
649.92621	0.79857
647.99765	0.79563
646.06908	0.79542
644.14052	0.79862
642.21195	0.80421
640.28339	0.81063
638.35483	0.81758
636.42626	0.82532
634.49770	0.83363
632.56913	0.84205
630.64057	0.85020
628.71200	0.85831
626.78344	0.86667
624.85488	0.87431
622.92631	0.88090
620.99775	0.88719
619.06918	0.89157
617.14062	0.89182
615.21205	0.88860
613.28349	0.88331
611.35492	0.87571
609.42636	0.86573
607.49780	0.85389
605.56923	0.84099
603.64067	0.82869
601.71210	0.81670
599.78354	0.80283
