3997.91406	0.72787
3995.98550	0.72695
3994.05693	0.72530
3992.12837	0.72496
3990.19980	0.72579
3988.27124	0.72666
3986.34268	0.72704
3984.41411	0.72654
3982.48555	0.72503
3980.55698	0.72363
3978.62842	0.72344
3976.69985	0.72389
3974.77129	0.72333
3972.84272	0.72148
3970.91416	0.71987
3968.98560	0.71926
3967.05703	0.71900
3965.12847	0.71899
3963.19990	0.71942
3961.27134	0.71921
3959.34277	0.71820
3957.41421	0.71781
3955.48564	0.71868
3953.55708	0.71998
3951.62852	0.72030
3949.69995	0.71922
3947.77139	0.71811
3945.84282	0.71825
3943.91426	0.71939
3941.98569	0.72071
3940.05713	0.72138
3938.12856	0.72077
3936.20000	0.71936
3934.27144	0.71877
3932.34287	0.71930
3930.41431	0.71941
3928.48574	0.71934
3926.55718	0.71986
3924.62861	0.71959
3922.70005	0.71795
3920.77148	0.71660
3918.84292	0.71569
3916.91436	0.71365
3914.98579	0.71081
3913.05723	0.70934
3911.12866	0.70931
3909.20010	0.70958
3907.27153	0.70966
3905.34297	0.70936
3903.41440	0.70871
3901.48584	0.70832
3899.55728	0.70818
3897.62871	0.70792
3895.70015	0.70796
3893.77158	0.70874
3891.84302	0.70969
3889.91445	0.71012
3887.98589	0.71043
3886.05733	0.71030
3884.12876	0.71008
3882.20020	0.71064
3880.27163	0.71078
3878.34307	0.71029
3876.41450	0.71029
3874.48594	0.71049
3872.55737	0.71029
3870.62881	0.70926
3868.70025	0.70805
3866.77168	0.70755
3864.84312	0.70656
3862.91455	0.70512
3860.98599	0.70485
3859.05742	0.70520
3857.12886	0.70565
3855.20029	0.70592
3853.27173	0.70468
3851.34317	0.70360
3849.41460	0.70354
3847.48604	0.70342
3845.55747	0.70338
3843.62891	0.70397
3841.70034	0.70512
3839.77178	0.70612
3837.84321	0.70583
3835.91465	0.70408
3833.98609	0.70213
3832.05752	0.70091
3830.12896	0.70045
3828.20039	0.70020
3826.27183	0.70027
3824.34326	0.70115
3822.41470	0.70213
3820.48613	0.70114
3818.55757	0.69913
3816.62901	0.69739
3814.70044	0.69609
3812.77188	0.69578
3810.84331	0.69616
3808.91475	0.69680
3806.98618	0.69667
3805.05762	0.69585
3803.12905	0.69531
3801.20049	0.69434
3799.27193	0.69307
3797.34336	0.69153
3795.41480	0.69044
3793.48623	0.69114
3791.55767	0.69210
3789.62910	0.69197
3787.70054	0.69174
3785.77197	0.69210
3783.84341	0.69228
3781.91485	0.69192
3779.98628	0.69109
3778.05772	0.69086
3776.12915	0.69160
3774.20059	0.69201
3772.27202	0.69172
3770.34346	0.69097
3768.41489	0.68998
3766.48633	0.68950
3764.55777	0.68985
3762.62920	0.69050
3760.70064	0.69094
3758.77207	0.69086
3756.84351	0.69056
3754.91494	0.69080
3752.98638	0.69152
3751.05781	0.69125
3749.12925	0.68986
3747.20069	0.68920
3745.27212	0.68905
3743.34356	0.68929
3741.41499	0.68982
3739.48643	0.69048
3737.55786	0.69145
3735.62930	0.69277
3733.70074	0.69236
3731.77217	0.68911
3729.84361	0.68659
3727.91504	0.68658
3725.98648	0.68724
3724.05791	0.68614
3722.12935	0.68400
3720.20078	0.68264
3718.27222	0.68287
3716.34366	0.68408
3714.41509	0.68507
3712.48653	0.68453
3710.55796	0.68211
3708.62940	0.68073
3706.70083	0.68136
3704.77227	0.68283
3702.84370	0.68362
3700.91514	0.68343
3698.98658	0.68349
3697.05801	0.68443
3695.12945	0.68641
3693.20088	0.68886
3691.27232	0.69043
3689.34375	0.68991
3687.41519	0.68880
3685.48662	0.68926
3683.55806	0.69142
3681.62950	0.69428
3679.70093	0.69672
3677.77237	0.69890
3675.84380	0.70228
3673.91524	0.70668
3671.98667	0.71037
3670.05811	0.71233
3668.12954	0.71187
3666.20098	0.71240
3664.27242	0.71497
3662.34385	0.71827
3660.41529	0.72111
3658.48672	0.72383
3656.55816	0.72733
3654.62959	0.73117
3652.70103	0.73547
3650.77246	0.74125
3648.84390	0.74645
3646.91534	0.74897
3644.98677	0.75188
3643.05821	0.75557
3641.12964	0.75961
3639.20108	0.76420
3637.27251	0.76884
3635.34395	0.77244
3633.41538	0.77616
3631.48682	0.78140
3629.55826	0.78722
3627.62969	0.79077
3625.70113	0.79335
3623.77256	0.79656
3621.84400	0.80044
3619.91543	0.80536
3617.98687	0.81049
3616.05830	0.81533
3614.12974	0.82024
3612.20118	0.82421
3610.27261	0.82766
3608.34405	0.83285
3606.41548	0.83887
3604.48692	0.84331
3602.55835	0.84777
3600.62979	0.85324
3598.70123	0.85852
3596.77266	0.86395
3594.84410	0.86965
3592.91553	0.87430
3590.98697	0.87804
3589.05840	0.88203
3587.12984	0.88719
3585.20127	0.89285
3583.27271	0.89754
3581.34415	0.90177
3579.41558	0.90689
3577.48702	0.91231
3575.55845	0.91722
3573.62989	0.92258
3571.70132	0.92861
3569.77276	0.93426
3567.84419	0.94050
3565.91563	0.94810
3563.98707	0.95380
3562.05850	0.95778
3560.12994	0.96223
3558.20137	0.96808
3556.27281	0.97409
3554.34424	0.97994
3552.41568	0.98702
3550.48711	0.99467
3548.55855	1.00103
3546.62999	1.00518
3544.70142	1.00914
3542.77286	1.01564
3540.84429	1.02261
3538.91573	1.02754
3536.98716	1.03122
3535.05860	1.03581
3533.13003	1.04146
3531.20147	1.04791
3529.27291	1.05486
3527.34434	1.06186
3525.41578	1.06908
3523.48721	1.07491
3521.55865	1.07884
3519.63008	1.08320
3517.70152	1.08880
3515.77295	1.09541
3513.84439	1.10333
3511.91583	1.11216
3509.98726	1.12177
3508.05870	1.13134
3506.13013	1.14006
3504.20157	1.14899
3502.27300	1.15681
3500.34444	1.16343
3498.41587	1.17181
3496.48731	1.18044
3494.55875	1.18636
3492.63018	1.19119
3490.70162	1.19685
3488.77305	1.20303
3486.84449	1.21030
3484.91592	1.21724
3482.98736	1.22131
3481.05879	1.22316
3479.13023	1.22429
3477.20167	1.22696
3475.27310	1.23133
3473.34454	1.23498
3471.41597	1.23894
3469.48741	1.24357
3467.55884	1.24606
3465.63028	1.24898
3463.70171	1.25652
3461.77315	1.26475
3459.84459	1.26920
3457.91602	1.27169
3455.98746	1.27551
3454.05889	1.28180
3452.13033	1.28852
3450.20176	1.29405
3448.27320	1.29780
3446.34464	1.29971
3444.41607	1.30228
3442.48751	1.30507
3440.55894	1.30655
3438.63038	1.30872
3436.70181	1.31208
3434.77325	1.31514
3432.84468	1.31698
3430.91612	1.31710
3428.98756	1.31609
3427.05899	1.31525
3425.13043	1.31434
3423.20186	1.31264
3421.27330	1.31166
3419.34473	1.31196
3417.41617	1.31282
3415.48760	1.31584
3413.55904	1.32027
3411.63048	1.32321
3409.70191	1.32463
3407.77335	1.32616
3405.84478	1.32849
3403.91622	1.32913
3401.98765	1.32726
3400.05909	1.32680
3398.13052	1.32883
3396.20196	1.33057
3394.27340	1.33155
3392.34483	1.33350
3390.41627	1.33629
3388.48770	1.33896
3386.55914	1.34221
3384.63057	1.34608
3382.70201	1.34845
3380.77344	1.34858
3378.84488	1.34947
3376.91632	1.35309
3374.98775	1.35610
3373.05919	1.35546
3371.13062	1.35510
3369.20206	1.35900
3367.27349	1.36323
3365.34493	1.36314
3363.41636	1.36216
3361.48780	1.36562
3359.55924	1.37158
3357.63067	1.37425
3355.70211	1.37341
3353.77354	1.37356
3351.84498	1.37704
3349.91641	1.38303
3347.98785	1.38846
3346.05928	1.39036
3344.13072	1.39160
3342.20216	1.39435
3340.27359	1.39458
3338.34503	1.39512
3336.41646	1.40270
3334.48790	1.41240
3332.55933	1.41729
3330.63077	1.42113
3328.70220	1.42670
3326.77364	1.42937
3324.84508	1.42968
3322.91651	1.43325
3320.98795	1.43984
3319.05938	1.44748
3317.13082	1.45700
3315.20225	1.46576
3313.27369	1.46925
3311.34513	1.47038
3309.41656	1.47290
3307.48800	1.47419
3305.55943	1.47456
3303.63087	1.47779
3301.70230	1.48441
3299.77374	1.49121
3297.84517	1.49407
3295.91661	1.49432
3293.98805	1.49715
3292.05948	1.50243
3290.13092	1.50536
3288.20235	1.50465
3286.27379	1.50329
3284.34522	1.50192
3282.41666	1.49933
3280.48809	1.49710
3278.55953	1.49596
3276.63097	1.49299
3274.70240	1.48797
3272.77384	1.48323
3270.84527	1.47922
3268.91671	1.47670
3266.98814	1.47486
3265.05958	1.46918
3263.13101	1.45866
3261.20245	1.44858
3259.27389	1.44163
3257.34532	1.43491
3255.41676	1.42563
3253.48819	1.41403
3251.55963	1.40280
3249.63106	1.39428
3247.70250	1.38967
3245.77393	1.38780
3243.84537	1.38293
3241.91681	1.37315
3239.98824	1.36345
3238.05968	1.35606
3236.13111	1.35047
3234.20255	1.34660
3232.27398	1.34185
3230.34542	1.33503
3228.41685	1.32860
3226.48829	1.32325
3224.55973	1.31863
3222.63116	1.31428
3220.70260	1.30859
3218.77403	1.30301
3216.84547	1.29925
3214.91690	1.29513
3212.98834	1.28986
3211.05977	1.28434
3209.13121	1.27954
3207.20265	1.27585
3205.27408	1.27083
3203.34552	1.26355
3201.41695	1.25651
3199.48839	1.25124
3197.55982	1.24684
3195.63126	1.24228
3193.70269	1.23786
3191.77413	1.23350
3189.84557	1.22923
3187.91700	1.22457
3185.98844	1.21797
3184.05987	1.20971
3182.13131	1.20208
3180.20274	1.19675
3178.27418	1.19263
3176.34562	1.18800
3174.41705	1.18331
3172.48849	1.17891
3170.55992	1.17452
3168.63136	1.16957
3166.70279	1.16409
3164.77423	1.15935
3162.84566	1.15560
3160.91710	1.15263
3158.98854	1.14993
3157.05997	1.14630
3155.13141	1.14278
3153.20284	1.14095
3151.27428	1.13956
3149.34571	1.13745
3147.41715	1.13467
3145.48858	1.13058
3143.56002	1.12583
3141.63146	1.12257
3139.70289	1.12147
3137.77433	1.12103
3135.84576	1.11942
3133.91720	1.11737
3131.98863	1.11665
3130.06007	1.11636
3128.13150	1.11567
3126.20294	1.11550
3124.27438	1.11572
3122.34581	1.11601
3120.41725	1.11688
3118.48868	1.11765
3116.56012	1.11744
3114.63155	1.11666
3112.70299	1.11581
3110.77442	1.11604
3108.84586	1.11754
3106.91730	1.11820
3104.98873	1.11774
3103.06017	1.11706
3101.13160	1.11575
3099.20304	1.11456
3097.27447	1.11422
3095.34591	1.11385
3093.41734	1.11329
3091.48878	1.11260
3089.56022	1.11102
3087.63165	1.10855
3085.70309	1.10608
3083.77452	1.10383
3081.84596	1.10162
3079.91739	1.09979
3077.98883	1.09785
3076.06026	1.09486
3074.13170	1.09184
3072.20314	1.08935
3070.27457	1.08573
3068.34601	1.08114
3066.41744	1.07698
3064.48888	1.07254
3062.56031	1.06800
3060.63175	1.06499
3058.70318	1.06313
3056.77462	1.06104
3054.84606	1.05777
3052.91749	1.05239
3050.98893	1.04564
3049.06036	1.04021
3047.13180	1.03687
3045.20323	1.03397
3043.27467	1.03086
3041.34610	1.02780
3039.41754	1.02416
3037.48898	1.01945
3035.56041	1.01524
3033.63185	1.01266
3031.70328	1.01039
3029.77472	1.00752
3027.84615	1.00462
3025.91759	1.00204
3023.98903	0.99933
3022.06046	0.99644
3020.13190	0.99413
3018.20333	0.99275
3016.27477	0.99139
3014.34620	0.98936
3012.41764	0.98732
3010.48907	0.98553
3008.56051	0.98368
3006.63195	0.98156
3004.70338	0.97945
3002.77482	0.97852
3000.84625	0.97901
2998.91769	0.98005
2996.98912	0.98173
2995.06056	0.98441
2993.13199	0.98795
2991.20343	0.99227
2989.27487	0.99742
2987.34630	1.00361
2985.41774	1.01059
2983.48917	1.01730
2981.56061	1.02366
2979.63204	1.03044
2977.70348	1.03731
2975.77491	1.04380
2973.84635	1.05096
2971.91779	1.05980
2969.98922	1.06913
2968.06066	1.07648
2966.13209	1.08111
2964.20353	1.08439
2962.27496	1.08682
2960.34640	1.08714
2958.41783	1.08443
2956.48927	1.07903
2954.56071	1.07258
2952.63214	1.06662
2950.70358	1.06174
2948.77501	1.05886
2946.84645	1.05853
2944.91788	1.06067
2942.98932	1.06601
2941.06075	1.07448
2939.13219	1.08409
2937.20363	1.09432
2935.27506	1.10610
2933.34650	1.11796
2931.41793	1.12800
2929.48937	1.13666
2927.56080	1.14538
2925.63224	1.15451
2923.70367	1.16245
2921.77511	1.16789
2919.84655	1.16954
2917.91798	1.16312
2915.98942	1.14491
2914.06085	1.11859
2912.13229	1.09274
2910.20372	1.07230
2908.27516	1.05677
2906.34659	1.04441
2904.41803	1.03438
2902.48947	1.02631
2900.56090	1.02019
2898.63234	1.01504
2896.70377	1.01003
2894.77521	1.00640
2892.84664	1.00414
2890.91808	1.00145
2888.98952	0.99805
2887.06095	0.99519
2885.13239	0.99366
2883.20382	0.99318
2881.27526	0.99333
2879.34669	0.99405
2877.41813	0.99494
2875.48956	0.99522
2873.56100	0.99415
2871.63244	0.99066
2869.70387	0.98475
2867.77531	0.97836
2865.84674	0.97273
2863.91818	0.96857
2861.98961	0.96721
2860.06105	0.96941
2858.13248	0.97458
2856.20392	0.98147
2854.27536	0.98976
2852.34679	0.99806
2850.41823	1.00045
2848.48966	0.98965
2846.56110	0.96612
2844.63253	0.93941
2842.70397	0.91789
2840.77540	0.90292
2838.84684	0.89214
2836.91828	0.88406
2834.98971	0.87803
2833.06115	0.87293
2831.13258	0.86852
2829.20402	0.86534
2827.27545	0.86285
2825.34689	0.86022
2823.41832	0.85728
2821.48976	0.85428
2819.56120	0.85161
2817.63263	0.84933
2815.70407	0.84718
2813.77550	0.84487
2811.84694	0.84211
2809.91837	0.83922
2807.98981	0.83639
2806.06124	0.83321
2804.13268	0.82975
2802.20412	0.82635
2800.27555	0.82294
2798.34699	0.81971
2796.41842	0.81680
2794.48986	0.81404
2792.56129	0.81143
2790.63273	0.80904
2788.70416	0.80668
2786.77560	0.80431
2784.84704	0.80228
2782.91847	0.80064
2780.98991	0.79900
2779.06134	0.79744
2777.13278	0.79634
2775.20421	0.79553
2773.27565	0.79489
2771.34708	0.79423
2769.41852	0.79329
2767.48996	0.79225
2765.56139	0.79124
2763.63283	0.79004
2761.70426	0.78844
2759.77570	0.78664
2757.84713	0.78485
2755.91857	0.78310
2753.99001	0.78159
2752.06144	0.78007
2750.13288	0.77805
2748.20431	0.77589
2746.27575	0.77415
2744.34718	0.77268
2742.41862	0.77122
2740.49005	0.76969
2738.56149	0.76800
2736.63293	0.76645
2734.70436	0.76552
2732.77580	0.76534
2730.84723	0.76524
2728.91867	0.76453
2726.99010	0.76366
2725.06154	0.76295
2723.13297	0.76215
2721.20441	0.76159
2719.27585	0.76151
2717.34728	0.76124
2715.41872	0.76036
2713.49015	0.75927
2711.56159	0.75819
2709.63302	0.75695
2707.70446	0.75579
2705.77589	0.75497
2703.84733	0.75381
2701.91877	0.75204
2699.99020	0.75057
2698.06164	0.74954
2696.13307	0.74806
2694.20451	0.74602
2692.27594	0.74370
2690.34738	0.74132
2688.41881	0.73930
2686.49025	0.73797
2684.56169	0.73688
2682.63312	0.73530
2680.70456	0.73343
2678.77599	0.73203
2676.84743	0.73124
2674.91886	0.73050
2672.99030	0.72956
2671.06173	0.72882
2669.13317	0.72836
2667.20461	0.72772
2665.27604	0.72678
2663.34748	0.72583
2661.41891	0.72527
2659.49035	0.72517
2657.56178	0.72499
2655.63322	0.72437
2653.70465	0.72374
2651.77609	0.72356
2649.84753	0.72336
2647.91896	0.72274
2645.99040	0.72206
2644.06183	0.72136
2642.13327	0.72053
2640.20470	0.71980
2638.27614	0.71888
2636.34757	0.71772
2634.41901	0.71700
2632.49045	0.71667
2630.56188	0.71624
2628.63332	0.71577
2626.70475	0.71527
2624.77619	0.71462
2622.84762	0.71398
2620.91906	0.71343
2618.99049	0.71288
2617.06193	0.71246
2615.13337	0.71229
2613.20480	0.71202
2611.27624	0.71130
2609.34767	0.71041
2607.41911	0.70969
2605.49054	0.70889
2603.56198	0.70773
2601.63342	0.70637
2599.70485	0.70503
2597.77629	0.70378
2595.84772	0.70278
2593.91916	0.70180
2591.99059	0.70038
2590.06203	0.69867
2588.13346	0.69696
2586.20490	0.69544
2584.27634	0.69420
2582.34777	0.69333
2580.41921	0.69283
2578.49064	0.69217
2576.56208	0.69105
2574.63351	0.69011
2572.70495	0.68976
2570.77638	0.68957
2568.84782	0.68912
2566.91926	0.68848
2564.99069	0.68797
2563.06213	0.68771
2561.13356	0.68758
2559.20500	0.68753
2557.27643	0.68756
2555.34787	0.68756
2553.41930	0.68734
2551.49074	0.68691
2549.56218	0.68635
2547.63361	0.68559
2545.70505	0.68475
2543.77648	0.68397
2541.84792	0.68303
2539.91935	0.68179
2537.99079	0.68042
2536.06222	0.67903
2534.13366	0.67776
2532.20510	0.67674
2530.27653	0.67592
2528.34797	0.67523
2526.41940	0.67448
2524.49084	0.67365
2522.56227	0.67274
2520.63371	0.67153
2518.70514	0.67019
2516.77658	0.66919
2514.84802	0.66847
2512.91945	0.66776
2510.99089	0.66709
2509.06232	0.66652
2507.13376	0.66580
2505.20519	0.66481
2503.27663	0.66396
2501.34806	0.66351
2499.41950	0.66312
2497.49094	0.66261
2495.56237	0.66209
2493.63381	0.66142
2491.70524	0.66070
2489.77668	0.66021
2487.84811	0.65997
2485.91955	0.65973
2483.99098	0.65933
2482.06242	0.65877
2480.13386	0.65824
2478.20529	0.65790
2476.27673	0.65749
2474.34816	0.65685
2472.41960	0.65631
2470.49103	0.65582
2468.56247	0.65511
2466.63391	0.65429
2464.70534	0.65352
2462.77678	0.65279
2460.84821	0.65202
2458.91965	0.65104
2456.99108	0.64989
2455.06252	0.64875
2453.13395	0.64743
2451.20539	0.64584
2449.27683	0.64448
2447.34826	0.64345
2445.41970	0.64225
2443.49113	0.64101
2441.56257	0.63999
2439.63400	0.63883
2437.70544	0.63757
2435.77687	0.63657
2433.84831	0.63575
2431.91975	0.63484
2429.99118	0.63385
2428.06262	0.63295
2426.13405	0.63214
2424.20549	0.63134
2422.27692	0.63077
2420.34836	0.63049
2418.41979	0.63005
2416.49123	0.62938
2414.56267	0.62885
2412.63410	0.62863
2410.70554	0.62840
2408.77697	0.62777
2406.84841	0.62689
2404.91984	0.62621
2402.99128	0.62570
2401.06271	0.62499
2399.13415	0.62418
2397.20559	0.62358
2395.27702	0.62300
2393.34846	0.62223
2391.41989	0.62162
2389.49133	0.62132
2387.56276	0.62097
2385.63420	0.62062
2383.70563	0.62085
2381.77707	0.62191
2379.84851	0.62345
2377.91994	0.62484
2375.99138	0.62586
2374.06281	0.62700
2372.13425	0.62810
2370.20568	0.62812
2368.27712	0.62781
2366.34855	0.62909
2364.41999	0.63091
2362.49143	0.63154
2360.56286	0.63292
2358.63430	0.63517
2356.70573	0.63453
2354.77717	0.63063
2352.84860	0.62665
2350.92004	0.62428
2348.99147	0.62343
2347.06291	0.62334
2345.13435	0.62310
2343.20578	0.62266
2341.27722	0.62193
2339.34865	0.62062
2337.42009	0.62017
2335.49152	0.62044
2333.56296	0.61983
2331.63440	0.61817
2329.70583	0.61618
2327.77727	0.61461
2325.84870	0.61383
2323.92014	0.61301
2321.99157	0.61154
2320.06301	0.61018
2318.13444	0.60909
2316.20588	0.60756
2314.27732	0.60545
2312.34875	0.60345
2310.42019	0.60236
2308.49162	0.60180
2306.56306	0.60088
2304.63449	0.59946
2302.70593	0.59789
2300.77736	0.59650
2298.84880	0.59537
2296.92024	0.59427
2294.99167	0.59322
2293.06311	0.59238
2291.13454	0.59145
2289.20598	0.59050
2287.27741	0.59002
2285.34885	0.58971
2283.42028	0.58932
2281.49172	0.58927
2279.56316	0.58955
2277.63459	0.58968
2275.70603	0.58977
2273.77746	0.59018
2271.84890	0.59074
2269.92033	0.59111
2267.99177	0.59132
2266.06320	0.59151
2264.13464	0.59162
2262.20608	0.59172
2260.27751	0.59178
2258.34895	0.59153
2256.42038	0.59116
2254.49182	0.59109
2252.56325	0.59112
2250.63469	0.59078
2248.70612	0.58986
2246.77756	0.58869
2244.84900	0.58771
2242.92043	0.58701
2240.99187	0.58646
2239.06330	0.58587
2237.13474	0.58518
2235.20617	0.58461
2233.27761	0.58418
2231.34904	0.58384
2229.42048	0.58358
2227.49192	0.58332
2225.56335	0.58305
2223.63479	0.58274
2221.70622	0.58242
2219.77766	0.58223
2217.84909	0.58206
2215.92053	0.58173
2213.99196	0.58134
2212.06340	0.58116
2210.13484	0.58105
2208.20627	0.58064
2206.27771	0.57997
2204.34914	0.57932
2202.42058	0.57870
2200.49201	0.57812
2198.56345	0.57767
2196.63488	0.57712
2194.70632	0.57631
2192.77776	0.57546
2190.84919	0.57482
2188.92063	0.57450
2186.99206	0.57435
2185.06350	0.57414
2183.13493	0.57384
2181.20637	0.57357
2179.27781	0.57346
2177.34924	0.57356
2175.42068	0.57373
2173.49211	0.57394
2171.56355	0.57419
2169.63498	0.57433
2167.70642	0.57440
2165.77785	0.57471
2163.84929	0.57520
2161.92073	0.57559
2159.99216	0.57580
2158.06360	0.57580
2156.13503	0.57567
2154.20647	0.57548
2152.27790	0.57514
2150.34934	0.57457
2148.42077	0.57374
2146.49221	0.57280
2144.56365	0.57190
2142.63508	0.57110
2140.70652	0.57045
2138.77795	0.56980
2136.84939	0.56917
2134.92082	0.56863
2132.99226	0.56809
2131.06369	0.56762
2129.13513	0.56739
2127.20657	0.56740
2125.27800	0.56775
2123.34944	0.56843
2121.42087	0.56914
2119.49231	0.56972
2117.56374	0.57025
2115.63518	0.57098
2113.70661	0.57186
2111.77805	0.57248
2109.84949	0.57287
2107.92092	0.57346
2105.99236	0.57424
2104.06379	0.57506
2102.13523	0.57584
2100.20666	0.57635
2098.27810	0.57650
2096.34953	0.57633
2094.42097	0.57605
2092.49241	0.57586
2090.56384	0.57559
2088.63528	0.57496
2086.70671	0.57409
2084.77815	0.57310
2082.84958	0.57189
2080.92102	0.57050
2078.99245	0.56901
2077.06389	0.56762
2075.13533	0.56653
2073.20676	0.56572
2071.27820	0.56488
2069.34963	0.56392
2067.42107	0.56308
2065.49250	0.56217
2063.56394	0.56106
2061.63537	0.55993
2059.70681	0.55869
2057.77825	0.55722
2055.84968	0.55572
2053.92112	0.55454
2051.99255	0.55357
2050.06399	0.55250
2048.13542	0.55127
2046.20686	0.55008
2044.27830	0.54903
2042.34973	0.54804
2040.42117	0.54695
2038.49260	0.54597
2036.56404	0.54526
2034.63547	0.54472
2032.70691	0.54423
2030.77834	0.54379
2028.84978	0.54343
2026.92122	0.54321
2024.99265	0.54314
2023.06409	0.54321
2021.13552	0.54337
2019.20696	0.54373
2017.27839	0.54438
2015.34983	0.54508
2013.42126	0.54563
2011.49270	0.54613
2009.56414	0.54655
2007.63557	0.54685
2005.70701	0.54723
2003.77844	0.54777
2001.84988	0.54830
1999.92131	0.54865
1997.99275	0.54881
1996.06418	0.54897
1994.13562	0.54920
1992.20706	0.54932
1990.27849	0.54916
1988.34993	0.54875
1986.42136	0.54820
1984.49280	0.54762
1982.56423	0.54693
1980.63567	0.54608
1978.70710	0.54520
1976.77854	0.54442
1974.84998	0.54365
1972.92141	0.54289
1970.99285	0.54236
1969.06428	0.54212
1967.13572	0.54165
1965.20715	0.54071
1963.27859	0.53966
1961.35002	0.53868
1959.42146	0.53775
1957.49290	0.53680
1955.56433	0.53575
1953.63577	0.53484
1951.70720	0.53430
1949.77864	0.53390
1947.85007	0.53334
1945.92151	0.53273
1943.99294	0.53220
1942.06438	0.53127
1940.13582	0.52999
1938.20725	0.52896
1936.27869	0.52822
1934.35012	0.52757
1932.42156	0.52705
1930.49299	0.52668
1928.56443	0.52642
1926.63586	0.52627
1924.70730	0.52613
1922.77874	0.52579
1920.85017	0.52538
1918.92161	0.52498
1916.99304	0.52431
1915.06448	0.52368
1913.13591	0.52344
1911.20735	0.52340
1909.27878	0.52316
1907.35022	0.52265
1905.42166	0.52224
1903.49309	0.52201
1901.56453	0.52172
1899.63596	0.52145
1897.70740	0.52127
1895.77883	0.52097
1893.85027	0.52047
1891.92171	0.51994
1889.99314	0.51913
1888.06458	0.51808
1886.13601	0.51738
1884.20745	0.51680
1882.27888	0.51612
1880.35032	0.51543
1878.42175	0.51471
1876.49319	0.51401
1874.56463	0.51354
1872.63606	0.51348
1870.70750	0.51370
1868.77893	0.51334
1866.85037	0.51203
1864.92180	0.51099
1862.99324	0.51060
1861.06467	0.51048
1859.13611	0.51038
1857.20755	0.51021
1855.27898	0.51014
1853.35042	0.51035
1851.42185	0.51085
1849.49329	0.51158
1847.56472	0.51242
1845.63616	0.51318
1843.70759	0.51342
1841.77903	0.51319
1839.85047	0.51305
1837.92190	0.51304
1835.99334	0.51293
1834.06477	0.51268
1832.13621	0.51262
1830.20764	0.51241
1828.27908	0.51166
1826.35051	0.51088
1824.42195	0.51004
1822.49339	0.50904
1820.56482	0.50811
1818.63626	0.50733
1816.70769	0.50668
1814.77913	0.50636
1812.85056	0.50629
1810.92200	0.50598
1808.99343	0.50533
1807.06487	0.50471
1805.13631	0.50436
1803.20774	0.50420
1801.27918	0.50408
1799.35061	0.50391
1797.42205	0.50402
1795.49348	0.50453
1793.56492	0.50492
1791.63635	0.50449
1789.70779	0.50362
1787.77923	0.50336
1785.85066	0.50359
1783.92210	0.50398
1781.99353	0.50438
1780.06497	0.50465
1778.13640	0.50507
1776.20784	0.50596
1774.27927	0.50732
1772.35071	0.50864
1770.42215	0.50920
1768.49358	0.50952
1766.56502	0.51018
1764.63645	0.51162
1762.70789	0.51421
1760.77932	0.51757
1758.85076	0.52099
1756.92220	0.52545
1754.99363	0.53087
1753.06507	0.53704
1751.13650	0.54608
1749.20794	0.55767
1747.27937	0.56744
1745.35081	0.57496
1743.42224	0.58167
1741.49368	0.58789
1739.56512	0.59316
1737.63655	0.59673
1735.70799	0.59935
1733.77942	0.60226
1731.85086	0.60413
1729.92229	0.60542
1727.99373	0.60733
1726.06516	0.61014
1724.13660	0.61442
1722.20804	0.61957
1720.27947	0.62522
1718.35091	0.63393
1716.42234	0.64706
1714.49378	0.65814
1712.56521	0.66799
1710.63665	0.67992
1708.70808	0.69483
1706.77952	0.71644
1704.85096	0.74478
1702.92239	0.77113
1700.99383	0.80729
1699.06526	0.86339
1697.13670	0.91430
1695.20813	0.96140
1693.27957	0.99702
1691.35100	1.02607
1689.42244	1.06090
1687.49388	1.09352
1685.56531	1.12562
1683.63675	1.17277
1681.70818	1.20868
1679.77962	1.23075
1677.85105	1.25047
1675.92249	1.27271
1673.99392	1.29738
1672.06536	1.31757
1670.13680	1.33759
1668.20823	1.35818
1666.27967	1.37084
1664.35110	1.38205
1662.42254	1.39533
1660.49397	1.40434
1658.56541	1.40963
1656.63684	1.41444
1654.70828	1.41992
1652.77972	1.42187
1650.85115	1.41933
1648.92259	1.41605
1646.99402	1.40987
1645.06546	1.40585
1643.13689	1.40436
1641.20833	1.40308
1639.27976	1.40176
1637.35120	1.39963
1635.42264	1.39278
1633.49407	1.38542
1631.56551	1.38112
1629.63694	1.37548
1627.70838	1.36686
1625.77981	1.35591
1623.85125	1.34035
1621.92269	1.32145
1619.99412	1.30567
1618.06556	1.28625
1616.13699	1.25517
1614.20843	1.22821
1612.27986	1.20743
1610.35130	1.18580
1608.42273	1.16370
1606.49417	1.14539
1604.56561	1.13237
1602.63704	1.12285
1600.70848	1.11615
1598.77991	1.11239
1596.85135	1.11063
1594.92278	1.10968
1592.99422	1.11009
1591.06565	1.11290
1589.13709	1.11774
1587.20853	1.12393
1585.27996	1.13160
1583.35140	1.14116
1581.42283	1.15218
1579.49427	1.16365
1577.56570	1.17723
1575.63714	1.19416
1573.70857	1.20601
1571.78001	1.21509
1569.85145	1.22913
1567.92288	1.24456
1565.99432	1.25623
1564.06575	1.26727
1562.13719	1.27692
1560.20862	1.28793
1558.28006	1.30147
1556.35149	1.30470
1554.42293	1.30782
1552.49437	1.31205
1550.56580	1.31508
1548.63724	1.31607
1546.70867	1.31609
1544.78011	1.31678
1542.85154	1.31798
1540.92298	1.31297
1538.99441	1.30099
1537.06585	1.29640
1535.13729	1.29453
1533.20872	1.29212
1531.28016	1.29003
1529.35159	1.28851
1527.42303	1.28574
1525.49446	1.28172
1523.56590	1.27899
1521.63733	1.27617
1519.70877	1.27204
1517.78021	1.26565
1515.85164	1.25567
1513.92308	1.24356
1511.99451	1.23038
1510.06595	1.21751
1508.13738	1.19675
1506.20882	1.15577
1504.28025	1.13162
1502.35169	1.11679
1500.42313	1.09979
1498.49456	1.07722
1496.56600	1.04870
1494.63743	1.02604
1492.70887	1.01161
1490.78030	0.99600
1488.85174	0.97536
1486.92317	0.95986
1484.99461	0.95098
1483.06605	0.94526
1481.13748	0.94221
1479.20892	0.94274
1477.28035	0.94710
1475.35179	0.95526
1473.42322	0.96872
1471.49466	0.98384
1469.56610	0.99351
1467.63753	1.00082
1465.70897	1.00885
1463.78040	1.01601
1461.85184	1.02016
1459.92327	1.02350
1457.99471	1.02955
1456.06614	1.03606
1454.13758	1.03684
1452.20902	1.03555
1450.28045	1.03420
1448.35189	1.03213
1446.42332	1.02855
1444.49476	1.02488
1442.56619	1.02153
1440.63763	1.01828
1438.70906	1.01462
1436.78050	1.00825
1434.85194	1.00062
1432.92337	0.99498
1430.99481	0.98956
1429.06624	0.98410
1427.13768	0.98079
1425.20911	0.97983
1423.28055	0.98028
1421.35198	0.98165
1419.42342	0.98424
1417.49486	0.98611
1415.56629	0.98574
1413.63773	0.98472
1411.70916	0.98338
1409.78060	0.98169
1407.85203	0.98037
1405.92347	0.97968
1403.99490	0.97890
1402.06634	0.97830
1400.13778	0.97861
1398.20921	0.97955
1396.28065	0.98056
1394.35208	0.98122
1392.42352	0.98205
1390.49495	0.98459
1388.56639	0.99063
1386.63782	1.00055
1384.70926	1.01110
1382.78070	1.02076
1380.85213	1.02906
1378.92357	1.03412
1376.99500	1.03462
1375.06644	1.02940
1373.13787	1.01889
1371.20931	1.00676
1369.28074	0.99319
1367.35218	0.97843
1365.42362	0.96506
1363.49505	0.95209
1361.56649	0.93951
1359.63792	0.93046
1357.70936	0.92473
1355.78079	0.92075
1353.85223	0.91755
1351.92366	0.91476
1349.99510	0.91240
1348.06654	0.91042
1346.13797	0.90901
1344.20941	0.90848
1342.28084	0.90881
1340.35228	0.90983
1338.42371	0.91129
1336.49515	0.91352
1334.56659	0.91770
1332.63802	0.92444
1330.70946	0.93272
1328.78089	0.94013
1326.85233	0.94516
1324.92376	0.94858
1322.99520	0.95184
1321.06663	0.95551
1319.13807	0.95930
1317.20951	0.96259
1315.28094	0.96540
1313.35238	0.96796
1311.42381	0.96969
1309.49525	0.97024
1307.56668	0.96967
1305.63812	0.96835
1303.70955	0.96688
1301.78099	0.96499
1299.85243	0.96184
1297.92386	0.95754
1295.99530	0.95305
1294.06673	0.94943
1292.13817	0.94743
1290.20960	0.94682
1288.28104	0.94700
1286.35247	0.94773
1284.42391	0.94860
1282.49535	0.94922
1280.56678	0.94995
1278.63822	0.95118
1276.70965	0.95313
1274.78109	0.95633
1272.85252	0.96099
1270.92396	0.96675
1268.99539	0.97333
1267.06683	0.98027
1265.13827	0.98650
1263.20970	0.99098
1261.28114	0.99370
1259.35257	0.99547
1257.42401	0.99686
1255.49544	0.99806
1253.56688	0.99912
1251.63831	0.99997
1249.70975	1.00075
1247.78119	1.00130
1245.85262	1.00098
1243.92406	0.99965
1241.99549	0.99765
1240.06693	0.99496
1238.13836	0.99166
1236.20980	0.98795
1234.28123	0.98329
1232.35267	0.97729
1230.42411	0.97046
1228.49554	0.96320
1226.56698	0.95501
1224.63841	0.94562
1222.70985	0.93600
1220.78128	0.92703
1218.85272	0.91848
1216.92415	0.91017
1214.99559	0.90323
1213.06703	0.89910
1211.13846	0.89768
1209.20990	0.89730
1207.28133	0.89601
1205.35277	0.89281
1203.42420	0.88769
1201.49564	0.88118
1199.56708	0.87388
1197.63851	0.86614
1195.70995	0.85862
1193.78138	0.85238
1191.85282	0.84828
1189.92425	0.84646
1187.99569	0.84601
1186.06712	0.84617
1184.13856	0.84725
1182.21000	0.84951
1180.28143	0.85326
1178.35287	0.85912
1176.42430	0.86679
1174.49574	0.87501
1172.56717	0.88285
1170.63861	0.89058
1168.71004	0.89952
1166.78148	0.91043
1164.85292	0.92250
1162.92435	0.93369
1160.99579	0.94181
1159.06722	0.94550
1157.13866	0.94425
1155.21009	0.93836
1153.28153	0.92877
1151.35296	0.91681
1149.42440	0.90382
1147.49584	0.89100
1145.56727	0.87988
1143.63871	0.87175
1141.71014	0.86717
1139.78158	0.86609
1137.85301	0.86778
1135.92445	0.87121
1133.99588	0.87619
1132.06732	0.88341
1130.13876	0.89315
1128.21019	0.90446
1126.28163	0.91581
1124.35306	0.92597
1122.42450	0.93430
1120.49593	0.94064
1118.56737	0.94457
1116.63880	0.94516
1114.71024	0.94201
1112.78168	0.93551
1110.85311	0.92699
1108.92455	0.91834
1106.99598	0.91063
1105.06742	0.90412
1103.13885	0.89930
1101.21029	0.89721
1099.28172	0.89893
1097.35316	0.90466
1095.42460	0.91364
1093.49603	0.92546
1091.56747	0.94007
1089.63890	0.95675
1087.71034	0.97461
1085.78177	0.99321
1083.85321	1.01180
1081.92464	1.02902
1079.99608	1.04337
1078.06752	1.05283
1076.13895	1.05587
1074.21039	1.05380
1072.28182	1.04936
1070.35326	1.04341
1068.42469	1.03526
1066.49613	1.02527
1064.56756	1.01405
1062.63900	1.00144
1060.71044	0.98788
1058.78187	0.97381
1056.85331	0.95982
1054.92474	0.94702
1052.99618	0.93605
1051.06761	0.92733
1049.13905	0.92125
1047.21049	0.91835
1045.28192	0.91932
1043.35336	0.92477
1041.42479	0.93440
1039.49623	0.94599
1037.56766	0.95677
1035.63910	0.96513
1033.71053	0.97077
1031.78197	0.97418
1029.85341	0.97555
1027.92484	0.97410
1025.99628	0.96949
1024.06771	0.96253
1022.13915	0.95487
1020.21058	0.94836
1018.28202	0.94338
1016.35345	0.93825
1014.42489	0.93025
1012.49633	0.91752
1010.56776	0.90044
1008.63920	0.88025
1006.71063	0.85862
1004.78207	0.83745
1002.85350	0.81785
1000.92494	0.80067
998.99637	0.78682
997.06781	0.77664
995.13925	0.76940
993.21068	0.76365
991.28212	0.75838
989.35355	0.75363
987.42499	0.75016
985.49642	0.74903
983.56786	0.75042
981.63929	0.75331
979.71073	0.75681
977.78217	0.76027
975.85360	0.76255
973.92504	0.76241
971.99647	0.75908
970.06791	0.75269
968.13934	0.74408
966.21078	0.73425
964.28221	0.72443
962.35365	0.71640
960.42509	0.71215
958.49652	0.71241
956.56796	0.71473
954.63939	0.71469
952.71083	0.70976
950.78226	0.70042
948.85370	0.68900
946.92513	0.67866
944.99657	0.67171
943.06801	0.66861
941.13944	0.66862
939.21088	0.67101
937.28231	0.67529
935.35375	0.68108
933.42518	0.68819
931.49662	0.69625
929.56805	0.70459
927.63949	0.71280
925.71093	0.72068
923.78236	0.72752
921.85380	0.73229
919.92523	0.73402
917.99667	0.73237
916.06810	0.72825
914.13954	0.72258
912.21098	0.71566
910.28241	0.70806
908.35385	0.70054
906.42528	0.69350
904.49672	0.68715
902.56815	0.68159
900.63959	0.67681
898.71102	0.67268
896.78246	0.66880
894.85390	0.66492
892.92533	0.66151
890.99677	0.65877
889.06820	0.65648
887.13964	0.65505
885.21107	0.65522
883.28251	0.65693
881.35394	0.65980
879.42538	0.66374
877.49682	0.66842
875.56825	0.67310
873.63969	0.67722
871.71112	0.68078
869.78256	0.68356
867.85399	0.68496
865.92543	0.68483
863.99686	0.68355
862.06830	0.68139
860.13974	0.67841
858.21117	0.67536
856.28261	0.67296
854.35404	0.67078
852.42548	0.66859
850.49691	0.66687
848.56835	0.66628
846.63978	0.66731
844.71122	0.66996
842.78266	0.67422
840.85409	0.68030
838.92553	0.68770
836.99696	0.69584
835.06840	0.70495
833.13983	0.71500
831.21127	0.72527
829.28270	0.73531
827.35414	0.74507
825.42558	0.75397
823.49701	0.76112
821.56845	0.76621
819.63988	0.76927
817.71132	0.77037
815.78275	0.76917
813.85419	0.76506
811.92562	0.75848
809.99706	0.75052
808.06850	0.74188
806.13993	0.73284
804.21137	0.72358
802.28280	0.71450
800.35424	0.70580
798.42567	0.69755
796.49711	0.69040
794.56854	0.68522
792.63998	0.68169
790.71142	0.67892
788.78285	0.67718
786.85429	0.67693
784.92572	0.67825
782.99716	0.68117
781.06859	0.68503
779.14003	0.68915
777.21147	0.69338
775.28290	0.69767
773.35434	0.70192
771.42577	0.70587
769.49721	0.70904
767.56864	0.71122
765.64008	0.71241
763.71151	0.71273
761.78295	0.71237
759.85439	0.71107
757.92582	0.70900
755.99726	0.70709
754.06869	0.70585
752.14013	0.70544
750.21156	0.70600
748.28300	0.70703
746.35443	0.70788
744.42587	0.70886
742.49731	0.71040
740.56874	0.71241
738.64018	0.71477
736.71161	0.71752
734.78305	0.72076
732.85448	0.72465
730.92592	0.72958
728.99735	0.73515
727.06879	0.74035
725.14023	0.74522
723.21166	0.75079
721.28310	0.75740
719.35453	0.76344
717.42597	0.76740
715.49740	0.77031
713.56884	0.77331
711.64027	0.77650
709.71171	0.77995
707.78315	0.78341
705.85458	0.78664
703.92602	0.78895
701.99745	0.78932
700.06889	0.78805
698.14032	0.78641
696.21176	0.78492
694.28319	0.78368
692.35463	0.78270
690.42607	0.78120
688.49750	0.77891
686.56894	0.77689
684.64037	0.77555
682.71181	0.77372
680.78324	0.77042
678.85468	0.76609
676.92611	0.76132
674.99755	0.75616
673.06899	0.75151
671.14042	0.74811
669.21186	0.74302
667.28329	0.73404
665.35473	0.72850
663.42616	0.72578
661.49760	0.72256
659.56903	0.71779
657.64047	0.71266
655.71191	0.70874
653.78334	0.70675
651.85478	0.70655
649.92621	0.70769
647.99765	0.70998
646.06908	0.71354
644.14052	0.71892
642.21195	0.72676
640.28339	0.73619
638.35483	0.74521
636.42626	0.75254
634.49770	0.75705
632.56913	0.75850
630.64057	0.75882
628.71200	0.75901
626.78344	0.75788
624.85488	0.75422
622.92631	0.74941
620.99775	0.74534
619.06918	0.74108
617.14062	0.73530
615.21205	0.72817
613.28349	0.72046
611.35492	0.71309
609.42636	0.70633
607.49780	0.70072
605.56923	0.69731
603.64067	0.69544
601.71210	0.69393
599.78354	0.69315
