3997.91406	0.85733
3995.98550	0.85582
3994.05693	0.85538
3992.12837	0.85586
3990.19980	0.85557
3988.27124	0.85449
3986.34268	0.85393
3984.41411	0.85419
3982.48555	0.85441
3980.55698	0.85449
3978.62842	0.85486
3976.69985	0.85521
3974.77129	0.85593
3972.84272	0.85660
3970.91416	0.85555
3968.98560	0.85415
3967.05703	0.85484
3965.12847	0.85678
3963.19990	0.85746
3961.27134	0.85600
3959.34277	0.85405
3957.41421	0.85320
3955.48564	0.85349
3953.55708	0.85428
3951.62852	0.85441
3949.69995	0.85262
3947.77139	0.84972
3945.84282	0.84799
3943.91426	0.84703
3941.98569	0.84564
3940.05713	0.84494
3938.12856	0.84582
3936.20000	0.84757
3934.27144	0.84824
3932.34287	0.84679
3930.41431	0.84593
3928.48574	0.84705
3926.55718	0.84741
3924.62861	0.84633
3922.70005	0.84681
3920.77148	0.84829
3918.84292	0.84755
3916.91436	0.84429
3914.98579	0.84066
3913.05723	0.83754
3911.12866	0.83544
3909.20010	0.83626
3907.27153	0.83942
3905.34297	0.84076
3903.41440	0.83853
3901.48584	0.83563
3899.55728	0.83259
3897.62871	0.83047
3895.70015	0.83108
3893.77158	0.83273
3891.84302	0.83110
3889.91445	0.82838
3887.98589	0.82910
3886.05733	0.82985
3884.12876	0.82901
3882.20020	0.82833
3880.27163	0.82635
3878.34307	0.82570
3876.41450	0.82697
3874.48594	0.82713
3872.55737	0.82693
3870.62881	0.82675
3868.70025	0.82635
3866.77168	0.82686
3864.84312	0.82506
3862.91455	0.82200
3860.98599	0.82249
3859.05742	0.82455
3857.12886	0.82646
3855.20029	0.82753
3853.27173	0.82351
3851.34317	0.81791
3849.41460	0.81611
3847.48604	0.81622
3845.55747	0.81672
3843.62891	0.81626
3841.70034	0.81636
3839.77178	0.81829
3837.84321	0.81832
3835.91465	0.81701
3833.98609	0.81687
3832.05752	0.81595
3830.12896	0.81446
3828.20039	0.81410
3826.27183	0.81551
3824.34326	0.81881
3822.41470	0.82014
3820.48613	0.81637
3818.55757	0.81454
3816.62901	0.81272
3814.70044	0.80971
3812.77188	0.80993
3810.84331	0.81200
3808.91475	0.81366
3806.98618	0.81300
3805.05762	0.81293
3803.12905	0.81416
3801.20049	0.81061
3799.27193	0.80573
3797.34336	0.80359
3795.41480	0.80320
3793.48623	0.80441
3791.55767	0.80549
3789.62910	0.80609
3787.70054	0.80681
3785.77197	0.80662
3783.84341	0.80547
3781.91485	0.80487
3779.98628	0.80329
3778.05772	0.80068
3776.12915	0.79993
3774.20059	0.80080
3772.27202	0.80177
3770.34346	0.80071
3768.41489	0.79867
3766.48633	0.79783
3764.55777	0.79722
3762.62920	0.79821
3760.70064	0.80066
3758.77207	0.80187
3756.84351	0.80237
3754.91494	0.80452
3752.98638	0.80771
3751.05781	0.80687
3749.12925	0.80181
3747.20069	0.79954
3745.27212	0.79645
3743.34356	0.79361
3741.41499	0.79662
3739.48643	0.80157
3737.55786	0.80330
3735.62930	0.79864
3733.70074	0.79388
3731.77217	0.79483
3729.84361	0.79761
3727.91504	0.79881
3725.98648	0.79690
3724.05791	0.79421
3722.12935	0.79333
3720.20078	0.79366
3718.27222	0.79470
3716.34366	0.79649
3714.41509	0.79898
3712.48653	0.79957
3710.55796	0.79585
3708.62940	0.79325
3706.70083	0.79399
3704.77227	0.79684
3702.84370	0.79893
3700.91514	0.79841
3698.98658	0.79793
3697.05801	0.79837
3695.12945	0.79949
3693.20088	0.80174
3691.27232	0.80450
3689.34375	0.80573
3687.41519	0.80608
3685.48662	0.80809
3683.55806	0.81186
3681.62950	0.81652
3679.70093	0.82167
3677.77237	0.82621
3675.84380	0.82600
3673.91524	0.82521
3671.98667	0.82916
3670.05811	0.83349
3668.12954	0.83677
3666.20098	0.84091
3664.27242	0.84533
3662.34385	0.84996
3660.41529	0.85563
3658.48672	0.86103
3656.55816	0.86499
3654.62959	0.87049
3652.70103	0.87956
3650.77246	0.88999
3648.84390	0.89450
3646.91534	0.89669
3644.98677	0.90311
3643.05821	0.91064
3641.12964	0.91743
3639.20108	0.92329
3637.27251	0.92899
3635.34395	0.93556
3633.41538	0.94340
3631.48682	0.95168
3629.55826	0.95942
3627.62969	0.96415
3625.70113	0.96927
3623.77256	0.97692
3621.84400	0.98416
3619.91543	0.98916
3617.98687	0.99493
3616.05830	1.00315
3614.12974	1.01159
3612.20118	1.01830
3610.27261	1.02293
3608.34405	1.02825
3606.41548	1.03708
3604.48692	1.04698
3602.55835	1.05550
3600.62979	1.06097
3598.70123	1.06346
3596.77266	1.06677
3594.84410	1.07422
3592.91553	1.08543
3590.98697	1.09796
3589.05840	1.11022
3587.12984	1.11740
3585.20127	1.11996
3583.27271	1.12454
3581.34415	1.13275
3579.41558	1.14366
3577.48702	1.15431
3575.55845	1.16309
3573.62989	1.17036
3571.70132	1.17771
3569.77276	1.18639
3567.84419	1.19691
3565.91563	1.20852
3563.98707	1.21797
3562.05850	1.22471
3560.12994	1.23008
3558.20137	1.23621
3556.27281	1.24195
3554.34424	1.24680
3552.41568	1.25449
3550.48711	1.26589
3548.55855	1.27837
3546.62999	1.28911
3544.70142	1.29648
3542.77286	1.30222
3540.84429	1.30776
3538.91573	1.31467
3536.98716	1.32286
3535.05860	1.32978
3533.13003	1.33665
3531.20147	1.34581
3529.27291	1.35382
3527.34434	1.35906
3525.41578	1.36609
3523.48721	1.37597
3521.55865	1.38785
3519.63008	1.40147
3517.70152	1.41417
3515.77295	1.42346
3513.84439	1.43141
3511.91583	1.43961
3509.98726	1.44632
3508.05870	1.45127
3506.13013	1.45741
3504.20157	1.46592
3502.27300	1.47265
3500.34444	1.47964
3498.41587	1.49211
3496.48731	1.50545
3494.55875	1.51550
3492.63018	1.52214
3490.70162	1.52301
3488.77305	1.52059
3486.84449	1.52297
3484.91592	1.53115
3482.98736	1.54088
3481.05879	1.54924
3479.13023	1.55173
3477.20167	1.55171
3475.27310	1.55946
3473.34454	1.57410
3471.41597	1.58707
3469.48741	1.59644
3467.55884	1.59890
3465.63028	1.59511
3463.70171	1.59648
3461.77315	1.60307
3459.84459	1.60624
3457.91602	1.60494
3455.98746	1.60109
3454.05889	1.59882
3452.13033	1.60249
3450.20176	1.61167
3448.27320	1.62247
3446.34464	1.63093
3444.41607	1.63505
3442.48751	1.63527
3440.55894	1.63418
3438.63038	1.63224
3436.70181	1.62981
3434.77325	1.63041
3432.84468	1.63174
3430.91612	1.62860
3428.98756	1.62476
3427.05899	1.62482
3425.13043	1.62772
3423.20186	1.63269
3421.27330	1.63678
3419.34473	1.63670
3417.41617	1.63802
3415.48760	1.64389
3413.55904	1.64776
3411.63048	1.64836
3409.70191	1.65201
3407.77335	1.65778
3405.84478	1.66043
3403.91622	1.66191
3401.98765	1.66546
3400.05909	1.66708
3398.13052	1.66414
3396.20196	1.66137
3394.27340	1.66241
3392.34483	1.66404
3390.41627	1.66213
3388.48770	1.66068
3386.55914	1.66221
3384.63057	1.66378
3382.70201	1.67108
3380.77344	1.68389
3378.84488	1.68889
3376.91632	1.68769
3374.98775	1.69168
3373.05919	1.70080
3371.13062	1.70749
3369.20206	1.70756
3367.27349	1.70431
3365.34493	1.70085
3363.41636	1.69743
3361.48780	1.69520
3359.55924	1.69626
3357.63067	1.69990
3355.70211	1.69941
3353.77354	1.69323
3351.84498	1.69181
3349.91641	1.70084
3347.98785	1.70955
3346.05928	1.70846
3344.13072	1.70584
3342.20216	1.71071
3340.27359	1.71843
3338.34503	1.72175
3336.41646	1.72345
3334.48790	1.72678
3332.55933	1.72815
3330.63077	1.72604
3328.70220	1.72411
3326.77364	1.72797
3324.84508	1.73607
3322.91651	1.74018
3320.98795	1.73703
3319.05938	1.72728
3317.13082	1.71690
3315.20225	1.71769
3313.27369	1.73099
3311.34513	1.74436
3309.41656	1.75025
3307.48800	1.75062
3305.55943	1.74796
3303.63087	1.74264
3301.70230	1.73551
3299.77374	1.73404
3297.84517	1.74361
3295.91661	1.75665
3293.98805	1.76085
3292.05948	1.75438
3290.13092	1.74514
3288.20235	1.73809
3286.27379	1.73642
3284.34522	1.73934
3282.41666	1.73849
3280.48809	1.73272
3278.55953	1.72791
3276.63097	1.72616
3274.70240	1.72772
3272.77384	1.73238
3270.84527	1.73618
3268.91671	1.73224
3266.98814	1.72211
3265.05958	1.71552
3263.13101	1.71451
3261.20245	1.71377
3259.27389	1.71054
3257.34532	1.70537
3255.41676	1.70127
3253.48819	1.70033
3251.55963	1.70078
3249.63106	1.70112
3247.70250	1.69978
3245.77393	1.69559
3243.84537	1.69051
3241.91681	1.68517
3239.98824	1.68062
3238.05968	1.67762
3236.13111	1.67147
3234.20255	1.65985
3232.27398	1.64862
3230.34542	1.64432
3228.41685	1.64431
3226.48829	1.64193
3224.55973	1.63977
3222.63116	1.64001
3220.70260	1.63613
3218.77403	1.62753
3216.84547	1.62108
3214.91690	1.61958
3212.98834	1.62170
3211.05977	1.62397
3209.13121	1.62292
3207.20265	1.61776
3205.27408	1.60959
3203.34552	1.60153
3201.41695	1.59592
3199.48839	1.59141
3197.55982	1.58789
3195.63126	1.58702
3193.70269	1.58565
3191.77413	1.58183
3189.84557	1.57949
3187.91700	1.57586
3185.98844	1.56639
3184.05987	1.55726
3182.13131	1.55130
3180.20274	1.54550
3178.27418	1.54299
3176.34562	1.54377
3174.41705	1.53994
3172.48849	1.53151
3170.55992	1.52497
3168.63136	1.52002
3166.70279	1.51490
3164.77423	1.51134
3162.84566	1.50942
3160.91710	1.50649
3158.98854	1.50052
3157.05997	1.49385
3155.13141	1.48980
3153.20284	1.48810
3151.27428	1.48793
3149.34571	1.48741
3147.41715	1.48314
3145.48858	1.47625
3143.56002	1.47112
3141.63146	1.46943
3139.70289	1.46931
3137.77433	1.46795
3135.84576	1.46495
3133.91720	1.46128
3131.98863	1.45825
3130.06007	1.45880
3128.13150	1.46242
3126.20294	1.46391
3124.27438	1.46186
3122.34581	1.45957
3120.41725	1.45885
3118.48868	1.45866
3116.56012	1.45787
3114.63155	1.45790
3112.70299	1.45990
3110.77442	1.46138
3108.84586	1.45977
3106.91730	1.45598
3104.98873	1.45450
3103.06017	1.45764
3101.13160	1.46128
3099.20304	1.46281
3097.27447	1.46351
3095.34591	1.46256
3093.41734	1.46155
3091.48878	1.46233
3089.56022	1.46041
3087.63165	1.45607
3085.70309	1.45442
3083.77452	1.45215
3081.84596	1.44547
3079.91739	1.43862
3077.98883	1.43561
3076.06026	1.43526
3074.13170	1.43415
3072.20314	1.43172
3070.27457	1.42967
3068.34601	1.42745
3066.41744	1.42310
3064.48888	1.41740
3062.56031	1.41264
3060.63175	1.40914
3058.70318	1.40637
3056.77462	1.40364
3054.84606	1.39937
3052.91749	1.39306
3050.98893	1.38669
3049.06036	1.38288
3047.13180	1.38145
3045.20323	1.37902
3043.27467	1.37295
3041.34610	1.36496
3039.41754	1.35896
3037.48898	1.35587
3035.56041	1.35340
3033.63185	1.34974
3031.70328	1.34519
3029.77472	1.34058
3027.84615	1.33549
3025.91759	1.32959
3023.98903	1.32533
3022.06046	1.32411
3020.13190	1.32364
3018.20333	1.32319
3016.27477	1.32253
3014.34620	1.32067
3012.41764	1.31807
3010.48907	1.31370
3008.56051	1.30792
3006.63195	1.30451
3004.70338	1.30406
3002.77482	1.30439
3000.84625	1.30592
2998.91769	1.30911
2996.98912	1.31137
2995.06056	1.31255
2993.13199	1.31596
2991.20343	1.32181
2989.27487	1.32761
2987.34630	1.33269
2985.41774	1.33900
2983.48917	1.34832
2981.56061	1.36032
2979.63204	1.37283
2977.70348	1.38199
2975.77491	1.38742
2973.84635	1.39474
2971.91779	1.40608
2969.98922	1.41713
2968.06066	1.42617
2966.13209	1.43544
2964.20353	1.44442
2962.27496	1.44998
2960.34640	1.45147
2958.41783	1.45040
2956.48927	1.44772
2954.56071	1.44228
2952.63214	1.43317
2950.70358	1.42459
2948.77501	1.42117
2946.84645	1.42226
2944.91788	1.42691
2942.98932	1.43531
2941.06075	1.44586
2939.13219	1.45694
2937.20363	1.46834
2935.27506	1.48087
2933.34650	1.49403
2931.41793	1.50614
2929.48937	1.51655
2927.56080	1.52413
2925.63224	1.52799
2923.70367	1.52838
2921.77511	1.52807
2919.84655	1.52809
2917.91798	1.52057
2915.98942	1.50090
2914.06085	1.47428
2912.13229	1.44639
2910.20372	1.42155
2908.27516	1.40075
2906.34659	1.38368
2904.41803	1.37224
2902.48947	1.36523
2900.56090	1.35897
2898.63234	1.35260
2896.70377	1.34712
2894.77521	1.34237
2892.84664	1.33734
2890.91808	1.33241
2888.98952	1.32812
2887.06095	1.32359
2885.13239	1.31888
2883.20382	1.31540
2881.27526	1.31431
2879.34669	1.31596
2877.41813	1.31833
2875.48956	1.31809
2873.56100	1.31420
2871.63244	1.30711
2869.70387	1.29794
2867.77531	1.28980
2865.84674	1.28482
2863.91818	1.28173
2861.98961	1.27943
2860.06105	1.28038
2858.13248	1.28713
2856.20392	1.29822
2854.27536	1.31069
2852.34679	1.32092
2850.41823	1.32063
2848.48966	1.30237
2846.56110	1.27016
2844.63253	1.23485
2842.70397	1.20452
2840.77540	1.18235
2838.84684	1.16680
2836.91828	1.15476
2834.98971	1.14519
2833.06115	1.13779
2831.13258	1.13185
2829.20402	1.12667
2827.27545	1.12145
2825.34689	1.11565
2823.41832	1.10977
2821.48976	1.10499
2819.56120	1.10145
2817.63263	1.09783
2815.70407	1.09361
2813.77550	1.08985
2811.84694	1.08646
2809.91837	1.08248
2807.98981	1.07861
2806.06124	1.07568
2804.13268	1.07288
2802.20412	1.06944
2800.27555	1.06558
2798.34699	1.06186
2796.41842	1.05804
2794.48986	1.05365
2792.56129	1.04957
2790.63273	1.04630
2788.70416	1.04284
2786.77560	1.03930
2784.84704	1.03653
2782.91847	1.03395
2780.98991	1.03069
2779.06134	1.02708
2777.13278	1.02406
2775.20421	1.02161
2773.27565	1.01906
2771.34708	1.01652
2769.41852	1.01433
2767.48996	1.01219
2765.56139	1.00952
2763.63283	1.00648
2761.70426	1.00403
2759.77570	1.00187
2757.84713	0.99881
2755.91857	0.99593
2753.99001	0.99428
2752.06144	0.99226
2750.13288	0.98919
2748.20431	0.98625
2746.27575	0.98346
2744.34718	0.98086
2742.41862	0.97929
2740.49005	0.97780
2738.56149	0.97494
2736.63293	0.97162
2734.70436	0.96913
2732.77580	0.96720
2730.84723	0.96503
2728.91867	0.96254
2726.99010	0.95979
2725.06154	0.95649
2723.13297	0.95296
2721.20441	0.94991
2719.27585	0.94736
2717.34728	0.94488
2715.41872	0.94240
2713.49015	0.93982
2711.56159	0.93688
2709.63302	0.93387
2707.70446	0.93114
2705.77589	0.92860
2703.84733	0.92607
2701.91877	0.92356
2699.99020	0.92135
2698.06164	0.91985
2696.13307	0.91874
2694.20451	0.91714
2692.27594	0.91528
2690.34738	0.91390
2688.41881	0.91265
2686.49025	0.91116
2684.56169	0.90957
2682.63312	0.90753
2680.70456	0.90492
2678.77599	0.90247
2676.84743	0.90028
2674.91886	0.89764
2672.99030	0.89460
2671.06173	0.89173
2669.13317	0.88901
2667.20461	0.88627
2665.27604	0.88356
2663.34748	0.88090
2661.41891	0.87861
2659.49035	0.87710
2657.56178	0.87593
2655.63322	0.87464
2653.70465	0.87357
2651.77609	0.87294
2649.84753	0.87242
2647.91896	0.87181
2645.99040	0.87115
2644.06183	0.87036
2642.13327	0.86968
2640.20470	0.86956
2638.27614	0.86966
2636.34757	0.86918
2634.41901	0.86817
2632.49045	0.86712
2630.56188	0.86595
2628.63332	0.86462
2626.70475	0.86363
2624.77619	0.86284
2622.84762	0.86130
2620.91906	0.85894
2618.99049	0.85675
2617.06193	0.85501
2615.13337	0.85323
2613.20480	0.85125
2611.27624	0.84921
2609.34767	0.84712
2607.41911	0.84509
2605.49054	0.84351
2603.56198	0.84251
2601.63342	0.84170
2599.70485	0.84063
2597.77629	0.83937
2595.84772	0.83837
2593.91916	0.83757
2591.99059	0.83642
2590.06203	0.83484
2588.13346	0.83332
2586.20490	0.83207
2584.27634	0.83064
2582.34777	0.82897
2580.41921	0.82752
2578.49064	0.82601
2576.56208	0.82400
2574.63351	0.82196
2572.70495	0.82018
2570.77638	0.81828
2568.84782	0.81600
2566.91926	0.81348
2564.99069	0.81125
2563.06213	0.80959
2561.13356	0.80841
2559.20500	0.80736
2557.27643	0.80594
2555.34787	0.80437
2553.41930	0.80327
2551.49074	0.80267
2549.56218	0.80224
2547.63361	0.80164
2545.70505	0.80067
2543.77648	0.79936
2541.84792	0.79803
2539.91935	0.79701
2537.99079	0.79603
2536.06222	0.79483
2534.13366	0.79345
2532.20510	0.79176
2530.27653	0.78980
2528.34797	0.78796
2526.41940	0.78599
2524.49084	0.78348
2522.56227	0.78076
2520.63371	0.77847
2518.70514	0.77675
2516.77658	0.77514
2514.84802	0.77350
2512.91945	0.77213
2510.99089	0.77097
2509.06232	0.76986
2507.13376	0.76893
2505.20519	0.76833
2503.27663	0.76783
2501.34806	0.76719
2499.41950	0.76651
2497.49094	0.76601
2495.56237	0.76556
2493.63381	0.76478
2491.70524	0.76352
2489.77668	0.76220
2487.84811	0.76125
2485.91955	0.76046
2483.99098	0.75941
2482.06242	0.75814
2480.13386	0.75666
2478.20529	0.75493
2476.27673	0.75332
2474.34816	0.75212
2472.41960	0.75111
2470.49103	0.74991
2468.56247	0.74840
2466.63391	0.74677
2464.70534	0.74527
2462.77678	0.74396
2460.84821	0.74296
2458.91965	0.74227
2456.99108	0.74183
2455.06252	0.74161
2453.13395	0.74133
2451.20539	0.74086
2449.27683	0.74024
2447.34826	0.73926
2445.41970	0.73801
2443.49113	0.73705
2441.56257	0.73625
2439.63400	0.73516
2437.70544	0.73394
2435.77687	0.73293
2433.84831	0.73179
2431.91975	0.73017
2429.99118	0.72843
2428.06262	0.72704
2426.13405	0.72570
2424.20549	0.72408
2422.27692	0.72250
2420.34836	0.72128
2418.41979	0.72034
2416.49123	0.71937
2414.56267	0.71823
2412.63410	0.71698
2410.70554	0.71563
2408.77697	0.71426
2406.84841	0.71323
2404.91984	0.71259
2402.99128	0.71187
2401.06271	0.71084
2399.13415	0.70987
2397.20559	0.70928
2395.27702	0.70910
2393.34846	0.70898
2391.41989	0.70835
2389.49133	0.70734
2387.56276	0.70656
2385.63420	0.70622
2383.70563	0.70643
2381.77707	0.70718
2379.84851	0.70815
2377.91994	0.70922
2375.99138	0.71031
2374.06281	0.71110
2372.13425	0.71134
2370.20568	0.71109
2368.27712	0.71112
2366.34855	0.71180
2364.41999	0.71218
2362.49143	0.71190
2360.56286	0.71140
2358.63430	0.71131
2356.70573	0.71070
2354.77717	0.70813
2352.84860	0.70407
2350.92004	0.70077
2348.99147	0.69965
2347.06291	0.70029
2345.13435	0.70167
2343.20578	0.70224
2341.27722	0.70126
2339.34865	0.70024
2337.42009	0.70003
2335.49152	0.69968
2333.56296	0.69885
2331.63440	0.69762
2329.70583	0.69596
2327.77727	0.69467
2325.84870	0.69371
2323.92014	0.69175
2321.99157	0.68893
2320.06301	0.68688
2318.13444	0.68584
2316.20588	0.68482
2314.27732	0.68364
2312.34875	0.68276
2310.42019	0.68182
2308.49162	0.68035
2306.56306	0.67845
2304.63449	0.67641
2302.70593	0.67481
2300.77736	0.67383
2298.84880	0.67294
2296.92024	0.67216
2294.99167	0.67188
2293.06311	0.67175
2291.13454	0.67111
2289.20598	0.67013
2287.27741	0.66939
2285.34885	0.66893
2283.42028	0.66842
2281.49172	0.66787
2279.56316	0.66738
2277.63459	0.66677
2275.70603	0.66607
2273.77746	0.66535
2271.84890	0.66454
2269.92033	0.66373
2267.99177	0.66297
2266.06320	0.66226
2264.13464	0.66159
2262.20608	0.66087
2260.27751	0.65997
2258.34895	0.65890
2256.42038	0.65805
2254.49182	0.65750
2252.56325	0.65687
2250.63469	0.65624
2248.70612	0.65572
2246.77756	0.65499
2244.84900	0.65417
2242.92043	0.65364
2240.99187	0.65338
2239.06330	0.65313
2237.13474	0.65298
2235.20617	0.65287
2233.27761	0.65263
2231.34904	0.65251
2229.42048	0.65245
2227.49192	0.65206
2225.56335	0.65133
2223.63479	0.65056
2221.70622	0.65005
2219.77766	0.64990
2217.84909	0.64985
2215.92053	0.64945
2213.99196	0.64848
2212.06340	0.64733
2210.13484	0.64639
2208.20627	0.64566
2206.27771	0.64503
2204.34914	0.64442
2202.42058	0.64372
2200.49201	0.64292
2198.56345	0.64223
2196.63488	0.64179
2194.70632	0.64142
2192.77776	0.64105
2190.84919	0.64060
2188.92063	0.64000
2186.99206	0.63943
2185.06350	0.63918
2183.13493	0.63925
2181.20637	0.63923
2179.27781	0.63891
2177.34924	0.63849
2175.42068	0.63813
2173.49211	0.63772
2171.56355	0.63724
2169.63498	0.63673
2167.70642	0.63608
2165.77785	0.63528
2163.84929	0.63448
2161.92073	0.63362
2159.99216	0.63249
2158.06360	0.63128
2156.13503	0.63035
2154.20647	0.62956
2152.27790	0.62880
2150.34934	0.62822
2148.42077	0.62771
2146.49221	0.62723
2144.56365	0.62703
2142.63508	0.62711
2140.70652	0.62736
2138.77795	0.62771
2136.84939	0.62807
2134.92082	0.62859
2132.99226	0.62939
2131.06369	0.63018
2129.13513	0.63083
2127.20657	0.63146
2125.27800	0.63190
2123.34944	0.63206
2121.42087	0.63218
2119.49231	0.63219
2117.56374	0.63184
2115.63518	0.63109
2113.70661	0.63024
2111.77805	0.62966
2109.84949	0.62915
2107.92092	0.62831
2105.99236	0.62727
2104.06379	0.62629
2102.13523	0.62535
2100.20666	0.62446
2098.27810	0.62365
2096.34953	0.62282
2094.42097	0.62207
2092.49241	0.62157
2090.56384	0.62115
2088.63528	0.62068
2086.70671	0.62018
2084.77815	0.61959
2082.84958	0.61895
2080.92102	0.61830
2078.99245	0.61744
2077.06389	0.61641
2075.13533	0.61546
2073.20676	0.61459
2071.27820	0.61362
2069.34963	0.61253
2067.42107	0.61138
2065.49250	0.60996
2063.56394	0.60822
2061.63537	0.60675
2059.70681	0.60570
2057.77825	0.60453
2055.84968	0.60307
2053.92112	0.60159
2051.99255	0.60034
2050.06399	0.59936
2048.13542	0.59849
2046.20686	0.59763
2044.27830	0.59673
2042.34973	0.59567
2040.42117	0.59455
2038.49260	0.59360
2036.56404	0.59273
2034.63547	0.59157
2032.70691	0.58998
2030.77834	0.58829
2028.84978	0.58674
2026.92122	0.58536
2024.99265	0.58399
2023.06409	0.58237
2021.13552	0.58063
2019.20696	0.57910
2017.27839	0.57749
2015.34983	0.57556
2013.42126	0.57369
2011.49270	0.57200
2009.56414	0.57047
2007.63557	0.56908
2005.70701	0.56777
2003.77844	0.56658
2001.84988	0.56559
1999.92131	0.56485
1997.99275	0.56436
1996.06418	0.56427
1994.13562	0.56451
1992.20706	0.56454
1990.27849	0.56428
1988.34993	0.56405
1986.42136	0.56389
1984.49280	0.56375
1982.56423	0.56350
1980.63567	0.56309
1978.70710	0.56267
1976.77854	0.56237
1974.84998	0.56207
1972.92141	0.56147
1970.99285	0.56088
1969.06428	0.56064
1967.13572	0.56010
1965.20715	0.55900
1963.27859	0.55796
1961.35002	0.55714
1959.42146	0.55644
1957.49290	0.55595
1955.56433	0.55565
1953.63577	0.55538
1951.70720	0.55504
1949.77864	0.55480
1947.85007	0.55485
1945.92151	0.55507
1943.99294	0.55497
1942.06438	0.55404
1940.13582	0.55294
1938.20725	0.55248
1936.27869	0.55241
1934.35012	0.55230
1932.42156	0.55196
1930.49299	0.55135
1928.56443	0.55074
1926.63586	0.55053
1924.70730	0.55047
1922.77874	0.54987
1920.85017	0.54899
1918.92161	0.54810
1916.99304	0.54670
1915.06448	0.54534
1913.13591	0.54467
1911.20735	0.54430
1909.27878	0.54341
1907.35022	0.54204
1905.42166	0.54092
1903.49309	0.54006
1901.56453	0.53914
1899.63596	0.53845
1897.70740	0.53815
1895.77883	0.53763
1893.85027	0.53682
1891.92171	0.53639
1889.99314	0.53590
1888.06458	0.53466
1886.13601	0.53340
1884.20745	0.53226
1882.27888	0.53094
1880.35032	0.52944
1878.42175	0.52764
1876.49319	0.52564
1874.56463	0.52388
1872.63606	0.52291
1870.70750	0.52236
1868.77893	0.52070
1866.85037	0.51783
1864.92180	0.51561
1862.99324	0.51414
1861.06467	0.51282
1859.13611	0.51150
1857.20755	0.51018
1855.27898	0.50891
1853.35042	0.50783
1851.42185	0.50717
1849.49329	0.50700
1847.56472	0.50721
1845.63616	0.50712
1843.70759	0.50554
1841.77903	0.50390
1839.85047	0.50354
1837.92190	0.50355
1835.99334	0.50316
1834.06477	0.50285
1832.13621	0.50301
1830.20764	0.50240
1828.27908	0.50075
1826.35051	0.49948
1824.42195	0.49823
1822.49339	0.49692
1820.56482	0.49603
1818.63626	0.49528
1816.70769	0.49436
1814.77913	0.49371
1812.85056	0.49360
1810.92200	0.49336
1808.99343	0.49277
1807.06487	0.49235
1805.13631	0.49254
1803.20774	0.49323
1801.27918	0.49361
1799.35061	0.49347
1797.42205	0.49408
1795.49348	0.49566
1793.56492	0.49699
1791.63635	0.49706
1789.70779	0.49686
1787.77923	0.49751
1785.85066	0.49845
1783.92210	0.49929
1781.99353	0.49996
1780.06497	0.50004
1778.13640	0.50003
1776.20784	0.50085
1774.27927	0.50251
1772.35071	0.50344
1770.42215	0.50255
1768.49358	0.50152
1766.56502	0.50147
1764.63645	0.50284
1762.70789	0.50537
1760.77932	0.50883
1758.85076	0.51336
1756.92220	0.51983
1754.99363	0.52789
1753.06507	0.53749
1751.13650	0.55118
1749.20794	0.56815
1747.27937	0.58280
1745.35081	0.59485
1743.42224	0.60581
1741.49368	0.61539
1739.56512	0.62313
1737.63655	0.62865
1735.70799	0.63226
1733.77942	0.63345
1731.85086	0.63239
1729.92229	0.63164
1727.99373	0.63179
1726.06516	0.63344
1724.13660	0.63704
1722.20804	0.64211
1720.27947	0.64850
1718.35091	0.65881
1716.42234	0.67489
1714.49378	0.69023
1712.56521	0.70564
1710.63665	0.72525
1708.70808	0.75022
1706.77952	0.78578
1704.85096	0.83292
1702.92239	0.87798
1700.99383	0.93832
1699.06526	1.03202
1697.13670	1.11775
1695.20813	1.19864
1693.27957	1.26162
1691.35100	1.31117
1689.42244	1.36769
1687.49388	1.41889
1685.56531	1.46709
1683.63675	1.53014
1681.70818	1.56911
1679.77962	1.58800
1677.85105	1.60706
1675.92249	1.63083
1673.99392	1.65315
1672.06536	1.66797
1670.13680	1.67933
1668.20823	1.68688
1666.27967	1.68707
1664.35110	1.68884
1662.42254	1.69378
1660.49397	1.69425
1658.56541	1.69254
1656.63684	1.69061
1654.70828	1.68785
1652.77972	1.67760
1650.85115	1.67071
1648.92259	1.66824
1646.99402	1.66422
1645.06546	1.66200
1643.13689	1.65940
1641.20833	1.65660
1639.27976	1.65391
1637.35120	1.65010
1635.42264	1.64206
1633.49407	1.63480
1631.56551	1.63093
1629.63694	1.62547
1627.70838	1.61679
1625.77981	1.60556
1623.85125	1.59086
1621.92269	1.57399
1619.99412	1.56052
1618.06556	1.54549
1616.13699	1.52192
1614.20843	1.50135
1612.27986	1.48403
1610.35130	1.46436
1608.42273	1.44395
1606.49417	1.42702
1604.56561	1.41344
1602.63704	1.40108
1600.70848	1.39106
1598.77991	1.38477
1596.85135	1.38271
1594.92278	1.38332
1592.99422	1.38454
1591.06565	1.38775
1589.13709	1.39481
1587.20853	1.40484
1585.27996	1.41561
1583.35140	1.42723
1581.42283	1.43946
1579.49427	1.45037
1577.56570	1.46254
1575.63714	1.48037
1573.70857	1.49540
1571.78001	1.50632
1569.85145	1.51891
1567.92288	1.53043
1565.99432	1.53922
1564.06575	1.54890
1562.13719	1.55939
1560.20862	1.57291
1558.28006	1.58186
1556.35149	1.57773
1554.42293	1.57703
1552.49437	1.57824
1550.56580	1.57856
1548.63724	1.57761
1546.70867	1.57737
1544.78011	1.57744
1542.85154	1.57701
1540.92298	1.57227
1538.99441	1.55960
1537.06585	1.55218
1535.13729	1.54596
1533.20872	1.53865
1531.28016	1.53517
1529.35159	1.53451
1527.42303	1.53157
1525.49446	1.52605
1523.56590	1.52212
1521.63733	1.51684
1519.70877	1.50946
1517.78021	1.49970
1515.85164	1.48501
1513.92308	1.47027
1511.99451	1.45823
1510.06595	1.44899
1508.13738	1.42902
1506.20882	1.37805
1504.28025	1.34912
1502.35169	1.33480
1500.42313	1.31841
1498.49456	1.29392
1496.56600	1.26204
1494.63743	1.23818
1492.70887	1.22414
1490.78030	1.20796
1488.85174	1.18352
1486.92317	1.16372
1484.99461	1.15231
1483.06605	1.14541
1481.13748	1.14187
1479.20892	1.14256
1477.28035	1.14840
1475.35179	1.15935
1473.42322	1.17649
1471.49466	1.19490
1469.56610	1.20580
1467.63753	1.21298
1465.70897	1.22011
1463.78040	1.22696
1461.85184	1.23212
1459.92327	1.23705
1457.99471	1.24341
1456.06614	1.24610
1454.13758	1.24508
1452.20902	1.24512
1450.28045	1.24521
1448.35189	1.24196
1446.42332	1.23562
1444.49476	1.23015
1442.56619	1.22552
1440.63763	1.22108
1438.70906	1.21563
1436.78050	1.20516
1434.85194	1.19319
1432.92337	1.18512
1430.99481	1.17752
1429.06624	1.17015
1427.13768	1.16627
1425.20911	1.16549
1423.28055	1.16624
1421.35198	1.16794
1419.42342	1.17016
1417.49486	1.17162
1415.56629	1.17204
1413.63773	1.17203
1411.70916	1.17178
1409.78060	1.17172
1407.85203	1.17206
1405.92347	1.17283
1403.99490	1.17416
1402.06634	1.17630
1400.13778	1.17891
1398.20921	1.18110
1396.28065	1.18258
1394.35208	1.18337
1392.42352	1.18450
1390.49495	1.18794
1388.56639	1.19528
1386.63782	1.20613
1384.70926	1.21705
1382.78070	1.22703
1380.85213	1.23485
1378.92357	1.23815
1376.99500	1.23649
1375.06644	1.22854
1373.13787	1.21404
1371.20931	1.19768
1369.28074	1.17923
1367.35218	1.15878
1365.42362	1.14010
1363.49505	1.12149
1361.56649	1.10324
1359.63792	1.09052
1357.70936	1.08200
1355.78079	1.07480
1353.85223	1.06876
1351.92366	1.06447
1349.99510	1.06139
1348.06654	1.05857
1346.13797	1.05606
1344.20941	1.05470
1342.28084	1.05476
1340.35228	1.05580
1338.42371	1.05756
1336.49515	1.06070
1334.56659	1.06602
1332.63802	1.07380
1330.70946	1.08328
1328.78089	1.09217
1326.85233	1.09873
1324.92376	1.10324
1322.99520	1.10687
1321.06663	1.11067
1319.13807	1.11463
1317.20951	1.11760
1315.28094	1.11929
1313.35238	1.12026
1311.42381	1.12030
1309.49525	1.11918
1307.56668	1.11687
1305.63812	1.11361
1303.70955	1.10979
1301.78099	1.10534
1299.85243	1.09979
1297.92386	1.09262
1295.99530	1.08478
1294.06673	1.07846
1292.13817	1.07437
1290.20960	1.07153
1288.28104	1.06909
1286.35247	1.06692
1284.42391	1.06480
1282.49535	1.06265
1280.56678	1.06118
1278.63822	1.06096
1276.70965	1.06171
1274.78109	1.06358
1272.85252	1.06698
1270.92396	1.07146
1268.99539	1.07634
1267.06683	1.08090
1265.13827	1.08422
1263.20970	1.08593
1261.28114	1.08622
1259.35257	1.08526
1257.42401	1.08412
1255.49544	1.08417
1253.56688	1.08493
1251.63831	1.08543
1249.70975	1.08612
1247.78119	1.08713
1245.85262	1.08779
1243.92406	1.08788
1241.99549	1.08779
1240.06693	1.08734
1238.13836	1.08572
1236.20980	1.08282
1234.28123	1.07884
1232.35267	1.07395
1230.42411	1.06836
1228.49554	1.06209
1226.56698	1.05507
1224.63841	1.04693
1222.70985	1.03794
1220.78128	1.02933
1218.85272	1.02165
1216.92415	1.01533
1214.99559	1.01147
1213.06703	1.01044
1211.13846	1.01155
1209.20990	1.01325
1207.28133	1.01340
1205.35277	1.01050
1203.42420	1.00399
1201.49564	0.99442
1199.56708	0.98310
1197.63851	0.97098
1195.70995	0.95913
1193.78138	0.94883
1191.85282	0.94080
1189.92425	0.93484
1187.99569	0.93035
1186.06712	0.92745
1184.13856	0.92679
1182.21000	0.92877
1180.28143	0.93361
1178.35287	0.94137
1176.42430	0.95207
1174.49574	0.96498
1172.56717	0.97858
1170.63861	0.99261
1168.71004	1.00826
1166.78148	1.02571
1164.85292	1.04288
1162.92435	1.05663
1160.99579	1.06475
1159.06722	1.06636
1157.13866	1.06172
1155.21009	1.05227
1153.28153	1.03955
1151.35296	1.02459
1149.42440	1.00834
1147.49584	0.99229
1145.56727	0.97834
1143.63871	0.96832
1141.71014	0.96320
1139.78158	0.96213
1137.85301	0.96400
1135.92445	0.96891
1133.99588	0.97678
1132.06732	0.98750
1130.13876	1.00167
1128.21019	1.01885
1126.28163	1.03678
1124.35306	1.05306
1122.42450	1.06679
1120.49593	1.07776
1118.56737	1.08527
1116.63880	1.08823
1114.71024	1.08542
1112.78168	1.07748
1110.85311	1.06765
1108.92455	1.05820
1106.99598	1.04952
1105.06742	1.04235
1103.13885	1.03708
1101.21029	1.03412
1099.28172	1.03522
1097.35316	1.04100
1095.42460	1.05035
1093.49603	1.06298
1091.56747	1.07887
1089.63890	1.09753
1087.71034	1.11918
1085.78177	1.14333
1083.85321	1.16699
1081.92464	1.18668
1079.99608	1.20045
1078.06752	1.20748
1076.13895	1.20796
1074.21039	1.20268
1072.28182	1.19287
1070.35326	1.18044
1068.42469	1.16729
1066.49613	1.15480
1064.56756	1.14337
1062.63900	1.13196
1060.71044	1.11903
1058.78187	1.10471
1056.85331	1.09065
1054.92474	1.07804
1052.99618	1.06731
1051.06761	1.05858
1049.13905	1.05218
1047.21049	1.04903
1045.28192	1.04978
1043.35336	1.05367
1041.42479	1.05916
1039.49623	1.06499
1037.56766	1.06972
1035.63910	1.07183
1033.71053	1.07130
1031.78197	1.06875
1029.85341	1.06351
1027.92484	1.05525
1025.99628	1.04589
1024.06771	1.03742
1022.13915	1.02979
1020.21058	1.02351
1018.28202	1.02006
1016.35345	1.01716
1014.42489	1.01065
1012.49633	1.00038
1010.56776	0.98819
1008.63920	0.97364
1006.71063	0.95671
1004.78207	0.93997
1002.85350	0.92516
1000.92494	0.91223
998.99637	0.90108
997.06781	0.89135
995.13925	0.88193
993.21068	0.87184
991.28212	0.86035
989.35355	0.84754
987.42499	0.83491
985.49642	0.82347
983.56786	0.81330
981.63929	0.80473
979.71073	0.79786
977.78217	0.79195
975.85360	0.78584
973.92504	0.77839
971.99647	0.76888
970.06791	0.75770
968.13934	0.74654
966.21078	0.73712
964.28221	0.73050
962.35365	0.72777
960.42509	0.73044
958.49652	0.73858
956.56796	0.74814
954.63939	0.75270
952.71083	0.74935
950.78226	0.74002
948.85370	0.72808
946.92513	0.71648
944.99657	0.70705
943.06801	0.70013
941.13944	0.69481
939.21088	0.69003
937.28231	0.68563
935.35375	0.68196
933.42518	0.67899
931.49662	0.67656
929.56805	0.67451
927.63949	0.67283
925.71093	0.67178
923.78236	0.67149
921.85380	0.67129
919.92523	0.67039
917.99667	0.66853
916.06810	0.66608
914.13954	0.66383
912.21098	0.66229
910.28241	0.66164
908.35385	0.66224
906.42528	0.66423
904.49672	0.66710
902.56815	0.67012
900.63959	0.67273
898.71102	0.67442
896.78246	0.67471
894.85390	0.67354
892.92533	0.67146
890.99677	0.66918
889.06820	0.66719
887.13964	0.66609
885.21107	0.66664
883.28251	0.66875
881.35394	0.67210
879.42538	0.67706
877.49682	0.68353
875.56825	0.69050
873.63969	0.69800
871.71112	0.70680
869.78256	0.71666
867.85399	0.72702
865.92543	0.73781
863.99686	0.74903
862.06830	0.76045
860.13974	0.77205
858.21117	0.78415
856.28261	0.79648
854.35404	0.80779
852.42548	0.81696
850.49691	0.82390
848.56835	0.82902
846.63978	0.83265
844.71122	0.83538
842.78266	0.83728
840.85409	0.83817
838.92553	0.83892
836.99696	0.83999
835.06840	0.84073
833.13983	0.84096
831.21127	0.84167
829.28270	0.84342
827.35414	0.84511
825.42558	0.84637
823.49701	0.84865
821.56845	0.85245
819.63988	0.85682
817.71132	0.86143
815.78275	0.86656
813.85419	0.87206
811.92562	0.87779
809.99706	0.88361
808.06850	0.88926
806.13993	0.89401
804.21137	0.89752
802.28280	0.90072
800.35424	0.90390
798.42567	0.90673
796.49711	0.90906
794.56854	0.91058
792.63998	0.91157
790.71142	0.91261
788.78285	0.91377
786.85429	0.91494
784.92572	0.91606
782.99716	0.91726
781.06859	0.91869
779.14003	0.92011
777.21147	0.92124
775.28290	0.92217
773.35434	0.92298
771.42577	0.92366
769.49721	0.92394
767.56864	0.92347
765.64008	0.92233
763.71151	0.92122
761.78295	0.92077
759.85439	0.92066
757.92582	0.92062
755.99726	0.92098
754.06869	0.92212
752.14013	0.92452
750.21156	0.92789
748.28300	0.93123
746.35443	0.93426
744.42587	0.93732
742.49731	0.94072
740.56874	0.94552
738.64018	0.95266
736.71161	0.96118
734.78305	0.97015
732.85448	0.98019
730.92592	0.99205
728.99735	1.00544
727.06879	1.01938
725.14023	1.03335
723.21166	1.04754
721.28310	1.06151
719.35453	1.07392
717.42597	1.08470
715.49740	1.09447
713.56884	1.10344
711.64027	1.11135
709.71171	1.11765
707.78315	1.12293
705.85458	1.12713
703.92602	1.12930
701.99745	1.13048
700.06889	1.13032
698.14032	1.12638
696.21176	1.11959
694.28319	1.11353
692.35463	1.10924
690.42607	1.10594
688.49750	1.10394
686.56894	1.10310
684.64037	1.10229
682.71181	1.10104
680.78324	1.10007
678.85468	1.10135
676.92611	1.10495
674.99755	1.10847
673.06899	1.11168
671.14042	1.11518
669.21186	1.11656
667.28329	1.11550
665.35473	1.11795
663.42616	1.12226
661.49760	1.12652
659.56903	1.13197
657.64047	1.13831
655.71191	1.14307
653.78334	1.14726
651.85478	1.15260
649.92621	1.15640
647.99765	1.15704
646.06908	1.16079
644.14052	1.17162
642.21195	1.18354
640.28339	1.19084
638.35483	1.19319
636.42626	1.19247
634.49770	1.19175
632.56913	1.19154
630.64057	1.18928
628.71200	1.18499
626.78344	1.17945
624.85488	1.17072
622.92631	1.16041
620.99775	1.15107
619.06918	1.13995
617.14062	1.12704
615.21205	1.11511
613.28349	1.10288
611.35492	1.09145
609.42636	1.08466
607.49780	1.08234
605.56923	1.08182
603.64067	1.08236
601.71210	1.08582
599.78354	1.09233
