3997.91406	1.10813
3995.98550	1.10934
3994.05693	1.11055
3992.12837	1.11025
3990.19980	1.10752
3988.27124	1.10373
3986.34268	1.10259
3984.41411	1.10463
3982.48555	1.10581
3980.55698	1.10522
3978.62842	1.10603
3976.69985	1.10801
3974.77129	1.10846
3972.84272	1.10686
3970.91416	1.10382
3968.98560	1.10060
3967.05703	1.09845
3965.12847	1.09742
3963.19990	1.09815
3961.27134	1.10054
3959.34277	1.10110
3957.41421	1.09812
3955.48564	1.09458
3953.55708	1.09198
3951.62852	1.08933
3949.69995	1.08802
3947.77139	1.08964
3945.84282	1.09139
3943.91426	1.09106
3941.98569	1.09061
3940.05713	1.09039
3938.12856	1.08921
3936.20000	1.08882
3934.27144	1.09089
3932.34287	1.09497
3930.41431	1.09583
3928.48574	1.09177
3926.55718	1.08885
3924.62861	1.08879
3922.70005	1.09047
3920.77148	1.09365
3918.84292	1.09490
3916.91436	1.09243
3914.98579	1.09076
3913.05723	1.09091
3911.12866	1.08974
3909.20010	1.08827
3907.27153	1.08940
3905.34297	1.09049
3903.41440	1.08704
3901.48584	1.08366
3899.55728	1.08392
3897.62871	1.08437
3895.70015	1.08409
3893.77158	1.08312
3891.84302	1.08092
3889.91445	1.08082
3887.98589	1.08345
3886.05733	1.08497
3884.12876	1.08467
3882.20020	1.08335
3880.27163	1.07823
3878.34307	1.07404
3876.41450	1.07393
3874.48594	1.07444
3872.55737	1.07539
3870.62881	1.07526
3868.70025	1.07189
3866.77168	1.07016
3864.84312	1.06972
3862.91455	1.06855
3860.98599	1.06777
3859.05742	1.06898
3857.12886	1.07290
3855.20029	1.07655
3853.27173	1.07580
3851.34317	1.07559
3849.41460	1.07610
3847.48604	1.07629
3845.55747	1.07814
3843.62891	1.08165
3841.70034	1.08409
3839.77178	1.08453
3837.84321	1.08290
3835.91465	1.07977
3833.98609	1.07618
3832.05752	1.07274
3830.12896	1.07219
3828.20039	1.07375
3826.27183	1.07395
3824.34326	1.07306
3822.41470	1.07145
3820.48613	1.07046
3818.55757	1.07263
3816.62901	1.07170
3814.70044	1.06763
3812.77188	1.06676
3810.84331	1.06786
3808.91475	1.06805
3806.98618	1.06647
3805.05762	1.06699
3803.12905	1.06851
3801.20049	1.06681
3799.27193	1.06691
3797.34336	1.06590
3795.41480	1.06029
3793.48623	1.05700
3791.55767	1.05679
3789.62910	1.05671
3787.70054	1.05737
3785.77197	1.05774
3783.84341	1.05555
3781.91485	1.05339
3779.98628	1.05289
3778.05772	1.05308
3776.12915	1.05468
3774.20059	1.05898
3772.27202	1.06444
3770.34346	1.06602
3768.41489	1.06283
3766.48633	1.05995
3764.55777	1.05912
3762.62920	1.05993
3760.70064	1.06037
3758.77207	1.05871
3756.84351	1.05766
3754.91494	1.06143
3752.98638	1.06874
3751.05781	1.06826
3749.12925	1.06035
3747.20069	1.06030
3745.27212	1.06221
3743.34356	1.05855
3741.41499	1.05637
3739.48643	1.05818
3737.55786	1.05948
3735.62930	1.05629
3733.70074	1.05172
3731.77217	1.05021
3729.84361	1.04996
3727.91504	1.04977
3725.98648	1.05043
3724.05791	1.05150
3722.12935	1.05079
3720.20078	1.04894
3718.27222	1.04865
3716.34366	1.05041
3714.41509	1.05205
3712.48653	1.05287
3710.55796	1.05497
3708.62940	1.05440
3706.70083	1.05130
3704.77227	1.05043
3702.84370	1.05162
3700.91514	1.05299
3698.98658	1.05560
3697.05801	1.05907
3695.12945	1.06195
3693.20088	1.06497
3691.27232	1.06726
3689.34375	1.06357
3687.41519	1.05969
3685.48662	1.06089
3683.55806	1.06318
3681.62950	1.06558
3679.70093	1.06947
3677.77237	1.07483
3675.84380	1.07774
3673.91524	1.07732
3671.98667	1.07963
3670.05811	1.08577
3668.12954	1.09147
3666.20098	1.09510
3664.27242	1.09892
3662.34385	1.10298
3660.41529	1.10708
3658.48672	1.11111
3656.55816	1.11574
3654.62959	1.12296
3652.70103	1.13172
3650.77246	1.14052
3648.84390	1.14878
3646.91534	1.15573
3644.98677	1.16226
3643.05821	1.16929
3641.12964	1.17608
3639.20108	1.18201
3637.27251	1.18780
3635.34395	1.19269
3633.41538	1.19623
3631.48682	1.19997
3629.55826	1.20476
3627.62969	1.21197
3625.70113	1.22183
3623.77256	1.23203
3621.84400	1.24048
3619.91543	1.24660
3617.98687	1.25343
3616.05830	1.26236
3614.12974	1.26852
3612.20118	1.27022
3610.27261	1.27387
3608.34405	1.28160
3606.41548	1.28810
3604.48692	1.29161
3602.55835	1.29462
3600.62979	1.29816
3598.70123	1.30271
3596.77266	1.30749
3594.84410	1.31084
3592.91553	1.31410
3590.98697	1.31889
3589.05840	1.32604
3587.12984	1.33529
3585.20127	1.34124
3583.27271	1.34357
3581.34415	1.34621
3579.41558	1.35153
3577.48702	1.35914
3575.55845	1.36741
3573.62989	1.37464
3571.70132	1.37810
3569.77276	1.37688
3567.84419	1.37675
3565.91563	1.38405
3563.98707	1.39167
3562.05850	1.39631
3560.12994	1.39982
3558.20137	1.40513
3556.27281	1.41313
3554.34424	1.42046
3552.41568	1.42730
3550.48711	1.43703
3548.55855	1.44904
3546.62999	1.45957
3544.70142	1.46405
3542.77286	1.46702
3540.84429	1.47538
3538.91573	1.48434
3536.98716	1.48632
3535.05860	1.48465
3533.13003	1.48464
3531.20147	1.48517
3529.27291	1.48794
3527.34434	1.49503
3525.41578	1.50179
3523.48721	1.50679
3521.55865	1.51373
3519.63008	1.52239
3517.70152	1.53115
3515.77295	1.54099
3513.84439	1.55204
3511.91583	1.56050
3509.98726	1.56495
3508.05870	1.57021
3506.13013	1.57798
3504.20157	1.58449
3502.27300	1.58668
3500.34444	1.58822
3498.41587	1.59408
3496.48731	1.60166
3494.55875	1.60603
3492.63018	1.61094
3490.70162	1.62020
3488.77305	1.62739
3486.84449	1.62909
3484.91592	1.63237
3482.98736	1.63769
3481.05879	1.63773
3479.13023	1.63502
3477.20167	1.63566
3475.27310	1.63675
3473.34454	1.63773
3471.41597	1.64167
3469.48741	1.64700
3467.55884	1.65156
3465.63028	1.65348
3463.70171	1.65400
3461.77315	1.65622
3459.84459	1.65742
3457.91602	1.65833
3455.98746	1.66185
3454.05889	1.66295
3452.13033	1.66228
3450.20176	1.66704
3448.27320	1.67423
3446.34464	1.67627
3444.41607	1.67528
3442.48751	1.67389
3440.55894	1.66981
3438.63038	1.66655
3436.70181	1.66885
3434.77325	1.67247
3432.84468	1.67173
3430.91612	1.67007
3428.98756	1.67249
3427.05899	1.67580
3425.13043	1.67670
3423.20186	1.67752
3421.27330	1.67918
3419.34473	1.68146
3417.41617	1.68672
3415.48760	1.69157
3413.55904	1.68645
3411.63048	1.67604
3409.70191	1.67548
3407.77335	1.68087
3405.84478	1.67917
3403.91622	1.67624
3401.98765	1.68038
3400.05909	1.68570
3398.13052	1.68454
3396.20196	1.67766
3394.27340	1.67500
3392.34483	1.68190
3390.41627	1.68959
3388.48770	1.69015
3386.55914	1.68528
3384.63057	1.67852
3382.70201	1.67429
3380.77344	1.67487
3378.84488	1.67807
3376.91632	1.68434
3374.98775	1.69120
3373.05919	1.69278
3371.13062	1.69329
3369.20206	1.69535
3367.27349	1.69308
3365.34493	1.68785
3363.41636	1.68591
3361.48780	1.68712
3359.55924	1.68934
3357.63067	1.69233
3355.70211	1.69377
3353.77354	1.69449
3351.84498	1.69842
3349.91641	1.70510
3347.98785	1.71224
3346.05928	1.71304
3344.13072	1.70606
3342.20216	1.70225
3340.27359	1.70184
3338.34503	1.69781
3336.41646	1.69428
3334.48790	1.69668
3332.55933	1.70379
3330.63077	1.71054
3328.70220	1.71271
3326.77364	1.71341
3324.84508	1.71749
3322.91651	1.72218
3320.98795	1.72515
3319.05938	1.73172
3317.13082	1.73870
3315.20225	1.73315
3313.27369	1.72196
3311.34513	1.72198
3309.41656	1.72795
3307.48800	1.73006
3305.55943	1.73177
3303.63087	1.73196
3301.70230	1.72664
3299.77374	1.72015
3297.84517	1.72036
3295.91661	1.72768
3293.98805	1.73119
3292.05948	1.72695
3290.13092	1.72246
3288.20235	1.71908
3286.27379	1.71451
3284.34522	1.71039
3282.41666	1.70919
3280.48809	1.71178
3278.55953	1.71493
3276.63097	1.71569
3274.70240	1.71773
3272.77384	1.72008
3270.84527	1.71602
3268.91671	1.70999
3266.98814	1.70885
3265.05958	1.70881
3263.13101	1.70476
3261.20245	1.69743
3259.27389	1.69016
3257.34532	1.68553
3255.41676	1.68258
3253.48819	1.67806
3251.55963	1.67175
3249.63106	1.66696
3247.70250	1.66740
3245.77393	1.67163
3243.84537	1.67149
3241.91681	1.66517
3239.98824	1.65918
3238.05968	1.65433
3236.13111	1.64804
3234.20255	1.64427
3232.27398	1.64722
3230.34542	1.65190
3228.41685	1.65051
3226.48829	1.64329
3224.55973	1.63452
3222.63116	1.62711
3220.70260	1.62481
3218.77403	1.62679
3216.84547	1.62684
3214.91690	1.62451
3212.98834	1.62374
3211.05977	1.62345
3209.13121	1.61938
3207.20265	1.61287
3205.27408	1.60871
3203.34552	1.60665
3201.41695	1.60327
3199.48839	1.59640
3197.55982	1.58899
3195.63126	1.58671
3193.70269	1.58781
3191.77413	1.58924
3189.84557	1.59141
3187.91700	1.58976
3185.98844	1.58270
3184.05987	1.57651
3182.13131	1.57349
3180.20274	1.57084
3178.27418	1.56570
3176.34562	1.55898
3174.41705	1.55432
3172.48849	1.55213
3170.55992	1.55108
3168.63136	1.54880
3166.70279	1.54327
3164.77423	1.53686
3162.84566	1.53307
3160.91710	1.53343
3158.98854	1.53500
3157.05997	1.53373
3155.13141	1.53014
3153.20284	1.52509
3151.27428	1.52092
3149.34571	1.52055
3147.41715	1.52142
3145.48858	1.52097
3143.56002	1.51934
3141.63146	1.51672
3139.70289	1.51446
3137.77433	1.51456
3135.84576	1.51596
3133.91720	1.51523
3131.98863	1.51355
3130.06007	1.51325
3128.13150	1.51224
3126.20294	1.51054
3124.27438	1.51034
3122.34581	1.51142
3120.41725	1.51404
3118.48868	1.51842
3116.56012	1.52133
3114.63155	1.52112
3112.70299	1.51979
3110.77442	1.51757
3108.84586	1.51544
3106.91730	1.51644
3104.98873	1.51967
3103.06017	1.52006
3101.13160	1.51427
3099.20304	1.50687
3097.27447	1.50423
3095.34591	1.50492
3093.41734	1.50591
3091.48878	1.50631
3089.56022	1.50418
3087.63165	1.50043
3085.70309	1.49691
3083.77452	1.49367
3081.84596	1.49165
3079.91739	1.48969
3077.98883	1.48657
3076.06026	1.48405
3074.13170	1.48199
3072.20314	1.47937
3070.27457	1.47642
3068.34601	1.47261
3066.41744	1.46779
3064.48888	1.46309
3062.56031	1.45906
3060.63175	1.45516
3058.70318	1.45146
3056.77462	1.44948
3054.84606	1.44999
3052.91749	1.45127
3050.98893	1.45045
3049.06036	1.44565
3047.13180	1.43941
3045.20323	1.43590
3043.27467	1.43454
3041.34610	1.43344
3039.41754	1.43165
3037.48898	1.42701
3035.56041	1.42079
3033.63185	1.41686
3031.70328	1.41461
3029.77472	1.41133
3027.84615	1.40680
3025.91759	1.40202
3023.98903	1.39800
3022.06046	1.39450
3020.13190	1.39030
3018.20333	1.38606
3016.27477	1.38305
3014.34620	1.38087
3012.41764	1.37764
3010.48907	1.37195
3008.56051	1.36691
3006.63195	1.36668
3004.70338	1.36916
3002.77482	1.36936
3000.84625	1.36732
2998.91769	1.36638
2996.98912	1.36802
2995.06056	1.37108
2993.13199	1.37330
2991.20343	1.37395
2989.27487	1.37532
2987.34630	1.38045
2985.41774	1.38913
2983.48917	1.39743
2981.56061	1.40294
2979.63204	1.40738
2977.70348	1.41310
2975.77491	1.42095
2973.84635	1.42934
2971.91779	1.43640
2969.98922	1.44421
2968.06066	1.45406
2966.13209	1.46246
2964.20353	1.46645
2962.27496	1.46705
2960.34640	1.46702
2958.41783	1.46664
2956.48927	1.46340
2954.56071	1.45710
2952.63214	1.45042
2950.70358	1.44641
2948.77501	1.44624
2946.84645	1.44829
2944.91788	1.45228
2942.98932	1.45875
2941.06075	1.46579
2939.13219	1.47217
2937.20363	1.47754
2935.27506	1.48267
2933.34650	1.49091
2931.41793	1.50150
2929.48937	1.50955
2927.56080	1.51507
2925.63224	1.52064
2923.70367	1.52499
2921.77511	1.52807
2919.84655	1.53100
2917.91798	1.52767
2915.98942	1.51178
2914.06085	1.48842
2912.13229	1.46682
2910.20372	1.45057
2908.27516	1.43872
2906.34659	1.42991
2904.41803	1.42363
2902.48947	1.41956
2900.56090	1.41681
2898.63234	1.41476
2896.70377	1.41285
2894.77521	1.40977
2892.84664	1.40558
2890.91808	1.40211
2888.98952	1.40000
2887.06095	1.39803
2885.13239	1.39557
2883.20382	1.39376
2881.27526	1.39349
2879.34669	1.39384
2877.41813	1.39307
2875.48956	1.38998
2873.56100	1.38434
2871.63244	1.37748
2869.70387	1.37071
2867.77531	1.36377
2865.84674	1.35743
2863.91818	1.35376
2861.98961	1.35359
2860.06105	1.35588
2858.13248	1.35972
2856.20392	1.36629
2854.27536	1.37592
2852.34679	1.38562
2850.41823	1.38908
2848.48966	1.37746
2846.56110	1.35029
2844.63253	1.31988
2842.70397	1.29609
2840.77540	1.27978
2838.84684	1.26894
2836.91828	1.26145
2834.98971	1.25549
2833.06115	1.25068
2831.13258	1.24690
2829.20402	1.24318
2827.27545	1.23921
2825.34689	1.23579
2823.41832	1.23311
2821.48976	1.23056
2819.56120	1.22880
2817.63263	1.22893
2815.70407	1.22893
2813.77550	1.22621
2811.84694	1.22176
2809.91837	1.21837
2807.98981	1.21747
2806.06124	1.21764
2804.13268	1.21671
2802.20412	1.21454
2800.27555	1.21234
2798.34699	1.21062
2796.41842	1.20784
2794.48986	1.20326
2792.56129	1.19861
2790.63273	1.19486
2788.70416	1.19157
2786.77560	1.18909
2784.84704	1.18761
2782.91847	1.18616
2780.98991	1.18436
2779.06134	1.18249
2777.13278	1.18098
2775.20421	1.17971
2773.27565	1.17807
2771.34708	1.17614
2769.41852	1.17377
2767.48996	1.17073
2765.56139	1.16805
2763.63283	1.16655
2761.70426	1.16581
2759.77570	1.16502
2757.84713	1.16399
2755.91857	1.16277
2753.99001	1.16187
2752.06144	1.16205
2750.13288	1.16295
2748.20431	1.16342
2746.27575	1.16300
2744.34718	1.16174
2742.41862	1.15975
2740.49005	1.15807
2738.56149	1.15774
2736.63293	1.15817
2734.70436	1.15816
2732.77580	1.15672
2730.84723	1.15434
2728.91867	1.15234
2726.99010	1.15028
2725.06154	1.14796
2723.13297	1.14625
2721.20441	1.14440
2719.27585	1.14136
2717.34728	1.13771
2715.41872	1.13432
2713.49015	1.13114
2711.56159	1.12764
2709.63302	1.12442
2707.70446	1.12194
2705.77589	1.11873
2703.84733	1.11452
2701.91877	1.11119
2699.99020	1.10940
2698.06164	1.10774
2696.13307	1.10561
2694.20451	1.10359
2692.27594	1.10158
2690.34738	1.09984
2688.41881	1.09909
2686.49025	1.09860
2684.56169	1.09752
2682.63312	1.09670
2680.70456	1.09652
2678.77599	1.09565
2676.84743	1.09376
2674.91886	1.09223
2672.99030	1.09204
2671.06173	1.09272
2669.13317	1.09312
2667.20461	1.09330
2665.27604	1.09370
2663.34748	1.09377
2661.41891	1.09306
2659.49035	1.09209
2657.56178	1.09163
2655.63322	1.09134
2653.70465	1.09016
2651.77609	1.08834
2649.84753	1.08747
2647.91896	1.08771
2645.99040	1.08758
2644.06183	1.08638
2642.13327	1.08436
2640.20470	1.08207
2638.27614	1.07967
2636.34757	1.07673
2634.41901	1.07380
2632.49045	1.07174
2630.56188	1.07020
2628.63332	1.06864
2626.70475	1.06691
2624.77619	1.06500
2622.84762	1.06300
2620.91906	1.06112
2618.99049	1.06004
2617.06193	1.05969
2615.13337	1.05862
2613.20480	1.05666
2611.27624	1.05481
2609.34767	1.05276
2607.41911	1.05078
2605.49054	1.04994
2603.56198	1.04951
2601.63342	1.04854
2599.70485	1.04750
2597.77629	1.04671
2595.84772	1.04615
2593.91916	1.04598
2591.99059	1.04570
2590.06203	1.04483
2588.13346	1.04388
2586.20490	1.04335
2584.27634	1.04282
2582.34777	1.04192
2580.41921	1.04078
2578.49064	1.03911
2576.56208	1.03710
2574.63351	1.03553
2572.70495	1.03414
2570.77638	1.03231
2568.84782	1.03006
2566.91926	1.02777
2564.99069	1.02589
2563.06213	1.02421
2561.13356	1.02227
2559.20500	1.02025
2557.27643	1.01834
2555.34787	1.01608
2553.41930	1.01329
2551.49074	1.01105
2549.56218	1.01013
2547.63361	1.00936
2545.70505	1.00786
2543.77648	1.00633
2541.84792	1.00499
2539.91935	1.00355
2537.99079	1.00248
2536.06222	1.00192
2534.13366	1.00176
2532.20510	1.00181
2530.27653	1.00113
2528.34797	0.99932
2526.41940	0.99743
2524.49084	0.99673
2522.56227	0.99730
2520.63371	0.99790
2518.70514	0.99780
2516.77658	0.99770
2514.84802	0.99787
2512.91945	0.99755
2510.99089	0.99675
2509.06232	0.99640
2507.13376	0.99619
2505.20519	0.99535
2503.27663	0.99427
2501.34806	0.99341
2499.41950	0.99250
2497.49094	0.99158
2495.56237	0.99092
2493.63381	0.99033
2491.70524	0.98925
2489.77668	0.98772
2487.84811	0.98647
2485.91955	0.98571
2483.99098	0.98491
2482.06242	0.98357
2480.13386	0.98172
2478.20529	0.97970
2476.27673	0.97811
2474.34816	0.97742
2472.41960	0.97724
2470.49103	0.97686
2468.56247	0.97607
2466.63391	0.97473
2464.70534	0.97304
2462.77678	0.97156
2460.84821	0.97064
2458.91965	0.97009
2456.99108	0.96952
2455.06252	0.96903
2453.13395	0.96853
2451.20539	0.96755
2449.27683	0.96626
2447.34826	0.96530
2445.41970	0.96498
2443.49113	0.96471
2441.56257	0.96399
2439.63400	0.96317
2437.70544	0.96229
2435.77687	0.96136
2433.84831	0.96064
2431.91975	0.95966
2429.99118	0.95859
2428.06262	0.95834
2426.13405	0.95835
2424.20549	0.95736
2422.27692	0.95571
2420.34836	0.95437
2418.41979	0.95322
2416.49123	0.95179
2414.56267	0.95046
2412.63410	0.94989
2410.70554	0.94976
2408.77697	0.94929
2406.84841	0.94846
2404.91984	0.94774
2402.99128	0.94727
2401.06271	0.94675
2399.13415	0.94597
2397.20559	0.94518
2395.27702	0.94458
2393.34846	0.94407
2391.41989	0.94386
2389.49133	0.94430
2387.56276	0.94484
2385.63420	0.94505
2383.70563	0.94554
2381.77707	0.94665
2379.84851	0.94818
2377.91994	0.95042
2375.99138	0.95381
2374.06281	0.95762
2372.13425	0.96081
2370.20568	0.96390
2368.27712	0.96785
2366.34855	0.97211
2364.41999	0.97289
2362.49143	0.96830
2360.56286	0.96667
2358.63430	0.97274
2356.70573	0.97420
2354.77717	0.96627
2352.84860	0.95887
2350.92004	0.95660
2348.99147	0.95797
2347.06291	0.96129
2345.13435	0.96584
2343.20578	0.97076
2341.27722	0.97142
2339.34865	0.96684
2337.42009	0.96370
2335.49152	0.96326
2333.56296	0.96240
2331.63440	0.96211
2329.70583	0.96271
2327.77727	0.96106
2325.84870	0.95714
2323.92014	0.95331
2321.99157	0.95017
2320.06301	0.94780
2318.13444	0.94609
2316.20588	0.94427
2314.27732	0.94253
2312.34875	0.94111
2310.42019	0.93944
2308.49162	0.93731
2306.56306	0.93526
2304.63449	0.93364
2302.70593	0.93219
2300.77736	0.93022
2298.84880	0.92754
2296.92024	0.92484
2294.99167	0.92297
2293.06311	0.92179
2291.13454	0.92048
2289.20598	0.91849
2287.27741	0.91597
2285.34885	0.91388
2283.42028	0.91277
2281.49172	0.91209
2279.56316	0.91148
2277.63459	0.91092
2275.70603	0.91020
2273.77746	0.90940
2271.84890	0.90876
2269.92033	0.90820
2267.99177	0.90766
2266.06320	0.90717
2264.13464	0.90685
2262.20608	0.90660
2260.27751	0.90619
2258.34895	0.90571
2256.42038	0.90537
2254.49182	0.90532
2252.56325	0.90552
2250.63469	0.90564
2248.70612	0.90549
2246.77756	0.90540
2244.84900	0.90588
2242.92043	0.90663
2240.99187	0.90664
2239.06330	0.90592
2237.13474	0.90527
2235.20617	0.90489
2233.27761	0.90460
2231.34904	0.90422
2229.42048	0.90380
2227.49192	0.90338
2225.56335	0.90301
2223.63479	0.90274
2221.70622	0.90242
2219.77766	0.90183
2217.84909	0.90103
2215.92053	0.90048
2213.99196	0.90051
2212.06340	0.90079
2210.13484	0.90102
2208.20627	0.90123
2206.27771	0.90170
2204.34914	0.90256
2202.42058	0.90317
2200.49201	0.90297
2198.56345	0.90253
2196.63488	0.90260
2194.70632	0.90312
2192.77776	0.90393
2190.84919	0.90494
2188.92063	0.90588
2186.99206	0.90652
2185.06350	0.90658
2183.13493	0.90618
2181.20637	0.90614
2179.27781	0.90685
2177.34924	0.90782
2175.42068	0.90868
2173.49211	0.90944
2171.56355	0.90979
2169.63498	0.90953
2167.70642	0.90908
2165.77785	0.90902
2163.84929	0.90920
2161.92073	0.90910
2159.99216	0.90887
2158.06360	0.90832
2156.13503	0.90722
2154.20647	0.90619
2152.27790	0.90526
2150.34934	0.90390
2148.42077	0.90244
2146.49221	0.90105
2144.56365	0.89950
2142.63508	0.89802
2140.70652	0.89671
2138.77795	0.89529
2136.84939	0.89369
2134.92082	0.89212
2132.99226	0.89065
2131.06369	0.88931
2129.13513	0.88829
2127.20657	0.88719
2125.27800	0.88576
2123.34944	0.88464
2121.42087	0.88419
2119.49231	0.88400
2117.56374	0.88362
2115.63518	0.88314
2113.70661	0.88263
2111.77805	0.88198
2109.84949	0.88121
2107.92092	0.88040
2105.99236	0.87951
2104.06379	0.87863
2102.13523	0.87796
2100.20666	0.87733
2098.27810	0.87667
2096.34953	0.87617
2094.42097	0.87569
2092.49241	0.87508
2090.56384	0.87440
2088.63528	0.87328
2086.70671	0.87161
2084.77815	0.86995
2082.84958	0.86851
2080.92102	0.86689
2078.99245	0.86542
2077.06389	0.86480
2075.13533	0.86428
2073.20676	0.86298
2071.27820	0.86148
2069.34963	0.86056
2067.42107	0.86006
2065.49250	0.85915
2063.56394	0.85758
2061.63537	0.85621
2059.70681	0.85551
2057.77825	0.85480
2055.84968	0.85397
2053.92112	0.85358
2051.99255	0.85333
2050.06399	0.85287
2048.13542	0.85257
2046.20686	0.85245
2044.27830	0.85238
2042.34973	0.85232
2040.42117	0.85191
2038.49260	0.85127
2036.56404	0.85111
2034.63547	0.85140
2032.70691	0.85144
2030.77834	0.85108
2028.84978	0.85074
2026.92122	0.85057
2024.99265	0.85038
2023.06409	0.85000
2021.13552	0.84950
2019.20696	0.84919
2017.27839	0.84879
2015.34983	0.84776
2013.42126	0.84638
2011.49270	0.84509
2009.56414	0.84398
2007.63557	0.84280
2005.70701	0.84113
2003.77844	0.83889
2001.84988	0.83659
1999.92131	0.83471
1997.99275	0.83306
1996.06418	0.83176
1994.13562	0.83100
1992.20706	0.82984
1990.27849	0.82798
1988.34993	0.82630
1986.42136	0.82491
1984.49280	0.82344
1982.56423	0.82202
1980.63567	0.82114
1978.70710	0.82063
1976.77854	0.81988
1974.84998	0.81910
1972.92141	0.81866
1970.99285	0.81848
1969.06428	0.81846
1967.13572	0.81827
1965.20715	0.81763
1963.27859	0.81683
1961.35002	0.81602
1959.42146	0.81536
1957.49290	0.81505
1955.56433	0.81478
1953.63577	0.81430
1951.70720	0.81383
1949.77864	0.81355
1947.85007	0.81337
1945.92151	0.81323
1943.99294	0.81293
1942.06438	0.81190
1940.13582	0.81051
1938.20725	0.80949
1936.27869	0.80871
1934.35012	0.80805
1932.42156	0.80735
1930.49299	0.80651
1928.56443	0.80587
1926.63586	0.80569
1924.70730	0.80551
1922.77874	0.80439
1920.85017	0.80296
1918.92161	0.80202
1916.99304	0.80082
1915.06448	0.79948
1913.13591	0.79865
1911.20735	0.79811
1909.27878	0.79723
1907.35022	0.79591
1905.42166	0.79490
1903.49309	0.79428
1901.56453	0.79369
1899.63596	0.79356
1897.70740	0.79404
1895.77883	0.79423
1893.85027	0.79388
1891.92171	0.79362
1889.99314	0.79315
1888.06458	0.79246
1886.13601	0.79243
1884.20745	0.79256
1882.27888	0.79233
1880.35032	0.79202
1878.42175	0.79154
1876.49319	0.79080
1874.56463	0.79041
1872.63606	0.79097
1870.70750	0.79186
1868.77893	0.79142
1866.85037	0.78945
1864.92180	0.78803
1862.99324	0.78754
1861.06467	0.78737
1859.13611	0.78707
1857.20755	0.78648
1855.27898	0.78569
1853.35042	0.78494
1851.42185	0.78468
1849.49329	0.78531
1847.56472	0.78644
1845.63616	0.78670
1843.70759	0.78494
1841.77903	0.78326
1839.85047	0.78293
1837.92190	0.78294
1835.99334	0.78278
1834.06477	0.78297
1832.13621	0.78367
1830.20764	0.78347
1828.27908	0.78231
1826.35051	0.78192
1824.42195	0.78177
1822.49339	0.78130
1820.56482	0.78109
1818.63626	0.78139
1816.70769	0.78212
1814.77913	0.78323
1812.85056	0.78446
1810.92200	0.78490
1808.99343	0.78446
1807.06487	0.78425
1805.13631	0.78473
1803.20774	0.78549
1801.27918	0.78567
1799.35061	0.78510
1797.42205	0.78513
1795.49348	0.78589
1793.56492	0.78592
1791.63635	0.78405
1789.70779	0.78232
1787.77923	0.78251
1785.85066	0.78388
1783.92210	0.78548
1781.99353	0.78683
1780.06497	0.78769
1778.13640	0.78872
1776.20784	0.79083
1774.27927	0.79404
1772.35071	0.79711
1770.42215	0.79874
1768.49358	0.79967
1766.56502	0.80097
1764.63645	0.80343
1762.70789	0.80689
1760.77932	0.81075
1758.85076	0.81544
1756.92220	0.82180
1754.99363	0.82885
1753.06507	0.83665
1751.13650	0.84723
1749.20794	0.85985
1747.27937	0.87106
1745.35081	0.88088
1743.42224	0.89009
1741.49368	0.89805
1739.56512	0.90415
1737.63655	0.90854
1735.70799	0.91201
1733.77942	0.91434
1731.85086	0.91444
1729.92229	0.91371
1727.99373	0.91338
1726.06516	0.91470
1724.13660	0.91795
1722.20804	0.92233
1720.27947	0.92803
1718.35091	0.93694
1716.42234	0.94824
1714.49378	0.95732
1712.56521	0.96735
1710.63665	0.98120
1708.70808	0.99940
1706.77952	1.02580
1704.85096	1.06016
1702.92239	1.09187
1700.99383	1.13375
1699.06526	1.19736
1697.13670	1.25277
1695.20813	1.30083
1693.27957	1.33674
1691.35100	1.36581
1689.42244	1.39851
1687.49388	1.42672
1685.56531	1.45205
1683.63675	1.48668
1681.70818	1.51086
1679.77962	1.52358
1677.85105	1.53568
1675.92249	1.55088
1673.99392	1.56545
1672.06536	1.57531
1670.13680	1.58450
1668.20823	1.59192
1666.27967	1.59409
1664.35110	1.59564
1662.42254	1.59731
1660.49397	1.59657
1658.56541	1.59533
1656.63684	1.59498
1654.70828	1.59417
1652.77972	1.58638
1650.85115	1.58186
1648.92259	1.58177
1646.99402	1.57723
1645.06546	1.56978
1643.13689	1.56509
1641.20833	1.56220
1639.27976	1.56094
1637.35120	1.56054
1635.42264	1.55635
1633.49407	1.55085
1631.56551	1.54786
1629.63694	1.54422
1627.70838	1.53823
1625.77981	1.53068
1623.85125	1.52117
1621.92269	1.50958
1619.99412	1.50020
1618.06556	1.49065
1616.13699	1.47481
1614.20843	1.45916
1612.27986	1.44664
1610.35130	1.43395
1608.42273	1.42043
1606.49417	1.40856
1604.56561	1.40010
1602.63704	1.39406
1600.70848	1.38951
1598.77991	1.38622
1596.85135	1.38432
1594.92278	1.38334
1592.99422	1.38358
1591.06565	1.38600
1589.13709	1.38928
1587.20853	1.39285
1585.27996	1.39842
1583.35140	1.40640
1581.42283	1.41519
1579.49427	1.42386
1577.56570	1.43377
1575.63714	1.44507
1573.70857	1.45344
1571.78001	1.46056
1569.85145	1.46917
1567.92288	1.47709
1565.99432	1.48284
1564.06575	1.48814
1562.13719	1.49382
1560.20862	1.50380
1558.28006	1.51864
1556.35149	1.52006
1554.42293	1.51775
1552.49437	1.51678
1550.56580	1.51620
1548.63724	1.51444
1546.70867	1.51284
1544.78011	1.51208
1542.85154	1.51166
1540.92298	1.51043
1538.99441	1.50441
1537.06585	1.49919
1535.13729	1.49481
1533.20872	1.48972
1531.28016	1.48572
1529.35159	1.48402
1527.42303	1.48346
1525.49446	1.48252
1523.56590	1.48094
1521.63733	1.47898
1519.70877	1.47884
1517.78021	1.47674
1515.85164	1.46625
1513.92308	1.45270
1511.99451	1.44269
1510.06595	1.43710
1508.13738	1.42666
1506.20882	1.39695
1504.28025	1.37867
1502.35169	1.36838
1500.42313	1.35754
1498.49456	1.34403
1496.56600	1.32607
1494.63743	1.31143
1492.70887	1.30312
1490.78030	1.29365
1488.85174	1.27645
1486.92317	1.26045
1484.99461	1.25137
1483.06605	1.24594
1481.13748	1.24212
1479.20892	1.24125
1477.28035	1.24477
1475.35179	1.25196
1473.42322	1.26254
1471.49466	1.27275
1469.56610	1.27865
1467.63753	1.28378
1465.70897	1.29055
1463.78040	1.29766
1461.85184	1.30316
1459.92327	1.30929
1457.99471	1.31896
1456.06614	1.32585
1454.13758	1.32656
1452.20902	1.32703
1450.28045	1.32835
1448.35189	1.33012
1446.42332	1.33056
1444.49476	1.32891
1442.56619	1.32623
1440.63763	1.32435
1438.70906	1.32349
1436.78050	1.31964
1434.85194	1.31185
1432.92337	1.30550
1430.99481	1.29965
1429.06624	1.29271
1427.13768	1.28697
1425.20911	1.28306
1423.28055	1.28047
1421.35198	1.27969
1419.42342	1.27902
1417.49486	1.27629
1415.56629	1.27414
1413.63773	1.27258
1411.70916	1.26927
1409.78060	1.26458
1407.85203	1.26092
1405.92347	1.25841
1403.99490	1.25622
1402.06634	1.25560
1400.13778	1.25707
1398.20921	1.25903
1396.28065	1.26012
1394.35208	1.26125
1392.42352	1.26371
1390.49495	1.26861
1388.56639	1.27794
1386.63782	1.29142
1384.70926	1.30445
1382.78070	1.31597
1380.85213	1.32578
1378.92357	1.33153
1376.99500	1.33238
1375.06644	1.32817
1373.13787	1.31916
1371.20931	1.30843
1369.28074	1.29636
1367.35218	1.28345
1365.42362	1.27260
1363.49505	1.26299
1361.56649	1.25460
1359.63792	1.25018
1357.70936	1.24830
1355.78079	1.24712
1353.85223	1.24642
1351.92366	1.24598
1349.99510	1.24587
1348.06654	1.24605
1346.13797	1.24589
1344.20941	1.24557
1342.28084	1.24570
1340.35228	1.24573
1338.42371	1.24483
1336.49515	1.24393
1334.56659	1.24431
1332.63802	1.24648
1330.70946	1.24966
1328.78089	1.25177
1326.85233	1.25175
1324.92376	1.25016
1322.99520	1.24795
1321.06663	1.24603
1319.13807	1.24520
1317.20951	1.24564
1315.28094	1.24635
1313.35238	1.24628
1311.42381	1.24563
1309.49525	1.24557
1307.56668	1.24621
1305.63812	1.24667
1303.70955	1.24691
1301.78099	1.24739
1299.85243	1.24803
1297.92386	1.24883
1295.99530	1.25012
1294.06673	1.25209
1292.13817	1.25552
1290.20960	1.26099
1288.28104	1.26716
1286.35247	1.27262
1284.42391	1.27727
1282.49535	1.28128
1280.56678	1.28484
1278.63822	1.28776
1276.70965	1.29008
1274.78109	1.29280
1272.85252	1.29622
1270.92396	1.29951
1268.99539	1.30226
1267.06683	1.30428
1265.13827	1.30474
1263.20970	1.30321
1261.28114	1.29980
1259.35257	1.29480
1257.42401	1.28966
1255.49544	1.28555
1253.56688	1.28164
1251.63831	1.27688
1249.70975	1.27212
1247.78119	1.26864
1245.85262	1.26642
1243.92406	1.26496
1241.99549	1.26376
1240.06693	1.26266
1238.13836	1.26143
1236.20980	1.25929
1234.28123	1.25676
1232.35267	1.25503
1230.42411	1.25332
1228.49554	1.25051
1226.56698	1.24698
1224.63841	1.24370
1222.70985	1.24125
1220.78128	1.23958
1218.85272	1.23892
1216.92415	1.23998
1214.99559	1.24287
1213.06703	1.24797
1211.13846	1.25548
1209.20990	1.26301
1207.28133	1.26752
1205.35277	1.26824
1203.42420	1.26592
1201.49564	1.26137
1199.56708	1.25469
1197.63851	1.24614
1195.70995	1.23660
1193.78138	1.22723
1191.85282	1.21939
1189.92425	1.21325
1187.99569	1.20792
1186.06712	1.20321
1184.13856	1.19938
1182.21000	1.19675
1180.28143	1.19602
1178.35287	1.19808
1176.42430	1.20283
1174.49574	1.20882
1172.56717	1.21564
1170.63861	1.22472
1168.71004	1.23661
1166.78148	1.24971
1164.85292	1.26159
1162.92435	1.27064
1160.99579	1.27561
1159.06722	1.27546
1157.13866	1.27044
1155.21009	1.26188
1153.28153	1.25137
1151.35296	1.23988
1149.42440	1.22836
1147.49584	1.21867
1145.56727	1.21255
1143.63871	1.21093
1141.71014	1.21373
1139.78158	1.22027
1137.85301	1.22986
1135.92445	1.24126
1133.99588	1.25387
1132.06732	1.26912
1130.13876	1.28772
1128.21019	1.30747
1126.28163	1.32529
1124.35306	1.33971
1122.42450	1.35100
1120.49593	1.36024
1118.56737	1.36664
1116.63880	1.36724
1114.71024	1.36260
1112.78168	1.35716
1110.85311	1.35123
1108.92455	1.34282
1106.99598	1.33431
1105.06742	1.32761
1103.13885	1.32239
1101.21029	1.32055
1099.28172	1.32360
1097.35316	1.32945
1095.42460	1.33617
1093.49603	1.34528
1091.56747	1.35821
1089.63890	1.37318
1087.71034	1.38795
1085.78177	1.40113
1083.85321	1.41161
1081.92464	1.41893
1079.99608	1.42166
1078.06752	1.41908
1076.13895	1.41415
1074.21039	1.40868
1072.28182	1.40156
1070.35326	1.39439
1068.42469	1.38970
1066.49613	1.38589
1064.56756	1.38099
1062.63900	1.37554
1060.71044	1.37000
1058.78187	1.36483
1056.85331	1.36043
1054.92474	1.35709
1052.99618	1.35658
1051.06761	1.35840
1049.13905	1.36044
1047.21049	1.36535
1045.28192	1.37461
1043.35336	1.38332
1041.42479	1.38893
1039.49623	1.39261
1037.56766	1.39442
1035.63910	1.39465
1033.71053	1.39408
1031.78197	1.39182
1029.85341	1.38598
1027.92484	1.37636
1025.99628	1.36425
1024.06771	1.35065
1022.13915	1.33794
1020.21058	1.32941
1018.28202	1.32464
1016.35345	1.31895
1014.42489	1.30916
1012.49633	1.29598
1010.56776	1.28046
1008.63920	1.26288
1006.71063	1.24438
1004.78207	1.22672
1002.85350	1.21060
1000.92494	1.19587
998.99637	1.18327
997.06781	1.17371
995.13925	1.16604
993.21068	1.15812
991.28212	1.14944
989.35355	1.14052
987.42499	1.13177
985.49642	1.12444
983.56786	1.11937
981.63929	1.11531
979.71073	1.11157
977.78217	1.10874
975.85360	1.10574
973.92504	1.10043
971.99647	1.09223
970.06791	1.08158
968.13934	1.06957
966.21078	1.05890
964.28221	1.05220
962.35365	1.05081
960.42509	1.05548
958.49652	1.06483
956.56796	1.07417
954.63939	1.07854
952.71083	1.07582
950.78226	1.06679
948.85370	1.05449
946.92513	1.04258
944.99657	1.03345
943.06801	1.02783
941.13944	1.02515
939.21088	1.02436
937.28231	1.02469
935.35375	1.02591
933.42518	1.02837
931.49662	1.03207
929.56805	1.03623
927.63949	1.04055
925.71093	1.04562
923.78236	1.05170
921.85380	1.05824
919.92523	1.06364
917.99667	1.06675
916.06810	1.06862
914.13954	1.07047
912.21098	1.07264
910.28241	1.07557
908.35385	1.07977
906.42528	1.08556
904.49672	1.09246
902.56815	1.09906
900.63959	1.10425
898.71102	1.10762
896.78246	1.10914
894.85390	1.10889
892.92533	1.10703
890.99677	1.10395
889.06820	1.10028
887.13964	1.09726
885.21107	1.09568
883.28251	1.09482
881.35394	1.09381
879.42538	1.09295
877.49682	1.09313
875.56825	1.09429
873.63969	1.09552
871.71112	1.09668
869.78256	1.09794
867.85399	1.09908
865.92543	1.10033
863.99686	1.10214
862.06830	1.10445
860.13974	1.10745
858.21117	1.11150
856.28261	1.11528
854.35404	1.11729
852.42548	1.11839
850.49691	1.11968
848.56835	1.12065
846.63978	1.12133
844.71122	1.12236
842.78266	1.12359
840.85409	1.12558
838.92553	1.12874
836.99696	1.13181
835.06840	1.13459
833.13983	1.13821
831.21127	1.14295
829.28270	1.14874
827.35414	1.15548
825.42558	1.16274
823.49701	1.16982
821.56845	1.17612
819.63988	1.18226
817.71132	1.18851
815.78275	1.19333
813.85419	1.19678
811.92562	1.20031
809.99706	1.20318
808.06850	1.20481
806.13993	1.20581
804.21137	1.20514
802.28280	1.20218
800.35424	1.19873
798.42567	1.19578
796.49711	1.19276
794.56854	1.18953
792.63998	1.18624
790.71142	1.18343
788.78285	1.18114
786.85429	1.17856
784.92572	1.17589
782.99716	1.17414
781.06859	1.17334
779.14003	1.17238
777.21147	1.17058
775.28290	1.16897
773.35434	1.16859
771.42577	1.16900
769.49721	1.16939
767.56864	1.16957
765.64008	1.17040
763.71151	1.17297
761.78295	1.17700
759.85439	1.18183
757.92582	1.18740
755.99726	1.19346
754.06869	1.20034
752.14013	1.20888
750.21156	1.21825
748.28300	1.22596
746.35443	1.23100
744.42587	1.23616
742.49731	1.24424
740.56874	1.25233
738.64018	1.25664
736.71161	1.25916
734.78305	1.26285
732.85448	1.26710
730.92592	1.26986
728.99735	1.26992
727.06879	1.26807
725.14023	1.26578
723.21166	1.26319
721.28310	1.25878
719.35453	1.25080
717.42597	1.24067
715.49740	1.23097
713.56884	1.22136
711.64027	1.21068
709.71171	1.19992
707.78315	1.19013
705.85458	1.18049
703.92602	1.17116
701.99745	1.16367
700.06889	1.15809
698.14032	1.15273
696.21176	1.14707
694.28319	1.14372
692.35463	1.14447
690.42607	1.14730
688.49750	1.15066
686.56894	1.15603
684.64037	1.16398
682.71181	1.17356
680.78324	1.18416
678.85468	1.19538
676.92611	1.20847
674.99755	1.22485
673.06899	1.24235
671.14042	1.25890
669.21186	1.27980
667.28329	1.30126
665.35473	1.31006
663.42616	1.31760
661.49760	1.32815
659.56903	1.33659
657.64047	1.34160
655.71191	1.34592
653.78334	1.34936
651.85478	1.35031
649.92621	1.34746
647.99765	1.33928
646.06908	1.32606
644.14052	1.31116
642.21195	1.29799
640.28339	1.28648
638.35483	1.27574
636.42626	1.26593
634.49770	1.25624
632.56913	1.24499
630.64057	1.23193
628.71200	1.21859
626.78344	1.20561
624.85488	1.19598
622.92631	1.19409
620.99775	1.19557
619.06918	1.19431
617.14062	1.19318
615.21205	1.19490
613.28349	1.19720
611.35492	1.19924
609.42636	1.20067
607.49780	1.20043
605.56923	1.20046
603.64067	1.20316
601.71210	1.20906
599.78354	1.21803
