3997.91406	0.90389
3995.98550	0.90341
3994.05693	0.90243
3992.12837	0.90171
3990.19980	0.90096
3988.27124	0.89984
3986.34268	0.89896
3984.41411	0.89839
3982.48555	0.89747
3980.55698	0.89600
3978.62842	0.89473
3976.69985	0.89445
3974.77129	0.89499
3972.84272	0.89576
3970.91416	0.89586
3968.98560	0.89401
3967.05703	0.89066
3965.12847	0.88865
3963.19990	0.88876
3961.27134	0.88949
3959.34277	0.89100
3957.41421	0.89279
3955.48564	0.89298
3953.55708	0.89220
3951.62852	0.89218
3949.69995	0.89244
3947.77139	0.89199
3945.84282	0.89197
3943.91426	0.89202
3941.98569	0.89031
3940.05713	0.88772
3938.12856	0.88599
3936.20000	0.88577
3934.27144	0.88611
3932.34287	0.88570
3930.41431	0.88540
3928.48574	0.88556
3926.55718	0.88468
3924.62861	0.88325
3922.70005	0.88409
3920.77148	0.88668
3918.84292	0.88760
3916.91436	0.88499
3914.98579	0.88186
3913.05723	0.88132
3911.12866	0.88233
3909.20010	0.88342
3907.27153	0.88436
3905.34297	0.88388
3903.41440	0.88004
3901.48584	0.87472
3899.55728	0.87118
3897.62871	0.87187
3895.70015	0.87608
3893.77158	0.87909
3891.84302	0.87682
3889.91445	0.87451
3887.98589	0.87493
3886.05733	0.87295
3884.12876	0.87123
3882.20020	0.87311
3880.27163	0.87319
3878.34307	0.87368
3876.41450	0.87669
3874.48594	0.87772
3872.55737	0.87487
3870.62881	0.86983
3868.70025	0.86819
3866.77168	0.87128
3864.84312	0.87158
3862.91455	0.86801
3860.98599	0.86725
3859.05742	0.86939
3857.12886	0.87233
3855.20029	0.87222
3853.27173	0.86212
3851.34317	0.85523
3849.41460	0.85676
3847.48604	0.86050
3845.55747	0.86392
3843.62891	0.86589
3841.70034	0.86765
3839.77178	0.86695
3837.84321	0.86062
3835.91465	0.85601
3833.98609	0.85506
3832.05752	0.85496
3830.12896	0.85535
3828.20039	0.85550
3826.27183	0.85586
3824.34326	0.85770
3822.41470	0.85767
3820.48613	0.85492
3818.55757	0.85481
3816.62901	0.85202
3814.70044	0.84858
3812.77188	0.85076
3810.84331	0.85443
3808.91475	0.85582
3806.98618	0.85390
3805.05762	0.85273
3803.12905	0.85190
3801.20049	0.84750
3799.27193	0.84620
3797.34336	0.84726
3795.41480	0.84699
3793.48623	0.84760
3791.55767	0.84826
3789.62910	0.84729
3787.70054	0.84596
3785.77197	0.84498
3783.84341	0.84507
3781.91485	0.84624
3779.98628	0.84537
3778.05772	0.84300
3776.12915	0.84245
3774.20059	0.84352
3772.27202	0.84548
3770.34346	0.84589
3768.41489	0.84348
3766.48633	0.84044
3764.55777	0.83874
3762.62920	0.83984
3760.70064	0.84097
3758.77207	0.83971
3756.84351	0.84019
3754.91494	0.84398
3752.98638	0.84639
3751.05781	0.84128
3749.12925	0.83650
3747.20069	0.83748
3745.27212	0.83636
3743.34356	0.83497
3741.41499	0.83857
3739.48643	0.84206
3737.55786	0.84120
3735.62930	0.83640
3733.70074	0.83246
3731.77217	0.83145
3729.84361	0.83242
3727.91504	0.83361
3725.98648	0.83350
3724.05791	0.83231
3722.12935	0.83084
3720.20078	0.82987
3718.27222	0.82976
3716.34366	0.83011
3714.41509	0.83080
3712.48653	0.83024
3710.55796	0.82784
3708.62940	0.82740
3706.70083	0.82914
3704.77227	0.83157
3702.84370	0.83264
3700.91514	0.83138
3698.98658	0.83093
3697.05801	0.83275
3695.12945	0.83506
3693.20088	0.83708
3691.27232	0.83916
3689.34375	0.83971
3687.41519	0.84030
3685.48662	0.84307
3683.55806	0.84701
3681.62950	0.85088
3679.70093	0.85437
3677.77237	0.85764
3675.84380	0.85834
3673.91524	0.85965
3671.98667	0.86336
3670.05811	0.86410
3668.12954	0.86552
3666.20098	0.87175
3664.27242	0.87934
3662.34385	0.88633
3660.41529	0.89240
3658.48672	0.89716
3656.55816	0.90133
3654.62959	0.90685
3652.70103	0.91299
3650.77246	0.91703
3648.84390	0.91806
3646.91534	0.92252
3644.98677	0.92920
3643.05821	0.93604
3641.12964	0.94370
3639.20108	0.95247
3637.27251	0.96102
3635.34395	0.96883
3633.41538	0.97665
3631.48682	0.98276
3629.55826	0.98377
3627.62969	0.98561
3625.70113	0.99528
3623.77256	1.00646
3621.84400	1.01490
3619.91543	1.01973
3617.98687	1.02460
3616.05830	1.03351
3614.12974	1.04321
3612.20118	1.04986
3610.27261	1.05458
3608.34405	1.06129
3606.41548	1.07113
3604.48692	1.07967
3602.55835	1.08577
3600.62979	1.09143
3598.70123	1.09792
3596.77266	1.10529
3594.84410	1.11408
3592.91553	1.12358
3590.98697	1.13084
3589.05840	1.13642
3587.12984	1.14384
3585.20127	1.15313
3583.27271	1.16055
3581.34415	1.16486
3579.41558	1.16818
3577.48702	1.17264
3575.55845	1.17768
3573.62989	1.18340
3571.70132	1.19037
3569.77276	1.19655
3567.84419	1.20078
3565.91563	1.20630
3563.98707	1.21490
3562.05850	1.22560
3560.12994	1.23694
3558.20137	1.24743
3556.27281	1.25687
3554.34424	1.26637
3552.41568	1.27462
3550.48711	1.27883
3548.55855	1.28393
3546.62999	1.29397
3544.70142	1.30477
3542.77286	1.31143
3540.84429	1.31425
3538.91573	1.31790
3536.98716	1.32570
3535.05860	1.33486
3533.13003	1.34259
3531.20147	1.34919
3529.27291	1.35418
3527.34434	1.35911
3525.41578	1.36751
3523.48721	1.37895
3521.55865	1.38998
3519.63008	1.39927
3517.70152	1.40777
3515.77295	1.41483
3513.84439	1.42061
3511.91583	1.42704
3509.98726	1.43546
3508.05870	1.44808
3506.13013	1.46315
3504.20157	1.47325
3502.27300	1.47681
3500.34444	1.48195
3498.41587	1.48976
3496.48731	1.49545
3494.55875	1.49963
3492.63018	1.50591
3490.70162	1.51367
3488.77305	1.51994
3486.84449	1.52599
3484.91592	1.53365
3482.98736	1.54114
3481.05879	1.54649
3479.13023	1.54803
3477.20167	1.54757
3475.27310	1.54771
3473.34454	1.54906
3471.41597	1.55422
3469.48741	1.56302
3467.55884	1.56807
3465.63028	1.56614
3463.70171	1.56653
3461.77315	1.57430
3459.84459	1.58106
3457.91602	1.58322
3455.98746	1.58638
3454.05889	1.59155
3452.13033	1.59528
3450.20176	1.59619
3448.27320	1.59467
3446.34464	1.59199
3444.41607	1.59126
3442.48751	1.59342
3440.55894	1.59781
3438.63038	1.60531
3436.70181	1.61214
3434.77325	1.61382
3432.84468	1.61512
3430.91612	1.61813
3428.98756	1.61646
3427.05899	1.60934
3425.13043	1.60563
3423.20186	1.61071
3421.27330	1.62038
3419.34473	1.62720
3417.41617	1.62766
3415.48760	1.62712
3413.55904	1.62959
3411.63048	1.62881
3409.70191	1.62403
3407.77335	1.62146
3405.84478	1.62372
3403.91622	1.63073
3401.98765	1.63515
3400.05909	1.63148
3398.13052	1.62681
3396.20196	1.62814
3394.27340	1.63480
3392.34483	1.64106
3390.41627	1.64457
3388.48770	1.64820
3386.55914	1.65200
3384.63057	1.65776
3382.70201	1.66618
3380.77344	1.66787
3378.84488	1.65919
3376.91632	1.65215
3374.98775	1.65340
3373.05919	1.65429
3371.13062	1.65023
3369.20206	1.64788
3367.27349	1.64929
3365.34493	1.65067
3363.41636	1.65360
3361.48780	1.66039
3359.55924	1.66577
3357.63067	1.66676
3355.70211	1.66875
3353.77354	1.67338
3351.84498	1.67633
3349.91641	1.67681
3347.98785	1.67576
3346.05928	1.67323
3344.13072	1.67172
3342.20216	1.67434
3340.27359	1.68072
3338.34503	1.68552
3336.41646	1.68493
3334.48790	1.68226
3332.55933	1.68027
3330.63077	1.67980
3328.70220	1.68471
3326.77364	1.69279
3324.84508	1.69483
3322.91651	1.69071
3320.98795	1.68853
3319.05938	1.69284
3317.13082	1.70122
3315.20225	1.70865
3313.27369	1.71302
3311.34513	1.71348
3309.41656	1.71279
3307.48800	1.71558
3305.55943	1.71948
3303.63087	1.72035
3301.70230	1.72151
3299.77374	1.72516
3297.84517	1.72700
3295.91661	1.72722
3293.98805	1.72667
3292.05948	1.72314
3290.13092	1.71975
3288.20235	1.71908
3286.27379	1.71784
3284.34522	1.71371
3282.41666	1.71075
3280.48809	1.70882
3278.55953	1.70556
3276.63097	1.70883
3274.70240	1.71542
3272.77384	1.71177
3270.84527	1.70354
3268.91671	1.69919
3266.98814	1.69458
3265.05958	1.69024
3263.13101	1.69205
3261.20245	1.69375
3259.27389	1.68513
3257.34532	1.67338
3255.41676	1.66796
3253.48819	1.66546
3251.55963	1.66198
3249.63106	1.65629
3247.70250	1.64829
3245.77393	1.64298
3243.84537	1.64199
3241.91681	1.64031
3239.98824	1.63561
3238.05968	1.62979
3236.13111	1.62398
3234.20255	1.61827
3232.27398	1.61332
3230.34542	1.60910
3228.41685	1.60519
3226.48829	1.60357
3224.55973	1.60542
3222.63116	1.60424
3220.70260	1.59537
3218.77403	1.58669
3216.84547	1.58333
3214.91690	1.58239
3212.98834	1.58309
3211.05977	1.58413
3209.13121	1.58240
3207.20265	1.57745
3205.27408	1.56993
3203.34552	1.56086
3201.41695	1.55388
3199.48839	1.55112
3197.55982	1.54950
3195.63126	1.54584
3193.70269	1.54039
3191.77413	1.53583
3189.84557	1.53356
3187.91700	1.53168
3185.98844	1.52891
3184.05987	1.52475
3182.13131	1.51834
3180.20274	1.51183
3178.27418	1.50754
3176.34562	1.50249
3174.41705	1.49494
3172.48849	1.48934
3170.55992	1.48764
3168.63136	1.48678
3166.70279	1.48427
3164.77423	1.47869
3162.84566	1.47140
3160.91710	1.46769
3158.98854	1.46758
3157.05997	1.46510
3155.13141	1.46096
3153.20284	1.45932
3151.27428	1.45774
3149.34571	1.45398
3147.41715	1.45030
3145.48858	1.44805
3143.56002	1.44662
3141.63146	1.44474
3139.70289	1.44157
3137.77433	1.43898
3135.84576	1.44035
3133.91720	1.44462
3131.98863	1.44636
3130.06007	1.44399
3128.13150	1.44045
3126.20294	1.43758
3124.27438	1.43539
3122.34581	1.43421
3120.41725	1.43509
3118.48868	1.43682
3116.56012	1.43893
3114.63155	1.44346
3112.70299	1.44865
3110.77442	1.45024
3108.84586	1.44785
3106.91730	1.44526
3104.98873	1.44437
3103.06017	1.44259
3101.13160	1.43910
3099.20304	1.43552
3097.27447	1.43200
3095.34591	1.42874
3093.41734	1.42726
3091.48878	1.42767
3089.56022	1.42763
3087.63165	1.42700
3085.70309	1.42736
3083.77452	1.42628
3081.84596	1.42189
3079.91739	1.41771
3077.98883	1.41644
3076.06026	1.41599
3074.13170	1.41307
3072.20314	1.40914
3070.27457	1.40742
3068.34601	1.40514
3066.41744	1.40136
3064.48888	1.40120
3062.56031	1.40241
3060.63175	1.39806
3058.70318	1.38979
3056.77462	1.38297
3054.84606	1.37928
3052.91749	1.37726
3050.98893	1.37363
3049.06036	1.36813
3047.13180	1.36340
3045.20323	1.35858
3043.27467	1.35307
3041.34610	1.34780
3039.41754	1.34189
3037.48898	1.33743
3035.56041	1.33723
3033.63185	1.33813
3031.70328	1.33618
3029.77472	1.33245
3027.84615	1.32911
3025.91759	1.32531
3023.98903	1.32057
3022.06046	1.31687
3020.13190	1.31481
3018.20333	1.31326
3016.27477	1.31228
3014.34620	1.31198
3012.41764	1.31141
3010.48907	1.31034
3008.56051	1.30819
3006.63195	1.30437
3004.70338	1.30075
3002.77482	1.29907
3000.84625	1.29910
2998.91769	1.30003
2996.98912	1.30036
2995.06056	1.30034
2993.13199	1.30250
2991.20343	1.30669
2989.27487	1.31016
2987.34630	1.31348
2985.41774	1.32007
2983.48917	1.32903
2981.56061	1.33721
2979.63204	1.34481
2977.70348	1.35190
2975.77491	1.35843
2973.84635	1.36708
2971.91779	1.37836
2969.98922	1.38855
2968.06066	1.39604
2966.13209	1.40450
2964.20353	1.41473
2962.27496	1.42154
2960.34640	1.42281
2958.41783	1.42023
2956.48927	1.41475
2954.56071	1.40781
2952.63214	1.40073
2950.70358	1.39502
2948.77501	1.39308
2946.84645	1.39393
2944.91788	1.39667
2942.98932	1.40515
2941.06075	1.41874
2939.13219	1.43061
2937.20363	1.43895
2935.27506	1.44760
2933.34650	1.45680
2931.41793	1.46297
2929.48937	1.46750
2927.56080	1.47555
2925.63224	1.48641
2923.70367	1.49378
2921.77511	1.49523
2919.84655	1.49353
2917.91798	1.48604
2915.98942	1.46770
2914.06085	1.44185
2912.13229	1.41618
2910.20372	1.39502
2908.27516	1.37682
2906.34659	1.36052
2904.41803	1.34944
2902.48947	1.34366
2900.56090	1.33987
2898.63234	1.33705
2896.70377	1.33479
2894.77521	1.33138
2892.84664	1.32658
2890.91808	1.32223
2888.98952	1.31841
2887.06095	1.31376
2885.13239	1.30938
2883.20382	1.30752
2881.27526	1.30794
2879.34669	1.30874
2877.41813	1.30970
2875.48956	1.31099
2873.56100	1.31021
2871.63244	1.30532
2869.70387	1.29718
2867.77531	1.28815
2865.84674	1.28158
2863.91818	1.27906
2861.98961	1.27877
2860.06105	1.27988
2858.13248	1.28466
2856.20392	1.29443
2854.27536	1.30687
2852.34679	1.31683
2850.41823	1.31638
2848.48966	1.29846
2846.56110	1.26699
2844.63253	1.23489
2842.70397	1.21009
2840.77540	1.19223
2838.84684	1.17870
2836.91828	1.16858
2834.98971	1.16134
2833.06115	1.15486
2831.13258	1.14843
2829.20402	1.14340
2827.27545	1.13889
2825.34689	1.13361
2823.41832	1.12869
2821.48976	1.12495
2819.56120	1.12180
2817.63263	1.11855
2815.70407	1.11477
2813.77550	1.11005
2811.84694	1.10482
2809.91837	1.10043
2807.98981	1.09699
2806.06124	1.09302
2804.13268	1.08800
2802.20412	1.08302
2800.27555	1.07884
2798.34699	1.07491
2796.41842	1.07059
2794.48986	1.06640
2792.56129	1.06334
2790.63273	1.06089
2788.70416	1.05738
2786.77560	1.05309
2784.84704	1.05017
2782.91847	1.04887
2780.98991	1.04718
2779.06134	1.04419
2777.13278	1.04049
2775.20421	1.03701
2773.27565	1.03504
2771.34708	1.03447
2769.41852	1.03333
2767.48996	1.03091
2765.56139	1.02796
2763.63283	1.02452
2761.70426	1.02091
2759.77570	1.01814
2757.84713	1.01591
2755.91857	1.01347
2753.99001	1.01106
2752.06144	1.00883
2750.13288	1.00681
2748.20431	1.00514
2746.27575	1.00343
2744.34718	1.00148
2742.41862	0.99949
2740.49005	0.99752
2738.56149	0.99539
2736.63293	0.99309
2734.70436	0.99108
2732.77580	0.98962
2730.84723	0.98808
2728.91867	0.98617
2726.99010	0.98430
2725.06154	0.98215
2723.13297	0.97924
2721.20441	0.97657
2719.27585	0.97482
2717.34728	0.97302
2715.41872	0.97086
2713.49015	0.96892
2711.56159	0.96682
2709.63302	0.96428
2707.70446	0.96202
2705.77589	0.96012
2703.84733	0.95795
2701.91877	0.95545
2699.99020	0.95279
2698.06164	0.95011
2696.13307	0.94793
2694.20451	0.94628
2692.27594	0.94458
2690.34738	0.94263
2688.41881	0.94067
2686.49025	0.93912
2684.56169	0.93806
2682.63312	0.93688
2680.70456	0.93562
2678.77599	0.93466
2676.84743	0.93346
2674.91886	0.93179
2672.99030	0.93016
2671.06173	0.92867
2669.13317	0.92703
2667.20461	0.92514
2665.27604	0.92306
2663.34748	0.92129
2661.41891	0.91994
2659.49035	0.91835
2657.56178	0.91652
2655.63322	0.91510
2653.70465	0.91384
2651.77609	0.91220
2649.84753	0.91004
2647.91896	0.90747
2645.99040	0.90520
2644.06183	0.90364
2642.13327	0.90213
2640.20470	0.89999
2638.27614	0.89744
2636.34757	0.89532
2634.41901	0.89393
2632.49045	0.89278
2630.56188	0.89151
2628.63332	0.89033
2626.70475	0.88956
2624.77619	0.88867
2622.84762	0.88743
2620.91906	0.88667
2618.99049	0.88651
2617.06193	0.88615
2615.13337	0.88508
2613.20480	0.88347
2611.27624	0.88241
2609.34767	0.88223
2607.41911	0.88167
2605.49054	0.88040
2603.56198	0.87939
2601.63342	0.87840
2599.70485	0.87701
2597.77629	0.87578
2595.84772	0.87474
2593.91916	0.87330
2591.99059	0.87148
2590.06203	0.86980
2588.13346	0.86848
2586.20490	0.86701
2584.27634	0.86474
2582.34777	0.86205
2580.41921	0.85994
2578.49064	0.85840
2576.56208	0.85695
2574.63351	0.85587
2572.70495	0.85500
2570.77638	0.85359
2568.84782	0.85181
2566.91926	0.85043
2564.99069	0.84948
2563.06213	0.84849
2561.13356	0.84719
2559.20500	0.84570
2557.27643	0.84434
2555.34787	0.84308
2553.41930	0.84166
2551.49074	0.84014
2549.56218	0.83868
2547.63361	0.83715
2545.70505	0.83573
2543.77648	0.83495
2541.84792	0.83429
2539.91935	0.83309
2537.99079	0.83192
2536.06222	0.83104
2534.13366	0.82999
2532.20510	0.82861
2530.27653	0.82710
2528.34797	0.82558
2526.41940	0.82389
2524.49084	0.82242
2522.56227	0.82175
2520.63371	0.82124
2518.70514	0.81981
2516.77658	0.81770
2514.84802	0.81595
2512.91945	0.81471
2510.99089	0.81322
2509.06232	0.81120
2507.13376	0.80923
2505.20519	0.80742
2503.27663	0.80538
2501.34806	0.80322
2499.41950	0.80123
2497.49094	0.79940
2495.56237	0.79768
2493.63381	0.79612
2491.70524	0.79414
2489.77668	0.79133
2487.84811	0.78860
2485.91955	0.78672
2483.99098	0.78526
2482.06242	0.78372
2480.13386	0.78224
2478.20529	0.78123
2476.27673	0.78040
2474.34816	0.77923
2472.41960	0.77784
2470.49103	0.77659
2468.56247	0.77553
2466.63391	0.77460
2464.70534	0.77380
2462.77678	0.77304
2460.84821	0.77220
2458.91965	0.77132
2456.99108	0.77051
2455.06252	0.76960
2453.13395	0.76842
2451.20539	0.76705
2449.27683	0.76575
2447.34826	0.76463
2445.41970	0.76345
2443.49113	0.76207
2441.56257	0.76070
2439.63400	0.75933
2437.70544	0.75766
2435.77687	0.75556
2433.84831	0.75369
2431.91975	0.75259
2429.99118	0.75171
2428.06262	0.75044
2426.13405	0.74879
2424.20549	0.74723
2422.27692	0.74614
2420.34836	0.74548
2418.41979	0.74523
2416.49123	0.74521
2414.56267	0.74507
2412.63410	0.74486
2410.70554	0.74472
2408.77697	0.74432
2406.84841	0.74342
2404.91984	0.74258
2402.99128	0.74233
2401.06271	0.74226
2399.13415	0.74173
2397.20559	0.74076
2395.27702	0.73982
2393.34846	0.73905
2391.41989	0.73825
2389.49133	0.73732
2387.56276	0.73618
2385.63420	0.73502
2383.70563	0.73393
2381.77707	0.73252
2379.84851	0.73041
2377.91994	0.72787
2375.99138	0.72579
2374.06281	0.72426
2372.13425	0.72214
2370.20568	0.71859
2368.27712	0.71395
2366.34855	0.70937
2364.41999	0.70533
2362.49143	0.70142
2360.56286	0.69834
2358.63430	0.69746
2356.70573	0.69896
2354.77717	0.70148
2352.84860	0.70391
2350.92004	0.70566
2348.99147	0.70659
2347.06291	0.70683
2345.13435	0.70613
2343.20578	0.70378
2341.27722	0.70072
2339.34865	0.69883
2337.42009	0.69755
2335.49152	0.69591
2333.56296	0.69515
2331.63440	0.69552
2329.70583	0.69592
2327.77727	0.69634
2325.84870	0.69637
2323.92014	0.69521
2321.99157	0.69395
2320.06301	0.69352
2318.13444	0.69293
2316.20588	0.69178
2314.27732	0.69065
2312.34875	0.68965
2310.42019	0.68878
2308.49162	0.68842
2306.56306	0.68847
2304.63449	0.68830
2302.70593	0.68776
2300.77736	0.68730
2298.84880	0.68712
2296.92024	0.68709
2294.99167	0.68729
2293.06311	0.68745
2291.13454	0.68722
2289.20598	0.68690
2287.27741	0.68681
2285.34885	0.68673
2283.42028	0.68630
2281.49172	0.68566
2279.56316	0.68526
2277.63459	0.68500
2275.70603	0.68436
2273.77746	0.68336
2271.84890	0.68245
2269.92033	0.68165
2267.99177	0.68082
2266.06320	0.67996
2264.13464	0.67899
2262.20608	0.67790
2260.27751	0.67674
2258.34895	0.67558
2256.42038	0.67465
2254.49182	0.67388
2252.56325	0.67318
2250.63469	0.67256
2248.70612	0.67182
2246.77756	0.67092
2244.84900	0.67018
2242.92043	0.66975
2240.99187	0.66957
2239.06330	0.66969
2237.13474	0.67004
2235.20617	0.67034
2233.27761	0.67045
2231.34904	0.67052
2229.42048	0.67047
2227.49192	0.67014
2225.56335	0.66999
2223.63479	0.67022
2221.70622	0.67019
2219.77766	0.66968
2217.84909	0.66917
2215.92053	0.66873
2213.99196	0.66823
2212.06340	0.66787
2210.13484	0.66768
2208.20627	0.66726
2206.27771	0.66654
2204.34914	0.66583
2202.42058	0.66524
2200.49201	0.66471
2198.56345	0.66433
2196.63488	0.66408
2194.70632	0.66365
2192.77776	0.66279
2190.84919	0.66178
2188.92063	0.66115
2186.99206	0.66069
2185.06350	0.65980
2183.13493	0.65850
2181.20637	0.65730
2179.27781	0.65651
2177.34924	0.65594
2175.42068	0.65534
2173.49211	0.65462
2171.56355	0.65382
2169.63498	0.65308
2167.70642	0.65252
2165.77785	0.65211
2163.84929	0.65185
2161.92073	0.65154
2159.99216	0.65107
2158.06360	0.65056
2156.13503	0.65004
2154.20647	0.64951
2152.27790	0.64913
2150.34934	0.64894
2148.42077	0.64882
2146.49221	0.64851
2144.56365	0.64789
2142.63508	0.64721
2140.70652	0.64672
2138.77795	0.64631
2136.84939	0.64577
2134.92082	0.64512
2132.99226	0.64438
2131.06369	0.64376
2129.13513	0.64341
2127.20657	0.64313
2125.27800	0.64276
2123.34944	0.64245
2121.42087	0.64215
2119.49231	0.64154
2117.56374	0.64070
2115.63518	0.63985
2113.70661	0.63913
2111.77805	0.63860
2109.84949	0.63813
2107.92092	0.63762
2105.99236	0.63713
2104.06379	0.63662
2102.13523	0.63613
2100.20666	0.63575
2098.27810	0.63536
2096.34953	0.63479
2094.42097	0.63417
2092.49241	0.63368
2090.56384	0.63321
2088.63528	0.63252
2086.70671	0.63167
2084.77815	0.63077
2082.84958	0.62980
2080.92102	0.62891
2078.99245	0.62821
2077.06389	0.62751
2075.13533	0.62661
2073.20676	0.62550
2071.27820	0.62435
2069.34963	0.62338
2067.42107	0.62264
2065.49250	0.62182
2063.56394	0.62075
2061.63537	0.61960
2059.70681	0.61851
2057.77825	0.61759
2055.84968	0.61675
2053.92112	0.61591
2051.99255	0.61524
2050.06399	0.61476
2048.13542	0.61431
2046.20686	0.61382
2044.27830	0.61331
2042.34973	0.61282
2040.42117	0.61224
2038.49260	0.61158
2036.56404	0.61101
2034.63547	0.61054
2032.70691	0.60999
2030.77834	0.60923
2028.84978	0.60824
2026.92122	0.60710
2024.99265	0.60598
2023.06409	0.60498
2021.13552	0.60394
2019.20696	0.60262
2017.27839	0.60106
2015.34983	0.59954
2013.42126	0.59815
2011.49270	0.59678
2009.56414	0.59538
2007.63557	0.59391
2005.70701	0.59246
2003.77844	0.59107
2001.84988	0.58968
1999.92131	0.58835
1997.99275	0.58719
1996.06418	0.58637
1994.13562	0.58574
1992.20706	0.58482
1990.27849	0.58374
1988.34993	0.58298
1986.42136	0.58244
1984.49280	0.58177
1982.56423	0.58095
1980.63567	0.58035
1978.70710	0.58010
1976.77854	0.57988
1974.84998	0.57928
1972.92141	0.57831
1970.99285	0.57748
1969.06428	0.57680
1967.13572	0.57573
1965.20715	0.57438
1963.27859	0.57315
1961.35002	0.57196
1959.42146	0.57075
1957.49290	0.56958
1955.56433	0.56835
1953.63577	0.56700
1951.70720	0.56566
1949.77864	0.56451
1947.85007	0.56353
1945.92151	0.56261
1943.99294	0.56149
1942.06438	0.56023
1940.13582	0.55952
1938.20725	0.55936
1936.27869	0.55918
1934.35012	0.55880
1932.42156	0.55847
1930.49299	0.55835
1928.56443	0.55828
1926.63586	0.55826
1924.70730	0.55839
1922.77874	0.55848
1920.85017	0.55855
1918.92161	0.55843
1916.99304	0.55796
1915.06448	0.55780
1913.13591	0.55806
1911.20735	0.55819
1909.27878	0.55783
1907.35022	0.55711
1905.42166	0.55649
1903.49309	0.55607
1901.56453	0.55559
1899.63596	0.55498
1897.70740	0.55430
1895.77883	0.55356
1893.85027	0.55299
1891.92171	0.55253
1889.99314	0.55159
1888.06458	0.55044
1886.13601	0.54976
1884.20745	0.54915
1882.27888	0.54847
1880.35032	0.54778
1878.42175	0.54683
1876.49319	0.54575
1874.56463	0.54481
1872.63606	0.54419
1870.70750	0.54341
1868.77893	0.54159
1866.85037	0.53971
1864.92180	0.53889
1862.99324	0.53834
1861.06467	0.53750
1859.13611	0.53644
1857.20755	0.53538
1855.27898	0.53442
1853.35042	0.53348
1851.42185	0.53263
1849.49329	0.53200
1847.56472	0.53150
1845.63616	0.53055
1843.70759	0.52869
1841.77903	0.52755
1839.85047	0.52734
1837.92190	0.52704
1835.99334	0.52651
1834.06477	0.52614
1832.13621	0.52578
1830.20764	0.52488
1828.27908	0.52425
1826.35051	0.52436
1824.42195	0.52426
1822.49339	0.52408
1820.56482	0.52410
1818.63626	0.52398
1816.70769	0.52354
1814.77913	0.52307
1812.85056	0.52263
1810.92200	0.52198
1808.99343	0.52131
1807.06487	0.52086
1805.13631	0.52070
1803.20774	0.52046
1801.27918	0.51971
1799.35061	0.51880
1797.42205	0.51861
1795.49348	0.51903
1793.56492	0.51891
1791.63635	0.51773
1789.70779	0.51721
1787.77923	0.51773
1785.85066	0.51824
1783.92210	0.51871
1781.99353	0.51948
1780.06497	0.52023
1778.13640	0.52120
1776.20784	0.52257
1774.27927	0.52396
1772.35071	0.52490
1770.42215	0.52617
1768.49358	0.52808
1766.56502	0.52999
1764.63645	0.53194
1762.70789	0.53413
1760.77932	0.53684
1758.85076	0.54031
1756.92220	0.54511
1754.99363	0.55097
1753.06507	0.55748
1751.13650	0.56589
1749.20794	0.57644
1747.27937	0.58679
1745.35081	0.59581
1743.42224	0.60362
1741.49368	0.61019
1739.56512	0.61538
1737.63655	0.61908
1735.70799	0.62134
1733.77942	0.62205
1731.85086	0.62235
1729.92229	0.62358
1727.99373	0.62559
1726.06516	0.62850
1724.13660	0.63280
1722.20804	0.63805
1720.27947	0.64386
1718.35091	0.65216
1716.42234	0.66493
1714.49378	0.67821
1712.56521	0.69164
1710.63665	0.70778
1708.70808	0.72762
1706.77952	0.75627
1704.85096	0.79550
1702.92239	0.83386
1700.99383	0.88584
1699.06526	0.96633
1697.13670	1.04075
1695.20813	1.11097
1693.27957	1.16413
1691.35100	1.20538
1689.42244	1.25313
1687.49388	1.29723
1685.56531	1.33915
1683.63675	1.39587
1681.70818	1.43340
1679.77962	1.45358
1677.85105	1.47271
1675.92249	1.49235
1673.99392	1.50855
1672.06536	1.51879
1670.13680	1.52816
1668.20823	1.54124
1666.27967	1.55075
1664.35110	1.55732
1662.42254	1.56071
1660.49397	1.55971
1658.56541	1.55993
1656.63684	1.56099
1654.70828	1.55904
1652.77972	1.54922
1650.85115	1.54693
1648.92259	1.54873
1646.99402	1.54598
1645.06546	1.54033
1643.13689	1.53553
1641.20833	1.53213
1639.27976	1.52982
1637.35120	1.52658
1635.42264	1.51912
1633.49407	1.51469
1631.56551	1.51406
1629.63694	1.51185
1627.70838	1.50767
1625.77981	1.50168
1623.85125	1.49186
1621.92269	1.48042
1619.99412	1.47231
1618.06556	1.46127
1616.13699	1.43903
1614.20843	1.41849
1612.27986	1.40205
1610.35130	1.38395
1608.42273	1.36463
1606.49417	1.34710
1604.56561	1.33236
1602.63704	1.31974
1600.70848	1.31017
1598.77991	1.30412
1596.85135	1.30060
1594.92278	1.29786
1592.99422	1.29567
1591.06565	1.29588
1589.13709	1.29949
1587.20853	1.30608
1585.27996	1.31390
1583.35140	1.32215
1581.42283	1.33082
1579.49427	1.33939
1577.56570	1.34945
1575.63714	1.36285
1573.70857	1.37342
1571.78001	1.38145
1569.85145	1.39275
1567.92288	1.40544
1565.99432	1.41563
1564.06575	1.42534
1562.13719	1.43331
1560.20862	1.44062
1558.28006	1.44933
1556.35149	1.45387
1554.42293	1.45755
1552.49437	1.46048
1550.56580	1.46166
1548.63724	1.46184
1546.70867	1.46263
1544.78011	1.46249
1542.85154	1.45879
1540.92298	1.45102
1538.99441	1.44430
1537.06585	1.44285
1535.13729	1.44096
1533.20872	1.43683
1531.28016	1.43299
1529.35159	1.43020
1527.42303	1.42573
1525.49446	1.41929
1523.56590	1.41497
1521.63733	1.41386
1519.70877	1.41385
1517.78021	1.41030
1515.85164	1.40305
1513.92308	1.39508
1511.99451	1.38609
1510.06595	1.37674
1508.13738	1.36097
1506.20882	1.32631
1504.28025	1.30396
1502.35169	1.28976
1500.42313	1.27279
1498.49456	1.24815
1496.56600	1.21662
1494.63743	1.19276
1492.70887	1.17693
1490.78030	1.15620
1488.85174	1.12621
1486.92317	1.10312
1484.99461	1.08928
1483.06605	1.07933
1481.13748	1.07202
1479.20892	1.06876
1477.28035	1.07078
1475.35179	1.07902
1473.42322	1.09507
1471.49466	1.11273
1469.56610	1.12375
1467.63753	1.13225
1465.70897	1.14203
1463.78040	1.15184
1461.85184	1.15822
1459.92327	1.16244
1457.99471	1.16872
1456.06614	1.17757
1454.13758	1.18129
1452.20902	1.18166
1450.28045	1.18053
1448.35189	1.17786
1446.42332	1.17418
1444.49476	1.17054
1442.56619	1.16658
1440.63763	1.16223
1438.70906	1.15605
1436.78050	1.14420
1434.85194	1.13130
1432.92337	1.12261
1430.99481	1.11347
1429.06624	1.10339
1427.13768	1.09653
1425.20911	1.09268
1423.28055	1.09051
1421.35198	1.09010
1419.42342	1.09066
1417.49486	1.09102
1415.56629	1.09086
1413.63773	1.08998
1411.70916	1.08872
1409.78060	1.08825
1407.85203	1.08889
1405.92347	1.09022
1403.99490	1.09153
1402.06634	1.09220
1400.13778	1.09248
1398.20921	1.09283
1396.28065	1.09335
1394.35208	1.09384
1392.42352	1.09501
1390.49495	1.09774
1388.56639	1.10356
1386.63782	1.11361
1384.70926	1.12507
1382.78070	1.13580
1380.85213	1.14430
1378.92357	1.14797
1376.99500	1.14587
1375.06644	1.13726
1373.13787	1.12302
1371.20931	1.10727
1369.28074	1.08926
1367.35218	1.06906
1365.42362	1.05015
1363.49505	1.03146
1361.56649	1.01375
1359.63792	1.00110
1357.70936	0.99229
1355.78079	0.98550
1353.85223	0.98024
1351.92366	0.97584
1349.99510	0.97208
1348.06654	0.96912
1346.13797	0.96695
1344.20941	0.96559
1342.28084	0.96466
1340.35228	0.96386
1338.42371	0.96422
1336.49515	0.96708
1334.56659	0.97249
1332.63802	0.97997
1330.70946	0.98859
1328.78089	0.99659
1326.85233	1.00233
1324.92376	1.00584
1322.99520	1.00875
1321.06663	1.01213
1319.13807	1.01562
1317.20951	1.01878
1315.28094	1.02184
1313.35238	1.02498
1311.42381	1.02773
1309.49525	1.02951
1307.56668	1.02963
1305.63812	1.02795
1303.70955	1.02559
1301.78099	1.02314
1299.85243	1.02001
1297.92386	1.01534
1295.99530	1.00961
1294.06673	1.00473
1292.13817	1.00173
1290.20960	1.00014
1288.28104	0.99936
1286.35247	0.99906
1284.42391	0.99873
1282.49535	0.99810
1280.56678	0.99759
1278.63822	0.99770
1276.70965	0.99906
1274.78109	1.00225
1272.85252	1.00713
1270.92396	1.01301
1268.99539	1.01976
1267.06683	1.02706
1265.13827	1.03344
1263.20970	1.03777
1261.28114	1.04011
1259.35257	1.04105
1257.42401	1.04158
1255.49544	1.04248
1253.56688	1.04382
1251.63831	1.04511
1249.70975	1.04579
1247.78119	1.04580
1245.85262	1.04550
1243.92406	1.04505
1241.99549	1.04425
1240.06693	1.04227
1238.13836	1.03855
1236.20980	1.03372
1234.28123	1.02847
1232.35267	1.02257
1230.42411	1.01509
1228.49554	1.00588
1226.56698	0.99588
1224.63841	0.98565
1222.70985	0.97528
1220.78128	0.96502
1218.85272	0.95559
1216.92415	0.94774
1214.99559	0.94169
1213.06703	0.93793
1211.13846	0.93681
1209.20990	0.93700
1207.28133	0.93590
1205.35277	0.93140
1203.42420	0.92318
1201.49564	0.91287
1199.56708	0.90175
1197.63851	0.88991
1195.70995	0.87818
1193.78138	0.86816
1191.85282	0.86051
1189.92425	0.85462
1187.99569	0.84996
1186.06712	0.84663
1184.13856	0.84477
1182.21000	0.84480
1180.28143	0.84727
1178.35287	0.85248
1176.42430	0.86046
1174.49574	0.87071
1172.56717	0.88246
1170.63861	0.89581
1168.71004	0.91119
1166.78148	0.92806
1164.85292	0.94494
1162.92435	0.95939
1160.99579	0.96842
1159.06722	0.97022
1157.13866	0.96515
1155.21009	0.95474
1153.28153	0.94046
1151.35296	0.92416
1149.42440	0.90772
1147.49584	0.89233
1145.56727	0.87966
1143.63871	0.87149
1141.71014	0.86821
1139.78158	0.86886
1137.85301	0.87241
1135.92445	0.87888
1133.99588	0.88902
1132.06732	0.90298
1130.13876	0.91999
1128.21019	0.93924
1126.28163	0.95985
1124.35306	0.97987
1122.42450	0.99646
1120.49593	1.00837
1118.56737	1.01617
1116.63880	1.01981
1114.71024	1.01901
1112.78168	1.01511
1110.85311	1.01028
1108.92455	1.00554
1106.99598	1.00134
1105.06742	0.99887
1103.13885	0.99857
1101.21029	1.00065
1099.28172	1.00658
1097.35316	1.01665
1095.42460	1.02944
1093.49603	1.04487
1091.56747	1.06371
1089.63890	1.08469
1087.71034	1.10529
1085.78177	1.12428
1083.85321	1.14074
1081.92464	1.15324
1079.99608	1.16107
1078.06752	1.16363
1076.13895	1.16012
1074.21039	1.15167
1072.28182	1.14022
1070.35326	1.12651
1068.42469	1.11191
1066.49613	1.09832
1064.56756	1.08514
1062.63900	1.07100
1060.71044	1.05638
1058.78187	1.04249
1056.85331	1.03056
1054.92474	1.02097
1052.99618	1.01341
1051.06761	1.00807
1049.13905	1.00565
1047.21049	1.00738
1045.28192	1.01337
1043.35336	1.02177
1041.42479	1.03123
1039.49623	1.04100
1037.56766	1.04924
1035.63910	1.05388
1033.71053	1.05409
1031.78197	1.05066
1029.85341	1.04461
1027.92484	1.03540
1025.99628	1.02332
1024.06771	1.01094
1022.13915	0.99915
1020.21058	0.98697
1018.28202	0.97476
1016.35345	0.96262
1014.42489	0.94849
1012.49633	0.93069
1010.56776	0.90952
1008.63920	0.88612
1006.71063	0.86208
1004.78207	0.83945
1002.85350	0.81978
1000.92494	0.80369
998.99637	0.79107
997.06781	0.78141
995.13925	0.77399
993.21068	0.76780
991.28212	0.76171
989.35355	0.75538
987.42499	0.74935
985.49642	0.74455
983.56786	0.74160
981.63929	0.74015
979.71073	0.73957
977.78217	0.73887
975.85360	0.73655
973.92504	0.73145
971.99647	0.72321
970.06791	0.71252
968.13934	0.70111
966.21078	0.69040
964.28221	0.68155
962.35365	0.67659
960.42509	0.67757
958.49652	0.68412
956.56796	0.69186
954.63939	0.69478
952.71083	0.69011
950.78226	0.67956
948.85370	0.66673
946.92513	0.65524
944.99657	0.64742
943.06801	0.64341
941.13944	0.64202
939.21088	0.64243
937.28231	0.64455
935.35375	0.64833
933.42518	0.65348
931.49662	0.65975
929.56805	0.66686
927.63949	0.67466
925.71093	0.68336
923.78236	0.69284
921.85380	0.70184
919.92523	0.70889
917.99667	0.71375
916.06810	0.71753
914.13954	0.72152
912.21098	0.72594
910.28241	0.73029
908.35385	0.73448
906.42528	0.73894
904.49672	0.74389
902.56815	0.74877
900.63959	0.75266
898.71102	0.75492
896.78246	0.75545
894.85390	0.75471
892.92533	0.75342
890.99677	0.75199
889.06820	0.75067
887.13964	0.75025
885.21107	0.75117
883.28251	0.75319
881.35394	0.75628
879.42538	0.76014
877.49682	0.76426
875.56825	0.76840
873.63969	0.77246
871.71112	0.77652
869.78256	0.78045
867.85399	0.78366
865.92543	0.78618
863.99686	0.78833
862.06830	0.78996
860.13974	0.79143
858.21117	0.79354
856.28261	0.79621
854.35404	0.79850
852.42548	0.79967
850.49691	0.79996
848.56835	0.79987
846.63978	0.79961
844.71122	0.79948
842.78266	0.79967
840.85409	0.80018
838.92553	0.80116
836.99696	0.80256
835.06840	0.80420
833.13983	0.80624
831.21127	0.80867
829.28270	0.81089
827.35414	0.81255
825.42558	0.81421
823.49701	0.81620
821.56845	0.81802
819.63988	0.81962
817.71132	0.82145
815.78275	0.82330
813.85419	0.82481
811.92562	0.82607
809.99706	0.82702
808.06850	0.82699
806.13993	0.82579
804.21137	0.82448
802.28280	0.82354
800.35424	0.82247
798.42567	0.82110
796.49711	0.81975
794.56854	0.81915
792.63998	0.81996
790.71142	0.82200
788.78285	0.82475
786.85429	0.82800
784.92572	0.83170
782.99716	0.83568
781.06859	0.84018
779.14003	0.84554
777.21147	0.85168
775.28290	0.85852
773.35434	0.86590
771.42577	0.87381
769.49721	0.88274
767.56864	0.89273
765.64008	0.90306
763.71151	0.91324
761.78295	0.92303
759.85439	0.93230
757.92582	0.94108
755.99726	0.94937
754.06869	0.95717
752.14013	0.96383
750.21156	0.96922
748.28300	0.97444
746.35443	0.97916
744.42587	0.98209
742.49731	0.98329
740.56874	0.98368
738.64018	0.98418
736.71161	0.98539
734.78305	0.98796
732.85448	0.99222
730.92592	0.99718
728.99735	1.00155
727.06879	1.00565
725.14023	1.01057
723.21166	1.01632
721.28310	1.02229
719.35453	1.02785
717.42597	1.03184
715.49740	1.03406
713.56884	1.03618
711.64027	1.03976
709.71171	1.04417
707.78315	1.04739
705.85458	1.04880
703.92602	1.04962
701.99745	1.05070
700.06889	1.05204
698.14032	1.05304
696.21176	1.05253
694.28319	1.05063
692.35463	1.04879
690.42607	1.04752
688.49750	1.04655
686.56894	1.04626
684.64037	1.04658
682.71181	1.04752
680.78324	1.05021
678.85468	1.05453
676.92611	1.05971
674.99755	1.06528
673.06899	1.06984
671.14042	1.07378
669.21186	1.07995
667.28329	1.08672
665.35473	1.09008
663.42616	1.09268
661.49760	1.09397
659.56903	1.09262
657.64047	1.08904
655.71191	1.08351
653.78334	1.07671
651.85478	1.06952
649.92621	1.06315
647.99765	1.05883
646.06908	1.05568
644.14052	1.05209
642.21195	1.04909
640.28339	1.04842
638.35483	1.04783
636.42626	1.04536
634.49770	1.04391
632.56913	1.04514
630.64057	1.04810
628.71200	1.05243
626.78344	1.05702
624.85488	1.06118
622.92631	1.06630
620.99775	1.07317
619.06918	1.08027
617.14062	1.08645
615.21205	1.09168
613.28349	1.09582
611.35492	1.09948
609.42636	1.10328
607.49780	1.10532
605.56923	1.10457
603.64067	1.10496
601.71210	1.10901
599.78354	1.11361
