3997.91406	0.94682
3995.98550	0.94717
3994.05693	0.94520
3992.12837	0.94190
3990.19980	0.94072
3988.27124	0.94171
3986.34268	0.94192
3984.41411	0.94126
3982.48555	0.94142
3980.55698	0.94224
3978.62842	0.94361
3976.69985	0.94475
3974.77129	0.94331
3972.84272	0.94005
3970.91416	0.93776
3968.98560	0.93681
3967.05703	0.93755
3965.12847	0.94026
3963.19990	0.94277
3961.27134	0.94313
3959.34277	0.94140
3957.41421	0.93775
3955.48564	0.93393
3953.55708	0.93316
3951.62852	0.93551
3949.69995	0.93763
3947.77139	0.93810
3945.84282	0.93875
3943.91426	0.93843
3941.98569	0.93555
3940.05713	0.93346
3938.12856	0.93337
3936.20000	0.93374
3934.27144	0.93403
3932.34287	0.93360
3930.41431	0.93290
3928.48574	0.93392
3926.55718	0.93563
3924.62861	0.93548
3922.70005	0.93484
3920.77148	0.93600
3918.84292	0.93641
3916.91436	0.93356
3914.98579	0.93087
3913.05723	0.93051
3911.12866	0.93083
3909.20010	0.93241
3907.27153	0.93636
3905.34297	0.94040
3903.41440	0.94092
3901.48584	0.93641
3899.55728	0.92864
3897.62871	0.92528
3895.70015	0.92922
3893.77158	0.93369
3891.84302	0.93145
3889.91445	0.92849
3887.98589	0.92959
3886.05733	0.92757
3884.12876	0.92348
3882.20020	0.92292
3880.27163	0.92161
3878.34307	0.92189
3876.41450	0.92469
3874.48594	0.92513
3872.55737	0.92354
3870.62881	0.92174
3868.70025	0.92214
3866.77168	0.92558
3864.84312	0.92441
3862.91455	0.91870
3860.98599	0.91904
3859.05742	0.92426
3857.12886	0.92986
3855.20029	0.93149
3853.27173	0.91982
3851.34317	0.91135
3849.41460	0.91405
3847.48604	0.91811
3845.55747	0.92029
3843.62891	0.92080
3841.70034	0.92177
3839.77178	0.92197
3837.84321	0.91780
3835.91465	0.91470
3833.98609	0.91529
3832.05752	0.91679
3830.12896	0.91837
3828.20039	0.91892
3826.27183	0.91863
3824.34326	0.92081
3822.41470	0.92165
3820.48613	0.91570
3818.55757	0.91418
3816.62901	0.91465
3814.70044	0.91210
3812.77188	0.91248
3810.84331	0.91519
3808.91475	0.91732
3806.98618	0.91839
3805.05762	0.92188
3803.12905	0.92522
3801.20049	0.92155
3799.27193	0.91869
3797.34336	0.91894
3795.41480	0.91776
3793.48623	0.91759
3791.55767	0.91872
3789.62910	0.91982
3787.70054	0.92123
3785.77197	0.92214
3783.84341	0.92224
3781.91485	0.92263
3779.98628	0.92014
3778.05772	0.91492
3776.12915	0.91372
3774.20059	0.91596
3772.27202	0.91718
3770.34346	0.91479
3768.41489	0.91191
3766.48633	0.91080
3764.55777	0.91134
3762.62920	0.91499
3760.70064	0.91807
3758.77207	0.91660
3756.84351	0.91511
3754.91494	0.91677
3752.98638	0.91901
3751.05781	0.91630
3749.12925	0.91157
3747.20069	0.91070
3745.27212	0.90783
3743.34356	0.90587
3741.41499	0.91105
3739.48643	0.91807
3737.55786	0.92138
3735.62930	0.91669
3733.70074	0.90796
3731.77217	0.90434
3729.84361	0.90578
3727.91504	0.90843
3725.98648	0.90924
3724.05791	0.90848
3722.12935	0.90729
3720.20078	0.90607
3718.27222	0.90630
3716.34366	0.90865
3714.41509	0.91173
3712.48653	0.91076
3710.55796	0.90616
3708.62940	0.90705
3706.70083	0.91025
3704.77227	0.91249
3702.84370	0.91324
3700.91514	0.91267
3698.98658	0.91214
3697.05801	0.91225
3695.12945	0.91469
3693.20088	0.92063
3691.27232	0.92546
3689.34375	0.92203
3687.41519	0.92007
3685.48662	0.92415
3683.55806	0.92787
3681.62950	0.93064
3679.70093	0.93613
3677.77237	0.94438
3675.84380	0.94718
3673.91524	0.94592
3671.98667	0.94818
3670.05811	0.94887
3668.12954	0.94961
3666.20098	0.95300
3664.27242	0.95719
3662.34385	0.96266
3660.41529	0.96920
3658.48672	0.97454
3656.55816	0.97774
3654.62959	0.98228
3652.70103	0.98979
3650.77246	0.99575
3648.84390	0.99482
3646.91534	0.99661
3644.98677	1.00185
3643.05821	1.00635
3641.12964	1.01128
3639.20108	1.01741
3637.27251	1.02340
3635.34395	1.02943
3633.41538	1.03633
3631.48682	1.04226
3629.55826	1.04313
3627.62969	1.04302
3625.70113	1.04989
3623.77256	1.05816
3621.84400	1.06334
3619.91543	1.06398
3617.98687	1.06354
3616.05830	1.06730
3614.12974	1.07385
3612.20118	1.07946
3610.27261	1.08315
3608.34405	1.08725
3606.41548	1.09397
3604.48692	1.10271
3602.55835	1.11147
3600.62979	1.11891
3598.70123	1.12511
3596.77266	1.12932
3594.84410	1.13151
3592.91553	1.13517
3590.98697	1.14201
3589.05840	1.15006
3587.12984	1.15629
3585.20127	1.16233
3583.27271	1.17052
3581.34415	1.17843
3579.41558	1.18255
3577.48702	1.18312
3575.55845	1.18581
3573.62989	1.19393
3571.70132	1.20384
3569.77276	1.21138
3567.84419	1.21712
3565.91563	1.22329
3563.98707	1.23003
3562.05850	1.23685
3560.12994	1.24193
3558.20137	1.24586
3556.27281	1.25215
3554.34424	1.26151
3552.41568	1.27015
3550.48711	1.27555
3548.55855	1.28122
3546.62999	1.28822
3544.70142	1.29304
3542.77286	1.29665
3540.84429	1.30316
3538.91573	1.31173
3536.98716	1.31855
3535.05860	1.32325
3533.13003	1.32706
3531.20147	1.32906
3529.27291	1.32920
3527.34434	1.33262
3525.41578	1.34330
3523.48721	1.35524
3521.55865	1.36318
3519.63008	1.37072
3517.70152	1.37957
3515.77295	1.38660
3513.84439	1.39196
3511.91583	1.39927
3509.98726	1.40773
3508.05870	1.41341
3506.13013	1.41816
3504.20157	1.42657
3502.27300	1.43931
3500.34444	1.45061
3498.41587	1.45522
3496.48731	1.45701
3494.55875	1.46221
3492.63018	1.46932
3490.70162	1.47445
3488.77305	1.47891
3486.84449	1.48718
3484.91592	1.49633
3482.98736	1.50041
3481.05879	1.50154
3479.13023	1.50191
3477.20167	1.50020
3475.27310	1.49931
3473.34454	1.50329
3471.41597	1.51080
3469.48741	1.51847
3467.55884	1.52361
3465.63028	1.52664
3463.70171	1.53281
3461.77315	1.54266
3459.84459	1.54934
3457.91602	1.55045
3455.98746	1.55145
3454.05889	1.55684
3452.13033	1.56485
3450.20176	1.57000
3448.27320	1.56833
3446.34464	1.56329
3444.41607	1.56274
3442.48751	1.56764
3440.55894	1.57394
3438.63038	1.58093
3436.70181	1.58788
3434.77325	1.59108
3432.84468	1.59207
3430.91612	1.59246
3428.98756	1.58792
3427.05899	1.58054
3425.13043	1.57906
3423.20186	1.58567
3421.27330	1.59281
3419.34473	1.59225
3417.41617	1.58726
3415.48760	1.58527
3413.55904	1.58739
3411.63048	1.59239
3409.70191	1.59718
3407.77335	1.59815
3405.84478	1.59620
3403.91622	1.59355
3401.98765	1.59228
3400.05909	1.59267
3398.13052	1.59239
3396.20196	1.58973
3394.27340	1.58487
3392.34483	1.58153
3390.41627	1.58242
3388.48770	1.58467
3386.55914	1.58344
3384.63057	1.58007
3382.70201	1.58302
3380.77344	1.59210
3378.84488	1.59920
3376.91632	1.60126
3374.98775	1.59877
3373.05919	1.59646
3371.13062	1.59943
3369.20206	1.60406
3367.27349	1.60546
3365.34493	1.60654
3363.41636	1.61049
3361.48780	1.61283
3359.55924	1.61154
3357.63067	1.61077
3355.70211	1.61148
3353.77354	1.61395
3351.84498	1.61842
3349.91641	1.62268
3347.98785	1.62471
3346.05928	1.62358
3344.13072	1.62196
3342.20216	1.62064
3340.27359	1.61659
3338.34503	1.61357
3336.41646	1.61631
3334.48790	1.62159
3332.55933	1.62872
3330.63077	1.63926
3328.70220	1.64562
3326.77364	1.64201
3324.84508	1.63683
3322.91651	1.63917
3320.98795	1.64795
3319.05938	1.65663
3317.13082	1.66140
3315.20225	1.66361
3313.27369	1.66445
3311.34513	1.66462
3309.41656	1.66602
3307.48800	1.66821
3305.55943	1.67056
3303.63087	1.67504
3301.70230	1.68184
3299.77374	1.68738
3297.84517	1.68911
3295.91661	1.69062
3293.98805	1.69508
3292.05948	1.69816
3290.13092	1.69454
3288.20235	1.68852
3286.27379	1.68882
3284.34522	1.69363
3282.41666	1.69497
3280.48809	1.69297
3278.55953	1.68996
3276.63097	1.68610
3274.70240	1.68496
3272.77384	1.68568
3270.84527	1.67936
3268.91671	1.66746
3266.98814	1.66353
3265.05958	1.66803
3263.13101	1.66747
3261.20245	1.65872
3259.27389	1.64895
3257.34532	1.64174
3255.41676	1.63518
3253.48819	1.62837
3251.55963	1.62403
3249.63106	1.62068
3247.70250	1.61404
3245.77393	1.60295
3243.84537	1.59008
3241.91681	1.58040
3239.98824	1.57530
3238.05968	1.57222
3236.13111	1.56855
3234.20255	1.56369
3232.27398	1.55760
3230.34542	1.55117
3228.41685	1.54679
3226.48829	1.54366
3224.55973	1.54009
3222.63116	1.53577
3220.70260	1.53092
3218.77403	1.52747
3216.84547	1.52484
3214.91690	1.52089
3212.98834	1.51628
3211.05977	1.51114
3209.13121	1.50255
3207.20265	1.49089
3205.27408	1.48333
3203.34552	1.48202
3201.41695	1.48028
3199.48839	1.47507
3197.55982	1.46829
3195.63126	1.46089
3193.70269	1.45449
3191.77413	1.45061
3189.84557	1.44727
3187.91700	1.44173
3185.98844	1.43700
3184.05987	1.43668
3182.13131	1.43628
3180.20274	1.43098
3178.27418	1.42321
3176.34562	1.41784
3174.41705	1.41496
3172.48849	1.41043
3170.55992	1.40508
3168.63136	1.40272
3166.70279	1.40130
3164.77423	1.39906
3162.84566	1.39803
3160.91710	1.39633
3158.98854	1.39269
3157.05997	1.39033
3155.13141	1.38767
3153.20284	1.38189
3151.27428	1.37615
3149.34571	1.37164
3147.41715	1.36720
3145.48858	1.36528
3143.56002	1.36651
3141.63146	1.36756
3139.70289	1.36728
3137.77433	1.36529
3135.84576	1.36046
3133.91720	1.35646
3131.98863	1.35734
3130.06007	1.35897
3128.13150	1.35619
3126.20294	1.35183
3124.27438	1.35092
3122.34581	1.35393
3120.41725	1.35712
3118.48868	1.35659
3116.56012	1.35515
3114.63155	1.35742
3112.70299	1.36037
3110.77442	1.35982
3108.84586	1.35751
3106.91730	1.35627
3104.98873	1.35614
3103.06017	1.35568
3101.13160	1.35451
3099.20304	1.35506
3097.27447	1.35695
3095.34591	1.35503
3093.41734	1.34921
3091.48878	1.34499
3089.56022	1.34386
3087.63165	1.34322
3085.70309	1.34112
3083.77452	1.33665
3081.84596	1.33020
3079.91739	1.32489
3077.98883	1.32233
3076.06026	1.32057
3074.13170	1.31708
3072.20314	1.31193
3070.27457	1.30815
3068.34601	1.30727
3066.41744	1.30746
3064.48888	1.30550
3062.56031	1.30167
3060.63175	1.29937
3058.70318	1.29730
3056.77462	1.29292
3054.84606	1.28857
3052.91749	1.28626
3050.98893	1.28440
3049.06036	1.28101
3047.13180	1.27692
3045.20323	1.27303
3043.27467	1.26882
3041.34610	1.26540
3039.41754	1.26354
3037.48898	1.26160
3035.56041	1.25851
3033.63185	1.25501
3031.70328	1.25263
3029.77472	1.25177
3027.84615	1.25016
3025.91759	1.24614
3023.98903	1.24134
3022.06046	1.23711
3020.13190	1.23330
3018.20333	1.23110
3016.27477	1.23051
3014.34620	1.22856
3012.41764	1.22514
3010.48907	1.22338
3008.56051	1.22276
3006.63195	1.22012
3004.70338	1.21550
3002.77482	1.21219
3000.84625	1.21257
2998.91769	1.21552
2996.98912	1.21819
2995.06056	1.22002
2993.13199	1.22192
2991.20343	1.22414
2989.27487	1.22760
2987.34630	1.23278
2985.41774	1.23812
2983.48917	1.24312
2981.56061	1.24903
2979.63204	1.25603
2977.70348	1.26279
2975.77491	1.26889
2973.84635	1.27479
2971.91779	1.28059
2969.98922	1.28683
2968.06066	1.29313
2966.13209	1.29817
2964.20353	1.30223
2962.27496	1.30533
2960.34640	1.30569
2958.41783	1.30303
2956.48927	1.29879
2954.56071	1.29298
2952.63214	1.28591
2950.70358	1.28075
2948.77501	1.28004
2946.84645	1.28225
2944.91788	1.28463
2942.98932	1.28820
2941.06075	1.29551
2939.13219	1.30535
2937.20363	1.31494
2935.27506	1.32397
2933.34650	1.33337
2931.41793	1.34309
2929.48937	1.35220
2927.56080	1.35981
2925.63224	1.36495
2923.70367	1.36760
2921.77511	1.36866
2919.84655	1.36772
2917.91798	1.36334
2915.98942	1.35345
2914.06085	1.33705
2912.13229	1.31659
2910.20372	1.29696
2908.27516	1.28193
2906.34659	1.27194
2904.41803	1.26575
2902.48947	1.26158
2900.56090	1.25683
2898.63234	1.25085
2896.70377	1.24586
2894.77521	1.24349
2892.84664	1.24220
2890.91808	1.23895
2888.98952	1.23373
2887.06095	1.22995
2885.13239	1.22911
2883.20382	1.22939
2881.27526	1.22909
2879.34669	1.22855
2877.41813	1.22859
2875.48956	1.22836
2873.56100	1.22563
2871.63244	1.21917
2869.70387	1.21073
2867.77531	1.20312
2865.84674	1.19677
2863.91818	1.19184
2861.98961	1.18950
2860.06105	1.18998
2858.13248	1.19312
2856.20392	1.19935
2854.27536	1.20845
2852.34679	1.21790
2850.41823	1.22141
2848.48966	1.21103
2846.56110	1.18691
2844.63253	1.16003
2842.70397	1.13936
2840.77540	1.12455
2838.84684	1.11275
2836.91828	1.10426
2834.98971	1.09910
2833.06115	1.09470
2831.13258	1.08963
2829.20402	1.08483
2827.27545	1.08076
2825.34689	1.07707
2823.41832	1.07364
2821.48976	1.07085
2819.56120	1.06879
2817.63263	1.06625
2815.70407	1.06205
2813.77550	1.05665
2811.84694	1.05178
2809.91837	1.04848
2807.98981	1.04598
2806.06124	1.04327
2804.13268	1.03976
2802.20412	1.03578
2800.27555	1.03292
2798.34699	1.03159
2796.41842	1.03015
2794.48986	1.02763
2792.56129	1.02530
2790.63273	1.02397
2788.70416	1.02273
2786.77560	1.02093
2784.84704	1.01923
2782.91847	1.01805
2780.98991	1.01648
2779.06134	1.01462
2777.13278	1.01348
2775.20421	1.01276
2773.27565	1.01114
2771.34708	1.00858
2769.41852	1.00670
2767.48996	1.00554
2765.56139	1.00374
2763.63283	1.00143
2761.70426	0.99921
2759.77570	0.99679
2757.84713	0.99404
2755.91857	0.99186
2753.99001	0.99044
2752.06144	0.98876
2750.13288	0.98649
2748.20431	0.98414
2746.27575	0.98201
2744.34718	0.98006
2742.41862	0.97833
2740.49005	0.97671
2738.56149	0.97497
2736.63293	0.97324
2734.70436	0.97191
2732.77580	0.97092
2730.84723	0.96974
2728.91867	0.96816
2726.99010	0.96656
2725.06154	0.96515
2723.13297	0.96373
2721.20441	0.96262
2719.27585	0.96202
2717.34728	0.96072
2715.41872	0.95832
2713.49015	0.95648
2711.56159	0.95574
2709.63302	0.95509
2707.70446	0.95394
2705.77589	0.95205
2703.84733	0.94967
2701.91877	0.94785
2699.99020	0.94717
2698.06164	0.94678
2696.13307	0.94600
2694.20451	0.94524
2692.27594	0.94426
2690.34738	0.94234
2688.41881	0.93979
2686.49025	0.93780
2684.56169	0.93709
2682.63312	0.93683
2680.70456	0.93604
2678.77599	0.93485
2676.84743	0.93344
2674.91886	0.93211
2672.99030	0.93120
2671.06173	0.93025
2669.13317	0.92905
2667.20461	0.92811
2665.27604	0.92732
2663.34748	0.92641
2661.41891	0.92546
2659.49035	0.92453
2657.56178	0.92383
2655.63322	0.92333
2653.70465	0.92250
2651.77609	0.92153
2649.84753	0.92126
2647.91896	0.92160
2645.99040	0.92175
2644.06183	0.92158
2642.13327	0.92117
2640.20470	0.92014
2638.27614	0.91835
2636.34757	0.91639
2634.41901	0.91490
2632.49045	0.91402
2630.56188	0.91348
2628.63332	0.91270
2626.70475	0.91133
2624.77619	0.90951
2622.84762	0.90762
2620.91906	0.90609
2618.99049	0.90491
2617.06193	0.90368
2615.13337	0.90229
2613.20480	0.90093
2611.27624	0.89983
2609.34767	0.89915
2607.41911	0.89874
2605.49054	0.89795
2603.56198	0.89639
2601.63342	0.89479
2599.70485	0.89406
2597.77629	0.89408
2595.84772	0.89409
2593.91916	0.89344
2591.99059	0.89203
2590.06203	0.89044
2588.13346	0.88930
2586.20490	0.88846
2584.27634	0.88735
2582.34777	0.88617
2580.41921	0.88552
2578.49064	0.88500
2576.56208	0.88388
2574.63351	0.88259
2572.70495	0.88173
2570.77638	0.88084
2568.84782	0.87947
2566.91926	0.87804
2564.99069	0.87695
2563.06213	0.87607
2561.13356	0.87513
2559.20500	0.87427
2557.27643	0.87359
2555.34787	0.87291
2553.41930	0.87212
2551.49074	0.87126
2549.56218	0.87055
2547.63361	0.86991
2545.70505	0.86926
2543.77648	0.86890
2541.84792	0.86885
2539.91935	0.86906
2537.99079	0.86945
2536.06222	0.86926
2534.13366	0.86824
2532.20510	0.86725
2530.27653	0.86660
2528.34797	0.86598
2526.41940	0.86542
2524.49084	0.86494
2522.56227	0.86424
2520.63371	0.86344
2518.70514	0.86302
2516.77658	0.86265
2514.84802	0.86173
2512.91945	0.86022
2510.99089	0.85873
2509.06232	0.85789
2507.13376	0.85734
2505.20519	0.85619
2503.27663	0.85446
2501.34806	0.85277
2499.41950	0.85123
2497.49094	0.84974
2495.56237	0.84835
2493.63381	0.84684
2491.70524	0.84540
2489.77668	0.84436
2487.84811	0.84338
2485.91955	0.84212
2483.99098	0.84078
2482.06242	0.83969
2480.13386	0.83860
2478.20529	0.83701
2476.27673	0.83523
2474.34816	0.83387
2472.41960	0.83300
2470.49103	0.83239
2468.56247	0.83167
2466.63391	0.83056
2464.70534	0.82924
2462.77678	0.82813
2460.84821	0.82754
2458.91965	0.82739
2456.99108	0.82711
2455.06252	0.82644
2453.13395	0.82568
2451.20539	0.82488
2449.27683	0.82393
2447.34826	0.82309
2445.41970	0.82238
2443.49113	0.82170
2441.56257	0.82128
2439.63400	0.82092
2437.70544	0.82037
2435.77687	0.81987
2433.84831	0.81929
2431.91975	0.81869
2429.99118	0.81857
2428.06262	0.81863
2426.13405	0.81812
2424.20549	0.81698
2422.27692	0.81603
2420.34836	0.81593
2418.41979	0.81632
2416.49123	0.81652
2414.56267	0.81646
2412.63410	0.81624
2410.70554	0.81583
2408.77697	0.81535
2406.84841	0.81485
2404.91984	0.81438
2402.99128	0.81404
2401.06271	0.81365
2399.13415	0.81323
2397.20559	0.81275
2395.27702	0.81204
2393.34846	0.81140
2391.41989	0.81094
2389.49133	0.81030
2387.56276	0.80988
2385.63420	0.81030
2383.70563	0.81133
2381.77707	0.81212
2379.84851	0.81234
2377.91994	0.81235
2375.99138	0.81229
2374.06281	0.81226
2372.13425	0.81314
2370.20568	0.81563
2368.27712	0.81779
2366.34855	0.81504
2364.41999	0.80818
2362.49143	0.80502
2360.56286	0.80622
2358.63430	0.80638
2356.70573	0.80548
2354.77717	0.80418
2352.84860	0.80181
2350.92004	0.80090
2348.99147	0.80268
2347.06291	0.80510
2345.13435	0.80492
2343.20578	0.80173
2341.27722	0.79983
2339.34865	0.80063
2337.42009	0.80200
2335.49152	0.80294
2333.56296	0.80355
2331.63440	0.80310
2329.70583	0.80209
2327.77727	0.80160
2325.84870	0.80101
2323.92014	0.79982
2321.99157	0.79791
2320.06301	0.79539
2318.13444	0.79361
2316.20588	0.79327
2314.27732	0.79322
2312.34875	0.79239
2310.42019	0.79089
2308.49162	0.78910
2306.56306	0.78752
2304.63449	0.78628
2302.70593	0.78509
2300.77736	0.78420
2298.84880	0.78396
2296.92024	0.78377
2294.99167	0.78302
2293.06311	0.78201
2291.13454	0.78151
2289.20598	0.78160
2287.27741	0.78171
2285.34885	0.78178
2283.42028	0.78202
2281.49172	0.78231
2279.56316	0.78244
2277.63459	0.78225
2275.70603	0.78200
2273.77746	0.78218
2271.84890	0.78278
2269.92033	0.78332
2267.99177	0.78349
2266.06320	0.78327
2264.13464	0.78270
2262.20608	0.78197
2260.27751	0.78127
2258.34895	0.78053
2256.42038	0.77999
2254.49182	0.77997
2252.56325	0.77984
2250.63469	0.77908
2248.70612	0.77821
2246.77756	0.77765
2244.84900	0.77708
2242.92043	0.77628
2240.99187	0.77545
2239.06330	0.77487
2237.13474	0.77457
2235.20617	0.77450
2233.27761	0.77442
2231.34904	0.77422
2229.42048	0.77412
2227.49192	0.77402
2225.56335	0.77378
2223.63479	0.77355
2221.70622	0.77363
2219.77766	0.77397
2217.84909	0.77408
2215.92053	0.77391
2213.99196	0.77374
2212.06340	0.77359
2210.13484	0.77352
2208.20627	0.77347
2206.27771	0.77307
2204.34914	0.77230
2202.42058	0.77156
2200.49201	0.77107
2198.56345	0.77066
2196.63488	0.77029
2194.70632	0.76992
2192.77776	0.76941
2190.84919	0.76879
2188.92063	0.76810
2186.99206	0.76721
2185.06350	0.76612
2183.13493	0.76503
2181.20637	0.76411
2179.27781	0.76339
2177.34924	0.76280
2175.42068	0.76228
2173.49211	0.76172
2171.56355	0.76093
2169.63498	0.76004
2167.70642	0.75941
2165.77785	0.75899
2163.84929	0.75847
2161.92073	0.75780
2159.99216	0.75737
2158.06360	0.75734
2156.13503	0.75728
2154.20647	0.75695
2152.27790	0.75657
2150.34934	0.75635
2148.42077	0.75637
2146.49221	0.75638
2144.56365	0.75612
2142.63508	0.75598
2140.70652	0.75618
2138.77795	0.75638
2136.84939	0.75657
2134.92082	0.75677
2132.99226	0.75697
2131.06369	0.75722
2129.13513	0.75751
2127.20657	0.75770
2125.27800	0.75756
2123.34944	0.75717
2121.42087	0.75682
2119.49231	0.75649
2117.56374	0.75606
2115.63518	0.75556
2113.70661	0.75506
2111.77805	0.75449
2109.84949	0.75365
2107.92092	0.75264
2105.99236	0.75193
2104.06379	0.75161
2102.13523	0.75104
2100.20666	0.75017
2098.27810	0.74967
2096.34953	0.74957
2094.42097	0.74926
2092.49241	0.74866
2090.56384	0.74816
2088.63528	0.74773
2086.70671	0.74734
2084.77815	0.74693
2082.84958	0.74635
2080.92102	0.74577
2078.99245	0.74537
2077.06389	0.74502
2075.13533	0.74466
2073.20676	0.74432
2071.27820	0.74377
2069.34963	0.74303
2067.42107	0.74250
2065.49250	0.74191
2063.56394	0.74070
2061.63537	0.73915
2059.70681	0.73759
2057.77825	0.73593
2055.84968	0.73411
2053.92112	0.73225
2051.99255	0.73040
2050.06399	0.72857
2048.13542	0.72679
2046.20686	0.72493
2044.27830	0.72286
2042.34973	0.72068
2040.42117	0.71850
2038.49260	0.71643
2036.56404	0.71468
2034.63547	0.71315
2032.70691	0.71173
2030.77834	0.71049
2028.84978	0.70930
2026.92122	0.70804
2024.99265	0.70691
2023.06409	0.70613
2021.13552	0.70568
2019.20696	0.70547
2017.27839	0.70509
2015.34983	0.70434
2013.42126	0.70358
2011.49270	0.70308
2009.56414	0.70293
2007.63557	0.70281
2005.70701	0.70251
2003.77844	0.70228
2001.84988	0.70219
1999.92131	0.70203
1997.99275	0.70166
1996.06418	0.70130
1994.13562	0.70114
1992.20706	0.70074
1990.27849	0.69980
1988.34993	0.69865
1986.42136	0.69768
1984.49280	0.69700
1982.56423	0.69624
1980.63567	0.69520
1978.70710	0.69419
1976.77854	0.69328
1974.84998	0.69251
1972.92141	0.69205
1970.99285	0.69191
1969.06428	0.69174
1967.13572	0.69106
1965.20715	0.69016
1963.27859	0.68969
1961.35002	0.68956
1959.42146	0.68962
1957.49290	0.68985
1955.56433	0.68999
1953.63577	0.68993
1951.70720	0.68974
1949.77864	0.68954
1947.85007	0.68952
1945.92151	0.68963
1943.99294	0.68930
1942.06438	0.68803
1940.13582	0.68675
1938.20725	0.68606
1936.27869	0.68527
1934.35012	0.68401
1932.42156	0.68241
1930.49299	0.68059
1928.56443	0.67867
1926.63586	0.67700
1924.70730	0.67546
1922.77874	0.67349
1920.85017	0.67146
1918.92161	0.66918
1916.99304	0.66613
1915.06448	0.66356
1913.13591	0.66191
1911.20735	0.66047
1909.27878	0.65877
1907.35022	0.65680
1905.42166	0.65482
1903.49309	0.65299
1901.56453	0.65154
1899.63596	0.65057
1897.70740	0.64988
1895.77883	0.64913
1893.85027	0.64826
1891.92171	0.64768
1889.99314	0.64696
1888.06458	0.64579
1886.13601	0.64478
1884.20745	0.64387
1882.27888	0.64296
1880.35032	0.64221
1878.42175	0.64151
1876.49319	0.64083
1874.56463	0.64029
1872.63606	0.64039
1870.70750	0.64075
1868.77893	0.63973
1866.85037	0.63767
1864.92180	0.63662
1862.99324	0.63635
1861.06467	0.63612
1859.13611	0.63560
1857.20755	0.63489
1855.27898	0.63436
1853.35042	0.63409
1851.42185	0.63423
1849.49329	0.63494
1847.56472	0.63594
1845.63616	0.63632
1843.70759	0.63539
1841.77903	0.63497
1839.85047	0.63587
1837.92190	0.63708
1835.99334	0.63808
1834.06477	0.63922
1832.13621	0.64065
1830.20764	0.64128
1828.27908	0.64096
1826.35051	0.64087
1824.42195	0.64064
1822.49339	0.64033
1820.56482	0.64038
1818.63626	0.64051
1816.70769	0.64029
1814.77913	0.64009
1812.85056	0.64015
1810.92200	0.63951
1808.99343	0.63801
1807.06487	0.63677
1805.13631	0.63618
1803.20774	0.63566
1801.27918	0.63435
1799.35061	0.63264
1797.42205	0.63182
1795.49348	0.63182
1793.56492	0.63113
1791.63635	0.62866
1789.70779	0.62658
1787.77923	0.62589
1785.85066	0.62514
1783.92210	0.62425
1781.99353	0.62393
1780.06497	0.62363
1778.13640	0.62354
1776.20784	0.62437
1774.27927	0.62568
1772.35071	0.62568
1770.42215	0.62429
1768.49358	0.62339
1766.56502	0.62329
1764.63645	0.62438
1762.70789	0.62597
1760.77932	0.62737
1758.85076	0.62932
1756.92220	0.63226
1754.99363	0.63610
1753.06507	0.64098
1751.13650	0.64753
1749.20794	0.65492
1747.27937	0.66141
1745.35081	0.66718
1743.42224	0.67266
1741.49368	0.67773
1739.56512	0.68209
1737.63655	0.68578
1735.70799	0.68888
1733.77942	0.69074
1731.85086	0.69192
1729.92229	0.69405
1727.99373	0.69713
1726.06516	0.70114
1724.13660	0.70648
1722.20804	0.71285
1720.27947	0.72010
1718.35091	0.72967
1716.42234	0.74230
1714.49378	0.75424
1712.56521	0.76631
1710.63665	0.78111
1708.70808	0.79952
1706.77952	0.82535
1704.85096	0.85853
1702.92239	0.88956
1700.99383	0.93090
1699.06526	0.99349
1697.13670	1.04999
1695.20813	1.10089
1693.27957	1.13951
1691.35100	1.17257
1689.42244	1.21307
1687.49388	1.25189
1685.56531	1.29097
1683.63675	1.34633
1681.70818	1.38662
1679.77962	1.41133
1677.85105	1.43528
1675.92249	1.46250
1673.99392	1.48874
1672.06536	1.50771
1670.13680	1.52741
1668.20823	1.55065
1666.27967	1.56657
1664.35110	1.57873
1662.42254	1.58807
1660.49397	1.59156
1658.56541	1.59448
1656.63684	1.59846
1654.70828	1.60099
1652.77972	1.59159
1650.85115	1.58291
1648.92259	1.57981
1646.99402	1.57413
1645.06546	1.56877
1643.13689	1.56494
1641.20833	1.56217
1639.27976	1.56092
1637.35120	1.55962
1635.42264	1.55179
1633.49407	1.54230
1631.56551	1.53755
1629.63694	1.53232
1627.70838	1.52356
1625.77981	1.51194
1623.85125	1.49555
1621.92269	1.47576
1619.99412	1.46089
1618.06556	1.44171
1616.13699	1.40485
1614.20843	1.37161
1612.27986	1.34626
1610.35130	1.31911
1608.42273	1.29088
1606.49417	1.26694
1604.56561	1.24930
1602.63704	1.23627
1600.70848	1.22680
1598.77991	1.22068
1596.85135	1.21717
1594.92278	1.21511
1592.99422	1.21450
1591.06565	1.21661
1589.13709	1.22242
1587.20853	1.23193
1585.27996	1.24394
1583.35140	1.25730
1581.42283	1.27165
1579.49427	1.28651
1577.56570	1.30399
1575.63714	1.32552
1573.70857	1.34137
1571.78001	1.35358
1569.85145	1.37056
1567.92288	1.38921
1565.99432	1.40337
1564.06575	1.41597
1562.13719	1.42680
1560.20862	1.43896
1558.28006	1.45791
1556.35149	1.46632
1554.42293	1.46940
1552.49437	1.47234
1550.56580	1.47433
1548.63724	1.47367
1546.70867	1.47174
1544.78011	1.47103
1542.85154	1.47382
1540.92298	1.46988
1538.99441	1.45065
1537.06585	1.44281
1535.13729	1.43972
1533.20872	1.43336
1531.28016	1.42562
1529.35159	1.41930
1527.42303	1.41243
1525.49446	1.40749
1523.56590	1.40682
1521.63733	1.40397
1519.70877	1.40004
1517.78021	1.39611
1515.85164	1.38651
1513.92308	1.37358
1511.99451	1.35980
1510.06595	1.34535
1508.13738	1.31999
1506.20882	1.27626
1504.28025	1.25468
1502.35169	1.24143
1500.42313	1.22427
1498.49456	1.19954
1496.56600	1.16787
1494.63743	1.14391
1492.70887	1.12936
1490.78030	1.11172
1488.85174	1.08467
1486.92317	1.06245
1484.99461	1.04889
1483.06605	1.03903
1481.13748	1.03127
1479.20892	1.02719
1477.28035	1.02808
1475.35179	1.03406
1473.42322	1.04601
1471.49466	1.05986
1469.56610	1.06969
1467.63753	1.07842
1465.70897	1.08897
1463.78040	1.10023
1461.85184	1.10911
1459.92327	1.11718
1457.99471	1.12892
1456.06614	1.14216
1454.13758	1.14893
1452.20902	1.15295
1450.28045	1.15608
1448.35189	1.15793
1446.42332	1.15775
1444.49476	1.15648
1442.56619	1.15480
1440.63763	1.15269
1438.70906	1.14892
1436.78050	1.14014
1434.85194	1.12878
1432.92337	1.11930
1430.99481	1.10801
1429.06624	1.09469
1427.13768	1.08453
1425.20911	1.07725
1423.28055	1.07128
1421.35198	1.06725
1419.42342	1.06268
1417.49486	1.05609
1415.56629	1.05116
1413.63773	1.04720
1411.70916	1.04256
1409.78060	1.03817
1407.85203	1.03570
1405.92347	1.03498
1403.99490	1.03533
1402.06634	1.03695
1400.13778	1.03976
1398.20921	1.04307
1396.28065	1.04633
1394.35208	1.05020
1392.42352	1.05622
1390.49495	1.06549
1388.56639	1.07968
1386.63782	1.09866
1384.70926	1.11716
1382.78070	1.13325
1380.85213	1.14618
1378.92357	1.15282
1376.99500	1.15187
1375.06644	1.14250
1373.13787	1.12573
1371.20931	1.10702
1369.28074	1.08579
1367.35218	1.06198
1365.42362	1.03998
1363.49505	1.01833
1361.56649	0.99741
1359.63792	0.98272
1357.70936	0.97277
1355.78079	0.96471
1353.85223	0.95832
1351.92366	0.95389
1349.99510	0.95106
1348.06654	0.94947
1346.13797	0.94914
1344.20941	0.95041
1342.28084	0.95334
1340.35228	0.95799
1338.42371	0.96412
1336.49515	0.97165
1334.56659	0.98135
1332.63802	0.99365
1330.70946	1.00782
1328.78089	1.02103
1326.85233	1.03036
1324.92376	1.03629
1322.99520	1.04139
1321.06663	1.04693
1319.13807	1.05232
1317.20951	1.05664
1315.28094	1.06013
1313.35238	1.06292
1311.42381	1.06405
1309.49525	1.06332
1307.56668	1.06114
1305.63812	1.05750
1303.70955	1.05273
1301.78099	1.04710
1299.85243	1.04033
1297.92386	1.03220
1295.99530	1.02386
1294.06673	1.01709
1292.13817	1.01257
1290.20960	1.01001
1288.28104	1.00871
1286.35247	1.00790
1284.42391	1.00719
1282.49535	1.00674
1280.56678	1.00717
1278.63822	1.00931
1276.70965	1.01364
1274.78109	1.01996
1272.85252	1.02796
1270.92396	1.03713
1268.99539	1.04674
1267.06683	1.05598
1265.13827	1.06385
1263.20970	1.06967
1261.28114	1.07358
1259.35257	1.07633
1257.42401	1.07860
1255.49544	1.08062
1253.56688	1.08223
1251.63831	1.08327
1249.70975	1.08392
1247.78119	1.08412
1245.85262	1.08348
1243.92406	1.08205
1241.99549	1.08002
1240.06693	1.07695
1238.13836	1.07265
1236.20980	1.06706
1234.28123	1.05994
1232.35267	1.05166
1230.42411	1.04242
1228.49554	1.03188
1226.56698	1.02048
1224.63841	1.00909
1222.70985	0.99815
1220.78128	0.98832
1218.85272	0.98051
1216.92415	0.97482
1214.99559	0.97120
1213.06703	0.97076
1211.13846	0.97392
1209.20990	0.97868
1207.28133	0.98212
1205.35277	0.98208
1203.42420	0.97817
1201.49564	0.97165
1199.56708	0.96399
1197.63851	0.95634
1195.70995	0.94944
1193.78138	0.94405
1191.85282	0.94130
1189.92425	0.94092
1187.99569	0.94136
1186.06712	0.94223
1184.13856	0.94431
1182.21000	0.94788
1180.28143	0.95262
1178.35287	0.95856
1176.42430	0.96631
1174.49574	0.97564
1172.56717	0.98565
1170.63861	0.99689
1168.71004	1.01044
1166.78148	1.02571
1164.85292	1.04092
1162.92435	1.05349
1160.99579	1.06043
1159.06722	1.06022
1157.13866	1.05304
1155.21009	1.03984
1153.28153	1.02262
1151.35296	1.00408
1149.42440	0.98661
1147.49584	0.97183
1145.56727	0.96104
1143.63871	0.95564
1141.71014	0.95619
1139.78158	0.96183
1137.85301	0.97172
1135.92445	0.98532
1133.99588	1.00230
1132.06732	1.02305
1130.13876	1.04726
1128.21019	1.07309
1126.28163	1.09843
1124.35306	1.12130
1122.42450	1.14007
1120.49593	1.15406
1118.56737	1.16351
1116.63880	1.16815
1114.71024	1.16706
1112.78168	1.16156
1110.85311	1.15457
1108.92455	1.14748
1106.99598	1.14042
1105.06742	1.13428
1103.13885	1.13015
1101.21029	1.12813
1099.28172	1.12865
1097.35316	1.13335
1095.42460	1.14340
1093.49603	1.15738
1091.56747	1.17282
1089.63890	1.18962
1087.71034	1.20886
1085.78177	1.22937
1083.85321	1.24879
1081.92464	1.26541
1079.99608	1.27709
1078.06752	1.28177
1076.13895	1.27998
1074.21039	1.27300
1072.28182	1.26217
1070.35326	1.25035
1068.42469	1.23885
1066.49613	1.22662
1064.56756	1.21358
1062.63900	1.20019
1060.71044	1.18618
1058.78187	1.17193
1056.85331	1.15903
1054.92474	1.14872
1052.99618	1.14087
1051.06761	1.13503
1049.13905	1.13221
1047.21049	1.13427
1045.28192	1.14117
1043.35336	1.15089
1041.42479	1.16158
1039.49623	1.17137
1037.56766	1.17763
1035.63910	1.17927
1033.71053	1.17852
1031.78197	1.17727
1029.85341	1.17381
1027.92484	1.16610
1025.99628	1.15502
1024.06771	1.14261
1022.13915	1.13111
1020.21058	1.12261
1018.28202	1.11645
1016.35345	1.10988
1014.42489	1.10028
1012.49633	1.08595
1010.56776	1.06782
1008.63920	1.04804
1006.71063	1.02754
1004.78207	1.00725
1002.85350	0.98912
1000.92494	0.97477
998.99637	0.96430
997.06781	0.95682
995.13925	0.95108
993.21068	0.94588
991.28212	0.94041
989.35355	0.93493
987.42499	0.93051
985.49642	0.92802
983.56786	0.92766
981.63929	0.92887
979.71073	0.93106
977.78217	0.93390
975.85360	0.93601
973.92504	0.93527
971.99647	0.93120
970.06791	0.92548
968.13934	0.91945
966.21078	0.91392
964.28221	0.91031
962.35365	0.90998
960.42509	0.91416
958.49652	0.92314
956.56796	0.93339
954.63939	0.93856
952.71083	0.93534
950.78226	0.92489
948.85370	0.91050
946.92513	0.89642
944.99657	0.88543
943.06801	0.87707
941.13944	0.86995
939.21088	0.86394
937.28231	0.85923
935.35375	0.85536
933.42518	0.85217
931.49662	0.85015
929.56805	0.84939
927.63949	0.84925
925.71093	0.84987
923.78236	0.85216
921.85380	0.85545
919.92523	0.85799
917.99667	0.85939
916.06810	0.86096
914.13954	0.86399
912.21098	0.86872
910.28241	0.87491
908.35385	0.88262
906.42528	0.89163
904.49672	0.90082
902.56815	0.90954
900.63959	0.91761
898.71102	0.92375
896.78246	0.92700
894.85390	0.92821
892.92533	0.92815
890.99677	0.92625
889.06820	0.92244
887.13964	0.91810
885.21107	0.91438
883.28251	0.91131
881.35394	0.90881
879.42538	0.90719
877.49682	0.90618
875.56825	0.90517
873.63969	0.90424
871.71112	0.90368
869.78256	0.90379
867.85399	0.90492
865.92543	0.90701
863.99686	0.90971
862.06830	0.91333
860.13974	0.91866
858.21117	0.92573
856.28261	0.93383
854.35404	0.94206
852.42548	0.94969
850.49691	0.95609
848.56835	0.96108
846.63978	0.96562
844.71122	0.97025
842.78266	0.97431
840.85409	0.97702
838.92553	0.97843
836.99696	0.97987
835.06840	0.98145
833.13983	0.98087
831.21127	0.97739
829.28270	0.97313
827.35414	0.96918
825.42558	0.96476
823.49701	0.95975
821.56845	0.95479
819.63988	0.95027
817.71132	0.94663
815.78275	0.94400
813.85419	0.94191
811.92562	0.94078
809.99706	0.94130
808.06850	0.94276
806.13993	0.94504
804.21137	0.94966
802.28280	0.95755
800.35424	0.96772
798.42567	0.97861
796.49711	0.98999
794.56854	1.00281
792.63998	1.01710
790.71142	1.03153
788.78285	1.04569
786.85429	1.06005
784.92572	1.07415
782.99716	1.08761
781.06859	1.10101
779.14003	1.11331
777.21147	1.12212
775.28290	1.12759
773.35434	1.13128
771.42577	1.13340
769.49721	1.13358
767.56864	1.13187
765.64008	1.12847
763.71151	1.12408
761.78295	1.11997
759.85439	1.11684
757.92582	1.11447
755.99726	1.11284
754.06869	1.11208
752.14013	1.11173
750.21156	1.11126
748.28300	1.11084
746.35443	1.11156
744.42587	1.11414
742.49731	1.11788
740.56874	1.12210
738.64018	1.12617
736.71161	1.12937
734.78305	1.13180
732.85448	1.13351
730.92592	1.13492
728.99735	1.13521
727.06879	1.13230
725.14023	1.12704
723.21166	1.12149
721.28310	1.11570
719.35453	1.10834
717.42597	1.09840
715.49740	1.08693
713.56884	1.07596
711.64027	1.06613
709.71171	1.05780
707.78315	1.05127
705.85458	1.04539
703.92602	1.03954
701.99745	1.03406
700.06889	1.02912
698.14032	1.02520
696.21176	1.02311
694.28319	1.02304
692.35463	1.02465
690.42607	1.02842
688.49750	1.03394
686.56894	1.04045
684.64037	1.04893
682.71181	1.05978
680.78324	1.07262
678.85468	1.08858
676.92611	1.10710
674.99755	1.12389
673.06899	1.13711
671.14042	1.14972
669.21186	1.16669
667.28329	1.18511
665.35473	1.19603
663.42616	1.20507
661.49760	1.21311
659.56903	1.21822
657.64047	1.22087
655.71191	1.21942
653.78334	1.21180
651.85478	1.19965
649.92621	1.18663
647.99765	1.17498
646.06908	1.16522
644.14052	1.15739
642.21195	1.15042
640.28339	1.14172
638.35483	1.13257
636.42626	1.12812
634.49770	1.12767
632.56913	1.12756
630.64057	1.12943
628.71200	1.13322
626.78344	1.13671
624.85488	1.14206
622.92631	1.15017
620.99775	1.15870
619.06918	1.16798
617.14062	1.17685
615.21205	1.18032
613.28349	1.17844
611.35492	1.17606
609.42636	1.17558
607.49780	1.17396
605.56923	1.16655
603.64067	1.15357
601.71210	1.13797
599.78354	1.12062
