3997.91406	0.99126
3995.98550	0.99192
3994.05693	0.99123
3992.12837	0.99021
3990.19980	0.99037
3988.27124	0.99022
3986.34268	0.98909
3984.41411	0.98847
3982.48555	0.98747
3980.55698	0.98549
3978.62842	0.98412
3976.69985	0.98406
3974.77129	0.98486
3972.84272	0.98636
3970.91416	0.98789
3968.98560	0.98754
3967.05703	0.98502
3965.12847	0.98197
3963.19990	0.97992
3961.27134	0.97937
3959.34277	0.97911
3957.41421	0.97847
3955.48564	0.97871
3953.55708	0.98090
3951.62852	0.98249
3949.69995	0.97958
3947.77139	0.97481
3945.84282	0.97343
3943.91426	0.97323
3941.98569	0.97081
3940.05713	0.96871
3938.12856	0.96946
3936.20000	0.97180
3934.27144	0.97338
3932.34287	0.97322
3930.41431	0.97181
3928.48574	0.97024
3926.55718	0.96892
3924.62861	0.96740
3922.70005	0.96692
3920.77148	0.96848
3918.84292	0.96900
3916.91436	0.96603
3914.98579	0.96275
3913.05723	0.96110
3911.12866	0.96085
3909.20010	0.96349
3907.27153	0.96827
3905.34297	0.96999
3903.41440	0.96583
3901.48584	0.96092
3899.55728	0.95703
3897.62871	0.95633
3895.70015	0.96079
3893.77158	0.96575
3891.84302	0.96490
3889.91445	0.96208
3887.98589	0.96326
3886.05733	0.96419
3884.12876	0.96233
3882.20020	0.96054
3880.27163	0.95676
3878.34307	0.95318
3876.41450	0.95203
3874.48594	0.95074
3872.55737	0.95024
3870.62881	0.95049
3868.70025	0.95034
3866.77168	0.95033
3864.84312	0.94658
3862.91455	0.94029
3860.98599	0.93833
3859.05742	0.94038
3857.12886	0.94504
3855.20029	0.94788
3853.27173	0.93938
3851.34317	0.93412
3849.41460	0.93743
3847.48604	0.94225
3845.55747	0.94663
3843.62891	0.94788
3841.70034	0.94673
3839.77178	0.94697
3837.84321	0.94657
3835.91465	0.94399
3833.98609	0.94072
3832.05752	0.93679
3830.12896	0.93478
3828.20039	0.93528
3826.27183	0.93620
3824.34326	0.93850
3822.41470	0.94016
3820.48613	0.93686
3818.55757	0.93621
3816.62901	0.93635
3814.70044	0.93192
3812.77188	0.92907
3810.84331	0.93037
3808.91475	0.93321
3806.98618	0.93229
3805.05762	0.93069
3803.12905	0.93389
3801.20049	0.93617
3799.27193	0.93389
3797.34336	0.92935
3795.41480	0.92429
3793.48623	0.92242
3791.55767	0.92280
3789.62910	0.92327
3787.70054	0.92340
3785.77197	0.92324
3783.84341	0.92394
3781.91485	0.92539
3779.98628	0.92388
3778.05772	0.91998
3776.12915	0.91860
3774.20059	0.91937
3772.27202	0.92042
3770.34346	0.91967
3768.41489	0.91756
3766.48633	0.91643
3764.55777	0.91653
3762.62920	0.91820
3760.70064	0.91926
3758.77207	0.91784
3756.84351	0.91757
3754.91494	0.92060
3752.98638	0.92577
3751.05781	0.92771
3749.12925	0.92499
3747.20069	0.92547
3745.27212	0.92294
3743.34356	0.91558
3741.41499	0.91427
3739.48643	0.91734
3737.55786	0.92069
3735.62930	0.92144
3733.70074	0.91801
3731.77217	0.91536
3729.84361	0.91541
3727.91504	0.91541
3725.98648	0.91267
3724.05791	0.90936
3722.12935	0.90829
3720.20078	0.90907
3718.27222	0.91112
3716.34366	0.91303
3714.41509	0.91357
3712.48653	0.90950
3710.55796	0.90240
3708.62940	0.90376
3706.70083	0.91032
3704.77227	0.91560
3702.84370	0.91640
3700.91514	0.91245
3698.98658	0.90843
3697.05801	0.90789
3695.12945	0.91141
3693.20088	0.91654
3691.27232	0.91899
3689.34375	0.91672
3687.41519	0.91611
3685.48662	0.91884
3683.55806	0.92283
3681.62950	0.92792
3679.70093	0.93387
3677.77237	0.93900
3675.84380	0.93947
3673.91524	0.94085
3671.98667	0.94680
3670.05811	0.94930
3668.12954	0.94891
3666.20098	0.95262
3664.27242	0.95829
3662.34385	0.96302
3660.41529	0.96718
3658.48672	0.97221
3656.55816	0.97807
3654.62959	0.98501
3652.70103	0.99361
3650.77246	1.00140
3648.84390	1.00260
3646.91534	1.00504
3644.98677	1.01290
3643.05821	1.02197
3641.12964	1.02988
3639.20108	1.03587
3637.27251	1.04123
3635.34395	1.04685
3633.41538	1.05290
3631.48682	1.05990
3629.55826	1.06704
3627.62969	1.07184
3625.70113	1.07712
3623.77256	1.08462
3621.84400	1.09438
3619.91543	1.10438
3617.98687	1.10941
3616.05830	1.11271
3614.12974	1.11868
3612.20118	1.12688
3610.27261	1.13480
3608.34405	1.14058
3606.41548	1.14676
3604.48692	1.15508
3602.55835	1.16379
3600.62979	1.17120
3598.70123	1.17756
3596.77266	1.18400
3594.84410	1.19095
3592.91553	1.19852
3590.98697	1.20614
3589.05840	1.21292
3587.12984	1.21727
3585.20127	1.22143
3583.27271	1.22746
3581.34415	1.23466
3579.41558	1.24277
3577.48702	1.25100
3575.55845	1.25969
3573.62989	1.26976
3571.70132	1.27978
3569.77276	1.28697
3567.84419	1.28906
3565.91563	1.28928
3563.98707	1.29543
3562.05850	1.30697
3560.12994	1.31815
3558.20137	1.32405
3556.27281	1.32683
3554.34424	1.33134
3552.41568	1.33835
3550.48711	1.34652
3548.55855	1.35483
3546.62999	1.36212
3544.70142	1.37102
3542.77286	1.38131
3540.84429	1.38943
3538.91573	1.39598
3536.98716	1.40097
3535.05860	1.40598
3533.13003	1.41511
3531.20147	1.42498
3529.27291	1.42808
3527.34434	1.42803
3525.41578	1.43296
3523.48721	1.44140
3521.55865	1.45082
3519.63008	1.45951
3517.70152	1.46643
3515.77295	1.47425
3513.84439	1.48356
3511.91583	1.49012
3509.98726	1.49299
3508.05870	1.50077
3506.13013	1.51610
3504.20157	1.52832
3502.27300	1.53326
3500.34444	1.53732
3498.41587	1.54215
3496.48731	1.54925
3494.55875	1.55571
3492.63018	1.55687
3490.70162	1.56001
3488.77305	1.57001
3486.84449	1.58082
3484.91592	1.58569
3482.98736	1.58582
3481.05879	1.58898
3479.13023	1.59786
3477.20167	1.60522
3475.27310	1.60604
3473.34454	1.60746
3471.41597	1.61380
3469.48741	1.61815
3467.55884	1.61798
3465.63028	1.61755
3463.70171	1.61905
3461.77315	1.61994
3459.84459	1.62083
3457.91602	1.62632
3455.98746	1.63255
3454.05889	1.63416
3452.13033	1.63619
3450.20176	1.64254
3448.27320	1.64984
3446.34464	1.65601
3444.41607	1.65884
3442.48751	1.65787
3440.55894	1.65948
3438.63038	1.66428
3436.70181	1.66719
3434.77325	1.66917
3432.84468	1.67045
3430.91612	1.66805
3428.98756	1.66594
3427.05899	1.66939
3425.13043	1.67439
3423.20186	1.67557
3421.27330	1.67481
3419.34473	1.67561
3417.41617	1.67786
3415.48760	1.67978
3413.55904	1.68097
3411.63048	1.68326
3409.70191	1.68541
3407.77335	1.68400
3405.84478	1.68308
3403.91622	1.68692
3401.98765	1.69138
3400.05909	1.69311
3398.13052	1.69338
3396.20196	1.69348
3394.27340	1.69411
3392.34483	1.69624
3390.41627	1.69976
3388.48770	1.70144
3386.55914	1.70263
3384.63057	1.70975
3382.70201	1.71719
3380.77344	1.71498
3378.84488	1.70974
3376.91632	1.70920
3374.98775	1.71199
3373.05919	1.71655
3371.13062	1.72080
3369.20206	1.72607
3367.27349	1.73446
3365.34493	1.73985
3363.41636	1.73847
3361.48780	1.73595
3359.55924	1.73761
3357.63067	1.74273
3355.70211	1.75051
3353.77354	1.75897
3351.84498	1.75918
3349.91641	1.75362
3347.98785	1.75586
3346.05928	1.76277
3344.13072	1.76602
3342.20216	1.76843
3340.27359	1.76789
3338.34503	1.76420
3336.41646	1.76386
3334.48790	1.76379
3332.55933	1.75895
3330.63077	1.75335
3328.70220	1.75709
3326.77364	1.77173
3324.84508	1.78208
3322.91651	1.78124
3320.98795	1.77768
3319.05938	1.77794
3317.13082	1.78316
3315.20225	1.79057
3313.27369	1.79811
3311.34513	1.80265
3309.41656	1.80242
3307.48800	1.80233
3305.55943	1.80559
3303.63087	1.80839
3301.70230	1.80591
3299.77374	1.80156
3297.84517	1.80134
3295.91661	1.80696
3293.98805	1.81815
3292.05948	1.82668
3290.13092	1.82388
3288.20235	1.81745
3286.27379	1.81582
3284.34522	1.81162
3282.41666	1.79761
3280.48809	1.78335
3278.55953	1.78143
3276.63097	1.79139
3274.70240	1.80196
3272.77384	1.80216
3270.84527	1.79372
3268.91671	1.78839
3266.98814	1.78943
3265.05958	1.79006
3263.13101	1.78868
3261.20245	1.78647
3259.27389	1.78298
3257.34532	1.78100
3255.41676	1.77723
3253.48819	1.76558
3251.55963	1.75143
3249.63106	1.74155
3247.70250	1.73599
3245.77393	1.73107
3243.84537	1.72104
3241.91681	1.70812
3239.98824	1.70313
3238.05968	1.70696
3236.13111	1.70971
3234.20255	1.70911
3232.27398	1.70812
3230.34542	1.70511
3228.41685	1.69933
3226.48829	1.69382
3224.55973	1.69092
3222.63116	1.68656
3220.70260	1.67795
3218.77403	1.67008
3216.84547	1.66416
3214.91690	1.65911
3212.98834	1.65531
3211.05977	1.64975
3209.13121	1.64316
3207.20265	1.63902
3205.27408	1.63633
3203.34552	1.63375
3201.41695	1.63114
3199.48839	1.62712
3197.55982	1.62183
3195.63126	1.61774
3193.70269	1.61382
3191.77413	1.60889
3189.84557	1.60493
3187.91700	1.59963
3185.98844	1.59352
3184.05987	1.59375
3182.13131	1.59757
3180.20274	1.59498
3178.27418	1.58743
3176.34562	1.58306
3174.41705	1.58178
3172.48849	1.57805
3170.55992	1.57052
3168.63136	1.56356
3166.70279	1.55922
3164.77423	1.55423
3162.84566	1.54798
3160.91710	1.54223
3158.98854	1.53606
3157.05997	1.53033
3155.13141	1.52926
3153.20284	1.53142
3151.27428	1.53025
3149.34571	1.52669
3147.41715	1.52470
3145.48858	1.52236
3143.56002	1.51819
3141.63146	1.51416
3139.70289	1.51194
3137.77433	1.51088
3135.84576	1.51050
3133.91720	1.51035
3131.98863	1.50795
3130.06007	1.50380
3128.13150	1.50076
3126.20294	1.49927
3124.27438	1.49934
3122.34581	1.50178
3120.41725	1.50596
3118.48868	1.51016
3116.56012	1.51094
3114.63155	1.50573
3112.70299	1.50059
3110.77442	1.50113
3108.84586	1.50490
3106.91730	1.50901
3104.98873	1.51010
3103.06017	1.50612
3101.13160	1.50207
3099.20304	1.50155
3097.27447	1.50053
3095.34591	1.49694
3093.41734	1.49535
3091.48878	1.49706
3089.56022	1.49775
3087.63165	1.49474
3085.70309	1.48988
3083.77452	1.48589
3081.84596	1.48335
3079.91739	1.48240
3077.98883	1.48154
3076.06026	1.47892
3074.13170	1.47594
3072.20314	1.47485
3070.27457	1.47547
3068.34601	1.47531
3066.41744	1.47302
3064.48888	1.46838
3062.56031	1.46217
3060.63175	1.45773
3058.70318	1.45571
3056.77462	1.45283
3054.84606	1.44799
3052.91749	1.44290
3050.98893	1.43792
3049.06036	1.43224
3047.13180	1.42642
3045.20323	1.42209
3043.27467	1.41948
3041.34610	1.41588
3039.41754	1.41009
3037.48898	1.40549
3035.56041	1.40379
3033.63185	1.40284
3031.70328	1.40166
3029.77472	1.40004
3027.84615	1.39700
3025.91759	1.39305
3023.98903	1.38796
3022.06046	1.38086
3020.13190	1.37470
3018.20333	1.37294
3016.27477	1.37413
3014.34620	1.37405
3012.41764	1.37168
3010.48907	1.36921
3008.56051	1.36751
3006.63195	1.36570
3004.70338	1.36239
3002.77482	1.35796
3000.84625	1.35523
2998.91769	1.35532
2996.98912	1.35706
2995.06056	1.35902
2993.13199	1.36096
2991.20343	1.36423
2989.27487	1.36909
2987.34630	1.37558
2985.41774	1.38251
2983.48917	1.38793
2981.56061	1.39467
2979.63204	1.40367
2977.70348	1.41217
2975.77491	1.42086
2973.84635	1.42915
2971.91779	1.43574
2969.98922	1.44318
2968.06066	1.45175
2966.13209	1.45854
2964.20353	1.46276
2962.27496	1.46492
2960.34640	1.46408
2958.41783	1.46047
2956.48927	1.45586
2954.56071	1.45043
2952.63214	1.44471
2950.70358	1.44093
2948.77501	1.43937
2946.84645	1.43895
2944.91788	1.43980
2942.98932	1.44305
2941.06075	1.45135
2939.13219	1.46445
2937.20363	1.47796
2935.27506	1.48982
2933.34650	1.49817
2931.41793	1.50191
2929.48937	1.50547
2927.56080	1.51198
2925.63224	1.51880
2923.70367	1.52273
2921.77511	1.52420
2919.84655	1.52361
2917.91798	1.51630
2915.98942	1.49824
2914.06085	1.47416
2912.13229	1.45226
2910.20372	1.43626
2908.27516	1.42394
2906.34659	1.41052
2904.41803	1.39635
2902.48947	1.38589
2900.56090	1.37860
2898.63234	1.37047
2896.70377	1.36220
2894.77521	1.35766
2892.84664	1.35670
2890.91808	1.35475
2888.98952	1.34909
2887.06095	1.34308
2885.13239	1.34134
2883.20382	1.34339
2881.27526	1.34546
2879.34669	1.34576
2877.41813	1.34552
2875.48956	1.34527
2873.56100	1.34371
2871.63244	1.33993
2869.70387	1.33456
2867.77531	1.32864
2865.84674	1.32222
2863.91818	1.31704
2861.98961	1.31579
2860.06105	1.31738
2858.13248	1.32070
2856.20392	1.32646
2854.27536	1.33255
2852.34679	1.33558
2850.41823	1.33201
2848.48966	1.31717
2846.56110	1.29287
2844.63253	1.26847
2842.70397	1.24927
2840.77540	1.23416
2838.84684	1.22234
2836.91828	1.21338
2834.98971	1.20493
2833.06115	1.19670
2831.13258	1.19044
2829.20402	1.18582
2827.27545	1.18174
2825.34689	1.17773
2823.41832	1.17390
2821.48976	1.17024
2819.56120	1.16602
2817.63263	1.16191
2815.70407	1.15865
2813.77550	1.15530
2811.84694	1.15198
2809.91837	1.14960
2807.98981	1.14688
2806.06124	1.14241
2804.13268	1.13780
2802.20412	1.13436
2800.27555	1.13170
2798.34699	1.12960
2796.41842	1.12705
2794.48986	1.12326
2792.56129	1.11919
2790.63273	1.11569
2788.70416	1.11272
2786.77560	1.10992
2784.84704	1.10741
2782.91847	1.10549
2780.98991	1.10332
2779.06134	1.10017
2777.13278	1.09678
2775.20421	1.09396
2773.27565	1.09181
2771.34708	1.08975
2769.41852	1.08704
2767.48996	1.08390
2765.56139	1.08113
2763.63283	1.07909
2761.70426	1.07676
2759.77570	1.07322
2757.84713	1.06960
2755.91857	1.06694
2753.99001	1.06445
2752.06144	1.06156
2750.13288	1.05899
2748.20431	1.05720
2746.27575	1.05558
2744.34718	1.05365
2742.41862	1.05174
2740.49005	1.05002
2738.56149	1.04837
2736.63293	1.04703
2734.70436	1.04573
2732.77580	1.04426
2730.84723	1.04272
2728.91867	1.04029
2726.99010	1.03697
2725.06154	1.03436
2723.13297	1.03288
2721.20441	1.03137
2719.27585	1.02889
2717.34728	1.02542
2715.41872	1.02187
2713.49015	1.01944
2711.56159	1.01806
2709.63302	1.01651
2707.70446	1.01430
2705.77589	1.01200
2703.84733	1.01039
2701.91877	1.00949
2699.99020	1.00857
2698.06164	1.00731
2696.13307	1.00575
2694.20451	1.00421
2692.27594	1.00277
2690.34738	1.00110
2688.41881	0.99897
2686.49025	0.99656
2684.56169	0.99437
2682.63312	0.99251
2680.70456	0.99060
2678.77599	0.98869
2676.84743	0.98710
2674.91886	0.98577
2672.99030	0.98426
2671.06173	0.98270
2669.13317	0.98174
2667.20461	0.98106
2665.27604	0.97988
2663.34748	0.97824
2661.41891	0.97658
2659.49035	0.97505
2657.56178	0.97336
2655.63322	0.97125
2653.70465	0.96937
2651.77609	0.96843
2649.84753	0.96762
2647.91896	0.96588
2645.99040	0.96361
2644.06183	0.96191
2642.13327	0.96070
2640.20470	0.95904
2638.27614	0.95733
2636.34757	0.95661
2634.41901	0.95617
2632.49045	0.95508
2630.56188	0.95410
2628.63332	0.95357
2626.70475	0.95248
2624.77619	0.95065
2622.84762	0.94900
2620.91906	0.94793
2618.99049	0.94700
2617.06193	0.94557
2615.13337	0.94355
2613.20480	0.94162
2611.27624	0.94022
2609.34767	0.93883
2607.41911	0.93670
2605.49054	0.93405
2603.56198	0.93179
2601.63342	0.93056
2599.70485	0.93013
2597.77629	0.92985
2595.84772	0.92949
2593.91916	0.92871
2591.99059	0.92670
2590.06203	0.92397
2588.13346	0.92231
2586.20490	0.92177
2584.27634	0.92096
2582.34777	0.91956
2580.41921	0.91810
2578.49064	0.91676
2576.56208	0.91537
2574.63351	0.91400
2572.70495	0.91282
2570.77638	0.91154
2568.84782	0.90995
2566.91926	0.90832
2564.99069	0.90694
2563.06213	0.90592
2561.13356	0.90480
2559.20500	0.90307
2557.27643	0.90083
2555.34787	0.89863
2553.41930	0.89711
2551.49074	0.89630
2549.56218	0.89535
2547.63361	0.89366
2545.70505	0.89160
2543.77648	0.88978
2541.84792	0.88810
2539.91935	0.88653
2537.99079	0.88516
2536.06222	0.88327
2534.13366	0.88085
2532.20510	0.87911
2530.27653	0.87812
2528.34797	0.87706
2526.41940	0.87554
2524.49084	0.87366
2522.56227	0.87193
2520.63371	0.87081
2518.70514	0.87015
2516.77658	0.86905
2514.84802	0.86710
2512.91945	0.86516
2510.99089	0.86365
2509.06232	0.86218
2507.13376	0.86067
2505.20519	0.85931
2503.27663	0.85800
2501.34806	0.85675
2499.41950	0.85581
2497.49094	0.85494
2495.56237	0.85357
2493.63381	0.85196
2491.70524	0.85079
2489.77668	0.85011
2487.84811	0.84956
2485.91955	0.84883
2483.99098	0.84800
2482.06242	0.84721
2480.13386	0.84613
2478.20529	0.84442
2476.27673	0.84242
2474.34816	0.84055
2472.41960	0.83869
2470.49103	0.83652
2468.56247	0.83396
2466.63391	0.83131
2464.70534	0.82890
2462.77678	0.82666
2460.84821	0.82449
2458.91965	0.82230
2456.99108	0.81992
2455.06252	0.81777
2453.13395	0.81608
2451.20539	0.81432
2449.27683	0.81252
2447.34826	0.81092
2445.41970	0.80931
2443.49113	0.80754
2441.56257	0.80567
2439.63400	0.80383
2437.70544	0.80247
2435.77687	0.80156
2433.84831	0.80065
2431.91975	0.79988
2429.99118	0.79940
2428.06262	0.79869
2426.13405	0.79783
2424.20549	0.79723
2422.27692	0.79662
2420.34836	0.79584
2418.41979	0.79517
2416.49123	0.79487
2414.56267	0.79494
2412.63410	0.79493
2410.70554	0.79435
2408.77697	0.79321
2406.84841	0.79171
2404.91984	0.79018
2402.99128	0.78905
2401.06271	0.78818
2399.13415	0.78681
2397.20559	0.78497
2395.27702	0.78344
2393.34846	0.78231
2391.41989	0.78096
2389.49133	0.77933
2387.56276	0.77801
2385.63420	0.77746
2383.70563	0.77758
2381.77707	0.77818
2379.84851	0.77905
2377.91994	0.77999
2375.99138	0.78118
2374.06281	0.78192
2372.13425	0.78090
2370.20568	0.77939
2368.27712	0.77916
2366.34855	0.77885
2364.41999	0.77831
2362.49143	0.78008
2360.56286	0.78123
2358.63430	0.77670
2356.70573	0.77167
2354.77717	0.77001
2352.84860	0.76777
2350.92004	0.76630
2348.99147	0.76822
2347.06291	0.77214
2345.13435	0.77493
2343.20578	0.77447
2341.27722	0.77272
2339.34865	0.77133
2337.42009	0.76999
2335.49152	0.76891
2333.56296	0.76827
2331.63440	0.76741
2329.70583	0.76640
2327.77727	0.76564
2325.84870	0.76459
2323.92014	0.76241
2321.99157	0.75941
2320.06301	0.75695
2318.13444	0.75549
2316.20588	0.75468
2314.27732	0.75428
2312.34875	0.75370
2310.42019	0.75232
2308.49162	0.75045
2306.56306	0.74869
2304.63449	0.74707
2302.70593	0.74546
2300.77736	0.74404
2298.84880	0.74310
2296.92024	0.74253
2294.99167	0.74174
2293.06311	0.74022
2291.13454	0.73819
2289.20598	0.73621
2287.27741	0.73451
2285.34885	0.73314
2283.42028	0.73211
2281.49172	0.73117
2279.56316	0.73007
2277.63459	0.72885
2275.70603	0.72787
2273.77746	0.72723
2271.84890	0.72655
2269.92033	0.72564
2267.99177	0.72476
2266.06320	0.72416
2264.13464	0.72371
2262.20608	0.72299
2260.27751	0.72184
2258.34895	0.72067
2256.42038	0.72001
2254.49182	0.71988
2252.56325	0.71981
2250.63469	0.71957
2248.70612	0.71934
2246.77756	0.71903
2244.84900	0.71846
2242.92043	0.71802
2240.99187	0.71796
2239.06330	0.71783
2237.13474	0.71748
2235.20617	0.71710
2233.27761	0.71657
2231.34904	0.71596
2229.42048	0.71564
2227.49192	0.71547
2225.56335	0.71505
2223.63479	0.71449
2221.70622	0.71399
2219.77766	0.71356
2217.84909	0.71299
2215.92053	0.71216
2213.99196	0.71112
2212.06340	0.70995
2210.13484	0.70887
2208.20627	0.70803
2206.27771	0.70715
2204.34914	0.70621
2202.42058	0.70538
2200.49201	0.70448
2198.56345	0.70345
2196.63488	0.70249
2194.70632	0.70169
2192.77776	0.70101
2190.84919	0.70042
2188.92063	0.70012
2186.99206	0.70021
2185.06350	0.70036
2183.13493	0.70013
2181.20637	0.69967
2179.27781	0.69944
2177.34924	0.69938
2175.42068	0.69913
2173.49211	0.69883
2171.56355	0.69886
2169.63498	0.69905
2167.70642	0.69909
2165.77785	0.69904
2163.84929	0.69899
2161.92073	0.69886
2159.99216	0.69842
2158.06360	0.69767
2156.13503	0.69696
2154.20647	0.69637
2152.27790	0.69575
2150.34934	0.69510
2148.42077	0.69448
2146.49221	0.69383
2144.56365	0.69310
2142.63508	0.69238
2140.70652	0.69170
2138.77795	0.69102
2136.84939	0.69013
2134.92082	0.68913
2132.99226	0.68832
2131.06369	0.68770
2129.13513	0.68703
2127.20657	0.68639
2125.27800	0.68605
2123.34944	0.68597
2121.42087	0.68578
2119.49231	0.68535
2117.56374	0.68489
2115.63518	0.68448
2113.70661	0.68396
2111.77805	0.68343
2109.84949	0.68294
2107.92092	0.68244
2105.99236	0.68200
2104.06379	0.68157
2102.13523	0.68099
2100.20666	0.68026
2098.27810	0.67924
2096.34953	0.67804
2094.42097	0.67703
2092.49241	0.67628
2090.56384	0.67549
2088.63528	0.67438
2086.70671	0.67310
2084.77815	0.67186
2082.84958	0.67067
2080.92102	0.66957
2078.99245	0.66843
2077.06389	0.66703
2075.13533	0.66539
2073.20676	0.66380
2071.27820	0.66257
2069.34963	0.66177
2067.42107	0.66106
2065.49250	0.65985
2063.56394	0.65810
2061.63537	0.65639
2059.70681	0.65504
2057.77825	0.65385
2055.84968	0.65252
2053.92112	0.65106
2051.99255	0.64971
2050.06399	0.64847
2048.13542	0.64724
2046.20686	0.64613
2044.27830	0.64538
2042.34973	0.64466
2040.42117	0.64359
2038.49260	0.64257
2036.56404	0.64197
2034.63547	0.64142
2032.70691	0.64051
2030.77834	0.63943
2028.84978	0.63853
2026.92122	0.63791
2024.99265	0.63734
2023.06409	0.63654
2021.13552	0.63558
2019.20696	0.63456
2017.27839	0.63324
2015.34983	0.63171
2013.42126	0.63036
2011.49270	0.62923
2009.56414	0.62812
2007.63557	0.62687
2005.70701	0.62567
2003.77844	0.62476
2001.84988	0.62410
1999.92131	0.62338
1997.99275	0.62238
1996.06418	0.62147
1994.13562	0.62078
1992.20706	0.61963
1990.27849	0.61803
1988.34993	0.61644
1986.42136	0.61474
1984.49280	0.61291
1982.56423	0.61102
1980.63567	0.60921
1978.70710	0.60775
1976.77854	0.60647
1974.84998	0.60498
1972.92141	0.60330
1970.99285	0.60203
1969.06428	0.60124
1967.13572	0.60011
1965.20715	0.59854
1963.27859	0.59728
1961.35002	0.59643
1959.42146	0.59555
1957.49290	0.59454
1955.56433	0.59349
1953.63577	0.59231
1951.70720	0.59094
1949.77864	0.58966
1947.85007	0.58871
1945.92151	0.58798
1943.99294	0.58705
1942.06438	0.58531
1940.13582	0.58345
1938.20725	0.58229
1936.27869	0.58148
1934.35012	0.58072
1932.42156	0.58002
1930.49299	0.57946
1928.56443	0.57909
1926.63586	0.57896
1924.70730	0.57889
1922.77874	0.57851
1920.85017	0.57802
1918.92161	0.57734
1916.99304	0.57601
1915.06448	0.57473
1913.13591	0.57404
1911.20735	0.57344
1909.27878	0.57215
1907.35022	0.57015
1905.42166	0.56831
1903.49309	0.56674
1901.56453	0.56509
1899.63596	0.56377
1897.70740	0.56306
1895.77883	0.56223
1893.85027	0.56105
1891.92171	0.56022
1889.99314	0.55929
1888.06458	0.55770
1886.13601	0.55620
1884.20745	0.55477
1882.27888	0.55314
1880.35032	0.55152
1878.42175	0.54990
1876.49319	0.54833
1874.56463	0.54704
1872.63606	0.54644
1870.70750	0.54625
1868.77893	0.54483
1866.85037	0.54205
1864.92180	0.54025
1862.99324	0.53967
1861.06467	0.53952
1859.13611	0.53930
1857.20755	0.53888
1855.27898	0.53875
1853.35042	0.53912
1851.42185	0.53975
1849.49329	0.54068
1847.56472	0.54179
1845.63616	0.54212
1843.70759	0.54059
1841.77903	0.53892
1839.85047	0.53832
1837.92190	0.53785
1835.99334	0.53705
1834.06477	0.53651
1832.13621	0.53652
1830.20764	0.53587
1828.27908	0.53442
1826.35051	0.53335
1824.42195	0.53214
1822.49339	0.53101
1820.56482	0.53063
1818.63626	0.53049
1816.70769	0.53015
1814.77913	0.53016
1812.85056	0.53061
1810.92200	0.53042
1808.99343	0.52935
1807.06487	0.52837
1805.13631	0.52801
1803.20774	0.52792
1801.27918	0.52721
1799.35061	0.52591
1797.42205	0.52544
1795.49348	0.52595
1793.56492	0.52617
1791.63635	0.52490
1789.70779	0.52365
1787.77923	0.52394
1785.85066	0.52500
1783.92210	0.52624
1781.99353	0.52774
1780.06497	0.52928
1778.13640	0.53088
1776.20784	0.53313
1774.27927	0.53596
1772.35071	0.53776
1770.42215	0.53785
1768.49358	0.53816
1766.56502	0.53932
1764.63645	0.54154
1762.70789	0.54471
1760.77932	0.54855
1758.85076	0.55330
1756.92220	0.56001
1754.99363	0.56801
1753.06507	0.57721
1751.13650	0.59034
1749.20794	0.60680
1747.27937	0.62086
1745.35081	0.63176
1743.42224	0.64117
1741.49368	0.64942
1739.56512	0.65613
1737.63655	0.66089
1735.70799	0.66439
1733.77942	0.66686
1731.85086	0.66777
1729.92229	0.66849
1727.99373	0.67011
1726.06516	0.67358
1724.13660	0.67936
1722.20804	0.68650
1720.27947	0.69480
1718.35091	0.70763
1716.42234	0.72658
1714.49378	0.74307
1712.56521	0.75820
1710.63665	0.77656
1708.70808	0.79953
1706.77952	0.83161
1704.85096	0.87271
1702.92239	0.91080
1700.99383	0.96105
1699.06526	1.03912
1697.13670	1.11256
1695.20813	1.18247
1693.27957	1.23614
1691.35100	1.28006
1689.42244	1.33291
1687.49388	1.38210
1685.56531	1.42801
1683.63675	1.49113
1681.70818	1.53700
1679.77962	1.56435
1677.85105	1.58986
1675.92249	1.61706
1673.99392	1.64305
1672.06536	1.66351
1670.13680	1.68151
1668.20823	1.69790
1666.27967	1.70738
1664.35110	1.71639
1662.42254	1.72737
1660.49397	1.73510
1658.56541	1.74142
1656.63684	1.74571
1654.70828	1.74485
1652.77972	1.73786
1650.85115	1.74150
1648.92259	1.74928
1646.99402	1.74967
1645.06546	1.73935
1643.13689	1.72781
1641.20833	1.72030
1639.27976	1.71737
1637.35120	1.71685
1635.42264	1.70945
1633.49407	1.69818
1631.56551	1.69227
1629.63694	1.68677
1627.70838	1.67881
1625.77981	1.66831
1623.85125	1.65280
1621.92269	1.63245
1619.99412	1.61546
1618.06556	1.59491
1616.13699	1.55955
1614.20843	1.52872
1612.27986	1.50446
1610.35130	1.47723
1608.42273	1.44781
1606.49417	1.42207
1604.56561	1.40197
1602.63704	1.38594
1600.70848	1.37416
1598.77991	1.36660
1596.85135	1.36251
1594.92278	1.36011
1592.99422	1.35811
1591.06565	1.35831
1589.13709	1.36269
1587.20853	1.37106
1585.27996	1.38180
1583.35140	1.39509
1581.42283	1.41113
1579.49427	1.42774
1577.56570	1.44583
1575.63714	1.46650
1573.70857	1.48170
1571.78001	1.49434
1569.85145	1.51279
1567.92288	1.53299
1565.99432	1.54817
1564.06575	1.56212
1562.13719	1.57334
1560.20862	1.58322
1558.28006	1.60203
1556.35149	1.61622
1554.42293	1.62124
1552.49437	1.62232
1550.56580	1.62150
1548.63724	1.61933
1546.70867	1.61817
1544.78011	1.61915
1542.85154	1.62267
1540.92298	1.61745
1538.99441	1.59466
1537.06585	1.58649
1535.13729	1.58506
1533.20872	1.57701
1531.28016	1.56366
1529.35159	1.55414
1527.42303	1.54632
1525.49446	1.53806
1523.56590	1.53006
1521.63733	1.51907
1519.70877	1.51127
1517.78021	1.50537
1515.85164	1.49147
1513.92308	1.47329
1511.99451	1.45610
1510.06595	1.44094
1508.13738	1.41641
1506.20882	1.36669
1504.28025	1.33796
1502.35169	1.32184
1500.42313	1.30438
1498.49456	1.27981
1496.56600	1.24598
1494.63743	1.21883
1492.70887	1.20173
1490.78030	1.18201
1488.85174	1.15444
1486.92317	1.13315
1484.99461	1.12061
1483.06605	1.11218
1481.13748	1.10705
1479.20892	1.10701
1477.28035	1.11318
1475.35179	1.12522
1473.42322	1.14422
1471.49466	1.16495
1469.56610	1.17720
1467.63753	1.18547
1465.70897	1.19499
1463.78040	1.20473
1461.85184	1.21156
1459.92327	1.21809
1457.99471	1.22770
1456.06614	1.23493
1454.13758	1.23576
1452.20902	1.23496
1450.28045	1.23349
1448.35189	1.23135
1446.42332	1.22776
1444.49476	1.22239
1442.56619	1.21554
1440.63763	1.20893
1438.70906	1.20260
1436.78050	1.19206
1434.85194	1.17870
1432.92337	1.16835
1430.99481	1.15869
1429.06624	1.14953
1427.13768	1.14447
1425.20911	1.14320
1423.28055	1.14408
1421.35198	1.14665
1419.42342	1.15020
1417.49486	1.15306
1415.56629	1.15518
1413.63773	1.15772
1411.70916	1.16100
1409.78060	1.16525
1407.85203	1.17087
1405.92347	1.17852
1403.99490	1.18669
1402.06634	1.19273
1400.13778	1.19743
1398.20921	1.20145
1396.28065	1.20368
1394.35208	1.20357
1392.42352	1.20342
1390.49495	1.20529
1388.56639	1.20946
1386.63782	1.21559
1384.70926	1.22184
1382.78070	1.22670
1380.85213	1.22864
1378.92357	1.22626
1376.99500	1.21922
1375.06644	1.20581
1373.13787	1.18695
1371.20931	1.16879
1369.28074	1.15050
1367.35218	1.13100
1365.42362	1.11362
1363.49505	1.09721
1361.56649	1.08172
1359.63792	1.07152
1357.70936	1.06591
1355.78079	1.06191
1353.85223	1.05823
1351.92366	1.05515
1349.99510	1.05291
1348.06654	1.05105
1346.13797	1.04903
1344.20941	1.04744
1342.28084	1.04711
1340.35228	1.04808
1338.42371	1.04982
1336.49515	1.05299
1334.56659	1.05898
1332.63802	1.06747
1330.70946	1.07690
1328.78089	1.08531
1326.85233	1.09174
1324.92376	1.09712
1322.99520	1.10239
1321.06663	1.10767
1319.13807	1.11223
1317.20951	1.11524
1315.28094	1.11747
1313.35238	1.11955
1311.42381	1.12056
1309.49525	1.12027
1307.56668	1.11899
1305.63812	1.11689
1303.70955	1.11439
1301.78099	1.11148
1299.85243	1.10789
1297.92386	1.10358
1295.99530	1.09952
1294.06673	1.09748
1292.13817	1.09780
1290.20960	1.09946
1288.28104	1.10161
1286.35247	1.10384
1284.42391	1.10579
1282.49535	1.10705
1280.56678	1.10770
1278.63822	1.10845
1276.70965	1.10942
1274.78109	1.11034
1272.85252	1.11184
1270.92396	1.11399
1268.99539	1.11618
1267.06683	1.11833
1265.13827	1.11972
1263.20970	1.11942
1261.28114	1.11763
1259.35257	1.11490
1257.42401	1.11187
1255.49544	1.11006
1253.56688	1.11039
1251.63831	1.11157
1249.70975	1.11225
1247.78119	1.11281
1245.85262	1.11380
1243.92406	1.11473
1241.99549	1.11500
1240.06693	1.11459
1238.13836	1.11315
1236.20980	1.11001
1234.28123	1.10536
1232.35267	1.09986
1230.42411	1.09354
1228.49554	1.08620
1226.56698	1.07796
1224.63841	1.06911
1222.70985	1.06044
1220.78128	1.05289
1218.85272	1.04673
1216.92415	1.04208
1214.99559	1.03953
1213.06703	1.03955
1211.13846	1.04192
1209.20990	1.04521
1207.28133	1.04690
1205.35277	1.04497
1203.42420	1.03891
1201.49564	1.02971
1199.56708	1.01891
1197.63851	1.00716
1195.70995	0.99484
1193.78138	0.98337
1191.85282	0.97412
1189.92425	0.96687
1187.99569	0.96086
1186.06712	0.95622
1184.13856	0.95338
1182.21000	0.95285
1180.28143	0.95530
1178.35287	0.96118
1176.42430	0.97038
1174.49574	0.98192
1172.56717	0.99445
1170.63861	1.00745
1168.71004	1.02155
1166.78148	1.03757
1164.85292	1.05459
1162.92435	1.06975
1160.99579	1.08050
1159.06722	1.08556
1157.13866	1.08506
1155.21009	1.07997
1153.28153	1.07125
1151.35296	1.06031
1149.42440	1.04836
1147.49584	1.03627
1145.56727	1.02572
1143.63871	1.01898
1141.71014	1.01692
1139.78158	1.01848
1137.85301	1.02264
1135.92445	1.02933
1133.99588	1.03882
1132.06732	1.05153
1130.13876	1.06712
1128.21019	1.08376
1126.28163	1.10033
1124.35306	1.11710
1122.42450	1.13323
1120.49593	1.14699
1118.56737	1.15719
1116.63880	1.16298
1114.71024	1.16477
1112.78168	1.16316
1110.85311	1.15873
1108.92455	1.15373
1106.99598	1.14951
1105.06742	1.14557
1103.13885	1.14182
1101.21029	1.13933
1099.28172	1.14020
1097.35316	1.14472
1095.42460	1.15156
1093.49603	1.16097
1091.56747	1.17352
1089.63890	1.18859
1087.71034	1.20580
1085.78177	1.22498
1083.85321	1.24462
1081.92464	1.26146
1079.99608	1.27312
1078.06752	1.27952
1076.13895	1.27975
1074.21039	1.27287
1072.28182	1.26156
1070.35326	1.24914
1068.42469	1.23694
1066.49613	1.22518
1064.56756	1.21321
1062.63900	1.20057
1060.71044	1.18698
1058.78187	1.17251
1056.85331	1.15883
1054.92474	1.14748
1052.99618	1.13821
1051.06761	1.13006
1049.13905	1.12339
1047.21049	1.11960
1045.28192	1.11884
1043.35336	1.12120
1041.42479	1.12746
1039.49623	1.13600
1037.56766	1.14382
1035.63910	1.14921
1033.71053	1.15168
1031.78197	1.15178
1029.85341	1.14967
1027.92484	1.14461
1025.99628	1.13675
1024.06771	1.12760
1022.13915	1.11853
1020.21058	1.11028
1018.28202	1.10339
1016.35345	1.09631
1014.42489	1.08618
1012.49633	1.07239
1010.56776	1.05525
1008.63920	1.03459
1006.71063	1.01231
1004.78207	0.99134
1002.85350	0.97313
1000.92494	0.95797
998.99637	0.94582
997.06781	0.93634
995.13925	0.92805
993.21068	0.91906
991.28212	0.90838
989.35355	0.89601
987.42499	0.88297
985.49642	0.87037
983.56786	0.85859
981.63929	0.84769
979.71073	0.83796
977.78217	0.82969
975.85360	0.82192
973.92504	0.81300
971.99647	0.80282
970.06791	0.79216
968.13934	0.78128
966.21078	0.77076
964.28221	0.76239
962.35365	0.75824
960.42509	0.75973
958.49652	0.76697
956.56796	0.77713
954.63939	0.78471
952.71083	0.78589
950.78226	0.78085
948.85370	0.77202
946.92513	0.76219
944.99657	0.75327
943.06801	0.74592
941.13944	0.73965
939.21088	0.73378
937.28231	0.72815
935.35375	0.72270
933.42518	0.71742
931.49662	0.71259
929.56805	0.70863
927.63949	0.70585
925.71093	0.70446
923.78236	0.70439
921.85380	0.70474
919.92523	0.70405
917.99667	0.70195
916.06810	0.69929
914.13954	0.69678
912.21098	0.69482
910.28241	0.69374
908.35385	0.69357
906.42528	0.69425
904.49672	0.69558
902.56815	0.69708
900.63959	0.69829
898.71102	0.69890
896.78246	0.69879
894.85390	0.69797
892.92533	0.69639
890.99677	0.69401
889.06820	0.69122
887.13964	0.68852
885.21107	0.68646
883.28251	0.68543
881.35394	0.68504
879.42538	0.68472
877.49682	0.68455
875.56825	0.68453
873.63969	0.68434
871.71112	0.68381
869.78256	0.68316
867.85399	0.68282
865.92543	0.68273
863.99686	0.68264
862.06830	0.68285
860.13974	0.68387
858.21117	0.68585
856.28261	0.68874
854.35404	0.69226
852.42548	0.69568
850.49691	0.69868
848.56835	0.70168
846.63978	0.70504
844.71122	0.70875
842.78266	0.71253
840.85409	0.71627
838.92553	0.71992
836.99696	0.72352
835.06840	0.72717
833.13983	0.73061
831.21127	0.73342
829.28270	0.73550
827.35414	0.73710
825.42558	0.73866
823.49701	0.74081
821.56845	0.74371
819.63988	0.74658
817.71132	0.74876
815.78275	0.75058
813.85419	0.75262
811.92562	0.75530
809.99706	0.75845
808.06850	0.76088
806.13993	0.76182
804.21137	0.76205
802.28280	0.76257
800.35424	0.76314
798.42567	0.76345
796.49711	0.76374
794.56854	0.76415
792.63998	0.76537
790.71142	0.76758
788.78285	0.76981
786.85429	0.77198
784.92572	0.77465
782.99716	0.77782
781.06859	0.78108
779.14003	0.78424
777.21147	0.78738
775.28290	0.79043
773.35434	0.79346
771.42577	0.79655
769.49721	0.79974
767.56864	0.80350
765.64008	0.80759
763.71151	0.81161
761.78295	0.81578
759.85439	0.82007
757.92582	0.82456
755.99726	0.82965
754.06869	0.83533
752.14013	0.84171
750.21156	0.84910
748.28300	0.85666
746.35443	0.86289
744.42587	0.86774
742.49731	0.87199
740.56874	0.87588
738.64018	0.87952
736.71161	0.88306
734.78305	0.88651
732.85448	0.88964
730.92592	0.89236
728.99735	0.89503
727.06879	0.89814
725.14023	0.90209
723.21166	0.90674
721.28310	0.91097
719.35453	0.91352
717.42597	0.91491
715.49740	0.91675
713.56884	0.91967
711.64027	0.92338
709.71171	0.92758
707.78315	0.93207
705.85458	0.93636
703.92602	0.93944
701.99745	0.94115
700.06889	0.94243
698.14032	0.94271
696.21176	0.94093
694.28319	0.93866
692.35463	0.93769
690.42607	0.93731
688.49750	0.93675
686.56894	0.93699
684.64037	0.93871
682.71181	0.94186
680.78324	0.94588
678.85468	0.94915
676.92611	0.95122
674.99755	0.95357
673.06899	0.95697
671.14042	0.96119
669.21186	0.96716
667.28329	0.97364
665.35473	0.97707
663.42616	0.97957
661.49760	0.98209
659.56903	0.98405
657.64047	0.98515
655.71191	0.98555
653.78334	0.98550
651.85478	0.98558
649.92621	0.98612
647.99765	0.98754
646.06908	0.99032
644.14052	0.99449
642.21195	0.99871
640.28339	1.00094
638.35483	1.00192
636.42626	1.00229
634.49770	1.00055
632.56913	0.99823
630.64057	0.99795
628.71200	0.99920
626.78344	1.00034
624.85488	1.00201
622.92631	1.00567
620.99775	1.00928
619.06918	1.01037
617.14062	1.00969
615.21205	1.00983
613.28349	1.01110
611.35492	1.01135
609.42636	1.01164
607.49780	1.01452
605.56923	1.01755
603.64067	1.01804
601.71210	1.01819
599.78354	1.02021
