3997.91406	0.99825
3995.98550	0.99774
3994.05693	0.99813
3992.12837	0.99873
3990.19980	0.99803
3988.27124	0.99716
3986.34268	0.99691
3984.41411	0.99515
3982.48555	0.99264
3980.55698	0.99211
3978.62842	0.99266
3976.69985	0.99235
3974.77129	0.99182
3972.84272	0.99213
3970.91416	0.99344
3968.98560	0.99517
3967.05703	0.99563
3965.12847	0.99437
3963.19990	0.99202
3961.27134	0.98991
3959.34277	0.98988
3957.41421	0.99046
3955.48564	0.98994
3953.55708	0.98957
3951.62852	0.98969
3949.69995	0.98867
3947.77139	0.98698
3945.84282	0.98624
3943.91426	0.98365
3941.98569	0.98047
3940.05713	0.98194
3938.12856	0.98463
3936.20000	0.98561
3934.27144	0.98596
3932.34287	0.98447
3930.41431	0.98305
3928.48574	0.98521
3926.55718	0.98710
3924.62861	0.98420
3922.70005	0.98083
3920.77148	0.98090
3918.84292	0.98037
3916.91436	0.97791
3914.98579	0.97784
3913.05723	0.97951
3911.12866	0.97924
3909.20010	0.97879
3907.27153	0.98221
3905.34297	0.98710
3903.41440	0.98534
3901.48584	0.97559
3899.55728	0.96552
3897.62871	0.96286
3895.70015	0.96753
3893.77158	0.97229
3891.84302	0.96951
3889.91445	0.96669
3887.98589	0.97222
3886.05733	0.97806
3884.12876	0.97912
3882.20020	0.97671
3880.27163	0.96828
3878.34307	0.96540
3876.41450	0.97112
3874.48594	0.97646
3872.55737	0.97919
3870.62881	0.97643
3868.70025	0.96945
3866.77168	0.96718
3864.84312	0.96569
3862.91455	0.96424
3860.98599	0.96720
3859.05742	0.97249
3857.12886	0.97842
3855.20029	0.97908
3853.27173	0.96225
3851.34317	0.95138
3849.41460	0.95406
3847.48604	0.95867
3845.55747	0.96180
3843.62891	0.96258
3841.70034	0.96388
3839.77178	0.96477
3837.84321	0.95852
3835.91465	0.95227
3833.98609	0.95105
3832.05752	0.95045
3830.12896	0.95038
3828.20039	0.95267
3826.27183	0.95740
3824.34326	0.96368
3822.41470	0.96529
3820.48613	0.95860
3818.55757	0.95558
3816.62901	0.95086
3814.70044	0.94359
3812.77188	0.94414
3810.84331	0.94941
3808.91475	0.95308
3806.98618	0.95077
3805.05762	0.95008
3803.12905	0.95165
3801.20049	0.94481
3799.27193	0.93988
3797.34336	0.93903
3795.41480	0.93689
3793.48623	0.93736
3791.55767	0.93874
3789.62910	0.93903
3787.70054	0.93975
3785.77197	0.93967
3783.84341	0.93939
3781.91485	0.94118
3779.98628	0.94024
3778.05772	0.93509
3776.12915	0.93321
3774.20059	0.93563
3772.27202	0.93881
3770.34346	0.93850
3768.41489	0.93608
3766.48633	0.93554
3764.55777	0.93598
3762.62920	0.93843
3760.70064	0.94084
3758.77207	0.93897
3756.84351	0.93801
3754.91494	0.94322
3752.98638	0.95147
3751.05781	0.94968
3749.12925	0.93912
3747.20069	0.93770
3745.27212	0.93670
3743.34356	0.93273
3741.41499	0.93550
3739.48643	0.94274
3737.55786	0.94780
3735.62930	0.94198
3733.70074	0.93015
3731.77217	0.92778
3729.84361	0.93097
3727.91504	0.93287
3725.98648	0.93300
3724.05791	0.93379
3722.12935	0.93219
3720.20078	0.92783
3718.27222	0.92607
3716.34366	0.92865
3714.41509	0.93384
3712.48653	0.93487
3710.55796	0.92593
3708.62940	0.92189
3706.70083	0.92699
3704.77227	0.93387
3702.84370	0.93421
3700.91514	0.92754
3698.98658	0.92456
3697.05801	0.92612
3695.12945	0.92924
3693.20088	0.93463
3691.27232	0.93864
3689.34375	0.93170
3687.41519	0.92299
3685.48662	0.92190
3683.55806	0.92477
3681.62950	0.93009
3679.70093	0.93719
3677.77237	0.94338
3675.84380	0.94009
3673.91524	0.93495
3671.98667	0.93810
3670.05811	0.93872
3668.12954	0.93775
3666.20098	0.94105
3664.27242	0.94546
3662.34385	0.95061
3660.41529	0.95713
3658.48672	0.96226
3656.55816	0.96308
3654.62959	0.96577
3652.70103	0.97492
3650.77246	0.98370
3648.84390	0.98105
3646.91534	0.97919
3644.98677	0.98583
3643.05821	0.99402
3641.12964	0.99983
3639.20108	1.00368
3637.27251	1.00829
3635.34395	1.01460
3633.41538	1.02281
3631.48682	1.03104
3629.55826	1.03172
3627.62969	1.02682
3625.70113	1.03001
3623.77256	1.03714
3621.84400	1.04489
3619.91543	1.04959
3617.98687	1.05008
3616.05830	1.05504
3614.12974	1.06442
3612.20118	1.07273
3610.27261	1.07681
3608.34405	1.07681
3606.41548	1.07882
3604.48692	1.08628
3602.55835	1.09537
3600.62979	1.10115
3598.70123	1.10340
3596.77266	1.10570
3594.84410	1.10732
3592.91553	1.10895
3590.98697	1.11481
3589.05840	1.12289
3587.12984	1.12576
3585.20127	1.12656
3583.27271	1.13052
3581.34415	1.13503
3579.41558	1.14007
3577.48702	1.14646
3575.55845	1.15150
3573.62989	1.15421
3571.70132	1.15796
3569.77276	1.16203
3567.84419	1.16018
3565.91563	1.15787
3563.98707	1.16550
3562.05850	1.17473
3560.12994	1.17927
3558.20137	1.18319
3556.27281	1.19117
3554.34424	1.20009
3552.41568	1.20469
3550.48711	1.20760
3548.55855	1.21364
3546.62999	1.22030
3544.70142	1.22506
3542.77286	1.23011
3540.84429	1.23469
3538.91573	1.23707
3536.98716	1.23842
3535.05860	1.24078
3533.13003	1.24516
3531.20147	1.24959
3529.27291	1.25185
3527.34434	1.25634
3525.41578	1.26618
3523.48721	1.27492
3521.55865	1.27837
3519.63008	1.28105
3517.70152	1.28759
3515.77295	1.29710
3513.84439	1.30503
3511.91583	1.30980
3509.98726	1.31279
3508.05870	1.31368
3506.13013	1.31559
3504.20157	1.32174
3502.27300	1.32791
3500.34444	1.33281
3498.41587	1.33927
3496.48731	1.34736
3494.55875	1.35534
3492.63018	1.35869
3490.70162	1.35719
3488.77305	1.35747
3486.84449	1.36204
3484.91592	1.36788
3482.98736	1.37442
3481.05879	1.37844
3479.13023	1.37625
3477.20167	1.37199
3475.27310	1.36903
3473.34454	1.37075
3471.41597	1.37935
3469.48741	1.38869
3467.55884	1.39365
3465.63028	1.39599
3463.70171	1.39676
3461.77315	1.39444
3459.84459	1.39055
3457.91602	1.38932
3455.98746	1.39206
3454.05889	1.39626
3452.13033	1.39907
3450.20176	1.40147
3448.27320	1.40576
3446.34464	1.40975
3444.41607	1.41019
3442.48751	1.40917
3440.55894	1.40965
3438.63038	1.41207
3436.70181	1.41622
3434.77325	1.42069
3432.84468	1.42206
3430.91612	1.41849
3428.98756	1.41270
3427.05899	1.40963
3425.13043	1.41058
3423.20186	1.41256
3421.27330	1.41244
3419.34473	1.40965
3417.41617	1.40797
3415.48760	1.41103
3413.55904	1.41641
3411.63048	1.41940
3409.70191	1.41977
3407.77335	1.42091
3405.84478	1.42291
3403.91622	1.42262
3401.98765	1.42031
3400.05909	1.41766
3398.13052	1.41815
3396.20196	1.42409
3394.27340	1.42737
3392.34483	1.42274
3390.41627	1.41731
3388.48770	1.41693
3386.55914	1.42080
3384.63057	1.42354
3382.70201	1.42306
3380.77344	1.42329
3378.84488	1.42423
3376.91632	1.42422
3374.98775	1.42596
3373.05919	1.42991
3371.13062	1.43188
3369.20206	1.43179
3367.27349	1.43306
3365.34493	1.43533
3363.41636	1.43722
3361.48780	1.43772
3359.55924	1.43771
3357.63067	1.43920
3355.70211	1.44077
3353.77354	1.44245
3351.84498	1.44401
3349.91641	1.44214
3347.98785	1.43789
3346.05928	1.43573
3344.13072	1.43789
3342.20216	1.44213
3340.27359	1.44419
3338.34503	1.44363
3336.41646	1.44379
3334.48790	1.44604
3332.55933	1.44967
3330.63077	1.45427
3328.70220	1.45658
3326.77364	1.45552
3324.84508	1.45511
3322.91651	1.45448
3320.98795	1.45298
3319.05938	1.45474
3317.13082	1.45878
3315.20225	1.46084
3313.27369	1.46167
3311.34513	1.46430
3309.41656	1.46689
3307.48800	1.46687
3305.55943	1.46702
3303.63087	1.46840
3301.70230	1.46957
3299.77374	1.47111
3297.84517	1.47371
3295.91661	1.47645
3293.98805	1.47827
3292.05948	1.47953
3290.13092	1.47779
3288.20235	1.47273
3286.27379	1.47214
3284.34522	1.47705
3282.41666	1.47761
3280.48809	1.47127
3278.55953	1.46668
3276.63097	1.46671
3274.70240	1.46573
3272.77384	1.46315
3270.84527	1.46334
3268.91671	1.46643
3266.98814	1.46847
3265.05958	1.46701
3263.13101	1.46200
3261.20245	1.45543
3259.27389	1.45100
3257.34532	1.44821
3255.41676	1.44397
3253.48819	1.43772
3251.55963	1.43209
3249.63106	1.42982
3247.70250	1.42767
3245.77393	1.42354
3243.84537	1.42093
3241.91681	1.41894
3239.98824	1.41456
3238.05968	1.40872
3236.13111	1.40319
3234.20255	1.39956
3232.27398	1.39838
3230.34542	1.39681
3228.41685	1.39369
3226.48829	1.39051
3224.55973	1.38532
3222.63116	1.37862
3220.70260	1.37536
3218.77403	1.37461
3216.84547	1.37170
3214.91690	1.36693
3212.98834	1.36247
3211.05977	1.35802
3209.13121	1.35409
3207.20265	1.35245
3205.27408	1.35137
3203.34552	1.34756
3201.41695	1.34187
3199.48839	1.33720
3197.55982	1.33410
3195.63126	1.33066
3193.70269	1.32550
3191.77413	1.32020
3189.84557	1.31698
3187.91700	1.31516
3185.98844	1.31263
3184.05987	1.30935
3182.13131	1.30673
3180.20274	1.30398
3178.27418	1.29967
3176.34562	1.29434
3174.41705	1.28827
3172.48849	1.28246
3170.55992	1.27866
3168.63136	1.27655
3166.70279	1.27467
3164.77423	1.27190
3162.84566	1.26841
3160.91710	1.26555
3158.98854	1.26340
3157.05997	1.26118
3155.13141	1.25852
3153.20284	1.25609
3151.27428	1.25553
3149.34571	1.25573
3147.41715	1.25346
3145.48858	1.24938
3143.56002	1.24716
3141.63146	1.24734
3139.70289	1.24685
3137.77433	1.24387
3135.84576	1.24028
3133.91720	1.23873
3131.98863	1.23943
3130.06007	1.23982
3128.13150	1.23784
3126.20294	1.23532
3124.27438	1.23481
3122.34581	1.23607
3120.41725	1.23795
3118.48868	1.23943
3116.56012	1.24013
3114.63155	1.24035
3112.70299	1.23919
3110.77442	1.23661
3108.84586	1.23375
3106.91730	1.23206
3104.98873	1.23329
3103.06017	1.23584
3101.13160	1.23657
3099.20304	1.23539
3097.27447	1.23307
3095.34591	1.23019
3093.41734	1.22774
3091.48878	1.22605
3089.56022	1.22553
3087.63165	1.22625
3085.70309	1.22625
3083.77452	1.22379
3081.84596	1.21903
3079.91739	1.21377
3077.98883	1.21101
3076.06026	1.21078
3074.13170	1.21000
3072.20314	1.20782
3070.27457	1.20586
3068.34601	1.20469
3066.41744	1.20262
3064.48888	1.19811
3062.56031	1.19256
3060.63175	1.18841
3058.70318	1.18578
3056.77462	1.18305
3054.84606	1.17980
3052.91749	1.17542
3050.98893	1.16879
3049.06036	1.16251
3047.13180	1.15938
3045.20323	1.15744
3043.27467	1.15495
3041.34610	1.15204
3039.41754	1.14793
3037.48898	1.14370
3035.56041	1.14172
3033.63185	1.14077
3031.70328	1.13886
3029.77472	1.13602
3027.84615	1.13217
3025.91759	1.12796
3023.98903	1.12449
3022.06046	1.12143
3020.13190	1.11872
3018.20333	1.11622
3016.27477	1.11367
3014.34620	1.11169
3012.41764	1.10965
3010.48907	1.10730
3008.56051	1.10549
3006.63195	1.10376
3004.70338	1.10245
3002.77482	1.10224
3000.84625	1.10244
2998.91769	1.10311
2996.98912	1.10446
2995.06056	1.10503
2993.13199	1.10444
2991.20343	1.10482
2989.27487	1.10738
2987.34630	1.11124
2985.41774	1.11570
2983.48917	1.12026
2981.56061	1.12484
2979.63204	1.13072
2977.70348	1.13837
2975.77491	1.14517
2973.84635	1.14933
2971.91779	1.15347
2969.98922	1.15931
2968.06066	1.16528
2966.13209	1.17064
2964.20353	1.17492
2962.27496	1.17715
2960.34640	1.17751
2958.41783	1.17619
2956.48927	1.17303
2954.56071	1.16855
2952.63214	1.16285
2950.70358	1.15645
2948.77501	1.15202
2946.84645	1.15169
2944.91788	1.15474
2942.98932	1.15912
2941.06075	1.16411
2939.13219	1.17012
2937.20363	1.17746
2935.27506	1.18581
2933.34650	1.19340
2931.41793	1.19973
2929.48937	1.20614
2927.56080	1.21190
2925.63224	1.21671
2923.70367	1.22194
2921.77511	1.22706
2919.84655	1.23004
2917.91798	1.22806
2915.98942	1.21791
2914.06085	1.20022
2912.13229	1.18015
2910.20372	1.16258
2908.27516	1.14935
2906.34659	1.13939
2904.41803	1.13151
2902.48947	1.12627
2900.56090	1.12379
2898.63234	1.12245
2896.70377	1.12086
2894.77521	1.11904
2892.84664	1.11708
2890.91808	1.11434
2888.98952	1.11031
2887.06095	1.10617
2885.13239	1.10360
2883.20382	1.10227
2881.27526	1.10122
2879.34669	1.10058
2877.41813	1.10044
2875.48956	1.10016
2873.56100	1.09897
2871.63244	1.09614
2869.70387	1.09081
2867.77531	1.08343
2865.84674	1.07648
2863.91818	1.07228
2861.98961	1.07136
2860.06105	1.07288
2858.13248	1.07627
2856.20392	1.08178
2854.27536	1.08905
2852.34679	1.09623
2850.41823	1.09850
2848.48966	1.08942
2846.56110	1.06950
2844.63253	1.04733
2842.70397	1.02925
2840.77540	1.01582
2838.84684	1.00604
2836.91828	0.99899
2834.98971	0.99326
2833.06115	0.98763
2831.13258	0.98244
2829.20402	0.97861
2827.27545	0.97565
2825.34689	0.97246
2823.41832	0.96959
2821.48976	0.96766
2819.56120	0.96547
2817.63263	0.96258
2815.70407	0.96011
2813.77550	0.95819
2811.84694	0.95574
2809.91837	0.95265
2807.98981	0.95008
2806.06124	0.94821
2804.13268	0.94582
2802.20412	0.94268
2800.27555	0.93963
2798.34699	0.93700
2796.41842	0.93445
2794.48986	0.93166
2792.56129	0.92877
2790.63273	0.92603
2788.70416	0.92326
2786.77560	0.92073
2784.84704	0.91910
2782.91847	0.91780
2780.98991	0.91590
2779.06134	0.91359
2777.13278	0.91169
2775.20421	0.91039
2773.27565	0.90911
2771.34708	0.90733
2769.41852	0.90554
2767.48996	0.90421
2765.56139	0.90275
2763.63283	0.90066
2761.70426	0.89853
2759.77570	0.89680
2757.84713	0.89503
2755.91857	0.89289
2753.99001	0.89082
2752.06144	0.88929
2750.13288	0.88768
2748.20431	0.88524
2746.27575	0.88252
2744.34718	0.88060
2742.41862	0.87950
2740.49005	0.87822
2738.56149	0.87629
2736.63293	0.87454
2734.70436	0.87333
2732.77580	0.87208
2730.84723	0.87049
2728.91867	0.86889
2726.99010	0.86757
2725.06154	0.86615
2723.13297	0.86444
2721.20441	0.86302
2719.27585	0.86189
2717.34728	0.86033
2715.41872	0.85824
2713.49015	0.85626
2711.56159	0.85499
2709.63302	0.85441
2707.70446	0.85394
2705.77589	0.85293
2703.84733	0.85133
2701.91877	0.84992
2699.99020	0.84905
2698.06164	0.84836
2696.13307	0.84812
2694.20451	0.84838
2692.27594	0.84837
2690.34738	0.84777
2688.41881	0.84671
2686.49025	0.84535
2684.56169	0.84391
2682.63312	0.84258
2680.70456	0.84155
2678.77599	0.84074
2676.84743	0.83977
2674.91886	0.83867
2672.99030	0.83759
2671.06173	0.83630
2669.13317	0.83487
2667.20461	0.83373
2665.27604	0.83287
2663.34748	0.83198
2661.41891	0.83088
2659.49035	0.82967
2657.56178	0.82855
2655.63322	0.82743
2653.70465	0.82612
2651.77609	0.82475
2649.84753	0.82348
2647.91896	0.82199
2645.99040	0.82048
2644.06183	0.81931
2642.13327	0.81798
2640.20470	0.81657
2638.27614	0.81562
2636.34757	0.81459
2634.41901	0.81315
2632.49045	0.81182
2630.56188	0.81075
2628.63332	0.80976
2626.70475	0.80872
2624.77619	0.80745
2622.84762	0.80610
2620.91906	0.80499
2618.99049	0.80422
2617.06193	0.80361
2615.13337	0.80254
2613.20480	0.80083
2611.27624	0.79900
2609.34767	0.79735
2607.41911	0.79587
2605.49054	0.79479
2603.56198	0.79441
2601.63342	0.79429
2599.70485	0.79390
2597.77629	0.79339
2595.84772	0.79273
2593.91916	0.79191
2591.99059	0.79133
2590.06203	0.79070
2588.13346	0.78961
2586.20490	0.78851
2584.27634	0.78759
2582.34777	0.78658
2580.41921	0.78593
2578.49064	0.78587
2576.56208	0.78555
2574.63351	0.78442
2572.70495	0.78315
2570.77638	0.78213
2568.84782	0.78115
2566.91926	0.78034
2564.99069	0.77969
2563.06213	0.77903
2561.13356	0.77838
2559.20500	0.77789
2557.27643	0.77759
2555.34787	0.77723
2553.41930	0.77674
2551.49074	0.77622
2549.56218	0.77575
2547.63361	0.77546
2545.70505	0.77525
2543.77648	0.77490
2541.84792	0.77468
2539.91935	0.77484
2537.99079	0.77507
2536.06222	0.77486
2534.13366	0.77422
2532.20510	0.77362
2530.27653	0.77325
2528.34797	0.77290
2526.41940	0.77256
2524.49084	0.77206
2522.56227	0.77133
2520.63371	0.77058
2518.70514	0.76978
2516.77658	0.76883
2514.84802	0.76767
2512.91945	0.76602
2510.99089	0.76378
2509.06232	0.76182
2507.13376	0.76070
2505.20519	0.75955
2503.27663	0.75792
2501.34806	0.75622
2499.41950	0.75439
2497.49094	0.75245
2495.56237	0.75088
2493.63381	0.74968
2491.70524	0.74834
2489.77668	0.74672
2487.84811	0.74533
2485.91955	0.74449
2483.99098	0.74377
2482.06242	0.74278
2480.13386	0.74180
2478.20529	0.74105
2476.27673	0.74034
2474.34816	0.73949
2472.41960	0.73859
2470.49103	0.73802
2468.56247	0.73805
2466.63391	0.73811
2464.70534	0.73767
2462.77678	0.73714
2460.84821	0.73685
2458.91965	0.73666
2456.99108	0.73631
2455.06252	0.73589
2453.13395	0.73559
2451.20539	0.73521
2449.27683	0.73478
2447.34826	0.73459
2445.41970	0.73461
2443.49113	0.73446
2441.56257	0.73390
2439.63400	0.73334
2437.70544	0.73307
2435.77687	0.73284
2433.84831	0.73287
2431.91975	0.73333
2429.99118	0.73368
2428.06262	0.73367
2426.13405	0.73350
2424.20549	0.73335
2422.27692	0.73348
2420.34836	0.73411
2418.41979	0.73482
2416.49123	0.73513
2414.56267	0.73513
2412.63410	0.73497
2410.70554	0.73460
2408.77697	0.73417
2406.84841	0.73387
2404.91984	0.73369
2402.99128	0.73337
2401.06271	0.73262
2399.13415	0.73152
2397.20559	0.73061
2395.27702	0.73011
2393.34846	0.72966
2391.41989	0.72903
2389.49133	0.72824
2387.56276	0.72727
2385.63420	0.72667
2383.70563	0.72698
2381.77707	0.72766
2379.84851	0.72776
2377.91994	0.72756
2375.99138	0.72825
2374.06281	0.72980
2372.13425	0.73162
2370.20568	0.73378
2368.27712	0.73496
2366.34855	0.73406
2364.41999	0.73248
2362.49143	0.73045
2360.56286	0.72824
2358.63430	0.72804
2356.70573	0.72863
2354.77717	0.72637
2352.84860	0.72144
2350.92004	0.71848
2348.99147	0.71959
2347.06291	0.72303
2345.13435	0.72625
2343.20578	0.72737
2341.27722	0.72631
2339.34865	0.72481
2337.42009	0.72433
2335.49152	0.72392
2333.56296	0.72281
2331.63440	0.72173
2329.70583	0.72134
2327.77727	0.72117
2325.84870	0.72019
2323.92014	0.71867
2321.99157	0.71770
2320.06301	0.71729
2318.13444	0.71651
2316.20588	0.71528
2314.27732	0.71437
2312.34875	0.71413
2310.42019	0.71403
2308.49162	0.71347
2306.56306	0.71271
2304.63449	0.71255
2302.70593	0.71279
2300.77736	0.71282
2298.84880	0.71290
2296.92024	0.71327
2294.99167	0.71342
2293.06311	0.71334
2291.13454	0.71362
2289.20598	0.71414
2287.27741	0.71429
2285.34885	0.71417
2283.42028	0.71429
2281.49172	0.71472
2279.56316	0.71514
2277.63459	0.71524
2275.70603	0.71489
2273.77746	0.71432
2271.84890	0.71392
2269.92033	0.71360
2267.99177	0.71305
2266.06320	0.71222
2264.13464	0.71118
2262.20608	0.71007
2260.27751	0.70898
2258.34895	0.70784
2256.42038	0.70686
2254.49182	0.70613
2252.56325	0.70513
2250.63469	0.70369
2248.70612	0.70236
2246.77756	0.70128
2244.84900	0.70031
2242.92043	0.69964
2240.99187	0.69911
2239.06330	0.69848
2237.13474	0.69803
2235.20617	0.69776
2233.27761	0.69733
2231.34904	0.69678
2229.42048	0.69633
2227.49192	0.69593
2225.56335	0.69550
2223.63479	0.69519
2221.70622	0.69504
2219.77766	0.69503
2217.84909	0.69511
2215.92053	0.69514
2213.99196	0.69511
2212.06340	0.69491
2210.13484	0.69447
2208.20627	0.69403
2206.27771	0.69356
2204.34914	0.69328
2202.42058	0.69358
2200.49201	0.69406
2198.56345	0.69430
2196.63488	0.69456
2194.70632	0.69495
2192.77776	0.69523
2190.84919	0.69546
2188.92063	0.69590
2186.99206	0.69621
2185.06350	0.69611
2183.13493	0.69607
2181.20637	0.69652
2179.27781	0.69730
2177.34924	0.69804
2175.42068	0.69850
2173.49211	0.69863
2171.56355	0.69850
2169.63498	0.69851
2167.70642	0.69885
2165.77785	0.69910
2163.84929	0.69889
2161.92073	0.69833
2159.99216	0.69783
2158.06360	0.69755
2156.13503	0.69732
2154.20647	0.69711
2152.27790	0.69693
2150.34934	0.69652
2148.42077	0.69598
2146.49221	0.69561
2144.56365	0.69535
2142.63508	0.69499
2140.70652	0.69446
2138.77795	0.69379
2136.84939	0.69311
2134.92082	0.69242
2132.99226	0.69166
2131.06369	0.69093
2129.13513	0.69040
2127.20657	0.69010
2125.27800	0.68992
2123.34944	0.68974
2121.42087	0.68950
2119.49231	0.68906
2117.56374	0.68829
2115.63518	0.68751
2113.70661	0.68721
2111.77805	0.68712
2109.84949	0.68677
2107.92092	0.68621
2105.99236	0.68563
2104.06379	0.68513
2102.13523	0.68480
2100.20666	0.68453
2098.27810	0.68417
2096.34953	0.68361
2094.42097	0.68294
2092.49241	0.68243
2090.56384	0.68195
2088.63528	0.68126
2086.70671	0.68067
2084.77815	0.68030
2082.84958	0.68000
2080.92102	0.67964
2078.99245	0.67911
2077.06389	0.67853
2075.13533	0.67790
2073.20676	0.67719
2071.27820	0.67659
2069.34963	0.67612
2067.42107	0.67583
2065.49250	0.67554
2063.56394	0.67498
2061.63537	0.67446
2059.70681	0.67418
2057.77825	0.67388
2055.84968	0.67345
2053.92112	0.67308
2051.99255	0.67276
2050.06399	0.67232
2048.13542	0.67190
2046.20686	0.67166
2044.27830	0.67160
2042.34973	0.67158
2040.42117	0.67131
2038.49260	0.67082
2036.56404	0.67034
2034.63547	0.66985
2032.70691	0.66928
2030.77834	0.66868
2028.84978	0.66801
2026.92122	0.66723
2024.99265	0.66642
2023.06409	0.66569
2021.13552	0.66508
2019.20696	0.66446
2017.27839	0.66331
2015.34983	0.66181
2013.42126	0.66067
2011.49270	0.65977
2009.56414	0.65870
2007.63557	0.65741
2005.70701	0.65599
2003.77844	0.65467
2001.84988	0.65350
1999.92131	0.65227
1997.99275	0.65115
1996.06418	0.65082
1994.13562	0.65098
1992.20706	0.65030
1990.27849	0.64881
1988.34993	0.64749
1986.42136	0.64642
1984.49280	0.64556
1982.56423	0.64483
1980.63567	0.64422
1978.70710	0.64399
1976.77854	0.64397
1974.84998	0.64373
1972.92141	0.64329
1970.99285	0.64316
1969.06428	0.64334
1967.13572	0.64289
1965.20715	0.64173
1963.27859	0.64071
1961.35002	0.63998
1959.42146	0.63937
1957.49290	0.63891
1955.56433	0.63829
1953.63577	0.63741
1951.70720	0.63656
1949.77864	0.63582
1947.85007	0.63518
1945.92151	0.63485
1943.99294	0.63420
1942.06438	0.63216
1940.13582	0.62983
1938.20725	0.62843
1936.27869	0.62739
1934.35012	0.62625
1932.42156	0.62499
1930.49299	0.62377
1928.56443	0.62269
1926.63586	0.62194
1924.70730	0.62142
1922.77874	0.62039
1920.85017	0.61916
1918.92161	0.61769
1916.99304	0.61552
1915.06448	0.61405
1913.13591	0.61386
1911.20735	0.61387
1909.27878	0.61316
1907.35022	0.61199
1905.42166	0.61089
1903.49309	0.60972
1901.56453	0.60844
1899.63596	0.60749
1897.70740	0.60693
1895.77883	0.60609
1893.85027	0.60483
1891.92171	0.60380
1889.99314	0.60231
1888.06458	0.59996
1886.13601	0.59806
1884.20745	0.59657
1882.27888	0.59494
1880.35032	0.59319
1878.42175	0.59127
1876.49319	0.58923
1874.56463	0.58752
1872.63606	0.58707
1870.70750	0.58729
1868.77893	0.58537
1866.85037	0.58129
1864.92180	0.57841
1862.99324	0.57674
1861.06467	0.57531
1859.13611	0.57374
1857.20755	0.57191
1855.27898	0.57021
1853.35042	0.56890
1851.42185	0.56797
1849.49329	0.56752
1847.56472	0.56742
1845.63616	0.56649
1843.70759	0.56357
1841.77903	0.56134
1839.85047	0.56090
1837.92190	0.56039
1835.99334	0.55924
1834.06477	0.55866
1832.13621	0.55887
1830.20764	0.55785
1828.27908	0.55553
1826.35051	0.55378
1824.42195	0.55174
1822.49339	0.54967
1820.56482	0.54834
1818.63626	0.54708
1816.70769	0.54558
1814.77913	0.54464
1812.85056	0.54424
1810.92200	0.54307
1808.99343	0.54123
1807.06487	0.53993
1805.13631	0.53951
1803.20774	0.53966
1801.27918	0.53934
1799.35061	0.53838
1797.42205	0.53830
1795.49348	0.53940
1793.56492	0.54002
1791.63635	0.53818
1789.70779	0.53607
1787.77923	0.53586
1785.85066	0.53622
1783.92210	0.53634
1781.99353	0.53632
1780.06497	0.53564
1778.13640	0.53508
1776.20784	0.53578
1774.27927	0.53695
1772.35071	0.53560
1770.42215	0.53203
1768.49358	0.52975
1766.56502	0.52872
1764.63645	0.52895
1762.70789	0.52919
1760.77932	0.52864
1758.85076	0.52891
1756.92220	0.53005
1754.99363	0.53206
1753.06507	0.53597
1751.13650	0.54181
1749.20794	0.54765
1747.27937	0.55235
1745.35081	0.55702
1743.42224	0.56209
1741.49368	0.56690
1739.56512	0.57067
1737.63655	0.57416
1735.70799	0.57793
1733.77942	0.58035
1731.85086	0.58078
1729.92229	0.58169
1727.99373	0.58359
1726.06516	0.58674
1724.13660	0.59130
1722.20804	0.59695
1720.27947	0.60394
1718.35091	0.61349
1716.42234	0.62447
1714.49378	0.63351
1712.56521	0.64332
1710.63665	0.65633
1708.70808	0.67301
1706.77952	0.69623
1704.85096	0.72539
1702.92239	0.75240
1700.99383	0.78772
1699.06526	0.83916
1697.13670	0.88345
1695.20813	0.92254
1693.27957	0.95277
1691.35100	0.97828
1689.42244	1.00741
1687.49388	1.03402
1685.56531	1.05990
1683.63675	1.09503
1681.70818	1.12077
1679.77962	1.13650
1677.85105	1.15003
1675.92249	1.16437
1673.99392	1.18005
1672.06536	1.19368
1670.13680	1.20542
1668.20823	1.21552
1666.27967	1.22307
1664.35110	1.23066
1662.42254	1.23782
1660.49397	1.24183
1658.56541	1.24496
1656.63684	1.24885
1654.70828	1.25221
1652.77972	1.24721
1650.85115	1.24262
1648.92259	1.24288
1646.99402	1.24077
1645.06546	1.23710
1643.13689	1.23580
1641.20833	1.23625
1639.27976	1.23790
1637.35120	1.23908
1635.42264	1.23489
1633.49407	1.23062
1631.56551	1.23043
1629.63694	1.23014
1627.70838	1.22807
1625.77981	1.22452
1623.85125	1.21682
1621.92269	1.20542
1619.99412	1.19690
1618.06556	1.18559
1616.13699	1.16355
1614.20843	1.14472
1612.27986	1.13051
1610.35130	1.11347
1608.42273	1.09368
1606.49417	1.07567
1604.56561	1.06161
1602.63704	1.05014
1600.70848	1.04073
1598.77991	1.03375
1596.85135	1.02876
1594.92278	1.02501
1592.99422	1.02266
1591.06565	1.02178
1589.13709	1.02245
1587.20853	1.02570
1585.27996	1.03182
1583.35140	1.04020
1581.42283	1.04962
1579.49427	1.05895
1577.56570	1.06935
1575.63714	1.08112
1573.70857	1.08981
1571.78001	1.09765
1569.85145	1.10860
1567.92288	1.11991
1565.99432	1.12906
1564.06575	1.13841
1562.13719	1.14738
1560.20862	1.15694
1558.28006	1.16695
1556.35149	1.17130
1554.42293	1.17494
1552.49437	1.17808
1550.56580	1.17936
1548.63724	1.17915
1546.70867	1.18038
1544.78011	1.18371
1542.85154	1.18665
1540.92298	1.18195
1538.99441	1.17033
1537.06585	1.16715
1535.13729	1.16584
1533.20872	1.16040
1531.28016	1.15495
1529.35159	1.15347
1527.42303	1.15242
1525.49446	1.14986
1523.56590	1.14763
1521.63733	1.14523
1519.70877	1.14417
1517.78021	1.14305
1515.85164	1.13789
1513.92308	1.13071
1511.99451	1.12459
1510.06595	1.12029
1508.13738	1.10792
1506.20882	1.07349
1504.28025	1.05464
1502.35169	1.04568
1500.42313	1.03482
1498.49456	1.01723
1496.56600	0.99232
1494.63743	0.97303
1492.70887	0.96184
1490.78030	0.94849
1488.85174	0.92669
1486.92317	0.90753
1484.99461	0.89566
1483.06605	0.88748
1481.13748	0.88084
1479.20892	0.87667
1477.28035	0.87700
1475.35179	0.88238
1473.42322	0.89174
1471.49466	0.90046
1469.56610	0.90647
1467.63753	0.91246
1465.70897	0.91966
1463.78040	0.92684
1461.85184	0.93283
1459.92327	0.93921
1457.99471	0.94721
1456.06614	0.95167
1454.13758	0.95174
1452.20902	0.95169
1450.28045	0.95198
1448.35189	0.95123
1446.42332	0.94828
1444.49476	0.94484
1442.56619	0.94142
1440.63763	0.93791
1438.70906	0.93406
1436.78050	0.92674
1434.85194	0.91721
1432.92337	0.90985
1430.99481	0.90177
1429.06624	0.89214
1427.13768	0.88498
1425.20911	0.88066
1423.28055	0.87797
1421.35198	0.87717
1419.42342	0.87703
1417.49486	0.87593
1415.56629	0.87499
1413.63773	0.87433
1411.70916	0.87326
1409.78060	0.87231
1407.85203	0.87274
1405.92347	0.87442
1403.99490	0.87606
1402.06634	0.87786
1400.13778	0.88061
1398.20921	0.88349
1396.28065	0.88523
1394.35208	0.88595
1392.42352	0.88778
1390.49495	0.89230
1388.56639	0.90014
1386.63782	0.91094
1384.70926	0.92219
1382.78070	0.93290
1380.85213	0.94130
1378.92357	0.94450
1376.99500	0.94245
1375.06644	0.93463
1373.13787	0.92105
1371.20931	0.90627
1369.28074	0.88980
1367.35218	0.87124
1365.42362	0.85437
1363.49505	0.83757
1361.56649	0.82035
1359.63792	0.80811
1357.70936	0.80052
1355.78079	0.79495
1353.85223	0.79091
1351.92366	0.78852
1349.99510	0.78751
1348.06654	0.78759
1346.13797	0.78861
1344.20941	0.79061
1342.28084	0.79387
1340.35228	0.79841
1338.42371	0.80326
1336.49515	0.80865
1334.56659	0.81620
1332.63802	0.82591
1330.70946	0.83604
1328.78089	0.84448
1326.85233	0.85019
1324.92376	0.85342
1322.99520	0.85546
1321.06663	0.85744
1319.13807	0.85921
1317.20951	0.86025
1315.28094	0.86070
1313.35238	0.86067
1311.42381	0.85980
1309.49525	0.85781
1307.56668	0.85470
1305.63812	0.85053
1303.70955	0.84573
1301.78099	0.84084
1299.85243	0.83594
1297.92386	0.83080
1295.99530	0.82592
1294.06673	0.82239
1292.13817	0.82071
1290.20960	0.82049
1288.28104	0.82104
1286.35247	0.82193
1284.42391	0.82304
1282.49535	0.82436
1280.56678	0.82596
1278.63822	0.82826
1276.70965	0.83185
1274.78109	0.83676
1272.85252	0.84285
1270.92396	0.84966
1268.99539	0.85630
1267.06683	0.86219
1265.13827	0.86689
1263.20970	0.86987
1261.28114	0.87077
1259.35257	0.86988
1257.42401	0.86844
1255.49544	0.86734
1253.56688	0.86623
1251.63831	0.86496
1249.70975	0.86387
1247.78119	0.86267
1245.85262	0.86079
1243.92406	0.85831
1241.99549	0.85576
1240.06693	0.85308
1238.13836	0.84983
1236.20980	0.84596
1234.28123	0.84152
1232.35267	0.83628
1230.42411	0.83022
1228.49554	0.82371
1226.56698	0.81690
1224.63841	0.80979
1222.70985	0.80291
1220.78128	0.79687
1218.85272	0.79187
1216.92415	0.78855
1214.99559	0.78804
1213.06703	0.79054
1211.13846	0.79491
1209.20990	0.79961
1207.28133	0.80307
1205.35277	0.80376
1203.42420	0.80149
1201.49564	0.79752
1199.56708	0.79292
1197.63851	0.78799
1195.70995	0.78334
1193.78138	0.78029
1191.85282	0.77956
1189.92425	0.78060
1187.99569	0.78253
1186.06712	0.78531
1184.13856	0.78965
1182.21000	0.79572
1180.28143	0.80311
1178.35287	0.81152
1176.42430	0.82068
1174.49574	0.83025
1172.56717	0.84019
1170.63861	0.85110
1168.71004	0.86345
1166.78148	0.87676
1164.85292	0.88965
1162.92435	0.89968
1160.99579	0.90471
1159.06722	0.90406
1157.13866	0.89807
1155.21009	0.88800
1153.28153	0.87552
1151.35296	0.86178
1149.42440	0.84795
1147.49584	0.83558
1145.56727	0.82612
1143.63871	0.82048
1141.71014	0.81863
1139.78158	0.82020
1137.85301	0.82508
1135.92445	0.83292
1133.99588	0.84305
1132.06732	0.85529
1130.13876	0.86979
1128.21019	0.88583
1126.28163	0.90121
1124.35306	0.91389
1122.42450	0.92330
1120.49593	0.92970
1118.56737	0.93308
1116.63880	0.93295
1114.71024	0.92944
1112.78168	0.92362
1110.85311	0.91633
1108.92455	0.90946
1106.99598	0.90489
1105.06742	0.90198
1103.13885	0.90024
1101.21029	0.90120
1099.28172	0.90551
1097.35316	0.91237
1095.42460	0.92158
1093.49603	0.93327
1091.56747	0.94661
1089.63890	0.96015
1087.71034	0.97374
1085.78177	0.98809
1083.85321	1.00157
1081.92464	1.01152
1079.99608	1.01729
1078.06752	1.01942
1076.13895	1.01834
1074.21039	1.01432
1072.28182	1.00795
1070.35326	1.00009
1068.42469	0.99154
1066.49613	0.98337
1064.56756	0.97601
1062.63900	0.96912
1060.71044	0.96250
1058.78187	0.95599
1056.85331	0.95008
1054.92474	0.94632
1052.99618	0.94543
1051.06761	0.94628
1049.13905	0.94805
1047.21049	0.95179
1045.28192	0.95843
1043.35336	0.96722
1041.42479	0.97607
1039.49623	0.98260
1037.56766	0.98576
1035.63910	0.98605
1033.71053	0.98461
1031.78197	0.98167
1029.85341	0.97631
1027.92484	0.96830
1025.99628	0.95836
1024.06771	0.94796
1022.13915	0.93849
1020.21058	0.92989
1018.28202	0.92140
1016.35345	0.91230
1014.42489	0.90126
1012.49633	0.88669
1010.56776	0.86858
1008.63920	0.84880
1006.71063	0.82910
1004.78207	0.81049
1002.85350	0.79394
1000.92494	0.78009
998.99637	0.76890
997.06781	0.76020
995.13925	0.75321
993.21068	0.74654
991.28212	0.73953
989.35355	0.73267
987.42499	0.72677
985.49642	0.72228
983.56786	0.71941
981.63929	0.71811
979.71073	0.71814
977.78217	0.71887
975.85360	0.71900
973.92504	0.71710
971.99647	0.71279
970.06791	0.70735
968.13934	0.70273
966.21078	0.70028
964.28221	0.70062
962.35365	0.70486
960.42509	0.71447
958.49652	0.72846
956.56796	0.74223
954.63939	0.75052
952.71083	0.75134
950.78226	0.74684
948.85370	0.74095
946.92513	0.73670
944.99657	0.73509
943.06801	0.73572
941.13944	0.73769
939.21088	0.74047
937.28231	0.74431
935.35375	0.74955
933.42518	0.75560
931.49662	0.76168
929.56805	0.76782
927.63949	0.77441
925.71093	0.78151
923.78236	0.78867
921.85380	0.79487
919.92523	0.79947
917.99667	0.80313
916.06810	0.80677
914.13954	0.81071
912.21098	0.81492
910.28241	0.81937
908.35385	0.82419
906.42528	0.82927
904.49672	0.83376
902.56815	0.83689
900.63959	0.83844
898.71102	0.83835
896.78246	0.83678
894.85390	0.83414
892.92533	0.83063
890.99677	0.82626
889.06820	0.82121
887.13964	0.81615
885.21107	0.81192
883.28251	0.80882
881.35394	0.80658
879.42538	0.80501
877.49682	0.80424
875.56825	0.80413
873.63969	0.80454
871.71112	0.80599
869.78256	0.80849
867.85399	0.81120
865.92543	0.81368
863.99686	0.81639
862.06830	0.81986
860.13974	0.82414
858.21117	0.82888
856.28261	0.83326
854.35404	0.83673
852.42548	0.83977
850.49691	0.84286
848.56835	0.84565
846.63978	0.84826
844.71122	0.85117
842.78266	0.85434
840.85409	0.85784
838.92553	0.86169
836.99696	0.86529
835.06840	0.86812
833.13983	0.87056
831.21127	0.87354
829.28270	0.87728
827.35414	0.88100
825.42558	0.88374
823.49701	0.88577
821.56845	0.88839
819.63988	0.89183
817.71132	0.89527
815.78275	0.89909
813.85419	0.90372
811.92562	0.90798
809.99706	0.91143
808.06850	0.91517
806.13993	0.91967
804.21137	0.92439
802.28280	0.92916
800.35424	0.93458
798.42567	0.94027
796.49711	0.94526
794.56854	0.94957
792.63998	0.95394
790.71142	0.95880
788.78285	0.96328
786.85429	0.96618
784.92572	0.96739
782.99716	0.96763
781.06859	0.96754
779.14003	0.96695
777.21147	0.96547
775.28290	0.96281
773.35434	0.95867
771.42577	0.95390
769.49721	0.94994
767.56864	0.94655
765.64008	0.94275
763.71151	0.93873
761.78295	0.93557
759.85439	0.93435
757.92582	0.93494
755.99726	0.93661
754.06869	0.93943
752.14013	0.94365
750.21156	0.94898
748.28300	0.95482
746.35443	0.96090
744.42587	0.96785
742.49731	0.97602
740.56874	0.98451
738.64018	0.99212
736.71161	0.99931
734.78305	1.00753
732.85448	1.01684
730.92592	1.02645
728.99735	1.03542
727.06879	1.04318
725.14023	1.04953
723.21166	1.05430
721.28310	1.05839
719.35453	1.06193
717.42597	1.06282
715.49740	1.06091
713.56884	1.05859
711.64027	1.05704
709.71171	1.05547
707.78315	1.05308
705.85458	1.04981
703.92602	1.04616
701.99745	1.04258
700.06889	1.03924
698.14032	1.03709
696.21176	1.03654
694.28319	1.03611
692.35463	1.03512
690.42607	1.03355
688.49750	1.03098
686.56894	1.02844
684.64037	1.02760
682.71181	1.02816
680.78324	1.02801
678.85468	1.02630
676.92611	1.02485
674.99755	1.02374
673.06899	1.02176
671.14042	1.02009
669.21186	1.01751
667.28329	1.01023
665.35473	1.00306
663.42616	0.99646
661.49760	0.98946
659.56903	0.98279
657.64047	0.97559
655.71191	0.96857
653.78334	0.96270
651.85478	0.95677
649.92621	0.95064
647.99765	0.94557
646.06908	0.94149
644.14052	0.93850
642.21195	0.93806
640.28339	0.94036
638.35483	0.94435
636.42626	0.94933
634.49770	0.95529
632.56913	0.96223
630.64057	0.96969
628.71200	0.97764
626.78344	0.98579
624.85488	0.99440
622.92631	1.00477
620.99775	1.01715
619.06918	1.03056
617.14062	1.04262
615.21205	1.05186
613.28349	1.06006
611.35492	1.06672
609.42636	1.06925
607.49780	1.06880
605.56923	1.06910
603.64067	1.07096
601.71210	1.07083
599.78354	1.06624
