3997.91406	0.97375
3995.98550	0.97550
3994.05693	0.97628
3992.12837	0.97592
3990.19980	0.97579
3988.27124	0.97565
3986.34268	0.97483
3984.41411	0.97378
3982.48555	0.97369
3980.55698	0.97406
3978.62842	0.97324
3976.69985	0.97108
3974.77129	0.96830
3972.84272	0.96611
3970.91416	0.96585
3968.98560	0.96721
3967.05703	0.96852
3965.12847	0.96874
3963.19990	0.96810
3961.27134	0.96746
3959.34277	0.96671
3957.41421	0.96459
3955.48564	0.96221
3953.55708	0.96250
3951.62852	0.96515
3949.69995	0.96675
3947.77139	0.96599
3945.84282	0.96475
3943.91426	0.96299
3941.98569	0.96073
3940.05713	0.95947
3938.12856	0.95964
3936.20000	0.96174
3934.27144	0.96406
3932.34287	0.96272
3930.41431	0.95833
3928.48574	0.95644
3926.55718	0.95846
3924.62861	0.96042
3922.70005	0.96043
3920.77148	0.96086
3918.84292	0.96065
3916.91436	0.95701
3914.98579	0.95245
3913.05723	0.95093
3911.12866	0.95227
3909.20010	0.95581
3907.27153	0.96112
3905.34297	0.96476
3903.41440	0.96253
3901.48584	0.95742
3899.55728	0.95368
3897.62871	0.95302
3895.70015	0.95591
3893.77158	0.95913
3891.84302	0.95696
3889.91445	0.95374
3887.98589	0.95527
3886.05733	0.95448
3884.12876	0.95058
3882.20020	0.94914
3880.27163	0.94472
3878.34307	0.94207
3876.41450	0.94625
3874.48594	0.95227
3872.55737	0.95672
3870.62881	0.95553
3868.70025	0.95074
3866.77168	0.95106
3864.84312	0.95156
3862.91455	0.94776
3860.98599	0.94613
3859.05742	0.95002
3857.12886	0.95835
3855.20029	0.96498
3853.27173	0.95304
3851.34317	0.93733
3849.41460	0.93619
3847.48604	0.94105
3845.55747	0.94616
3843.62891	0.94982
3841.70034	0.95477
3839.77178	0.95939
3837.84321	0.95516
3835.91465	0.94704
3833.98609	0.94245
3832.05752	0.93958
3830.12896	0.93922
3828.20039	0.94119
3826.27183	0.94318
3824.34326	0.94755
3822.41470	0.95206
3820.48613	0.94776
3818.55757	0.94310
3816.62901	0.93893
3814.70044	0.93269
3812.77188	0.93270
3810.84331	0.93771
3808.91475	0.94243
3806.98618	0.94326
3805.05762	0.94530
3803.12905	0.94666
3801.20049	0.93681
3799.27193	0.93057
3797.34336	0.93224
3795.41480	0.93207
3793.48623	0.93176
3791.55767	0.93215
3789.62910	0.93265
3787.70054	0.93547
3785.77197	0.93795
3783.84341	0.93707
3781.91485	0.93579
3779.98628	0.93294
3778.05772	0.92851
3776.12915	0.92757
3774.20059	0.93025
3772.27202	0.93404
3770.34346	0.93418
3768.41489	0.93062
3766.48633	0.92799
3764.55777	0.92652
3762.62920	0.92868
3760.70064	0.93401
3758.77207	0.93658
3756.84351	0.93650
3754.91494	0.94133
3752.98638	0.95172
3751.05781	0.95254
3749.12925	0.94178
3747.20069	0.94044
3745.27212	0.93885
3743.34356	0.93216
3741.41499	0.93415
3739.48643	0.94382
3737.55786	0.95262
3735.62930	0.94869
3733.70074	0.93381
3731.77217	0.92537
3729.84361	0.92632
3727.91504	0.93165
3725.98648	0.93414
3724.05791	0.93168
3722.12935	0.92857
3720.20078	0.92586
3718.27222	0.92436
3716.34366	0.92718
3714.41509	0.93517
3712.48653	0.94001
3710.55796	0.93057
3708.62940	0.92185
3706.70083	0.92261
3704.77227	0.92767
3702.84370	0.92889
3700.91514	0.92413
3698.98658	0.92286
3697.05801	0.92574
3695.12945	0.92993
3693.20088	0.93684
3691.27232	0.94333
3689.34375	0.93693
3687.41519	0.92560
3685.48662	0.92365
3683.55806	0.92652
3681.62950	0.93059
3679.70093	0.93694
3677.77237	0.94458
3675.84380	0.94191
3673.91524	0.93536
3671.98667	0.93926
3670.05811	0.94074
3668.12954	0.93713
3666.20098	0.93812
3664.27242	0.94187
3662.34385	0.94622
3660.41529	0.95123
3658.48672	0.95613
3656.55816	0.95962
3654.62959	0.96602
3652.70103	0.97953
3650.77246	0.99392
3648.84390	0.98689
3646.91534	0.97314
3644.98677	0.97488
3643.05821	0.98138
3641.12964	0.98613
3639.20108	0.99027
3637.27251	0.99546
3635.34395	1.00123
3633.41538	1.00977
3631.48682	1.02051
3629.55826	1.02158
3627.62969	1.01206
3625.70113	1.01319
3623.77256	1.02116
3621.84400	1.03036
3619.91543	1.03583
3617.98687	1.03538
3616.05830	1.03806
3614.12974	1.04388
3612.20118	1.04916
3610.27261	1.05394
3608.34405	1.05563
3606.41548	1.05627
3604.48692	1.06218
3602.55835	1.07181
3600.62979	1.07949
3598.70123	1.08295
3596.77266	1.08413
3594.84410	1.08465
3592.91553	1.08733
3590.98697	1.09311
3589.05840	1.09820
3587.12984	1.09873
3585.20127	1.09988
3583.27271	1.10324
3581.34415	1.10587
3579.41558	1.10777
3577.48702	1.10944
3575.55845	1.11179
3573.62989	1.11635
3571.70132	1.12455
3569.77276	1.13590
3567.84419	1.14471
3565.91563	1.14444
3563.98707	1.14472
3562.05850	1.14947
3560.12994	1.15139
3558.20137	1.14971
3556.27281	1.15029
3554.34424	1.15367
3552.41568	1.15803
3550.48711	1.16381
3548.55855	1.17113
3546.62999	1.17735
3544.70142	1.17858
3542.77286	1.17667
3540.84429	1.17718
3538.91573	1.18269
3536.98716	1.18937
3535.05860	1.19105
3533.13003	1.19110
3531.20147	1.19525
3529.27291	1.20019
3527.34434	1.20291
3525.41578	1.20632
3523.48721	1.20878
3521.55865	1.20922
3519.63008	1.21142
3517.70152	1.21606
3515.77295	1.22135
3513.84439	1.22644
3511.91583	1.23082
3509.98726	1.23413
3508.05870	1.23656
3506.13013	1.23934
3504.20157	1.24411
3502.27300	1.24948
3500.34444	1.25219
3498.41587	1.25363
3496.48731	1.25682
3494.55875	1.26189
3492.63018	1.26679
3490.70162	1.26999
3488.77305	1.27132
3486.84449	1.27145
3484.91592	1.27152
3482.98736	1.27262
3481.05879	1.27342
3479.13023	1.27158
3477.20167	1.26976
3475.27310	1.27207
3473.34454	1.27692
3471.41597	1.28002
3469.48741	1.28106
3467.55884	1.28002
3465.63028	1.27675
3463.70171	1.27572
3461.77315	1.27890
3459.84459	1.28140
3457.91602	1.28211
3455.98746	1.28463
3454.05889	1.28855
3452.13033	1.29081
3450.20176	1.29112
3448.27320	1.29155
3446.34464	1.29300
3444.41607	1.29480
3442.48751	1.29703
3440.55894	1.30009
3438.63038	1.30428
3436.70181	1.30783
3434.77325	1.30819
3432.84468	1.30741
3430.91612	1.30601
3428.98756	1.30238
3427.05899	1.30025
3425.13043	1.30099
3423.20186	1.30164
3421.27330	1.30197
3419.34473	1.30207
3417.41617	1.30218
3415.48760	1.30359
3413.55904	1.30536
3411.63048	1.30571
3409.70191	1.30395
3407.77335	1.30259
3405.84478	1.30498
3403.91622	1.30864
3401.98765	1.31001
3400.05909	1.30841
3398.13052	1.30474
3396.20196	1.30333
3394.27340	1.30619
3392.34483	1.30988
3390.41627	1.31168
3388.48770	1.31163
3386.55914	1.31088
3384.63057	1.31117
3382.70201	1.31379
3380.77344	1.31673
3378.84488	1.31660
3376.91632	1.31481
3374.98775	1.31536
3373.05919	1.31856
3371.13062	1.32232
3369.20206	1.32477
3367.27349	1.32371
3365.34493	1.32090
3363.41636	1.32098
3361.48780	1.32287
3359.55924	1.32380
3357.63067	1.32528
3355.70211	1.32746
3353.77354	1.32749
3351.84498	1.32529
3349.91641	1.32370
3347.98785	1.32398
3346.05928	1.32518
3344.13072	1.32608
3342.20216	1.32722
3340.27359	1.32974
3338.34503	1.33303
3336.41646	1.33536
3334.48790	1.33509
3332.55933	1.33256
3330.63077	1.32988
3328.70220	1.33047
3326.77364	1.33607
3324.84508	1.34161
3322.91651	1.34173
3320.98795	1.33926
3319.05938	1.33991
3317.13082	1.34343
3315.20225	1.34442
3313.27369	1.34230
3311.34513	1.34154
3309.41656	1.34384
3307.48800	1.34821
3305.55943	1.35267
3303.63087	1.35428
3301.70230	1.35243
3299.77374	1.35044
3297.84517	1.35079
3295.91661	1.35184
3293.98805	1.35161
3292.05948	1.34951
3290.13092	1.34651
3288.20235	1.34649
3286.27379	1.35012
3284.34522	1.35398
3282.41666	1.35677
3280.48809	1.35683
3278.55953	1.35227
3276.63097	1.34754
3274.70240	1.34737
3272.77384	1.34825
3270.84527	1.34691
3268.91671	1.34649
3266.98814	1.34880
3265.05958	1.35208
3263.13101	1.35364
3261.20245	1.35126
3259.27389	1.34608
3257.34532	1.34175
3255.41676	1.34070
3253.48819	1.34111
3251.55963	1.33963
3249.63106	1.33730
3247.70250	1.33638
3245.77393	1.33656
3243.84537	1.33639
3241.91681	1.33410
3239.98824	1.32924
3238.05968	1.32424
3236.13111	1.32195
3234.20255	1.32154
3232.27398	1.31926
3230.34542	1.31480
3228.41685	1.31208
3226.48829	1.31231
3224.55973	1.31217
3222.63116	1.30964
3220.70260	1.30633
3218.77403	1.30366
3216.84547	1.30178
3214.91690	1.30109
3212.98834	1.30084
3211.05977	1.29999
3209.13121	1.29870
3207.20265	1.29643
3205.27408	1.29298
3203.34552	1.28969
3201.41695	1.28754
3199.48839	1.28495
3197.55982	1.28036
3195.63126	1.27678
3193.70269	1.27642
3191.77413	1.27585
3189.84557	1.27270
3187.91700	1.26949
3185.98844	1.26791
3184.05987	1.26588
3182.13131	1.26294
3180.20274	1.26101
3178.27418	1.26010
3176.34562	1.25900
3174.41705	1.25684
3172.48849	1.25365
3170.55992	1.25021
3168.63136	1.24761
3166.70279	1.24546
3164.77423	1.24157
3162.84566	1.23737
3160.91710	1.23577
3158.98854	1.23484
3157.05997	1.23252
3155.13141	1.23033
3153.20284	1.22910
3151.27428	1.22739
3149.34571	1.22493
3147.41715	1.22238
3145.48858	1.22006
3143.56002	1.21874
3141.63146	1.21803
3139.70289	1.21729
3137.77433	1.21735
3135.84576	1.21801
3133.91720	1.21803
3131.98863	1.21776
3130.06007	1.21828
3128.13150	1.21821
3126.20294	1.21604
3124.27438	1.21345
3122.34581	1.21231
3120.41725	1.21173
3118.48868	1.21064
3116.56012	1.20979
3114.63155	1.21007
3112.70299	1.21108
3110.77442	1.21132
3108.84586	1.21132
3106.91730	1.21320
3104.98873	1.21514
3103.06017	1.21364
3101.13160	1.20961
3099.20304	1.20694
3097.27447	1.20679
3095.34591	1.20665
3093.41734	1.20575
3091.48878	1.20593
3089.56022	1.20658
3087.63165	1.20524
3085.70309	1.20164
3083.77452	1.19743
3081.84596	1.19437
3079.91739	1.19351
3077.98883	1.19336
3076.06026	1.19195
3074.13170	1.18969
3072.20314	1.18773
3070.27457	1.18723
3068.34601	1.18802
3066.41744	1.18748
3064.48888	1.18455
3062.56031	1.18147
3060.63175	1.17868
3058.70318	1.17523
3056.77462	1.17267
3054.84606	1.17171
3052.91749	1.17070
3050.98893	1.16848
3049.06036	1.16418
3047.13180	1.15807
3045.20323	1.15248
3043.27467	1.14919
3041.34610	1.14738
3039.41754	1.14517
3037.48898	1.14219
3035.56041	1.13937
3033.63185	1.13703
3031.70328	1.13519
3029.77472	1.13379
3027.84615	1.13201
3025.91759	1.13020
3023.98903	1.12938
3022.06046	1.12799
3020.13190	1.12450
3018.20333	1.12068
3016.27477	1.11860
3014.34620	1.11789
3012.41764	1.11689
3010.48907	1.11441
3008.56051	1.11146
3006.63195	1.11004
3004.70338	1.10977
3002.77482	1.10875
3000.84625	1.10682
2998.91769	1.10504
2996.98912	1.10453
2995.06056	1.10652
2993.13199	1.10999
2991.20343	1.11208
2989.27487	1.11280
2987.34630	1.11405
2985.41774	1.11650
2983.48917	1.12005
2981.56061	1.12386
2979.63204	1.12723
2977.70348	1.13082
2975.77491	1.13512
2973.84635	1.13963
2971.91779	1.14391
2969.98922	1.14750
2968.06066	1.15033
2966.13209	1.15277
2964.20353	1.15518
2962.27496	1.15789
2960.34640	1.15979
2958.41783	1.15945
2956.48927	1.15722
2954.56071	1.15414
2952.63214	1.15108
2950.70358	1.14839
2948.77501	1.14645
2946.84645	1.14571
2944.91788	1.14624
2942.98932	1.14826
2941.06075	1.15137
2939.13219	1.15576
2937.20363	1.16308
2935.27506	1.17239
2933.34650	1.17987
2931.41793	1.18474
2929.48937	1.18895
2927.56080	1.19363
2925.63224	1.19948
2923.70367	1.20520
2921.77511	1.20827
2919.84655	1.20822
2917.91798	1.20434
2915.98942	1.19494
2914.06085	1.18086
2912.13229	1.16592
2910.20372	1.15257
2908.27516	1.14081
2906.34659	1.13146
2904.41803	1.12458
2902.48947	1.11895
2900.56090	1.11463
2898.63234	1.11182
2896.70377	1.10973
2894.77521	1.10712
2892.84664	1.10352
2890.91808	1.09969
2888.98952	1.09621
2887.06095	1.09327
2885.13239	1.09112
2883.20382	1.08974
2881.27526	1.08901
2879.34669	1.08938
2877.41813	1.09087
2875.48956	1.09157
2873.56100	1.08983
2871.63244	1.08622
2869.70387	1.08178
2867.77531	1.07707
2865.84674	1.07260
2863.91818	1.06944
2861.98961	1.06875
2860.06105	1.07025
2858.13248	1.07302
2856.20392	1.07692
2854.27536	1.08203
2852.34679	1.08725
2850.41823	1.08859
2848.48966	1.08054
2846.56110	1.06263
2844.63253	1.04166
2842.70397	1.02422
2840.77540	1.01178
2838.84684	1.00342
2836.91828	0.99752
2834.98971	0.99217
2833.06115	0.98703
2831.13258	0.98270
2829.20402	0.97898
2827.27545	0.97597
2825.34689	0.97367
2823.41832	0.97118
2821.48976	0.96811
2819.56120	0.96445
2817.63263	0.96045
2815.70407	0.95702
2813.77550	0.95448
2811.84694	0.95261
2809.91837	0.95103
2807.98981	0.94882
2806.06124	0.94543
2804.13268	0.94162
2802.20412	0.93864
2800.27555	0.93634
2798.34699	0.93381
2796.41842	0.93121
2794.48986	0.92902
2792.56129	0.92681
2790.63273	0.92400
2788.70416	0.92118
2786.77560	0.91920
2784.84704	0.91756
2782.91847	0.91575
2780.98991	0.91423
2779.06134	0.91307
2777.13278	0.91189
2775.20421	0.91017
2773.27565	0.90773
2771.34708	0.90523
2769.41852	0.90307
2767.48996	0.90089
2765.56139	0.89874
2763.63283	0.89688
2761.70426	0.89483
2759.77570	0.89251
2757.84713	0.89045
2755.91857	0.88859
2753.99001	0.88709
2752.06144	0.88600
2750.13288	0.88455
2748.20431	0.88251
2746.27575	0.88070
2744.34718	0.87920
2742.41862	0.87755
2740.49005	0.87609
2738.56149	0.87501
2736.63293	0.87369
2734.70436	0.87199
2732.77580	0.87059
2730.84723	0.86951
2728.91867	0.86788
2726.99010	0.86539
2725.06154	0.86288
2723.13297	0.86131
2721.20441	0.86055
2719.27585	0.85960
2717.34728	0.85799
2715.41872	0.85584
2713.49015	0.85343
2711.56159	0.85124
2709.63302	0.84971
2707.70446	0.84870
2705.77589	0.84773
2703.84733	0.84617
2701.91877	0.84403
2699.99020	0.84221
2698.06164	0.84083
2696.13307	0.83949
2694.20451	0.83845
2692.27594	0.83789
2690.34738	0.83714
2688.41881	0.83547
2686.49025	0.83359
2684.56169	0.83242
2682.63312	0.83134
2680.70456	0.82974
2678.77599	0.82796
2676.84743	0.82650
2674.91886	0.82550
2672.99030	0.82496
2671.06173	0.82471
2669.13317	0.82439
2667.20461	0.82372
2665.27604	0.82248
2663.34748	0.82083
2661.41891	0.81941
2659.49035	0.81829
2657.56178	0.81703
2655.63322	0.81562
2653.70465	0.81401
2651.77609	0.81197
2649.84753	0.81006
2647.91896	0.80883
2645.99040	0.80795
2644.06183	0.80711
2642.13327	0.80629
2640.20470	0.80536
2638.27614	0.80431
2636.34757	0.80354
2634.41901	0.80327
2632.49045	0.80317
2630.56188	0.80275
2628.63332	0.80177
2626.70475	0.80035
2624.77619	0.79899
2622.84762	0.79796
2620.91906	0.79696
2618.99049	0.79573
2617.06193	0.79441
2615.13337	0.79318
2613.20480	0.79190
2611.27624	0.79054
2609.34767	0.78912
2607.41911	0.78760
2605.49054	0.78641
2603.56198	0.78583
2601.63342	0.78505
2599.70485	0.78357
2597.77629	0.78184
2595.84772	0.78041
2593.91916	0.77946
2591.99059	0.77854
2590.06203	0.77720
2588.13346	0.77566
2586.20490	0.77455
2584.27634	0.77399
2582.34777	0.77356
2580.41921	0.77306
2578.49064	0.77232
2576.56208	0.77124
2574.63351	0.77011
2572.70495	0.76914
2570.77638	0.76796
2568.84782	0.76633
2566.91926	0.76448
2564.99069	0.76291
2563.06213	0.76204
2561.13356	0.76154
2559.20500	0.76092
2557.27643	0.75997
2555.34787	0.75860
2553.41930	0.75712
2551.49074	0.75599
2549.56218	0.75512
2547.63361	0.75431
2545.70505	0.75355
2543.77648	0.75269
2541.84792	0.75164
2539.91935	0.75068
2537.99079	0.75008
2536.06222	0.74946
2534.13366	0.74824
2532.20510	0.74675
2530.27653	0.74560
2528.34797	0.74471
2526.41940	0.74379
2524.49084	0.74266
2522.56227	0.74126
2520.63371	0.73993
2518.70514	0.73910
2516.77658	0.73839
2514.84802	0.73741
2512.91945	0.73646
2510.99089	0.73568
2509.06232	0.73501
2507.13376	0.73437
2505.20519	0.73343
2503.27663	0.73214
2501.34806	0.73078
2499.41950	0.72970
2497.49094	0.72894
2495.56237	0.72816
2493.63381	0.72705
2491.70524	0.72557
2489.77668	0.72389
2487.84811	0.72244
2485.91955	0.72152
2483.99098	0.72066
2482.06242	0.71952
2480.13386	0.71853
2478.20529	0.71769
2476.27673	0.71662
2474.34816	0.71566
2472.41960	0.71507
2470.49103	0.71448
2468.56247	0.71353
2466.63391	0.71229
2464.70534	0.71109
2462.77678	0.71008
2460.84821	0.70918
2458.91965	0.70821
2456.99108	0.70711
2455.06252	0.70618
2453.13395	0.70547
2451.20539	0.70469
2449.27683	0.70367
2447.34826	0.70243
2445.41970	0.70138
2443.49113	0.70076
2441.56257	0.70028
2439.63400	0.69958
2437.70544	0.69861
2435.77687	0.69736
2433.84831	0.69590
2431.91975	0.69467
2429.99118	0.69391
2428.06262	0.69316
2426.13405	0.69170
2424.20549	0.68972
2422.27692	0.68828
2420.34836	0.68753
2418.41979	0.68674
2416.49123	0.68575
2414.56267	0.68491
2412.63410	0.68462
2410.70554	0.68457
2408.77697	0.68398
2406.84841	0.68294
2404.91984	0.68191
2402.99128	0.68069
2401.06271	0.67902
2399.13415	0.67734
2397.20559	0.67626
2395.27702	0.67550
2393.34846	0.67437
2391.41989	0.67316
2389.49133	0.67261
2387.56276	0.67298
2385.63420	0.67427
2383.70563	0.67643
2381.77707	0.67929
2379.84851	0.68270
2377.91994	0.68693
2375.99138	0.69215
2374.06281	0.69771
2372.13425	0.70333
2370.20568	0.70980
2368.27712	0.71663
2366.34855	0.72190
2364.41999	0.72508
2362.49143	0.72564
2360.56286	0.72179
2358.63430	0.71396
2356.70573	0.70584
2354.77717	0.69877
2352.84860	0.69090
2350.92004	0.68508
2348.99147	0.68486
2347.06291	0.68918
2345.13435	0.69404
2343.20578	0.69511
2341.27722	0.69327
2339.34865	0.69156
2337.42009	0.69057
2335.49152	0.68939
2333.56296	0.68821
2331.63440	0.68675
2329.70583	0.68456
2327.77727	0.68231
2325.84870	0.67974
2323.92014	0.67649
2321.99157	0.67286
2320.06301	0.66926
2318.13444	0.66621
2316.20588	0.66377
2314.27732	0.66143
2312.34875	0.65883
2310.42019	0.65595
2308.49162	0.65285
2306.56306	0.64991
2304.63449	0.64749
2302.70593	0.64566
2300.77736	0.64410
2298.84880	0.64245
2296.92024	0.64074
2294.99167	0.63909
2293.06311	0.63755
2291.13454	0.63620
2289.20598	0.63485
2287.27741	0.63330
2285.34885	0.63182
2283.42028	0.63082
2281.49172	0.63015
2279.56316	0.62944
2277.63459	0.62861
2275.70603	0.62773
2273.77746	0.62673
2271.84890	0.62538
2269.92033	0.62378
2267.99177	0.62260
2266.06320	0.62205
2264.13464	0.62151
2262.20608	0.62046
2260.27751	0.61938
2258.34895	0.61886
2256.42038	0.61852
2254.49182	0.61789
2252.56325	0.61716
2250.63469	0.61647
2248.70612	0.61558
2246.77756	0.61448
2244.84900	0.61351
2242.92043	0.61267
2240.99187	0.61178
2239.06330	0.61086
2237.13474	0.60993
2235.20617	0.60895
2233.27761	0.60809
2231.34904	0.60739
2229.42048	0.60662
2227.49192	0.60578
2225.56335	0.60506
2223.63479	0.60431
2221.70622	0.60341
2219.77766	0.60264
2217.84909	0.60213
2215.92053	0.60175
2213.99196	0.60136
2212.06340	0.60095
2210.13484	0.60057
2208.20627	0.60019
2206.27771	0.59982
2204.34914	0.59938
2202.42058	0.59880
2200.49201	0.59818
2198.56345	0.59755
2196.63488	0.59683
2194.70632	0.59610
2192.77776	0.59527
2190.84919	0.59423
2188.92063	0.59314
2186.99206	0.59228
2185.06350	0.59149
2183.13493	0.59056
2181.20637	0.58963
2179.27781	0.58897
2177.34924	0.58864
2175.42068	0.58842
2173.49211	0.58795
2171.56355	0.58723
2169.63498	0.58668
2167.70642	0.58620
2165.77785	0.58548
2163.84929	0.58467
2161.92073	0.58389
2159.99216	0.58307
2158.06360	0.58228
2156.13503	0.58169
2154.20647	0.58127
2152.27790	0.58072
2150.34934	0.57989
2148.42077	0.57895
2146.49221	0.57809
2144.56365	0.57731
2142.63508	0.57655
2140.70652	0.57576
2138.77795	0.57495
2136.84939	0.57412
2134.92082	0.57318
2132.99226	0.57212
2131.06369	0.57128
2129.13513	0.57084
2127.20657	0.57046
2125.27800	0.56983
2123.34944	0.56903
2121.42087	0.56827
2119.49231	0.56753
2117.56374	0.56658
2115.63518	0.56545
2113.70661	0.56439
2111.77805	0.56351
2109.84949	0.56275
2107.92092	0.56209
2105.99236	0.56150
2104.06379	0.56075
2102.13523	0.55967
2100.20666	0.55850
2098.27810	0.55747
2096.34953	0.55656
2094.42097	0.55583
2092.49241	0.55536
2090.56384	0.55479
2088.63528	0.55386
2086.70671	0.55287
2084.77815	0.55203
2082.84958	0.55125
2080.92102	0.55054
2078.99245	0.54994
2077.06389	0.54937
2075.13533	0.54863
2073.20676	0.54760
2071.27820	0.54652
2069.34963	0.54581
2067.42107	0.54546
2065.49250	0.54462
2063.56394	0.54306
2061.63537	0.54165
2059.70681	0.54062
2057.77825	0.53959
2055.84968	0.53851
2053.92112	0.53755
2051.99255	0.53670
2050.06399	0.53595
2048.13542	0.53521
2046.20686	0.53429
2044.27830	0.53331
2042.34973	0.53242
2040.42117	0.53133
2038.49260	0.52994
2036.56404	0.52848
2034.63547	0.52708
2032.70691	0.52571
2030.77834	0.52443
2028.84978	0.52332
2026.92122	0.52227
2024.99265	0.52131
2023.06409	0.52058
2021.13552	0.52031
2019.20696	0.52034
2017.27839	0.51984
2015.34983	0.51865
2013.42126	0.51763
2011.49270	0.51685
2009.56414	0.51595
2007.63557	0.51484
2005.70701	0.51353
2003.77844	0.51222
2001.84988	0.51107
1999.92131	0.51003
1997.99275	0.50915
1996.06418	0.50881
1994.13562	0.50891
1992.20706	0.50852
1990.27849	0.50747
1988.34993	0.50645
1986.42136	0.50559
1984.49280	0.50490
1982.56423	0.50431
1980.63567	0.50375
1978.70710	0.50325
1976.77854	0.50254
1974.84998	0.50143
1972.92141	0.50033
1970.99285	0.49981
1969.06428	0.49961
1967.13572	0.49849
1965.20715	0.49649
1963.27859	0.49496
1961.35002	0.49397
1959.42146	0.49300
1957.49290	0.49216
1955.56433	0.49141
1953.63577	0.49053
1951.70720	0.48968
1949.77864	0.48919
1947.85007	0.48924
1945.92151	0.48963
1943.99294	0.48958
1942.06438	0.48818
1940.13582	0.48632
1938.20725	0.48515
1936.27869	0.48430
1934.35012	0.48345
1932.42156	0.48254
1930.49299	0.48160
1928.56443	0.48086
1926.63586	0.48082
1924.70730	0.48142
1922.77874	0.48146
1920.85017	0.48088
1918.92161	0.48021
1916.99304	0.47884
1915.06448	0.47756
1913.13591	0.47740
1911.20735	0.47769
1909.27878	0.47722
1907.35022	0.47598
1905.42166	0.47491
1903.49309	0.47411
1901.56453	0.47329
1899.63596	0.47280
1897.70740	0.47286
1895.77883	0.47280
1893.85027	0.47241
1891.92171	0.47241
1889.99314	0.47212
1888.06458	0.47092
1886.13601	0.47008
1884.20745	0.46961
1882.27888	0.46899
1880.35032	0.46838
1878.42175	0.46762
1876.49319	0.46663
1874.56463	0.46601
1872.63606	0.46677
1870.70750	0.46859
1868.77893	0.46863
1866.85037	0.46581
1864.92180	0.46359
1862.99324	0.46291
1861.06467	0.46288
1859.13611	0.46287
1857.20755	0.46261
1855.27898	0.46233
1853.35042	0.46227
1851.42185	0.46270
1849.49329	0.46384
1847.56472	0.46554
1845.63616	0.46645
1843.70759	0.46432
1841.77903	0.46150
1839.85047	0.46067
1837.92190	0.46054
1835.99334	0.46010
1834.06477	0.46034
1832.13621	0.46184
1830.20764	0.46260
1828.27908	0.46159
1826.35051	0.46068
1824.42195	0.45966
1822.49339	0.45862
1820.56482	0.45835
1818.63626	0.45831
1816.70769	0.45795
1814.77913	0.45801
1812.85056	0.45871
1810.92200	0.45853
1808.99343	0.45721
1807.06487	0.45647
1805.13631	0.45710
1803.20774	0.45870
1801.27918	0.45985
1799.35061	0.45981
1797.42205	0.46031
1795.49348	0.46223
1793.56492	0.46382
1791.63635	0.46239
1789.70779	0.45996
1787.77923	0.45945
1785.85066	0.45986
1783.92210	0.46044
1781.99353	0.46124
1780.06497	0.46151
1778.13640	0.46185
1776.20784	0.46380
1774.27927	0.46716
1772.35071	0.46899
1770.42215	0.46775
1768.49358	0.46645
1766.56502	0.46645
1764.63645	0.46841
1762.70789	0.47144
1760.77932	0.47385
1758.85076	0.47617
1756.92220	0.47927
1754.99363	0.48366
1753.06507	0.49055
1751.13650	0.50026
1749.20794	0.50966
1747.27937	0.51612
1745.35081	0.52131
1743.42224	0.52637
1741.49368	0.53114
1739.56512	0.53496
1737.63655	0.53829
1735.70799	0.54158
1733.77942	0.54212
1731.85086	0.53935
1729.92229	0.53727
1727.99373	0.53653
1726.06516	0.53781
1724.13660	0.54085
1722.20804	0.54513
1720.27947	0.55148
1718.35091	0.56058
1716.42234	0.56886
1714.49378	0.57388
1712.56521	0.58070
1710.63665	0.59151
1708.70808	0.60646
1706.77952	0.62804
1704.85096	0.65551
1702.92239	0.68155
1700.99383	0.71672
1699.06526	0.76796
1697.13670	0.81257
1695.20813	0.85189
1693.27957	0.88141
1691.35100	0.90691
1689.42244	0.93716
1687.49388	0.96482
1685.56531	0.99163
1683.63675	1.02776
1681.70818	1.05176
1679.77962	1.06498
1677.85105	1.07787
1675.92249	1.09342
1673.99392	1.10971
1672.06536	1.12287
1670.13680	1.13435
1668.20823	1.14321
1666.27967	1.14938
1664.35110	1.15728
1662.42254	1.16671
1660.49397	1.17330
1658.56541	1.17794
1656.63684	1.18265
1654.70828	1.18774
1652.77972	1.18730
1650.85115	1.18535
1648.92259	1.18637
1646.99402	1.18331
1645.06546	1.17754
1643.13689	1.17553
1641.20833	1.17602
1639.27976	1.17802
1637.35120	1.18048
1635.42264	1.17794
1633.49407	1.17234
1631.56551	1.16918
1629.63694	1.16625
1627.70838	1.16273
1625.77981	1.15916
1623.85125	1.15250
1621.92269	1.14079
1619.99412	1.13084
1618.06556	1.11946
1616.13699	1.09690
1614.20843	1.07565
1612.27986	1.06093
1610.35130	1.04636
1608.42273	1.03044
1606.49417	1.01604
1604.56561	1.00502
1602.63704	0.99618
1600.70848	0.98924
1598.77991	0.98498
1596.85135	0.98304
1594.92278	0.98197
1592.99422	0.98136
1591.06565	0.98192
1589.13709	0.98388
1587.20853	0.98764
1585.27996	0.99374
1583.35140	1.00210
1581.42283	1.01158
1579.49427	1.02153
1577.56570	1.03310
1575.63714	1.04471
1573.70857	1.05252
1571.78001	1.06099
1569.85145	1.07269
1567.92288	1.08231
1565.99432	1.08923
1564.06575	1.09777
1562.13719	1.10751
1560.20862	1.12021
1558.28006	1.13522
1556.35149	1.13878
1554.42293	1.13976
1552.49437	1.14134
1550.56580	1.14330
1548.63724	1.14474
1546.70867	1.14706
1544.78011	1.15141
1542.85154	1.15602
1540.92298	1.15195
1538.99441	1.13698
1537.06585	1.13206
1535.13729	1.13166
1533.20872	1.12763
1531.28016	1.12149
1529.35159	1.11895
1527.42303	1.11825
1525.49446	1.11744
1523.56590	1.11741
1521.63733	1.11563
1519.70877	1.11213
1517.78021	1.10815
1515.85164	1.10067
1513.92308	1.09237
1511.99451	1.08594
1510.06595	1.08151
1508.13738	1.06885
1506.20882	1.03119
1504.28025	1.00910
1502.35169	0.99871
1500.42313	0.98784
1498.49456	0.97178
1496.56600	0.94799
1494.63743	0.92836
1492.70887	0.91744
1490.78030	0.90620
1488.85174	0.88745
1486.92317	0.87000
1484.99461	0.85933
1483.06605	0.85276
1481.13748	0.84853
1479.20892	0.84753
1477.28035	0.85152
1475.35179	0.86096
1473.42322	0.87409
1471.49466	0.88335
1469.56610	0.88800
1467.63753	0.89343
1465.70897	0.90031
1463.78040	0.90642
1461.85184	0.91157
1459.92327	0.91831
1457.99471	0.92776
1456.06614	0.93209
1454.13758	0.93096
1452.20902	0.93066
1450.28045	0.93144
1448.35189	0.93112
1446.42332	0.92791
1444.49476	0.92408
1442.56619	0.92093
1440.63763	0.91866
1438.70906	0.91658
1436.78050	0.91027
1434.85194	0.90055
1432.92337	0.89381
1430.99481	0.88780
1429.06624	0.88066
1427.13768	0.87576
1425.20911	0.87395
1423.28055	0.87357
1421.35198	0.87483
1419.42342	0.87755
1417.49486	0.87788
1415.56629	0.87606
1413.63773	0.87496
1411.70916	0.87483
1409.78060	0.87548
1407.85203	0.87723
1405.92347	0.88001
1403.99490	0.88265
1402.06634	0.88526
1400.13778	0.88888
1398.20921	0.89247
1396.28065	0.89416
1394.35208	0.89362
1392.42352	0.89368
1390.49495	0.89699
1388.56639	0.90352
1386.63782	0.91118
1384.70926	0.91832
1382.78070	0.92582
1380.85213	0.93220
1378.92357	0.93475
1376.99500	0.93307
1375.06644	0.92581
1373.13787	0.91275
1371.20931	0.89915
1369.28074	0.88499
1367.35218	0.86932
1365.42362	0.85540
1363.49505	0.84203
1361.56649	0.82780
1359.63792	0.81709
1357.70936	0.81057
1355.78079	0.80607
1353.85223	0.80255
1351.92366	0.80008
1349.99510	0.79861
1348.06654	0.79748
1346.13797	0.79662
1344.20941	0.79692
1342.28084	0.79902
1340.35228	0.80204
1338.42371	0.80393
1336.49515	0.80542
1334.56659	0.80908
1332.63802	0.81529
1330.70946	0.82267
1328.78089	0.82922
1326.85233	0.83396
1324.92376	0.83740
1322.99520	0.84068
1321.06663	0.84421
1319.13807	0.84721
1317.20951	0.84916
1315.28094	0.85062
1313.35238	0.85161
1311.42381	0.85143
1309.49525	0.85045
1307.56668	0.84906
1305.63812	0.84697
1303.70955	0.84440
1301.78099	0.84190
1299.85243	0.83931
1297.92386	0.83604
1295.99530	0.83216
1294.06673	0.82888
1292.13817	0.82738
1290.20960	0.82750
1288.28104	0.82809
1286.35247	0.82819
1284.42391	0.82774
1282.49535	0.82717
1280.56678	0.82652
1278.63822	0.82601
1276.70965	0.82640
1274.78109	0.82794
1272.85252	0.83071
1270.92396	0.83455
1268.99539	0.83886
1267.06683	0.84306
1265.13827	0.84693
1263.20970	0.85003
1261.28114	0.85154
1259.35257	0.85174
1257.42401	0.85180
1255.49544	0.85198
1253.56688	0.85209
1251.63831	0.85229
1249.70975	0.85237
1247.78119	0.85205
1245.85262	0.85134
1243.92406	0.85016
1241.99549	0.84892
1240.06693	0.84805
1238.13836	0.84688
1236.20980	0.84479
1234.28123	0.84188
1232.35267	0.83825
1230.42411	0.83375
1228.49554	0.82844
1226.56698	0.82238
1224.63841	0.81552
1222.70985	0.80819
1220.78128	0.80080
1218.85272	0.79355
1216.92415	0.78690
1214.99559	0.78172
1213.06703	0.77878
1211.13846	0.77805
1209.20990	0.77846
1207.28133	0.77839
1205.35277	0.77638
1203.42420	0.77178
1201.49564	0.76522
1199.56708	0.75777
1197.63851	0.75000
1195.70995	0.74230
1193.78138	0.73536
1191.85282	0.72980
1189.92425	0.72552
1187.99569	0.72242
1186.06712	0.72063
1184.13856	0.72018
1182.21000	0.72137
1180.28143	0.72446
1178.35287	0.72931
1176.42430	0.73570
1174.49574	0.74334
1172.56717	0.75174
1170.63861	0.76092
1168.71004	0.77171
1166.78148	0.78438
1164.85292	0.79779
1162.92435	0.80993
1160.99579	0.81873
1159.06722	0.82285
1157.13866	0.82202
1155.21009	0.81650
1153.28153	0.80722
1151.35296	0.79563
1149.42440	0.78307
1147.49584	0.77078
1145.56727	0.76006
1143.63871	0.75214
1141.71014	0.74789
1139.78158	0.74728
1137.85301	0.74981
1135.92445	0.75488
1133.99588	0.76228
1132.06732	0.77250
1130.13876	0.78560
1128.21019	0.80050
1126.28163	0.81555
1124.35306	0.82910
1122.42450	0.84035
1120.49593	0.84950
1118.56737	0.85664
1116.63880	0.86133
1114.71024	0.86277
1112.78168	0.86047
1110.85311	0.85583
1108.92455	0.85117
1106.99598	0.84715
1105.06742	0.84338
1103.13885	0.84003
1101.21029	0.83799
1099.28172	0.83831
1097.35316	0.84157
1095.42460	0.84769
1093.49603	0.85644
1091.56747	0.86718
1089.63890	0.87875
1087.71034	0.89129
1085.78177	0.90556
1083.85321	0.92068
1081.92464	0.93479
1079.99608	0.94633
1078.06752	0.95380
1076.13895	0.95590
1074.21039	0.95288
1072.28182	0.94724
1070.35326	0.94093
1068.42469	0.93327
1066.49613	0.92392
1064.56756	0.91433
1062.63900	0.90525
1060.71044	0.89569
1058.78187	0.88480
1056.85331	0.87382
1054.92474	0.86477
1052.99618	0.85800
1051.06761	0.85280
1049.13905	0.84892
1047.21049	0.84744
1045.28192	0.84974
1043.35336	0.85549
1041.42479	0.86309
1039.49623	0.87088
1037.56766	0.87743
1035.63910	0.88199
1033.71053	0.88405
1031.78197	0.88326
1029.85341	0.88030
1027.92484	0.87547
1025.99628	0.86824
1024.06771	0.85981
1022.13915	0.85227
1020.21058	0.84599
1018.28202	0.84082
1016.35345	0.83591
1014.42489	0.82894
1012.49633	0.81847
1010.56776	0.80466
1008.63920	0.78818
1006.71063	0.77022
1004.78207	0.75232
1002.85350	0.73557
1000.92494	0.72065
998.99637	0.70788
997.06781	0.69721
995.13925	0.68828
993.21068	0.68003
991.28212	0.67141
989.35355	0.66257
987.42499	0.65433
985.49642	0.64733
983.56786	0.64190
981.63929	0.63818
979.71073	0.63617
977.78217	0.63502
975.85360	0.63338
973.92504	0.63037
971.99647	0.62569
970.06791	0.61952
968.13934	0.61249
966.21078	0.60566
964.28221	0.60036
962.35365	0.59809
960.42509	0.60030
958.49652	0.60722
956.56796	0.61616
954.63939	0.62229
952.71083	0.62223
950.78226	0.61629
948.85370	0.60714
946.92513	0.59770
944.99657	0.59001
943.06801	0.58458
941.13944	0.58060
939.21088	0.57702
937.28231	0.57344
935.35375	0.57008
933.42518	0.56715
931.49662	0.56468
929.56805	0.56280
927.63949	0.56164
925.71093	0.56117
923.78236	0.56114
921.85380	0.56104
919.92523	0.56032
917.99667	0.55888
916.06810	0.55728
914.13954	0.55626
912.21098	0.55622
910.28241	0.55727
908.35385	0.55930
906.42528	0.56200
904.49672	0.56514
902.56815	0.56854
900.63959	0.57157
898.71102	0.57347
896.78246	0.57414
894.85390	0.57408
892.92533	0.57352
890.99677	0.57224
889.06820	0.57031
887.13964	0.56819
885.21107	0.56635
883.28251	0.56480
881.35394	0.56335
879.42538	0.56208
877.49682	0.56086
875.56825	0.55937
873.63969	0.55789
871.71112	0.55677
869.78256	0.55617
867.85399	0.55648
865.92543	0.55785
863.99686	0.55989
862.06830	0.56256
860.13974	0.56627
858.21117	0.57116
856.28261	0.57681
854.35404	0.58227
852.42548	0.58695
850.49691	0.59096
848.56835	0.59430
846.63978	0.59657
844.71122	0.59782
842.78266	0.59890
840.85409	0.60061
838.92553	0.60286
836.99696	0.60538
835.06840	0.60832
833.13983	0.61187
831.21127	0.61579
829.28270	0.61963
827.35414	0.62314
825.42558	0.62649
823.49701	0.62975
821.56845	0.63287
819.63988	0.63582
817.71132	0.63824
815.78275	0.63975
813.85419	0.64025
811.92562	0.63996
809.99706	0.63970
808.06850	0.63963
806.13993	0.63908
804.21137	0.63802
802.28280	0.63702
800.35424	0.63653
798.42567	0.63672
796.49711	0.63743
794.56854	0.63855
792.63998	0.64006
790.71142	0.64181
788.78285	0.64374
786.85429	0.64581
784.92572	0.64798
782.99716	0.65020
781.06859	0.65245
779.14003	0.65507
777.21147	0.65851
775.28290	0.66234
773.35434	0.66603
771.42577	0.66945
769.49721	0.67242
767.56864	0.67495
765.64008	0.67698
763.71151	0.67851
761.78295	0.67993
759.85439	0.68146
757.92582	0.68305
755.99726	0.68456
754.06869	0.68633
752.14013	0.68897
750.21156	0.69239
748.28300	0.69602
746.35443	0.69974
744.42587	0.70398
742.49731	0.70868
740.56874	0.71306
738.64018	0.71687
736.71161	0.72043
734.78305	0.72347
732.85448	0.72581
730.92592	0.72796
728.99735	0.73006
727.06879	0.73236
725.14023	0.73532
723.21166	0.73900
721.28310	0.74302
719.35453	0.74599
717.42597	0.74698
715.49740	0.74756
713.56884	0.74985
711.64027	0.75387
709.71171	0.75808
707.78315	0.76225
705.85458	0.76708
703.92602	0.77229
701.99745	0.77680
700.06889	0.77954
698.14032	0.78029
696.21176	0.77986
694.28319	0.77941
692.35463	0.77964
690.42607	0.78008
688.49750	0.77950
686.56894	0.77730
684.64037	0.77421
682.71181	0.77119
680.78324	0.76869
678.85468	0.76672
676.92611	0.76521
674.99755	0.76363
673.06899	0.76236
671.14042	0.76328
669.21186	0.76583
667.28329	0.76553
665.35473	0.76455
663.42616	0.76545
661.49760	0.76718
659.56903	0.76861
657.64047	0.76901
655.71191	0.76961
653.78334	0.77148
651.85478	0.77344
649.92621	0.77447
647.99765	0.77397
646.06908	0.77251
644.14052	0.77220
642.21195	0.77313
640.28339	0.77378
638.35483	0.77400
636.42626	0.77391
634.49770	0.77288
632.56913	0.77153
630.64057	0.77159
628.71200	0.77366
626.78344	0.77728
624.85488	0.78211
622.92631	0.78790
620.99775	0.79350
619.06918	0.79730
617.14062	0.79921
615.21205	0.79929
613.28349	0.79771
611.35492	0.79617
609.42636	0.79456
607.49780	0.79197
605.56923	0.79016
603.64067	0.78984
601.71210	0.79020
599.78354	0.79107
