3997.91406	0.84018
3995.98550	0.84069
3994.05693	0.83984
3992.12837	0.83916
3990.19980	0.83950
3988.27124	0.83974
3986.34268	0.83969
3984.41411	0.83957
3982.48555	0.83776
3980.55698	0.83464
3978.62842	0.83417
3976.69985	0.83648
3974.77129	0.83780
3972.84272	0.83753
3970.91416	0.83709
3968.98560	0.83743
3967.05703	0.83835
3965.12847	0.83800
3963.19990	0.83517
3961.27134	0.83144
3959.34277	0.83049
3957.41421	0.83270
3955.48564	0.83495
3953.55708	0.83512
3951.62852	0.83337
3949.69995	0.83124
3947.77139	0.83017
3945.84282	0.83039
3943.91426	0.83097
3941.98569	0.83126
3940.05713	0.83119
3938.12856	0.83028
3936.20000	0.82955
3934.27144	0.83025
3932.34287	0.83042
3930.41431	0.82819
3928.48574	0.82670
3926.55718	0.82749
3924.62861	0.82803
3922.70005	0.82713
3920.77148	0.82579
3918.84292	0.82404
3916.91436	0.82220
3914.98579	0.82177
3913.05723	0.82246
3911.12866	0.82258
3909.20010	0.82308
3907.27153	0.82521
3905.34297	0.82582
3903.41440	0.82279
3901.48584	0.82020
3899.55728	0.81778
3897.62871	0.81627
3895.70015	0.81913
3893.77158	0.82374
3891.84302	0.82445
3889.91445	0.82350
3887.98589	0.82503
3886.05733	0.82487
3884.12876	0.82274
3882.20020	0.82134
3880.27163	0.81732
3878.34307	0.81577
3876.41450	0.81865
3874.48594	0.81977
3872.55737	0.81867
3870.62881	0.81732
3868.70025	0.81607
3866.77168	0.81667
3864.84312	0.81516
3862.91455	0.81096
3860.98599	0.80982
3859.05742	0.81219
3857.12886	0.81750
3855.20029	0.82264
3853.27173	0.81614
3851.34317	0.80696
3849.41460	0.80597
3847.48604	0.80751
3845.55747	0.80901
3843.62891	0.80984
3841.70034	0.81132
3839.77178	0.81316
3837.84321	0.81238
3835.91465	0.81047
3833.98609	0.80864
3832.05752	0.80609
3830.12896	0.80491
3828.20039	0.80535
3826.27183	0.80639
3824.34326	0.80998
3822.41470	0.81343
3820.48613	0.81021
3818.55757	0.80668
3816.62901	0.80376
3814.70044	0.80030
3812.77188	0.80059
3810.84331	0.80294
3808.91475	0.80442
3806.98618	0.80349
3805.05762	0.80376
3803.12905	0.80477
3801.20049	0.80121
3799.27193	0.79822
3797.34336	0.79640
3795.41480	0.79364
3793.48623	0.79382
3791.55767	0.79640
3789.62910	0.79817
3787.70054	0.79826
3785.77197	0.79717
3783.84341	0.79630
3781.91485	0.79711
3779.98628	0.79716
3778.05772	0.79489
3776.12915	0.79399
3774.20059	0.79528
3772.27202	0.79655
3770.34346	0.79530
3768.41489	0.79310
3766.48633	0.79219
3764.55777	0.79154
3762.62920	0.79312
3760.70064	0.79631
3758.77207	0.79618
3756.84351	0.79473
3754.91494	0.79709
3752.98638	0.79989
3751.05781	0.79477
3749.12925	0.79013
3747.20069	0.79319
3745.27212	0.79215
3743.34356	0.78647
3741.41499	0.78705
3739.48643	0.79220
3737.55786	0.79746
3735.62930	0.79579
3733.70074	0.78609
3731.77217	0.78187
3729.84361	0.78480
3727.91504	0.78848
3725.98648	0.78808
3724.05791	0.78504
3722.12935	0.78232
3720.20078	0.77986
3718.27222	0.77916
3716.34366	0.78139
3714.41509	0.78548
3712.48653	0.78715
3710.55796	0.78257
3708.62940	0.77904
3706.70083	0.77941
3704.77227	0.78130
3702.84370	0.78221
3700.91514	0.78124
3698.98658	0.78066
3697.05801	0.78095
3695.12945	0.78245
3693.20088	0.78604
3691.27232	0.78878
3689.34375	0.78604
3687.41519	0.78427
3685.48662	0.78627
3683.55806	0.78817
3681.62950	0.78994
3679.70093	0.79338
3677.77237	0.79766
3675.84380	0.79752
3673.91524	0.79568
3671.98667	0.79805
3670.05811	0.79975
3668.12954	0.80017
3666.20098	0.80289
3664.27242	0.80665
3662.34385	0.81064
3660.41529	0.81490
3658.48672	0.81776
3656.55816	0.81884
3654.62959	0.82341
3652.70103	0.83407
3650.77246	0.84650
3648.84390	0.84623
3646.91534	0.83914
3644.98677	0.84005
3643.05821	0.84418
3641.12964	0.84866
3639.20108	0.85292
3637.27251	0.85665
3635.34395	0.86077
3633.41538	0.86704
3631.48682	0.87413
3629.55826	0.87668
3627.62969	0.87625
3625.70113	0.88156
3623.77256	0.88901
3621.84400	0.89466
3619.91543	0.89588
3617.98687	0.89520
3616.05830	0.89925
3614.12974	0.90641
3612.20118	0.91282
3610.27261	0.91697
3608.34405	0.91916
3606.41548	0.92189
3604.48692	0.92739
3602.55835	0.93470
3600.62979	0.94086
3598.70123	0.94493
3596.77266	0.94878
3594.84410	0.95227
3592.91553	0.95601
3590.98697	0.96189
3589.05840	0.96899
3587.12984	0.97378
3585.20127	0.97636
3583.27271	0.97971
3581.34415	0.98465
3579.41558	0.99125
3577.48702	0.99774
3575.55845	1.00235
3573.62989	1.00639
3571.70132	1.01195
3569.77276	1.01655
3567.84419	1.01636
3565.91563	1.01607
3563.98707	1.02122
3562.05850	1.02848
3560.12994	1.03512
3558.20137	1.03967
3556.27281	1.04272
3554.34424	1.04660
3552.41568	1.05221
3550.48711	1.05805
3548.55855	1.06347
3546.62999	1.06959
3544.70142	1.07709
3542.77286	1.08369
3540.84429	1.08810
3538.91573	1.09166
3536.98716	1.09523
3535.05860	1.09855
3533.13003	1.10148
3531.20147	1.10490
3529.27291	1.10992
3527.34434	1.11755
3525.41578	1.12638
3523.48721	1.13261
3521.55865	1.13598
3519.63008	1.13911
3517.70152	1.14418
3515.77295	1.15232
3513.84439	1.16195
3511.91583	1.17072
3509.98726	1.17764
3508.05870	1.18326
3506.13013	1.19048
3504.20157	1.19981
3502.27300	1.20795
3500.34444	1.21443
3498.41587	1.22029
3496.48731	1.22557
3494.55875	1.23042
3492.63018	1.23502
3490.70162	1.24114
3488.77305	1.24820
3486.84449	1.25339
3484.91592	1.25758
3482.98736	1.26312
3481.05879	1.26877
3479.13023	1.27011
3477.20167	1.26770
3475.27310	1.26728
3473.34454	1.27099
3471.41597	1.27667
3469.48741	1.28268
3467.55884	1.28659
3465.63028	1.28749
3463.70171	1.28837
3461.77315	1.29106
3459.84459	1.29459
3457.91602	1.29744
3455.98746	1.30084
3454.05889	1.30603
3452.13033	1.31082
3450.20176	1.31240
3448.27320	1.31041
3446.34464	1.30949
3444.41607	1.31223
3442.48751	1.31573
3440.55894	1.32049
3438.63038	1.32669
3436.70181	1.32914
3434.77325	1.32676
3432.84468	1.32557
3430.91612	1.32694
3428.98756	1.32769
3427.05899	1.32749
3425.13043	1.32684
3423.20186	1.32546
3421.27330	1.32348
3419.34473	1.32166
3417.41617	1.32112
3415.48760	1.32419
3413.55904	1.33049
3411.63048	1.33457
3409.70191	1.33333
3407.77335	1.32973
3405.84478	1.32957
3403.91622	1.33342
3401.98765	1.33551
3400.05909	1.33484
3398.13052	1.33553
3396.20196	1.33859
3394.27340	1.34181
3392.34483	1.34402
3390.41627	1.34536
3388.48770	1.34605
3386.55914	1.34651
3384.63057	1.34582
3382.70201	1.34315
3380.77344	1.34000
3378.84488	1.33887
3376.91632	1.33968
3374.98775	1.33897
3373.05919	1.33659
3371.13062	1.33632
3369.20206	1.33835
3367.27349	1.34024
3365.34493	1.34115
3363.41636	1.34161
3361.48780	1.34342
3359.55924	1.34731
3357.63067	1.35035
3355.70211	1.35154
3353.77354	1.35406
3351.84498	1.35847
3349.91641	1.36123
3347.98785	1.36226
3346.05928	1.36596
3344.13072	1.37118
3342.20216	1.37159
3340.27359	1.36818
3338.34503	1.36757
3336.41646	1.37144
3334.48790	1.37765
3332.55933	1.38362
3330.63077	1.38712
3328.70220	1.38949
3326.77364	1.39349
3324.84508	1.39887
3322.91651	1.40344
3320.98795	1.40726
3319.05938	1.41169
3317.13082	1.41445
3315.20225	1.41446
3313.27369	1.41395
3311.34513	1.41355
3309.41656	1.41524
3307.48800	1.42228
3305.55943	1.43172
3303.63087	1.43775
3301.70230	1.43979
3299.77374	1.43799
3297.84517	1.43369
3295.91661	1.43405
3293.98805	1.44001
3292.05948	1.44317
3290.13092	1.44098
3288.20235	1.44044
3286.27379	1.44436
3284.34522	1.44672
3282.41666	1.44506
3280.48809	1.44423
3278.55953	1.44547
3276.63097	1.44529
3274.70240	1.44423
3272.77384	1.44392
3270.84527	1.44197
3268.91671	1.43844
3266.98814	1.43558
3265.05958	1.43212
3263.13101	1.42659
3261.20245	1.42126
3259.27389	1.41824
3257.34532	1.41691
3255.41676	1.41527
3253.48819	1.41029
3251.55963	1.40176
3249.63106	1.39373
3247.70250	1.38708
3245.77393	1.37712
3243.84537	1.36469
3241.91681	1.35602
3239.98824	1.35057
3238.05968	1.34565
3236.13111	1.34055
3234.20255	1.33368
3232.27398	1.32711
3230.34542	1.32503
3228.41685	1.32501
3226.48829	1.32042
3224.55973	1.31073
3222.63116	1.30119
3220.70260	1.29571
3218.77403	1.29369
3216.84547	1.29216
3214.91690	1.28995
3212.98834	1.28641
3211.05977	1.28142
3209.13121	1.27634
3207.20265	1.27128
3205.27408	1.26632
3203.34552	1.26183
3201.41695	1.25738
3199.48839	1.25367
3197.55982	1.25102
3195.63126	1.24693
3193.70269	1.24028
3191.77413	1.23378
3189.84557	1.22971
3187.91700	1.22694
3185.98844	1.22310
3184.05987	1.21759
3182.13131	1.21075
3180.20274	1.20362
3178.27418	1.19778
3176.34562	1.19324
3174.41705	1.18939
3172.48849	1.18538
3170.55992	1.18093
3168.63136	1.17723
3166.70279	1.17394
3164.77423	1.16933
3162.84566	1.16429
3160.91710	1.16137
3158.98854	1.15977
3157.05997	1.15686
3155.13141	1.15304
3153.20284	1.14939
3151.27428	1.14539
3149.34571	1.14167
3147.41715	1.13905
3145.48858	1.13645
3143.56002	1.13387
3141.63146	1.13247
3139.70289	1.13136
3137.77433	1.12969
3135.84576	1.12847
3133.91720	1.12787
3131.98863	1.12739
3130.06007	1.12761
3128.13150	1.12890
3126.20294	1.13019
3124.27438	1.13033
3122.34581	1.12989
3120.41725	1.13002
3118.48868	1.12968
3116.56012	1.12831
3114.63155	1.12803
3112.70299	1.12926
3110.77442	1.13023
3108.84586	1.13030
3106.91730	1.13027
3104.98873	1.13037
3103.06017	1.12922
3101.13160	1.12638
3099.20304	1.12402
3097.27447	1.12342
3095.34591	1.12321
3093.41734	1.12222
3091.48878	1.12089
3089.56022	1.11991
3087.63165	1.11900
3085.70309	1.11754
3083.77452	1.11548
3081.84596	1.11273
3079.91739	1.10959
3077.98883	1.10626
3076.06026	1.10278
3074.13170	1.10017
3072.20314	1.09804
3070.27457	1.09481
3068.34601	1.09143
3066.41744	1.08886
3064.48888	1.08550
3062.56031	1.08091
3060.63175	1.07658
3058.70318	1.07316
3056.77462	1.07072
3054.84606	1.06870
3052.91749	1.06607
3050.98893	1.06253
3049.06036	1.05798
3047.13180	1.05282
3045.20323	1.04820
3043.27467	1.04439
3041.34610	1.04149
3039.41754	1.03955
3037.48898	1.03715
3035.56041	1.03353
3033.63185	1.03002
3031.70328	1.02749
3029.77472	1.02557
3027.84615	1.02350
3025.91759	1.02079
3023.98903	1.01785
3022.06046	1.01530
3020.13190	1.01313
3018.20333	1.01119
3016.27477	1.00956
3014.34620	1.00782
3012.41764	1.00579
3010.48907	1.00403
3008.56051	1.00284
3006.63195	1.00168
3004.70338	0.99981
3002.77482	0.99780
3000.84625	0.99717
2998.91769	0.99813
2996.98912	0.99975
2995.06056	1.00193
2993.13199	1.00497
2991.20343	1.00838
2989.27487	1.01148
2987.34630	1.01403
2985.41774	1.01664
2983.48917	1.02090
2981.56061	1.02750
2979.63204	1.03500
2977.70348	1.04214
2975.77491	1.04842
2973.84635	1.05343
2971.91779	1.05786
2969.98922	1.06347
2968.06066	1.07086
2966.13209	1.07782
2964.20353	1.08245
2962.27496	1.08469
2960.34640	1.08358
2958.41783	1.07886
2956.48927	1.07282
2954.56071	1.06756
2952.63214	1.06354
2950.70358	1.06082
2948.77501	1.05936
2946.84645	1.05905
2944.91788	1.06042
2942.98932	1.06374
2941.06075	1.06908
2939.13219	1.07724
2937.20363	1.08812
2935.27506	1.09922
2933.34650	1.10790
2931.41793	1.11401
2929.48937	1.11826
2927.56080	1.12198
2925.63224	1.12707
2923.70367	1.13309
2921.77511	1.13831
2919.84655	1.14083
2917.91798	1.13770
2915.98942	1.12652
2914.06085	1.10805
2912.13229	1.08722
2910.20372	1.06958
2908.27516	1.05705
2906.34659	1.04833
2904.41803	1.04166
2902.48947	1.03641
2900.56090	1.03285
2898.63234	1.03087
2896.70377	1.02980
2894.77521	1.02883
2892.84664	1.02694
2890.91808	1.02349
2888.98952	1.01875
2887.06095	1.01378
2885.13239	1.01013
2883.20382	1.00857
2881.27526	1.00877
2879.34669	1.00972
2877.41813	1.01028
2875.48956	1.00977
2873.56100	1.00756
2871.63244	1.00298
2869.70387	0.99688
2867.77531	0.99070
2865.84674	0.98442
2863.91818	0.97887
2861.98961	0.97625
2860.06105	0.97662
2858.13248	0.97934
2856.20392	0.98488
2854.27536	0.99267
2852.34679	1.00073
2850.41823	1.00427
2848.48966	0.99636
2846.56110	0.97721
2844.63253	0.95543
2842.70397	0.93750
2840.77540	0.92495
2838.84684	0.91679
2836.91828	0.91051
2834.98971	0.90452
2833.06115	0.89953
2831.13258	0.89592
2829.20402	0.89251
2827.27545	0.88939
2825.34689	0.88758
2823.41832	0.88586
2821.48976	0.88250
2819.56120	0.87850
2817.63263	0.87564
2815.70407	0.87384
2813.77550	0.87232
2811.84694	0.87055
2809.91837	0.86811
2807.98981	0.86555
2806.06124	0.86346
2804.13268	0.86158
2802.20412	0.85963
2800.27555	0.85738
2798.34699	0.85472
2796.41842	0.85202
2794.48986	0.84958
2792.56129	0.84730
2790.63273	0.84490
2788.70416	0.84258
2786.77560	0.84075
2784.84704	0.83897
2782.91847	0.83690
2780.98991	0.83514
2779.06134	0.83412
2777.13278	0.83321
2775.20421	0.83168
2773.27565	0.82979
2771.34708	0.82828
2769.41852	0.82743
2767.48996	0.82705
2765.56139	0.82626
2763.63283	0.82440
2761.70426	0.82208
2759.77570	0.82041
2757.84713	0.81950
2755.91857	0.81851
2753.99001	0.81708
2752.06144	0.81545
2750.13288	0.81397
2748.20431	0.81290
2746.27575	0.81188
2744.34718	0.81061
2742.41862	0.80922
2740.49005	0.80781
2738.56149	0.80653
2736.63293	0.80537
2734.70436	0.80428
2732.77580	0.80325
2730.84723	0.80245
2728.91867	0.80206
2726.99010	0.80165
2725.06154	0.80092
2723.13297	0.80021
2721.20441	0.79975
2719.27585	0.79939
2717.34728	0.79860
2715.41872	0.79724
2713.49015	0.79625
2711.56159	0.79609
2709.63302	0.79577
2707.70446	0.79450
2705.77589	0.79286
2703.84733	0.79166
2701.91877	0.79102
2699.99020	0.79055
2698.06164	0.78990
2696.13307	0.78907
2694.20451	0.78806
2692.27594	0.78692
2690.34738	0.78609
2688.41881	0.78549
2686.49025	0.78441
2684.56169	0.78266
2682.63312	0.78089
2680.70456	0.77952
2678.77599	0.77829
2676.84743	0.77691
2674.91886	0.77556
2672.99030	0.77447
2671.06173	0.77343
2669.13317	0.77215
2667.20461	0.77109
2665.27604	0.77049
2663.34748	0.76960
2661.41891	0.76811
2659.49035	0.76688
2657.56178	0.76617
2655.63322	0.76553
2653.70465	0.76478
2651.77609	0.76384
2649.84753	0.76262
2647.91896	0.76141
2645.99040	0.76039
2644.06183	0.75966
2642.13327	0.75940
2640.20470	0.75926
2638.27614	0.75894
2636.34757	0.75849
2634.41901	0.75771
2632.49045	0.75662
2630.56188	0.75572
2628.63332	0.75534
2626.70475	0.75520
2624.77619	0.75472
2622.84762	0.75396
2620.91906	0.75334
2618.99049	0.75295
2617.06193	0.75269
2615.13337	0.75229
2613.20480	0.75175
2611.27624	0.75123
2609.34767	0.75055
2607.41911	0.74987
2605.49054	0.74942
2603.56198	0.74880
2601.63342	0.74820
2599.70485	0.74787
2597.77629	0.74731
2595.84772	0.74652
2593.91916	0.74572
2591.99059	0.74460
2590.06203	0.74342
2588.13346	0.74268
2586.20490	0.74206
2584.27634	0.74118
2582.34777	0.74020
2580.41921	0.73925
2578.49064	0.73818
2576.56208	0.73681
2574.63351	0.73541
2572.70495	0.73444
2570.77638	0.73374
2568.84782	0.73285
2566.91926	0.73202
2564.99069	0.73154
2563.06213	0.73110
2561.13356	0.73019
2559.20500	0.72892
2557.27643	0.72785
2555.34787	0.72710
2553.41930	0.72645
2551.49074	0.72581
2549.56218	0.72523
2547.63361	0.72457
2545.70505	0.72360
2543.77648	0.72239
2541.84792	0.72118
2539.91935	0.72016
2537.99079	0.71960
2536.06222	0.71940
2534.13366	0.71893
2532.20510	0.71800
2530.27653	0.71699
2528.34797	0.71622
2526.41940	0.71567
2524.49084	0.71534
2522.56227	0.71519
2520.63371	0.71498
2518.70514	0.71444
2516.77658	0.71362
2514.84802	0.71290
2512.91945	0.71248
2510.99089	0.71207
2509.06232	0.71161
2507.13376	0.71119
2505.20519	0.71070
2503.27663	0.71021
2501.34806	0.70978
2499.41950	0.70901
2497.49094	0.70774
2495.56237	0.70652
2493.63381	0.70558
2491.70524	0.70469
2489.77668	0.70352
2487.84811	0.70217
2485.91955	0.70103
2483.99098	0.69988
2482.06242	0.69852
2480.13386	0.69736
2478.20529	0.69634
2476.27673	0.69522
2474.34816	0.69413
2472.41960	0.69309
2470.49103	0.69210
2468.56247	0.69114
2466.63391	0.69011
2464.70534	0.68920
2462.77678	0.68870
2460.84821	0.68845
2458.91965	0.68809
2456.99108	0.68749
2455.06252	0.68687
2453.13395	0.68638
2451.20539	0.68580
2449.27683	0.68523
2447.34826	0.68458
2445.41970	0.68360
2443.49113	0.68255
2441.56257	0.68170
2439.63400	0.68086
2437.70544	0.68007
2435.77687	0.67923
2433.84831	0.67808
2431.91975	0.67698
2429.99118	0.67626
2428.06262	0.67559
2426.13405	0.67475
2424.20549	0.67405
2422.27692	0.67378
2420.34836	0.67360
2418.41979	0.67305
2416.49123	0.67224
2414.56267	0.67155
2412.63410	0.67098
2410.70554	0.67043
2408.77697	0.66983
2406.84841	0.66896
2404.91984	0.66800
2402.99128	0.66747
2401.06271	0.66696
2399.13415	0.66585
2397.20559	0.66453
2395.27702	0.66373
2393.34846	0.66345
2391.41989	0.66318
2389.49133	0.66271
2387.56276	0.66238
2385.63420	0.66272
2383.70563	0.66383
2381.77707	0.66541
2379.84851	0.66734
2377.91994	0.66950
2375.99138	0.67151
2374.06281	0.67337
2372.13425	0.67560
2370.20568	0.67812
2368.27712	0.68030
2366.34855	0.68188
2364.41999	0.68291
2362.49143	0.68335
2360.56286	0.68112
2358.63430	0.67607
2356.70573	0.67206
2354.77717	0.66928
2352.84860	0.66665
2350.92004	0.66568
2348.99147	0.66698
2347.06291	0.66931
2345.13435	0.67085
2343.20578	0.67064
2341.27722	0.66926
2339.34865	0.66830
2337.42009	0.66799
2335.49152	0.66591
2333.56296	0.66301
2331.63440	0.66208
2329.70583	0.66219
2327.77727	0.66149
2325.84870	0.65993
2323.92014	0.65768
2321.99157	0.65497
2320.06301	0.65227
2318.13444	0.65001
2316.20588	0.64877
2314.27732	0.64812
2312.34875	0.64692
2310.42019	0.64494
2308.49162	0.64273
2306.56306	0.64091
2304.63449	0.63961
2302.70593	0.63854
2300.77736	0.63737
2298.84880	0.63602
2296.92024	0.63472
2294.99167	0.63330
2293.06311	0.63161
2291.13454	0.63003
2289.20598	0.62874
2287.27741	0.62747
2285.34885	0.62625
2283.42028	0.62548
2281.49172	0.62510
2279.56316	0.62465
2277.63459	0.62403
2275.70603	0.62349
2273.77746	0.62318
2271.84890	0.62301
2269.92033	0.62273
2267.99177	0.62225
2266.06320	0.62192
2264.13464	0.62183
2262.20608	0.62165
2260.27751	0.62140
2258.34895	0.62123
2256.42038	0.62102
2254.49182	0.62088
2252.56325	0.62083
2250.63469	0.62060
2248.70612	0.62024
2246.77756	0.61986
2244.84900	0.61923
2242.92043	0.61843
2240.99187	0.61775
2239.06330	0.61707
2237.13474	0.61633
2235.20617	0.61566
2233.27761	0.61488
2231.34904	0.61390
2229.42048	0.61295
2227.49192	0.61212
2225.56335	0.61139
2223.63479	0.61067
2221.70622	0.60994
2219.77766	0.60926
2217.84909	0.60857
2215.92053	0.60780
2213.99196	0.60697
2212.06340	0.60623
2210.13484	0.60575
2208.20627	0.60548
2206.27771	0.60519
2204.34914	0.60484
2202.42058	0.60447
2200.49201	0.60400
2198.56345	0.60341
2196.63488	0.60286
2194.70632	0.60232
2192.77776	0.60174
2190.84919	0.60120
2188.92063	0.60085
2186.99206	0.60061
2185.06350	0.60014
2183.13493	0.59935
2181.20637	0.59854
2179.27781	0.59796
2177.34924	0.59745
2175.42068	0.59688
2173.49211	0.59631
2171.56355	0.59576
2169.63498	0.59533
2167.70642	0.59520
2165.77785	0.59524
2163.84929	0.59518
2161.92073	0.59506
2159.99216	0.59498
2158.06360	0.59493
2156.13503	0.59499
2154.20647	0.59530
2152.27790	0.59566
2150.34934	0.59588
2148.42077	0.59600
2146.49221	0.59600
2144.56365	0.59586
2142.63508	0.59565
2140.70652	0.59533
2138.77795	0.59492
2136.84939	0.59448
2134.92082	0.59388
2132.99226	0.59304
2131.06369	0.59216
2129.13513	0.59138
2127.20657	0.59058
2125.27800	0.58958
2123.34944	0.58841
2121.42087	0.58725
2119.49231	0.58612
2117.56374	0.58495
2115.63518	0.58377
2113.70661	0.58273
2111.77805	0.58181
2109.84949	0.58082
2107.92092	0.57985
2105.99236	0.57898
2104.06379	0.57820
2102.13523	0.57760
2100.20666	0.57714
2098.27810	0.57683
2096.34953	0.57669
2094.42097	0.57651
2092.49241	0.57641
2090.56384	0.57644
2088.63528	0.57628
2086.70671	0.57589
2084.77815	0.57545
2082.84958	0.57499
2080.92102	0.57472
2078.99245	0.57476
2077.06389	0.57474
2075.13533	0.57428
2073.20676	0.57362
2071.27820	0.57308
2069.34963	0.57273
2067.42107	0.57251
2065.49250	0.57195
2063.56394	0.57105
2061.63537	0.57045
2059.70681	0.57017
2057.77825	0.56971
2055.84968	0.56914
2053.92112	0.56873
2051.99255	0.56833
2050.06399	0.56772
2048.13542	0.56711
2046.20686	0.56671
2044.27830	0.56651
2042.34973	0.56640
2040.42117	0.56619
2038.49260	0.56579
2036.56404	0.56538
2034.63547	0.56511
2032.70691	0.56478
2030.77834	0.56420
2028.84978	0.56337
2026.92122	0.56253
2024.99265	0.56195
2023.06409	0.56150
2021.13552	0.56098
2019.20696	0.56047
2017.27839	0.55967
2015.34983	0.55829
2013.42126	0.55675
2011.49270	0.55545
2009.56414	0.55435
2007.63557	0.55333
2005.70701	0.55229
2003.77844	0.55126
2001.84988	0.55031
1999.92131	0.54950
1997.99275	0.54891
1996.06418	0.54870
1994.13562	0.54872
1992.20706	0.54833
1990.27849	0.54756
1988.34993	0.54703
1986.42136	0.54666
1984.49280	0.54628
1982.56423	0.54598
1980.63567	0.54585
1978.70710	0.54573
1976.77854	0.54540
1974.84998	0.54500
1972.92141	0.54473
1970.99285	0.54472
1969.06428	0.54487
1967.13572	0.54466
1965.20715	0.54407
1963.27859	0.54355
1961.35002	0.54306
1959.42146	0.54256
1957.49290	0.54226
1955.56433	0.54202
1953.63577	0.54162
1951.70720	0.54128
1949.77864	0.54127
1947.85007	0.54154
1945.92151	0.54190
1943.99294	0.54191
1942.06438	0.54095
1940.13582	0.53969
1938.20725	0.53902
1936.27869	0.53872
1934.35012	0.53844
1932.42156	0.53809
1930.49299	0.53780
1928.56443	0.53762
1926.63586	0.53771
1924.70730	0.53805
1922.77874	0.53789
1920.85017	0.53733
1918.92161	0.53656
1916.99304	0.53505
1915.06448	0.53388
1913.13591	0.53382
1911.20735	0.53405
1909.27878	0.53367
1907.35022	0.53282
1905.42166	0.53220
1903.49309	0.53176
1901.56453	0.53133
1899.63596	0.53116
1897.70740	0.53137
1895.77883	0.53142
1893.85027	0.53114
1891.92171	0.53110
1889.99314	0.53080
1888.06458	0.52989
1886.13601	0.52932
1884.20745	0.52890
1882.27888	0.52833
1880.35032	0.52790
1878.42175	0.52758
1876.49319	0.52730
1874.56463	0.52726
1872.63606	0.52798
1870.70750	0.52935
1868.77893	0.52950
1866.85037	0.52755
1864.92180	0.52598
1862.99324	0.52556
1861.06467	0.52562
1859.13611	0.52564
1857.20755	0.52550
1855.27898	0.52543
1853.35042	0.52550
1851.42185	0.52588
1849.49329	0.52687
1847.56472	0.52818
1845.63616	0.52870
1843.70759	0.52722
1841.77903	0.52570
1839.85047	0.52564
1837.92190	0.52586
1835.99334	0.52562
1834.06477	0.52594
1832.13621	0.52713
1830.20764	0.52733
1828.27908	0.52616
1826.35051	0.52536
1824.42195	0.52441
1822.49339	0.52330
1820.56482	0.52292
1818.63626	0.52302
1816.70769	0.52313
1814.77913	0.52368
1812.85056	0.52478
1810.92200	0.52538
1808.99343	0.52516
1807.06487	0.52514
1805.13631	0.52599
1803.20774	0.52749
1801.27918	0.52864
1799.35061	0.52909
1797.42205	0.53015
1795.49348	0.53204
1793.56492	0.53322
1791.63635	0.53220
1789.70779	0.53092
1787.77923	0.53115
1785.85066	0.53181
1783.92210	0.53228
1781.99353	0.53279
1780.06497	0.53303
1778.13640	0.53354
1776.20784	0.53517
1774.27927	0.53750
1772.35071	0.53859
1770.42215	0.53790
1768.49358	0.53757
1766.56502	0.53825
1764.63645	0.54013
1762.70789	0.54251
1760.77932	0.54467
1758.85076	0.54700
1756.92220	0.54975
1754.99363	0.55306
1753.06507	0.55775
1751.13650	0.56434
1749.20794	0.57105
1747.27937	0.57619
1745.35081	0.58090
1743.42224	0.58586
1741.49368	0.59074
1739.56512	0.59524
1737.63655	0.59949
1735.70799	0.60376
1733.77942	0.60731
1731.85086	0.60882
1729.92229	0.61007
1727.99373	0.61217
1726.06516	0.61562
1724.13660	0.62039
1722.20804	0.62571
1720.27947	0.63199
1718.35091	0.64117
1716.42234	0.65222
1714.49378	0.66054
1712.56521	0.66929
1710.63665	0.68124
1708.70808	0.69658
1706.77952	0.71782
1704.85096	0.74460
1702.92239	0.76993
1700.99383	0.80491
1699.06526	0.85729
1697.13670	0.90379
1695.20813	0.94634
1693.27957	0.97917
1691.35100	1.00754
1689.42244	1.04198
1687.49388	1.07466
1685.56531	1.10777
1683.63675	1.15485
1681.70818	1.18812
1679.77962	1.20773
1677.85105	1.22658
1675.92249	1.24930
1673.99392	1.27442
1672.06536	1.29513
1670.13680	1.31485
1668.20823	1.33202
1666.27967	1.34099
1664.35110	1.34931
1662.42254	1.35977
1660.49397	1.36789
1658.56541	1.37393
1656.63684	1.37918
1654.70828	1.38444
1652.77972	1.38817
1650.85115	1.39041
1648.92259	1.39223
1646.99402	1.38798
1645.06546	1.38059
1643.13689	1.37772
1641.20833	1.37771
1639.27976	1.37827
1637.35120	1.37749
1635.42264	1.37348
1633.49407	1.37025
1631.56551	1.36848
1629.63694	1.36474
1627.70838	1.35888
1625.77981	1.35112
1623.85125	1.33760
1621.92269	1.31992
1619.99412	1.30569
1618.06556	1.28651
1616.13699	1.25258
1614.20843	1.22360
1612.27986	1.20222
1610.35130	1.17930
1608.42273	1.15462
1606.49417	1.13384
1604.56561	1.11920
1602.63704	1.10817
1600.70848	1.10003
1598.77991	1.09524
1596.85135	1.09260
1594.92278	1.09060
1592.99422	1.08960
1591.06565	1.09070
1589.13709	1.09412
1587.20853	1.10043
1585.27996	1.10986
1583.35140	1.12153
1581.42283	1.13413
1579.49427	1.14684
1577.56570	1.16108
1575.63714	1.17749
1573.70857	1.19016
1571.78001	1.20127
1569.85145	1.21512
1567.92288	1.22797
1565.99432	1.23872
1564.06575	1.25050
1562.13719	1.26155
1560.20862	1.27358
1558.28006	1.28613
1556.35149	1.28952
1554.42293	1.29271
1552.49437	1.29662
1550.56580	1.29933
1548.63724	1.29951
1546.70867	1.29907
1544.78011	1.29971
1542.85154	1.30051
1540.92298	1.29421
1538.99441	1.28101
1537.06585	1.27745
1535.13729	1.27643
1533.20872	1.27132
1531.28016	1.26426
1529.35159	1.26014
1527.42303	1.25799
1525.49446	1.25651
1523.56590	1.25535
1521.63733	1.25292
1519.70877	1.25098
1517.78021	1.24629
1515.85164	1.23427
1513.92308	1.22085
1511.99451	1.20966
1510.06595	1.20071
1508.13738	1.18328
1506.20882	1.13926
1504.28025	1.11329
1502.35169	1.09987
1500.42313	1.08511
1498.49456	1.06481
1496.56600	1.03863
1494.63743	1.01811
1492.70887	1.00612
1490.78030	0.99344
1488.85174	0.97352
1486.92317	0.95601
1484.99461	0.94576
1483.06605	0.93941
1481.13748	0.93528
1479.20892	0.93443
1477.28035	0.93829
1475.35179	0.94706
1473.42322	0.95968
1471.49466	0.97017
1469.56610	0.97675
1467.63753	0.98394
1465.70897	0.99296
1463.78040	1.00126
1461.85184	1.00750
1459.92327	1.01417
1457.99471	1.02332
1456.06614	1.02989
1454.13758	1.03136
1452.20902	1.03223
1450.28045	1.03308
1448.35189	1.03293
1446.42332	1.03101
1444.49476	1.02850
1442.56619	1.02580
1440.63763	1.02319
1438.70906	1.02033
1436.78050	1.01383
1434.85194	1.00462
1432.92337	0.99758
1430.99481	0.99051
1429.06624	0.98232
1427.13768	0.97619
1425.20911	0.97265
1423.28055	0.97058
1421.35198	0.97008
1419.42342	0.97013
1417.49486	0.96829
1415.56629	0.96564
1413.63773	0.96324
1411.70916	0.96060
1409.78060	0.95814
1407.85203	0.95692
1405.92347	0.95671
1403.99490	0.95673
1402.06634	0.95782
1400.13778	0.96034
1398.20921	0.96319
1396.28065	0.96539
1394.35208	0.96654
1392.42352	0.96796
1390.49495	0.97217
1388.56639	0.98130
1386.63782	0.99550
1384.70926	1.01026
1382.78070	1.02344
1380.85213	1.03414
1378.92357	1.03979
1376.99500	1.03902
1375.06644	1.03031
1373.13787	1.01476
1371.20931	0.99839
1369.28074	0.98074
1367.35218	0.96150
1365.42362	0.94461
1363.49505	0.92848
1361.56649	0.91245
1359.63792	0.90133
1357.70936	0.89472
1355.78079	0.89000
1353.85223	0.88633
1351.92366	0.88382
1349.99510	0.88260
1348.06654	0.88233
1346.13797	0.88254
1344.20941	0.88352
1342.28084	0.88606
1340.35228	0.89001
1338.42371	0.89358
1336.49515	0.89730
1334.56659	0.90360
1332.63802	0.91230
1330.70946	0.92150
1328.78089	0.92933
1326.85233	0.93469
1324.92376	0.93772
1322.99520	0.93969
1321.06663	0.94180
1319.13807	0.94406
1317.20951	0.94570
1315.28094	0.94651
1313.35238	0.94680
1311.42381	0.94662
1309.49525	0.94587
1307.56668	0.94445
1305.63812	0.94213
1303.70955	0.93893
1301.78099	0.93506
1299.85243	0.93081
1297.92386	0.92617
1295.99530	0.92121
1294.06673	0.91701
1292.13817	0.91471
1290.20960	0.91389
1288.28104	0.91365
1286.35247	0.91388
1284.42391	0.91419
1282.49535	0.91407
1280.56678	0.91421
1278.63822	0.91539
1276.70965	0.91758
1274.78109	0.92087
1272.85252	0.92549
1270.92396	0.93106
1268.99539	0.93716
1267.06683	0.94311
1265.13827	0.94777
1263.20970	0.95035
1261.28114	0.95111
1259.35257	0.95068
1257.42401	0.94952
1255.49544	0.94834
1253.56688	0.94760
1251.63831	0.94741
1249.70975	0.94756
1247.78119	0.94706
1245.85262	0.94556
1243.92406	0.94394
1241.99549	0.94292
1240.06693	0.94251
1238.13836	0.94169
1236.20980	0.93931
1234.28123	0.93537
1232.35267	0.93053
1230.42411	0.92529
1228.49554	0.91940
1226.56698	0.91221
1224.63841	0.90381
1222.70985	0.89518
1220.78128	0.88731
1218.85272	0.88039
1216.92415	0.87427
1214.99559	0.86987
1213.06703	0.86850
1211.13846	0.86995
1209.20990	0.87241
1207.28133	0.87365
1205.35277	0.87193
1203.42420	0.86697
1201.49564	0.85979
1199.56708	0.85130
1197.63851	0.84206
1195.70995	0.83304
1193.78138	0.82540
1191.85282	0.82002
1189.92425	0.81712
1187.99569	0.81654
1186.06712	0.81801
1184.13856	0.82077
1182.21000	0.82418
1180.28143	0.82886
1178.35287	0.83598
1176.42430	0.84546
1174.49574	0.85624
1172.56717	0.86760
1170.63861	0.87989
1168.71004	0.89375
1166.78148	0.90899
1164.85292	0.92456
1162.92435	0.93834
1160.99579	0.94776
1159.06722	0.95149
1157.13866	0.94923
1155.21009	0.94123
1153.28153	0.92899
1151.35296	0.91444
1149.42440	0.89892
1147.49584	0.88384
1145.56727	0.87123
1143.63871	0.86281
1141.71014	0.85900
1139.78158	0.85934
1137.85301	0.86340
1135.92445	0.87068
1133.99588	0.88078
1132.06732	0.89440
1130.13876	0.91245
1128.21019	0.93376
1126.28163	0.95513
1124.35306	0.97349
1122.42450	0.98803
1120.49593	0.99995
1118.56737	1.00904
1116.63880	1.01315
1114.71024	1.01176
1112.78168	1.00620
1110.85311	0.99835
1108.92455	0.99052
1106.99598	0.98425
1105.06742	0.97965
1103.13885	0.97643
1101.21029	0.97493
1099.28172	0.97600
1097.35316	0.98089
1095.42460	0.99017
1093.49603	1.00213
1091.56747	1.01518
1089.63890	1.03027
1087.71034	1.04752
1085.78177	1.06484
1083.85321	1.08111
1081.92464	1.09563
1079.99608	1.10592
1078.06752	1.11060
1076.13895	1.11061
1074.21039	1.10702
1072.28182	1.10060
1070.35326	1.09249
1068.42469	1.08379
1066.49613	1.07449
1064.56756	1.06414
1062.63900	1.05301
1060.71044	1.04125
1058.78187	1.02912
1056.85331	1.01785
1054.92474	1.00834
1052.99618	1.00117
1051.06761	0.99644
1049.13905	0.99378
1047.21049	0.99409
1045.28192	0.99858
1043.35336	1.00641
1041.42479	1.01586
1039.49623	1.02536
1037.56766	1.03275
1035.63910	1.03687
1033.71053	1.03885
1031.78197	1.03882
1029.85341	1.03579
1027.92484	1.02994
1025.99628	1.02166
1024.06771	1.01177
1022.13915	1.00232
1020.21058	0.99527
1018.28202	0.99038
1016.35345	0.98465
1014.42489	0.97542
1012.49633	0.96215
1010.56776	0.94503
1008.63920	0.92485
1006.71063	0.90371
1004.78207	0.88308
1002.85350	0.86338
1000.92494	0.84565
998.99637	0.83102
997.06781	0.81927
995.13925	0.80917
993.21068	0.79971
991.28212	0.79035
989.35355	0.78119
987.42499	0.77309
985.49642	0.76682
983.56786	0.76270
981.63929	0.76053
979.71073	0.75977
977.78217	0.75964
975.85360	0.75888
973.92504	0.75636
971.99647	0.75194
970.06791	0.74634
968.13934	0.74041
966.21078	0.73523
964.28221	0.73249
962.35365	0.73388
960.42509	0.74030
958.49652	0.75120
956.56796	0.76309
954.63939	0.77044
952.71083	0.77002
950.78226	0.76307
948.85370	0.75298
946.92513	0.74296
944.99657	0.73496
943.06801	0.72936
941.13944	0.72508
939.21088	0.72103
937.28231	0.71753
935.35375	0.71515
933.42518	0.71339
931.49662	0.71160
929.56805	0.71006
927.63949	0.70936
925.71093	0.70989
923.78236	0.71130
921.85380	0.71254
919.92523	0.71293
917.99667	0.71286
916.06810	0.71309
914.13954	0.71400
912.21098	0.71611
910.28241	0.71990
908.35385	0.72513
906.42528	0.73137
904.49672	0.73823
902.56815	0.74499
900.63959	0.75077
898.71102	0.75512
896.78246	0.75804
894.85390	0.75938
892.92533	0.75914
890.99677	0.75800
889.06820	0.75651
887.13964	0.75479
885.21107	0.75323
883.28251	0.75213
881.35394	0.75102
879.42538	0.74970
877.49682	0.74870
875.56825	0.74825
873.63969	0.74826
871.71112	0.74860
869.78256	0.74901
867.85399	0.74910
865.92543	0.74912
863.99686	0.75006
862.06830	0.75228
860.13974	0.75540
858.21117	0.75913
856.28261	0.76330
854.35404	0.76769
852.42548	0.77170
850.49691	0.77480
848.56835	0.77734
846.63978	0.77993
844.71122	0.78313
842.78266	0.78697
840.85409	0.79081
838.92553	0.79455
836.99696	0.79846
835.06840	0.80227
833.13983	0.80556
831.21127	0.80837
829.28270	0.81090
827.35414	0.81342
825.42558	0.81589
823.49701	0.81793
821.56845	0.81942
819.63988	0.82054
817.71132	0.82183
815.78275	0.82380
813.85419	0.82585
811.92562	0.82768
809.99706	0.83024
808.06850	0.83344
806.13993	0.83551
804.21137	0.83574
802.28280	0.83587
800.35424	0.83751
798.42567	0.83965
796.49711	0.84085
794.56854	0.84160
792.63998	0.84263
790.71142	0.84415
788.78285	0.84624
786.85429	0.84846
784.92572	0.85037
782.99716	0.85195
781.06859	0.85352
779.14003	0.85484
777.21147	0.85550
775.28290	0.85600
773.35434	0.85680
771.42577	0.85786
769.49721	0.85926
767.56864	0.86102
765.64008	0.86281
763.71151	0.86470
761.78295	0.86698
759.85439	0.86935
757.92582	0.87153
755.99726	0.87345
754.06869	0.87502
752.14013	0.87621
750.21156	0.87698
748.28300	0.87736
746.35443	0.87753
744.42587	0.87771
742.49731	0.87735
740.56874	0.87565
738.64018	0.87327
736.71161	0.87114
734.78305	0.86947
732.85448	0.86837
730.92592	0.86759
728.99735	0.86727
727.06879	0.86823
725.14023	0.87048
723.21166	0.87305
721.28310	0.87501
719.35453	0.87582
717.42597	0.87592
715.49740	0.87697
713.56884	0.87982
711.64027	0.88366
709.71171	0.88768
707.78315	0.89209
705.85458	0.89703
703.92602	0.90130
701.99745	0.90373
700.06889	0.90555
698.14032	0.90818
696.21176	0.91080
694.28319	0.91277
692.35463	0.91408
690.42607	0.91405
688.49750	0.91298
686.56894	0.91227
684.64037	0.91166
682.71181	0.90949
680.78324	0.90580
678.85468	0.90241
676.92611	0.89984
674.99755	0.89731
673.06899	0.89574
671.14042	0.89648
669.21186	0.89788
667.28329	0.89670
665.35473	0.89597
663.42616	0.89704
661.49760	0.89825
659.56903	0.89907
657.64047	0.90000
655.71191	0.90023
653.78334	0.89924
651.85478	0.89757
649.92621	0.89560
647.99765	0.89448
646.06908	0.89527
644.14052	0.89748
642.21195	0.89963
640.28339	0.90113
638.35483	0.90258
636.42626	0.90327
634.49770	0.90149
632.56913	0.89687
630.64057	0.89127
628.71200	0.88738
626.78344	0.88595
624.85488	0.88576
622.92631	0.88587
620.99775	0.88556
619.06918	0.88428
617.14062	0.88253
615.21205	0.88052
613.28349	0.87888
611.35492	0.87989
609.42636	0.88304
607.49780	0.88462
605.56923	0.88452
603.64067	0.88599
601.71210	0.88885
599.78354	0.89092
