3997.91406	0.78681
3995.98550	0.78568
3994.05693	0.78565
3992.12837	0.78705
3990.19980	0.78856
3988.27124	0.78888
3986.34268	0.78766
3984.41411	0.78492
3982.48555	0.78281
3980.55698	0.78354
3978.62842	0.78443
3976.69985	0.78274
3974.77129	0.78066
3972.84272	0.78015
3970.91416	0.77998
3968.98560	0.77977
3967.05703	0.78028
3965.12847	0.78082
3963.19990	0.77986
3961.27134	0.77743
3959.34277	0.77613
3957.41421	0.77751
3955.48564	0.77984
3953.55708	0.78103
3951.62852	0.78057
3949.69995	0.77892
3947.77139	0.77764
3945.84282	0.77790
3943.91426	0.77847
3941.98569	0.77798
3940.05713	0.77743
3938.12856	0.77796
3936.20000	0.77952
3934.27144	0.78133
3932.34287	0.78162
3930.41431	0.78026
3928.48574	0.78017
3926.55718	0.78185
3924.62861	0.78272
3922.70005	0.78196
3920.77148	0.78150
3918.84292	0.78142
3916.91436	0.78058
3914.98579	0.77987
3913.05723	0.77960
3911.12866	0.77919
3909.20010	0.78033
3907.27153	0.78332
3905.34297	0.78431
3903.41440	0.78191
3901.48584	0.78058
3899.55728	0.77912
3897.62871	0.77640
3895.70015	0.77562
3893.77158	0.77637
3891.84302	0.77581
3889.91445	0.77564
3887.98589	0.77731
3886.05733	0.77729
3884.12876	0.77655
3882.20020	0.77745
3880.27163	0.77581
3878.34307	0.77484
3876.41450	0.77783
3874.48594	0.78120
3872.55737	0.78258
3870.62881	0.78049
3868.70025	0.77694
3866.77168	0.77650
3864.84312	0.77557
3862.91455	0.77194
3860.98599	0.76976
3859.05742	0.77068
3857.12886	0.77509
3855.20029	0.78059
3853.27173	0.77586
3851.34317	0.76727
3849.41460	0.76708
3847.48604	0.77047
3845.55747	0.77418
3843.62891	0.77674
3841.70034	0.77834
3839.77178	0.77818
3837.84321	0.77564
3835.91465	0.77412
3833.98609	0.77330
3832.05752	0.77209
3830.12896	0.77228
3828.20039	0.77369
3826.27183	0.77439
3824.34326	0.77592
3822.41470	0.77764
3820.48613	0.77458
3818.55757	0.77238
3816.62901	0.77149
3814.70044	0.76919
3812.77188	0.76924
3810.84331	0.77070
3808.91475	0.77179
3806.98618	0.77306
3805.05762	0.77600
3803.12905	0.77739
3801.20049	0.77331
3799.27193	0.77066
3797.34336	0.76987
3795.41480	0.76759
3793.48623	0.76658
3791.55767	0.76706
3789.62910	0.76775
3787.70054	0.76885
3785.77197	0.76953
3783.84341	0.76914
3781.91485	0.76935
3779.98628	0.76900
3778.05772	0.76720
3776.12915	0.76699
3774.20059	0.76838
3772.27202	0.76994
3770.34346	0.77044
3768.41489	0.77000
3766.48633	0.76887
3764.55777	0.76727
3762.62920	0.76823
3760.70064	0.77016
3758.77207	0.76856
3756.84351	0.76734
3754.91494	0.77130
3752.98638	0.77790
3751.05781	0.77819
3749.12925	0.77082
3747.20069	0.76656
3745.27212	0.76275
3743.34356	0.76100
3741.41499	0.76467
3739.48643	0.76958
3737.55786	0.77368
3735.62930	0.77543
3733.70074	0.77204
3731.77217	0.76837
3729.84361	0.76879
3727.91504	0.77082
3725.98648	0.77058
3724.05791	0.76833
3722.12935	0.76618
3720.20078	0.76436
3718.27222	0.76413
3716.34366	0.76614
3714.41509	0.76969
3712.48653	0.77136
3710.55796	0.76708
3708.62940	0.76353
3706.70083	0.76402
3704.77227	0.76625
3702.84370	0.76751
3700.91514	0.76654
3698.98658	0.76589
3697.05801	0.76651
3695.12945	0.76818
3693.20088	0.77129
3691.27232	0.77471
3689.34375	0.77381
3687.41519	0.77016
3685.48662	0.76967
3683.55806	0.77144
3681.62950	0.77421
3679.70093	0.77843
3677.77237	0.78332
3675.84380	0.78394
3673.91524	0.78366
3671.98667	0.78750
3670.05811	0.78813
3668.12954	0.78491
3666.20098	0.78477
3664.27242	0.78694
3662.34385	0.78974
3660.41529	0.79322
3658.48672	0.79748
3656.55816	0.80166
3654.62959	0.80739
3652.70103	0.81648
3650.77246	0.82531
3648.84390	0.82285
3646.91534	0.81701
3644.98677	0.81924
3643.05821	0.82511
3641.12964	0.83079
3639.20108	0.83523
3637.27251	0.83966
3635.34395	0.84473
3633.41538	0.85036
3631.48682	0.85645
3629.55826	0.86144
3627.62969	0.86407
3625.70113	0.86855
3623.77256	0.87491
3621.84400	0.88113
3619.91543	0.88511
3617.98687	0.88761
3616.05830	0.89216
3614.12974	0.89679
3612.20118	0.90128
3610.27261	0.90856
3608.34405	0.91585
3606.41548	0.91991
3604.48692	0.92408
3602.55835	0.92956
3600.62979	0.93394
3598.70123	0.93736
3596.77266	0.94139
3594.84410	0.94470
3592.91553	0.94828
3590.98697	0.95529
3589.05840	0.96420
3587.12984	0.96841
3585.20127	0.96984
3583.27271	0.97452
3581.34415	0.98099
3579.41558	0.98761
3577.48702	0.99350
3575.55845	0.99829
3573.62989	1.00318
3571.70132	1.00920
3569.77276	1.01506
3567.84419	1.01938
3565.91563	1.02263
3563.98707	1.02612
3562.05850	1.03143
3560.12994	1.03794
3558.20137	1.04323
3556.27281	1.04795
3554.34424	1.05376
3552.41568	1.05904
3550.48711	1.06366
3548.55855	1.07002
3546.62999	1.07697
3544.70142	1.08252
3542.77286	1.08724
3540.84429	1.09152
3538.91573	1.09509
3536.98716	1.09844
3535.05860	1.10382
3533.13003	1.11201
3531.20147	1.11983
3529.27291	1.12538
3527.34434	1.13220
3525.41578	1.14021
3523.48721	1.14373
3521.55865	1.14399
3519.63008	1.14721
3517.70152	1.15428
3515.77295	1.16134
3513.84439	1.16675
3511.91583	1.17247
3509.98726	1.17852
3508.05870	1.18410
3506.13013	1.19116
3504.20157	1.19957
3502.27300	1.20590
3500.34444	1.21053
3498.41587	1.21629
3496.48731	1.22248
3494.55875	1.22617
3492.63018	1.22934
3490.70162	1.23558
3488.77305	1.24104
3486.84449	1.24420
3484.91592	1.24908
3482.98736	1.25423
3481.05879	1.25661
3479.13023	1.25826
3477.20167	1.26091
3475.27310	1.26316
3473.34454	1.26600
3471.41597	1.27033
3469.48741	1.27332
3467.55884	1.27431
3465.63028	1.27555
3463.70171	1.27852
3461.77315	1.28285
3459.84459	1.28740
3457.91602	1.29013
3455.98746	1.28954
3454.05889	1.28854
3452.13033	1.29041
3450.20176	1.29465
3448.27320	1.30009
3446.34464	1.30524
3444.41607	1.30691
3442.48751	1.30531
3440.55894	1.30436
3438.63038	1.30634
3436.70181	1.31036
3434.77325	1.31308
3432.84468	1.31281
3430.91612	1.31191
3428.98756	1.31179
3427.05899	1.31240
3425.13043	1.31333
3423.20186	1.31333
3421.27330	1.31353
3419.34473	1.31485
3417.41617	1.31500
3415.48760	1.31486
3413.55904	1.31688
3411.63048	1.31943
3409.70191	1.31985
3407.77335	1.31851
3405.84478	1.31707
3403.91622	1.31607
3401.98765	1.31738
3400.05909	1.32132
3398.13052	1.32347
3396.20196	1.32296
3394.27340	1.32302
3392.34483	1.32424
3390.41627	1.32536
3388.48770	1.32447
3386.55914	1.32187
3384.63057	1.32170
3382.70201	1.32474
3380.77344	1.32733
3378.84488	1.32870
3376.91632	1.33071
3374.98775	1.33234
3373.05919	1.33197
3371.13062	1.33128
3369.20206	1.33074
3367.27349	1.33005
3365.34493	1.33157
3363.41636	1.33541
3361.48780	1.33947
3359.55924	1.34316
3357.63067	1.34480
3355.70211	1.34392
3353.77354	1.34464
3351.84498	1.34740
3349.91641	1.34798
3347.98785	1.34747
3346.05928	1.34924
3344.13072	1.35107
3342.20216	1.35009
3340.27359	1.34954
3338.34503	1.35269
3336.41646	1.35624
3334.48790	1.35816
3332.55933	1.36075
3330.63077	1.36379
3328.70220	1.36576
3326.77364	1.36731
3324.84508	1.36935
3322.91651	1.37121
3320.98795	1.37239
3319.05938	1.37386
3317.13082	1.37590
3315.20225	1.37715
3313.27369	1.37697
3311.34513	1.37673
3309.41656	1.37715
3307.48800	1.37785
3305.55943	1.38028
3303.63087	1.38467
3301.70230	1.38716
3299.77374	1.38598
3297.84517	1.38548
3295.91661	1.38935
3293.98805	1.39436
3292.05948	1.39603
3290.13092	1.39482
3288.20235	1.39253
3286.27379	1.38862
3284.34522	1.38490
3282.41666	1.38550
3280.48809	1.38833
3278.55953	1.38819
3276.63097	1.38596
3274.70240	1.38415
3272.77384	1.38132
3270.84527	1.37652
3268.91671	1.37332
3266.98814	1.37406
3265.05958	1.37403
3263.13101	1.36899
3261.20245	1.36273
3259.27389	1.35882
3257.34532	1.35548
3255.41676	1.35200
3253.48819	1.34937
3251.55963	1.34666
3249.63106	1.34307
3247.70250	1.33783
3245.77393	1.33144
3243.84537	1.32709
3241.91681	1.32536
3239.98824	1.32447
3238.05968	1.32249
3236.13111	1.31827
3234.20255	1.31401
3232.27398	1.31137
3230.34542	1.30936
3228.41685	1.30850
3226.48829	1.30863
3224.55973	1.30688
3222.63116	1.30302
3220.70260	1.29861
3218.77403	1.29385
3216.84547	1.29073
3214.91690	1.29059
3212.98834	1.29163
3211.05977	1.29143
3209.13121	1.28861
3207.20265	1.28423
3205.27408	1.27936
3203.34552	1.27538
3201.41695	1.27441
3199.48839	1.27510
3197.55982	1.27378
3195.63126	1.26942
3193.70269	1.26440
3191.77413	1.26139
3189.84557	1.25992
3187.91700	1.25793
3185.98844	1.25553
3184.05987	1.25331
3182.13131	1.25049
3180.20274	1.24761
3178.27418	1.24530
3176.34562	1.24230
3174.41705	1.23799
3172.48849	1.23345
3170.55992	1.23073
3168.63136	1.23010
3166.70279	1.22892
3164.77423	1.22569
3162.84566	1.22204
3160.91710	1.21982
3158.98854	1.21848
3157.05997	1.21590
3155.13141	1.21255
3153.20284	1.21079
3151.27428	1.20997
3149.34571	1.20782
3147.41715	1.20411
3145.48858	1.20065
3143.56002	1.19848
3141.63146	1.19656
3139.70289	1.19461
3137.77433	1.19274
3135.84576	1.19016
3133.91720	1.18800
3131.98863	1.18820
3130.06007	1.19001
3128.13150	1.19073
3126.20294	1.18880
3124.27438	1.18572
3122.34581	1.18414
3120.41725	1.18336
3118.48868	1.18098
3116.56012	1.17846
3114.63155	1.17919
3112.70299	1.18213
3110.77442	1.18341
3108.84586	1.18233
3106.91730	1.18042
3104.98873	1.17835
3103.06017	1.17698
3101.13160	1.17737
3099.20304	1.17917
3097.27447	1.18060
3095.34591	1.18031
3093.41734	1.17884
3091.48878	1.17688
3089.56022	1.17451
3087.63165	1.17254
3085.70309	1.17148
3083.77452	1.17055
3081.84596	1.16956
3079.91739	1.16919
3077.98883	1.16966
3076.06026	1.17051
3074.13170	1.17040
3072.20314	1.16813
3070.27457	1.16453
3068.34601	1.16151
3066.41744	1.15959
3064.48888	1.15851
3062.56031	1.15765
3060.63175	1.15519
3058.70318	1.15081
3056.77462	1.14654
3054.84606	1.14411
3052.91749	1.14353
3050.98893	1.14269
3049.06036	1.13915
3047.13180	1.13371
3045.20323	1.12903
3043.27467	1.12635
3041.34610	1.12504
3039.41754	1.12344
3037.48898	1.12142
3035.56041	1.11991
3033.63185	1.11753
3031.70328	1.11387
3029.77472	1.11105
3027.84615	1.10911
3025.91759	1.10649
3023.98903	1.10332
3022.06046	1.10064
3020.13190	1.09880
3018.20333	1.09799
3016.27477	1.09738
3014.34620	1.09618
3012.41764	1.09488
3010.48907	1.09294
3008.56051	1.09058
3006.63195	1.08915
3004.70338	1.08774
3002.77482	1.08588
3000.84625	1.08536
2998.91769	1.08654
2996.98912	1.08765
2995.06056	1.08830
2993.13199	1.08976
2991.20343	1.09196
2989.27487	1.09403
2987.34630	1.09614
2985.41774	1.09891
2983.48917	1.10238
2981.56061	1.10702
2979.63204	1.11324
2977.70348	1.11942
2975.77491	1.12471
2973.84635	1.13054
2971.91779	1.13736
2969.98922	1.14309
2968.06066	1.14623
2966.13209	1.14867
2964.20353	1.15236
2962.27496	1.15622
2960.34640	1.15804
2958.41783	1.15703
2956.48927	1.15429
2954.56071	1.15093
2952.63214	1.14717
2950.70358	1.14359
2948.77501	1.14191
2946.84645	1.14300
2944.91788	1.14557
2942.98932	1.14942
2941.06075	1.15590
2939.13219	1.16410
2937.20363	1.17141
2935.27506	1.17655
2933.34650	1.18030
2931.41793	1.18471
2929.48937	1.19009
2927.56080	1.19469
2925.63224	1.19859
2923.70367	1.20281
2921.77511	1.20635
2919.84655	1.20759
2917.91798	1.20491
2915.98942	1.19662
2914.06085	1.18311
2912.13229	1.16695
2910.20372	1.15125
2908.27516	1.13889
2906.34659	1.13154
2904.41803	1.12712
2902.48947	1.12190
2900.56090	1.11642
2898.63234	1.11286
2896.70377	1.10972
2894.77521	1.10568
2892.84664	1.10179
2890.91808	1.09850
2888.98952	1.09569
2887.06095	1.09312
2885.13239	1.09098
2883.20382	1.09022
2881.27526	1.09044
2879.34669	1.09062
2877.41813	1.09076
2875.48956	1.09054
2873.56100	1.08917
2871.63244	1.08546
2869.70387	1.07951
2867.77531	1.07412
2865.84674	1.07111
2863.91818	1.06976
2861.98961	1.06922
2860.06105	1.06989
2858.13248	1.07291
2856.20392	1.07842
2854.27536	1.08508
2852.34679	1.09153
2850.41823	1.09457
2848.48966	1.08789
2846.56110	1.07071
2844.63253	1.05095
2842.70397	1.03507
2840.77540	1.02367
2838.84684	1.01552
2836.91828	1.00993
2834.98971	1.00610
2833.06115	1.00323
2831.13258	1.00079
2829.20402	0.99819
2827.27545	0.99530
2825.34689	0.99234
2823.41832	0.98948
2821.48976	0.98716
2819.56120	0.98526
2817.63263	0.98330
2815.70407	0.98152
2813.77550	0.97939
2811.84694	0.97563
2809.91837	0.97132
2807.98981	0.96875
2806.06124	0.96726
2804.13268	0.96472
2802.20412	0.96155
2800.27555	0.95870
2798.34699	0.95512
2796.41842	0.95081
2794.48986	0.94736
2792.56129	0.94504
2790.63273	0.94313
2788.70416	0.94102
2786.77560	0.93834
2784.84704	0.93545
2782.91847	0.93337
2780.98991	0.93200
2779.06134	0.93033
2777.13278	0.92862
2775.20421	0.92731
2773.27565	0.92541
2771.34708	0.92281
2769.41852	0.92065
2767.48996	0.91931
2765.56139	0.91811
2763.63283	0.91657
2761.70426	0.91484
2759.77570	0.91325
2757.84713	0.91189
2755.91857	0.91109
2753.99001	0.91092
2752.06144	0.91065
2750.13288	0.90985
2748.20431	0.90897
2746.27575	0.90831
2744.34718	0.90767
2742.41862	0.90687
2740.49005	0.90594
2738.56149	0.90517
2736.63293	0.90483
2734.70436	0.90453
2732.77580	0.90373
2730.84723	0.90286
2728.91867	0.90254
2726.99010	0.90197
2725.06154	0.90018
2723.13297	0.89816
2721.20441	0.89673
2719.27585	0.89546
2717.34728	0.89429
2715.41872	0.89334
2713.49015	0.89227
2711.56159	0.89100
2709.63302	0.88979
2707.70446	0.88857
2705.77589	0.88703
2703.84733	0.88520
2701.91877	0.88363
2699.99020	0.88241
2698.06164	0.88094
2696.13307	0.87912
2694.20451	0.87731
2692.27594	0.87603
2690.34738	0.87562
2688.41881	0.87518
2686.49025	0.87377
2684.56169	0.87204
2682.63312	0.87073
2680.70456	0.86948
2678.77599	0.86808
2676.84743	0.86669
2674.91886	0.86532
2672.99030	0.86453
2671.06173	0.86428
2669.13317	0.86337
2667.20461	0.86208
2665.27604	0.86154
2663.34748	0.86137
2661.41891	0.86078
2659.49035	0.85967
2657.56178	0.85846
2655.63322	0.85780
2653.70465	0.85784
2651.77609	0.85794
2649.84753	0.85761
2647.91896	0.85708
2645.99040	0.85665
2644.06183	0.85632
2642.13327	0.85622
2640.20470	0.85627
2638.27614	0.85616
2636.34757	0.85607
2634.41901	0.85635
2632.49045	0.85639
2630.56188	0.85608
2628.63332	0.85600
2626.70475	0.85562
2624.77619	0.85467
2622.84762	0.85394
2620.91906	0.85353
2618.99049	0.85311
2617.06193	0.85271
2615.13337	0.85241
2613.20480	0.85197
2611.27624	0.85101
2609.34767	0.84978
2607.41911	0.84856
2605.49054	0.84690
2603.56198	0.84502
2601.63342	0.84374
2599.70485	0.84299
2597.77629	0.84190
2595.84772	0.83992
2593.91916	0.83757
2591.99059	0.83551
2590.06203	0.83388
2588.13346	0.83252
2586.20490	0.83068
2584.27634	0.82806
2582.34777	0.82539
2580.41921	0.82299
2578.49064	0.82048
2576.56208	0.81789
2574.63351	0.81560
2572.70495	0.81355
2570.77638	0.81156
2568.84782	0.80980
2566.91926	0.80822
2564.99069	0.80644
2563.06213	0.80458
2561.13356	0.80285
2559.20500	0.80101
2557.27643	0.79923
2555.34787	0.79787
2553.41930	0.79646
2551.49074	0.79467
2549.56218	0.79292
2547.63361	0.79167
2545.70505	0.79104
2543.77648	0.79053
2541.84792	0.78952
2539.91935	0.78796
2537.99079	0.78640
2536.06222	0.78545
2534.13366	0.78485
2532.20510	0.78403
2530.27653	0.78313
2528.34797	0.78252
2526.41940	0.78201
2524.49084	0.78130
2522.56227	0.78053
2520.63371	0.77989
2518.70514	0.77949
2516.77658	0.77923
2514.84802	0.77901
2512.91945	0.77876
2510.99089	0.77792
2509.06232	0.77640
2507.13376	0.77528
2505.20519	0.77486
2503.27663	0.77435
2501.34806	0.77347
2499.41950	0.77230
2497.49094	0.77102
2495.56237	0.76991
2493.63381	0.76893
2491.70524	0.76789
2489.77668	0.76669
2487.84811	0.76526
2485.91955	0.76380
2483.99098	0.76245
2482.06242	0.76085
2480.13386	0.75887
2478.20529	0.75697
2476.27673	0.75528
2474.34816	0.75362
2472.41960	0.75206
2470.49103	0.75038
2468.56247	0.74817
2466.63391	0.74588
2464.70534	0.74394
2462.77678	0.74205
2460.84821	0.74009
2458.91965	0.73837
2456.99108	0.73705
2455.06252	0.73605
2453.13395	0.73485
2451.20539	0.73315
2449.27683	0.73113
2447.34826	0.72919
2445.41970	0.72778
2443.49113	0.72700
2441.56257	0.72649
2439.63400	0.72591
2437.70544	0.72526
2435.77687	0.72445
2433.84831	0.72336
2431.91975	0.72230
2429.99118	0.72179
2428.06262	0.72172
2426.13405	0.72166
2424.20549	0.72159
2422.27692	0.72145
2420.34836	0.72110
2418.41979	0.72072
2416.49123	0.72060
2414.56267	0.72081
2412.63410	0.72113
2410.70554	0.72123
2408.77697	0.72098
2406.84841	0.72065
2404.91984	0.72054
2402.99128	0.72052
2401.06271	0.72031
2399.13415	0.72008
2397.20559	0.72012
2395.27702	0.72014
2393.34846	0.71978
2391.41989	0.71927
2389.49133	0.71895
2387.56276	0.71915
2385.63420	0.71997
2383.70563	0.72129
2381.77707	0.72306
2379.84851	0.72509
2377.91994	0.72713
2375.99138	0.72940
2374.06281	0.73201
2372.13425	0.73474
2370.20568	0.73740
2368.27712	0.73967
2366.34855	0.74096
2364.41999	0.74034
2362.49143	0.73844
2360.56286	0.73726
2358.63430	0.73572
2356.70573	0.73091
2354.77717	0.72341
2352.84860	0.71568
2350.92004	0.71065
2348.99147	0.70935
2347.06291	0.71034
2345.13435	0.71235
2343.20578	0.71453
2341.27722	0.71459
2339.34865	0.71226
2337.42009	0.70919
2335.49152	0.70558
2333.56296	0.70264
2331.63440	0.70105
2329.70583	0.69952
2327.77727	0.69762
2325.84870	0.69535
2323.92014	0.69259
2321.99157	0.69002
2320.06301	0.68779
2318.13444	0.68563
2316.20588	0.68404
2314.27732	0.68316
2312.34875	0.68248
2310.42019	0.68147
2308.49162	0.67987
2306.56306	0.67803
2304.63449	0.67634
2302.70593	0.67489
2300.77736	0.67375
2298.84880	0.67288
2296.92024	0.67198
2294.99167	0.67082
2293.06311	0.66943
2291.13454	0.66797
2289.20598	0.66675
2287.27741	0.66593
2285.34885	0.66525
2283.42028	0.66449
2281.49172	0.66365
2279.56316	0.66286
2277.63459	0.66224
2275.70603	0.66171
2273.77746	0.66116
2271.84890	0.66051
2269.92033	0.65953
2267.99177	0.65809
2266.06320	0.65653
2264.13464	0.65508
2262.20608	0.65350
2260.27751	0.65181
2258.34895	0.65028
2256.42038	0.64881
2254.49182	0.64738
2252.56325	0.64610
2250.63469	0.64464
2248.70612	0.64290
2246.77756	0.64130
2244.84900	0.63998
2242.92043	0.63887
2240.99187	0.63789
2239.06330	0.63677
2237.13474	0.63551
2235.20617	0.63435
2233.27761	0.63333
2231.34904	0.63243
2229.42048	0.63167
2227.49192	0.63117
2225.56335	0.63112
2223.63479	0.63117
2221.70622	0.63076
2219.77766	0.63029
2217.84909	0.63037
2215.92053	0.63083
2213.99196	0.63131
2212.06340	0.63173
2210.13484	0.63214
2208.20627	0.63253
2206.27771	0.63285
2204.34914	0.63320
2202.42058	0.63392
2200.49201	0.63493
2198.56345	0.63586
2196.63488	0.63664
2194.70632	0.63756
2192.77776	0.63867
2190.84919	0.63965
2188.92063	0.64038
2186.99206	0.64115
2185.06350	0.64210
2183.13493	0.64296
2181.20637	0.64354
2179.27781	0.64414
2177.34924	0.64495
2175.42068	0.64560
2173.49211	0.64573
2171.56355	0.64559
2169.63498	0.64557
2167.70642	0.64567
2165.77785	0.64596
2163.84929	0.64636
2161.92073	0.64639
2159.99216	0.64610
2158.06360	0.64589
2156.13503	0.64573
2154.20647	0.64539
2152.27790	0.64496
2150.34934	0.64469
2148.42077	0.64436
2146.49221	0.64367
2144.56365	0.64277
2142.63508	0.64194
2140.70652	0.64134
2138.77795	0.64072
2136.84939	0.63985
2134.92082	0.63896
2132.99226	0.63816
2131.06369	0.63721
2129.13513	0.63608
2127.20657	0.63505
2125.27800	0.63422
2123.34944	0.63357
2121.42087	0.63293
2119.49231	0.63207
2117.56374	0.63123
2115.63518	0.63069
2113.70661	0.63017
2111.77805	0.62960
2109.84949	0.62935
2107.92092	0.62925
2105.99236	0.62884
2104.06379	0.62835
2102.13523	0.62822
2100.20666	0.62822
2098.27810	0.62818
2096.34953	0.62828
2094.42097	0.62872
2092.49241	0.62939
2090.56384	0.63005
2088.63528	0.63055
2086.70671	0.63103
2084.77815	0.63172
2082.84958	0.63261
2080.92102	0.63354
2078.99245	0.63434
2077.06389	0.63500
2075.13533	0.63560
2073.20676	0.63625
2071.27820	0.63703
2069.34963	0.63787
2067.42107	0.63870
2065.49250	0.63943
2063.56394	0.63989
2061.63537	0.64025
2059.70681	0.64062
2057.77825	0.64081
2055.84968	0.64089
2053.92112	0.64111
2051.99255	0.64139
2050.06399	0.64140
2048.13542	0.64120
2046.20686	0.64102
2044.27830	0.64085
2042.34973	0.64056
2040.42117	0.64021
2038.49260	0.63992
2036.56404	0.63968
2034.63547	0.63943
2032.70691	0.63913
2030.77834	0.63870
2028.84978	0.63811
2026.92122	0.63765
2024.99265	0.63734
2023.06409	0.63695
2021.13552	0.63679
2019.20696	0.63702
2017.27839	0.63689
2015.34983	0.63613
2013.42126	0.63545
2011.49270	0.63521
2009.56414	0.63509
2007.63557	0.63485
2005.70701	0.63453
2003.77844	0.63432
2001.84988	0.63445
1999.92131	0.63488
1997.99275	0.63521
1996.06418	0.63573
1994.13562	0.63680
1992.20706	0.63761
1990.27849	0.63777
1988.34993	0.63793
1986.42136	0.63824
1984.49280	0.63880
1982.56423	0.63985
1980.63567	0.64105
1978.70710	0.64199
1976.77854	0.64268
1974.84998	0.64346
1972.92141	0.64440
1970.99285	0.64556
1969.06428	0.64704
1967.13572	0.64827
1965.20715	0.64886
1963.27859	0.64946
1961.35002	0.65036
1959.42146	0.65134
1957.49290	0.65227
1955.56433	0.65291
1953.63577	0.65316
1951.70720	0.65354
1949.77864	0.65445
1947.85007	0.65567
1945.92151	0.65687
1943.99294	0.65764
1942.06438	0.65737
1940.13582	0.65656
1938.20725	0.65611
1936.27869	0.65587
1934.35012	0.65549
1932.42156	0.65498
1930.49299	0.65444
1928.56443	0.65383
1926.63586	0.65340
1924.70730	0.65313
1922.77874	0.65230
1920.85017	0.65115
1918.92161	0.64991
1916.99304	0.64784
1915.06448	0.64579
1913.13591	0.64484
1911.20735	0.64465
1909.27878	0.64405
1907.35022	0.64248
1905.42166	0.64079
1903.49309	0.63938
1901.56453	0.63805
1899.63596	0.63694
1897.70740	0.63620
1895.77883	0.63549
1893.85027	0.63468
1891.92171	0.63414
1889.99314	0.63322
1888.06458	0.63168
1886.13601	0.63083
1884.20745	0.63057
1882.27888	0.63035
1880.35032	0.63023
1878.42175	0.63022
1876.49319	0.63040
1874.56463	0.63125
1872.63606	0.63318
1870.70750	0.63578
1868.77893	0.63704
1866.85037	0.63578
1864.92180	0.63478
1862.99324	0.63528
1861.06467	0.63647
1859.13611	0.63750
1857.20755	0.63826
1855.27898	0.63926
1853.35042	0.64061
1851.42185	0.64215
1849.49329	0.64419
1847.56472	0.64679
1845.63616	0.64890
1843.70759	0.64875
1841.77903	0.64788
1839.85047	0.64842
1837.92190	0.64964
1835.99334	0.65043
1834.06477	0.65131
1832.13621	0.65317
1830.20764	0.65478
1828.27908	0.65480
1826.35051	0.65449
1824.42195	0.65388
1822.49339	0.65306
1820.56482	0.65288
1818.63626	0.65312
1816.70769	0.65316
1814.77913	0.65347
1812.85056	0.65430
1810.92200	0.65439
1808.99343	0.65330
1807.06487	0.65229
1805.13631	0.65227
1803.20774	0.65300
1801.27918	0.65328
1799.35061	0.65274
1797.42205	0.65286
1795.49348	0.65399
1793.56492	0.65468
1791.63635	0.65296
1789.70779	0.65071
1787.77923	0.65043
1785.85066	0.65124
1783.92210	0.65236
1781.99353	0.65379
1780.06497	0.65479
1778.13640	0.65556
1776.20784	0.65737
1774.27927	0.66037
1772.35071	0.66235
1770.42215	0.66189
1768.49358	0.66140
1766.56502	0.66196
1764.63645	0.66403
1762.70789	0.66707
1760.77932	0.66976
1758.85076	0.67257
1756.92220	0.67642
1754.99363	0.68101
1753.06507	0.68717
1751.13650	0.69628
1749.20794	0.70598
1747.27937	0.71293
1745.35081	0.71852
1743.42224	0.72380
1741.49368	0.72845
1739.56512	0.73214
1737.63655	0.73519
1735.70799	0.73802
1733.77942	0.73951
1731.85086	0.73881
1729.92229	0.73771
1727.99373	0.73713
1726.06516	0.73830
1724.13660	0.74121
1722.20804	0.74483
1720.27947	0.74958
1718.35091	0.75677
1716.42234	0.76433
1714.49378	0.76883
1712.56521	0.77388
1710.63665	0.78195
1708.70808	0.79336
1706.77952	0.81040
1704.85096	0.83284
1702.92239	0.85480
1700.99383	0.88618
1699.06526	0.93314
1697.13670	0.97486
1695.20813	1.01338
1693.27957	1.04352
1691.35100	1.07021
1689.42244	1.10217
1687.49388	1.13198
1685.56531	1.16212
1683.63675	1.20317
1681.70818	1.23000
1679.77962	1.24536
1677.85105	1.26042
1675.92249	1.27733
1673.99392	1.29451
1672.06536	1.30921
1670.13680	1.32420
1668.20823	1.33617
1666.27967	1.34129
1664.35110	1.34614
1662.42254	1.35291
1660.49397	1.35756
1658.56541	1.35979
1656.63684	1.36177
1654.70828	1.36412
1652.77972	1.36310
1650.85115	1.36156
1648.92259	1.36159
1646.99402	1.35875
1645.06546	1.35294
1643.13689	1.34821
1641.20833	1.34520
1639.27976	1.34413
1637.35120	1.34411
1635.42264	1.34007
1633.49407	1.33410
1631.56551	1.33012
1629.63694	1.32525
1627.70838	1.31874
1625.77981	1.31198
1623.85125	1.30295
1621.92269	1.29126
1619.99412	1.28279
1618.06556	1.27400
1616.13699	1.25786
1614.20843	1.24345
1612.27986	1.23353
1610.35130	1.22317
1608.42273	1.21107
1606.49417	1.20004
1604.56561	1.19177
1602.63704	1.18499
1600.70848	1.17935
1598.77991	1.17501
1596.85135	1.17152
1594.92278	1.16784
1592.99422	1.16411
1591.06565	1.16142
1589.13709	1.16011
1587.20853	1.16032
1585.27996	1.16174
1583.35140	1.16423
1581.42283	1.16780
1579.49427	1.17269
1577.56570	1.17971
1575.63714	1.18826
1573.70857	1.19492
1571.78001	1.20136
1569.85145	1.20983
1567.92288	1.21760
1565.99432	1.22383
1564.06575	1.23076
1562.13719	1.23797
1560.20862	1.24652
1558.28006	1.25510
1556.35149	1.25781
1554.42293	1.26036
1552.49437	1.26293
1550.56580	1.26433
1548.63724	1.26478
1546.70867	1.26646
1544.78011	1.26940
1542.85154	1.27122
1540.92298	1.26871
1538.99441	1.26005
1537.06585	1.25506
1535.13729	1.25253
1533.20872	1.24852
1531.28016	1.24440
1529.35159	1.24324
1527.42303	1.24353
1525.49446	1.24351
1523.56590	1.24395
1521.63733	1.24330
1519.70877	1.24035
1517.78021	1.23580
1515.85164	1.22814
1513.92308	1.22034
1511.99451	1.21506
1510.06595	1.21344
1508.13738	1.20974
1506.20882	1.18532
1504.28025	1.16851
1502.35169	1.16298
1500.42313	1.15941
1498.49456	1.15366
1496.56600	1.14213
1494.63743	1.13099
1492.70887	1.12499
1490.78030	1.11946
1488.85174	1.10880
1486.92317	1.09734
1484.99461	1.08956
1483.06605	1.08460
1481.13748	1.08138
1479.20892	1.07989
1477.28035	1.08098
1475.35179	1.08535
1473.42322	1.09220
1471.49466	1.09689
1469.56610	1.09895
1467.63753	1.10157
1465.70897	1.10499
1463.78040	1.10760
1461.85184	1.10966
1459.92327	1.11294
1457.99471	1.11743
1456.06614	1.11766
1454.13758	1.11506
1452.20902	1.11323
1450.28045	1.11159
1448.35189	1.10867
1446.42332	1.10377
1444.49476	1.09890
1442.56619	1.09508
1440.63763	1.09272
1438.70906	1.09147
1436.78050	1.08752
1434.85194	1.08033
1432.92337	1.07526
1430.99481	1.07125
1429.06624	1.06724
1427.13768	1.06600
1425.20911	1.06808
1423.28055	1.07160
1421.35198	1.07581
1419.42342	1.08130
1417.49486	1.08577
1415.56629	1.08802
1413.63773	1.09010
1411.70916	1.09253
1409.78060	1.09530
1407.85203	1.09866
1405.92347	1.10273
1403.99490	1.10630
1402.06634	1.10904
1400.13778	1.11235
1398.20921	1.11627
1396.28065	1.11882
1394.35208	1.11835
1392.42352	1.11749
1390.49495	1.11913
1388.56639	1.12299
1386.63782	1.12732
1384.70926	1.13032
1382.78070	1.13229
1380.85213	1.13331
1378.92357	1.13306
1376.99500	1.13103
1375.06644	1.12454
1373.13787	1.11291
1371.20931	1.10136
1369.28074	1.08986
1367.35218	1.07700
1365.42362	1.06526
1363.49505	1.05289
1361.56649	1.03807
1359.63792	1.02605
1357.70936	1.01833
1355.78079	1.01245
1353.85223	1.00716
1351.92366	1.00255
1349.99510	0.99862
1348.06654	0.99494
1346.13797	0.99151
1344.20941	0.98922
1342.28084	0.98869
1340.35228	0.98893
1338.42371	0.98808
1336.49515	0.98665
1334.56659	0.98664
1332.63802	0.98881
1330.70946	0.99255
1328.78089	0.99645
1326.85233	0.99959
1324.92376	1.00205
1322.99520	1.00469
1321.06663	1.00808
1319.13807	1.01149
1317.20951	1.01446
1315.28094	1.01743
1313.35238	1.02011
1311.42381	1.02202
1309.49525	1.02354
1307.56668	1.02468
1305.63812	1.02555
1303.70955	1.02672
1301.78099	1.02794
1299.85243	1.02848
1297.92386	1.02791
1295.99530	1.02661
1294.06673	1.02581
1292.13817	1.02618
1290.20960	1.02699
1288.28104	1.02744
1286.35247	1.02766
1284.42391	1.02792
1282.49535	1.02809
1280.56678	1.02786
1278.63822	1.02760
1276.70965	1.02812
1274.78109	1.02935
1272.85252	1.03080
1270.92396	1.03228
1268.99539	1.03378
1267.06683	1.03503
1265.13827	1.03564
1263.20970	1.03582
1261.28114	1.03587
1259.35257	1.03570
1257.42401	1.03529
1255.49544	1.03492
1253.56688	1.03465
1251.63831	1.03419
1249.70975	1.03360
1247.78119	1.03299
1245.85262	1.03235
1243.92406	1.03164
1241.99549	1.03063
1240.06693	1.02916
1238.13836	1.02723
1236.20980	1.02510
1234.28123	1.02278
1232.35267	1.01968
1230.42411	1.01571
1228.49554	1.01154
1226.56698	1.00714
1224.63841	1.00219
1222.70985	0.99726
1220.78128	0.99305
1218.85272	0.98970
1216.92415	0.98688
1214.99559	0.98472
1213.06703	0.98418
1211.13846	0.98559
1209.20990	0.98807
1207.28133	0.99054
1205.35277	0.99199
1203.42420	0.99142
1201.49564	0.98885
1199.56708	0.98570
1197.63851	0.98343
1195.70995	0.98233
1193.78138	0.98215
1191.85282	0.98301
1189.92425	0.98464
1187.99569	0.98647
1186.06712	0.98898
1184.13856	0.99308
1182.21000	0.99832
1180.28143	1.00385
1178.35287	1.00997
1176.42430	1.01728
1174.49574	1.02563
1172.56717	1.03406
1170.63861	1.04195
1168.71004	1.04991
1166.78148	1.05851
1164.85292	1.06721
1162.92435	1.07469
1160.99579	1.07952
1159.06722	1.08096
1157.13866	1.07902
1155.21009	1.07400
1153.28153	1.06594
1151.35296	1.05515
1149.42440	1.04336
1147.49584	1.03230
1145.56727	1.02226
1143.63871	1.01345
1141.71014	1.00660
1139.78158	1.00210
1137.85301	0.99949
1135.92445	0.99790
1133.99588	0.99746
1132.06732	0.99946
1130.13876	1.00442
1128.21019	1.01116
1126.28163	1.01818
1124.35306	1.02549
1122.42450	1.03304
1120.49593	1.03939
1118.56737	1.04407
1116.63880	1.04736
1114.71024	1.04892
1112.78168	1.04904
1110.85311	1.04851
1108.92455	1.04776
1106.99598	1.04744
1105.06742	1.04802
1103.13885	1.04953
1101.21029	1.05210
1099.28172	1.05528
1097.35316	1.05936
1095.42460	1.06602
1093.49603	1.07487
1091.56747	1.08367
1089.63890	1.09248
1087.71034	1.10258
1085.78177	1.11277
1083.85321	1.12105
1081.92464	1.12706
1079.99608	1.13115
1078.06752	1.13339
1076.13895	1.13335
1074.21039	1.13033
1072.28182	1.12455
1070.35326	1.11723
1068.42469	1.11026
1066.49613	1.10495
1064.56756	1.10031
1062.63900	1.09526
1060.71044	1.09065
1058.78187	1.08734
1056.85331	1.08501
1054.92474	1.08209
1052.99618	1.07780
1051.06761	1.07408
1049.13905	1.07212
1047.21049	1.07097
1045.28192	1.07056
1043.35336	1.07115
1041.42479	1.07217
1039.49623	1.07327
1037.56766	1.07354
1035.63910	1.07173
1033.71053	1.06862
1031.78197	1.06531
1029.85341	1.06079
1027.92484	1.05440
1025.99628	1.04693
1024.06771	1.03914
1022.13915	1.03181
1020.21058	1.02546
1018.28202	1.01946
1016.35345	1.01303
1014.42489	1.00587
1012.49633	0.99761
1010.56776	0.98790
1008.63920	0.97681
1006.71063	0.96486
1004.78207	0.95273
1002.85350	0.94134
1000.92494	0.93163
998.99637	0.92363
997.06781	0.91634
995.13925	0.90918
993.21068	0.90251
991.28212	0.89618
989.35355	0.88975
987.42499	0.88330
985.49642	0.87722
983.56786	0.87200
981.63929	0.86811
979.71073	0.86562
977.78217	0.86428
975.85360	0.86363
973.92504	0.86254
971.99647	0.86006
970.06791	0.85670
968.13934	0.85356
966.21078	0.85171
964.28221	0.85216
962.35365	0.85575
960.42509	0.86330
958.49652	0.87422
956.56796	0.88511
954.63939	0.89233
952.71083	0.89531
950.78226	0.89555
948.85370	0.89487
946.92513	0.89484
944.99657	0.89631
943.06801	0.89932
941.13944	0.90348
939.21088	0.90799
937.28231	0.91174
935.35375	0.91414
933.42518	0.91543
931.49662	0.91601
929.56805	0.91579
927.63949	0.91443
925.71093	0.91222
923.78236	0.90961
921.85380	0.90629
919.92523	0.90172
917.99667	0.89609
916.06810	0.89020
914.13954	0.88442
912.21098	0.87863
910.28241	0.87302
908.35385	0.86804
906.42528	0.86410
904.49672	0.86125
902.56815	0.85944
900.63959	0.85834
898.71102	0.85693
896.78246	0.85471
894.85390	0.85208
892.92533	0.84959
890.99677	0.84760
889.06820	0.84618
887.13964	0.84554
885.21107	0.84563
883.28251	0.84596
881.35394	0.84661
879.42538	0.84827
877.49682	0.85088
875.56825	0.85370
873.63969	0.85657
871.71112	0.85992
869.78256	0.86401
867.85399	0.86877
865.92543	0.87389
863.99686	0.87917
862.06830	0.88451
860.13974	0.88991
858.21117	0.89591
856.28261	0.90277
854.35404	0.91005
852.42548	0.91731
850.49691	0.92425
848.56835	0.93050
846.63978	0.93591
844.71122	0.94028
842.78266	0.94317
840.85409	0.94528
838.92553	0.94794
836.99696	0.95038
835.06840	0.95129
833.13983	0.95095
831.21127	0.94987
829.28270	0.94844
827.35414	0.94680
825.42558	0.94435
823.49701	0.94079
821.56845	0.93653
819.63988	0.93242
817.71132	0.92859
815.78275	0.92407
813.85419	0.91881
811.92562	0.91393
809.99706	0.91009
808.06850	0.90672
806.13993	0.90275
804.21137	0.89850
802.28280	0.89473
800.35424	0.89124
798.42567	0.88815
796.49711	0.88567
794.56854	0.88361
792.63998	0.88222
790.71142	0.88168
788.78285	0.88206
786.85429	0.88317
784.92572	0.88406
782.99716	0.88462
781.06859	0.88540
779.14003	0.88649
777.21147	0.88799
775.28290	0.89024
773.35434	0.89339
771.42577	0.89734
769.49721	0.90128
767.56864	0.90407
765.64008	0.90598
763.71151	0.90890
761.78295	0.91377
759.85439	0.91919
757.92582	0.92412
755.99726	0.92933
754.06869	0.93496
752.14013	0.94027
750.21156	0.94609
748.28300	0.95311
746.35443	0.96028
744.42587	0.96743
742.49731	0.97469
740.56874	0.98007
738.64018	0.98331
736.71161	0.98713
734.78305	0.99242
732.85448	0.99834
730.92592	1.00403
728.99735	1.00803
727.06879	1.01065
725.14023	1.01386
723.21166	1.01839
721.28310	1.02273
719.35453	1.02345
717.42597	1.02029
715.49740	1.01721
713.56884	1.01549
711.64027	1.01327
709.71171	1.01018
707.78315	1.00694
705.85458	1.00344
703.92602	1.00000
701.99745	0.99640
700.06889	0.99162
698.14032	0.98635
696.21176	0.98120
694.28319	0.97588
692.35463	0.97063
690.42607	0.96556
688.49750	0.96064
686.56894	0.95599
684.64037	0.95219
682.71181	0.95023
680.78324	0.94922
678.85468	0.94740
676.92611	0.94485
674.99755	0.94223
673.06899	0.94106
671.14042	0.94272
669.21186	0.94416
667.28329	0.94096
665.35473	0.93980
663.42616	0.94225
661.49760	0.94565
659.56903	0.94892
657.64047	0.95172
655.71191	0.95389
653.78334	0.95716
651.85478	0.96272
649.92621	0.96853
647.99765	0.97351
646.06908	0.97869
644.14052	0.98396
642.21195	0.99037
640.28339	0.99875
638.35483	1.00604
636.42626	1.01157
634.49770	1.01813
632.56913	1.02573
630.64057	1.03295
628.71200	1.03955
626.78344	1.04544
624.85488	1.05084
622.92631	1.05663
620.99775	1.06315
619.06918	1.07013
617.14062	1.07626
615.21205	1.07926
613.28349	1.07939
611.35492	1.07819
609.42636	1.07647
607.49780	1.07572
605.56923	1.07543
603.64067	1.07393
601.71210	1.07196
599.78354	1.06928
