3997.91406	0.78570
3995.98550	0.78518
3994.05693	0.78559
3992.12837	0.78556
3990.19980	0.78479
3988.27124	0.78431
3986.34268	0.78414
3984.41411	0.78385
3982.48555	0.78376
3980.55698	0.78377
3978.62842	0.78376
3976.69985	0.78431
3974.77129	0.78486
3972.84272	0.78425
3970.91416	0.78282
3968.98560	0.78188
3967.05703	0.78282
3965.12847	0.78448
3963.19990	0.78286
3961.27134	0.77785
3959.34277	0.77439
3957.41421	0.77379
3955.48564	0.77354
3953.55708	0.77314
3951.62852	0.77330
3949.69995	0.77281
3947.77139	0.77153
3945.84282	0.77108
3943.91426	0.77060
3941.98569	0.76913
3940.05713	0.76718
3938.12856	0.76480
3936.20000	0.76241
3934.27144	0.76048
3932.34287	0.75913
3930.41431	0.75915
3928.48574	0.76099
3926.55718	0.76335
3924.62861	0.76455
3922.70005	0.76433
3920.77148	0.76307
3918.84292	0.76162
3916.91436	0.76093
3914.98579	0.76078
3913.05723	0.76107
3911.12866	0.76197
3909.20010	0.76303
3907.27153	0.76273
3905.34297	0.76011
3903.41440	0.75733
3901.48584	0.75732
3899.55728	0.76006
3897.62871	0.76296
3895.70015	0.76352
3893.77158	0.76113
3891.84302	0.75714
3889.91445	0.75586
3887.98589	0.75665
3886.05733	0.75689
3884.12876	0.75594
3882.20020	0.75253
3880.27163	0.74731
3878.34307	0.74565
3876.41450	0.74671
3874.48594	0.74701
3872.55737	0.74537
3870.62881	0.74229
3868.70025	0.74124
3866.77168	0.74131
3864.84312	0.73842
3862.91455	0.73629
3860.98599	0.73873
3859.05742	0.74126
3857.12886	0.74013
3855.20029	0.73321
3853.27173	0.72660
3851.34317	0.73105
3849.41460	0.73625
3847.48604	0.73940
3845.55747	0.74058
3843.62891	0.73918
3841.70034	0.73771
3839.77178	0.73946
3837.84321	0.74246
3835.91465	0.74344
3833.98609	0.74201
3832.05752	0.73947
3830.12896	0.73894
3828.20039	0.73842
3826.27183	0.73605
3824.34326	0.73611
3822.41470	0.73791
3820.48613	0.73674
3818.55757	0.73531
3816.62901	0.73426
3814.70044	0.73416
3812.77188	0.73570
3810.84331	0.73696
3808.91475	0.73735
3806.98618	0.73700
3805.05762	0.73649
3803.12905	0.73395
3801.20049	0.72848
3799.27193	0.72588
3797.34336	0.72511
3795.41480	0.72518
3793.48623	0.72628
3791.55767	0.72600
3789.62910	0.72456
3787.70054	0.72325
3785.77197	0.72130
3783.84341	0.72012
3781.91485	0.72112
3779.98628	0.72171
3778.05772	0.72038
3776.12915	0.71863
3774.20059	0.71712
3772.27202	0.71652
3770.34346	0.71761
3768.41489	0.71843
3766.48633	0.71745
3764.55777	0.71681
3762.62920	0.71664
3760.70064	0.71501
3758.77207	0.71383
3756.84351	0.71651
3754.91494	0.72087
3752.98638	0.72405
3751.05781	0.72267
3749.12925	0.71810
3747.20069	0.71559
3745.27212	0.71537
3743.34356	0.71981
3741.41499	0.72603
3739.48643	0.72953
3737.55786	0.72831
3735.62930	0.72409
3733.70074	0.72356
3731.77217	0.72509
3729.84361	0.72597
3727.91504	0.72657
3725.98648	0.72603
3724.05791	0.72300
3722.12935	0.71942
3720.20078	0.71940
3718.27222	0.72154
3716.34366	0.72104
3714.41509	0.71699
3712.48653	0.71021
3710.55796	0.70598
3708.62940	0.70912
3706.70083	0.71363
3704.77227	0.71596
3702.84370	0.71649
3700.91514	0.71805
3698.98658	0.72105
3697.05801	0.72195
3695.12945	0.72032
3693.20088	0.71948
3691.27232	0.72028
3689.34375	0.72095
3687.41519	0.72200
3685.48662	0.72367
3683.55806	0.72587
3681.62950	0.72851
3679.70093	0.73114
3677.77237	0.73403
3675.84380	0.73843
3673.91524	0.74161
3671.98667	0.74152
3670.05811	0.74385
3668.12954	0.75237
3666.20098	0.76020
3664.27242	0.76542
3662.34385	0.76972
3660.41529	0.77363
3658.48672	0.77633
3656.55816	0.77886
3654.62959	0.78216
3652.70103	0.78411
3650.77246	0.78428
3648.84390	0.78896
3646.91534	0.79813
3644.98677	0.80370
3643.05821	0.80746
3641.12964	0.81138
3639.20108	0.81568
3637.27251	0.82019
3635.34395	0.82523
3633.41538	0.83079
3631.48682	0.83479
3629.55826	0.83546
3627.62969	0.83916
3625.70113	0.84791
3623.77256	0.85673
3621.84400	0.86349
3619.91543	0.86745
3617.98687	0.87430
3616.05830	0.88519
3614.12974	0.89285
3612.20118	0.89595
3610.27261	0.89911
3608.34405	0.90585
3606.41548	0.91552
3604.48692	0.92466
3602.55835	0.93195
3600.62979	0.93548
3598.70123	0.93732
3596.77266	0.94182
3594.84410	0.94909
3592.91553	0.95808
3590.98697	0.96732
3589.05840	0.97461
3587.12984	0.97758
3585.20127	0.98143
3583.27271	0.98814
3581.34415	0.99336
3579.41558	0.99764
3577.48702	1.00472
3575.55845	1.01275
3573.62989	1.01718
3571.70132	1.01836
3569.77276	1.01762
3567.84419	1.01711
3565.91563	1.02288
3563.98707	1.03223
3562.05850	1.04198
3560.12994	1.05129
3558.20137	1.05710
3556.27281	1.06093
3554.34424	1.06652
3552.41568	1.07244
3550.48711	1.07746
3548.55855	1.08430
3546.62999	1.09075
3544.70142	1.09261
3542.77286	1.09433
3540.84429	1.10027
3538.91573	1.10822
3536.98716	1.11508
3535.05860	1.11974
3533.13003	1.12226
3531.20147	1.12540
3529.27291	1.13101
3527.34434	1.13794
3525.41578	1.14579
3523.48721	1.15285
3521.55865	1.15873
3519.63008	1.16601
3517.70152	1.17329
3515.77295	1.17921
3513.84439	1.18601
3511.91583	1.19183
3509.98726	1.19518
3508.05870	1.20029
3506.13013	1.20755
3504.20157	1.21485
3502.27300	1.22140
3500.34444	1.22560
3498.41587	1.22808
3496.48731	1.23244
3494.55875	1.23991
3492.63018	1.24606
3490.70162	1.24663
3488.77305	1.24498
3486.84449	1.24608
3484.91592	1.24630
3482.98736	1.24348
3481.05879	1.24349
3479.13023	1.24907
3477.20167	1.25624
3475.27310	1.26073
3473.34454	1.26112
3471.41597	1.26007
3469.48741	1.26281
3467.55884	1.27073
3465.63028	1.27994
3463.70171	1.28636
3461.77315	1.28627
3459.84459	1.28085
3457.91602	1.27648
3455.98746	1.27795
3454.05889	1.28493
3452.13033	1.29116
3450.20176	1.29175
3448.27320	1.28780
3446.34464	1.28341
3444.41607	1.28357
3442.48751	1.29080
3440.55894	1.30092
3438.63038	1.30568
3436.70181	1.30332
3434.77325	1.29933
3432.84468	1.30000
3430.91612	1.30432
3428.98756	1.30590
3427.05899	1.30679
3425.13043	1.31047
3423.20186	1.31213
3421.27330	1.31111
3419.34473	1.31094
3417.41617	1.31008
3415.48760	1.30926
3413.55904	1.31237
3411.63048	1.31782
3409.70191	1.31962
3407.77335	1.31654
3405.84478	1.31254
3403.91622	1.31075
3401.98765	1.31150
3400.05909	1.31354
3398.13052	1.31616
3396.20196	1.31948
3394.27340	1.32451
3392.34483	1.32948
3390.41627	1.32728
3388.48770	1.31979
3386.55914	1.31787
3384.63057	1.32286
3382.70201	1.32693
3380.77344	1.32669
3378.84488	1.32474
3376.91632	1.32570
3374.98775	1.33170
3373.05919	1.33808
3371.13062	1.34140
3369.20206	1.34321
3367.27349	1.34269
3365.34493	1.34098
3363.41636	1.33925
3361.48780	1.33461
3359.55924	1.33187
3357.63067	1.33668
3355.70211	1.34417
3353.77354	1.34929
3351.84498	1.35116
3349.91641	1.34993
3347.98785	1.34810
3346.05928	1.34961
3344.13072	1.35386
3342.20216	1.35367
3340.27359	1.35016
3338.34503	1.35488
3336.41646	1.36625
3334.48790	1.36948
3332.55933	1.36242
3330.63077	1.35449
3328.70220	1.35038
3326.77364	1.35050
3324.84508	1.35261
3322.91651	1.35315
3320.98795	1.35212
3319.05938	1.35271
3317.13082	1.35595
3315.20225	1.35777
3313.27369	1.35595
3311.34513	1.35445
3309.41656	1.35580
3307.48800	1.35794
3305.55943	1.35783
3303.63087	1.35762
3301.70230	1.36218
3299.77374	1.36949
3297.84517	1.37343
3295.91661	1.37077
3293.98805	1.36388
3292.05948	1.35789
3290.13092	1.35348
3288.20235	1.35051
3286.27379	1.35027
3284.34522	1.35339
3282.41666	1.35984
3280.48809	1.36565
3278.55953	1.36808
3276.63097	1.36771
3274.70240	1.36385
3272.77384	1.35865
3270.84527	1.35598
3268.91671	1.35740
3266.98814	1.36255
3265.05958	1.36725
3263.13101	1.36621
3261.20245	1.36111
3259.27389	1.35564
3257.34532	1.34923
3255.41676	1.34388
3253.48819	1.34265
3251.55963	1.34247
3249.63106	1.34058
3247.70250	1.33905
3245.77393	1.33770
3243.84537	1.33469
3241.91681	1.33143
3239.98824	1.32729
3238.05968	1.32179
3236.13111	1.31942
3234.20255	1.32049
3232.27398	1.31945
3230.34542	1.31403
3228.41685	1.30641
3226.48829	1.30122
3224.55973	1.30002
3222.63116	1.29836
3220.70260	1.29480
3218.77403	1.29238
3216.84547	1.29101
3214.91690	1.28739
3212.98834	1.28300
3211.05977	1.28412
3209.13121	1.28786
3207.20265	1.28558
3205.27408	1.27820
3203.34552	1.27074
3201.41695	1.26699
3199.48839	1.26864
3197.55982	1.26998
3195.63126	1.26779
3193.70269	1.26642
3191.77413	1.26483
3189.84557	1.25901
3187.91700	1.25164
3185.98844	1.24879
3184.05987	1.25094
3182.13131	1.25092
3180.20274	1.24675
3178.27418	1.24197
3176.34562	1.23556
3174.41705	1.22841
3172.48849	1.22479
3170.55992	1.22430
3168.63136	1.22420
3166.70279	1.22442
3164.77423	1.22407
3162.84566	1.22125
3160.91710	1.21704
3158.98854	1.21266
3157.05997	1.20893
3155.13141	1.20667
3153.20284	1.20439
3151.27428	1.20225
3149.34571	1.20189
3147.41715	1.20053
3145.48858	1.19600
3143.56002	1.19364
3141.63146	1.19708
3139.70289	1.20044
3137.77433	1.19931
3135.84576	1.19655
3133.91720	1.19278
3131.98863	1.18733
3130.06007	1.18277
3128.13150	1.18084
3126.20294	1.18194
3124.27438	1.18518
3122.34581	1.18820
3120.41725	1.18916
3118.48868	1.18659
3116.56012	1.18224
3114.63155	1.18151
3112.70299	1.18523
3110.77442	1.18772
3108.84586	1.18688
3106.91730	1.18692
3104.98873	1.18856
3103.06017	1.18939
3101.13160	1.19057
3099.20304	1.19325
3097.27447	1.19554
3095.34591	1.19478
3093.41734	1.19012
3091.48878	1.18599
3089.56022	1.18612
3087.63165	1.18725
3085.70309	1.18659
3083.77452	1.18568
3081.84596	1.18529
3079.91739	1.18339
3077.98883	1.17900
3076.06026	1.17602
3074.13170	1.17612
3072.20314	1.17531
3070.27457	1.17248
3068.34601	1.16996
3066.41744	1.16783
3064.48888	1.16509
3062.56031	1.16167
3060.63175	1.15703
3058.70318	1.15193
3056.77462	1.14883
3054.84606	1.14691
3052.91749	1.14400
3050.98893	1.14149
3049.06036	1.13979
3047.13180	1.13761
3045.20323	1.13532
3043.27467	1.13229
3041.34610	1.12786
3039.41754	1.12371
3037.48898	1.12043
3035.56041	1.11806
3033.63185	1.11738
3031.70328	1.11715
3029.77472	1.11520
3027.84615	1.11179
3025.91759	1.10798
3023.98903	1.10473
3022.06046	1.10360
3020.13190	1.10365
3018.20333	1.10299
3016.27477	1.10206
3014.34620	1.10060
3012.41764	1.09901
3010.48907	1.09910
3008.56051	1.10013
3006.63195	1.10065
3004.70338	1.09995
3002.77482	1.09817
3000.84625	1.09670
2998.91769	1.09613
2996.98912	1.09581
2995.06056	1.09550
2993.13199	1.09625
2991.20343	1.09886
2989.27487	1.10299
2987.34630	1.10750
2985.41774	1.10956
2983.48917	1.10876
2981.56061	1.10892
2979.63204	1.11161
2977.70348	1.11538
2975.77491	1.12106
2973.84635	1.12901
2971.91779	1.13592
2969.98922	1.14053
2968.06066	1.14469
2966.13209	1.14942
2964.20353	1.15506
2962.27496	1.15975
2960.34640	1.16040
2958.41783	1.15764
2956.48927	1.15409
2954.56071	1.15017
2952.63214	1.14556
2950.70358	1.14167
2948.77501	1.14000
2946.84645	1.14065
2944.91788	1.14363
2942.98932	1.14909
2941.06075	1.15648
2939.13219	1.16517
2937.20363	1.17412
2935.27506	1.18172
2933.34650	1.18757
2931.41793	1.19226
2929.48937	1.19723
2927.56080	1.20303
2925.63224	1.20794
2923.70367	1.21139
2921.77511	1.21494
2919.84655	1.21841
2917.91798	1.21758
2915.98942	1.20741
2914.06085	1.18959
2912.13229	1.17054
2910.20372	1.15316
2908.27516	1.13818
2906.34659	1.12745
2904.41803	1.12052
2902.48947	1.11522
2900.56090	1.11156
2898.63234	1.10861
2896.70377	1.10450
2894.77521	1.10117
2892.84664	1.10085
2890.91808	1.10017
2888.98952	1.09579
2887.06095	1.09073
2885.13239	1.08739
2883.20382	1.08480
2881.27526	1.08467
2879.34669	1.08755
2877.41813	1.08972
2875.48956	1.08935
2873.56100	1.08769
2871.63244	1.08501
2869.70387	1.08013
2867.77531	1.07404
2865.84674	1.07024
2863.91818	1.07035
2861.98961	1.07269
2860.06105	1.07560
2858.13248	1.07912
2856.20392	1.08412
2854.27536	1.09231
2852.34679	1.10197
2850.41823	1.10527
2848.48966	1.09531
2846.56110	1.07405
2844.63253	1.05079
2842.70397	1.03182
2840.77540	1.01727
2838.84684	1.00670
2836.91828	0.99961
2834.98971	0.99409
2833.06115	0.98873
2831.13258	0.98301
2829.20402	0.97732
2827.27545	0.97219
2825.34689	0.96701
2823.41832	0.96176
2821.48976	0.95745
2819.56120	0.95393
2817.63263	0.95043
2815.70407	0.94625
2813.77550	0.94120
2811.84694	0.93652
2809.91837	0.93309
2807.98981	0.93048
2806.06124	0.92824
2804.13268	0.92603
2802.20412	0.92380
2800.27555	0.92224
2798.34699	0.92136
2796.41842	0.92040
2794.48986	0.91921
2792.56129	0.91746
2790.63273	0.91523
2788.70416	0.91342
2786.77560	0.91241
2784.84704	0.91116
2782.91847	0.90904
2780.98991	0.90746
2779.06134	0.90658
2777.13278	0.90507
2775.20421	0.90333
2773.27565	0.90182
2771.34708	0.90046
2769.41852	0.89923
2767.48996	0.89774
2765.56139	0.89581
2763.63283	0.89392
2761.70426	0.89237
2759.77570	0.89079
2757.84713	0.88894
2755.91857	0.88650
2753.99001	0.88314
2752.06144	0.87921
2750.13288	0.87548
2748.20431	0.87243
2746.27575	0.86979
2744.34718	0.86716
2742.41862	0.86479
2740.49005	0.86272
2738.56149	0.86081
2736.63293	0.85899
2734.70436	0.85699
2732.77580	0.85486
2730.84723	0.85276
2728.91867	0.85029
2726.99010	0.84729
2725.06154	0.84468
2723.13297	0.84346
2721.20441	0.84318
2719.27585	0.84234
2717.34728	0.84029
2715.41872	0.83781
2713.49015	0.83607
2711.56159	0.83544
2709.63302	0.83549
2707.70446	0.83564
2705.77589	0.83573
2703.84733	0.83556
2701.91877	0.83477
2699.99020	0.83347
2698.06164	0.83197
2696.13307	0.83052
2694.20451	0.82924
2692.27594	0.82830
2690.34738	0.82778
2688.41881	0.82720
2686.49025	0.82624
2684.56169	0.82477
2682.63312	0.82242
2680.70456	0.82006
2678.77599	0.81911
2676.84743	0.81871
2674.91886	0.81709
2672.99030	0.81435
2671.06173	0.81158
2669.13317	0.80918
2667.20461	0.80696
2665.27604	0.80488
2663.34748	0.80293
2661.41891	0.80074
2659.49035	0.79848
2657.56178	0.79692
2655.63322	0.79613
2653.70465	0.79503
2651.77609	0.79293
2649.84753	0.79095
2647.91896	0.79023
2645.99040	0.79008
2644.06183	0.78978
2642.13327	0.78957
2640.20470	0.78955
2638.27614	0.78968
2636.34757	0.78978
2634.41901	0.78936
2632.49045	0.78889
2630.56188	0.78902
2628.63332	0.78958
2626.70475	0.79004
2624.77619	0.79002
2622.84762	0.79006
2620.91906	0.79086
2618.99049	0.79173
2617.06193	0.79153
2615.13337	0.79025
2613.20480	0.78882
2611.27624	0.78795
2609.34767	0.78763
2607.41911	0.78702
2605.49054	0.78537
2603.56198	0.78326
2601.63342	0.78174
2599.70485	0.78048
2597.77629	0.77839
2595.84772	0.77536
2593.91916	0.77254
2591.99059	0.77093
2590.06203	0.76988
2588.13346	0.76818
2586.20490	0.76556
2584.27634	0.76241
2582.34777	0.75922
2580.41921	0.75628
2578.49064	0.75374
2576.56208	0.75175
2574.63351	0.74992
2572.70495	0.74766
2570.77638	0.74506
2568.84782	0.74282
2566.91926	0.74125
2564.99069	0.74015
2563.06213	0.73917
2561.13356	0.73824
2559.20500	0.73730
2557.27643	0.73612
2555.34787	0.73475
2553.41930	0.73362
2551.49074	0.73309
2549.56218	0.73286
2547.63361	0.73254
2545.70505	0.73218
2543.77648	0.73169
2541.84792	0.73085
2539.91935	0.73008
2537.99079	0.72995
2536.06222	0.73030
2534.13366	0.73055
2532.20510	0.73045
2530.27653	0.72988
2528.34797	0.72898
2526.41940	0.72829
2524.49084	0.72805
2522.56227	0.72774
2520.63371	0.72673
2518.70514	0.72544
2516.77658	0.72469
2514.84802	0.72427
2512.91945	0.72365
2510.99089	0.72302
2509.06232	0.72252
2507.13376	0.72157
2505.20519	0.72003
2503.27663	0.71857
2501.34806	0.71727
2499.41950	0.71582
2497.49094	0.71459
2495.56237	0.71365
2493.63381	0.71259
2491.70524	0.71142
2489.77668	0.71044
2487.84811	0.70968
2485.91955	0.70876
2483.99098	0.70778
2482.06242	0.70701
2480.13386	0.70609
2478.20529	0.70497
2476.27673	0.70405
2474.34816	0.70339
2472.41960	0.70266
2470.49103	0.70173
2468.56247	0.70086
2466.63391	0.70012
2464.70534	0.69941
2462.77678	0.69863
2460.84821	0.69775
2458.91965	0.69692
2456.99108	0.69605
2455.06252	0.69505
2453.13395	0.69420
2451.20539	0.69373
2449.27683	0.69322
2447.34826	0.69224
2445.41970	0.69101
2443.49113	0.68975
2441.56257	0.68845
2439.63400	0.68726
2437.70544	0.68618
2435.77687	0.68465
2433.84831	0.68277
2431.91975	0.68143
2429.99118	0.68051
2428.06262	0.67925
2426.13405	0.67779
2424.20549	0.67643
2422.27692	0.67475
2420.34836	0.67294
2418.41979	0.67166
2416.49123	0.67070
2414.56267	0.66964
2412.63410	0.66830
2410.70554	0.66673
2408.77697	0.66523
2406.84841	0.66390
2404.91984	0.66266
2402.99128	0.66159
2401.06271	0.66079
2399.13415	0.66024
2397.20559	0.65984
2395.27702	0.65941
2393.34846	0.65877
2391.41989	0.65790
2389.49133	0.65732
2387.56276	0.65748
2385.63420	0.65788
2383.70563	0.65799
2381.77707	0.65824
2379.84851	0.65922
2377.91994	0.66047
2375.99138	0.66133
2374.06281	0.66241
2372.13425	0.66450
2370.20568	0.66657
2368.27712	0.66761
2366.34855	0.66893
2364.41999	0.67033
2362.49143	0.66958
2360.56286	0.66950
2358.63430	0.67152
2356.70573	0.66952
2354.77717	0.66456
2352.84860	0.66251
2350.92004	0.66293
2348.99147	0.66355
2347.06291	0.66327
2345.13435	0.66204
2343.20578	0.66220
2341.27722	0.66373
2339.34865	0.66346
2337.42009	0.66164
2335.49152	0.66016
2333.56296	0.66032
2331.63440	0.66137
2329.70583	0.66049
2327.77727	0.65830
2325.84870	0.65794
2323.92014	0.65815
2321.99157	0.65606
2320.06301	0.65315
2318.13444	0.65167
2316.20588	0.65115
2314.27732	0.65051
2312.34875	0.64975
2310.42019	0.64914
2308.49162	0.64825
2306.56306	0.64708
2304.63449	0.64637
2302.70593	0.64638
2300.77736	0.64642
2298.84880	0.64590
2296.92024	0.64541
2294.99167	0.64552
2293.06311	0.64580
2291.13454	0.64587
2289.20598	0.64603
2287.27741	0.64645
2285.34885	0.64703
2283.42028	0.64764
2281.49172	0.64814
2279.56316	0.64848
2277.63459	0.64882
2275.70603	0.64922
2273.77746	0.64978
2271.84890	0.65044
2269.92033	0.65083
2267.99177	0.65080
2266.06320	0.65053
2264.13464	0.65007
2262.20608	0.64951
2260.27751	0.64906
2258.34895	0.64854
2256.42038	0.64793
2254.49182	0.64754
2252.56325	0.64701
2250.63469	0.64564
2248.70612	0.64397
2246.77756	0.64291
2244.84900	0.64217
2242.92043	0.64116
2240.99187	0.63990
2239.06330	0.63878
2237.13474	0.63794
2235.20617	0.63722
2233.27761	0.63660
2231.34904	0.63613
2229.42048	0.63588
2227.49192	0.63576
2225.56335	0.63552
2223.63479	0.63547
2221.70622	0.63583
2219.77766	0.63619
2217.84909	0.63640
2215.92053	0.63673
2213.99196	0.63719
2212.06340	0.63762
2210.13484	0.63814
2208.20627	0.63862
2206.27771	0.63870
2204.34914	0.63871
2202.42058	0.63887
2200.49201	0.63885
2198.56345	0.63878
2196.63488	0.63898
2194.70632	0.63923
2192.77776	0.63935
2190.84919	0.63942
2188.92063	0.63943
2186.99206	0.63930
2185.06350	0.63920
2183.13493	0.63930
2181.20637	0.63916
2179.27781	0.63861
2177.34924	0.63813
2175.42068	0.63779
2173.49211	0.63746
2171.56355	0.63713
2169.63498	0.63670
2167.70642	0.63619
2165.77785	0.63589
2163.84929	0.63593
2161.92073	0.63596
2159.99216	0.63573
2158.06360	0.63558
2156.13503	0.63584
2154.20647	0.63620
2152.27790	0.63631
2150.34934	0.63634
2148.42077	0.63625
2146.49221	0.63597
2144.56365	0.63599
2142.63508	0.63648
2140.70652	0.63701
2138.77795	0.63755
2136.84939	0.63822
2134.92082	0.63897
2132.99226	0.63969
2131.06369	0.64019
2129.13513	0.64055
2127.20657	0.64093
2125.27800	0.64115
2123.34944	0.64130
2121.42087	0.64162
2119.49231	0.64193
2117.56374	0.64206
2115.63518	0.64201
2113.70661	0.64170
2111.77805	0.64128
2109.84949	0.64102
2107.92092	0.64078
2105.99236	0.64026
2104.06379	0.63944
2102.13523	0.63825
2100.20666	0.63674
2098.27810	0.63540
2096.34953	0.63425
2094.42097	0.63281
2092.49241	0.63097
2090.56384	0.62912
2088.63528	0.62741
2086.70671	0.62582
2084.77815	0.62438
2082.84958	0.62310
2080.92102	0.62193
2078.99245	0.62084
2077.06389	0.61995
2075.13533	0.61911
2073.20676	0.61803
2071.27820	0.61687
2069.34963	0.61587
2067.42107	0.61507
2065.49250	0.61444
2063.56394	0.61376
2061.63537	0.61276
2059.70681	0.61159
2057.77825	0.61055
2055.84968	0.60967
2053.92112	0.60893
2051.99255	0.60840
2050.06399	0.60811
2048.13542	0.60772
2046.20686	0.60670
2044.27830	0.60525
2042.34973	0.60403
2040.42117	0.60313
2038.49260	0.60221
2036.56404	0.60109
2034.63547	0.60006
2032.70691	0.59931
2030.77834	0.59852
2028.84978	0.59757
2026.92122	0.59665
2024.99265	0.59556
2023.06409	0.59422
2021.13552	0.59310
2019.20696	0.59234
2017.27839	0.59160
2015.34983	0.59072
2013.42126	0.58986
2011.49270	0.58920
2009.56414	0.58861
2007.63557	0.58795
2005.70701	0.58738
2003.77844	0.58688
2001.84988	0.58643
1999.92131	0.58626
1997.99275	0.58646
1996.06418	0.58683
1994.13562	0.58711
1992.20706	0.58721
1990.27849	0.58729
1988.34993	0.58742
1986.42136	0.58752
1984.49280	0.58771
1982.56423	0.58819
1980.63567	0.58898
1978.70710	0.58968
1976.77854	0.58998
1974.84998	0.59023
1972.92141	0.59066
1970.99285	0.59113
1969.06428	0.59172
1967.13572	0.59230
1965.20715	0.59237
1963.27859	0.59208
1961.35002	0.59188
1959.42146	0.59176
1957.49290	0.59139
1955.56433	0.59060
1953.63577	0.58947
1951.70720	0.58807
1949.77864	0.58672
1947.85007	0.58574
1945.92151	0.58458
1943.99294	0.58282
1942.06438	0.58084
1940.13582	0.57898
1938.20725	0.57707
1936.27869	0.57505
1934.35012	0.57306
1932.42156	0.57105
1930.49299	0.56902
1928.56443	0.56718
1926.63586	0.56558
1924.70730	0.56405
1922.77874	0.56248
1920.85017	0.56111
1918.92161	0.56003
1916.99304	0.55889
1915.06448	0.55756
1913.13591	0.55622
1911.20735	0.55491
1909.27878	0.55378
1907.35022	0.55290
1905.42166	0.55222
1903.49309	0.55165
1901.56453	0.55105
1899.63596	0.55036
1897.70740	0.54976
1895.77883	0.54933
1893.85027	0.54895
1891.92171	0.54857
1889.99314	0.54823
1888.06458	0.54782
1886.13601	0.54737
1884.20745	0.54696
1882.27888	0.54654
1880.35032	0.54601
1878.42175	0.54543
1876.49319	0.54485
1874.56463	0.54410
1872.63606	0.54334
1870.70750	0.54280
1868.77893	0.54215
1866.85037	0.54092
1864.92180	0.53951
1862.99324	0.53839
1861.06467	0.53749
1859.13611	0.53651
1857.20755	0.53544
1855.27898	0.53448
1853.35042	0.53371
1851.42185	0.53315
1849.49329	0.53281
1847.56472	0.53259
1845.63616	0.53239
1843.70759	0.53203
1841.77903	0.53161
1839.85047	0.53135
1837.92190	0.53129
1835.99334	0.53151
1834.06477	0.53200
1832.13621	0.53269
1830.20764	0.53354
1828.27908	0.53447
1826.35051	0.53528
1824.42195	0.53584
1822.49339	0.53633
1820.56482	0.53698
1818.63626	0.53786
1816.70769	0.53894
1814.77913	0.54015
1812.85056	0.54125
1810.92200	0.54215
1808.99343	0.54293
1807.06487	0.54367
1805.13631	0.54429
1803.20774	0.54458
1801.27918	0.54460
1799.35061	0.54467
1797.42205	0.54499
1795.49348	0.54538
1793.56492	0.54536
1791.63635	0.54441
1789.70779	0.54301
1787.77923	0.54185
1785.85066	0.54071
1783.92210	0.53970
1781.99353	0.53902
1780.06497	0.53823
1778.13640	0.53745
1776.20784	0.53693
1774.27927	0.53650
1772.35071	0.53602
1770.42215	0.53595
1768.49358	0.53643
1766.56502	0.53724
1764.63645	0.53836
1762.70789	0.53986
1760.77932	0.54190
1758.85076	0.54457
1756.92220	0.54854
1754.99363	0.55316
1753.06507	0.55803
1751.13650	0.56522
1749.20794	0.57530
1747.27937	0.58472
1745.35081	0.59253
1743.42224	0.59980
1741.49368	0.60674
1739.56512	0.61309
1737.63655	0.61771
1735.70799	0.62101
1733.77942	0.62497
1731.85086	0.62841
1729.92229	0.63098
1727.99373	0.63372
1726.06516	0.63686
1724.13660	0.64112
1722.20804	0.64581
1720.27947	0.65031
1718.35091	0.65728
1716.42234	0.66949
1714.49378	0.68082
1712.56521	0.69034
1710.63665	0.70103
1708.70808	0.71410
1706.77952	0.73293
1704.85096	0.75741
1702.92239	0.77960
1700.99383	0.80838
1699.06526	0.85110
1697.13670	0.88930
1695.20813	0.92408
1693.27957	0.94835
1691.35100	0.96652
1689.42244	0.98772
1687.49388	1.00671
1685.56531	1.02365
1683.63675	1.04752
1681.70818	1.06578
1679.77962	1.07696
1677.85105	1.08705
1675.92249	1.09890
1673.99392	1.11123
1672.06536	1.11986
1670.13680	1.12805
1668.20823	1.13708
1666.27967	1.14205
1664.35110	1.14648
1662.42254	1.15345
1660.49397	1.15923
1658.56541	1.16242
1656.63684	1.16467
1654.70828	1.16717
1652.77972	1.16806
1650.85115	1.16671
1648.92259	1.16653
1646.99402	1.16765
1645.06546	1.16847
1643.13689	1.16805
1641.20833	1.16781
1639.27976	1.16813
1637.35120	1.16910
1635.42264	1.16853
1633.49407	1.16581
1631.56551	1.16427
1629.63694	1.16328
1627.70838	1.16162
1625.77981	1.15862
1623.85125	1.15381
1621.92269	1.14696
1619.99412	1.13998
1618.06556	1.13192
1616.13699	1.12091
1614.20843	1.11114
1612.27986	1.10182
1610.35130	1.09068
1608.42273	1.07894
1606.49417	1.06903
1604.56561	1.06160
1602.63704	1.05590
1600.70848	1.05170
1598.77991	1.04874
1596.85135	1.04634
1594.92278	1.04400
1592.99422	1.04250
1591.06565	1.04274
1589.13709	1.04464
1587.20853	1.04837
1585.27996	1.05358
1583.35140	1.05930
1581.42283	1.06521
1579.49427	1.07138
1577.56570	1.07928
1575.63714	1.09011
1573.70857	1.09814
1571.78001	1.10381
1569.85145	1.11122
1567.92288	1.11904
1565.99432	1.12493
1564.06575	1.12946
1562.13719	1.13207
1560.20862	1.13597
1558.28006	1.14637
1556.35149	1.15035
1554.42293	1.15076
1552.49437	1.15153
1550.56580	1.15242
1548.63724	1.15301
1546.70867	1.15383
1544.78011	1.15485
1542.85154	1.15394
1540.92298	1.15002
1538.99441	1.14675
1537.06585	1.14534
1535.13729	1.14311
1533.20872	1.13967
1531.28016	1.13784
1529.35159	1.13775
1527.42303	1.13716
1525.49446	1.13503
1523.56590	1.13203
1521.63733	1.12758
1519.70877	1.12382
1517.78021	1.12100
1515.85164	1.11650
1513.92308	1.11079
1511.99451	1.10452
1510.06595	1.09777
1508.13738	1.08795
1506.20882	1.07164
1504.28025	1.06129
1502.35169	1.05381
1500.42313	1.04508
1498.49456	1.03372
1496.56600	1.02048
1494.63743	1.01031
1492.70887	1.00330
1490.78030	0.99522
1488.85174	0.98460
1486.92317	0.97674
1484.99461	0.97211
1483.06605	0.96908
1481.13748	0.96739
1479.20892	0.96756
1477.28035	0.97071
1475.35179	0.97764
1473.42322	0.98892
1471.49466	0.99996
1469.56610	1.00542
1467.63753	1.00924
1465.70897	1.01451
1463.78040	1.01986
1461.85184	1.02284
1459.92327	1.02506
1457.99471	1.02814
1456.06614	1.02885
1454.13758	1.02684
1452.20902	1.02489
1450.28045	1.02275
1448.35189	1.01979
1446.42332	1.01595
1444.49476	1.01155
1442.56619	1.00652
1440.63763	1.00153
1438.70906	0.99627
1436.78050	0.98817
1434.85194	0.97922
1432.92337	0.97218
1430.99481	0.96460
1429.06624	0.95678
1427.13768	0.95122
1425.20911	0.94768
1423.28055	0.94566
1421.35198	0.94483
1419.42342	0.94521
1417.49486	0.94718
1415.56629	0.94882
1413.63773	0.94956
1411.70916	0.95038
1409.78060	0.95207
1407.85203	0.95440
1405.92347	0.95737
1403.99490	0.96091
1402.06634	0.96400
1400.13778	0.96711
1398.20921	0.97051
1396.28065	0.97377
1394.35208	0.97790
1392.42352	0.98267
1390.49495	0.98745
1388.56639	0.99418
1386.63782	1.00375
1384.70926	1.01254
1382.78070	1.01930
1380.85213	1.02468
1378.92357	1.02772
1376.99500	1.02738
1375.06644	1.02312
1373.13787	1.01540
1371.20931	1.00626
1369.28074	0.99530
1367.35218	0.98275
1365.42362	0.97066
1363.49505	0.95788
1361.56649	0.94479
1359.63792	0.93504
1357.70936	0.92797
1355.78079	0.92178
1353.85223	0.91620
1351.92366	0.91143
1349.99510	0.90751
1348.06654	0.90441
1346.13797	0.90192
1344.20941	0.90020
1342.28084	0.89956
1340.35228	0.90017
1338.42371	0.90215
1336.49515	0.90538
1334.56659	0.91010
1332.63802	0.91641
1330.70946	0.92365
1328.78089	0.93057
1326.85233	0.93639
1324.92376	0.94152
1322.99520	0.94645
1321.06663	0.95128
1319.13807	0.95642
1317.20951	0.96152
1315.28094	0.96567
1313.35238	0.96918
1311.42381	0.97207
1309.49525	0.97384
1307.56668	0.97484
1305.63812	0.97547
1303.70955	0.97524
1301.78099	0.97360
1299.85243	0.97069
1297.92386	0.96683
1295.99530	0.96243
1294.06673	0.95821
1292.13817	0.95422
1290.20960	0.95055
1288.28104	0.94747
1286.35247	0.94422
1284.42391	0.94018
1282.49535	0.93581
1280.56678	0.93162
1278.63822	0.92797
1276.70965	0.92530
1274.78109	0.92380
1272.85252	0.92345
1270.92396	0.92414
1268.99539	0.92547
1267.06683	0.92715
1265.13827	0.92885
1263.20970	0.92988
1261.28114	0.93020
1259.35257	0.93043
1257.42401	0.93087
1255.49544	0.93155
1253.56688	0.93249
1251.63831	0.93391
1249.70975	0.93629
1247.78119	0.93931
1245.85262	0.94206
1243.92406	0.94401
1241.99549	0.94557
1240.06693	0.94772
1238.13836	0.95024
1236.20980	0.95179
1234.28123	0.95224
1232.35267	0.95235
1230.42411	0.95208
1228.49554	0.95116
1226.56698	0.94956
1224.63841	0.94725
1222.70985	0.94420
1220.78128	0.94039
1218.85272	0.93634
1216.92415	0.93260
1214.99559	0.92917
1213.06703	0.92631
1211.13846	0.92466
1209.20990	0.92372
1207.28133	0.92174
1205.35277	0.91759
1203.42420	0.91142
1201.49564	0.90347
1199.56708	0.89406
1197.63851	0.88412
1195.70995	0.87460
1193.78138	0.86604
1191.85282	0.85896
1189.92425	0.85377
1187.99569	0.85041
1186.06712	0.84853
1184.13856	0.84813
1182.21000	0.84981
1180.28143	0.85400
1178.35287	0.86020
1176.42430	0.86743
1174.49574	0.87518
1172.56717	0.88369
1170.63861	0.89324
1168.71004	0.90355
1166.78148	0.91411
1164.85292	0.92436
1162.92435	0.93361
1160.99579	0.94094
1159.06722	0.94516
1157.13866	0.94552
1155.21009	0.94240
1153.28153	0.93692
1151.35296	0.93018
1149.42440	0.92260
1147.49584	0.91454
1145.56727	0.90720
1143.63871	0.90142
1141.71014	0.89722
1139.78158	0.89437
1137.85301	0.89262
1135.92445	0.89238
1133.99588	0.89431
1132.06732	0.89807
1130.13876	0.90299
1128.21019	0.90902
1126.28163	0.91585
1124.35306	0.92218
1122.42450	0.92733
1120.49593	0.93150
1118.56737	0.93413
1116.63880	0.93410
1114.71024	0.93121
1112.78168	0.92625
1110.85311	0.92010
1108.92455	0.91418
1106.99598	0.90984
1105.06742	0.90650
1103.13885	0.90318
1101.21029	0.90098
1099.28172	0.90142
1097.35316	0.90451
1095.42460	0.91007
1093.49603	0.91788
1091.56747	0.92667
1089.63890	0.93612
1087.71034	0.94733
1085.78177	0.96001
1083.85321	0.97184
1081.92464	0.98083
1079.99608	0.98696
1078.06752	0.99084
1076.13895	0.99262
1074.21039	0.99271
1072.28182	0.99176
1070.35326	0.99041
1068.42469	0.98925
1066.49613	0.98801
1064.56756	0.98631
1062.63900	0.98413
1060.71044	0.98095
1058.78187	0.97657
1056.85331	0.97169
1054.92474	0.96723
1052.99618	0.96362
1051.06761	0.96054
1049.13905	0.95781
1047.21049	0.95584
1045.28192	0.95547
1043.35336	0.95736
1041.42479	0.96052
1039.49623	0.96308
1037.56766	0.96392
1035.63910	0.96311
1033.71053	0.96152
1031.78197	0.95962
1029.85341	0.95673
1027.92484	0.95173
1025.99628	0.94519
1024.06771	0.93894
1022.13915	0.93362
1020.21058	0.92911
1018.28202	0.92541
1016.35345	0.92187
1014.42489	0.91775
1012.49633	0.91216
1010.56776	0.90423
1008.63920	0.89441
1006.71063	0.88388
1004.78207	0.87348
1002.85350	0.86435
1000.92494	0.85744
998.99637	0.85247
997.06781	0.84883
995.13925	0.84607
993.21068	0.84305
991.28212	0.83922
989.35355	0.83522
987.42499	0.83093
985.49642	0.82581
983.56786	0.82081
981.63929	0.81699
979.71073	0.81401
977.78217	0.81090
975.85360	0.80700
973.92504	0.80164
971.99647	0.79468
970.06791	0.78668
968.13934	0.77800
966.21078	0.76925
964.28221	0.76171
962.35365	0.75683
960.42509	0.75564
958.49652	0.75788
956.56796	0.76127
954.63939	0.76227
952.71083	0.75853
950.78226	0.75037
948.85370	0.74001
946.92513	0.72996
944.99657	0.72171
943.06801	0.71541
941.13944	0.71078
939.21088	0.70737
937.28231	0.70447
935.35375	0.70168
933.42518	0.69905
931.49662	0.69693
929.56805	0.69589
927.63949	0.69597
925.71093	0.69656
923.78236	0.69751
921.85380	0.69886
919.92523	0.69986
917.99667	0.69978
916.06810	0.69917
914.13954	0.69932
912.21098	0.70089
910.28241	0.70373
908.35385	0.70746
906.42528	0.71185
904.49672	0.71696
902.56815	0.72276
900.63959	0.72835
898.71102	0.73260
896.78246	0.73529
894.85390	0.73672
892.92533	0.73727
890.99677	0.73752
889.06820	0.73805
887.13964	0.73876
885.21107	0.73935
883.28251	0.74002
881.35394	0.74116
879.42538	0.74290
877.49682	0.74512
875.56825	0.74733
873.63969	0.74907
871.71112	0.75036
869.78256	0.75188
867.85399	0.75440
865.92543	0.75769
863.99686	0.76064
862.06830	0.76331
860.13974	0.76715
858.21117	0.77243
856.28261	0.77799
854.35404	0.78355
852.42548	0.78907
850.49691	0.79397
848.56835	0.79834
846.63978	0.80303
844.71122	0.80867
842.78266	0.81486
840.85409	0.82111
838.92553	0.82788
836.99696	0.83542
835.06840	0.84307
833.13983	0.85013
831.21127	0.85668
829.28270	0.86261
827.35414	0.86740
825.42558	0.87185
823.49701	0.87639
821.56845	0.87974
819.63988	0.88162
817.71132	0.88297
815.78275	0.88370
813.85419	0.88375
811.92562	0.88320
809.99706	0.88153
808.06850	0.87901
806.13993	0.87605
804.21137	0.87227
802.28280	0.86783
800.35424	0.86325
798.42567	0.85875
796.49711	0.85430
794.56854	0.84961
792.63998	0.84476
790.71142	0.84002
788.78285	0.83576
786.85429	0.83236
784.92572	0.82960
782.99716	0.82716
781.06859	0.82517
779.14003	0.82338
777.21147	0.82165
775.28290	0.82081
773.35434	0.82131
771.42577	0.82253
769.49721	0.82395
767.56864	0.82580
765.64008	0.82852
763.71151	0.83227
761.78295	0.83670
759.85439	0.84109
757.92582	0.84545
755.99726	0.85090
754.06869	0.85809
752.14013	0.86601
750.21156	0.87327
748.28300	0.87942
746.35443	0.88461
744.42587	0.88917
742.49731	0.89345
740.56874	0.89840
738.64018	0.90389
736.71161	0.90822
734.78305	0.91146
732.85448	0.91456
730.92592	0.91645
728.99735	0.91618
727.06879	0.91487
725.14023	0.91364
723.21166	0.91229
721.28310	0.91020
719.35453	0.90688
717.42597	0.90277
715.49740	0.89898
713.56884	0.89576
711.64027	0.89267
709.71171	0.88955
707.78315	0.88715
705.85458	0.88627
703.92602	0.88639
701.99745	0.88697
700.06889	0.88908
698.14032	0.89280
696.21176	0.89645
694.28319	0.90015
692.35463	0.90551
690.42607	0.91260
688.49750	0.92018
686.56894	0.92780
684.64037	0.93586
682.71181	0.94463
680.78324	0.95384
678.85468	0.96217
676.92611	0.96873
674.99755	0.97461
673.06899	0.98050
671.14042	0.98626
669.21186	0.99298
667.28329	0.99726
665.35473	0.99609
663.42616	0.99346
661.49760	0.98906
659.56903	0.98169
657.64047	0.97210
655.71191	0.96103
653.78334	0.94998
651.85478	0.94145
649.92621	0.93458
647.99765	0.92658
646.06908	0.91726
644.14052	0.90750
642.21195	0.89872
640.28339	0.89265
638.35483	0.88895
636.42626	0.88587
634.49770	0.88258
632.56913	0.87965
630.64057	0.87864
628.71200	0.87991
626.78344	0.88204
624.85488	0.88389
622.92631	0.88553
620.99775	0.88861
619.06918	0.89466
617.14062	0.90272
615.21205	0.91027
613.28349	0.91566
611.35492	0.91955
609.42636	0.92447
607.49780	0.93087
605.56923	0.93611
603.64067	0.93947
601.71210	0.94319
599.78354	0.94889
