3997.91406	0.79957
3995.98550	0.79877
3994.05693	0.79744
3992.12837	0.79732
3990.19980	0.79997
3988.27124	0.80237
3986.34268	0.80146
3984.41411	0.79982
3982.48555	0.80027
3980.55698	0.80098
3978.62842	0.80158
3976.69985	0.80287
3974.77129	0.80287
3972.84272	0.80060
3970.91416	0.79825
3968.98560	0.79723
3967.05703	0.79652
3965.12847	0.79616
3963.19990	0.79652
3961.27134	0.79691
3959.34277	0.79835
3957.41421	0.79990
3955.48564	0.79854
3953.55708	0.79552
3951.62852	0.79356
3949.69995	0.79255
3947.77139	0.79246
3945.84282	0.79342
3943.91426	0.79403
3941.98569	0.79336
3940.05713	0.79177
3938.12856	0.78997
3936.20000	0.78888
3934.27144	0.78905
3932.34287	0.79091
3930.41431	0.79443
3928.48574	0.79788
3926.55718	0.79886
3924.62861	0.79591
3922.70005	0.79198
3920.77148	0.79035
3918.84292	0.79040
3916.91436	0.79159
3914.98579	0.79337
3913.05723	0.79386
3911.12866	0.79308
3909.20010	0.79297
3907.27153	0.79413
3905.34297	0.79583
3903.41440	0.79690
3901.48584	0.79589
3899.55728	0.79317
3897.62871	0.79061
3895.70015	0.78919
3893.77158	0.78875
3891.84302	0.78826
3889.91445	0.78682
3887.98589	0.78486
3886.05733	0.78302
3884.12876	0.78362
3882.20020	0.78647
3880.27163	0.78779
3878.34307	0.78656
3876.41450	0.78385
3874.48594	0.77911
3872.55737	0.77481
3870.62881	0.77399
3868.70025	0.77524
3866.77168	0.77622
3864.84312	0.77671
3862.91455	0.77737
3860.98599	0.77826
3859.05742	0.77885
3857.12886	0.77827
3855.20029	0.77491
3853.27173	0.77068
3851.34317	0.77318
3849.41460	0.77726
3847.48604	0.77939
3845.55747	0.77953
3843.62891	0.77853
3841.70034	0.77700
3839.77178	0.77671
3837.84321	0.77947
3835.91465	0.78146
3833.98609	0.78087
3832.05752	0.77992
3830.12896	0.77972
3828.20039	0.77882
3826.27183	0.77657
3824.34326	0.77494
3822.41470	0.77444
3820.48613	0.77389
3818.55757	0.77299
3816.62901	0.77211
3814.70044	0.77276
3812.77188	0.77412
3810.84331	0.77452
3808.91475	0.77422
3806.98618	0.77410
3805.05762	0.77427
3803.12905	0.77403
3801.20049	0.77281
3799.27193	0.77220
3797.34336	0.77249
3795.41480	0.77293
3793.48623	0.77370
3791.55767	0.77441
3789.62910	0.77469
3787.70054	0.77528
3785.77197	0.77570
3783.84341	0.77446
3781.91485	0.77261
3779.98628	0.77128
3778.05772	0.77019
3776.12915	0.76985
3774.20059	0.77069
3772.27202	0.77130
3770.34346	0.77054
3768.41489	0.77030
3766.48633	0.77175
3764.55777	0.77451
3762.62920	0.77676
3760.70064	0.77646
3758.77207	0.77492
3756.84351	0.77519
3754.91494	0.77690
3752.98638	0.77910
3751.05781	0.77954
3749.12925	0.77401
3747.20069	0.76545
3745.27212	0.75890
3743.34356	0.76197
3741.41499	0.76869
3739.48643	0.77160
3737.55786	0.77011
3735.62930	0.76637
3733.70074	0.76690
3731.77217	0.77176
3729.84361	0.77527
3727.91504	0.77587
3725.98648	0.77446
3724.05791	0.77272
3722.12935	0.77167
3720.20078	0.77168
3718.27222	0.77319
3716.34366	0.77479
3714.41509	0.77444
3712.48653	0.77308
3710.55796	0.77422
3708.62940	0.77585
3706.70083	0.77630
3704.77227	0.77611
3702.84370	0.77626
3700.91514	0.77821
3698.98658	0.77988
3697.05801	0.78016
3695.12945	0.78067
3693.20088	0.78309
3691.27232	0.78799
3689.34375	0.79162
3687.41519	0.79102
3685.48662	0.79075
3683.55806	0.79201
3681.62950	0.79440
3679.70093	0.79829
3677.77237	0.80209
3675.84380	0.80144
3673.91524	0.80106
3671.98667	0.80507
3670.05811	0.81102
3668.12954	0.81742
3666.20098	0.82347
3664.27242	0.82903
3662.34385	0.83372
3660.41529	0.83809
3658.48672	0.84280
3656.55816	0.84841
3654.62959	0.85403
3652.70103	0.85864
3650.77246	0.86231
3648.84390	0.86538
3646.91534	0.87046
3644.98677	0.87684
3643.05821	0.88470
3641.12964	0.89349
3639.20108	0.90080
3637.27251	0.90751
3635.34395	0.91567
3633.41538	0.92283
3631.48682	0.92738
3629.55826	0.93352
3627.62969	0.94031
3625.70113	0.94443
3623.77256	0.94892
3621.84400	0.95303
3619.91543	0.95652
3617.98687	0.96299
3616.05830	0.97207
3614.12974	0.98220
3612.20118	0.99304
3610.27261	1.00357
3608.34405	1.01460
3606.41548	1.02208
3604.48692	1.02391
3602.55835	1.02575
3600.62979	1.03067
3598.70123	1.03726
3596.77266	1.04362
3594.84410	1.04977
3592.91553	1.05673
3590.98697	1.06271
3589.05840	1.06958
3587.12984	1.08274
3585.20127	1.09363
3583.27271	1.09750
3581.34415	1.10171
3579.41558	1.10909
3577.48702	1.11667
3575.55845	1.12224
3573.62989	1.12478
3571.70132	1.12491
3569.77276	1.12561
3567.84419	1.13341
3565.91563	1.14955
3563.98707	1.16147
3562.05850	1.16972
3560.12994	1.17701
3558.20137	1.18070
3556.27281	1.18161
3554.34424	1.18581
3552.41568	1.19608
3550.48711	1.20656
3548.55855	1.21403
3546.62999	1.21934
3544.70142	1.22399
3542.77286	1.22999
3540.84429	1.23401
3538.91573	1.23425
3536.98716	1.23570
3535.05860	1.24121
3533.13003	1.24689
3531.20147	1.25326
3529.27291	1.26389
3527.34434	1.27217
3525.41578	1.27259
3523.48721	1.27573
3521.55865	1.28696
3519.63008	1.29803
3517.70152	1.30318
3515.77295	1.30407
3513.84439	1.30606
3511.91583	1.31053
3509.98726	1.31389
3508.05870	1.31440
3506.13013	1.31587
3504.20157	1.32046
3502.27300	1.32522
3500.34444	1.33192
3498.41587	1.34047
3496.48731	1.34560
3494.55875	1.35045
3492.63018	1.35816
3490.70162	1.36392
3488.77305	1.36672
3486.84449	1.36833
3484.91592	1.36721
3482.98736	1.36655
3481.05879	1.37031
3479.13023	1.37354
3477.20167	1.37448
3475.27310	1.37670
3473.34454	1.37995
3471.41597	1.38137
3469.48741	1.38110
3467.55884	1.38189
3465.63028	1.38422
3463.70171	1.38721
3461.77315	1.39131
3459.84459	1.39625
3457.91602	1.39996
3455.98746	1.40140
3454.05889	1.40209
3452.13033	1.40447
3450.20176	1.40858
3448.27320	1.41239
3446.34464	1.41557
3444.41607	1.41856
3442.48751	1.42283
3440.55894	1.42678
3438.63038	1.42457
3436.70181	1.41898
3434.77325	1.41677
3432.84468	1.41680
3430.91612	1.41736
3428.98756	1.41878
3427.05899	1.41700
3425.13043	1.41152
3423.20186	1.40808
3421.27330	1.40610
3419.34473	1.40083
3417.41617	1.39402
3415.48760	1.39250
3413.55904	1.39926
3411.63048	1.40894
3409.70191	1.41347
3407.77335	1.41216
3405.84478	1.41454
3403.91622	1.42284
3401.98765	1.42700
3400.05909	1.42574
3398.13052	1.42442
3396.20196	1.42220
3394.27340	1.41834
3392.34483	1.41477
3390.41627	1.41314
3388.48770	1.41671
3386.55914	1.42597
3384.63057	1.43156
3382.70201	1.42692
3380.77344	1.41976
3378.84488	1.41952
3376.91632	1.42466
3374.98775	1.42478
3373.05919	1.41953
3371.13062	1.41812
3369.20206	1.42070
3367.27349	1.42376
3365.34493	1.42720
3363.41636	1.42753
3361.48780	1.42321
3359.55924	1.42043
3357.63067	1.42303
3355.70211	1.42776
3353.77354	1.43133
3351.84498	1.43172
3349.91641	1.42744
3347.98785	1.42237
3346.05928	1.42203
3344.13072	1.42572
3342.20216	1.43009
3340.27359	1.43289
3338.34503	1.43172
3336.41646	1.42784
3334.48790	1.42686
3332.55933	1.43058
3330.63077	1.43290
3328.70220	1.43003
3326.77364	1.42790
3324.84508	1.42894
3322.91651	1.42891
3320.98795	1.42850
3319.05938	1.42925
3317.13082	1.42800
3315.20225	1.42597
3313.27369	1.42795
3311.34513	1.43138
3309.41656	1.43223
3307.48800	1.43301
3305.55943	1.43705
3303.63087	1.44192
3301.70230	1.44059
3299.77374	1.43412
3297.84517	1.43026
3295.91661	1.42959
3293.98805	1.43111
3292.05948	1.43422
3290.13092	1.43296
3288.20235	1.42900
3286.27379	1.43075
3284.34522	1.43325
3282.41666	1.42692
3280.48809	1.41830
3278.55953	1.41770
3276.63097	1.42290
3274.70240	1.42655
3272.77384	1.42492
3270.84527	1.41744
3268.91671	1.40748
3266.98814	1.40128
3265.05958	1.40365
3263.13101	1.41181
3261.20245	1.41493
3259.27389	1.40803
3257.34532	1.39769
3255.41676	1.39199
3253.48819	1.39298
3251.55963	1.39610
3249.63106	1.39608
3247.70250	1.39078
3245.77393	1.38287
3243.84537	1.37776
3241.91681	1.37603
3239.98824	1.37447
3238.05968	1.37257
3236.13111	1.37121
3234.20255	1.37020
3232.27398	1.36973
3230.34542	1.37020
3228.41685	1.37102
3226.48829	1.37003
3224.55973	1.36677
3222.63116	1.36378
3220.70260	1.36106
3218.77403	1.35713
3216.84547	1.35337
3214.91690	1.35146
3212.98834	1.35058
3211.05977	1.34832
3209.13121	1.34567
3207.20265	1.34686
3205.27408	1.35159
3203.34552	1.35459
3201.41695	1.35261
3199.48839	1.34726
3197.55982	1.34226
3195.63126	1.33823
3193.70269	1.33416
3191.77413	1.33185
3189.84557	1.33127
3187.91700	1.32963
3185.98844	1.32724
3184.05987	1.32561
3182.13131	1.32250
3180.20274	1.31701
3178.27418	1.31344
3176.34562	1.31321
3174.41705	1.31261
3172.48849	1.31057
3170.55992	1.31028
3168.63136	1.31252
3166.70279	1.31258
3164.77423	1.30854
3162.84566	1.30348
3160.91710	1.29908
3158.98854	1.29478
3157.05997	1.29083
3155.13141	1.28977
3153.20284	1.29178
3151.27428	1.29403
3149.34571	1.29548
3147.41715	1.29527
3145.48858	1.29256
3143.56002	1.28866
3141.63146	1.28569
3139.70289	1.28472
3137.77433	1.28448
3135.84576	1.28360
3133.91720	1.28169
3131.98863	1.27914
3130.06007	1.27692
3128.13150	1.27463
3126.20294	1.27327
3124.27438	1.27411
3122.34581	1.27466
3120.41725	1.27363
3118.48868	1.27203
3116.56012	1.27014
3114.63155	1.26871
3112.70299	1.26794
3110.77442	1.26684
3108.84586	1.26555
3106.91730	1.26459
3104.98873	1.26458
3103.06017	1.26656
3101.13160	1.26919
3099.20304	1.27111
3097.27447	1.27180
3095.34591	1.27060
3093.41734	1.27004
3091.48878	1.26979
3089.56022	1.26709
3087.63165	1.26502
3085.70309	1.26692
3083.77452	1.26986
3081.84596	1.27034
3079.91739	1.26895
3077.98883	1.26603
3076.06026	1.26267
3074.13170	1.26144
3072.20314	1.26023
3070.27457	1.25631
3068.34601	1.25132
3066.41744	1.24880
3064.48888	1.25047
3062.56031	1.25237
3060.63175	1.25020
3058.70318	1.24712
3056.77462	1.24680
3054.84606	1.24599
3052.91749	1.24251
3050.98893	1.23893
3049.06036	1.23651
3047.13180	1.23401
3045.20323	1.23092
3043.27467	1.22802
3041.34610	1.22429
3039.41754	1.21916
3037.48898	1.21545
3035.56041	1.21546
3033.63185	1.21688
3031.70328	1.21538
3029.77472	1.21189
3027.84615	1.20950
3025.91759	1.20760
3023.98903	1.20578
3022.06046	1.20507
3020.13190	1.20552
3018.20333	1.20632
3016.27477	1.20643
3014.34620	1.20594
3012.41764	1.20511
3010.48907	1.20273
3008.56051	1.20010
3006.63195	1.19967
3004.70338	1.19938
3002.77482	1.19761
3000.84625	1.19612
2998.91769	1.19586
2996.98912	1.19688
2995.06056	1.19879
2993.13199	1.20108
2991.20343	1.20411
2989.27487	1.20799
2987.34630	1.21273
2985.41774	1.21878
2983.48917	1.22505
2981.56061	1.22960
2979.63204	1.23414
2977.70348	1.24118
2975.77491	1.24822
2973.84635	1.25313
2971.91779	1.25865
2969.98922	1.26471
2968.06066	1.26810
2966.13209	1.27103
2964.20353	1.27491
2962.27496	1.27623
2960.34640	1.27670
2958.41783	1.27936
2956.48927	1.28196
2954.56071	1.28157
2952.63214	1.27703
2950.70358	1.27068
2948.77501	1.26684
2946.84645	1.26705
2944.91788	1.27060
2942.98932	1.27696
2941.06075	1.28445
2939.13219	1.28925
2937.20363	1.29261
2935.27506	1.29964
2933.34650	1.30699
2931.41793	1.30960
2929.48937	1.31116
2927.56080	1.31444
2925.63224	1.31810
2923.70367	1.32074
2921.77511	1.32137
2919.84655	1.32033
2917.91798	1.31451
2915.98942	1.30082
2914.06085	1.28350
2912.13229	1.26757
2910.20372	1.25484
2908.27516	1.24554
2906.34659	1.23951
2904.41803	1.23640
2902.48947	1.23400
2900.56090	1.23063
2898.63234	1.22775
2896.70377	1.22616
2894.77521	1.22314
2892.84664	1.21757
2890.91808	1.21256
2888.98952	1.20913
2887.06095	1.20656
2885.13239	1.20564
2883.20382	1.20532
2881.27526	1.20386
2879.34669	1.20316
2877.41813	1.20495
2875.48956	1.20747
2873.56100	1.20829
2871.63244	1.20541
2869.70387	1.19855
2867.77531	1.19136
2865.84674	1.18695
2863.91818	1.18494
2861.98961	1.18514
2860.06105	1.18857
2858.13248	1.19457
2856.20392	1.19986
2854.27536	1.20218
2852.34679	1.20281
2850.41823	1.20077
2848.48966	1.18982
2846.56110	1.16871
2844.63253	1.14672
2842.70397	1.13155
2840.77540	1.12121
2838.84684	1.11179
2836.91828	1.10372
2834.98971	1.09858
2833.06115	1.09611
2831.13258	1.09427
2829.20402	1.09065
2827.27545	1.08552
2825.34689	1.08122
2823.41832	1.07845
2821.48976	1.07639
2819.56120	1.07398
2817.63263	1.07068
2815.70407	1.06751
2813.77550	1.06476
2811.84694	1.06143
2809.91837	1.05790
2807.98981	1.05467
2806.06124	1.05053
2804.13268	1.04546
2802.20412	1.04143
2800.27555	1.03921
2798.34699	1.03774
2796.41842	1.03593
2794.48986	1.03409
2792.56129	1.03273
2790.63273	1.03079
2788.70416	1.02746
2786.77560	1.02390
2784.84704	1.02184
2782.91847	1.02109
2780.98991	1.02033
2779.06134	1.01921
2777.13278	1.01790
2775.20421	1.01664
2773.27565	1.01575
2771.34708	1.01469
2769.41852	1.01314
2767.48996	1.01215
2765.56139	1.01231
2763.63283	1.01252
2761.70426	1.01133
2759.77570	1.00816
2757.84713	1.00475
2755.91857	1.00339
2753.99001	1.00293
2752.06144	1.00158
2750.13288	0.99962
2748.20431	0.99811
2746.27575	0.99813
2744.34718	0.99834
2742.41862	0.99665
2740.49005	0.99414
2738.56149	0.99247
2736.63293	0.99173
2734.70436	0.99165
2732.77580	0.99177
2730.84723	0.99114
2728.91867	0.98941
2726.99010	0.98755
2725.06154	0.98652
2723.13297	0.98627
2721.20441	0.98594
2719.27585	0.98476
2717.34728	0.98301
2715.41872	0.98140
2713.49015	0.97997
2711.56159	0.97864
2709.63302	0.97764
2707.70446	0.97672
2705.77589	0.97572
2703.84733	0.97490
2701.91877	0.97440
2699.99020	0.97426
2698.06164	0.97342
2696.13307	0.97109
2694.20451	0.96824
2692.27594	0.96597
2690.34738	0.96494
2688.41881	0.96479
2686.49025	0.96455
2684.56169	0.96418
2682.63312	0.96387
2680.70456	0.96311
2678.77599	0.96146
2676.84743	0.95953
2674.91886	0.95819
2672.99030	0.95705
2671.06173	0.95552
2669.13317	0.95417
2667.20461	0.95335
2665.27604	0.95264
2663.34748	0.95207
2661.41891	0.95154
2659.49035	0.95051
2657.56178	0.94945
2655.63322	0.94891
2653.70465	0.94835
2651.77609	0.94766
2649.84753	0.94696
2647.91896	0.94564
2645.99040	0.94401
2644.06183	0.94303
2642.13327	0.94169
2640.20470	0.93916
2638.27614	0.93693
2636.34757	0.93591
2634.41901	0.93538
2632.49045	0.93485
2630.56188	0.93404
2628.63332	0.93262
2626.70475	0.93117
2624.77619	0.93044
2622.84762	0.93032
2620.91906	0.92999
2618.99049	0.92844
2617.06193	0.92623
2615.13337	0.92509
2613.20480	0.92488
2611.27624	0.92419
2609.34767	0.92263
2607.41911	0.92057
2605.49054	0.91844
2603.56198	0.91670
2601.63342	0.91568
2599.70485	0.91513
2597.77629	0.91443
2595.84772	0.91338
2593.91916	0.91209
2591.99059	0.91046
2590.06203	0.90889
2588.13346	0.90745
2586.20490	0.90563
2584.27634	0.90384
2582.34777	0.90257
2580.41921	0.90135
2578.49064	0.89932
2576.56208	0.89633
2574.63351	0.89395
2572.70495	0.89294
2570.77638	0.89215
2568.84782	0.89105
2566.91926	0.89010
2564.99069	0.88949
2563.06213	0.88898
2561.13356	0.88839
2559.20500	0.88761
2557.27643	0.88650
2555.34787	0.88521
2553.41930	0.88385
2551.49074	0.88264
2549.56218	0.88162
2547.63361	0.88057
2545.70505	0.87957
2543.77648	0.87870
2541.84792	0.87783
2539.91935	0.87675
2537.99079	0.87559
2536.06222	0.87436
2534.13366	0.87264
2532.20510	0.87103
2530.27653	0.87046
2528.34797	0.86994
2526.41940	0.86814
2524.49084	0.86570
2522.56227	0.86369
2520.63371	0.86237
2518.70514	0.86180
2516.77658	0.86130
2514.84802	0.86005
2512.91945	0.85848
2510.99089	0.85720
2509.06232	0.85582
2507.13376	0.85436
2505.20519	0.85339
2503.27663	0.85290
2501.34806	0.85254
2499.41950	0.85212
2497.49094	0.85188
2495.56237	0.85219
2493.63381	0.85222
2491.70524	0.85087
2489.77668	0.84904
2487.84811	0.84833
2485.91955	0.84845
2483.99098	0.84823
2482.06242	0.84734
2480.13386	0.84584
2478.20529	0.84415
2476.27673	0.84307
2474.34816	0.84250
2472.41960	0.84185
2470.49103	0.84090
2468.56247	0.83923
2466.63391	0.83712
2464.70534	0.83552
2462.77678	0.83406
2460.84821	0.83229
2458.91965	0.83066
2456.99108	0.82912
2455.06252	0.82756
2453.13395	0.82636
2451.20539	0.82554
2449.27683	0.82454
2447.34826	0.82298
2445.41970	0.82132
2443.49113	0.82018
2441.56257	0.81928
2439.63400	0.81824
2437.70544	0.81742
2435.77687	0.81694
2433.84831	0.81629
2431.91975	0.81538
2429.99118	0.81432
2428.06262	0.81294
2426.13405	0.81151
2424.20549	0.81046
2422.27692	0.80965
2420.34836	0.80876
2418.41979	0.80776
2416.49123	0.80692
2414.56267	0.80623
2412.63410	0.80560
2410.70554	0.80491
2408.77697	0.80358
2406.84841	0.80164
2404.91984	0.80032
2402.99128	0.80017
2401.06271	0.80010
2399.13415	0.79934
2397.20559	0.79812
2395.27702	0.79680
2393.34846	0.79569
2391.41989	0.79465
2389.49133	0.79349
2387.56276	0.79274
2385.63420	0.79294
2383.70563	0.79394
2381.77707	0.79491
2379.84851	0.79513
2377.91994	0.79474
2375.99138	0.79414
2374.06281	0.79395
2372.13425	0.79468
2370.20568	0.79653
2368.27712	0.79996
2366.34855	0.80497
2364.41999	0.80844
2362.49143	0.80567
2360.56286	0.80050
2358.63430	0.80089
2356.70573	0.80163
2354.77717	0.79624
2352.84860	0.79037
2350.92004	0.78725
2348.99147	0.78536
2347.06291	0.78459
2345.13435	0.78507
2343.20578	0.78549
2341.27722	0.78628
2339.34865	0.78835
2337.42009	0.78934
2335.49152	0.78856
2333.56296	0.78746
2331.63440	0.78528
2329.70583	0.78184
2327.77727	0.78001
2325.84870	0.78042
2323.92014	0.78093
2321.99157	0.78043
2320.06301	0.77901
2318.13444	0.77714
2316.20588	0.77467
2314.27732	0.77146
2312.34875	0.76886
2310.42019	0.76752
2308.49162	0.76634
2306.56306	0.76502
2304.63449	0.76412
2302.70593	0.76331
2300.77736	0.76183
2298.84880	0.76009
2296.92024	0.75877
2294.99167	0.75759
2293.06311	0.75634
2291.13454	0.75522
2289.20598	0.75433
2287.27741	0.75357
2285.34885	0.75271
2283.42028	0.75162
2281.49172	0.75044
2279.56316	0.74933
2277.63459	0.74842
2275.70603	0.74768
2273.77746	0.74689
2271.84890	0.74598
2269.92033	0.74504
2267.99177	0.74406
2266.06320	0.74324
2264.13464	0.74287
2262.20608	0.74253
2260.27751	0.74146
2258.34895	0.74009
2256.42038	0.73948
2254.49182	0.73926
2252.56325	0.73835
2250.63469	0.73706
2248.70612	0.73614
2246.77756	0.73561
2244.84900	0.73545
2242.92043	0.73552
2240.99187	0.73550
2239.06330	0.73514
2237.13474	0.73438
2235.20617	0.73375
2233.27761	0.73354
2231.34904	0.73330
2229.42048	0.73282
2227.49192	0.73231
2225.56335	0.73176
2223.63479	0.73117
2221.70622	0.73090
2219.77766	0.73083
2217.84909	0.73061
2215.92053	0.73036
2213.99196	0.73019
2212.06340	0.73005
2210.13484	0.72986
2208.20627	0.72954
2206.27771	0.72919
2204.34914	0.72889
2202.42058	0.72841
2200.49201	0.72775
2198.56345	0.72735
2196.63488	0.72739
2194.70632	0.72726
2192.77776	0.72658
2190.84919	0.72565
2188.92063	0.72500
2186.99206	0.72497
2185.06350	0.72516
2183.13493	0.72500
2181.20637	0.72468
2179.27781	0.72455
2177.34924	0.72459
2175.42068	0.72442
2173.49211	0.72391
2171.56355	0.72382
2169.63498	0.72450
2167.70642	0.72513
2165.77785	0.72535
2163.84929	0.72547
2161.92073	0.72541
2159.99216	0.72533
2158.06360	0.72568
2156.13503	0.72616
2154.20647	0.72648
2152.27790	0.72679
2150.34934	0.72711
2148.42077	0.72721
2146.49221	0.72710
2144.56365	0.72708
2142.63508	0.72701
2140.70652	0.72650
2138.77795	0.72555
2136.84939	0.72465
2134.92082	0.72432
2132.99226	0.72439
2131.06369	0.72411
2129.13513	0.72321
2127.20657	0.72194
2125.27800	0.72057
2123.34944	0.71949
2121.42087	0.71891
2119.49231	0.71844
2117.56374	0.71775
2115.63518	0.71675
2113.70661	0.71551
2111.77805	0.71441
2109.84949	0.71357
2107.92092	0.71268
2105.99236	0.71152
2104.06379	0.71028
2102.13523	0.70947
2100.20666	0.70940
2098.27810	0.70970
2096.34953	0.70960
2094.42097	0.70898
2092.49241	0.70835
2090.56384	0.70790
2088.63528	0.70743
2086.70671	0.70671
2084.77815	0.70573
2082.84958	0.70489
2080.92102	0.70433
2078.99245	0.70368
2077.06389	0.70283
2075.13533	0.70174
2073.20676	0.70038
2071.27820	0.69896
2069.34963	0.69771
2067.42107	0.69676
2065.49250	0.69583
2063.56394	0.69456
2061.63537	0.69299
2059.70681	0.69140
2057.77825	0.68983
2055.84968	0.68812
2053.92112	0.68643
2051.99255	0.68482
2050.06399	0.68310
2048.13542	0.68153
2046.20686	0.68030
2044.27830	0.67920
2042.34973	0.67798
2040.42117	0.67665
2038.49260	0.67540
2036.56404	0.67429
2034.63547	0.67320
2032.70691	0.67226
2030.77834	0.67162
2028.84978	0.67104
2026.92122	0.67023
2024.99265	0.66928
2023.06409	0.66844
2021.13552	0.66780
2019.20696	0.66735
2017.27839	0.66694
2015.34983	0.66620
2013.42126	0.66493
2011.49270	0.66347
2009.56414	0.66223
2007.63557	0.66115
2005.70701	0.66001
2003.77844	0.65888
2001.84988	0.65776
1999.92131	0.65650
1997.99275	0.65514
1996.06418	0.65379
1994.13562	0.65255
1992.20706	0.65156
1990.27849	0.65088
1988.34993	0.65021
1986.42136	0.64926
1984.49280	0.64821
1982.56423	0.64744
1980.63567	0.64710
1978.70710	0.64690
1976.77854	0.64645
1974.84998	0.64585
1972.92141	0.64524
1970.99285	0.64450
1969.06428	0.64394
1967.13572	0.64380
1965.20715	0.64356
1963.27859	0.64298
1961.35002	0.64248
1959.42146	0.64229
1957.49290	0.64228
1955.56433	0.64216
1953.63577	0.64176
1951.70720	0.64140
1949.77864	0.64133
1947.85007	0.64138
1945.92151	0.64127
1943.99294	0.64082
1942.06438	0.64011
1940.13582	0.63943
1938.20725	0.63879
1936.27869	0.63809
1934.35012	0.63739
1932.42156	0.63679
1930.49299	0.63627
1928.56443	0.63601
1926.63586	0.63605
1924.70730	0.63605
1922.77874	0.63578
1920.85017	0.63537
1918.92161	0.63519
1916.99304	0.63542
1915.06448	0.63573
1913.13591	0.63593
1911.20735	0.63620
1909.27878	0.63654
1907.35022	0.63678
1905.42166	0.63710
1903.49309	0.63749
1901.56453	0.63765
1899.63596	0.63775
1897.70740	0.63807
1895.77883	0.63861
1893.85027	0.63901
1891.92171	0.63922
1889.99314	0.63959
1888.06458	0.63989
1886.13601	0.63974
1884.20745	0.63927
1882.27888	0.63890
1880.35032	0.63875
1878.42175	0.63845
1876.49319	0.63785
1874.56463	0.63711
1872.63606	0.63650
1870.70750	0.63622
1868.77893	0.63624
1866.85037	0.63590
1864.92180	0.63523
1862.99324	0.63473
1861.06467	0.63446
1859.13611	0.63427
1857.20755	0.63392
1855.27898	0.63350
1853.35042	0.63335
1851.42185	0.63357
1849.49329	0.63409
1847.56472	0.63453
1845.63616	0.63474
1843.70759	0.63509
1841.77903	0.63545
1839.85047	0.63562
1837.92190	0.63579
1835.99334	0.63598
1834.06477	0.63604
1832.13621	0.63629
1830.20764	0.63708
1828.27908	0.63773
1826.35051	0.63778
1824.42195	0.63779
1822.49339	0.63769
1820.56482	0.63729
1818.63626	0.63700
1816.70769	0.63689
1814.77913	0.63671
1812.85056	0.63650
1810.92200	0.63650
1808.99343	0.63648
1807.06487	0.63616
1805.13631	0.63564
1803.20774	0.63487
1801.27918	0.63425
1799.35061	0.63422
1797.42205	0.63448
1795.49348	0.63475
1793.56492	0.63520
1791.63635	0.63580
1789.70779	0.63580
1787.77923	0.63579
1785.85066	0.63644
1783.92210	0.63770
1781.99353	0.63945
1780.06497	0.64145
1778.13640	0.64322
1776.20784	0.64489
1774.27927	0.64712
1772.35071	0.64999
1770.42215	0.65272
1768.49358	0.65542
1766.56502	0.65842
1764.63645	0.66164
1762.70789	0.66593
1760.77932	0.67158
1758.85076	0.67779
1756.92220	0.68574
1754.99363	0.69422
1753.06507	0.70272
1751.13650	0.71522
1749.20794	0.73193
1747.27937	0.74611
1745.35081	0.75698
1743.42224	0.76656
1741.49368	0.77506
1739.56512	0.78206
1737.63655	0.78627
1735.70799	0.78869
1733.77942	0.79177
1731.85086	0.79404
1729.92229	0.79507
1727.99373	0.79681
1726.06516	0.80031
1724.13660	0.80608
1722.20804	0.81265
1720.27947	0.81915
1718.35091	0.83000
1716.42234	0.84921
1714.49378	0.86651
1712.56521	0.88144
1710.63665	0.89884
1708.70808	0.92016
1706.77952	0.95131
1704.85096	0.99291
1702.92239	1.03070
1700.99383	1.07901
1699.06526	1.15122
1697.13670	1.21492
1695.20813	1.27575
1693.27957	1.31996
1691.35100	1.35008
1689.42244	1.38281
1687.49388	1.41263
1685.56531	1.43997
1683.63675	1.47403
1681.70818	1.49558
1679.77962	1.50515
1677.85105	1.51176
1675.92249	1.52008
1673.99392	1.53045
1672.06536	1.53898
1670.13680	1.54563
1668.20823	1.54861
1666.27967	1.54740
1664.35110	1.54710
1662.42254	1.54668
1660.49397	1.54398
1658.56541	1.54270
1656.63684	1.54319
1654.70828	1.54301
1652.77972	1.53256
1650.85115	1.52451
1648.92259	1.52314
1646.99402	1.52176
1645.06546	1.51888
1643.13689	1.51535
1641.20833	1.51298
1639.27976	1.51087
1637.35120	1.50751
1635.42264	1.50261
1633.49407	1.49879
1631.56551	1.49583
1629.63694	1.49122
1627.70838	1.48496
1625.77981	1.47669
1623.85125	1.46548
1621.92269	1.45631
1619.99412	1.45270
1618.06556	1.44836
1616.13699	1.43562
1614.20843	1.42307
1612.27986	1.41548
1610.35130	1.40899
1608.42273	1.40173
1606.49417	1.39467
1604.56561	1.38899
1602.63704	1.38434
1600.70848	1.38141
1598.77991	1.38012
1596.85135	1.37924
1594.92278	1.37768
1592.99422	1.37626
1591.06565	1.37742
1589.13709	1.38126
1587.20853	1.38609
1585.27996	1.39113
1583.35140	1.39746
1581.42283	1.40496
1579.49427	1.41196
1577.56570	1.41981
1575.63714	1.42960
1573.70857	1.43556
1571.78001	1.43971
1569.85145	1.44724
1567.92288	1.45511
1565.99432	1.45915
1564.06575	1.46200
1562.13719	1.46363
1560.20862	1.46590
1558.28006	1.47577
1556.35149	1.48044
1554.42293	1.47872
1552.49437	1.47619
1550.56580	1.47357
1548.63724	1.46914
1546.70867	1.46434
1544.78011	1.46245
1542.85154	1.46399
1540.92298	1.46356
1538.99441	1.46032
1537.06585	1.45815
1535.13729	1.45501
1533.20872	1.45110
1531.28016	1.44779
1529.35159	1.44506
1527.42303	1.44270
1525.49446	1.44102
1523.56590	1.44017
1521.63733	1.43740
1519.70877	1.42989
1517.78021	1.41917
1515.85164	1.40778
1513.92308	1.39781
1511.99451	1.38850
1510.06595	1.38047
1508.13738	1.36825
1506.20882	1.34118
1504.28025	1.32419
1502.35169	1.31365
1500.42313	1.30188
1498.49456	1.28707
1496.56600	1.27017
1494.63743	1.25721
1492.70887	1.24830
1490.78030	1.23772
1488.85174	1.22290
1486.92317	1.21117
1484.99461	1.20426
1483.06605	1.20056
1481.13748	1.20010
1479.20892	1.20305
1477.28035	1.20989
1475.35179	1.22106
1473.42322	1.23674
1471.49466	1.25177
1469.56610	1.26015
1467.63753	1.26594
1465.70897	1.27182
1463.78040	1.27640
1461.85184	1.27845
1459.92327	1.27962
1457.99471	1.28274
1456.06614	1.28814
1454.13758	1.28970
1452.20902	1.28798
1450.28045	1.28499
1448.35189	1.28157
1446.42332	1.27727
1444.49476	1.27288
1442.56619	1.26869
1440.63763	1.26412
1438.70906	1.25882
1436.78050	1.25152
1434.85194	1.24342
1432.92337	1.23714
1430.99481	1.23222
1429.06624	1.22901
1427.13768	1.22820
1425.20911	1.23040
1423.28055	1.23562
1421.35198	1.24131
1419.42342	1.24652
1417.49486	1.25089
1415.56629	1.25419
1413.63773	1.25774
1411.70916	1.26113
1409.78060	1.26387
1407.85203	1.26664
1405.92347	1.26992
1403.99490	1.27292
1402.06634	1.27500
1400.13778	1.27733
1398.20921	1.27918
1396.28065	1.27777
1394.35208	1.27459
1392.42352	1.27367
1390.49495	1.27486
1388.56639	1.27726
1386.63782	1.28086
1384.70926	1.28444
1382.78070	1.28705
1380.85213	1.28758
1378.92357	1.28464
1376.99500	1.27856
1375.06644	1.26931
1373.13787	1.25756
1371.20931	1.24613
1369.28074	1.23390
1367.35218	1.22102
1365.42362	1.21009
1363.49505	1.19975
1361.56649	1.18983
1359.63792	1.18305
1357.70936	1.17905
1355.78079	1.17714
1353.85223	1.17677
1351.92366	1.17659
1349.99510	1.17599
1348.06654	1.17569
1346.13797	1.17635
1344.20941	1.17775
1342.28084	1.17971
1340.35228	1.18255
1338.42371	1.18564
1336.49515	1.18847
1334.56659	1.19248
1332.63802	1.19881
1330.70946	1.20646
1328.78089	1.21280
1326.85233	1.21652
1324.92376	1.21871
1322.99520	1.22088
1321.06663	1.22364
1319.13807	1.22628
1317.20951	1.22760
1315.28094	1.22800
1313.35238	1.22857
1311.42381	1.22888
1309.49525	1.22865
1307.56668	1.22845
1305.63812	1.22770
1303.70955	1.22570
1301.78099	1.22277
1299.85243	1.21961
1297.92386	1.21722
1295.99530	1.21525
1294.06673	1.21256
1292.13817	1.21010
1290.20960	1.20907
1288.28104	1.20912
1286.35247	1.20955
1284.42391	1.20977
1282.49535	1.21035
1280.56678	1.21186
1278.63822	1.21372
1276.70965	1.21623
1274.78109	1.21943
1272.85252	1.22212
1270.92396	1.22470
1268.99539	1.22839
1267.06683	1.23288
1265.13827	1.23716
1263.20970	1.23963
1261.28114	1.23876
1259.35257	1.23591
1257.42401	1.23383
1255.49544	1.23297
1253.56688	1.23194
1251.63831	1.22970
1249.70975	1.22689
1247.78119	1.22447
1245.85262	1.22260
1243.92406	1.22142
1241.99549	1.22053
1240.06693	1.21946
1238.13836	1.21812
1236.20980	1.21560
1234.28123	1.21160
1232.35267	1.20706
1230.42411	1.20261
1228.49554	1.19837
1226.56698	1.19362
1224.63841	1.18799
1222.70985	1.18319
1220.78128	1.17998
1218.85272	1.17669
1216.92415	1.17321
1214.99559	1.17126
1213.06703	1.17169
1211.13846	1.17414
1209.20990	1.17701
1207.28133	1.17805
1205.35277	1.17587
1203.42420	1.17041
1201.49564	1.16265
1199.56708	1.15346
1197.63851	1.14355
1195.70995	1.13340
1193.78138	1.12314
1191.85282	1.11358
1189.92425	1.10558
1187.99569	1.09818
1186.06712	1.09041
1184.13856	1.08392
1182.21000	1.08000
1180.28143	1.07822
1178.35287	1.07948
1176.42430	1.08451
1174.49574	1.09159
1172.56717	1.09874
1170.63861	1.10589
1168.71004	1.11463
1166.78148	1.12594
1164.85292	1.13883
1162.92435	1.15097
1160.99579	1.16055
1159.06722	1.16658
1157.13866	1.16832
1155.21009	1.16673
1153.28153	1.16317
1151.35296	1.15772
1149.42440	1.15086
1147.49584	1.14403
1145.56727	1.13950
1143.63871	1.13865
1141.71014	1.14027
1139.78158	1.14364
1137.85301	1.14965
1135.92445	1.15752
1133.99588	1.16540
1132.06732	1.17418
1130.13876	1.18551
1128.21019	1.19774
1126.28163	1.20881
1124.35306	1.21830
1122.42450	1.22495
1120.49593	1.22804
1118.56737	1.22916
1116.63880	1.22884
1114.71024	1.22562
1112.78168	1.22052
1110.85311	1.21556
1108.92455	1.21066
1106.99598	1.20684
1105.06742	1.20623
1103.13885	1.20901
1101.21029	1.21363
1099.28172	1.21914
1097.35316	1.22629
1095.42460	1.23615
1093.49603	1.24897
1091.56747	1.26417
1089.63890	1.28076
1087.71034	1.29760
1085.78177	1.31330
1083.85321	1.32612
1081.92464	1.33538
1079.99608	1.34270
1078.06752	1.34733
1076.13895	1.34558
1074.21039	1.33737
1072.28182	1.32545
1070.35326	1.31170
1068.42469	1.29779
1066.49613	1.28488
1064.56756	1.27205
1062.63900	1.25799
1060.71044	1.24320
1058.78187	1.22828
1056.85331	1.21373
1054.92474	1.20090
1052.99618	1.19054
1051.06761	1.18217
1049.13905	1.17504
1047.21049	1.16942
1045.28192	1.16708
1043.35336	1.16877
1041.42479	1.17253
1039.49623	1.17660
1037.56766	1.18110
1035.63910	1.18572
1033.71053	1.18955
1031.78197	1.19143
1029.85341	1.19076
1027.92484	1.18871
1025.99628	1.18669
1024.06771	1.18478
1022.13915	1.18213
1020.21058	1.17884
1018.28202	1.17613
1016.35345	1.17335
1014.42489	1.16766
1012.49633	1.15808
1010.56776	1.14669
1008.63920	1.13294
1006.71063	1.11466
1004.78207	1.09422
1002.85350	1.07534
1000.92494	1.05829
998.99637	1.04180
997.06781	1.02590
995.13925	1.01111
993.21068	0.99707
991.28212	0.98310
989.35355	0.96890
987.42499	0.95499
985.49642	0.94204
983.56786	0.93053
981.63929	0.92117
979.71073	0.91408
977.78217	0.90888
975.85360	0.90488
973.92504	0.90066
971.99647	0.89521
970.06791	0.88908
968.13934	0.88366
966.21078	0.87961
964.28221	0.87737
962.35365	0.87853
960.42509	0.88427
958.49652	0.89410
956.56796	0.90588
954.63939	0.91565
952.71083	0.91994
950.78226	0.91849
948.85370	0.91376
946.92513	0.90811
944.99657	0.90257
943.06801	0.89777
941.13944	0.89359
939.21088	0.88913
937.28231	0.88414
935.35375	0.87917
933.42518	0.87422
931.49662	0.86893
929.56805	0.86321
927.63949	0.85735
925.71093	0.85201
923.78236	0.84761
921.85380	0.84354
919.92523	0.83906
917.99667	0.83421
916.06810	0.82956
914.13954	0.82588
912.21098	0.82416
910.28241	0.82486
908.35385	0.82769
906.42528	0.83196
904.49672	0.83748
902.56815	0.84445
900.63959	0.85233
898.71102	0.86021
896.78246	0.86725
894.85390	0.87302
892.92533	0.87813
890.99677	0.88298
889.06820	0.88686
887.13964	0.88960
885.21107	0.89182
883.28251	0.89350
881.35394	0.89407
879.42538	0.89377
877.49682	0.89283
875.56825	0.89067
873.63969	0.88710
871.71112	0.88279
869.78256	0.87808
867.85399	0.87285
865.92543	0.86762
863.99686	0.86285
862.06830	0.85878
860.13974	0.85605
858.21117	0.85513
856.28261	0.85592
854.35404	0.85755
852.42548	0.85880
850.49691	0.86016
848.56835	0.86303
846.63978	0.86739
844.71122	0.87253
842.78266	0.87806
840.85409	0.88411
838.92553	0.89131
836.99696	0.89944
835.06840	0.90707
833.13983	0.91378
831.21127	0.92047
829.28270	0.92699
827.35414	0.93230
825.42558	0.93628
823.49701	0.93970
821.56845	0.94299
819.63988	0.94559
817.71132	0.94665
815.78275	0.94652
813.85419	0.94654
811.92562	0.94663
809.99706	0.94560
808.06850	0.94328
806.13993	0.94056
804.21137	0.93831
802.28280	0.93601
800.35424	0.93287
798.42567	0.92964
796.49711	0.92731
794.56854	0.92613
792.63998	0.92622
790.71142	0.92791
788.78285	0.93146
786.85429	0.93624
784.92572	0.94177
782.99716	0.94863
781.06859	0.95657
779.14003	0.96407
777.21147	0.97114
775.28290	0.97982
773.35434	0.98981
771.42577	0.99772
769.49721	1.00388
767.56864	1.01129
765.64008	1.01891
763.71151	1.02476
761.78295	1.02951
759.85439	1.03388
757.92582	1.03839
755.99726	1.04295
754.06869	1.04622
752.14013	1.04770
750.21156	1.04807
748.28300	1.04792
746.35443	1.04767
744.42587	1.04712
742.49731	1.04530
740.56874	1.04260
738.64018	1.04120
736.71161	1.04154
734.78305	1.04221
732.85448	1.04307
730.92592	1.04423
728.99735	1.04545
727.06879	1.04835
725.14023	1.05419
723.21166	1.06152
721.28310	1.06904
719.35453	1.07521
717.42597	1.07909
715.49740	1.08378
713.56884	1.09169
711.64027	1.10128
709.71171	1.11048
707.78315	1.11910
705.85458	1.12832
703.92602	1.13793
701.99745	1.14621
700.06889	1.15325
698.14032	1.15927
696.21176	1.16396
694.28319	1.16862
692.35463	1.17327
690.42607	1.17519
688.49750	1.17420
686.56894	1.17328
684.64037	1.17454
682.71181	1.17851
680.78324	1.18187
678.85468	1.18116
676.92611	1.17842
674.99755	1.17574
673.06899	1.17375
671.14042	1.17439
669.21186	1.17844
667.28329	1.17923
665.35473	1.17415
663.42616	1.16846
661.49760	1.16307
659.56903	1.15925
657.64047	1.15713
655.71191	1.15448
653.78334	1.15206
651.85478	1.15154
649.92621	1.14947
647.99765	1.14401
646.06908	1.14071
644.14052	1.14392
642.21195	1.15067
640.28339	1.15609
638.35483	1.16063
636.42626	1.16659
634.49770	1.17217
632.56913	1.17452
630.64057	1.17493
628.71200	1.17681
626.78344	1.18089
624.85488	1.18566
622.92631	1.19041
620.99775	1.19577
619.06918	1.20260
617.14062	1.20847
615.21205	1.20993
613.28349	1.20971
611.35492	1.20972
609.42636	1.20839
607.49780	1.20663
605.56923	1.20531
603.64067	1.20353
601.71210	1.19987
599.78354	1.19415
