3997.91406	0.66652
3995.98550	0.66543
3994.05693	0.66461
3992.12837	0.66532
3990.19980	0.66766
3988.27124	0.66961
3986.34268	0.66908
3984.41411	0.66739
3982.48555	0.66641
3980.55698	0.66633
3978.62842	0.66675
3976.69985	0.66706
3974.77129	0.66741
3972.84272	0.66804
3970.91416	0.66792
3968.98560	0.66676
3967.05703	0.66616
3965.12847	0.66765
3963.19990	0.66960
3961.27134	0.66923
3959.34277	0.66710
3957.41421	0.66505
3955.48564	0.66345
3953.55708	0.66173
3951.62852	0.66015
3949.69995	0.66080
3947.77139	0.66393
3945.84282	0.66664
3943.91426	0.66776
3941.98569	0.66779
3940.05713	0.66689
3938.12856	0.66568
3936.20000	0.66498
3934.27144	0.66445
3932.34287	0.66369
3930.41431	0.66341
3928.48574	0.66380
3926.55718	0.66374
3924.62861	0.66239
3922.70005	0.66194
3920.77148	0.66390
3918.84292	0.66562
3916.91436	0.66422
3914.98579	0.66107
3913.05723	0.65909
3911.12866	0.65859
3909.20010	0.65813
3907.27153	0.65717
3905.34297	0.65621
3903.41440	0.65568
3901.48584	0.65576
3899.55728	0.65576
3897.62871	0.65558
3895.70015	0.65593
3893.77158	0.65602
3891.84302	0.65439
3889.91445	0.65377
3887.98589	0.65545
3886.05733	0.65627
3884.12876	0.65661
3882.20020	0.65869
3880.27163	0.65917
3878.34307	0.65772
3876.41450	0.65805
3874.48594	0.65965
3872.55737	0.65946
3870.62881	0.65698
3868.70025	0.65536
3866.77168	0.65499
3864.84312	0.65385
3862.91455	0.65247
3860.98599	0.65206
3859.05742	0.65229
3857.12886	0.65274
3855.20029	0.65069
3853.27173	0.64447
3851.34317	0.64489
3849.41460	0.64885
3847.48604	0.65151
3845.55747	0.65221
3843.62891	0.65080
3841.70034	0.64753
3839.77178	0.64478
3837.84321	0.64683
3835.91465	0.64921
3833.98609	0.64762
3832.05752	0.64666
3830.12896	0.64840
3828.20039	0.64948
3826.27183	0.64845
3824.34326	0.64650
3822.41470	0.64403
3820.48613	0.64322
3818.55757	0.64527
3816.62901	0.64730
3814.70044	0.64821
3812.77188	0.64752
3810.84331	0.64598
3808.91475	0.64469
3806.98618	0.64425
3805.05762	0.64424
3803.12905	0.64220
3801.20049	0.63921
3799.27193	0.64039
3797.34336	0.64191
3795.41480	0.64194
3793.48623	0.64329
3791.55767	0.64539
3789.62910	0.64596
3787.70054	0.64535
3785.77197	0.64513
3783.84341	0.64516
3781.91485	0.64475
3779.98628	0.64434
3778.05772	0.64485
3776.12915	0.64561
3774.20059	0.64546
3772.27202	0.64404
3770.34346	0.64101
3768.41489	0.63784
3766.48633	0.63700
3764.55777	0.63908
3762.62920	0.64250
3760.70064	0.64476
3758.77207	0.64458
3756.84351	0.64342
3754.91494	0.64227
3752.98638	0.63974
3751.05781	0.63625
3749.12925	0.63752
3747.20069	0.64042
3745.27212	0.64092
3743.34356	0.64096
3741.41499	0.64309
3739.48643	0.64496
3737.55786	0.64287
3735.62930	0.63770
3733.70074	0.63832
3731.77217	0.64167
3729.84361	0.64288
3727.91504	0.64242
3725.98648	0.64045
3724.05791	0.63898
3722.12935	0.64046
3720.20078	0.64248
3718.27222	0.64225
3716.34366	0.64076
3714.41509	0.63864
3712.48653	0.63512
3710.55796	0.63399
3708.62940	0.63739
3706.70083	0.64115
3704.77227	0.64387
3702.84370	0.64464
3700.91514	0.64375
3698.98658	0.64403
3697.05801	0.64577
3695.12945	0.64712
3693.20088	0.64671
3691.27232	0.64419
3689.34375	0.64205
3687.41519	0.64452
3685.48662	0.64855
3683.55806	0.65132
3681.62950	0.65187
3679.70093	0.65014
3677.77237	0.64714
3675.84380	0.64801
3673.91524	0.65589
3671.98667	0.66233
3670.05811	0.66603
3668.12954	0.66864
3666.20098	0.67126
3664.27242	0.67399
3662.34385	0.67682
3660.41529	0.67922
3658.48672	0.68031
3656.55816	0.68136
3654.62959	0.68396
3652.70103	0.68712
3650.77246	0.69072
3648.84390	0.69605
3646.91534	0.70329
3644.98677	0.70977
3643.05821	0.71446
3641.12964	0.71811
3639.20108	0.72279
3637.27251	0.72906
3635.34395	0.73511
3633.41538	0.73896
3631.48682	0.73961
3629.55826	0.73950
3627.62969	0.74492
3625.70113	0.75184
3623.77256	0.75633
3621.84400	0.75922
3619.91543	0.76327
3617.98687	0.77075
3616.05830	0.77732
3614.12974	0.78025
3612.20118	0.78252
3610.27261	0.78655
3608.34405	0.79223
3606.41548	0.79908
3604.48692	0.80415
3602.55835	0.80695
3600.62979	0.80926
3598.70123	0.81245
3596.77266	0.81761
3594.84410	0.82478
3592.91553	0.83083
3590.98697	0.83451
3589.05840	0.83899
3587.12984	0.84631
3585.20127	0.85223
3583.27271	0.85516
3581.34415	0.85672
3579.41558	0.85916
3577.48702	0.86463
3575.55845	0.87143
3573.62989	0.87704
3571.70132	0.88154
3569.77276	0.88397
3567.84419	0.88396
3565.91563	0.88749
3563.98707	0.89648
3562.05850	0.90594
3560.12994	0.91283
3558.20137	0.91767
3556.27281	0.92160
3554.34424	0.92482
3552.41568	0.92925
3550.48711	0.93504
3548.55855	0.94095
3546.62999	0.94765
3544.70142	0.95392
3542.77286	0.95794
3540.84429	0.96134
3538.91573	0.96517
3536.98716	0.96813
3535.05860	0.96981
3533.13003	0.97277
3531.20147	0.97812
3529.27291	0.98449
3527.34434	0.99180
3525.41578	0.99902
3523.48721	1.00318
3521.55865	1.00467
3519.63008	1.00646
3517.70152	1.01080
3515.77295	1.01825
3513.84439	1.02732
3511.91583	1.03457
3509.98726	1.03857
3508.05870	1.04279
3506.13013	1.04982
3504.20157	1.05858
3502.27300	1.06422
3500.34444	1.06620
3498.41587	1.07090
3496.48731	1.07969
3494.55875	1.08763
3492.63018	1.09238
3490.70162	1.09799
3488.77305	1.10653
3486.84449	1.11397
3484.91592	1.11729
3482.98736	1.11863
3481.05879	1.12071
3479.13023	1.12334
3477.20167	1.12606
3475.27310	1.12812
3473.34454	1.12851
3471.41597	1.13022
3469.48741	1.13531
3467.55884	1.13872
3465.63028	1.13781
3463.70171	1.13791
3461.77315	1.14093
3459.84459	1.14276
3457.91602	1.14388
3455.98746	1.14908
3454.05889	1.15554
3452.13033	1.15699
3450.20176	1.15676
3448.27320	1.15851
3446.34464	1.15905
3444.41607	1.15894
3442.48751	1.16213
3440.55894	1.16729
3438.63038	1.17054
3436.70181	1.17155
3434.77325	1.17160
3432.84468	1.17250
3430.91612	1.17590
3428.98756	1.17912
3427.05899	1.17757
3425.13043	1.17225
3423.20186	1.16898
3421.27330	1.17144
3419.34473	1.17714
3417.41617	1.18119
3415.48760	1.18315
3413.55904	1.18384
3411.63048	1.18280
3409.70191	1.18179
3407.77335	1.18168
3405.84478	1.18050
3403.91622	1.17728
3401.98765	1.17473
3400.05909	1.17572
3398.13052	1.17941
3396.20196	1.18385
3394.27340	1.18649
3392.34483	1.18575
3390.41627	1.18309
3388.48770	1.18086
3386.55914	1.18137
3384.63057	1.18417
3382.70201	1.18584
3380.77344	1.18583
3378.84488	1.18757
3376.91632	1.19139
3374.98775	1.19259
3373.05919	1.19034
3371.13062	1.18871
3369.20206	1.19113
3367.27349	1.19756
3365.34493	1.20248
3363.41636	1.20286
3361.48780	1.20222
3359.55924	1.20256
3357.63067	1.20482
3355.70211	1.21055
3353.77354	1.21615
3351.84498	1.21497
3349.91641	1.20918
3347.98785	1.20854
3346.05928	1.21504
3344.13072	1.22163
3342.20216	1.22437
3340.27359	1.22557
3338.34503	1.22675
3336.41646	1.22590
3334.48790	1.22560
3332.55933	1.23101
3330.63077	1.23777
3328.70220	1.24027
3326.77364	1.24086
3324.84508	1.24089
3322.91651	1.24041
3320.98795	1.24187
3319.05938	1.24516
3317.13082	1.24897
3315.20225	1.25112
3313.27369	1.24803
3311.34513	1.24295
3309.41656	1.24194
3307.48800	1.24489
3305.55943	1.25028
3303.63087	1.25749
3301.70230	1.26409
3299.77374	1.26769
3297.84517	1.26815
3295.91661	1.26706
3293.98805	1.26668
3292.05948	1.26913
3290.13092	1.27253
3288.20235	1.27220
3286.27379	1.26919
3284.34522	1.26751
3282.41666	1.26547
3280.48809	1.26168
3278.55953	1.26034
3276.63097	1.26185
3274.70240	1.26068
3272.77384	1.25586
3270.84527	1.25283
3268.91671	1.25446
3266.98814	1.25656
3265.05958	1.25444
3263.13101	1.24958
3261.20245	1.24467
3259.27389	1.23929
3257.34532	1.23384
3255.41676	1.23045
3253.48819	1.22833
3251.55963	1.22353
3249.63106	1.21451
3247.70250	1.20467
3245.77393	1.19813
3243.84537	1.19461
3241.91681	1.19093
3239.98824	1.18619
3238.05968	1.18152
3236.13111	1.17789
3234.20255	1.17503
3232.27398	1.17189
3230.34542	1.16888
3228.41685	1.16692
3226.48829	1.16501
3224.55973	1.16137
3222.63116	1.15686
3220.70260	1.15364
3218.77403	1.15208
3216.84547	1.15182
3214.91690	1.15110
3212.98834	1.14710
3211.05977	1.14094
3209.13121	1.13663
3207.20265	1.13439
3205.27408	1.13153
3203.34552	1.12784
3201.41695	1.12414
3199.48839	1.12144
3197.55982	1.12025
3195.63126	1.11803
3193.70269	1.11298
3191.77413	1.10676
3189.84557	1.10222
3187.91700	1.10002
3185.98844	1.09829
3184.05987	1.09537
3182.13131	1.09083
3180.20274	1.08651
3178.27418	1.08452
3176.34562	1.08334
3174.41705	1.08062
3172.48849	1.07714
3170.55992	1.07400
3168.63136	1.06991
3166.70279	1.06511
3164.77423	1.06176
3162.84566	1.05924
3160.91710	1.05655
3158.98854	1.05430
3157.05997	1.05208
3155.13141	1.04988
3153.20284	1.04825
3151.27428	1.04639
3149.34571	1.04327
3147.41715	1.03931
3145.48858	1.03614
3143.56002	1.03425
3141.63146	1.03230
3139.70289	1.02972
3137.77433	1.02714
3135.84576	1.02515
3133.91720	1.02424
3131.98863	1.02448
3130.06007	1.02544
3128.13150	1.02690
3126.20294	1.02771
3124.27438	1.02720
3122.34581	1.02743
3120.41725	1.02879
3118.48868	1.02897
3116.56012	1.02867
3114.63155	1.02953
3112.70299	1.03016
3110.77442	1.02973
3108.84586	1.02975
3106.91730	1.03072
3104.98873	1.03222
3103.06017	1.03442
3101.13160	1.03622
3099.20304	1.03571
3097.27447	1.03415
3095.34591	1.03416
3093.41734	1.03469
3091.48878	1.03362
3089.56022	1.03135
3087.63165	1.02946
3085.70309	1.02856
3083.77452	1.02725
3081.84596	1.02486
3079.91739	1.02225
3077.98883	1.01982
3076.06026	1.01800
3074.13170	1.01652
3072.20314	1.01446
3070.27457	1.01168
3068.34601	1.00851
3066.41744	1.00567
3064.48888	1.00365
3062.56031	1.00169
3060.63175	0.99859
3058.70318	0.99471
3056.77462	0.99160
3054.84606	0.98939
3052.91749	0.98690
3050.98893	0.98351
3049.06036	0.97939
3047.13180	0.97515
3045.20323	0.97126
3043.27467	0.96765
3041.34610	0.96370
3039.41754	0.95913
3037.48898	0.95570
3035.56041	0.95506
3033.63185	0.95506
3031.70328	0.95311
3029.77472	0.94998
3027.84615	0.94761
3025.91759	0.94659
3023.98903	0.94574
3022.06046	0.94424
3020.13190	0.94296
3018.20333	0.94231
3016.27477	0.94168
3014.34620	0.94052
3012.41764	0.93919
3010.48907	0.93798
3008.56051	0.93629
3006.63195	0.93449
3004.70338	0.93412
3002.77482	0.93552
3000.84625	0.93728
2998.91769	0.93830
2996.98912	0.93874
2995.06056	0.93918
2993.13199	0.94053
2991.20343	0.94354
2989.27487	0.94783
2987.34630	0.95191
2985.41774	0.95505
2983.48917	0.95868
2981.56061	0.96468
2979.63204	0.97260
2977.70348	0.98044
2975.77491	0.98686
2973.84635	0.99238
2971.91779	0.99851
2969.98922	1.00514
2968.06066	1.01089
2966.13209	1.01576
2964.20353	1.02096
2962.27496	1.02602
2960.34640	1.02802
2958.41783	1.02559
2956.48927	1.02067
2954.56071	1.01535
2952.63214	1.01062
2950.70358	1.00648
2948.77501	1.00267
2946.84645	1.00115
2944.91788	1.00499
2942.98932	1.01343
2941.06075	1.02275
2939.13219	1.03148
2937.20363	1.04045
2935.27506	1.05024
2933.34650	1.05986
2931.41793	1.06740
2929.48937	1.07428
2927.56080	1.08286
2925.63224	1.09028
2923.70367	1.09402
2921.77511	1.09569
2919.84655	1.09595
2917.91798	1.09266
2915.98942	1.08256
2914.06085	1.06525
2912.13229	1.04524
2910.20372	1.02748
2908.27516	1.01335
2906.34659	1.00221
2904.41803	0.99360
2902.48947	0.98672
2900.56090	0.98192
2898.63234	0.97964
2896.70377	0.97744
2894.77521	0.97395
2892.84664	0.97077
2890.91808	0.96734
2888.98952	0.96217
2887.06095	0.95719
2885.13239	0.95467
2883.20382	0.95384
2881.27526	0.95346
2879.34669	0.95376
2877.41813	0.95442
2875.48956	0.95383
2873.56100	0.95145
2871.63244	0.94788
2869.70387	0.94310
2867.77531	0.93727
2865.84674	0.93215
2863.91818	0.92921
2861.98961	0.92866
2860.06105	0.93086
2858.13248	0.93605
2856.20392	0.94429
2854.27536	0.95488
2852.34679	0.96438
2850.41823	0.96693
2848.48966	0.95664
2846.56110	0.93438
2844.63253	0.90956
2842.70397	0.89005
2840.77540	0.87638
2838.84684	0.86589
2836.91828	0.85754
2834.98971	0.85116
2833.06115	0.84602
2831.13258	0.84163
2829.20402	0.83799
2827.27545	0.83535
2825.34689	0.83322
2823.41832	0.83030
2821.48976	0.82688
2819.56120	0.82422
2817.63263	0.82147
2815.70407	0.81728
2813.77550	0.81261
2811.84694	0.80948
2809.91837	0.80812
2807.98981	0.80604
2806.06124	0.80195
2804.13268	0.79754
2802.20412	0.79405
2800.27555	0.79079
2798.34699	0.78722
2796.41842	0.78392
2794.48986	0.78159
2792.56129	0.78010
2790.63273	0.77842
2788.70416	0.77576
2786.77560	0.77337
2784.84704	0.77235
2782.91847	0.77165
2780.98991	0.77016
2779.06134	0.76822
2777.13278	0.76663
2775.20421	0.76537
2773.27565	0.76405
2771.34708	0.76293
2769.41852	0.76246
2767.48996	0.76211
2765.56139	0.76089
2763.63283	0.75909
2761.70426	0.75768
2759.77570	0.75660
2757.84713	0.75553
2755.91857	0.75434
2753.99001	0.75297
2752.06144	0.75136
2750.13288	0.74931
2748.20431	0.74742
2746.27575	0.74616
2744.34718	0.74491
2742.41862	0.74369
2740.49005	0.74314
2738.56149	0.74279
2736.63293	0.74119
2734.70436	0.73798
2732.77580	0.73497
2730.84723	0.73378
2728.91867	0.73357
2726.99010	0.73280
2725.06154	0.73136
2723.13297	0.72975
2721.20441	0.72787
2719.27585	0.72583
2717.34728	0.72393
2715.41872	0.72218
2713.49015	0.72073
2711.56159	0.71981
2709.63302	0.71884
2707.70446	0.71700
2705.77589	0.71446
2703.84733	0.71218
2701.91877	0.71055
2699.99020	0.70936
2698.06164	0.70854
2696.13307	0.70803
2694.20451	0.70738
2692.27594	0.70648
2690.34738	0.70568
2688.41881	0.70504
2686.49025	0.70452
2684.56169	0.70399
2682.63312	0.70295
2680.70456	0.70167
2678.77599	0.70087
2676.84743	0.70045
2674.91886	0.70002
2672.99030	0.69925
2671.06173	0.69796
2669.13317	0.69665
2667.20461	0.69553
2665.27604	0.69399
2663.34748	0.69177
2661.41891	0.68959
2659.49035	0.68801
2657.56178	0.68692
2655.63322	0.68612
2653.70465	0.68515
2651.77609	0.68379
2649.84753	0.68238
2647.91896	0.68103
2645.99040	0.67970
2644.06183	0.67874
2642.13327	0.67802
2640.20470	0.67702
2638.27614	0.67632
2636.34757	0.67652
2634.41901	0.67678
2632.49045	0.67638
2630.56188	0.67583
2628.63332	0.67567
2626.70475	0.67529
2624.77619	0.67411
2622.84762	0.67279
2620.91906	0.67190
2618.99049	0.67139
2617.06193	0.67101
2615.13337	0.67033
2613.20480	0.66899
2611.27624	0.66730
2609.34767	0.66587
2607.41911	0.66454
2605.49054	0.66300
2603.56198	0.66158
2601.63342	0.66038
2599.70485	0.65911
2597.77629	0.65785
2595.84772	0.65690
2593.91916	0.65632
2591.99059	0.65560
2590.06203	0.65435
2588.13346	0.65326
2586.20490	0.65292
2584.27634	0.65302
2582.34777	0.65316
2580.41921	0.65300
2578.49064	0.65246
2576.56208	0.65186
2574.63351	0.65126
2572.70495	0.65043
2570.77638	0.64951
2568.84782	0.64875
2566.91926	0.64788
2564.99069	0.64655
2563.06213	0.64498
2561.13356	0.64361
2559.20500	0.64231
2557.27643	0.64085
2555.34787	0.63946
2553.41930	0.63814
2551.49074	0.63663
2549.56218	0.63485
2547.63361	0.63301
2545.70505	0.63160
2543.77648	0.63074
2541.84792	0.62992
2539.91935	0.62890
2537.99079	0.62783
2536.06222	0.62678
2534.13366	0.62610
2532.20510	0.62614
2530.27653	0.62638
2528.34797	0.62624
2526.41940	0.62584
2524.49084	0.62542
2522.56227	0.62519
2520.63371	0.62498
2518.70514	0.62463
2516.77658	0.62401
2514.84802	0.62307
2512.91945	0.62222
2510.99089	0.62155
2509.06232	0.62053
2507.13376	0.61912
2505.20519	0.61778
2503.27663	0.61654
2501.34806	0.61514
2499.41950	0.61360
2497.49094	0.61217
2495.56237	0.61087
2493.63381	0.60984
2491.70524	0.60935
2489.77668	0.60912
2487.84811	0.60847
2485.91955	0.60739
2483.99098	0.60642
2482.06242	0.60592
2480.13386	0.60594
2478.20529	0.60598
2476.27673	0.60562
2474.34816	0.60520
2472.41960	0.60508
2470.49103	0.60505
2468.56247	0.60487
2466.63391	0.60430
2464.70534	0.60321
2462.77678	0.60196
2460.84821	0.60088
2458.91965	0.60000
2456.99108	0.59948
2455.06252	0.59923
2453.13395	0.59874
2451.20539	0.59773
2449.27683	0.59637
2447.34826	0.59502
2445.41970	0.59387
2443.49113	0.59298
2441.56257	0.59222
2439.63400	0.59148
2437.70544	0.59101
2435.77687	0.59081
2433.84831	0.59051
2431.91975	0.59006
2429.99118	0.58948
2428.06262	0.58855
2426.13405	0.58738
2424.20549	0.58643
2422.27692	0.58581
2420.34836	0.58531
2418.41979	0.58475
2416.49123	0.58408
2414.56267	0.58347
2412.63410	0.58291
2410.70554	0.58223
2408.77697	0.58162
2406.84841	0.58124
2404.91984	0.58084
2402.99128	0.58041
2401.06271	0.57995
2399.13415	0.57948
2397.20559	0.57917
2395.27702	0.57893
2393.34846	0.57869
2391.41989	0.57846
2389.49133	0.57810
2387.56276	0.57780
2385.63420	0.57811
2383.70563	0.57918
2381.77707	0.58032
2379.84851	0.58100
2377.91994	0.58159
2375.99138	0.58235
2374.06281	0.58341
2372.13425	0.58512
2370.20568	0.58715
2368.27712	0.58905
2366.34855	0.59226
2364.41999	0.59706
2362.49143	0.59884
2360.56286	0.59762
2358.63430	0.59749
2356.70573	0.59558
2354.77717	0.59106
2352.84860	0.58709
2350.92004	0.58480
2348.99147	0.58416
2347.06291	0.58491
2345.13435	0.58680
2343.20578	0.58924
2341.27722	0.59112
2339.34865	0.59273
2337.42009	0.59401
2335.49152	0.59303
2333.56296	0.58970
2331.63440	0.58683
2329.70583	0.58669
2327.77727	0.58765
2325.84870	0.58753
2323.92014	0.58665
2321.99157	0.58464
2320.06301	0.58119
2318.13444	0.57815
2316.20588	0.57657
2314.27732	0.57574
2312.34875	0.57471
2310.42019	0.57315
2308.49162	0.57154
2306.56306	0.57029
2304.63449	0.56920
2302.70593	0.56824
2300.77736	0.56769
2298.84880	0.56751
2296.92024	0.56736
2294.99167	0.56711
2293.06311	0.56695
2291.13454	0.56694
2289.20598	0.56694
2287.27741	0.56679
2285.34885	0.56668
2283.42028	0.56677
2281.49172	0.56680
2279.56316	0.56684
2277.63459	0.56708
2275.70603	0.56716
2273.77746	0.56702
2271.84890	0.56702
2269.92033	0.56676
2267.99177	0.56602
2266.06320	0.56577
2264.13464	0.56616
2262.20608	0.56622
2260.27751	0.56582
2258.34895	0.56544
2256.42038	0.56542
2254.49182	0.56586
2252.56325	0.56642
2250.63469	0.56667
2248.70612	0.56661
2246.77756	0.56680
2244.84900	0.56736
2242.92043	0.56773
2240.99187	0.56784
2239.06330	0.56834
2237.13474	0.56938
2235.20617	0.57026
2233.27761	0.57049
2231.34904	0.57049
2229.42048	0.57044
2227.49192	0.57010
2225.56335	0.56965
2223.63479	0.56931
2221.70622	0.56890
2219.77766	0.56838
2217.84909	0.56768
2215.92053	0.56675
2213.99196	0.56588
2212.06340	0.56538
2210.13484	0.56509
2208.20627	0.56462
2206.27771	0.56411
2204.34914	0.56370
2202.42058	0.56342
2200.49201	0.56350
2198.56345	0.56378
2196.63488	0.56407
2194.70632	0.56461
2192.77776	0.56532
2190.84919	0.56582
2188.92063	0.56620
2186.99206	0.56659
2185.06350	0.56701
2183.13493	0.56777
2181.20637	0.56869
2179.27781	0.56923
2177.34924	0.56940
2175.42068	0.56957
2173.49211	0.56978
2171.56355	0.56985
2169.63498	0.56988
2167.70642	0.56997
2165.77785	0.56988
2163.84929	0.56967
2161.92073	0.56953
2159.99216	0.56939
2158.06360	0.56913
2156.13503	0.56884
2154.20647	0.56871
2152.27790	0.56871
2150.34934	0.56864
2148.42077	0.56844
2146.49221	0.56825
2144.56365	0.56795
2142.63508	0.56737
2140.70652	0.56670
2138.77795	0.56619
2136.84939	0.56583
2134.92082	0.56549
2132.99226	0.56522
2131.06369	0.56502
2129.13513	0.56461
2127.20657	0.56387
2125.27800	0.56306
2123.34944	0.56251
2121.42087	0.56229
2119.49231	0.56219
2117.56374	0.56196
2115.63518	0.56155
2113.70661	0.56100
2111.77805	0.56046
2109.84949	0.56004
2107.92092	0.55955
2105.99236	0.55883
2104.06379	0.55808
2102.13523	0.55758
2100.20666	0.55746
2098.27810	0.55743
2096.34953	0.55720
2094.42097	0.55694
2092.49241	0.55690
2090.56384	0.55710
2088.63528	0.55725
2086.70671	0.55710
2084.77815	0.55692
2082.84958	0.55717
2080.92102	0.55765
2078.99245	0.55801
2077.06389	0.55851
2075.13533	0.55911
2073.20676	0.55932
2071.27820	0.55920
2069.34963	0.55909
2067.42107	0.55893
2065.49250	0.55852
2063.56394	0.55805
2061.63537	0.55779
2059.70681	0.55751
2057.77825	0.55706
2055.84968	0.55658
2053.92112	0.55601
2051.99255	0.55533
2050.06399	0.55461
2048.13542	0.55385
2046.20686	0.55316
2044.27830	0.55255
2042.34973	0.55195
2040.42117	0.55130
2038.49260	0.55065
2036.56404	0.55004
2034.63547	0.54944
2032.70691	0.54903
2030.77834	0.54881
2028.84978	0.54834
2026.92122	0.54766
2024.99265	0.54733
2023.06409	0.54733
2021.13552	0.54713
2019.20696	0.54673
2017.27839	0.54632
2015.34983	0.54580
2013.42126	0.54537
2011.49270	0.54524
2009.56414	0.54517
2007.63557	0.54493
2005.70701	0.54453
2003.77844	0.54424
2001.84988	0.54417
1999.92131	0.54413
1997.99275	0.54388
1996.06418	0.54362
1994.13562	0.54365
1992.20706	0.54383
1990.27849	0.54380
1988.34993	0.54344
1986.42136	0.54293
1984.49280	0.54255
1982.56423	0.54227
1980.63567	0.54205
1978.70710	0.54199
1976.77854	0.54201
1974.84998	0.54196
1972.92141	0.54179
1970.99285	0.54145
1969.06428	0.54118
1967.13572	0.54106
1965.20715	0.54074
1963.27859	0.54020
1961.35002	0.53959
1959.42146	0.53894
1957.49290	0.53831
1955.56433	0.53766
1953.63577	0.53693
1951.70720	0.53612
1949.77864	0.53531
1947.85007	0.53463
1945.92151	0.53415
1943.99294	0.53373
1942.06438	0.53290
1940.13582	0.53179
1938.20725	0.53103
1936.27869	0.53063
1934.35012	0.53020
1932.42156	0.52960
1930.49299	0.52911
1928.56443	0.52885
1926.63586	0.52869
1924.70730	0.52853
1922.77874	0.52828
1920.85017	0.52799
1918.92161	0.52765
1916.99304	0.52697
1915.06448	0.52628
1913.13591	0.52608
1911.20735	0.52619
1909.27878	0.52628
1907.35022	0.52604
1905.42166	0.52565
1903.49309	0.52563
1901.56453	0.52597
1899.63596	0.52639
1897.70740	0.52686
1895.77883	0.52727
1893.85027	0.52756
1891.92171	0.52803
1889.99314	0.52854
1888.06458	0.52870
1886.13601	0.52883
1884.20745	0.52925
1882.27888	0.52973
1880.35032	0.53009
1878.42175	0.53056
1876.49319	0.53131
1874.56463	0.53219
1872.63606	0.53313
1870.70750	0.53427
1868.77893	0.53535
1866.85037	0.53547
1864.92180	0.53490
1862.99324	0.53443
1861.06467	0.53407
1859.13611	0.53349
1857.20755	0.53260
1855.27898	0.53158
1853.35042	0.53052
1851.42185	0.52943
1849.49329	0.52846
1847.56472	0.52759
1845.63616	0.52653
1843.70759	0.52514
1841.77903	0.52398
1839.85047	0.52326
1837.92190	0.52271
1835.99334	0.52219
1834.06477	0.52184
1832.13621	0.52200
1830.20764	0.52236
1828.27908	0.52241
1826.35051	0.52253
1824.42195	0.52286
1822.49339	0.52319
1820.56482	0.52358
1818.63626	0.52408
1816.70769	0.52440
1814.77913	0.52437
1812.85056	0.52409
1810.92200	0.52371
1808.99343	0.52340
1807.06487	0.52315
1805.13631	0.52285
1803.20774	0.52231
1801.27918	0.52162
1799.35061	0.52098
1797.42205	0.52055
1795.49348	0.52036
1793.56492	0.52016
1791.63635	0.51934
1789.70779	0.51794
1787.77923	0.51701
1785.85066	0.51668
1783.92210	0.51670
1781.99353	0.51686
1780.06497	0.51696
1778.13640	0.51691
1776.20784	0.51680
1774.27927	0.51699
1772.35071	0.51739
1770.42215	0.51735
1768.49358	0.51697
1766.56502	0.51687
1764.63645	0.51748
1762.70789	0.51877
1760.77932	0.52059
1758.85076	0.52270
1756.92220	0.52576
1754.99363	0.52960
1753.06507	0.53402
1751.13650	0.54089
1749.20794	0.55033
1747.27937	0.55876
1745.35081	0.56534
1743.42224	0.57105
1741.49368	0.57616
1739.56512	0.58050
1737.63655	0.58362
1735.70799	0.58566
1733.77942	0.58700
1731.85086	0.58706
1729.92229	0.58688
1727.99373	0.58727
1726.06516	0.58853
1724.13660	0.59113
1722.20804	0.59460
1720.27947	0.59873
1718.35091	0.60554
1716.42234	0.61666
1714.49378	0.62719
1712.56521	0.63704
1710.63665	0.64913
1708.70808	0.66448
1706.77952	0.68721
1704.85096	0.71772
1702.92239	0.74594
1700.99383	0.78357
1699.06526	0.84128
1697.13670	0.89379
1695.20813	0.94233
1693.27957	0.97775
1691.35100	1.00556
1689.42244	1.03837
1687.49388	1.06843
1685.56531	1.09775
1683.63675	1.14185
1681.70818	1.17482
1679.77962	1.19469
1677.85105	1.21302
1675.92249	1.23307
1673.99392	1.25323
1672.06536	1.26894
1670.13680	1.28509
1668.20823	1.30202
1666.27967	1.31232
1664.35110	1.32219
1662.42254	1.33473
1660.49397	1.34262
1658.56541	1.34542
1656.63684	1.34696
1654.70828	1.34996
1652.77972	1.35265
1650.85115	1.35136
1648.92259	1.34974
1646.99402	1.34700
1645.06546	1.34363
1643.13689	1.34079
1641.20833	1.33910
1639.27976	1.33783
1637.35120	1.33566
1635.42264	1.33260
1633.49407	1.33023
1631.56551	1.32714
1629.63694	1.32205
1627.70838	1.31582
1625.77981	1.30871
1623.85125	1.29875
1621.92269	1.28666
1619.99412	1.27642
1618.06556	1.26363
1616.13699	1.24274
1614.20843	1.22438
1612.27986	1.20923
1610.35130	1.19212
1608.42273	1.17420
1606.49417	1.15987
1604.56561	1.15081
1602.63704	1.14536
1600.70848	1.14178
1598.77991	1.13972
1596.85135	1.13969
1594.92278	1.14096
1592.99422	1.14222
1591.06565	1.14401
1589.13709	1.14784
1587.20853	1.15416
1585.27996	1.16235
1583.35140	1.17199
1581.42283	1.18176
1579.49427	1.19001
1577.56570	1.19883
1575.63714	1.21144
1573.70857	1.22124
1571.78001	1.22806
1569.85145	1.23754
1567.92288	1.24760
1565.99432	1.25523
1564.06575	1.26273
1562.13719	1.26913
1560.20862	1.27679
1558.28006	1.28905
1556.35149	1.29339
1554.42293	1.29482
1552.49437	1.29643
1550.56580	1.29868
1548.63724	1.30055
1546.70867	1.30057
1544.78011	1.29934
1542.85154	1.29948
1540.92298	1.30080
1538.99441	1.29631
1537.06585	1.29252
1535.13729	1.28915
1533.20872	1.28375
1531.28016	1.27957
1529.35159	1.27775
1527.42303	1.27441
1525.49446	1.26891
1523.56590	1.26678
1521.63733	1.26729
1519.70877	1.26355
1517.78021	1.25518
1515.85164	1.24474
1513.92308	1.23494
1511.99451	1.22531
1510.06595	1.21503
1508.13738	1.19621
1506.20882	1.15976
1504.28025	1.13873
1502.35169	1.12552
1500.42313	1.11037
1498.49456	1.09100
1496.56600	1.06789
1494.63743	1.04911
1492.70887	1.03592
1490.78030	1.02148
1488.85174	1.00374
1486.92317	0.99136
1484.99461	0.98443
1483.06605	0.97989
1481.13748	0.97683
1479.20892	0.97622
1477.28035	0.97995
1475.35179	0.98836
1473.42322	1.00153
1471.49466	1.01554
1469.56610	1.02377
1467.63753	1.02921
1465.70897	1.03530
1463.78040	1.04124
1461.85184	1.04461
1459.92327	1.04703
1457.99471	1.05198
1456.06614	1.05791
1454.13758	1.05904
1452.20902	1.05834
1450.28045	1.05733
1448.35189	1.05602
1446.42332	1.05462
1444.49476	1.05343
1442.56619	1.05220
1440.63763	1.05111
1438.70906	1.04965
1436.78050	1.04516
1434.85194	1.03840
1432.92337	1.03310
1430.99481	1.02818
1429.06624	1.02320
1427.13768	1.01956
1425.20911	1.01743
1423.28055	1.01676
1421.35198	1.01730
1419.42342	1.01803
1417.49486	1.01750
1415.56629	1.01582
1413.63773	1.01293
1411.70916	1.00822
1409.78060	1.00310
1407.85203	0.99974
1405.92347	0.99819
1403.99490	0.99712
1402.06634	0.99611
1400.13778	0.99574
1398.20921	0.99596
1396.28065	0.99671
1394.35208	0.99831
1392.42352	1.00109
1390.49495	1.00561
1388.56639	1.01378
1386.63782	1.02688
1384.70926	1.04135
1382.78070	1.05505
1380.85213	1.06727
1378.92357	1.07537
1376.99500	1.07739
1375.06644	1.07254
1373.13787	1.06235
1371.20931	1.05034
1369.28074	1.03506
1367.35218	1.01621
1365.42362	0.99768
1363.49505	0.97831
1361.56649	0.95767
1359.63792	0.94110
1357.70936	0.92870
1355.78079	0.91829
1353.85223	0.90933
1351.92366	0.90194
1349.99510	0.89585
1348.06654	0.89066
1346.13797	0.88664
1344.20941	0.88451
1342.28084	0.88437
1340.35228	0.88587
1338.42371	0.88872
1336.49515	0.89304
1334.56659	0.89953
1332.63802	0.90871
1330.70946	0.91972
1328.78089	0.93006
1326.85233	0.93804
1324.92376	0.94392
1322.99520	0.94830
1321.06663	0.95160
1319.13807	0.95449
1317.20951	0.95714
1315.28094	0.95909
1313.35238	0.96017
1311.42381	0.96026
1309.49525	0.95899
1307.56668	0.95595
1305.63812	0.95141
1303.70955	0.94623
1301.78099	0.94088
1299.85243	0.93521
1297.92386	0.92902
1295.99530	0.92299
1294.06673	0.91829
1292.13817	0.91553
1290.20960	0.91465
1288.28104	0.91531
1286.35247	0.91718
1284.42391	0.91956
1282.49535	0.92159
1280.56678	0.92337
1278.63822	0.92565
1276.70965	0.92879
1274.78109	0.93319
1272.85252	0.93925
1270.92396	0.94654
1268.99539	0.95406
1267.06683	0.96081
1265.13827	0.96597
1263.20970	0.96941
1261.28114	0.97176
1259.35257	0.97309
1257.42401	0.97271
1255.49544	0.97080
1253.56688	0.96831
1251.63831	0.96612
1249.70975	0.96464
1247.78119	0.96341
1245.85262	0.96215
1243.92406	0.96101
1241.99549	0.95959
1240.06693	0.95794
1238.13836	0.95654
1236.20980	0.95475
1234.28123	0.95168
1232.35267	0.94740
1230.42411	0.94220
1228.49554	0.93607
1226.56698	0.92897
1224.63841	0.92108
1222.70985	0.91251
1220.78128	0.90346
1218.85272	0.89460
1216.92415	0.88653
1214.99559	0.88001
1213.06703	0.87564
1211.13846	0.87339
1209.20990	0.87264
1207.28133	0.87174
1205.35277	0.86832
1203.42420	0.86150
1201.49564	0.85250
1199.56708	0.84241
1197.63851	0.83130
1195.70995	0.81972
1193.78138	0.80930
1191.85282	0.80140
1189.92425	0.79615
1187.99569	0.79299
1186.06712	0.79155
1184.13856	0.79177
1182.21000	0.79332
1180.28143	0.79621
1178.35287	0.80129
1176.42430	0.80855
1174.49574	0.81663
1172.56717	0.82458
1170.63861	0.83320
1168.71004	0.84416
1166.78148	0.85774
1164.85292	0.87230
1162.92435	0.88562
1160.99579	0.89590
1159.06722	0.90129
1157.13866	0.90053
1155.21009	0.89442
1153.28153	0.88420
1151.35296	0.87080
1149.42440	0.85653
1147.49584	0.84336
1145.56727	0.83213
1143.63871	0.82428
1141.71014	0.82086
1139.78158	0.82168
1137.85301	0.82598
1135.92445	0.83277
1133.99588	0.84207
1132.06732	0.85450
1130.13876	0.86946
1128.21019	0.88583
1126.28163	0.90285
1124.35306	0.91926
1122.42450	0.93340
1120.49593	0.94378
1118.56737	0.95009
1116.63880	0.95312
1114.71024	0.95221
1112.78168	0.94698
1110.85311	0.93914
1108.92455	0.93027
1106.99598	0.92198
1105.06742	0.91595
1103.13885	0.91230
1101.21029	0.91067
1099.28172	0.91171
1097.35316	0.91621
1095.42460	0.92524
1093.49603	0.93888
1091.56747	0.95455
1089.63890	0.97082
1087.71034	0.98876
1085.78177	1.00811
1083.85321	1.02731
1081.92464	1.04479
1079.99608	1.05893
1078.06752	1.06818
1076.13895	1.07128
1074.21039	1.06866
1072.28182	1.06159
1070.35326	1.05092
1068.42469	1.03847
1066.49613	1.02565
1064.56756	1.01224
1062.63900	0.99824
1060.71044	0.98348
1058.78187	0.96793
1056.85331	0.95293
1054.92474	0.93999
1052.99618	0.93034
1051.06761	0.92454
1049.13905	0.92174
1047.21049	0.92213
1045.28192	0.92730
1043.35336	0.93702
1041.42479	0.94892
1039.49623	0.96060
1037.56766	0.97089
1035.63910	0.97958
1033.71053	0.98598
1031.78197	0.98912
1029.85341	0.98858
1027.92484	0.98404
1025.99628	0.97590
1024.06771	0.96570
1022.13915	0.95514
1020.21058	0.94528
1018.28202	0.93629
1016.35345	0.92698
1014.42489	0.91519
1012.49633	0.89901
1010.56776	0.87787
1008.63920	0.85342
1006.71063	0.82854
1004.78207	0.80510
1002.85350	0.78426
1000.92494	0.76688
998.99637	0.75327
997.06781	0.74310
995.13925	0.73524
993.21068	0.72853
991.28212	0.72257
989.35355	0.71723
987.42499	0.71266
985.49642	0.70951
983.56786	0.70826
981.63929	0.70884
979.71073	0.71058
977.78217	0.71226
975.85360	0.71271
973.92504	0.71093
971.99647	0.70603
970.06791	0.69826
968.13934	0.68909
966.21078	0.68007
964.28221	0.67270
962.35365	0.66885
960.42509	0.67006
958.49652	0.67607
956.56796	0.68369
954.63939	0.68794
952.71083	0.68568
950.78226	0.67762
948.85370	0.66695
946.92513	0.65698
944.99657	0.64951
943.06801	0.64475
941.13944	0.64212
939.21088	0.64099
937.28231	0.64091
935.35375	0.64183
933.42518	0.64357
931.49662	0.64580
929.56805	0.64838
927.63949	0.65130
925.71093	0.65466
923.78236	0.65815
921.85380	0.66098
919.92523	0.66254
917.99667	0.66282
916.06810	0.66238
914.13954	0.66173
912.21098	0.66137
910.28241	0.66209
908.35385	0.66461
906.42528	0.66882
904.49672	0.67373
902.56815	0.67852
900.63959	0.68263
898.71102	0.68594
896.78246	0.68869
894.85390	0.69035
892.92533	0.69029
890.99677	0.68893
889.06820	0.68735
887.13964	0.68621
885.21107	0.68522
883.28251	0.68398
881.35394	0.68267
879.42538	0.68156
877.49682	0.68035
875.56825	0.67850
873.63969	0.67592
871.71112	0.67301
869.78256	0.67014
867.85399	0.66718
865.92543	0.66425
863.99686	0.66211
862.06830	0.66108
860.13974	0.66106
858.21117	0.66212
856.28261	0.66432
854.35404	0.66715
852.42548	0.67007
850.49691	0.67311
848.56835	0.67665
846.63978	0.68109
844.71122	0.68689
842.78266	0.69390
840.85409	0.70146
838.92553	0.70936
836.99696	0.71764
835.06840	0.72597
833.13983	0.73374
831.21127	0.74063
829.28270	0.74677
827.35414	0.75246
825.42558	0.75742
823.49701	0.76078
821.56845	0.76252
819.63988	0.76344
817.71132	0.76370
815.78275	0.76307
813.85419	0.76164
811.92562	0.75983
809.99706	0.75797
808.06850	0.75617
806.13993	0.75468
804.21137	0.75345
802.28280	0.75222
800.35424	0.75135
798.42567	0.75176
796.49711	0.75344
794.56854	0.75551
792.63998	0.75767
790.71142	0.75998
788.78285	0.76288
786.85429	0.76696
784.92572	0.77156
782.99716	0.77578
781.06859	0.77929
779.14003	0.78163
777.21147	0.78288
775.28290	0.78369
773.35434	0.78458
771.42577	0.78543
769.49721	0.78549
767.56864	0.78445
765.64008	0.78283
763.71151	0.78091
761.78295	0.77872
759.85439	0.77626
757.92582	0.77380
755.99726	0.77164
754.06869	0.76989
752.14013	0.76895
750.21156	0.76925
748.28300	0.77063
746.35443	0.77230
744.42587	0.77408
742.49731	0.77669
740.56874	0.78041
738.64018	0.78458
736.71161	0.78864
734.78305	0.79315
732.85448	0.79902
730.92592	0.80608
728.99735	0.81331
727.06879	0.82018
725.14023	0.82699
723.21166	0.83397
721.28310	0.84075
719.35453	0.84579
717.42597	0.84832
715.49740	0.85038
713.56884	0.85296
711.64027	0.85456
709.71171	0.85457
707.78315	0.85364
705.85458	0.85193
703.92602	0.84959
701.99745	0.84692
700.06889	0.84336
698.14032	0.83879
696.21176	0.83446
694.28319	0.83095
692.35463	0.82838
690.42607	0.82732
688.49750	0.82754
686.56894	0.82837
684.64037	0.83017
682.71181	0.83339
680.78324	0.83739
678.85468	0.84106
676.92611	0.84402
674.99755	0.84739
673.06899	0.85207
671.14042	0.85688
669.21186	0.86065
667.28329	0.86392
665.35473	0.86676
663.42616	0.86783
661.49760	0.86623
659.56903	0.86272
657.64047	0.85862
655.71191	0.85376
653.78334	0.84780
651.85478	0.84141
649.92621	0.83415
647.99765	0.82518
646.06908	0.81722
644.14052	0.81339
642.21195	0.81268
640.28339	0.81228
638.35483	0.81185
636.42626	0.81238
634.49770	0.81365
632.56913	0.81574
630.64057	0.81921
628.71200	0.82457
626.78344	0.83219
624.85488	0.84013
622.92631	0.84724
620.99775	0.85571
619.06918	0.86490
617.14062	0.87173
615.21205	0.87676
613.28349	0.88103
611.35492	0.88253
609.42636	0.88027
607.49780	0.87488
605.56923	0.86764
603.64067	0.86004
601.71210	0.85052
599.78354	0.83748
