3997.91406	0.82734
3995.98550	0.82568
3994.05693	0.82681
3992.12837	0.83018
3990.19980	0.83139
3988.27124	0.82958
3986.34268	0.82773
3984.41411	0.82834
3982.48555	0.83051
3980.55698	0.83202
3978.62842	0.83242
3976.69985	0.83216
3974.77129	0.83143
3972.84272	0.83090
3970.91416	0.83117
3968.98560	0.83080
3967.05703	0.82915
3965.12847	0.82883
3963.19990	0.83065
3961.27134	0.83222
3959.34277	0.83184
3957.41421	0.82933
3955.48564	0.82546
3953.55708	0.82170
3951.62852	0.82010
3949.69995	0.82229
3947.77139	0.82632
3945.84282	0.82823
3943.91426	0.82648
3941.98569	0.82351
3940.05713	0.82273
3938.12856	0.82376
3936.20000	0.82521
3934.27144	0.82494
3932.34287	0.82153
3930.41431	0.81857
3928.48574	0.81903
3926.55718	0.82089
3924.62861	0.82282
3922.70005	0.82596
3920.77148	0.82969
3918.84292	0.83110
3916.91436	0.82814
3914.98579	0.82256
3913.05723	0.81778
3911.12866	0.81610
3909.20010	0.81813
3907.27153	0.82068
3905.34297	0.81950
3903.41440	0.81549
3901.48584	0.81328
3899.55728	0.81161
3897.62871	0.80991
3895.70015	0.81039
3893.77158	0.81230
3891.84302	0.81361
3889.91445	0.81577
3887.98589	0.81840
3886.05733	0.81784
3884.12876	0.81653
3882.20020	0.81699
3880.27163	0.81525
3878.34307	0.81437
3876.41450	0.81543
3874.48594	0.81476
3872.55737	0.81296
3870.62881	0.81049
3868.70025	0.80889
3866.77168	0.80951
3864.84312	0.80774
3862.91455	0.80502
3860.98599	0.80707
3859.05742	0.81110
3857.12886	0.81191
3855.20029	0.80470
3853.27173	0.79294
3851.34317	0.79420
3849.41460	0.80049
3847.48604	0.80482
3845.55747	0.80509
3843.62891	0.80208
3841.70034	0.79979
3839.77178	0.79840
3837.84321	0.79767
3835.91465	0.79996
3833.98609	0.80161
3832.05752	0.80167
3830.12896	0.80313
3828.20039	0.80554
3826.27183	0.80794
3824.34326	0.81099
3822.41470	0.80996
3820.48613	0.80215
3818.55757	0.79948
3816.62901	0.79930
3814.70044	0.79818
3812.77188	0.79990
3810.84331	0.80288
3808.91475	0.80411
3806.98618	0.80307
3805.05762	0.80348
3803.12905	0.80204
3801.20049	0.79312
3799.27193	0.78828
3797.34336	0.79005
3795.41480	0.79312
3793.48623	0.79694
3791.55767	0.80059
3789.62910	0.80227
3787.70054	0.80222
3785.77197	0.80106
3783.84341	0.79967
3781.91485	0.79942
3779.98628	0.79908
3778.05772	0.79874
3776.12915	0.80020
3774.20059	0.80203
3772.27202	0.80091
3770.34346	0.79520
3768.41489	0.79142
3766.48633	0.79279
3764.55777	0.79467
3762.62920	0.79597
3760.70064	0.79577
3758.77207	0.79381
3756.84351	0.79535
3754.91494	0.79847
3752.98638	0.79368
3751.05781	0.77878
3749.12925	0.77533
3747.20069	0.78049
3745.27212	0.78201
3743.34356	0.78329
3741.41499	0.78752
3739.48643	0.79029
3737.55786	0.78872
3735.62930	0.78558
3733.70074	0.78729
3731.77217	0.78952
3729.84361	0.79020
3727.91504	0.78948
3725.98648	0.78610
3724.05791	0.78367
3722.12935	0.78593
3720.20078	0.78999
3718.27222	0.79297
3716.34366	0.79523
3714.41509	0.79694
3712.48653	0.79484
3710.55796	0.78943
3708.62940	0.78993
3706.70083	0.79393
3704.77227	0.79631
3702.84370	0.79509
3700.91514	0.79282
3698.98658	0.79247
3697.05801	0.79243
3695.12945	0.79264
3693.20088	0.79494
3691.27232	0.79853
3689.34375	0.79970
3687.41519	0.80092
3685.48662	0.80458
3683.55806	0.80732
3681.62950	0.80742
3679.70093	0.80652
3677.77237	0.80588
3675.84380	0.80674
3673.91524	0.81359
3671.98667	0.82044
3670.05811	0.82278
3668.12954	0.82653
3666.20098	0.83438
3664.27242	0.84225
3662.34385	0.84820
3660.41529	0.85181
3658.48672	0.85203
3656.55816	0.85125
3654.62959	0.85534
3652.70103	0.86114
3650.77246	0.86222
3648.84390	0.86129
3646.91534	0.86716
3644.98677	0.87342
3643.05821	0.87943
3641.12964	0.88633
3639.20108	0.89296
3637.27251	0.89884
3635.34395	0.90390
3633.41538	0.90762
3631.48682	0.91144
3629.55826	0.91525
3627.62969	0.91978
3625.70113	0.92842
3623.77256	0.93695
3621.84400	0.94177
3619.91543	0.94456
3617.98687	0.94985
3616.05830	0.95583
3614.12974	0.96006
3612.20118	0.96411
3610.27261	0.96817
3608.34405	0.97415
3606.41548	0.98412
3604.48692	0.99364
3602.55835	0.99985
3600.62979	1.00304
3598.70123	1.00608
3596.77266	1.00971
3594.84410	1.01373
3592.91553	1.02058
3590.98697	1.02804
3589.05840	1.03148
3587.12984	1.03271
3585.20127	1.03967
3583.27271	1.04973
3581.34415	1.05841
3579.41558	1.06442
3577.48702	1.06957
3575.55845	1.07589
3573.62989	1.08227
3571.70132	1.08955
3569.77276	1.09840
3567.84419	1.10573
3565.91563	1.11065
3563.98707	1.11614
3562.05850	1.12175
3560.12994	1.12737
3558.20137	1.13389
3556.27281	1.13931
3554.34424	1.14197
3552.41568	1.14414
3550.48711	1.14912
3548.55855	1.15734
3546.62999	1.16544
3544.70142	1.17039
3542.77286	1.17524
3540.84429	1.18141
3538.91573	1.18681
3536.98716	1.19256
3535.05860	1.20021
3533.13003	1.20789
3531.20147	1.21381
3529.27291	1.21876
3527.34434	1.22866
3525.41578	1.24232
3523.48721	1.24804
3521.55865	1.24626
3519.63008	1.24803
3517.70152	1.25708
3515.77295	1.26919
3513.84439	1.27928
3511.91583	1.28361
3509.98726	1.28195
3508.05870	1.28354
3506.13013	1.29266
3504.20157	1.30067
3502.27300	1.30498
3500.34444	1.31368
3498.41587	1.32498
3496.48731	1.33350
3494.55875	1.34103
3492.63018	1.34948
3490.70162	1.35944
3488.77305	1.37011
3486.84449	1.37490
3484.91592	1.36899
3482.98736	1.36098
3481.05879	1.36166
3479.13023	1.36636
3477.20167	1.36812
3475.27310	1.36977
3473.34454	1.37415
3471.41597	1.38102
3469.48741	1.39109
3467.55884	1.40090
3465.63028	1.40558
3463.70171	1.40973
3461.77315	1.41340
3459.84459	1.40990
3457.91602	1.40526
3455.98746	1.40962
3454.05889	1.41903
3452.13033	1.42014
3450.20176	1.41252
3448.27320	1.41095
3446.34464	1.42156
3444.41607	1.43202
3442.48751	1.43547
3440.55894	1.43923
3438.63038	1.44728
3436.70181	1.45284
3434.77325	1.45092
3432.84468	1.44586
3430.91612	1.44138
3428.98756	1.44060
3427.05899	1.44347
3425.13043	1.44252
3423.20186	1.43997
3421.27330	1.44264
3419.34473	1.44549
3417.41617	1.44550
3415.48760	1.44656
3413.55904	1.44991
3411.63048	1.45437
3409.70191	1.45747
3407.77335	1.45689
3405.84478	1.45331
3403.91622	1.45068
3401.98765	1.45126
3400.05909	1.45092
3398.13052	1.44877
3396.20196	1.45071
3394.27340	1.45781
3392.34483	1.46667
3390.41627	1.47182
3388.48770	1.46861
3386.55914	1.46195
3384.63057	1.46042
3382.70201	1.46404
3380.77344	1.46496
3378.84488	1.46031
3376.91632	1.45657
3374.98775	1.45823
3373.05919	1.46122
3371.13062	1.46099
3369.20206	1.45945
3367.27349	1.46072
3365.34493	1.46631
3363.41636	1.47280
3361.48780	1.47688
3359.55924	1.48026
3357.63067	1.48013
3355.70211	1.47291
3353.77354	1.46549
3351.84498	1.46507
3349.91641	1.46951
3347.98785	1.47451
3346.05928	1.48242
3344.13072	1.49120
3342.20216	1.49104
3340.27359	1.48580
3338.34503	1.48700
3336.41646	1.49311
3334.48790	1.49841
3332.55933	1.50359
3330.63077	1.50810
3328.70220	1.50859
3326.77364	1.50685
3324.84508	1.50919
3322.91651	1.51516
3320.98795	1.51803
3319.05938	1.51807
3317.13082	1.52291
3315.20225	1.53392
3313.27369	1.54157
3311.34513	1.54089
3309.41656	1.53859
3307.48800	1.53667
3305.55943	1.53384
3303.63087	1.53767
3301.70230	1.54993
3299.77374	1.55577
3297.84517	1.54883
3295.91661	1.54094
3293.98805	1.54095
3292.05948	1.54761
3290.13092	1.55359
3288.20235	1.55700
3286.27379	1.55787
3284.34522	1.55019
3282.41666	1.53898
3280.48809	1.53499
3278.55953	1.53593
3276.63097	1.53215
3274.70240	1.52352
3272.77384	1.51905
3270.84527	1.52139
3268.91671	1.52845
3266.98814	1.53413
3265.05958	1.52851
3263.13101	1.51446
3261.20245	1.50456
3259.27389	1.50189
3257.34532	1.50242
3255.41676	1.50718
3253.48819	1.51213
3251.55963	1.50783
3249.63106	1.49743
3247.70250	1.48444
3245.77393	1.46979
3243.84537	1.46269
3241.91681	1.46310
3239.98824	1.46107
3238.05968	1.45668
3236.13111	1.45444
3234.20255	1.45284
3232.27398	1.44849
3230.34542	1.44126
3228.41685	1.43317
3226.48829	1.42449
3224.55973	1.41822
3222.63116	1.41866
3220.70260	1.41867
3218.77403	1.40958
3216.84547	1.39954
3214.91690	1.39516
3212.98834	1.39043
3211.05977	1.38594
3209.13121	1.38628
3207.20265	1.38734
3205.27408	1.38478
3203.34552	1.37832
3201.41695	1.37089
3199.48839	1.36651
3197.55982	1.36489
3195.63126	1.36286
3193.70269	1.35913
3191.77413	1.35529
3189.84557	1.35002
3187.91700	1.34087
3185.98844	1.33060
3184.05987	1.32184
3182.13131	1.31529
3180.20274	1.31089
3178.27418	1.30744
3176.34562	1.30508
3174.41705	1.30370
3172.48849	1.30206
3170.55992	1.29959
3168.63136	1.29628
3166.70279	1.29166
3164.77423	1.28496
3162.84566	1.27774
3160.91710	1.27312
3158.98854	1.27174
3157.05997	1.27188
3155.13141	1.27063
3153.20284	1.26697
3151.27428	1.26389
3149.34571	1.26217
3147.41715	1.26016
3145.48858	1.25736
3143.56002	1.25258
3141.63146	1.24787
3139.70289	1.24706
3137.77433	1.24839
3135.84576	1.24852
3133.91720	1.24703
3131.98863	1.24446
3130.06007	1.24112
3128.13150	1.23887
3126.20294	1.23977
3124.27438	1.24258
3122.34581	1.24459
3120.41725	1.24497
3118.48868	1.24454
3116.56012	1.24481
3114.63155	1.24691
3112.70299	1.25013
3110.77442	1.25299
3108.84586	1.25320
3106.91730	1.24907
3104.98873	1.24459
3103.06017	1.24363
3101.13160	1.24347
3099.20304	1.24197
3097.27447	1.24099
3095.34591	1.24081
3093.41734	1.24022
3091.48878	1.23905
3089.56022	1.23673
3087.63165	1.23323
3085.70309	1.23077
3083.77452	1.23080
3081.84596	1.23117
3079.91739	1.22911
3077.98883	1.22457
3076.06026	1.21922
3074.13170	1.21409
3072.20314	1.20899
3070.27457	1.20505
3068.34601	1.20357
3066.41744	1.20200
3064.48888	1.19872
3062.56031	1.19568
3060.63175	1.19316
3058.70318	1.19017
3056.77462	1.18552
3054.84606	1.17871
3052.91749	1.17294
3050.98893	1.17036
3049.06036	1.16913
3047.13180	1.16774
3045.20323	1.16556
3043.27467	1.16164
3041.34610	1.15635
3039.41754	1.15207
3037.48898	1.15017
3035.56041	1.14852
3033.63185	1.14501
3031.70328	1.14124
3029.77472	1.13894
3027.84615	1.13651
3025.91759	1.13206
3023.98903	1.12659
3022.06046	1.12244
3020.13190	1.11971
3018.20333	1.11674
3016.27477	1.11393
3014.34620	1.11141
3012.41764	1.10797
3010.48907	1.10481
3008.56051	1.10257
3006.63195	1.09977
3004.70338	1.09623
3002.77482	1.09410
3000.84625	1.09491
2998.91769	1.09729
2996.98912	1.09978
2995.06056	1.10218
2993.13199	1.10476
2991.20343	1.10703
2989.27487	1.10923
2987.34630	1.11418
2985.41774	1.12147
2983.48917	1.12776
2981.56061	1.13399
2979.63204	1.14073
2977.70348	1.14563
2975.77491	1.15000
2973.84635	1.15630
2971.91779	1.16427
2969.98922	1.17290
2968.06066	1.17966
2966.13209	1.18429
2964.20353	1.19073
2962.27496	1.19760
2960.34640	1.19898
2958.41783	1.19456
2956.48927	1.18780
2954.56071	1.18084
2952.63214	1.17528
2950.70358	1.17191
2948.77501	1.17062
2946.84645	1.17163
2944.91788	1.17482
2942.98932	1.18025
2941.06075	1.18838
2939.13219	1.19867
2937.20363	1.20920
2935.27506	1.21856
2933.34650	1.22716
2931.41793	1.23611
2929.48937	1.24537
2927.56080	1.25276
2925.63224	1.25841
2923.70367	1.26484
2921.77511	1.27059
2919.84655	1.27266
2917.91798	1.26803
2915.98942	1.25345
2914.06085	1.23096
2912.13229	1.20707
2910.20372	1.18691
2908.27516	1.17197
2906.34659	1.16147
2904.41803	1.15299
2902.48947	1.14452
2900.56090	1.13780
2898.63234	1.13488
2896.70377	1.13403
2894.77521	1.13274
2892.84664	1.13049
2890.91808	1.12768
2888.98952	1.12382
2887.06095	1.11881
2885.13239	1.11488
2883.20382	1.11393
2881.27526	1.11508
2879.34669	1.11620
2877.41813	1.11585
2875.48956	1.11445
2873.56100	1.11272
2871.63244	1.10929
2869.70387	1.10276
2867.77531	1.09439
2865.84674	1.08670
2863.91818	1.08105
2861.98961	1.07812
2860.06105	1.07892
2858.13248	1.08351
2856.20392	1.09090
2854.27536	1.10015
2852.34679	1.10934
2850.41823	1.11263
2848.48966	1.10165
2846.56110	1.07613
2844.63253	1.04684
2842.70397	1.02429
2840.77540	1.01079
2838.84684	1.00215
2836.91828	0.99445
2834.98971	0.98763
2833.06115	0.98313
2831.13258	0.98151
2829.20402	0.98071
2827.27545	0.97789
2825.34689	0.97397
2823.41832	0.97159
2821.48976	0.97010
2819.56120	0.96749
2817.63263	0.96465
2815.70407	0.96239
2813.77550	0.95931
2811.84694	0.95584
2809.91837	0.95311
2807.98981	0.95043
2806.06124	0.94794
2804.13268	0.94560
2802.20412	0.94206
2800.27555	0.93740
2798.34699	0.93314
2796.41842	0.92997
2794.48986	0.92731
2792.56129	0.92418
2790.63273	0.91995
2788.70416	0.91542
2786.77560	0.91212
2784.84704	0.91006
2782.91847	0.90817
2780.98991	0.90624
2779.06134	0.90437
2777.13278	0.90235
2775.20421	0.90027
2773.27565	0.89851
2771.34708	0.89689
2769.41852	0.89488
2767.48996	0.89279
2765.56139	0.89121
2763.63283	0.89039
2761.70426	0.89012
2759.77570	0.88940
2757.84713	0.88737
2755.91857	0.88441
2753.99001	0.88166
2752.06144	0.87978
2750.13288	0.87830
2748.20431	0.87665
2746.27575	0.87508
2744.34718	0.87348
2742.41862	0.87165
2740.49005	0.87038
2738.56149	0.86992
2736.63293	0.86906
2734.70436	0.86745
2732.77580	0.86616
2730.84723	0.86532
2728.91867	0.86425
2726.99010	0.86306
2725.06154	0.86222
2723.13297	0.86162
2721.20441	0.86070
2719.27585	0.85962
2717.34728	0.85887
2715.41872	0.85794
2713.49015	0.85673
2711.56159	0.85605
2709.63302	0.85613
2707.70446	0.85608
2705.77589	0.85509
2703.84733	0.85379
2701.91877	0.85258
2699.99020	0.85142
2698.06164	0.85071
2696.13307	0.84999
2694.20451	0.84869
2692.27594	0.84718
2690.34738	0.84566
2688.41881	0.84400
2686.49025	0.84237
2684.56169	0.84090
2682.63312	0.83936
2680.70456	0.83798
2678.77599	0.83727
2676.84743	0.83671
2674.91886	0.83566
2672.99030	0.83413
2671.06173	0.83249
2669.13317	0.83085
2667.20461	0.82901
2665.27604	0.82705
2663.34748	0.82532
2661.41891	0.82434
2659.49035	0.82396
2657.56178	0.82313
2655.63322	0.82149
2653.70465	0.81961
2651.77609	0.81824
2649.84753	0.81756
2647.91896	0.81713
2645.99040	0.81679
2644.06183	0.81580
2642.13327	0.81368
2640.20470	0.81187
2638.27614	0.81135
2636.34757	0.81119
2634.41901	0.81048
2632.49045	0.80919
2630.56188	0.80753
2628.63332	0.80590
2626.70475	0.80473
2624.77619	0.80407
2622.84762	0.80395
2620.91906	0.80371
2618.99049	0.80261
2617.06193	0.80130
2615.13337	0.80036
2613.20480	0.79965
2611.27624	0.79908
2609.34767	0.79835
2607.41911	0.79731
2605.49054	0.79637
2603.56198	0.79583
2601.63342	0.79556
2599.70485	0.79526
2597.77629	0.79500
2595.84772	0.79501
2593.91916	0.79473
2591.99059	0.79364
2590.06203	0.79253
2588.13346	0.79200
2586.20490	0.79137
2584.27634	0.79027
2582.34777	0.78927
2580.41921	0.78843
2578.49064	0.78743
2576.56208	0.78649
2574.63351	0.78564
2572.70495	0.78455
2570.77638	0.78337
2568.84782	0.78240
2566.91926	0.78189
2564.99069	0.78155
2563.06213	0.78050
2561.13356	0.77910
2559.20500	0.77844
2557.27643	0.77801
2555.34787	0.77701
2553.41930	0.77585
2551.49074	0.77495
2549.56218	0.77398
2547.63361	0.77304
2545.70505	0.77262
2543.77648	0.77204
2541.84792	0.77083
2539.91935	0.76945
2537.99079	0.76781
2536.06222	0.76596
2534.13366	0.76445
2532.20510	0.76324
2530.27653	0.76200
2528.34797	0.76053
2526.41940	0.75867
2524.49084	0.75697
2522.56227	0.75610
2520.63371	0.75527
2518.70514	0.75353
2516.77658	0.75135
2514.84802	0.74983
2512.91945	0.74937
2510.99089	0.74924
2509.06232	0.74858
2507.13376	0.74745
2505.20519	0.74656
2503.27663	0.74651
2501.34806	0.74657
2499.41950	0.74591
2497.49094	0.74533
2495.56237	0.74493
2493.63381	0.74388
2491.70524	0.74305
2489.77668	0.74325
2487.84811	0.74339
2485.91955	0.74273
2483.99098	0.74189
2482.06242	0.74151
2480.13386	0.74134
2478.20529	0.74075
2476.27673	0.73959
2474.34816	0.73808
2472.41960	0.73657
2470.49103	0.73551
2468.56247	0.73490
2466.63391	0.73402
2464.70534	0.73226
2462.77678	0.73007
2460.84821	0.72845
2458.91965	0.72766
2456.99108	0.72731
2455.06252	0.72699
2453.13395	0.72638
2451.20539	0.72547
2449.27683	0.72455
2447.34826	0.72375
2445.41970	0.72290
2443.49113	0.72190
2441.56257	0.72103
2439.63400	0.72064
2437.70544	0.72046
2435.77687	0.71999
2433.84831	0.71933
2431.91975	0.71871
2429.99118	0.71799
2428.06262	0.71716
2426.13405	0.71615
2424.20549	0.71481
2422.27692	0.71346
2420.34836	0.71240
2418.41979	0.71158
2416.49123	0.71066
2414.56267	0.70933
2412.63410	0.70791
2410.70554	0.70681
2408.77697	0.70574
2406.84841	0.70447
2404.91984	0.70300
2402.99128	0.70158
2401.06271	0.70077
2399.13415	0.70048
2397.20559	0.69989
2395.27702	0.69883
2393.34846	0.69802
2391.41989	0.69776
2389.49133	0.69754
2387.56276	0.69696
2385.63420	0.69622
2383.70563	0.69543
2381.77707	0.69431
2379.84851	0.69303
2377.91994	0.69194
2375.99138	0.69092
2374.06281	0.68990
2372.13425	0.68839
2370.20568	0.68602
2368.27712	0.68357
2366.34855	0.68125
2364.41999	0.67925
2362.49143	0.67715
2360.56286	0.67322
2358.63430	0.67020
2356.70573	0.67217
2354.77717	0.67647
2352.84860	0.67939
2350.92004	0.68119
2348.99147	0.68267
2347.06291	0.68358
2345.13435	0.68302
2343.20578	0.68095
2341.27722	0.67941
2339.34865	0.67905
2337.42009	0.67879
2335.49152	0.67870
2333.56296	0.67937
2331.63440	0.68014
2329.70583	0.68080
2327.77727	0.68190
2325.84870	0.68285
2323.92014	0.68286
2321.99157	0.68262
2320.06301	0.68274
2318.13444	0.68278
2316.20588	0.68248
2314.27732	0.68212
2312.34875	0.68190
2310.42019	0.68132
2308.49162	0.68006
2306.56306	0.67888
2304.63449	0.67825
2302.70593	0.67766
2300.77736	0.67686
2298.84880	0.67606
2296.92024	0.67523
2294.99167	0.67465
2293.06311	0.67472
2291.13454	0.67485
2289.20598	0.67438
2287.27741	0.67362
2285.34885	0.67312
2283.42028	0.67290
2281.49172	0.67276
2279.56316	0.67253
2277.63459	0.67211
2275.70603	0.67157
2273.77746	0.67128
2271.84890	0.67128
2269.92033	0.67105
2267.99177	0.67040
2266.06320	0.66984
2264.13464	0.66940
2262.20608	0.66856
2260.27751	0.66766
2258.34895	0.66757
2256.42038	0.66804
2254.49182	0.66814
2252.56325	0.66755
2250.63469	0.66665
2248.70612	0.66602
2246.77756	0.66583
2244.84900	0.66592
2242.92043	0.66599
2240.99187	0.66577
2239.06330	0.66550
2237.13474	0.66554
2235.20617	0.66576
2233.27761	0.66582
2231.34904	0.66595
2229.42048	0.66642
2227.49192	0.66685
2225.56335	0.66701
2223.63479	0.66711
2221.70622	0.66720
2219.77766	0.66737
2217.84909	0.66778
2215.92053	0.66813
2213.99196	0.66813
2212.06340	0.66804
2210.13484	0.66810
2208.20627	0.66822
2206.27771	0.66816
2204.34914	0.66783
2202.42058	0.66733
2200.49201	0.66672
2198.56345	0.66615
2196.63488	0.66570
2194.70632	0.66514
2192.77776	0.66444
2190.84919	0.66363
2188.92063	0.66263
2186.99206	0.66160
2185.06350	0.66049
2183.13493	0.65939
2181.20637	0.65880
2179.27781	0.65864
2177.34924	0.65833
2175.42068	0.65781
2173.49211	0.65740
2171.56355	0.65704
2169.63498	0.65659
2167.70642	0.65637
2165.77785	0.65658
2163.84929	0.65679
2161.92073	0.65660
2159.99216	0.65626
2158.06360	0.65624
2156.13503	0.65642
2154.20647	0.65627
2152.27790	0.65551
2150.34934	0.65459
2148.42077	0.65421
2146.49221	0.65433
2144.56365	0.65445
2142.63508	0.65421
2140.70652	0.65370
2138.77795	0.65324
2136.84939	0.65308
2134.92082	0.65318
2132.99226	0.65319
2131.06369	0.65291
2129.13513	0.65250
2127.20657	0.65217
2125.27800	0.65191
2123.34944	0.65179
2121.42087	0.65200
2119.49231	0.65249
2117.56374	0.65285
2115.63518	0.65296
2113.70661	0.65304
2111.77805	0.65318
2109.84949	0.65329
2107.92092	0.65320
2105.99236	0.65283
2104.06379	0.65247
2102.13523	0.65224
2100.20666	0.65201
2098.27810	0.65175
2096.34953	0.65153
2094.42097	0.65128
2092.49241	0.65074
2090.56384	0.65001
2088.63528	0.64948
2086.70671	0.64903
2084.77815	0.64855
2082.84958	0.64827
2080.92102	0.64787
2078.99245	0.64693
2077.06389	0.64597
2075.13533	0.64530
2073.20676	0.64474
2071.27820	0.64439
2069.34963	0.64415
2067.42107	0.64350
2065.49250	0.64269
2063.56394	0.64226
2061.63537	0.64198
2059.70681	0.64168
2057.77825	0.64151
2055.84968	0.64132
2053.92112	0.64090
2051.99255	0.64039
2050.06399	0.64002
2048.13542	0.63975
2046.20686	0.63938
2044.27830	0.63885
2042.34973	0.63847
2040.42117	0.63832
2038.49260	0.63789
2036.56404	0.63704
2034.63547	0.63610
2032.70691	0.63517
2030.77834	0.63417
2028.84978	0.63309
2026.92122	0.63191
2024.99265	0.63045
2023.06409	0.62888
2021.13552	0.62780
2019.20696	0.62726
2017.27839	0.62676
2015.34983	0.62614
2013.42126	0.62547
2011.49270	0.62463
2009.56414	0.62367
2007.63557	0.62271
2005.70701	0.62190
2003.77844	0.62112
2001.84988	0.62020
1999.92131	0.61942
1997.99275	0.61915
1996.06418	0.61890
1994.13562	0.61802
1992.20706	0.61673
1990.27849	0.61569
1988.34993	0.61490
1986.42136	0.61424
1984.49280	0.61363
1982.56423	0.61281
1980.63567	0.61192
1978.70710	0.61129
1976.77854	0.61074
1974.84998	0.61009
1972.92141	0.60940
1970.99285	0.60888
1969.06428	0.60853
1967.13572	0.60824
1965.20715	0.60814
1963.27859	0.60823
1961.35002	0.60802
1959.42146	0.60759
1957.49290	0.60767
1955.56433	0.60817
1953.63577	0.60823
1951.70720	0.60769
1949.77864	0.60724
1947.85007	0.60712
1945.92151	0.60675
1943.99294	0.60575
1942.06438	0.60461
1940.13582	0.60388
1938.20725	0.60326
1936.27869	0.60246
1934.35012	0.60162
1932.42156	0.60070
1930.49299	0.59957
1928.56443	0.59841
1926.63586	0.59741
1924.70730	0.59623
1922.77874	0.59465
1920.85017	0.59329
1918.92161	0.59221
1916.99304	0.59103
1915.06448	0.59002
1913.13591	0.58917
1911.20735	0.58817
1909.27878	0.58695
1907.35022	0.58572
1905.42166	0.58469
1903.49309	0.58392
1901.56453	0.58315
1899.63596	0.58225
1897.70740	0.58125
1895.77883	0.57989
1893.85027	0.57811
1891.92171	0.57637
1889.99314	0.57493
1888.06458	0.57378
1886.13601	0.57252
1884.20745	0.57100
1882.27888	0.56939
1880.35032	0.56772
1878.42175	0.56611
1876.49319	0.56474
1874.56463	0.56335
1872.63606	0.56184
1870.70750	0.56016
1868.77893	0.55830
1866.85037	0.55727
1864.92180	0.55720
1862.99324	0.55707
1861.06467	0.55651
1859.13611	0.55588
1857.20755	0.55550
1855.27898	0.55541
1853.35042	0.55543
1851.42185	0.55538
1849.49329	0.55539
1847.56472	0.55561
1845.63616	0.55572
1843.70759	0.55531
1841.77903	0.55511
1839.85047	0.55519
1837.92190	0.55496
1835.99334	0.55453
1834.06477	0.55412
1832.13621	0.55352
1830.20764	0.55260
1828.27908	0.55172
1826.35051	0.55073
1824.42195	0.54941
1822.49339	0.54850
1820.56482	0.54794
1818.63626	0.54708
1816.70769	0.54585
1814.77913	0.54462
1812.85056	0.54334
1810.92200	0.54185
1808.99343	0.54065
1807.06487	0.53984
1805.13631	0.53899
1803.20774	0.53777
1801.27918	0.53629
1799.35061	0.53502
1797.42205	0.53407
1795.49348	0.53313
1793.56492	0.53159
1791.63635	0.52956
1789.70779	0.52819
1787.77923	0.52724
1785.85066	0.52596
1783.92210	0.52445
1781.99353	0.52300
1780.06497	0.52147
1778.13640	0.52015
1776.20784	0.51879
1774.27927	0.51698
1772.35071	0.51528
1770.42215	0.51507
1768.49358	0.51563
1766.56502	0.51614
1764.63645	0.51673
1762.70789	0.51738
1760.77932	0.51861
1758.85076	0.52078
1756.92220	0.52403
1754.99363	0.52788
1753.06507	0.53194
1751.13650	0.53772
1749.20794	0.54591
1747.27937	0.55413
1745.35081	0.56112
1743.42224	0.56735
1741.49368	0.57305
1739.56512	0.57794
1737.63655	0.58124
1735.70799	0.58296
1733.77942	0.58485
1731.85086	0.58762
1729.92229	0.59058
1727.99373	0.59379
1726.06516	0.59720
1724.13660	0.60142
1722.20804	0.60599
1720.27947	0.61035
1718.35091	0.61715
1716.42234	0.63052
1714.49378	0.64448
1712.56521	0.65647
1710.63665	0.66935
1708.70808	0.68432
1706.77952	0.70646
1704.85096	0.73746
1702.92239	0.76754
1700.99383	0.80851
1699.06526	0.87115
1697.13670	0.92984
1695.20813	0.98718
1693.27957	1.03047
1691.35100	1.06479
1689.42244	1.10510
1687.49388	1.14244
1685.56531	1.18048
1683.63675	1.24093
1681.70818	1.28702
1679.77962	1.31350
1677.85105	1.33774
1675.92249	1.36640
1673.99392	1.39621
1672.06536	1.41758
1670.13680	1.43858
1668.20823	1.45974
1666.27967	1.46987
1664.35110	1.47731
1662.42254	1.48520
1660.49397	1.48882
1658.56541	1.48973
1656.63684	1.48916
1654.70828	1.48645
1652.77972	1.47918
1650.85115	1.47621
1648.92259	1.47329
1646.99402	1.46604
1645.06546	1.46155
1643.13689	1.45882
1641.20833	1.45628
1639.27976	1.45393
1637.35120	1.45187
1635.42264	1.45073
1633.49407	1.44884
1631.56551	1.44543
1629.63694	1.43922
1627.70838	1.43075
1625.77981	1.42073
1623.85125	1.40671
1621.92269	1.39100
1619.99412	1.37857
1618.06556	1.36109
1616.13699	1.33137
1614.20843	1.30636
1612.27986	1.28549
1610.35130	1.26163
1608.42273	1.23776
1606.49417	1.21832
1604.56561	1.20247
1602.63704	1.18849
1600.70848	1.17787
1598.77991	1.17098
1596.85135	1.16584
1594.92278	1.16095
1592.99422	1.15692
1591.06565	1.15562
1589.13709	1.15824
1587.20853	1.16466
1585.27996	1.17359
1583.35140	1.18398
1581.42283	1.19472
1579.49427	1.20480
1577.56570	1.21661
1575.63714	1.23388
1573.70857	1.24882
1571.78001	1.26042
1569.85145	1.27511
1567.92288	1.29054
1565.99432	1.30314
1564.06575	1.31450
1562.13719	1.32150
1560.20862	1.32698
1558.28006	1.34383
1556.35149	1.35646
1554.42293	1.36161
1552.49437	1.36342
1550.56580	1.36261
1548.63724	1.36177
1546.70867	1.36107
1544.78011	1.35822
1542.85154	1.35252
1540.92298	1.34385
1538.99441	1.33524
1537.06585	1.33130
1535.13729	1.32709
1533.20872	1.32041
1531.28016	1.31348
1529.35159	1.30779
1527.42303	1.30124
1525.49446	1.29419
1523.56590	1.28956
1521.63733	1.28721
1519.70877	1.28719
1517.78021	1.28528
1515.85164	1.27875
1513.92308	1.26975
1511.99451	1.25867
1510.06595	1.24570
1508.13738	1.22411
1506.20882	1.18687
1504.28025	1.16646
1502.35169	1.15332
1500.42313	1.13729
1498.49456	1.11561
1496.56600	1.08966
1494.63743	1.06966
1492.70887	1.05540
1490.78030	1.03802
1488.85174	1.01684
1486.92317	1.00210
1484.99461	0.99217
1483.06605	0.98393
1481.13748	0.97753
1479.20892	0.97435
1477.28035	0.97493
1475.35179	0.97998
1473.42322	0.99225
1471.49466	1.00772
1469.56610	1.01750
1467.63753	1.02437
1465.70897	1.03218
1463.78040	1.04058
1461.85184	1.04604
1459.92327	1.04928
1457.99471	1.05457
1456.06614	1.06410
1454.13758	1.06942
1452.20902	1.07073
1450.28045	1.06979
1448.35189	1.06725
1446.42332	1.06389
1444.49476	1.05996
1442.56619	1.05467
1440.63763	1.04835
1438.70906	1.04076
1436.78050	1.02895
1434.85194	1.01596
1432.92337	1.00560
1430.99481	0.99404
1429.06624	0.98109
1427.13768	0.97077
1425.20911	0.96331
1423.28055	0.95817
1421.35198	0.95517
1419.42342	0.95307
1417.49486	0.95192
1415.56629	0.95131
1413.63773	0.95017
1411.70916	0.94859
1409.78060	0.94737
1407.85203	0.94708
1405.92347	0.94809
1403.99490	0.95061
1402.06634	0.95380
1400.13778	0.95738
1398.20921	0.96168
1396.28065	0.96650
1394.35208	0.97188
1392.42352	0.97773
1390.49495	0.98473
1388.56639	0.99613
1386.63782	1.01460
1384.70926	1.03472
1382.78070	1.05214
1380.85213	1.06565
1378.92357	1.07232
1376.99500	1.07095
1375.06644	1.06178
1373.13787	1.04719
1371.20931	1.03093
1369.28074	1.01108
1367.35218	0.98824
1365.42362	0.96705
1363.49505	0.94655
1361.56649	0.92791
1359.63792	0.91534
1357.70936	0.90658
1355.78079	0.89936
1353.85223	0.89407
1351.92366	0.89094
1349.99510	0.88937
1348.06654	0.88899
1346.13797	0.88959
1344.20941	0.89080
1342.28084	0.89235
1340.35228	0.89504
1338.42371	0.89999
1336.49515	0.90684
1334.56659	0.91509
1332.63802	0.92463
1330.70946	0.93470
1328.78089	0.94326
1326.85233	0.94864
1324.92376	0.95084
1322.99520	0.95078
1321.06663	0.94986
1319.13807	0.94958
1317.20951	0.95007
1315.28094	0.95009
1313.35238	0.94918
1311.42381	0.94779
1309.49525	0.94582
1307.56668	0.94271
1305.63812	0.93872
1303.70955	0.93451
1301.78099	0.93020
1299.85243	0.92578
1297.92386	0.92119
1295.99530	0.91710
1294.06673	0.91514
1292.13817	0.91594
1290.20960	0.91852
1288.28104	0.92201
1286.35247	0.92610
1284.42391	0.93013
1282.49535	0.93384
1280.56678	0.93801
1278.63822	0.94321
1276.70965	0.94921
1274.78109	0.95587
1272.85252	0.96369
1270.92396	0.97297
1268.99539	0.98281
1267.06683	0.99150
1265.13827	0.99772
1263.20970	1.00097
1261.28114	1.00164
1259.35257	1.00081
1257.42401	0.99896
1255.49544	0.99665
1253.56688	0.99466
1251.63831	0.99282
1249.70975	0.99125
1247.78119	0.99018
1245.85262	0.98904
1243.92406	0.98793
1241.99549	0.98727
1240.06693	0.98613
1238.13836	0.98391
1236.20980	0.98127
1234.28123	0.97802
1232.35267	0.97343
1230.42411	0.96791
1228.49554	0.96195
1226.56698	0.95517
1224.63841	0.94746
1222.70985	0.93948
1220.78128	0.93184
1218.85272	0.92460
1216.92415	0.91804
1214.99559	0.91325
1213.06703	0.91131
1211.13846	0.91191
1209.20990	0.91311
1207.28133	0.91242
1205.35277	0.90800
1203.42420	0.89946
1201.49564	0.88793
1199.56708	0.87489
1197.63851	0.86126
1195.70995	0.84838
1193.78138	0.83793
1191.85282	0.83082
1189.92425	0.82673
1187.99569	0.82471
1186.06712	0.82469
1184.13856	0.82750
1182.21000	0.83326
1180.28143	0.84165
1178.35287	0.85333
1176.42430	0.86858
1174.49574	0.88579
1172.56717	0.90339
1170.63861	0.92202
1168.71004	0.94278
1166.78148	0.96500
1164.85292	0.98657
1162.92435	1.00428
1160.99579	1.01508
1159.06722	1.01808
1157.13866	1.01418
1155.21009	1.00477
1153.28153	0.99125
1151.35296	0.97573
1149.42440	0.96024
1147.49584	0.94554
1145.56727	0.93246
1143.63871	0.92298
1141.71014	0.91858
1139.78158	0.91907
1137.85301	0.92365
1135.92445	0.93188
1133.99588	0.94369
1132.06732	0.95933
1130.13876	0.97886
1128.21019	1.00120
1126.28163	1.02445
1124.35306	1.04611
1122.42450	1.06330
1120.49593	1.07512
1118.56737	1.08278
1116.63880	1.08635
1114.71024	1.08557
1112.78168	1.08092
1110.85311	1.07352
1108.92455	1.06585
1106.99598	1.05971
1105.06742	1.05487
1103.13885	1.05118
1101.21029	1.05000
1099.28172	1.05271
1097.35316	1.05871
1095.42460	1.06685
1093.49603	1.07749
1091.56747	1.09130
1089.63890	1.10792
1087.71034	1.12678
1085.78177	1.14623
1083.85321	1.16355
1081.92464	1.17692
1079.99608	1.18511
1078.06752	1.18705
1076.13895	1.18316
1074.21039	1.17541
1072.28182	1.16581
1070.35326	1.15559
1068.42469	1.14573
1066.49613	1.13611
1064.56756	1.12578
1062.63900	1.11483
1060.71044	1.10393
1058.78187	1.09340
1056.85331	1.08360
1054.92474	1.07581
1052.99618	1.07157
1051.06761	1.07024
1049.13905	1.07038
1047.21049	1.07268
1045.28192	1.07818
1043.35336	1.08656
1041.42479	1.09628
1039.49623	1.10499
1037.56766	1.11090
1035.63910	1.11278
1033.71053	1.11043
1031.78197	1.10484
1029.85341	1.09612
1027.92484	1.08372
1025.99628	1.06859
1024.06771	1.05304
1022.13915	1.03975
1020.21058	1.03057
1018.28202	1.02368
1016.35345	1.01493
1014.42489	1.00276
1012.49633	0.98739
1010.56776	0.96887
1008.63920	0.94785
1006.71063	0.92602
1004.78207	0.90579
1002.85350	0.88877
1000.92494	0.87489
998.99637	0.86335
997.06781	0.85363
995.13925	0.84524
993.21068	0.83676
991.28212	0.82700
989.35355	0.81629
987.42499	0.80504
985.49642	0.79382
983.56786	0.78409
981.63929	0.77677
979.71073	0.77122
977.78217	0.76594
975.85360	0.75962
973.92504	0.75173
971.99647	0.74256
970.06791	0.73274
968.13934	0.72340
966.21078	0.71654
964.28221	0.71408
962.35365	0.71752
960.42509	0.72807
958.49652	0.74475
956.56796	0.76270
954.63939	0.77556
952.71083	0.78046
950.78226	0.77936
948.85370	0.77620
946.92513	0.77409
944.99657	0.77421
943.06801	0.77625
941.13944	0.77913
939.21088	0.78192
937.28231	0.78411
935.35375	0.78536
933.42518	0.78529
931.49662	0.78356
929.56805	0.78052
927.63949	0.77726
925.71093	0.77422
923.78236	0.77091
921.85380	0.76697
919.92523	0.76239
917.99667	0.75734
916.06810	0.75261
914.13954	0.74940
912.21098	0.74869
910.28241	0.75089
908.35385	0.75568
906.42528	0.76228
904.49672	0.77016
902.56815	0.77899
900.63959	0.78813
898.71102	0.79694
896.78246	0.80489
894.85390	0.81165
892.92533	0.81760
890.99677	0.82284
889.06820	0.82687
887.13964	0.82979
885.21107	0.83203
883.28251	0.83327
881.35394	0.83329
879.42538	0.83248
877.49682	0.83088
875.56825	0.82778
873.63969	0.82284
871.71112	0.81690
869.78256	0.81053
867.85399	0.80358
865.92543	0.79674
863.99686	0.79091
862.06830	0.78625
860.13974	0.78285
858.21117	0.78100
856.28261	0.78083
854.35404	0.78199
852.42548	0.78394
850.49691	0.78624
848.56835	0.78893
846.63978	0.79297
844.71122	0.79902
842.78266	0.80673
840.85409	0.81558
838.92553	0.82552
836.99696	0.83646
835.06840	0.84797
833.13983	0.85951
831.21127	0.87015
829.28270	0.87884
827.35414	0.88521
825.42558	0.89006
823.49701	0.89455
821.56845	0.89830
819.63988	0.90004
817.71132	0.89975
815.78275	0.89847
813.85419	0.89691
811.92562	0.89542
809.99706	0.89391
808.06850	0.89227
806.13993	0.89079
804.21137	0.88971
802.28280	0.88956
800.35424	0.89129
798.42567	0.89533
796.49711	0.90097
794.56854	0.90762
792.63998	0.91608
790.71142	0.92692
788.78285	0.93903
786.85429	0.95083
784.92572	0.96208
782.99716	0.97347
781.06859	0.98487
779.14003	0.99615
777.21147	1.00759
775.28290	1.01834
773.35434	1.02677
771.42577	1.03271
769.49721	1.03727
767.56864	1.04074
765.64008	1.04255
763.71151	1.04257
761.78295	1.04073
759.85439	1.03715
757.92582	1.03312
755.99726	1.02913
754.06869	1.02399
752.14013	1.01753
750.21156	1.01102
748.28300	1.00492
746.35443	0.99881
744.42587	0.99246
742.49731	0.98631
740.56874	0.98115
738.64018	0.97703
736.71161	0.97382
734.78305	0.97203
732.85448	0.97123
730.92592	0.97063
728.99735	0.97031
727.06879	0.97020
725.14023	0.96996
723.21166	0.96982
721.28310	0.97093
719.35453	0.97285
717.42597	0.97299
715.49740	0.97136
713.56884	0.97005
711.64027	0.96948
709.71171	0.96943
707.78315	0.97033
705.85458	0.97209
703.92602	0.97437
701.99745	0.97702
700.06889	0.97983
698.14032	0.98289
696.21176	0.98687
694.28319	0.99254
692.35463	0.99989
690.42607	1.00768
688.49750	1.01440
686.56894	1.02100
684.64037	1.03020
682.71181	1.04137
680.78324	1.05199
678.85468	1.06209
676.92611	1.07228
674.99755	1.08173
673.06899	1.08903
671.14042	1.09424
669.21186	1.10178
667.28329	1.11295
665.35473	1.11808
663.42616	1.11971
661.49760	1.12133
659.56903	1.12202
657.64047	1.12095
655.71191	1.11819
653.78334	1.11347
651.85478	1.10776
649.92621	1.10224
647.99765	1.09882
646.06908	1.09892
644.14052	1.10079
642.21195	1.10245
640.28339	1.10479
638.35483	1.11035
636.42626	1.11843
634.49770	1.12369
632.56913	1.12313
630.64057	1.12002
628.71200	1.11676
626.78344	1.11334
624.85488	1.11146
622.92631	1.11063
620.99775	1.10703
619.06918	1.09904
617.14062	1.08957
615.21205	1.07934
613.28349	1.06348
611.35492	1.04338
609.42636	1.02502
607.49780	1.00818
605.56923	0.99027
603.64067	0.97225
601.71210	0.95551
599.78354	0.93925
