3997.91406	0.76265
3995.98550	0.76339
3994.05693	0.76415
3992.12837	0.76640
3990.19980	0.76927
3988.27124	0.77154
3986.34268	0.77224
3984.41411	0.77107
3982.48555	0.76869
3980.55698	0.76560
3978.62842	0.76342
3976.69985	0.76174
3974.77129	0.75970
3972.84272	0.76035
3970.91416	0.76393
3968.98560	0.76621
3967.05703	0.76572
3965.12847	0.76513
3963.19990	0.76611
3961.27134	0.76670
3959.34277	0.76471
3957.41421	0.76247
3955.48564	0.76276
3953.55708	0.76361
3951.62852	0.76363
3949.69995	0.76387
3947.77139	0.76443
3945.84282	0.76495
3943.91426	0.76375
3941.98569	0.76113
3940.05713	0.76057
3938.12856	0.76156
3936.20000	0.76197
3934.27144	0.76115
3932.34287	0.75911
3930.41431	0.75840
3928.48574	0.76038
3926.55718	0.76221
3924.62861	0.76228
3922.70005	0.76178
3920.77148	0.76105
3918.84292	0.75957
3916.91436	0.75848
3914.98579	0.75913
3913.05723	0.76060
3911.12866	0.76180
3909.20010	0.76237
3907.27153	0.76181
3905.34297	0.75987
3903.41440	0.75759
3901.48584	0.75618
3899.55728	0.75659
3897.62871	0.75901
3895.70015	0.76133
3893.77158	0.76088
3891.84302	0.75724
3889.91445	0.75596
3887.98589	0.75739
3886.05733	0.75617
3884.12876	0.75338
3882.20020	0.75292
3880.27163	0.75264
3878.34307	0.75341
3876.41450	0.75599
3874.48594	0.75719
3872.55737	0.75508
3870.62881	0.75224
3868.70025	0.75193
3866.77168	0.75267
3864.84312	0.75149
3862.91455	0.74888
3860.98599	0.74738
3859.05742	0.74757
3857.12886	0.74825
3855.20029	0.74511
3853.27173	0.73788
3851.34317	0.74002
3849.41460	0.74540
3847.48604	0.74871
3845.55747	0.74959
3843.62891	0.74846
3841.70034	0.74647
3839.77178	0.74477
3837.84321	0.74518
3835.91465	0.74721
3833.98609	0.74775
3832.05752	0.74628
3830.12896	0.74562
3828.20039	0.74636
3826.27183	0.74576
3824.34326	0.74418
3822.41470	0.74262
3820.48613	0.74122
3818.55757	0.74324
3816.62901	0.74705
3814.70044	0.74840
3812.77188	0.74715
3810.84331	0.74550
3808.91475	0.74402
3806.98618	0.74330
3805.05762	0.74535
3803.12905	0.74791
3801.20049	0.74643
3799.27193	0.74429
3797.34336	0.74404
3795.41480	0.74464
3793.48623	0.74571
3791.55767	0.74539
3789.62910	0.74384
3787.70054	0.74339
3785.77197	0.74385
3783.84341	0.74381
3781.91485	0.74363
3779.98628	0.74391
3778.05772	0.74453
3776.12915	0.74434
3774.20059	0.74324
3772.27202	0.74220
3770.34346	0.74168
3768.41489	0.74204
3766.48633	0.74270
3764.55777	0.74279
3762.62920	0.74227
3760.70064	0.74062
3758.77207	0.73881
3756.84351	0.73890
3754.91494	0.73820
3752.98638	0.73309
3751.05781	0.72935
3749.12925	0.73587
3747.20069	0.73834
3745.27212	0.73308
3743.34356	0.73188
3741.41499	0.73705
3739.48643	0.74153
3737.55786	0.74289
3735.62930	0.73908
3733.70074	0.73273
3731.77217	0.73171
3729.84361	0.73410
3727.91504	0.73572
3725.98648	0.73645
3724.05791	0.73787
3722.12935	0.73824
3720.20078	0.73720
3718.27222	0.73710
3716.34366	0.73678
3714.41509	0.73386
3712.48653	0.72937
3710.55796	0.73006
3708.62940	0.73552
3706.70083	0.73928
3704.77227	0.74091
3702.84370	0.74146
3700.91514	0.74170
3698.98658	0.74280
3697.05801	0.74461
3695.12945	0.74597
3693.20088	0.74723
3691.27232	0.74788
3689.34375	0.74619
3687.41519	0.74642
3685.48662	0.74764
3683.55806	0.74744
3681.62950	0.74771
3679.70093	0.74937
3677.77237	0.74942
3675.84380	0.74781
3673.91524	0.75165
3671.98667	0.75610
3670.05811	0.75769
3668.12954	0.76151
3666.20098	0.76617
3664.27242	0.76922
3662.34385	0.77359
3660.41529	0.78030
3658.48672	0.78413
3656.55816	0.78262
3654.62959	0.78231
3652.70103	0.78487
3650.77246	0.78544
3648.84390	0.78478
3646.91534	0.78909
3644.98677	0.79449
3643.05821	0.80005
3641.12964	0.80590
3639.20108	0.81113
3637.27251	0.81512
3635.34395	0.81848
3633.41538	0.82188
3631.48682	0.82301
3629.55826	0.81956
3627.62969	0.82207
3625.70113	0.83296
3623.77256	0.84269
3621.84400	0.84845
3619.91543	0.85002
3617.98687	0.85020
3616.05830	0.85200
3614.12974	0.85411
3612.20118	0.85689
3610.27261	0.86063
3608.34405	0.86408
3606.41548	0.86857
3604.48692	0.87443
3602.55835	0.88002
3600.62979	0.88360
3598.70123	0.88475
3596.77266	0.88521
3594.84410	0.88722
3592.91553	0.89215
3590.98697	0.89865
3589.05840	0.90477
3587.12984	0.90872
3585.20127	0.91038
3583.27271	0.91126
3581.34415	0.91277
3579.41558	0.91525
3577.48702	0.91742
3575.55845	0.92028
3573.62989	0.92521
3571.70132	0.93029
3569.77276	0.93251
3567.84419	0.93074
3565.91563	0.93129
3563.98707	0.93765
3562.05850	0.94406
3560.12994	0.94846
3558.20137	0.95282
3556.27281	0.95718
3554.34424	0.96023
3552.41568	0.96338
3550.48711	0.96743
3548.55855	0.97081
3546.62999	0.97298
3544.70142	0.97494
3542.77286	0.97788
3540.84429	0.98236
3538.91573	0.98741
3536.98716	0.99096
3535.05860	0.99397
3533.13003	0.99905
3531.20147	1.00464
3529.27291	1.00707
3527.34434	1.00689
3525.41578	1.00846
3523.48721	1.01115
3521.55865	1.01155
3519.63008	1.01290
3517.70152	1.01913
3515.77295	1.02708
3513.84439	1.03247
3511.91583	1.03480
3509.98726	1.03572
3508.05870	1.03878
3506.13013	1.04468
3504.20157	1.05008
3502.27300	1.05298
3500.34444	1.05536
3498.41587	1.05901
3496.48731	1.06331
3494.55875	1.06688
3492.63018	1.06987
3490.70162	1.07145
3488.77305	1.07082
3486.84449	1.07195
3484.91592	1.07614
3482.98736	1.07962
3481.05879	1.08137
3479.13023	1.08234
3477.20167	1.08220
3475.27310	1.08130
3473.34454	1.08072
3471.41597	1.08120
3469.48741	1.08387
3467.55884	1.08788
3465.63028	1.09083
3463.70171	1.09305
3461.77315	1.09496
3459.84459	1.09535
3457.91602	1.09526
3455.98746	1.09598
3454.05889	1.09643
3452.13033	1.09696
3450.20176	1.09782
3448.27320	1.09729
3446.34464	1.09679
3444.41607	1.09809
3442.48751	1.10125
3440.55894	1.10656
3438.63038	1.11103
3436.70181	1.11170
3434.77325	1.11024
3432.84468	1.11009
3430.91612	1.11281
3428.98756	1.11591
3427.05899	1.11531
3425.13043	1.11130
3423.20186	1.10782
3421.27330	1.10840
3419.34473	1.11300
3417.41617	1.11750
3415.48760	1.12013
3413.55904	1.12150
3411.63048	1.12147
3409.70191	1.12089
3407.77335	1.12015
3405.84478	1.12019
3403.91622	1.12202
3401.98765	1.12235
3400.05909	1.12045
3398.13052	1.12158
3396.20196	1.12649
3394.27340	1.12969
3392.34483	1.12892
3390.41627	1.12719
3388.48770	1.12587
3386.55914	1.12465
3384.63057	1.12600
3382.70201	1.13039
3380.77344	1.13378
3378.84488	1.13420
3376.91632	1.13238
3374.98775	1.12849
3373.05919	1.12545
3371.13062	1.12777
3369.20206	1.13288
3367.27349	1.13440
3365.34493	1.13267
3363.41636	1.13185
3361.48780	1.13313
3359.55924	1.13497
3357.63067	1.13547
3355.70211	1.13519
3353.77354	1.13533
3351.84498	1.13532
3349.91641	1.13631
3347.98785	1.13956
3346.05928	1.14303
3344.13072	1.14357
3342.20216	1.13949
3340.27359	1.13488
3338.34503	1.13588
3336.41646	1.14083
3334.48790	1.14441
3332.55933	1.14669
3330.63077	1.14988
3328.70220	1.15274
3326.77364	1.15345
3324.84508	1.15329
3322.91651	1.15478
3320.98795	1.15779
3319.05938	1.16028
3317.13082	1.16337
3315.20225	1.16878
3313.27369	1.17347
3311.34513	1.17496
3309.41656	1.17550
3307.48800	1.17622
3305.55943	1.17566
3303.63087	1.17481
3301.70230	1.17489
3299.77374	1.17452
3297.84517	1.17482
3295.91661	1.17882
3293.98805	1.18411
3292.05948	1.18469
3290.13092	1.18013
3288.20235	1.17615
3286.27379	1.17548
3284.34522	1.17538
3282.41666	1.17500
3280.48809	1.17561
3278.55953	1.17540
3276.63097	1.17363
3274.70240	1.17334
3272.77384	1.17461
3270.84527	1.17359
3268.91671	1.17067
3266.98814	1.16875
3265.05958	1.16499
3263.13101	1.15876
3261.20245	1.15571
3259.27389	1.15560
3257.34532	1.15450
3255.41676	1.15310
3253.48819	1.15236
3251.55963	1.15180
3249.63106	1.15157
3247.70250	1.15201
3245.77393	1.15236
3243.84537	1.15016
3241.91681	1.14497
3239.98824	1.13937
3238.05968	1.13613
3236.13111	1.13626
3234.20255	1.13722
3232.27398	1.13507
3230.34542	1.13011
3228.41685	1.12616
3226.48829	1.12481
3224.55973	1.12466
3222.63116	1.12454
3220.70260	1.12389
3218.77403	1.12236
3216.84547	1.12004
3214.91690	1.11671
3212.98834	1.11273
3211.05977	1.11050
3209.13121	1.11032
3207.20265	1.10915
3205.27408	1.10652
3203.34552	1.10381
3201.41695	1.10002
3199.48839	1.09529
3197.55982	1.09197
3195.63126	1.08986
3193.70269	1.08741
3191.77413	1.08539
3189.84557	1.08375
3187.91700	1.08114
3185.98844	1.07762
3184.05987	1.07378
3182.13131	1.07162
3180.20274	1.07189
3178.27418	1.07093
3176.34562	1.06600
3174.41705	1.05969
3172.48849	1.05572
3170.55992	1.05360
3168.63136	1.05197
3166.70279	1.05180
3164.77423	1.05143
3162.84566	1.04918
3160.91710	1.04697
3158.98854	1.04523
3157.05997	1.04361
3155.13141	1.04334
3153.20284	1.04355
3151.27428	1.04256
3149.34571	1.04127
3147.41715	1.03923
3145.48858	1.03517
3143.56002	1.03132
3141.63146	1.02970
3139.70289	1.02955
3137.77433	1.02876
3135.84576	1.02608
3133.91720	1.02314
3131.98863	1.02216
3130.06007	1.02317
3128.13150	1.02440
3126.20294	1.02507
3124.27438	1.02585
3122.34581	1.02671
3120.41725	1.02666
3118.48868	1.02538
3116.56012	1.02383
3114.63155	1.02356
3112.70299	1.02538
3110.77442	1.02779
3108.84586	1.02895
3106.91730	1.02881
3104.98873	1.02764
3103.06017	1.02565
3101.13160	1.02338
3099.20304	1.02212
3097.27447	1.02208
3095.34591	1.02088
3093.41734	1.01861
3091.48878	1.01761
3089.56022	1.01774
3087.63165	1.01736
3085.70309	1.01594
3083.77452	1.01453
3081.84596	1.01368
3079.91739	1.01247
3077.98883	1.01058
3076.06026	1.00862
3074.13170	1.00731
3072.20314	1.00607
3070.27457	1.00344
3068.34601	0.99997
3066.41744	0.99746
3064.48888	0.99585
3062.56031	0.99292
3060.63175	0.98838
3058.70318	0.98588
3056.77462	0.98657
3054.84606	0.98625
3052.91749	0.98195
3050.98893	0.97562
3049.06036	0.97110
3047.13180	0.96942
3045.20323	0.96882
3043.27467	0.96763
3041.34610	0.96484
3039.41754	0.96107
3037.48898	0.95821
3035.56041	0.95670
3033.63185	0.95482
3031.70328	0.95198
3029.77472	0.94961
3027.84615	0.94751
3025.91759	0.94518
3023.98903	0.94358
3022.06046	0.94226
3020.13190	0.94047
3018.20333	0.93911
3016.27477	0.93822
3014.34620	0.93669
3012.41764	0.93464
3010.48907	0.93284
3008.56051	0.93151
3006.63195	0.93101
3004.70338	0.93134
3002.77482	0.93165
3000.84625	0.93150
2998.91769	0.93140
2996.98912	0.93216
2995.06056	0.93417
2993.13199	0.93666
2991.20343	0.93854
2989.27487	0.94015
2987.34630	0.94247
2985.41774	0.94507
2983.48917	0.94763
2981.56061	0.95140
2979.63204	0.95687
2977.70348	0.96311
2975.77491	0.96918
2973.84635	0.97399
2971.91779	0.97700
2969.98922	0.97894
2968.06066	0.98138
2966.13209	0.98513
2964.20353	0.98944
2962.27496	0.99306
2960.34640	0.99460
2958.41783	0.99361
2956.48927	0.99082
2954.56071	0.98645
2952.63214	0.98110
2950.70358	0.97673
2948.77501	0.97466
2946.84645	0.97483
2944.91788	0.97735
2942.98932	0.98210
2941.06075	0.98797
2939.13219	0.99433
2937.20363	1.00098
2935.27506	1.00759
2933.34650	1.01415
2931.41793	1.02087
2929.48937	1.02795
2927.56080	1.03603
2925.63224	1.04478
2923.70367	1.05180
2921.77511	1.05594
2919.84655	1.05829
2917.91798	1.05757
2915.98942	1.04994
2914.06085	1.03529
2912.13229	1.01876
2910.20372	1.00464
2908.27516	0.99370
2906.34659	0.98529
2904.41803	0.97840
2902.48947	0.97266
2900.56090	0.96893
2898.63234	0.96658
2896.70377	0.96389
2894.77521	0.96097
2892.84664	0.95833
2890.91808	0.95605
2888.98952	0.95366
2887.06095	0.94988
2885.13239	0.94585
2883.20382	0.94424
2881.27526	0.94495
2879.34669	0.94591
2877.41813	0.94592
2875.48956	0.94466
2873.56100	0.94233
2871.63244	0.93982
2869.70387	0.93734
2867.77531	0.93387
2865.84674	0.92961
2863.91818	0.92674
2861.98961	0.92686
2860.06105	0.93026
2858.13248	0.93629
2856.20392	0.94308
2854.27536	0.94986
2852.34679	0.95710
2850.41823	0.96096
2848.48966	0.95437
2846.56110	0.93725
2844.63253	0.91750
2842.70397	0.90097
2840.77540	0.88834
2838.84684	0.87940
2836.91828	0.87369
2834.98971	0.86928
2833.06115	0.86526
2831.13258	0.86216
2829.20402	0.85937
2827.27545	0.85619
2825.34689	0.85343
2823.41832	0.85131
2821.48976	0.84879
2819.56120	0.84573
2817.63263	0.84305
2815.70407	0.84094
2813.77550	0.83918
2811.84694	0.83791
2809.91837	0.83655
2807.98981	0.83443
2806.06124	0.83202
2804.13268	0.82955
2802.20412	0.82706
2800.27555	0.82470
2798.34699	0.82248
2796.41842	0.82101
2794.48986	0.82015
2792.56129	0.81861
2790.63273	0.81667
2788.70416	0.81527
2786.77560	0.81394
2784.84704	0.81177
2782.91847	0.80900
2780.98991	0.80686
2779.06134	0.80574
2777.13278	0.80477
2775.20421	0.80347
2773.27565	0.80225
2771.34708	0.80112
2769.41852	0.79966
2767.48996	0.79825
2765.56139	0.79731
2763.63283	0.79632
2761.70426	0.79479
2759.77570	0.79277
2757.84713	0.79085
2755.91857	0.78961
2753.99001	0.78885
2752.06144	0.78808
2750.13288	0.78716
2748.20431	0.78625
2746.27575	0.78561
2744.34718	0.78516
2742.41862	0.78462
2740.49005	0.78408
2738.56149	0.78366
2736.63293	0.78335
2734.70436	0.78308
2732.77580	0.78293
2730.84723	0.78301
2728.91867	0.78284
2726.99010	0.78217
2725.06154	0.78161
2723.13297	0.78142
2721.20441	0.78117
2719.27585	0.78050
2717.34728	0.77942
2715.41872	0.77800
2713.49015	0.77659
2711.56159	0.77609
2709.63302	0.77622
2707.70446	0.77556
2705.77589	0.77421
2703.84733	0.77312
2701.91877	0.77237
2699.99020	0.77168
2698.06164	0.77097
2696.13307	0.76988
2694.20451	0.76819
2692.27594	0.76656
2690.34738	0.76564
2688.41881	0.76474
2686.49025	0.76324
2684.56169	0.76166
2682.63312	0.76032
2680.70456	0.75936
2678.77599	0.75891
2676.84743	0.75818
2674.91886	0.75666
2672.99030	0.75495
2671.06173	0.75362
2669.13317	0.75267
2667.20461	0.75175
2665.27604	0.75071
2663.34748	0.74994
2661.41891	0.74990
2659.49035	0.75024
2657.56178	0.75003
2655.63322	0.74889
2653.70465	0.74760
2651.77609	0.74729
2649.84753	0.74795
2647.91896	0.74830
2645.99040	0.74774
2644.06183	0.74721
2642.13327	0.74711
2640.20470	0.74685
2638.27614	0.74652
2636.34757	0.74653
2634.41901	0.74677
2632.49045	0.74679
2630.56188	0.74645
2628.63332	0.74604
2626.70475	0.74559
2624.77619	0.74512
2622.84762	0.74486
2620.91906	0.74440
2618.99049	0.74379
2617.06193	0.74391
2615.13337	0.74438
2613.20480	0.74379
2611.27624	0.74236
2609.34767	0.74148
2607.41911	0.74100
2605.49054	0.73988
2603.56198	0.73820
2601.63342	0.73688
2599.70485	0.73627
2597.77629	0.73561
2595.84772	0.73411
2593.91916	0.73246
2591.99059	0.73144
2590.06203	0.73061
2588.13346	0.72968
2586.20490	0.72905
2584.27634	0.72862
2582.34777	0.72800
2580.41921	0.72718
2578.49064	0.72665
2576.56208	0.72633
2574.63351	0.72549
2572.70495	0.72431
2570.77638	0.72356
2568.84782	0.72317
2566.91926	0.72263
2564.99069	0.72179
2563.06213	0.72099
2561.13356	0.72039
2559.20500	0.71972
2557.27643	0.71911
2555.34787	0.71890
2553.41930	0.71888
2551.49074	0.71850
2549.56218	0.71758
2547.63361	0.71653
2545.70505	0.71535
2543.77648	0.71382
2541.84792	0.71294
2539.91935	0.71325
2537.99079	0.71331
2536.06222	0.71239
2534.13366	0.71137
2532.20510	0.71057
2530.27653	0.70987
2528.34797	0.70932
2526.41940	0.70860
2524.49084	0.70770
2522.56227	0.70675
2520.63371	0.70584
2518.70514	0.70517
2516.77658	0.70456
2514.84802	0.70391
2512.91945	0.70344
2510.99089	0.70305
2509.06232	0.70249
2507.13376	0.70196
2505.20519	0.70179
2503.27663	0.70169
2501.34806	0.70093
2499.41950	0.69946
2497.49094	0.69829
2495.56237	0.69796
2493.63381	0.69786
2491.70524	0.69784
2489.77668	0.69823
2487.84811	0.69848
2485.91955	0.69824
2483.99098	0.69780
2482.06242	0.69724
2480.13386	0.69655
2478.20529	0.69592
2476.27673	0.69545
2474.34816	0.69497
2472.41960	0.69428
2470.49103	0.69373
2468.56247	0.69358
2466.63391	0.69312
2464.70534	0.69188
2462.77678	0.69063
2460.84821	0.68977
2458.91965	0.68886
2456.99108	0.68781
2455.06252	0.68660
2453.13395	0.68529
2451.20539	0.68440
2449.27683	0.68422
2447.34826	0.68421
2445.41970	0.68356
2443.49113	0.68224
2441.56257	0.68107
2439.63400	0.68048
2437.70544	0.68025
2435.77687	0.67991
2433.84831	0.67936
2431.91975	0.67910
2429.99118	0.67929
2428.06262	0.67919
2426.13405	0.67854
2424.20549	0.67782
2422.27692	0.67701
2420.34836	0.67589
2418.41979	0.67514
2416.49123	0.67504
2414.56267	0.67473
2412.63410	0.67404
2410.70554	0.67343
2408.77697	0.67262
2406.84841	0.67173
2404.91984	0.67153
2402.99128	0.67182
2401.06271	0.67175
2399.13415	0.67110
2397.20559	0.67019
2395.27702	0.66926
2393.34846	0.66824
2391.41989	0.66722
2389.49133	0.66638
2387.56276	0.66575
2385.63420	0.66545
2383.70563	0.66544
2381.77707	0.66538
2379.84851	0.66501
2377.91994	0.66460
2375.99138	0.66453
2374.06281	0.66403
2372.13425	0.66287
2370.20568	0.66300
2368.27712	0.66388
2366.34855	0.66125
2364.41999	0.65601
2362.49143	0.65430
2360.56286	0.65703
2358.63430	0.65982
2356.70573	0.65975
2354.77717	0.65918
2352.84860	0.65939
2350.92004	0.65891
2348.99147	0.65822
2347.06291	0.65792
2345.13435	0.65744
2343.20578	0.65710
2341.27722	0.65790
2339.34865	0.65832
2337.42009	0.65747
2335.49152	0.65600
2333.56296	0.65394
2331.63440	0.65147
2329.70583	0.64971
2327.77727	0.64980
2325.84870	0.65094
2323.92014	0.65166
2321.99157	0.65152
2320.06301	0.65046
2318.13444	0.64924
2316.20588	0.64860
2314.27732	0.64817
2312.34875	0.64778
2310.42019	0.64751
2308.49162	0.64690
2306.56306	0.64576
2304.63449	0.64437
2302.70593	0.64321
2300.77736	0.64271
2298.84880	0.64258
2296.92024	0.64200
2294.99167	0.64107
2293.06311	0.64031
2291.13454	0.63956
2289.20598	0.63875
2287.27741	0.63816
2285.34885	0.63755
2283.42028	0.63691
2281.49172	0.63664
2279.56316	0.63653
2277.63459	0.63642
2275.70603	0.63632
2273.77746	0.63587
2271.84890	0.63514
2269.92033	0.63470
2267.99177	0.63458
2266.06320	0.63450
2264.13464	0.63450
2262.20608	0.63457
2260.27751	0.63462
2258.34895	0.63470
2256.42038	0.63486
2254.49182	0.63522
2252.56325	0.63549
2250.63469	0.63526
2248.70612	0.63472
2246.77756	0.63445
2244.84900	0.63455
2242.92043	0.63468
2240.99187	0.63450
2239.06330	0.63401
2237.13474	0.63353
2235.20617	0.63317
2233.27761	0.63270
2231.34904	0.63191
2229.42048	0.63088
2227.49192	0.62998
2225.56335	0.62941
2223.63479	0.62879
2221.70622	0.62772
2219.77766	0.62644
2217.84909	0.62548
2215.92053	0.62494
2213.99196	0.62432
2212.06340	0.62342
2210.13484	0.62259
2208.20627	0.62200
2206.27771	0.62155
2204.34914	0.62117
2202.42058	0.62066
2200.49201	0.62000
2198.56345	0.61953
2196.63488	0.61918
2194.70632	0.61873
2192.77776	0.61834
2190.84919	0.61821
2188.92063	0.61848
2186.99206	0.61907
2185.06350	0.61954
2183.13493	0.61960
2181.20637	0.61956
2179.27781	0.61969
2177.34924	0.61968
2175.42068	0.61956
2173.49211	0.61956
2171.56355	0.61938
2169.63498	0.61891
2167.70642	0.61828
2165.77785	0.61766
2163.84929	0.61716
2161.92073	0.61665
2159.99216	0.61587
2158.06360	0.61499
2156.13503	0.61423
2154.20647	0.61348
2152.27790	0.61276
2150.34934	0.61218
2148.42077	0.61166
2146.49221	0.61096
2144.56365	0.60992
2142.63508	0.60874
2140.70652	0.60755
2138.77795	0.60640
2136.84939	0.60550
2134.92082	0.60482
2132.99226	0.60416
2131.06369	0.60331
2129.13513	0.60243
2127.20657	0.60190
2125.27800	0.60153
2123.34944	0.60094
2121.42087	0.60051
2119.49231	0.60052
2117.56374	0.60044
2115.63518	0.59997
2113.70661	0.59930
2111.77805	0.59874
2109.84949	0.59847
2107.92092	0.59835
2105.99236	0.59807
2104.06379	0.59765
2102.13523	0.59716
2100.20666	0.59644
2098.27810	0.59559
2096.34953	0.59485
2094.42097	0.59402
2092.49241	0.59293
2090.56384	0.59179
2088.63528	0.59057
2086.70671	0.58924
2084.77815	0.58807
2082.84958	0.58713
2080.92102	0.58623
2078.99245	0.58509
2077.06389	0.58382
2075.13533	0.58289
2073.20676	0.58232
2071.27820	0.58163
2069.34963	0.58066
2067.42107	0.57980
2065.49250	0.57917
2063.56394	0.57851
2061.63537	0.57783
2059.70681	0.57729
2057.77825	0.57683
2055.84968	0.57634
2053.92112	0.57576
2051.99255	0.57529
2050.06399	0.57512
2048.13542	0.57509
2046.20686	0.57498
2044.27830	0.57459
2042.34973	0.57386
2040.42117	0.57296
2038.49260	0.57216
2036.56404	0.57156
2034.63547	0.57096
2032.70691	0.57013
2030.77834	0.56908
2028.84978	0.56802
2026.92122	0.56697
2024.99265	0.56587
2023.06409	0.56458
2021.13552	0.56313
2019.20696	0.56163
2017.27839	0.56010
2015.34983	0.55859
2013.42126	0.55716
2011.49270	0.55584
2009.56414	0.55462
2007.63557	0.55340
2005.70701	0.55225
2003.77844	0.55148
2001.84988	0.55103
1999.92131	0.55050
1997.99275	0.54994
1996.06418	0.54959
1994.13562	0.54931
1992.20706	0.54903
1990.27849	0.54881
1988.34993	0.54857
1986.42136	0.54824
1984.49280	0.54796
1982.56423	0.54780
1980.63567	0.54785
1978.70710	0.54790
1976.77854	0.54752
1974.84998	0.54693
1972.92141	0.54646
1970.99285	0.54583
1969.06428	0.54490
1967.13572	0.54392
1965.20715	0.54308
1963.27859	0.54235
1961.35002	0.54153
1959.42146	0.54052
1957.49290	0.53933
1955.56433	0.53784
1953.63577	0.53612
1951.70720	0.53446
1949.77864	0.53291
1947.85007	0.53138
1945.92151	0.52968
1943.99294	0.52757
1942.06438	0.52541
1940.13582	0.52388
1938.20725	0.52269
1936.27869	0.52149
1934.35012	0.52038
1932.42156	0.51923
1930.49299	0.51808
1928.56443	0.51716
1926.63586	0.51652
1924.70730	0.51585
1922.77874	0.51503
1920.85017	0.51443
1918.92161	0.51395
1916.99304	0.51328
1915.06448	0.51265
1913.13591	0.51219
1911.20735	0.51181
1909.27878	0.51149
1907.35022	0.51126
1905.42166	0.51115
1903.49309	0.51102
1901.56453	0.51073
1899.63596	0.51042
1897.70740	0.51013
1895.77883	0.50952
1893.85027	0.50863
1891.92171	0.50782
1889.99314	0.50687
1888.06458	0.50579
1886.13601	0.50485
1884.20745	0.50382
1882.27888	0.50269
1880.35032	0.50166
1878.42175	0.50065
1876.49319	0.49964
1874.56463	0.49860
1872.63606	0.49779
1870.70750	0.49712
1868.77893	0.49610
1866.85037	0.49529
1864.92180	0.49511
1862.99324	0.49500
1861.06467	0.49478
1859.13611	0.49445
1857.20755	0.49402
1855.27898	0.49370
1853.35042	0.49351
1851.42185	0.49340
1849.49329	0.49340
1847.56472	0.49329
1845.63616	0.49288
1843.70759	0.49213
1841.77903	0.49135
1839.85047	0.49059
1837.92190	0.48944
1835.99334	0.48797
1834.06477	0.48665
1832.13621	0.48542
1830.20764	0.48362
1828.27908	0.48166
1826.35051	0.48003
1824.42195	0.47820
1822.49339	0.47657
1820.56482	0.47529
1818.63626	0.47404
1816.70769	0.47285
1814.77913	0.47191
1812.85056	0.47120
1810.92200	0.47064
1808.99343	0.47020
1807.06487	0.46994
1805.13631	0.46991
1803.20774	0.46993
1801.27918	0.47000
1799.35061	0.47020
1797.42205	0.47049
1795.49348	0.47071
1793.56492	0.47051
1791.63635	0.47014
1789.70779	0.47017
1787.77923	0.47046
1785.85066	0.47078
1783.92210	0.47101
1781.99353	0.47086
1780.06497	0.47020
1778.13640	0.46963
1776.20784	0.46938
1774.27927	0.46910
1772.35071	0.46836
1770.42215	0.46777
1768.49358	0.46787
1766.56502	0.46827
1764.63645	0.46902
1762.70789	0.47003
1760.77932	0.47119
1758.85076	0.47260
1756.92220	0.47471
1754.99363	0.47754
1753.06507	0.48071
1751.13650	0.48463
1749.20794	0.48945
1747.27937	0.49446
1745.35081	0.49939
1743.42224	0.50419
1741.49368	0.50848
1739.56512	0.51207
1737.63655	0.51491
1735.70799	0.51711
1733.77942	0.51952
1731.85086	0.52209
1729.92229	0.52470
1727.99373	0.52769
1726.06516	0.53112
1724.13660	0.53547
1722.20804	0.54013
1720.27947	0.54460
1718.35091	0.55100
1716.42234	0.56188
1714.49378	0.57229
1712.56521	0.58097
1710.63665	0.59033
1708.70808	0.60138
1706.77952	0.61725
1704.85096	0.63818
1702.92239	0.65722
1700.99383	0.68162
1699.06526	0.71763
1697.13670	0.74957
1695.20813	0.77875
1693.27957	0.79974
1691.35100	0.81563
1689.42244	0.83372
1687.49388	0.84968
1685.56531	0.86475
1683.63675	0.88878
1681.70818	0.90782
1679.77962	0.91897
1677.85105	0.92894
1675.92249	0.94134
1673.99392	0.95540
1672.06536	0.96622
1670.13680	0.97750
1668.20823	0.99095
1666.27967	1.00021
1664.35110	1.00878
1662.42254	1.02062
1660.49397	1.03115
1658.56541	1.03795
1656.63684	1.04275
1654.70828	1.04690
1652.77972	1.05159
1650.85115	1.05383
1648.92259	1.05498
1646.99402	1.05671
1645.06546	1.05844
1643.13689	1.05941
1641.20833	1.05992
1639.27976	1.05965
1637.35120	1.05917
1635.42264	1.06054
1633.49407	1.06307
1631.56551	1.06463
1629.63694	1.06511
1627.70838	1.06466
1625.77981	1.06270
1623.85125	1.05844
1621.92269	1.05278
1619.99412	1.04780
1618.06556	1.04059
1616.13699	1.02697
1614.20843	1.01393
1612.27986	1.00263
1610.35130	0.98928
1608.42273	0.97414
1606.49417	0.96036
1604.56561	0.94928
1602.63704	0.93981
1600.70848	0.93205
1598.77991	0.92658
1596.85135	0.92248
1594.92278	0.91846
1592.99422	0.91502
1591.06565	0.91339
1589.13709	0.91344
1587.20853	0.91512
1585.27996	0.91872
1583.35140	0.92381
1581.42283	0.92926
1579.49427	0.93435
1577.56570	0.94043
1575.63714	0.94940
1573.70857	0.95672
1571.78001	0.96228
1569.85145	0.97047
1567.92288	0.97979
1565.99432	0.98678
1564.06575	0.99286
1562.13719	0.99783
1560.20862	1.00381
1558.28006	1.01355
1556.35149	1.01838
1554.42293	1.02236
1552.49437	1.02632
1550.56580	1.02957
1548.63724	1.03242
1546.70867	1.03476
1544.78011	1.03692
1542.85154	1.03776
1540.92298	1.03530
1538.99441	1.03359
1537.06585	1.03354
1535.13729	1.03282
1533.20872	1.03217
1531.28016	1.03146
1529.35159	1.02964
1527.42303	1.02664
1525.49446	1.02372
1523.56590	1.02288
1521.63733	1.02357
1519.70877	1.02433
1517.78021	1.02410
1515.85164	1.02230
1513.92308	1.01921
1511.99451	1.01515
1510.06595	1.00990
1508.13738	0.99768
1506.20882	0.97547
1504.28025	0.96425
1502.35169	0.95637
1500.42313	0.94546
1498.49456	0.92968
1496.56600	0.91084
1494.63743	0.89691
1492.70887	0.88696
1490.78030	0.87343
1488.85174	0.85456
1486.92317	0.84012
1484.99461	0.83038
1483.06605	0.82227
1481.13748	0.81548
1479.20892	0.81105
1477.28035	0.80944
1475.35179	0.81113
1473.42322	0.81794
1471.49466	0.82683
1469.56610	0.83253
1467.63753	0.83710
1465.70897	0.84245
1463.78040	0.84783
1461.85184	0.85147
1459.92327	0.85398
1457.99471	0.85751
1456.06614	0.86239
1454.13758	0.86477
1452.20902	0.86541
1450.28045	0.86503
1448.35189	0.86386
1446.42332	0.86252
1444.49476	0.86107
1442.56619	0.85887
1440.63763	0.85609
1438.70906	0.85258
1436.78050	0.84649
1434.85194	0.83890
1432.92337	0.83217
1430.99481	0.82450
1429.06624	0.81630
1427.13768	0.81008
1425.20911	0.80527
1423.28055	0.80132
1421.35198	0.79916
1419.42342	0.79871
1417.49486	0.79819
1415.56629	0.79646
1413.63773	0.79434
1411.70916	0.79255
1409.78060	0.79130
1407.85203	0.79029
1405.92347	0.78928
1403.99490	0.78843
1402.06634	0.78788
1400.13778	0.78749
1398.20921	0.78732
1396.28065	0.78744
1394.35208	0.78800
1392.42352	0.78947
1390.49495	0.79210
1388.56639	0.79718
1386.63782	0.80575
1384.70926	0.81508
1382.78070	0.82332
1380.85213	0.83030
1378.92357	0.83466
1376.99500	0.83495
1375.06644	0.83044
1373.13787	0.82249
1371.20931	0.81363
1369.28074	0.80280
1367.35218	0.79004
1365.42362	0.77772
1363.49505	0.76527
1361.56649	0.75367
1359.63792	0.74599
1357.70936	0.74124
1355.78079	0.73804
1353.85223	0.73607
1351.92366	0.73496
1349.99510	0.73460
1348.06654	0.73518
1346.13797	0.73653
1344.20941	0.73822
1342.28084	0.73987
1340.35228	0.74207
1338.42371	0.74560
1336.49515	0.74990
1334.56659	0.75462
1332.63802	0.75991
1330.70946	0.76523
1328.78089	0.76957
1326.85233	0.77205
1324.92376	0.77231
1322.99520	0.77124
1321.06663	0.77022
1319.13807	0.76973
1317.20951	0.76936
1315.28094	0.76861
1313.35238	0.76757
1311.42381	0.76647
1309.49525	0.76497
1307.56668	0.76303
1305.63812	0.76100
1303.70955	0.75892
1301.78099	0.75698
1299.85243	0.75527
1297.92386	0.75355
1295.99530	0.75237
1294.06673	0.75285
1292.13817	0.75507
1290.20960	0.75827
1288.28104	0.76203
1286.35247	0.76612
1284.42391	0.77001
1282.49535	0.77341
1280.56678	0.77678
1278.63822	0.78049
1276.70965	0.78428
1274.78109	0.78833
1272.85252	0.79301
1270.92396	0.79783
1268.99539	0.80250
1267.06683	0.80709
1265.13827	0.81084
1263.20970	0.81273
1261.28114	0.81274
1259.35257	0.81163
1257.42401	0.81030
1255.49544	0.80920
1253.56688	0.80802
1251.63831	0.80639
1249.70975	0.80444
1247.78119	0.80245
1245.85262	0.80043
1243.92406	0.79832
1241.99549	0.79588
1240.06693	0.79289
1238.13836	0.78973
1236.20980	0.78661
1234.28123	0.78294
1232.35267	0.77842
1230.42411	0.77340
1228.49554	0.76812
1226.56698	0.76246
1224.63841	0.75660
1222.70985	0.75101
1220.78128	0.74610
1218.85272	0.74200
1216.92415	0.73886
1214.99559	0.73749
1213.06703	0.73838
1211.13846	0.74070
1209.20990	0.74327
1207.28133	0.74515
1205.35277	0.74515
1203.42420	0.74247
1201.49564	0.73785
1199.56708	0.73246
1197.63851	0.72667
1195.70995	0.72061
1193.78138	0.71496
1191.85282	0.71024
1189.92425	0.70633
1187.99569	0.70318
1186.06712	0.70084
1184.13856	0.69909
1182.21000	0.69804
1180.28143	0.69825
1178.35287	0.70007
1176.42430	0.70320
1174.49574	0.70729
1172.56717	0.71229
1170.63861	0.71843
1168.71004	0.72600
1166.78148	0.73461
1164.85292	0.74317
1162.92435	0.75054
1160.99579	0.75512
1159.06722	0.75552
1157.13866	0.75193
1155.21009	0.74519
1153.28153	0.73600
1151.35296	0.72564
1149.42440	0.71542
1147.49584	0.70619
1145.56727	0.69910
1143.63871	0.69550
1141.71014	0.69600
1139.78158	0.69976
1137.85301	0.70573
1135.92445	0.71390
1133.99588	0.72406
1132.06732	0.73521
1130.13876	0.74706
1128.21019	0.75956
1126.28163	0.77142
1124.35306	0.78100
1122.42450	0.78786
1120.49593	0.79201
1118.56737	0.79333
1116.63880	0.79198
1114.71024	0.78806
1112.78168	0.78152
1110.85311	0.77294
1108.92455	0.76378
1106.99598	0.75495
1105.06742	0.74659
1103.13885	0.73980
1101.21029	0.73602
1099.28172	0.73541
1097.35316	0.73786
1095.42460	0.74336
1093.49603	0.75129
1091.56747	0.76068
1089.63890	0.77122
1087.71034	0.78305
1085.78177	0.79544
1083.85321	0.80709
1081.92464	0.81723
1079.99608	0.82500
1078.06752	0.82906
1076.13895	0.82910
1074.21039	0.82678
1072.28182	0.82339
1070.35326	0.81868
1068.42469	0.81333
1066.49613	0.80818
1064.56756	0.80258
1062.63900	0.79620
1060.71044	0.78952
1058.78187	0.78285
1056.85331	0.77680
1054.92474	0.77220
1052.99618	0.76866
1051.06761	0.76518
1049.13905	0.76241
1047.21049	0.76200
1045.28192	0.76435
1043.35336	0.76828
1041.42479	0.77207
1039.49623	0.77425
1037.56766	0.77409
1035.63910	0.77218
1033.71053	0.76975
1031.78197	0.76653
1029.85341	0.76158
1027.92484	0.75492
1025.99628	0.74697
1024.06771	0.73857
1022.13915	0.73122
1020.21058	0.72576
1018.28202	0.72153
1016.35345	0.71701
1014.42489	0.71063
1012.49633	0.70169
1010.56776	0.69091
1008.63920	0.67954
1006.71063	0.66884
1004.78207	0.65972
1002.85350	0.65262
1000.92494	0.64779
998.99637	0.64565
997.06781	0.64613
995.13925	0.64807
993.21068	0.64985
991.28212	0.65056
989.35355	0.65047
987.42499	0.65030
985.49642	0.65035
983.56786	0.65068
981.63929	0.65131
979.71073	0.65193
977.78217	0.65180
975.85360	0.65015
973.92504	0.64625
971.99647	0.64008
970.06791	0.63264
968.13934	0.62502
966.21078	0.61818
964.28221	0.61364
962.35365	0.61312
960.42509	0.61773
958.49652	0.62639
956.56796	0.63495
954.63939	0.63913
952.71083	0.63804
950.78226	0.63349
948.85370	0.62796
946.92513	0.62375
944.99657	0.62214
943.06801	0.62316
941.13944	0.62615
939.21088	0.63019
937.28231	0.63452
935.35375	0.63913
933.42518	0.64422
931.49662	0.64929
929.56805	0.65385
927.63949	0.65786
925.71093	0.66123
923.78236	0.66385
921.85380	0.66560
919.92523	0.66603
917.99667	0.66482
916.06810	0.66244
914.13954	0.66012
912.21098	0.65850
910.28241	0.65733
908.35385	0.65689
906.42528	0.65763
904.49672	0.65900
902.56815	0.66008
900.63959	0.66036
898.71102	0.66027
896.78246	0.66031
894.85390	0.65986
892.92533	0.65850
890.99677	0.65696
889.06820	0.65591
887.13964	0.65561
885.21107	0.65624
883.28251	0.65790
881.35394	0.66058
879.42538	0.66402
877.49682	0.66794
875.56825	0.67200
873.63969	0.67603
871.71112	0.68034
869.78256	0.68501
867.85399	0.68950
865.92543	0.69366
863.99686	0.69754
862.06830	0.70139
860.13974	0.70572
858.21117	0.71051
856.28261	0.71510
854.35404	0.71902
852.42548	0.72207
850.49691	0.72433
848.56835	0.72605
846.63978	0.72735
844.71122	0.72848
842.78266	0.73004
840.85409	0.73232
838.92553	0.73474
836.99696	0.73663
835.06840	0.73807
833.13983	0.73980
831.21127	0.74207
829.28270	0.74422
827.35414	0.74581
825.42558	0.74709
823.49701	0.74849
821.56845	0.75021
819.63988	0.75215
817.71132	0.75416
815.78275	0.75631
813.85419	0.75811
811.92562	0.75916
809.99706	0.75996
808.06850	0.76081
806.13993	0.76144
804.21137	0.76187
802.28280	0.76254
800.35424	0.76391
798.42567	0.76546
796.49711	0.76649
794.56854	0.76762
792.63998	0.76886
790.71142	0.76946
788.78285	0.76996
786.85429	0.77138
784.92572	0.77329
782.99716	0.77434
781.06859	0.77431
779.14003	0.77407
777.21147	0.77412
775.28290	0.77484
773.35434	0.77665
771.42577	0.77893
769.49721	0.78038
767.56864	0.78108
765.64008	0.78219
763.71151	0.78388
761.78295	0.78595
759.85439	0.78860
757.92582	0.79206
755.99726	0.79619
754.06869	0.80002
752.14013	0.80296
750.21156	0.80561
748.28300	0.80878
746.35443	0.81258
744.42587	0.81663
742.49731	0.82080
740.56874	0.82471
738.64018	0.82775
736.71161	0.83018
734.78305	0.83248
732.85448	0.83490
730.92592	0.83798
728.99735	0.84130
727.06879	0.84371
725.14023	0.84544
723.21166	0.84725
721.28310	0.84939
719.35453	0.85092
717.42597	0.85051
715.49740	0.84910
713.56884	0.84852
711.64027	0.84847
709.71171	0.84768
707.78315	0.84604
705.85458	0.84443
703.92602	0.84376
701.99745	0.84373
700.06889	0.84276
698.14032	0.84052
696.21176	0.83797
694.28319	0.83561
692.35463	0.83383
690.42607	0.83276
688.49750	0.83218
686.56894	0.83219
684.64037	0.83227
682.71181	0.83104
680.78324	0.82868
678.85468	0.82672
676.92611	0.82595
674.99755	0.82688
673.06899	0.82915
671.14042	0.83119
669.21186	0.83362
667.28329	0.83761
665.35473	0.84015
663.42616	0.84150
661.49760	0.84268
659.56903	0.84348
657.64047	0.84323
655.71191	0.84180
653.78334	0.83989
651.85478	0.83834
649.92621	0.83781
647.99765	0.83799
646.06908	0.83839
644.14052	0.83954
642.21195	0.84168
640.28339	0.84363
638.35483	0.84382
636.42626	0.84253
634.49770	0.84196
632.56913	0.84209
630.64057	0.84021
628.71200	0.83676
626.78344	0.83374
624.85488	0.83064
622.92631	0.82750
620.99775	0.82608
619.06918	0.82646
617.14062	0.82724
615.21205	0.82822
613.28349	0.82947
611.35492	0.82969
609.42636	0.82864
607.49780	0.82880
605.56923	0.83181
603.64067	0.83503
601.71210	0.83595
599.78354	0.83660
