3997.91406	0.38516
3995.98550	0.38537
3994.05693	0.38509
3992.12837	0.38379
3990.19980	0.38232
3988.27124	0.38201
3986.34268	0.38289
3984.41411	0.38391
3982.48555	0.38405
3980.55698	0.38332
3978.62842	0.38252
3976.69985	0.38256
3974.77129	0.38392
3972.84272	0.38573
3970.91416	0.38642
3968.98560	0.38561
3967.05703	0.38439
3965.12847	0.38397
3963.19990	0.38416
3961.27134	0.38399
3959.34277	0.38383
3957.41421	0.38425
3955.48564	0.38436
3953.55708	0.38349
3951.62852	0.38258
3949.69995	0.38285
3947.77139	0.38365
3945.84282	0.38329
3943.91426	0.38202
3941.98569	0.38142
3940.05713	0.38135
3938.12856	0.38040
3936.20000	0.37875
3934.27144	0.37791
3932.34287	0.37865
3930.41431	0.38049
3928.48574	0.38206
3926.55718	0.38225
3924.62861	0.38123
3922.70005	0.38065
3920.77148	0.38133
3918.84292	0.38208
3916.91436	0.38186
3914.98579	0.38131
3913.05723	0.38094
3911.12866	0.38053
3909.20010	0.37971
3907.27153	0.37817
3905.34297	0.37631
3903.41440	0.37504
3901.48584	0.37444
3899.55728	0.37461
3897.62871	0.37521
3895.70015	0.37536
3893.77158	0.37556
3891.84302	0.37608
3889.91445	0.37556
3887.98589	0.37406
3886.05733	0.37278
3884.12876	0.37214
3882.20020	0.37188
3880.27163	0.37231
3878.34307	0.37190
3876.41450	0.37012
3874.48594	0.36846
3872.55737	0.36746
3870.62881	0.36711
3868.70025	0.36733
3866.77168	0.36662
3864.84312	0.36585
3862.91455	0.36638
3860.98599	0.36674
3859.05742	0.36643
3857.12886	0.36520
3855.20029	0.36205
3853.27173	0.36134
3851.34317	0.36524
3849.41460	0.36675
3847.48604	0.36654
3845.55747	0.36547
3843.62891	0.36347
3841.70034	0.36140
3839.77178	0.36118
3837.84321	0.36292
3835.91465	0.36362
3833.98609	0.36303
3832.05752	0.36261
3830.12896	0.36266
3828.20039	0.36261
3826.27183	0.36207
3824.34326	0.36090
3822.41470	0.36029
3820.48613	0.36086
3818.55757	0.35967
3816.62901	0.35812
3814.70044	0.35830
3812.77188	0.35809
3810.84331	0.35663
3808.91475	0.35486
3806.98618	0.35410
3805.05762	0.35330
3803.12905	0.35117
3801.20049	0.35081
3799.27193	0.35310
3797.34336	0.35484
3795.41480	0.35566
3793.48623	0.35595
3791.55767	0.35610
3789.62910	0.35603
3787.70054	0.35557
3785.77197	0.35480
3783.84341	0.35364
3781.91485	0.35249
3779.98628	0.35244
3778.05772	0.35347
3776.12915	0.35394
3774.20059	0.35361
3772.27202	0.35312
3770.34346	0.35318
3768.41489	0.35371
3766.48633	0.35376
3764.55777	0.35351
3762.62920	0.35334
3760.70064	0.35333
3758.77207	0.35347
3756.84351	0.35306
3754.91494	0.35160
3752.98638	0.34903
3751.05781	0.34821
3749.12925	0.35055
3747.20069	0.35024
3745.27212	0.34895
3743.34356	0.35045
3741.41499	0.35160
3739.48643	0.35080
3737.55786	0.34924
3735.62930	0.34941
3733.70074	0.35268
3731.77217	0.35462
3729.84361	0.35401
3727.91504	0.35314
3725.98648	0.35361
3724.05791	0.35496
3722.12935	0.35639
3720.20078	0.35769
3718.27222	0.35819
3716.34366	0.35794
3714.41509	0.35763
3712.48653	0.35793
3710.55796	0.35922
3708.62940	0.36040
3706.70083	0.36095
3704.77227	0.36097
3702.84370	0.36117
3700.91514	0.36239
3698.98658	0.36365
3697.05801	0.36426
3695.12945	0.36370
3693.20088	0.36201
3691.27232	0.36117
3689.34375	0.36311
3687.41519	0.36521
3685.48662	0.36635
3683.55806	0.36751
3681.62950	0.36836
3679.70093	0.36837
3677.77237	0.36830
3675.84380	0.37214
3673.91524	0.37724
3671.98667	0.37785
3670.05811	0.37955
3668.12954	0.38458
3666.20098	0.38843
3664.27242	0.39147
3662.34385	0.39464
3660.41529	0.39737
3658.48672	0.39979
3656.55816	0.40436
3654.62959	0.40925
3652.70103	0.41093
3650.77246	0.41257
3648.84390	0.42088
3646.91534	0.43057
3644.98677	0.43618
3643.05821	0.44059
3641.12964	0.44513
3639.20108	0.44980
3637.27251	0.45466
3635.34395	0.45994
3633.41538	0.46462
3631.48682	0.46764
3629.55826	0.47367
3627.62969	0.48457
3625.70113	0.49066
3623.77256	0.49345
3621.84400	0.49577
3619.91543	0.49997
3617.98687	0.50751
3616.05830	0.51490
3614.12974	0.52147
3612.20118	0.52738
3610.27261	0.53179
3608.34405	0.53713
3606.41548	0.54410
3604.48692	0.54991
3602.55835	0.55494
3600.62979	0.55997
3598.70123	0.56455
3596.77266	0.56897
3594.84410	0.57450
3592.91553	0.58079
3590.98697	0.58549
3589.05840	0.59039
3587.12984	0.60024
3585.20127	0.61101
3583.27271	0.61813
3581.34415	0.62443
3579.41558	0.63146
3577.48702	0.63818
3575.55845	0.64489
3573.62989	0.65204
3571.70132	0.65864
3569.77276	0.66468
3567.84419	0.67351
3565.91563	0.68500
3563.98707	0.69211
3562.05850	0.69689
3560.12994	0.70227
3558.20137	0.70841
3556.27281	0.71466
3554.34424	0.72119
3552.41568	0.73017
3550.48711	0.74070
3548.55855	0.74975
3546.62999	0.75748
3544.70142	0.76496
3542.77286	0.77155
3540.84429	0.77760
3538.91573	0.78526
3536.98716	0.79459
3535.05860	0.80247
3533.13003	0.80738
3531.20147	0.81165
3529.27291	0.81832
3527.34434	0.82771
3525.41578	0.83775
3523.48721	0.84777
3521.55865	0.85631
3519.63008	0.86316
3517.70152	0.87168
3515.77295	0.88166
3513.84439	0.89061
3511.91583	0.89847
3509.98726	0.90689
3508.05870	0.91736
3506.13013	0.92878
3504.20157	0.94169
3502.27300	0.95556
3500.34444	0.96772
3498.41587	0.97985
3496.48731	0.99174
3494.55875	1.00000
3492.63018	1.00613
3490.70162	1.01486
3488.77305	1.02451
3486.84449	1.02973
3484.91592	1.03184
3482.98736	1.03573
3481.05879	1.04331
3479.13023	1.05182
3477.20167	1.05872
3475.27310	1.06425
3473.34454	1.06856
3471.41597	1.07183
3469.48741	1.07627
3467.55884	1.08278
3465.63028	1.08840
3463.70171	1.09242
3461.77315	1.09658
3459.84459	1.10101
3457.91602	1.10585
3455.98746	1.11084
3454.05889	1.11521
3452.13033	1.11926
3450.20176	1.12288
3448.27320	1.12601
3446.34464	1.13021
3444.41607	1.13337
3442.48751	1.13311
3440.55894	1.13413
3438.63038	1.13987
3436.70181	1.14678
3434.77325	1.15068
3432.84468	1.15071
3430.91612	1.14741
3428.98756	1.14221
3427.05899	1.13860
3425.13043	1.14094
3423.20186	1.14921
3421.27330	1.15655
3419.34473	1.15875
3417.41617	1.15939
3415.48760	1.16030
3413.55904	1.16161
3411.63048	1.16488
3409.70191	1.16956
3407.77335	1.17230
3405.84478	1.17184
3403.91622	1.17050
3401.98765	1.16911
3400.05909	1.16806
3398.13052	1.17002
3396.20196	1.17472
3394.27340	1.17829
3392.34483	1.17987
3390.41627	1.18226
3388.48770	1.18527
3386.55914	1.18780
3384.63057	1.19247
3382.70201	1.19796
3380.77344	1.19902
3378.84488	1.19673
3376.91632	1.19560
3374.98775	1.19752
3373.05919	1.20213
3371.13062	1.20669
3369.20206	1.20967
3367.27349	1.21256
3365.34493	1.21569
3363.41636	1.21920
3361.48780	1.22193
3359.55924	1.22204
3357.63067	1.22348
3355.70211	1.22896
3353.77354	1.23433
3351.84498	1.23601
3349.91641	1.23570
3347.98785	1.23784
3346.05928	1.24495
3344.13072	1.25574
3342.20216	1.26363
3340.27359	1.26284
3338.34503	1.25864
3336.41646	1.26017
3334.48790	1.26855
3332.55933	1.27738
3330.63077	1.28121
3328.70220	1.28157
3326.77364	1.28533
3324.84508	1.29662
3322.91651	1.31116
3320.98795	1.32178
3319.05938	1.32685
3317.13082	1.33031
3315.20225	1.33542
3313.27369	1.34142
3311.34513	1.34651
3309.41656	1.35007
3307.48800	1.35460
3305.55943	1.36179
3303.63087	1.36829
3301.70230	1.37328
3299.77374	1.37744
3297.84517	1.37804
3295.91661	1.37631
3293.98805	1.37779
3292.05948	1.38270
3290.13092	1.38473
3288.20235	1.38193
3286.27379	1.37859
3284.34522	1.37704
3282.41666	1.37701
3280.48809	1.37684
3278.55953	1.37538
3276.63097	1.37359
3274.70240	1.36996
3272.77384	1.36295
3270.84527	1.35711
3268.91671	1.35267
3266.98814	1.34431
3265.05958	1.33453
3263.13101	1.32681
3261.20245	1.31817
3259.27389	1.30590
3257.34532	1.29230
3255.41676	1.28214
3253.48819	1.27450
3251.55963	1.26572
3249.63106	1.25688
3247.70250	1.25011
3245.77393	1.24536
3243.84537	1.24041
3241.91681	1.23125
3239.98824	1.21815
3238.05968	1.20750
3236.13111	1.20160
3234.20255	1.19613
3232.27398	1.18969
3230.34542	1.18427
3228.41685	1.17993
3226.48829	1.17652
3224.55973	1.17409
3222.63116	1.17096
3220.70260	1.16679
3218.77403	1.16260
3216.84547	1.15810
3214.91690	1.15251
3212.98834	1.14555
3211.05977	1.13901
3209.13121	1.13556
3207.20265	1.13448
3205.27408	1.13147
3203.34552	1.12451
3201.41695	1.11636
3199.48839	1.10996
3197.55982	1.10489
3195.63126	1.09937
3193.70269	1.09475
3191.77413	1.09225
3189.84557	1.08894
3187.91700	1.08312
3185.98844	1.07557
3184.05987	1.06676
3182.13131	1.05806
3180.20274	1.05106
3178.27418	1.04566
3176.34562	1.04130
3174.41705	1.03762
3172.48849	1.03363
3170.55992	1.02951
3168.63136	1.02611
3166.70279	1.02283
3164.77423	1.01912
3162.84566	1.01500
3160.91710	1.01039
3158.98854	1.00591
3157.05997	1.00222
3155.13141	0.99868
3153.20284	0.99536
3151.27428	0.99301
3149.34571	0.99082
3147.41715	0.98821
3145.48858	0.98622
3143.56002	0.98527
3141.63146	0.98416
3139.70289	0.98240
3137.77433	0.98116
3135.84576	0.98121
3133.91720	0.98161
3131.98863	0.98128
3130.06007	0.98066
3128.13150	0.98010
3126.20294	0.97854
3124.27438	0.97620
3122.34581	0.97513
3120.41725	0.97627
3118.48868	0.97817
3116.56012	0.97930
3114.63155	0.97952
3112.70299	0.97854
3110.77442	0.97701
3108.84586	0.97735
3106.91730	0.97963
3104.98873	0.98081
3103.06017	0.97943
3101.13160	0.97689
3099.20304	0.97447
3097.27447	0.97272
3095.34591	0.97224
3093.41734	0.97206
3091.48878	0.97054
3089.56022	0.96776
3087.63165	0.96469
3085.70309	0.96305
3083.77452	0.96340
3081.84596	0.96278
3079.91739	0.95997
3077.98883	0.95777
3076.06026	0.95641
3074.13170	0.95389
3072.20314	0.95124
3070.27457	0.94984
3068.34601	0.94875
3066.41744	0.94750
3064.48888	0.94492
3062.56031	0.93969
3060.63175	0.93380
3058.70318	0.92904
3056.77462	0.92453
3054.84606	0.91901
3052.91749	0.91328
3050.98893	0.90894
3049.06036	0.90479
3047.13180	0.89937
3045.20323	0.89410
3043.27467	0.89009
3041.34610	0.88631
3039.41754	0.88198
3037.48898	0.87675
3035.56041	0.87042
3033.63185	0.86428
3031.70328	0.85959
3029.77472	0.85582
3027.84615	0.85253
3025.91759	0.84993
3023.98903	0.84775
3022.06046	0.84581
3020.13190	0.84439
3018.20333	0.84291
3016.27477	0.84058
3014.34620	0.83822
3012.41764	0.83678
3010.48907	0.83632
3008.56051	0.83631
3006.63195	0.83568
3004.70338	0.83463
3002.77482	0.83405
3000.84625	0.83389
2998.91769	0.83471
2996.98912	0.83714
2995.06056	0.84044
2993.13199	0.84415
2991.20343	0.84890
2989.27487	0.85497
2987.34630	0.86172
2985.41774	0.86892
2983.48917	0.87727
2981.56061	0.88637
2979.63204	0.89511
2977.70348	0.90401
2975.77491	0.91359
2973.84635	0.92316
2971.91779	0.93349
2969.98922	0.94560
2968.06066	0.95686
2966.13209	0.96504
2964.20353	0.97154
2962.27496	0.97591
2960.34640	0.97651
2958.41783	0.97471
2956.48927	0.97081
2954.56071	0.96339
2952.63214	0.95455
2950.70358	0.94834
2948.77501	0.94582
2946.84645	0.94691
2944.91788	0.95233
2942.98932	0.96132
2941.06075	0.97267
2939.13219	0.98601
2937.20363	1.00025
2935.27506	1.01442
2933.34650	1.02849
2931.41793	1.04111
2929.48937	1.05073
2927.56080	1.05965
2925.63224	1.06983
2923.70367	1.07797
2921.77511	1.08130
2919.84655	1.08045
2917.91798	1.07378
2915.98942	1.05595
2914.06085	1.02786
2912.13229	0.99909
2910.20372	0.97596
2908.27516	0.95804
2906.34659	0.94370
2904.41803	0.93214
2902.48947	0.92300
2900.56090	0.91603
2898.63234	0.91054
2896.70377	0.90557
2894.77521	0.90050
2892.84664	0.89492
2890.91808	0.88921
2888.98952	0.88379
2887.06095	0.87823
2885.13239	0.87378
2883.20382	0.87274
2881.27526	0.87478
2879.34669	0.87732
2877.41813	0.87863
2875.48956	0.87835
2873.56100	0.87604
2871.63244	0.87136
2869.70387	0.86456
2867.77531	0.85677
2865.84674	0.85009
2863.91818	0.84662
2861.98961	0.84757
2860.06105	0.85216
2858.13248	0.85921
2856.20392	0.86873
2854.27536	0.87975
2852.34679	0.88978
2850.41823	0.89274
2848.48966	0.87940
2846.56110	0.85005
2844.63253	0.81730
2842.70397	0.79117
2840.77540	0.77302
2838.84684	0.76049
2836.91828	0.75100
2834.98971	0.74283
2833.06115	0.73585
2831.13258	0.73034
2829.20402	0.72557
2827.27545	0.72068
2825.34689	0.71606
2823.41832	0.71241
2821.48976	0.70895
2819.56120	0.70476
2817.63263	0.70054
2815.70407	0.69679
2813.77550	0.69328
2811.84694	0.69004
2809.91837	0.68683
2807.98981	0.68322
2806.06124	0.67938
2804.13268	0.67597
2802.20412	0.67309
2800.27555	0.67056
2798.34699	0.66836
2796.41842	0.66613
2794.48986	0.66357
2792.56129	0.66111
2790.63273	0.65914
2788.70416	0.65745
2786.77560	0.65563
2784.84704	0.65355
2782.91847	0.65150
2780.98991	0.64980
2779.06134	0.64825
2777.13278	0.64654
2775.20421	0.64462
2773.27565	0.64280
2771.34708	0.64133
2769.41852	0.64004
2767.48996	0.63851
2765.56139	0.63623
2763.63283	0.63377
2761.70426	0.63207
2759.77570	0.63078
2757.84713	0.62948
2755.91857	0.62808
2753.99001	0.62629
2752.06144	0.62406
2750.13288	0.62159
2748.20431	0.61929
2746.27575	0.61745
2744.34718	0.61590
2742.41862	0.61456
2740.49005	0.61367
2738.56149	0.61265
2736.63293	0.61073
2734.70436	0.60817
2732.77580	0.60596
2730.84723	0.60472
2728.91867	0.60385
2726.99010	0.60238
2725.06154	0.60048
2723.13297	0.59891
2721.20441	0.59785
2719.27585	0.59672
2717.34728	0.59482
2715.41872	0.59233
2713.49015	0.59036
2711.56159	0.58921
2709.63302	0.58812
2707.70446	0.58701
2705.77589	0.58603
2703.84733	0.58479
2701.91877	0.58326
2699.99020	0.58182
2698.06164	0.58045
2696.13307	0.57915
2694.20451	0.57821
2692.27594	0.57758
2690.34738	0.57707
2688.41881	0.57660
2686.49025	0.57586
2684.56169	0.57460
2682.63312	0.57312
2680.70456	0.57180
2678.77599	0.57079
2676.84743	0.57012
2674.91886	0.56949
2672.99030	0.56845
2671.06173	0.56718
2669.13317	0.56596
2667.20461	0.56453
2665.27604	0.56292
2663.34748	0.56169
2661.41891	0.56077
2659.49035	0.55977
2657.56178	0.55868
2655.63322	0.55723
2653.70465	0.55525
2651.77609	0.55340
2649.84753	0.55213
2647.91896	0.55103
2645.99040	0.54986
2644.06183	0.54873
2642.13327	0.54753
2640.20470	0.54639
2638.27614	0.54570
2636.34757	0.54507
2634.41901	0.54405
2632.49045	0.54292
2630.56188	0.54191
2628.63332	0.54095
2626.70475	0.54003
2624.77619	0.53924
2622.84762	0.53889
2620.91906	0.53863
2618.99049	0.53789
2617.06193	0.53710
2615.13337	0.53655
2613.20480	0.53590
2611.27624	0.53528
2609.34767	0.53494
2607.41911	0.53470
2605.49054	0.53426
2603.56198	0.53353
2601.63342	0.53273
2599.70485	0.53199
2597.77629	0.53115
2595.84772	0.53027
2593.91916	0.52964
2591.99059	0.52923
2590.06203	0.52856
2588.13346	0.52735
2586.20490	0.52591
2584.27634	0.52461
2582.34777	0.52346
2580.41921	0.52232
2578.49064	0.52117
2576.56208	0.52006
2574.63351	0.51917
2572.70495	0.51833
2570.77638	0.51719
2568.84782	0.51596
2566.91926	0.51471
2564.99069	0.51315
2563.06213	0.51142
2561.13356	0.51003
2559.20500	0.50909
2557.27643	0.50829
2555.34787	0.50772
2553.41930	0.50741
2551.49074	0.50698
2549.56218	0.50626
2547.63361	0.50520
2545.70505	0.50399
2543.77648	0.50288
2541.84792	0.50184
2539.91935	0.50108
2537.99079	0.50079
2536.06222	0.50065
2534.13366	0.50056
2532.20510	0.50067
2530.27653	0.50067
2528.34797	0.50034
2526.41940	0.49986
2524.49084	0.49946
2522.56227	0.49912
2520.63371	0.49864
2518.70514	0.49792
2516.77658	0.49708
2514.84802	0.49640
2512.91945	0.49578
2510.99089	0.49489
2509.06232	0.49369
2507.13376	0.49235
2505.20519	0.49096
2503.27663	0.48963
2501.34806	0.48821
2499.41950	0.48651
2497.49094	0.48484
2495.56237	0.48326
2493.63381	0.48135
2491.70524	0.47949
2489.77668	0.47805
2487.84811	0.47659
2485.91955	0.47476
2483.99098	0.47272
2482.06242	0.47077
2480.13386	0.46914
2478.20529	0.46781
2476.27673	0.46650
2474.34816	0.46506
2472.41960	0.46364
2470.49103	0.46229
2468.56247	0.46096
2466.63391	0.45962
2464.70534	0.45845
2462.77678	0.45763
2460.84821	0.45686
2458.91965	0.45597
2456.99108	0.45523
2455.06252	0.45456
2453.13395	0.45379
2451.20539	0.45304
2449.27683	0.45262
2447.34826	0.45265
2445.41970	0.45262
2443.49113	0.45212
2441.56257	0.45150
2439.63400	0.45102
2437.70544	0.45060
2435.77687	0.45005
2433.84831	0.44928
2431.91975	0.44840
2429.99118	0.44744
2428.06262	0.44659
2426.13405	0.44586
2424.20549	0.44490
2422.27692	0.44367
2420.34836	0.44239
2418.41979	0.44123
2416.49123	0.44028
2414.56267	0.43941
2412.63410	0.43846
2410.70554	0.43746
2408.77697	0.43639
2406.84841	0.43520
2404.91984	0.43404
2402.99128	0.43311
2401.06271	0.43225
2399.13415	0.43118
2397.20559	0.43020
2395.27702	0.42974
2393.34846	0.42957
2391.41989	0.42921
2389.49133	0.42877
2387.56276	0.42847
2385.63420	0.42835
2383.70563	0.42855
2381.77707	0.42900
2379.84851	0.42954
2377.91994	0.43000
2375.99138	0.43027
2374.06281	0.43100
2372.13425	0.43303
2370.20568	0.43555
2368.27712	0.43705
2366.34855	0.43783
2364.41999	0.43901
2362.49143	0.43999
2360.56286	0.44078
2358.63430	0.44149
2356.70573	0.44033
2354.77717	0.43729
2352.84860	0.43426
2350.92004	0.43231
2348.99147	0.43129
2347.06291	0.43088
2345.13435	0.43115
2343.20578	0.43178
2341.27722	0.43115
2339.34865	0.42957
2337.42009	0.42843
2335.49152	0.42712
2333.56296	0.42512
2331.63440	0.42303
2329.70583	0.42153
2327.77727	0.42078
2325.84870	0.42087
2323.92014	0.42139
2321.99157	0.42069
2320.06301	0.41856
2318.13444	0.41661
2316.20588	0.41573
2314.27732	0.41565
2312.34875	0.41586
2310.42019	0.41607
2308.49162	0.41609
2306.56306	0.41590
2304.63449	0.41563
2302.70593	0.41538
2300.77736	0.41530
2298.84880	0.41544
2296.92024	0.41558
2294.99167	0.41550
2293.06311	0.41523
2291.13454	0.41501
2289.20598	0.41482
2287.27741	0.41434
2285.34885	0.41353
2283.42028	0.41277
2281.49172	0.41209
2279.56316	0.41109
2277.63459	0.40975
2275.70603	0.40847
2273.77746	0.40737
2271.84890	0.40622
2269.92033	0.40481
2267.99177	0.40312
2266.06320	0.40151
2264.13464	0.40017
2262.20608	0.39875
2260.27751	0.39700
2258.34895	0.39534
2256.42038	0.39417
2254.49182	0.39323
2252.56325	0.39216
2250.63469	0.39095
2248.70612	0.38981
2246.77756	0.38892
2244.84900	0.38828
2242.92043	0.38779
2240.99187	0.38725
2239.06330	0.38665
2237.13474	0.38640
2235.20617	0.38666
2233.27761	0.38698
2231.34904	0.38708
2229.42048	0.38728
2227.49192	0.38766
2225.56335	0.38805
2223.63479	0.38841
2221.70622	0.38879
2219.77766	0.38936
2217.84909	0.39000
2215.92053	0.39032
2213.99196	0.39026
2212.06340	0.39005
2210.13484	0.38986
2208.20627	0.38967
2206.27771	0.38935
2204.34914	0.38868
2202.42058	0.38770
2200.49201	0.38661
2198.56345	0.38550
2196.63488	0.38442
2194.70632	0.38334
2192.77776	0.38208
2190.84919	0.38066
2188.92063	0.37935
2186.99206	0.37829
2185.06350	0.37730
2183.13493	0.37629
2181.20637	0.37532
2179.27781	0.37448
2177.34924	0.37371
2175.42068	0.37312
2173.49211	0.37284
2171.56355	0.37269
2169.63498	0.37253
2167.70642	0.37255
2165.77785	0.37286
2163.84929	0.37337
2161.92073	0.37405
2159.99216	0.37489
2158.06360	0.37574
2156.13503	0.37649
2154.20647	0.37729
2152.27790	0.37828
2150.34934	0.37922
2148.42077	0.37985
2146.49221	0.38028
2144.56365	0.38081
2142.63508	0.38132
2140.70652	0.38165
2138.77795	0.38187
2136.84939	0.38197
2134.92082	0.38179
2132.99226	0.38135
2131.06369	0.38077
2129.13513	0.38025
2127.20657	0.37973
2125.27800	0.37893
2123.34944	0.37777
2121.42087	0.37654
2119.49231	0.37537
2117.56374	0.37412
2115.63518	0.37279
2113.70661	0.37157
2111.77805	0.37058
2109.84949	0.36969
2107.92092	0.36872
2105.99236	0.36765
2104.06379	0.36659
2102.13523	0.36582
2100.20666	0.36555
2098.27810	0.36568
2096.34953	0.36589
2094.42097	0.36600
2092.49241	0.36606
2090.56384	0.36623
2088.63528	0.36663
2086.70671	0.36720
2084.77815	0.36785
2082.84958	0.36860
2080.92102	0.36937
2078.99245	0.37006
2077.06389	0.37068
2075.13533	0.37117
2073.20676	0.37144
2071.27820	0.37156
2069.34963	0.37165
2067.42107	0.37155
2065.49250	0.37114
2063.56394	0.37051
2061.63537	0.36974
2059.70681	0.36880
2057.77825	0.36773
2055.84968	0.36652
2053.92112	0.36523
2051.99255	0.36401
2050.06399	0.36278
2048.13542	0.36130
2046.20686	0.35953
2044.27830	0.35777
2042.34973	0.35632
2040.42117	0.35503
2038.49260	0.35358
2036.56404	0.35203
2034.63547	0.35060
2032.70691	0.34939
2030.77834	0.34845
2028.84978	0.34775
2026.92122	0.34708
2024.99265	0.34633
2023.06409	0.34569
2021.13552	0.34532
2019.20696	0.34530
2017.27839	0.34553
2015.34983	0.34568
2013.42126	0.34566
2011.49270	0.34586
2009.56414	0.34645
2007.63557	0.34712
2005.70701	0.34763
2003.77844	0.34815
2001.84988	0.34878
1999.92131	0.34946
1997.99275	0.35009
1996.06418	0.35058
1994.13562	0.35111
1992.20706	0.35183
1990.27849	0.35247
1988.34993	0.35278
1986.42136	0.35274
1984.49280	0.35243
1982.56423	0.35202
1980.63567	0.35158
1978.70710	0.35109
1976.77854	0.35050
1974.84998	0.34975
1972.92141	0.34885
1970.99285	0.34788
1969.06428	0.34697
1967.13572	0.34609
1965.20715	0.34498
1963.27859	0.34369
1961.35002	0.34252
1959.42146	0.34160
1957.49290	0.34085
1955.56433	0.34004
1953.63577	0.33905
1951.70720	0.33806
1949.77864	0.33730
1947.85007	0.33667
1945.92151	0.33607
1943.99294	0.33565
1942.06438	0.33526
1940.13582	0.33463
1938.20725	0.33402
1936.27869	0.33373
1934.35012	0.33363
1932.42156	0.33354
1930.49299	0.33359
1928.56443	0.33389
1926.63586	0.33411
1924.70730	0.33429
1922.77874	0.33479
1920.85017	0.33540
1918.92161	0.33592
1916.99304	0.33615
1915.06448	0.33588
1913.13591	0.33556
1911.20735	0.33552
1909.27878	0.33565
1907.35022	0.33559
1905.42166	0.33527
1903.49309	0.33491
1901.56453	0.33466
1899.63596	0.33440
1897.70740	0.33409
1895.77883	0.33397
1893.85027	0.33392
1891.92171	0.33390
1889.99314	0.33410
1888.06458	0.33425
1886.13601	0.33411
1884.20745	0.33399
1882.27888	0.33405
1880.35032	0.33414
1878.42175	0.33415
1876.49319	0.33421
1874.56463	0.33439
1872.63606	0.33459
1870.70750	0.33501
1868.77893	0.33596
1866.85037	0.33652
1864.92180	0.33622
1862.99324	0.33600
1861.06467	0.33628
1859.13611	0.33679
1857.20755	0.33721
1855.27898	0.33768
1853.35042	0.33826
1851.42185	0.33879
1849.49329	0.33928
1847.56472	0.33987
1845.63616	0.34070
1843.70759	0.34141
1841.77903	0.34137
1839.85047	0.34115
1837.92190	0.34128
1835.99334	0.34152
1834.06477	0.34159
1832.13621	0.34200
1830.20764	0.34318
1828.27908	0.34432
1826.35051	0.34492
1824.42195	0.34564
1822.49339	0.34637
1820.56482	0.34700
1818.63626	0.34777
1816.70769	0.34858
1814.77913	0.34935
1812.85056	0.35020
1810.92200	0.35116
1808.99343	0.35187
1807.06487	0.35217
1805.13631	0.35240
1803.20774	0.35285
1801.27918	0.35375
1799.35061	0.35468
1797.42205	0.35533
1795.49348	0.35600
1793.56492	0.35701
1791.63635	0.35837
1789.70779	0.35906
1787.77923	0.35932
1785.85066	0.35993
1783.92210	0.36099
1781.99353	0.36241
1780.06497	0.36407
1778.13640	0.36544
1776.20784	0.36644
1774.27927	0.36796
1772.35071	0.37066
1770.42215	0.37336
1768.49358	0.37549
1766.56502	0.37765
1764.63645	0.37994
1762.70789	0.38319
1760.77932	0.38746
1758.85076	0.39165
1756.92220	0.39695
1754.99363	0.40281
1753.06507	0.40884
1751.13650	0.41781
1749.20794	0.42980
1747.27937	0.44006
1745.35081	0.44796
1743.42224	0.45486
1741.49368	0.46087
1739.56512	0.46558
1737.63655	0.46815
1735.70799	0.46934
1733.77942	0.47136
1731.85086	0.47346
1729.92229	0.47477
1727.99373	0.47620
1726.06516	0.47842
1724.13660	0.48238
1722.20804	0.48713
1720.27947	0.49189
1718.35091	0.50002
1716.42234	0.51501
1714.49378	0.52837
1712.56521	0.53900
1710.63665	0.55140
1708.70808	0.56724
1706.77952	0.59084
1704.85096	0.62207
1702.92239	0.65077
1700.99383	0.69046
1699.06526	0.75339
1697.13670	0.81230
1695.20813	0.86833
1693.27957	0.90956
1691.35100	0.94206
1689.42244	0.98101
1687.49388	1.01650
1685.56531	1.05079
1683.63675	1.10534
1681.70818	1.14743
1679.77962	1.17194
1677.85105	1.19451
1675.92249	1.21956
1673.99392	1.24471
1672.06536	1.26492
1670.13680	1.28735
1668.20823	1.30970
1666.27967	1.32010
1664.35110	1.32800
1662.42254	1.33945
1660.49397	1.34942
1658.56541	1.35542
1656.63684	1.35785
1654.70828	1.35891
1652.77972	1.35926
1650.85115	1.35803
1648.92259	1.35592
1646.99402	1.35345
1645.06546	1.35279
1643.13689	1.35024
1641.20833	1.34594
1639.27976	1.34116
1637.35120	1.33686
1635.42264	1.33148
1633.49407	1.32453
1631.56551	1.31772
1629.63694	1.30907
1627.70838	1.29802
1625.77981	1.28502
1623.85125	1.26809
1621.92269	1.24904
1619.99412	1.23389
1618.06556	1.21436
1616.13699	1.18128
1614.20843	1.15309
1612.27986	1.13140
1610.35130	1.10797
1608.42273	1.08340
1606.49417	1.06202
1604.56561	1.04522
1602.63704	1.03207
1600.70848	1.02285
1598.77991	1.01707
1596.85135	1.01325
1594.92278	1.01067
1592.99422	1.00982
1591.06565	1.01117
1589.13709	1.01463
1587.20853	1.02046
1585.27996	1.02876
1583.35140	1.03965
1581.42283	1.05169
1579.49427	1.06290
1577.56570	1.07704
1575.63714	1.09841
1573.70857	1.11407
1571.78001	1.12471
1569.85145	1.14079
1567.92288	1.15867
1565.99432	1.17162
1564.06575	1.18378
1562.13719	1.19425
1560.20862	1.20523
1558.28006	1.22218
1556.35149	1.23046
1554.42293	1.23458
1552.49437	1.23690
1550.56580	1.23584
1548.63724	1.23139
1546.70867	1.22676
1544.78011	1.22344
1542.85154	1.22037
1540.92298	1.21646
1538.99441	1.21110
1537.06585	1.20680
1535.13729	1.20156
1533.20872	1.19334
1531.28016	1.18457
1529.35159	1.17779
1527.42303	1.17185
1525.49446	1.16642
1523.56590	1.16194
1521.63733	1.15656
1519.70877	1.15042
1517.78021	1.14088
1515.85164	1.12609
1513.92308	1.11044
1511.99451	1.09465
1510.06595	1.07858
1508.13738	1.05403
1506.20882	1.01195
1504.28025	0.98870
1502.35169	0.97431
1500.42313	0.95830
1498.49456	0.93791
1496.56600	0.91300
1494.63743	0.89308
1492.70887	0.87972
1490.78030	0.86515
1488.85174	0.84638
1486.92317	0.83250
1484.99461	0.82484
1483.06605	0.82094
1481.13748	0.82026
1479.20892	0.82283
1477.28035	0.82956
1475.35179	0.84186
1473.42322	0.86249
1471.49466	0.88536
1469.56610	0.89868
1467.63753	0.90800
1465.70897	0.91943
1463.78040	0.93129
1461.85184	0.93807
1459.92327	0.94200
1457.99471	0.94950
1456.06614	0.95973
1454.13758	0.96265
1452.20902	0.96253
1450.28045	0.96170
1448.35189	0.95974
1446.42332	0.95653
1444.49476	0.95280
1442.56619	0.94840
1440.63763	0.94346
1438.70906	0.93745
1436.78050	0.92804
1434.85194	0.91734
1432.92337	0.90891
1430.99481	0.90112
1429.06624	0.89411
1427.13768	0.88968
1425.20911	0.88769
1423.28055	0.88779
1421.35198	0.88946
1419.42342	0.89250
1417.49486	0.89558
1415.56629	0.89684
1413.63773	0.89763
1411.70916	0.89895
1409.78060	0.90104
1407.85203	0.90403
1405.92347	0.90865
1403.99490	0.91448
1402.06634	0.91954
1400.13778	0.92447
1398.20921	0.92994
1396.28065	0.93524
1394.35208	0.94034
1392.42352	0.94499
1390.49495	0.94990
1388.56639	0.95745
1386.63782	0.96825
1384.70926	0.97863
1382.78070	0.98731
1380.85213	0.99361
1378.92357	0.99491
1376.99500	0.99025
1375.06644	0.97954
1373.13787	0.96445
1371.20931	0.94924
1369.28074	0.93309
1367.35218	0.91556
1365.42362	0.89943
1363.49505	0.88374
1361.56649	0.86882
1359.63792	0.85824
1357.70936	0.85109
1355.78079	0.84533
1353.85223	0.84051
1351.92366	0.83686
1349.99510	0.83429
1348.06654	0.83252
1346.13797	0.83142
1344.20941	0.83118
1342.28084	0.83196
1340.35228	0.83400
1338.42371	0.83758
1336.49515	0.84273
1334.56659	0.84961
1332.63802	0.85831
1330.70946	0.86844
1328.78089	0.87864
1326.85233	0.88739
1324.92376	0.89436
1322.99520	0.90034
1321.06663	0.90647
1319.13807	0.91346
1317.20951	0.92061
1315.28094	0.92689
1313.35238	0.93219
1311.42381	0.93646
1309.49525	0.93962
1307.56668	0.94162
1305.63812	0.94219
1303.70955	0.94159
1301.78099	0.94023
1299.85243	0.93750
1297.92386	0.93270
1295.99530	0.92672
1294.06673	0.92109
1292.13817	0.91644
1290.20960	0.91263
1288.28104	0.90905
1286.35247	0.90520
1284.42391	0.90120
1282.49535	0.89765
1280.56678	0.89485
1278.63822	0.89269
1276.70965	0.89130
1274.78109	0.89107
1272.85252	0.89242
1270.92396	0.89541
1268.99539	0.89968
1267.06683	0.90475
1265.13827	0.90992
1263.20970	0.91436
1261.28114	0.91796
1259.35257	0.92140
1257.42401	0.92490
1255.49544	0.92849
1253.56688	0.93271
1251.63831	0.93775
1249.70975	0.94321
1247.78119	0.94850
1245.85262	0.95326
1243.92406	0.95771
1241.99549	0.96191
1240.06693	0.96551
1238.13836	0.96840
1236.20980	0.97007
1234.28123	0.96995
1232.35267	0.96845
1230.42411	0.96586
1228.49554	0.96194
1226.56698	0.95671
1224.63841	0.95066
1222.70985	0.94436
1220.78128	0.93756
1218.85272	0.92968
1216.92415	0.92139
1214.99559	0.91408
1213.06703	0.90841
1211.13846	0.90392
1209.20990	0.89942
1207.28133	0.89366
1205.35277	0.88553
1203.42420	0.87465
1201.49564	0.86198
1199.56708	0.84887
1197.63851	0.83616
1195.70995	0.82453
1193.78138	0.81462
1191.85282	0.80657
1189.92425	0.80006
1187.99569	0.79540
1186.06712	0.79322
1184.13856	0.79324
1182.21000	0.79529
1180.28143	0.80026
1178.35287	0.80869
1176.42430	0.81997
1174.49574	0.83312
1172.56717	0.84749
1170.63861	0.86308
1168.71004	0.88015
1166.78148	0.89834
1164.85292	0.91630
1162.92435	0.93180
1160.99579	0.94259
1159.06722	0.94751
1157.13866	0.94665
1155.21009	0.94056
1153.28153	0.93004
1151.35296	0.91706
1149.42440	0.90391
1147.49584	0.89206
1145.56727	0.88236
1143.63871	0.87529
1141.71014	0.87097
1139.78158	0.86925
1137.85301	0.87014
1135.92445	0.87397
1133.99588	0.88053
1132.06732	0.88939
1130.13876	0.90085
1128.21019	0.91509
1126.28163	0.93111
1124.35306	0.94699
1122.42450	0.96044
1120.49593	0.97029
1118.56737	0.97738
1116.63880	0.98274
1114.71024	0.98598
1112.78168	0.98631
1110.85311	0.98438
1108.92455	0.98168
1106.99598	0.97924
1105.06742	0.97776
1103.13885	0.97758
1101.21029	0.97918
1099.28172	0.98307
1097.35316	0.98863
1095.42460	0.99575
1093.49603	1.00552
1091.56747	1.01809
1089.63890	1.03300
1087.71034	1.04942
1085.78177	1.06592
1083.85321	1.08135
1081.92464	1.09431
1079.99608	1.10336
1078.06752	1.10848
1076.13895	1.10925
1074.21039	1.10512
1072.28182	1.09772
1070.35326	1.08890
1068.42469	1.07882
1066.49613	1.06723
1064.56756	1.05561
1062.63900	1.04618
1060.71044	1.03811
1058.78187	1.02925
1056.85331	1.01969
1054.92474	1.01032
1052.99618	1.00153
1051.06761	0.99400
1049.13905	0.98800
1047.21049	0.98339
1045.28192	0.98120
1043.35336	0.98189
1041.42479	0.98388
1039.49623	0.98526
1037.56766	0.98562
1035.63910	0.98581
1033.71053	0.98529
1031.78197	0.98243
1029.85341	0.97754
1027.92484	0.97164
1025.99628	0.96417
1024.06771	0.95454
1022.13915	0.94420
1020.21058	0.93521
1018.28202	0.92784
1016.35345	0.92132
1014.42489	0.91493
1012.49633	0.90744
1010.56776	0.89750
1008.63920	0.88461
1006.71063	0.86948
1004.78207	0.85362
1002.85350	0.83891
1000.92494	0.82673
998.99637	0.81685
997.06781	0.80821
995.13925	0.80014
993.21068	0.79204
991.28212	0.78324
989.35355	0.77350
987.42499	0.76291
985.49642	0.75208
983.56786	0.74181
981.63929	0.73248
979.71073	0.72401
977.78217	0.71606
975.85360	0.70766
973.92504	0.69810
971.99647	0.68767
970.06791	0.67651
968.13934	0.66486
966.21078	0.65423
964.28221	0.64611
962.35365	0.64110
960.42509	0.64019
958.49652	0.64394
956.56796	0.64972
954.63939	0.65261
952.71083	0.65006
950.78226	0.64333
948.85370	0.63498
946.92513	0.62711
944.99657	0.62115
943.06801	0.61763
941.13944	0.61619
939.21088	0.61625
937.28231	0.61740
935.35375	0.61950
933.42518	0.62237
931.49662	0.62577
929.56805	0.62946
927.63949	0.63361
925.71093	0.63863
923.78236	0.64415
921.85380	0.64938
919.92523	0.65394
917.99667	0.65774
916.06810	0.66096
914.13954	0.66398
912.21098	0.66736
910.28241	0.67146
908.35385	0.67591
906.42528	0.68037
904.49672	0.68532
902.56815	0.69075
900.63959	0.69560
898.71102	0.69919
896.78246	0.70107
894.85390	0.70106
892.92533	0.69953
890.99677	0.69659
889.06820	0.69255
887.13964	0.68840
885.21107	0.68477
883.28251	0.68143
881.35394	0.67814
879.42538	0.67505
877.49682	0.67238
875.56825	0.67005
873.63969	0.66759
871.71112	0.66473
869.78256	0.66207
867.85399	0.66045
865.92543	0.65975
863.99686	0.65944
862.06830	0.65938
860.13974	0.65942
858.21117	0.65949
856.28261	0.66011
854.35404	0.66159
852.42548	0.66320
850.49691	0.66422
848.56835	0.66475
846.63978	0.66514
844.71122	0.66570
842.78266	0.66642
840.85409	0.66689
838.92553	0.66696
836.99696	0.66701
835.06840	0.66703
833.13983	0.66643
831.21127	0.66508
829.28270	0.66342
827.35414	0.66183
825.42558	0.66033
823.49701	0.65849
821.56845	0.65638
819.63988	0.65470
817.71132	0.65365
815.78275	0.65295
813.85419	0.65239
811.92562	0.65195
809.99706	0.65200
808.06850	0.65310
806.13993	0.65516
804.21137	0.65724
802.28280	0.65871
800.35424	0.66040
798.42567	0.66304
796.49711	0.66620
794.56854	0.66963
792.63998	0.67328
790.71142	0.67687
788.78285	0.68033
786.85429	0.68366
784.92572	0.68714
782.99716	0.69089
781.06859	0.69420
779.14003	0.69639
777.21147	0.69768
775.28290	0.69855
773.35434	0.69893
771.42577	0.69864
769.49721	0.69779
767.56864	0.69647
765.64008	0.69443
763.71151	0.69168
761.78295	0.68889
759.85439	0.68656
757.92582	0.68447
755.99726	0.68221
754.06869	0.67968
752.14013	0.67720
750.21156	0.67514
748.28300	0.67355
746.35443	0.67214
744.42587	0.67094
742.49731	0.67014
740.56874	0.66981
738.64018	0.67013
736.71161	0.67152
734.78305	0.67460
732.85448	0.67934
730.92592	0.68484
728.99735	0.69062
727.06879	0.69741
725.14023	0.70587
723.21166	0.71560
721.28310	0.72609
719.35453	0.73652
717.42597	0.74595
715.49740	0.75524
713.56884	0.76597
711.64027	0.77799
709.71171	0.79004
707.78315	0.80178
705.85458	0.81330
703.92602	0.82425
701.99745	0.83434
700.06889	0.84307
698.14032	0.85017
696.21176	0.85615
694.28319	0.86080
692.35463	0.86311
690.42607	0.86335
688.49750	0.86261
686.56894	0.86058
684.64037	0.85695
682.71181	0.85284
680.78324	0.84861
678.85468	0.84344
676.92611	0.83703
674.99755	0.82961
673.06899	0.82257
671.14042	0.81722
669.21186	0.81183
667.28329	0.80461
665.35473	0.79898
663.42616	0.79431
661.49760	0.78919
659.56903	0.78354
657.64047	0.77788
655.71191	0.77302
653.78334	0.76823
651.85478	0.76269
649.92621	0.75741
647.99765	0.75279
646.06908	0.74827
644.14052	0.74450
642.21195	0.74225
640.28339	0.74140
638.35483	0.74136
636.42626	0.74025
634.49770	0.73615
632.56913	0.72971
630.64057	0.72253
628.71200	0.71512
626.78344	0.70822
624.85488	0.70234
622.92631	0.69591
620.99775	0.68822
619.06918	0.68062
617.14062	0.67336
615.21205	0.66569
613.28349	0.65790
611.35492	0.65076
609.42636	0.64426
607.49780	0.63812
605.56923	0.63318
603.64067	0.62968
601.71210	0.62658
599.78354	0.62458
