3997.91406	1.37081
3995.98550	1.37517
3994.05693	1.38109
3992.12837	1.38220
3990.19980	1.37891
3988.27124	1.37632
3986.34268	1.37727
3984.41411	1.37937
3982.48555	1.38017
3980.55698	1.38039
3978.62842	1.37876
3976.69985	1.37521
3974.77129	1.37472
3972.84272	1.37714
3970.91416	1.37712
3968.98560	1.37546
3967.05703	1.37528
3965.12847	1.37511
3963.19990	1.37313
3961.27134	1.36915
3959.34277	1.36495
3957.41421	1.36453
3955.48564	1.36705
3953.55708	1.36689
3951.62852	1.36379
3949.69995	1.36102
3947.77139	1.35890
3945.84282	1.35735
3943.91426	1.35726
3941.98569	1.35818
3940.05713	1.35774
3938.12856	1.35505
3936.20000	1.35364
3934.27144	1.35580
3932.34287	1.35775
3930.41431	1.35623
3928.48574	1.35360
3926.55718	1.35363
3924.62861	1.35666
3922.70005	1.35664
3920.77148	1.35234
3918.84292	1.34879
3916.91436	1.34772
3914.98579	1.34708
3913.05723	1.34565
3911.12866	1.34456
3909.20010	1.34539
3907.27153	1.34809
3905.34297	1.35048
3903.41440	1.35160
3901.48584	1.35394
3899.55728	1.35378
3897.62871	1.35119
3895.70015	1.35126
3893.77158	1.35175
3891.84302	1.34918
3889.91445	1.34518
3887.98589	1.34088
3886.05733	1.33828
3884.12876	1.34163
3882.20020	1.34689
3880.27163	1.35023
3878.34307	1.35218
3876.41450	1.35208
3874.48594	1.34814
3872.55737	1.34155
3870.62881	1.33662
3868.70025	1.33621
3866.77168	1.33845
3864.84312	1.34017
3862.91455	1.33786
3860.98599	1.33439
3859.05742	1.33353
3857.12886	1.33400
3855.20029	1.33396
3853.27173	1.33031
3851.34317	1.32711
3849.41460	1.32699
3847.48604	1.32687
3845.55747	1.32630
3843.62891	1.32534
3841.70034	1.32535
3839.77178	1.32746
3837.84321	1.32784
3835.91465	1.32700
3833.98609	1.32718
3832.05752	1.32484
3830.12896	1.31875
3828.20039	1.31305
3826.27183	1.31288
3824.34326	1.31762
3822.41470	1.31991
3820.48613	1.31902
3818.55757	1.32258
3816.62901	1.32659
3814.70044	1.32537
3812.77188	1.32066
3810.84331	1.31608
3808.91475	1.31480
3806.98618	1.31684
3805.05762	1.31858
3803.12905	1.31860
3801.20049	1.31493
3799.27193	1.30975
3797.34336	1.30712
3795.41480	1.30834
3793.48623	1.31185
3791.55767	1.31338
3789.62910	1.31136
3787.70054	1.30944
3785.77197	1.31033
3783.84341	1.31142
3781.91485	1.31174
3779.98628	1.31234
3778.05772	1.31148
3776.12915	1.30981
3774.20059	1.30868
3772.27202	1.30694
3770.34346	1.30481
3768.41489	1.30317
3766.48633	1.30106
3764.55777	1.29978
3762.62920	1.29987
3760.70064	1.30007
3758.77207	1.30091
3756.84351	1.30276
3754.91494	1.30333
3752.98638	1.30112
3751.05781	1.29883
3749.12925	1.29962
3747.20069	1.30031
3745.27212	1.29806
3743.34356	1.29559
3741.41499	1.30011
3739.48643	1.30946
3737.55786	1.31718
3735.62930	1.31216
3733.70074	1.29755
3731.77217	1.29163
3729.84361	1.29409
3727.91504	1.29950
3725.98648	1.30361
3724.05791	1.30397
3722.12935	1.30063
3720.20078	1.29568
3718.27222	1.29413
3716.34366	1.29621
3714.41509	1.29741
3712.48653	1.29350
3710.55796	1.28630
3708.62940	1.28464
3706.70083	1.28638
3704.77227	1.28645
3702.84370	1.28441
3700.91514	1.28416
3698.98658	1.28746
3697.05801	1.29202
3695.12945	1.29462
3693.20088	1.29394
3691.27232	1.29143
3689.34375	1.29120
3687.41519	1.29566
3685.48662	1.29943
3683.55806	1.30097
3681.62950	1.30144
3679.70093	1.30127
3677.77237	1.30081
3675.84380	1.30437
3673.91524	1.31309
3671.98667	1.31764
3670.05811	1.31586
3668.12954	1.31458
3666.20098	1.31750
3664.27242	1.32082
3662.34385	1.32269
3660.41529	1.32438
3658.48672	1.32725
3656.55816	1.33077
3654.62959	1.33388
3652.70103	1.33907
3650.77246	1.34913
3648.84390	1.35620
3646.91534	1.35192
3644.98677	1.34734
3643.05821	1.34657
3641.12964	1.34943
3639.20108	1.35398
3637.27251	1.35886
3635.34395	1.36292
3633.41538	1.36389
3631.48682	1.36206
3629.55826	1.36430
3627.62969	1.37298
3625.70113	1.37866
3623.77256	1.38410
3621.84400	1.39232
3619.91543	1.40156
3617.98687	1.40656
3616.05830	1.40627
3614.12974	1.40356
3612.20118	1.40264
3610.27261	1.40689
3608.34405	1.41346
3606.41548	1.41834
3604.48692	1.42151
3602.55835	1.42378
3600.62979	1.42538
3598.70123	1.42788
3596.77266	1.43188
3594.84410	1.43649
3592.91553	1.44024
3590.98697	1.44037
3589.05840	1.43823
3587.12984	1.44178
3585.20127	1.45009
3583.27271	1.45450
3581.34415	1.45535
3579.41558	1.45779
3577.48702	1.46449
3575.55845	1.46990
3573.62989	1.46985
3571.70132	1.46962
3569.77276	1.47344
3567.84419	1.47888
3565.91563	1.48147
3563.98707	1.48414
3562.05850	1.49026
3560.12994	1.49685
3558.20137	1.49979
3556.27281	1.49996
3554.34424	1.50047
3552.41568	1.50250
3550.48711	1.50602
3548.55855	1.51106
3546.62999	1.51578
3544.70142	1.51864
3542.77286	1.52016
3540.84429	1.52022
3538.91573	1.52093
3536.98716	1.52419
3535.05860	1.52827
3533.13003	1.53102
3531.20147	1.53215
3529.27291	1.53504
3527.34434	1.54311
3525.41578	1.55008
3523.48721	1.55007
3521.55865	1.55122
3519.63008	1.55955
3517.70152	1.56749
3515.77295	1.57041
3513.84439	1.57392
3511.91583	1.57981
3509.98726	1.58342
3508.05870	1.58519
3506.13013	1.59168
3504.20157	1.60195
3502.27300	1.60651
3500.34444	1.60736
3498.41587	1.61160
3496.48731	1.61535
3494.55875	1.61661
3492.63018	1.61904
3490.70162	1.62227
3488.77305	1.62472
3486.84449	1.62729
3484.91592	1.63056
3482.98736	1.63481
3481.05879	1.63947
3479.13023	1.63967
3477.20167	1.63469
3475.27310	1.63168
3473.34454	1.63417
3471.41597	1.64005
3469.48741	1.64637
3467.55884	1.64913
3465.63028	1.64585
3463.70171	1.64007
3461.77315	1.63879
3459.84459	1.63998
3457.91602	1.63825
3455.98746	1.64038
3454.05889	1.64890
3452.13033	1.65379
3450.20176	1.65269
3448.27320	1.65267
3446.34464	1.65610
3444.41607	1.65915
3442.48751	1.65815
3440.55894	1.65334
3438.63038	1.64910
3436.70181	1.64774
3434.77325	1.64870
3432.84468	1.65226
3430.91612	1.65556
3428.98756	1.65300
3427.05899	1.64713
3425.13043	1.64766
3423.20186	1.65431
3421.27330	1.65559
3419.34473	1.65062
3417.41617	1.65034
3415.48760	1.65487
3413.55904	1.65577
3411.63048	1.65372
3409.70191	1.65364
3407.77335	1.65484
3405.84478	1.65745
3403.91622	1.66201
3401.98765	1.66524
3400.05909	1.66348
3398.13052	1.65930
3396.20196	1.65836
3394.27340	1.66007
3392.34483	1.65969
3390.41627	1.65481
3388.48770	1.65074
3386.55914	1.65280
3384.63057	1.65429
3382.70201	1.65085
3380.77344	1.65041
3378.84488	1.65497
3376.91632	1.65736
3374.98775	1.65558
3373.05919	1.65333
3371.13062	1.65112
3369.20206	1.64891
3367.27349	1.65105
3365.34493	1.65564
3363.41636	1.65367
3361.48780	1.64916
3359.55924	1.65082
3357.63067	1.65518
3355.70211	1.65736
3353.77354	1.65673
3351.84498	1.65444
3349.91641	1.65189
3347.98785	1.65067
3346.05928	1.65321
3344.13072	1.65857
3342.20216	1.66474
3340.27359	1.67026
3338.34503	1.67348
3336.41646	1.67394
3334.48790	1.67129
3332.55933	1.66872
3330.63077	1.66956
3328.70220	1.67106
3326.77364	1.67051
3324.84508	1.67068
3322.91651	1.67414
3320.98795	1.67840
3319.05938	1.68074
3317.13082	1.68158
3315.20225	1.68152
3313.27369	1.68020
3311.34513	1.67915
3309.41656	1.67983
3307.48800	1.68026
3305.55943	1.67896
3303.63087	1.67609
3301.70230	1.67509
3299.77374	1.67915
3297.84517	1.68245
3295.91661	1.68280
3293.98805	1.68595
3292.05948	1.68838
3290.13092	1.68477
3288.20235	1.68002
3286.27379	1.68009
3284.34522	1.68344
3282.41666	1.68459
3280.48809	1.68479
3278.55953	1.68578
3276.63097	1.68449
3274.70240	1.68164
3272.77384	1.67902
3270.84527	1.67743
3268.91671	1.67583
3266.98814	1.67430
3265.05958	1.67605
3263.13101	1.67646
3261.20245	1.67227
3259.27389	1.66845
3257.34532	1.66453
3255.41676	1.65891
3253.48819	1.65469
3251.55963	1.65227
3249.63106	1.64828
3247.70250	1.64255
3245.77393	1.63801
3243.84537	1.63437
3241.91681	1.63047
3239.98824	1.62702
3238.05968	1.62316
3236.13111	1.61860
3234.20255	1.61555
3232.27398	1.61367
3230.34542	1.61119
3228.41685	1.60897
3226.48829	1.60669
3224.55973	1.60414
3222.63116	1.60282
3220.70260	1.60179
3218.77403	1.59962
3216.84547	1.59591
3214.91690	1.58978
3212.98834	1.58302
3211.05977	1.57953
3209.13121	1.57967
3207.20265	1.58103
3205.27408	1.58176
3203.34552	1.57919
3201.41695	1.57319
3199.48839	1.56830
3197.55982	1.56580
3195.63126	1.56362
3193.70269	1.56145
3191.77413	1.55787
3189.84557	1.55194
3187.91700	1.54717
3185.98844	1.54571
3184.05987	1.54468
3182.13131	1.54262
3180.20274	1.54044
3178.27418	1.53736
3176.34562	1.53499
3174.41705	1.53539
3172.48849	1.53392
3170.55992	1.52766
3168.63136	1.52204
3166.70279	1.51982
3164.77423	1.51757
3162.84566	1.51418
3160.91710	1.51095
3158.98854	1.50803
3157.05997	1.50586
3155.13141	1.50442
3153.20284	1.50268
3151.27428	1.50063
3149.34571	1.49867
3147.41715	1.49660
3145.48858	1.49455
3143.56002	1.49280
3141.63146	1.49096
3139.70289	1.48860
3137.77433	1.48627
3135.84576	1.48469
3133.91720	1.48310
3131.98863	1.48114
3130.06007	1.47936
3128.13150	1.47817
3126.20294	1.48043
3124.27438	1.48677
3122.34581	1.49126
3120.41725	1.49140
3118.48868	1.48931
3116.56012	1.48627
3114.63155	1.48595
3112.70299	1.48802
3110.77442	1.48662
3108.84586	1.48276
3106.91730	1.48143
3104.98873	1.48329
3103.06017	1.48661
3101.13160	1.48814
3099.20304	1.48551
3097.27447	1.48105
3095.34591	1.47874
3093.41734	1.48044
3091.48878	1.48337
3089.56022	1.48251
3087.63165	1.47818
3085.70309	1.47456
3083.77452	1.47241
3081.84596	1.47076
3079.91739	1.46983
3077.98883	1.46851
3076.06026	1.46550
3074.13170	1.46210
3072.20314	1.46049
3070.27457	1.46049
3068.34601	1.45925
3066.41744	1.45649
3064.48888	1.45460
3062.56031	1.45179
3060.63175	1.44570
3058.70318	1.43972
3056.77462	1.43737
3054.84606	1.43702
3052.91749	1.43548
3050.98893	1.43155
3049.06036	1.42719
3047.13180	1.42645
3045.20323	1.42870
3043.27467	1.42858
3041.34610	1.42479
3039.41754	1.42132
3037.48898	1.41984
3035.56041	1.41781
3033.63185	1.41393
3031.70328	1.40962
3029.77472	1.40546
3027.84615	1.40122
3025.91759	1.39814
3023.98903	1.39698
3022.06046	1.39549
3020.13190	1.39308
3018.20333	1.39250
3016.27477	1.39274
3014.34620	1.39070
3012.41764	1.38892
3010.48907	1.38898
3008.56051	1.38709
3006.63195	1.38350
3004.70338	1.38179
3002.77482	1.38198
3000.84625	1.38181
2998.91769	1.38060
2996.98912	1.38063
2995.06056	1.38290
2993.13199	1.38441
2991.20343	1.38451
2989.27487	1.38740
2987.34630	1.39458
2985.41774	1.40202
2983.48917	1.40722
2981.56061	1.41127
2979.63204	1.41437
2977.70348	1.41619
2975.77491	1.41843
2973.84635	1.42267
2971.91779	1.42826
2969.98922	1.43408
2968.06066	1.43915
2966.13209	1.44238
2964.20353	1.44407
2962.27496	1.44553
2960.34640	1.44697
2958.41783	1.44673
2956.48927	1.44337
2954.56071	1.43769
2952.63214	1.43212
2950.70358	1.42904
2948.77501	1.42889
2946.84645	1.42967
2944.91788	1.43111
2942.98932	1.43542
2941.06075	1.44165
2939.13219	1.44755
2937.20363	1.45339
2935.27506	1.45896
2933.34650	1.46414
2931.41793	1.47039
2929.48937	1.47786
2927.56080	1.48399
2925.63224	1.48683
2923.70367	1.48907
2921.77511	1.49429
2919.84655	1.49976
2917.91798	1.49953
2915.98942	1.49169
2914.06085	1.47751
2912.13229	1.46067
2910.20372	1.44623
2908.27516	1.43601
2906.34659	1.42894
2904.41803	1.42359
2902.48947	1.41886
2900.56090	1.41396
2898.63234	1.40850
2896.70377	1.40388
2894.77521	1.40117
2892.84664	1.39939
2890.91808	1.39744
2888.98952	1.39436
2887.06095	1.38979
2885.13239	1.38540
2883.20382	1.38315
2881.27526	1.38320
2879.34669	1.38416
2877.41813	1.38443
2875.48956	1.38376
2873.56100	1.38218
2871.63244	1.37928
2869.70387	1.37512
2867.77531	1.36948
2865.84674	1.36312
2863.91818	1.35877
2861.98961	1.35768
2860.06105	1.35919
2858.13248	1.36361
2856.20392	1.37065
2854.27536	1.37756
2852.34679	1.38269
2850.41823	1.38461
2848.48966	1.37885
2846.56110	1.36477
2844.63253	1.34857
2842.70397	1.33499
2840.77540	1.32427
2838.84684	1.31597
2836.91828	1.30970
2834.98971	1.30415
2833.06115	1.29919
2831.13258	1.29523
2829.20402	1.29186
2827.27545	1.28971
2825.34689	1.28826
2823.41832	1.28545
2821.48976	1.28259
2819.56120	1.28042
2817.63263	1.27677
2815.70407	1.27281
2813.77550	1.27053
2811.84694	1.26859
2809.91837	1.26598
2807.98981	1.26307
2806.06124	1.26021
2804.13268	1.25757
2802.20412	1.25526
2800.27555	1.25319
2798.34699	1.25106
2796.41842	1.24915
2794.48986	1.24779
2792.56129	1.24651
2790.63273	1.24486
2788.70416	1.24332
2786.77560	1.24280
2784.84704	1.24252
2782.91847	1.24047
2780.98991	1.23766
2779.06134	1.23613
2777.13278	1.23489
2775.20421	1.23329
2773.27565	1.23207
2771.34708	1.23092
2769.41852	1.22982
2767.48996	1.22871
2765.56139	1.22690
2763.63283	1.22479
2761.70426	1.22337
2759.77570	1.22278
2757.84713	1.22205
2755.91857	1.22042
2753.99001	1.21794
2752.06144	1.21539
2750.13288	1.21390
2748.20431	1.21299
2746.27575	1.21164
2744.34718	1.21037
2742.41862	1.20957
2740.49005	1.20867
2738.56149	1.20714
2736.63293	1.20519
2734.70436	1.20359
2732.77580	1.20230
2730.84723	1.20131
2728.91867	1.20069
2726.99010	1.19922
2725.06154	1.19677
2723.13297	1.19533
2721.20441	1.19513
2719.27585	1.19421
2717.34728	1.19187
2715.41872	1.18956
2713.49015	1.18858
2711.56159	1.18833
2709.63302	1.18757
2707.70446	1.18671
2705.77589	1.18661
2703.84733	1.18686
2701.91877	1.18668
2699.99020	1.18565
2698.06164	1.18359
2696.13307	1.18114
2694.20451	1.17927
2692.27594	1.17787
2690.34738	1.17624
2688.41881	1.17438
2686.49025	1.17271
2684.56169	1.17107
2682.63312	1.16927
2680.70456	1.16765
2678.77599	1.16580
2676.84743	1.16328
2674.91886	1.16078
2672.99030	1.15869
2671.06173	1.15683
2669.13317	1.15494
2667.20461	1.15306
2665.27604	1.15187
2663.34748	1.15124
2661.41891	1.14985
2659.49035	1.14773
2657.56178	1.14609
2655.63322	1.14489
2653.70465	1.14373
2651.77609	1.14317
2649.84753	1.14306
2647.91896	1.14267
2645.99040	1.14194
2644.06183	1.14058
2642.13327	1.13847
2640.20470	1.13689
2638.27614	1.13670
2636.34757	1.13707
2634.41901	1.13710
2632.49045	1.13677
2630.56188	1.13639
2628.63332	1.13626
2626.70475	1.13637
2624.77619	1.13639
2622.84762	1.13652
2620.91906	1.13681
2618.99049	1.13642
2617.06193	1.13541
2615.13337	1.13481
2613.20480	1.13475
2611.27624	1.13450
2609.34767	1.13365
2607.41911	1.13244
2605.49054	1.13091
2603.56198	1.12905
2601.63342	1.12740
2599.70485	1.12631
2597.77629	1.12588
2595.84772	1.12587
2593.91916	1.12535
2591.99059	1.12420
2590.06203	1.12309
2588.13346	1.12173
2586.20490	1.11993
2584.27634	1.11834
2582.34777	1.11707
2580.41921	1.11586
2578.49064	1.11445
2576.56208	1.11255
2574.63351	1.11061
2572.70495	1.10930
2570.77638	1.10850
2568.84782	1.10742
2566.91926	1.10554
2564.99069	1.10361
2563.06213	1.10250
2561.13356	1.10171
2559.20500	1.10090
2557.27643	1.10056
2555.34787	1.10035
2553.41930	1.09983
2551.49074	1.09946
2549.56218	1.09882
2547.63361	1.09742
2545.70505	1.09589
2543.77648	1.09445
2541.84792	1.09300
2539.91935	1.09168
2537.99079	1.09051
2536.06222	1.08986
2534.13366	1.08995
2532.20510	1.08985
2530.27653	1.08870
2528.34797	1.08677
2526.41940	1.08493
2524.49084	1.08386
2522.56227	1.08318
2520.63371	1.08192
2518.70514	1.08001
2516.77658	1.07798
2514.84802	1.07607
2512.91945	1.07469
2510.99089	1.07401
2509.06232	1.07317
2507.13376	1.07145
2505.20519	1.06940
2503.27663	1.06778
2501.34806	1.06668
2499.41950	1.06562
2497.49094	1.06435
2495.56237	1.06327
2493.63381	1.06246
2491.70524	1.06174
2489.77668	1.06109
2487.84811	1.06012
2485.91955	1.05861
2483.99098	1.05685
2482.06242	1.05498
2480.13386	1.05305
2478.20529	1.05181
2476.27673	1.05178
2474.34816	1.05189
2472.41960	1.05115
2470.49103	1.04981
2468.56247	1.04821
2466.63391	1.04661
2464.70534	1.04529
2462.77678	1.04434
2460.84821	1.04344
2458.91965	1.04200
2456.99108	1.04006
2455.06252	1.03809
2453.13395	1.03635
2451.20539	1.03488
2449.27683	1.03347
2447.34826	1.03195
2445.41970	1.03022
2443.49113	1.02829
2441.56257	1.02660
2439.63400	1.02558
2437.70544	1.02488
2435.77687	1.02388
2433.84831	1.02264
2431.91975	1.02159
2429.99118	1.02060
2428.06262	1.01913
2426.13405	1.01760
2424.20549	1.01659
2422.27692	1.01548
2420.34836	1.01397
2418.41979	1.01269
2416.49123	1.01192
2414.56267	1.01144
2412.63410	1.01087
2410.70554	1.01006
2408.77697	1.00921
2406.84841	1.00818
2404.91984	1.00707
2402.99128	1.00628
2401.06271	1.00559
2399.13415	1.00469
2397.20559	1.00384
2395.27702	1.00301
2393.34846	1.00181
2391.41989	1.00034
2389.49133	0.99903
2387.56276	0.99822
2385.63420	0.99784
2383.70563	0.99733
2381.77707	0.99635
2379.84851	0.99533
2377.91994	0.99470
2375.99138	0.99443
2374.06281	0.99460
2372.13425	0.99467
2370.20568	0.99468
2368.27712	0.99708
2366.34855	1.00121
2364.41999	1.00219
2362.49143	0.99973
2360.56286	0.99805
2358.63430	0.99779
2356.70573	0.99606
2354.77717	0.99355
2352.84860	0.99101
2350.92004	0.98823
2348.99147	0.98656
2347.06291	0.98611
2345.13435	0.98564
2343.20578	0.98453
2341.27722	0.98322
2339.34865	0.98185
2337.42009	0.98121
2335.49152	0.98139
2333.56296	0.98060
2331.63440	0.97777
2329.70583	0.97448
2327.77727	0.97257
2325.84870	0.97166
2323.92014	0.97018
2321.99157	0.96826
2320.06301	0.96689
2318.13444	0.96553
2316.20588	0.96367
2314.27732	0.96172
2312.34875	0.96016
2310.42019	0.95911
2308.49162	0.95783
2306.56306	0.95619
2304.63449	0.95439
2302.70593	0.95213
2300.77736	0.95000
2298.84880	0.94875
2296.92024	0.94768
2294.99167	0.94631
2293.06311	0.94492
2291.13454	0.94348
2289.20598	0.94196
2287.27741	0.94079
2285.34885	0.94005
2283.42028	0.93920
2281.49172	0.93792
2279.56316	0.93648
2277.63459	0.93527
2275.70603	0.93421
2273.77746	0.93303
2271.84890	0.93188
2269.92033	0.93088
2267.99177	0.92993
2266.06320	0.92906
2264.13464	0.92828
2262.20608	0.92741
2260.27751	0.92648
2258.34895	0.92560
2256.42038	0.92467
2254.49182	0.92351
2252.56325	0.92220
2250.63469	0.92095
2248.70612	0.91971
2246.77756	0.91858
2244.84900	0.91780
2242.92043	0.91718
2240.99187	0.91637
2239.06330	0.91537
2237.13474	0.91412
2235.20617	0.91271
2233.27761	0.91150
2231.34904	0.91058
2229.42048	0.90976
2227.49192	0.90900
2225.56335	0.90826
2223.63479	0.90758
2221.70622	0.90686
2219.77766	0.90595
2217.84909	0.90498
2215.92053	0.90413
2213.99196	0.90346
2212.06340	0.90282
2210.13484	0.90208
2208.20627	0.90151
2206.27771	0.90114
2204.34914	0.90039
2202.42058	0.89917
2200.49201	0.89786
2198.56345	0.89660
2196.63488	0.89554
2194.70632	0.89488
2192.77776	0.89416
2190.84919	0.89307
2188.92063	0.89195
2186.99206	0.89105
2185.06350	0.89032
2183.13493	0.88937
2181.20637	0.88784
2179.27781	0.88624
2177.34924	0.88500
2175.42068	0.88386
2173.49211	0.88280
2171.56355	0.88196
2169.63498	0.88104
2167.70642	0.87998
2165.77785	0.87924
2163.84929	0.87878
2161.92073	0.87813
2159.99216	0.87750
2158.06360	0.87715
2156.13503	0.87656
2154.20647	0.87550
2152.27790	0.87443
2150.34934	0.87392
2148.42077	0.87407
2146.49221	0.87424
2144.56365	0.87420
2142.63508	0.87432
2140.70652	0.87448
2138.77795	0.87450
2136.84939	0.87445
2134.92082	0.87418
2132.99226	0.87346
2131.06369	0.87260
2129.13513	0.87200
2127.20657	0.87145
2125.27800	0.87068
2123.34944	0.86982
2121.42087	0.86900
2119.49231	0.86816
2117.56374	0.86698
2115.63518	0.86539
2113.70661	0.86358
2111.77805	0.86158
2109.84949	0.85960
2107.92092	0.85793
2105.99236	0.85657
2104.06379	0.85528
2102.13523	0.85356
2100.20666	0.85132
2098.27810	0.84908
2096.34953	0.84713
2094.42097	0.84540
2092.49241	0.84387
2090.56384	0.84246
2088.63528	0.84091
2086.70671	0.83944
2084.77815	0.83855
2082.84958	0.83790
2080.92102	0.83697
2078.99245	0.83584
2077.06389	0.83484
2075.13533	0.83412
2073.20676	0.83367
2071.27820	0.83337
2069.34963	0.83287
2067.42107	0.83201
2065.49250	0.83116
2063.56394	0.83047
2061.63537	0.82965
2059.70681	0.82869
2057.77825	0.82786
2055.84968	0.82736
2053.92112	0.82693
2051.99255	0.82630
2050.06399	0.82541
2048.13542	0.82431
2046.20686	0.82312
2044.27830	0.82188
2042.34973	0.82065
2040.42117	0.81953
2038.49260	0.81842
2036.56404	0.81722
2034.63547	0.81592
2032.70691	0.81469
2030.77834	0.81363
2028.84978	0.81252
2026.92122	0.81115
2024.99265	0.80956
2023.06409	0.80777
2021.13552	0.80586
2019.20696	0.80408
2017.27839	0.80266
2015.34983	0.80149
2013.42126	0.80019
2011.49270	0.79867
2009.56414	0.79734
2007.63557	0.79626
2005.70701	0.79500
2003.77844	0.79365
2001.84988	0.79255
1999.92131	0.79173
1997.99275	0.79100
1996.06418	0.79023
1994.13562	0.78962
1992.20706	0.78910
1990.27849	0.78817
1988.34993	0.78717
1986.42136	0.78661
1984.49280	0.78623
1982.56423	0.78577
1980.63567	0.78517
1978.70710	0.78438
1976.77854	0.78350
1974.84998	0.78256
1972.92141	0.78153
1970.99285	0.78047
1969.06428	0.77955
1967.13572	0.77874
1965.20715	0.77776
1963.27859	0.77647
1961.35002	0.77496
1959.42146	0.77345
1957.49290	0.77220
1955.56433	0.77110
1953.63577	0.76997
1951.70720	0.76885
1949.77864	0.76786
1947.85007	0.76708
1945.92151	0.76659
1943.99294	0.76646
1942.06438	0.76623
1940.13582	0.76543
1938.20725	0.76461
1936.27869	0.76415
1934.35012	0.76393
1932.42156	0.76366
1930.49299	0.76325
1928.56443	0.76297
1926.63586	0.76305
1924.70730	0.76354
1922.77874	0.76399
1920.85017	0.76374
1918.92161	0.76328
1916.99304	0.76306
1915.06448	0.76255
1913.13591	0.76179
1911.20735	0.76108
1909.27878	0.76013
1907.35022	0.75879
1905.42166	0.75741
1903.49309	0.75613
1901.56453	0.75474
1899.63596	0.75323
1897.70740	0.75183
1895.77883	0.75064
1893.85027	0.74943
1891.92171	0.74803
1889.99314	0.74647
1888.06458	0.74472
1886.13601	0.74292
1884.20745	0.74124
1882.27888	0.73977
1880.35032	0.73841
1878.42175	0.73699
1876.49319	0.73557
1874.56463	0.73447
1872.63606	0.73393
1870.70750	0.73417
1868.77893	0.73493
1866.85037	0.73485
1864.92180	0.73392
1862.99324	0.73320
1861.06467	0.73309
1859.13611	0.73352
1857.20755	0.73408
1855.27898	0.73456
1853.35042	0.73501
1851.42185	0.73546
1849.49329	0.73609
1847.56472	0.73677
1845.63616	0.73748
1843.70759	0.73826
1841.77903	0.73817
1839.85047	0.73739
1837.92190	0.73673
1835.99334	0.73636
1834.06477	0.73605
1832.13621	0.73587
1830.20764	0.73586
1828.27908	0.73530
1826.35051	0.73428
1824.42195	0.73331
1822.49339	0.73213
1820.56482	0.73081
1818.63626	0.72980
1816.70769	0.72895
1814.77913	0.72802
1812.85056	0.72734
1810.92200	0.72711
1808.99343	0.72669
1807.06487	0.72571
1805.13631	0.72478
1803.20774	0.72436
1801.27918	0.72441
1799.35061	0.72436
1797.42205	0.72388
1795.49348	0.72337
1793.56492	0.72350
1791.63635	0.72439
1789.70779	0.72430
1787.77923	0.72352
1785.85066	0.72336
1783.92210	0.72385
1781.99353	0.72465
1780.06497	0.72566
1778.13640	0.72624
1776.20784	0.72624
1774.27927	0.72659
1772.35071	0.72801
1770.42215	0.72878
1768.49358	0.72833
1766.56502	0.72789
1764.63645	0.72811
1762.70789	0.72943
1760.77932	0.73105
1758.85076	0.73209
1756.92220	0.73397
1754.99363	0.73644
1753.06507	0.73895
1751.13650	0.74360
1749.20794	0.75063
1747.27937	0.75651
1745.35081	0.76126
1743.42224	0.76610
1741.49368	0.77094
1739.56512	0.77514
1737.63655	0.77752
1735.70799	0.77976
1733.77942	0.78560
1731.85086	0.79099
1729.92229	0.79392
1727.99373	0.79709
1726.06516	0.80106
1724.13660	0.80662
1722.20804	0.81244
1720.27947	0.81790
1718.35091	0.82738
1716.42234	0.84259
1714.49378	0.85351
1712.56521	0.86165
1710.63665	0.87162
1708.70808	0.88442
1706.77952	0.90359
1704.85096	0.92837
1702.92239	0.95021
1700.99383	0.98020
1699.06526	1.02588
1697.13670	1.06590
1695.20813	1.10322
1693.27957	1.13033
1691.35100	1.15121
1689.42244	1.17608
1687.49388	1.19863
1685.56531	1.22139
1683.63675	1.25678
1681.70818	1.28136
1679.77962	1.29447
1677.85105	1.30676
1675.92249	1.32146
1673.99392	1.33745
1672.06536	1.35106
1670.13680	1.36619
1668.20823	1.38026
1666.27967	1.38667
1664.35110	1.39208
1662.42254	1.39978
1660.49397	1.40510
1658.56541	1.40734
1656.63684	1.40860
1654.70828	1.41052
1652.77972	1.41120
1650.85115	1.40765
1648.92259	1.40390
1646.99402	1.40084
1645.06546	1.39875
1643.13689	1.39597
1641.20833	1.39246
1639.27976	1.38877
1637.35120	1.38623
1635.42264	1.38329
1633.49407	1.37830
1631.56551	1.37362
1629.63694	1.36798
1627.70838	1.36084
1625.77981	1.35312
1623.85125	1.34339
1621.92269	1.33109
1619.99412	1.32037
1618.06556	1.30819
1616.13699	1.28801
1614.20843	1.26854
1612.27986	1.25236
1610.35130	1.23536
1608.42273	1.21868
1606.49417	1.20530
1604.56561	1.19539
1602.63704	1.18761
1600.70848	1.18172
1598.77991	1.17784
1596.85135	1.17544
1594.92278	1.17391
1592.99422	1.17333
1591.06565	1.17439
1589.13709	1.17763
1587.20853	1.18315
1585.27996	1.19095
1583.35140	1.20074
1581.42283	1.21063
1579.49427	1.21945
1577.56570	1.23141
1575.63714	1.24979
1573.70857	1.26196
1571.78001	1.26867
1569.85145	1.27865
1567.92288	1.29033
1565.99432	1.29965
1564.06575	1.30846
1562.13719	1.31546
1560.20862	1.32350
1558.28006	1.33772
1556.35149	1.34240
1554.42293	1.34236
1552.49437	1.34243
1550.56580	1.34304
1548.63724	1.34366
1546.70867	1.34392
1544.78011	1.34414
1542.85154	1.34475
1540.92298	1.34417
1538.99441	1.33794
1537.06585	1.33187
1535.13729	1.32697
1533.20872	1.32235
1531.28016	1.31854
1529.35159	1.31564
1527.42303	1.31293
1525.49446	1.30997
1523.56590	1.30840
1521.63733	1.30857
1519.70877	1.30814
1517.78021	1.30550
1515.85164	1.29999
1513.92308	1.29191
1511.99451	1.28228
1510.06595	1.27237
1508.13738	1.25783
1506.20882	1.23269
1504.28025	1.21727
1502.35169	1.20670
1500.42313	1.19429
1498.49456	1.17855
1496.56600	1.15981
1494.63743	1.14387
1492.70887	1.13267
1490.78030	1.12155
1488.85174	1.10689
1486.92317	1.09335
1484.99461	1.08402
1483.06605	1.07799
1481.13748	1.07456
1479.20892	1.07350
1477.28035	1.07524
1475.35179	1.08092
1473.42322	1.09192
1471.49466	1.10302
1469.56610	1.10843
1467.63753	1.11224
1465.70897	1.11784
1463.78040	1.12390
1461.85184	1.12712
1459.92327	1.12912
1457.99471	1.13404
1456.06614	1.13958
1454.13758	1.13956
1452.20902	1.13824
1450.28045	1.13720
1448.35189	1.13576
1446.42332	1.13355
1444.49476	1.13096
1442.56619	1.12736
1440.63763	1.12269
1438.70906	1.11777
1436.78050	1.11224
1434.85194	1.10590
1432.92337	1.09952
1430.99481	1.09252
1429.06624	1.08543
1427.13768	1.08038
1425.20911	1.07778
1423.28055	1.07675
1421.35198	1.07691
1419.42342	1.07923
1417.49486	1.08179
1415.56629	1.08160
1413.63773	1.08039
1411.70916	1.07920
1409.78060	1.07811
1407.85203	1.07759
1405.92347	1.07811
1403.99490	1.07862
1402.06634	1.07844
1400.13778	1.07925
1398.20921	1.08146
1396.28065	1.08344
1394.35208	1.08500
1392.42352	1.08690
1390.49495	1.09013
1388.56639	1.09690
1386.63782	1.10751
1384.70926	1.11759
1382.78070	1.12589
1380.85213	1.13263
1378.92357	1.13603
1376.99500	1.13485
1375.06644	1.12845
1373.13787	1.11743
1371.20931	1.10497
1369.28074	1.09137
1367.35218	1.07698
1365.42362	1.06415
1363.49505	1.05231
1361.56649	1.04165
1359.63792	1.03433
1357.70936	1.02995
1355.78079	1.02760
1353.85223	1.02657
1351.92366	1.02595
1349.99510	1.02577
1348.06654	1.02657
1346.13797	1.02823
1344.20941	1.03011
1342.28084	1.03236
1340.35228	1.03596
1338.42371	1.04063
1336.49515	1.04552
1334.56659	1.05158
1332.63802	1.05928
1330.70946	1.06706
1328.78089	1.07316
1326.85233	1.07747
1324.92376	1.08040
1322.99520	1.08229
1321.06663	1.08382
1319.13807	1.08540
1317.20951	1.08718
1315.28094	1.08925
1313.35238	1.09117
1311.42381	1.09218
1309.49525	1.09228
1307.56668	1.09172
1305.63812	1.09073
1303.70955	1.08997
1301.78099	1.08968
1299.85243	1.08919
1297.92386	1.08799
1295.99530	1.08684
1294.06673	1.08676
1292.13817	1.08812
1290.20960	1.09067
1288.28104	1.09344
1286.35247	1.09600
1284.42391	1.09847
1282.49535	1.10080
1280.56678	1.10299
1278.63822	1.10552
1276.70965	1.10900
1274.78109	1.11344
1272.85252	1.11852
1270.92396	1.12407
1268.99539	1.12950
1267.06683	1.13420
1265.13827	1.13789
1263.20970	1.14007
1261.28114	1.14062
1259.35257	1.14047
1257.42401	1.14041
1255.49544	1.14031
1253.56688	1.13999
1251.63831	1.13986
1249.70975	1.14003
1247.78119	1.13977
1245.85262	1.13904
1243.92406	1.13877
1241.99549	1.13908
1240.06693	1.13898
1238.13836	1.13756
1236.20980	1.13477
1234.28123	1.13129
1232.35267	1.12771
1230.42411	1.12388
1228.49554	1.11944
1226.56698	1.11447
1224.63841	1.10915
1222.70985	1.10359
1220.78128	1.09778
1218.85272	1.09235
1216.92415	1.08840
1214.99559	1.08625
1213.06703	1.08563
1211.13846	1.08620
1209.20990	1.08713
1207.28133	1.08691
1205.35277	1.08399
1203.42420	1.07797
1201.49564	1.07009
1199.56708	1.06166
1197.63851	1.05312
1195.70995	1.04513
1193.78138	1.03835
1191.85282	1.03296
1189.92425	1.02914
1187.99569	1.02693
1186.06712	1.02620
1184.13856	1.02677
1182.21000	1.02885
1180.28143	1.03320
1178.35287	1.03971
1176.42430	1.04728
1174.49574	1.05552
1172.56717	1.06469
1170.63861	1.07485
1168.71004	1.08623
1166.78148	1.09914
1164.85292	1.11254
1162.92435	1.12379
1160.99579	1.13081
1159.06722	1.13280
1157.13866	1.12967
1155.21009	1.12216
1153.28153	1.11118
1151.35296	1.09773
1149.42440	1.08359
1147.49584	1.07053
1145.56727	1.05969
1143.63871	1.05224
1141.71014	1.04913
1139.78158	1.04950
1137.85301	1.05216
1135.92445	1.05731
1133.99588	1.06486
1132.06732	1.07513
1130.13876	1.08917
1128.21019	1.10561
1126.28163	1.12129
1124.35306	1.13439
1122.42450	1.14499
1120.49593	1.15378
1118.56737	1.15963
1116.63880	1.16024
1114.71024	1.15543
1112.78168	1.14783
1110.85311	1.14034
1108.92455	1.13410
1106.99598	1.12847
1105.06742	1.12369
1103.13885	1.12141
1101.21029	1.12208
1099.28172	1.12507
1097.35316	1.13037
1095.42460	1.13828
1093.49603	1.14864
1091.56747	1.16070
1089.63890	1.17403
1087.71034	1.18802
1085.78177	1.20120
1083.85321	1.21286
1081.92464	1.22309
1079.99608	1.23114
1078.06752	1.23545
1076.13895	1.23539
1074.21039	1.23144
1072.28182	1.22376
1070.35326	1.21391
1068.42469	1.20483
1066.49613	1.19712
1064.56756	1.18840
1062.63900	1.17785
1060.71044	1.16770
1058.78187	1.15877
1056.85331	1.15014
1054.92474	1.14224
1052.99618	1.13598
1051.06761	1.13202
1049.13905	1.13069
1047.21049	1.13182
1045.28192	1.13543
1043.35336	1.14117
1041.42479	1.14774
1039.49623	1.15361
1037.56766	1.15808
1035.63910	1.16138
1033.71053	1.16300
1031.78197	1.16194
1029.85341	1.15827
1027.92484	1.15284
1025.99628	1.14617
1024.06771	1.13826
1022.13915	1.13004
1020.21058	1.12357
1018.28202	1.11899
1016.35345	1.11443
1014.42489	1.10845
1012.49633	1.09958
1010.56776	1.08728
1008.63920	1.07294
1006.71063	1.05874
1004.78207	1.04645
1002.85350	1.03612
1000.92494	1.02721
998.99637	1.02027
997.06781	1.01513
995.13925	1.01093
993.21068	1.00719
991.28212	1.00295
989.35355	0.99782
987.42499	0.99276
985.49642	0.98877
983.56786	0.98635
981.63929	0.98533
979.71073	0.98516
977.78217	0.98526
975.85360	0.98454
973.92504	0.98192
971.99647	0.97708
970.06791	0.97011
968.13934	0.96185
966.21078	0.95398
964.28221	0.94828
962.35365	0.94640
960.42509	0.94990
958.49652	0.95859
956.56796	0.96889
954.63939	0.97567
952.71083	0.97615
950.78226	0.97118
948.85370	0.96348
946.92513	0.95605
944.99657	0.95072
943.06801	0.94751
941.13944	0.94575
939.21088	0.94506
937.28231	0.94524
935.35375	0.94574
933.42518	0.94606
931.49662	0.94681
929.56805	0.94854
927.63949	0.95073
925.71093	0.95307
923.78236	0.95556
921.85380	0.95776
919.92523	0.95913
917.99667	0.95913
916.06810	0.95771
914.13954	0.95580
912.21098	0.95434
910.28241	0.95378
908.35385	0.95434
906.42528	0.95578
904.49672	0.95760
902.56815	0.95938
900.63959	0.96069
898.71102	0.96129
896.78246	0.96124
894.85390	0.96038
892.92533	0.95833
890.99677	0.95493
889.06820	0.95053
887.13964	0.94620
885.21107	0.94316
883.28251	0.94154
881.35394	0.94047
879.42538	0.93938
877.49682	0.93862
875.56825	0.93879
873.63969	0.93991
871.71112	0.94096
869.78256	0.94154
867.85399	0.94236
865.92543	0.94372
863.99686	0.94553
862.06830	0.94758
860.13974	0.94974
858.21117	0.95221
856.28261	0.95501
854.35404	0.95779
852.42548	0.95990
850.49691	0.96082
848.56835	0.96072
846.63978	0.96037
844.71122	0.96039
842.78266	0.96049
840.85409	0.96002
838.92553	0.95944
836.99696	0.95970
835.06840	0.96024
833.13983	0.96042
831.21127	0.96108
829.28270	0.96257
827.35414	0.96350
825.42558	0.96299
823.49701	0.96185
821.56845	0.96106
819.63988	0.96064
817.71132	0.96040
815.78275	0.96048
813.85419	0.96067
811.92562	0.96062
809.99706	0.96057
808.06850	0.96088
806.13993	0.96119
804.21137	0.96147
802.28280	0.96259
800.35424	0.96462
798.42567	0.96668
796.49711	0.96861
794.56854	0.97089
792.63998	0.97328
790.71142	0.97539
788.78285	0.97772
786.85429	0.98028
784.92572	0.98229
782.99716	0.98375
781.06859	0.98488
779.14003	0.98527
777.21147	0.98494
775.28290	0.98382
773.35434	0.98197
771.42577	0.98022
769.49721	0.97855
767.56864	0.97578
765.64008	0.97190
763.71151	0.96819
761.78295	0.96470
759.85439	0.96080
757.92582	0.95726
755.99726	0.95471
754.06869	0.95223
752.14013	0.94938
750.21156	0.94683
748.28300	0.94467
746.35443	0.94262
744.42587	0.94115
742.49731	0.94047
740.56874	0.94052
738.64018	0.94183
736.71161	0.94421
734.78305	0.94666
732.85448	0.94932
730.92592	0.95369
728.99735	0.96030
727.06879	0.96806
725.14023	0.97597
723.21166	0.98395
721.28310	0.99184
719.35453	0.99854
717.42597	1.00438
715.49740	1.01115
713.56884	1.01859
711.64027	1.02516
709.71171	1.03113
707.78315	1.03760
705.85458	1.04417
703.92602	1.04912
701.99745	1.05171
700.06889	1.05247
698.14032	1.05147
696.21176	1.04840
694.28319	1.04419
692.35463	1.04063
690.42607	1.03772
688.49750	1.03334
686.56894	1.02706
684.64037	1.02099
682.71181	1.01487
680.78324	1.00652
678.85468	0.99671
676.92611	0.98838
674.99755	0.98273
673.06899	0.97855
671.14042	0.97441
669.21186	0.96945
667.28329	0.96553
665.35473	0.96459
663.42616	0.96415
661.49760	0.96360
659.56903	0.96365
657.64047	0.96449
655.71191	0.96570
653.78334	0.96707
651.85478	0.96831
649.92621	0.97007
647.99765	0.97417
646.06908	0.97986
644.14052	0.98466
642.21195	0.98995
640.28339	0.99800
638.35483	1.00574
636.42626	1.01010
634.49770	1.01279
632.56913	1.01416
630.64057	1.01220
628.71200	1.00774
626.78344	1.00292
624.85488	0.99858
622.92631	0.99517
620.99775	0.99180
619.06918	0.98746
617.14062	0.98218
615.21205	0.97575
613.28349	0.96864
611.35492	0.96186
609.42636	0.95530
607.49780	0.94885
605.56923	0.94266
603.64067	0.93626
601.71210	0.93013
599.78354	0.92660
