3997.91406	1.22293
3995.98550	1.22167
3994.05693	1.22181
3992.12837	1.22405
3990.19980	1.22580
3988.27124	1.22314
3986.34268	1.21715
3984.41411	1.21358
3982.48555	1.21450
3980.55698	1.21485
3978.62842	1.21234
3976.69985	1.21099
3974.77129	1.21254
3972.84272	1.21458
3970.91416	1.21547
3968.98560	1.21574
3967.05703	1.21561
3965.12847	1.21496
3963.19990	1.21432
3961.27134	1.21446
3959.34277	1.21603
3957.41421	1.21741
3955.48564	1.21685
3953.55708	1.21573
3951.62852	1.21560
3949.69995	1.21666
3947.77139	1.21803
3945.84282	1.21784
3943.91426	1.21672
3941.98569	1.21705
3940.05713	1.21792
3938.12856	1.21756
3936.20000	1.21720
3934.27144	1.21849
3932.34287	1.22090
3930.41431	1.22146
3928.48574	1.21885
3926.55718	1.21493
3924.62861	1.21175
3922.70005	1.21002
3920.77148	1.20964
3918.84292	1.21030
3916.91436	1.21068
3914.98579	1.21068
3913.05723	1.21044
3911.12866	1.20867
3909.20010	1.20609
3907.27153	1.20491
3905.34297	1.20618
3903.41440	1.20892
3901.48584	1.21010
3899.55728	1.20982
3897.62871	1.20797
3895.70015	1.20392
3893.77158	1.20098
3891.84302	1.20212
3889.91445	1.20280
3887.98589	1.20162
3886.05733	1.20189
3884.12876	1.20093
3882.20020	1.19728
3880.27163	1.19579
3878.34307	1.19558
3876.41450	1.19441
3874.48594	1.19642
3872.55737	1.20252
3870.62881	1.20658
3868.70025	1.20502
3866.77168	1.20091
3864.84312	1.19926
3862.91455	1.20179
3860.98599	1.20323
3859.05742	1.20267
3857.12886	1.20365
3855.20029	1.21051
3853.27173	1.22062
3851.34317	1.21538
3849.41460	1.20547
3847.48604	1.20012
3845.55747	1.19965
3843.62891	1.20070
3841.70034	1.19876
3839.77178	1.19466
3837.84321	1.19347
3835.91465	1.19404
3833.98609	1.19329
3832.05752	1.19303
3830.12896	1.19380
3828.20039	1.19485
3826.27183	1.19560
3824.34326	1.19459
3822.41470	1.19374
3820.48613	1.19300
3818.55757	1.18896
3816.62901	1.18806
3814.70044	1.19017
3812.77188	1.18848
3810.84331	1.18658
3808.91475	1.18894
3806.98618	1.19326
3805.05762	1.19335
3803.12905	1.19202
3801.20049	1.19223
3799.27193	1.19127
3797.34336	1.19077
3795.41480	1.19075
3793.48623	1.18940
3791.55767	1.18733
3789.62910	1.18467
3787.70054	1.18319
3785.77197	1.18516
3783.84341	1.18760
3781.91485	1.18730
3779.98628	1.18644
3778.05772	1.18678
3776.12915	1.18616
3774.20059	1.18285
3772.27202	1.17826
3770.34346	1.17645
3768.41489	1.17931
3766.48633	1.18274
3764.55777	1.18258
3762.62920	1.17987
3760.70064	1.18061
3758.77207	1.18537
3756.84351	1.18488
3754.91494	1.17981
3752.98638	1.17861
3751.05781	1.18556
3749.12925	1.18916
3747.20069	1.18571
3745.27212	1.18292
3743.34356	1.18399
3741.41499	1.18511
3739.48643	1.18537
3737.55786	1.18806
3735.62930	1.19236
3733.70074	1.19148
3731.77217	1.18874
3729.84361	1.18561
3727.91504	1.18119
3725.98648	1.17813
3724.05791	1.17887
3722.12935	1.18180
3720.20078	1.18391
3718.27222	1.18325
3716.34366	1.18062
3714.41509	1.17843
3712.48653	1.17993
3710.55796	1.18602
3708.62940	1.18877
3706.70083	1.18605
3704.77227	1.18198
3702.84370	1.17997
3700.91514	1.17911
3698.98658	1.17764
3697.05801	1.17742
3695.12945	1.17837
3693.20088	1.18010
3691.27232	1.18472
3689.34375	1.19086
3687.41519	1.19124
3685.48662	1.18762
3683.55806	1.18488
3681.62950	1.18481
3679.70093	1.18543
3677.77237	1.18638
3675.84380	1.19370
3673.91524	1.20137
3671.98667	1.20425
3670.05811	1.21000
3668.12954	1.21367
3666.20098	1.21335
3664.27242	1.21461
3662.34385	1.21771
3660.41529	1.22038
3658.48672	1.22214
3656.55816	1.22509
3654.62959	1.22905
3652.70103	1.23365
3650.77246	1.24331
3648.84390	1.25471
3646.91534	1.25606
3644.98677	1.25697
3643.05821	1.26050
3641.12964	1.26344
3639.20108	1.26416
3637.27251	1.26518
3635.34395	1.26909
3633.41538	1.27451
3631.48682	1.27787
3629.55826	1.28093
3627.62969	1.28702
3625.70113	1.29352
3623.77256	1.30021
3621.84400	1.30622
3619.91543	1.31249
3617.98687	1.31849
3616.05830	1.31958
3614.12974	1.31924
3612.20118	1.32232
3610.27261	1.32828
3608.34405	1.33380
3606.41548	1.33524
3604.48692	1.33658
3602.55835	1.34358
3600.62979	1.35416
3598.70123	1.36094
3596.77266	1.36179
3594.84410	1.36156
3592.91553	1.36541
3590.98697	1.37107
3589.05840	1.37699
3587.12984	1.38383
3585.20127	1.38861
3583.27271	1.39248
3581.34415	1.39587
3579.41558	1.39680
3577.48702	1.39787
3575.55845	1.40237
3573.62989	1.40846
3571.70132	1.41342
3569.77276	1.41763
3567.84419	1.42468
3565.91563	1.43393
3563.98707	1.43868
3562.05850	1.44019
3560.12994	1.44154
3558.20137	1.44558
3556.27281	1.45302
3554.34424	1.46162
3552.41568	1.46956
3550.48711	1.47484
3548.55855	1.47896
3546.62999	1.48725
3544.70142	1.49781
3542.77286	1.50347
3540.84429	1.50546
3538.91573	1.50686
3536.98716	1.50786
3535.05860	1.50974
3533.13003	1.51528
3531.20147	1.52419
3529.27291	1.53277
3527.34434	1.53919
3525.41578	1.54634
3523.48721	1.55411
3521.55865	1.55733
3519.63008	1.55741
3517.70152	1.55952
3515.77295	1.56337
3513.84439	1.56885
3511.91583	1.57705
3509.98726	1.58549
3508.05870	1.59057
3506.13013	1.59215
3504.20157	1.59545
3502.27300	1.60417
3500.34444	1.61357
3498.41587	1.62082
3496.48731	1.62578
3494.55875	1.62770
3492.63018	1.63226
3490.70162	1.64160
3488.77305	1.64814
3486.84449	1.65134
3484.91592	1.65658
3482.98736	1.66212
3481.05879	1.66577
3479.13023	1.66955
3477.20167	1.67364
3475.27310	1.67610
3473.34454	1.67519
3471.41597	1.67047
3469.48741	1.66771
3467.55884	1.67323
3465.63028	1.68299
3463.70171	1.68985
3461.77315	1.69240
3459.84459	1.69140
3457.91602	1.69138
3455.98746	1.69817
3454.05889	1.70684
3452.13033	1.70855
3450.20176	1.70486
3448.27320	1.70105
3446.34464	1.70150
3444.41607	1.70871
3442.48751	1.71750
3440.55894	1.72021
3438.63038	1.71876
3436.70181	1.71904
3434.77325	1.72017
3432.84468	1.72166
3430.91612	1.72585
3428.98756	1.73082
3427.05899	1.73200
3425.13043	1.72966
3423.20186	1.72661
3421.27330	1.72197
3419.34473	1.71792
3417.41617	1.71950
3415.48760	1.72445
3413.55904	1.72798
3411.63048	1.73058
3409.70191	1.73344
3407.77335	1.73495
3405.84478	1.73417
3403.91622	1.73041
3401.98765	1.72514
3400.05909	1.72408
3398.13052	1.72922
3396.20196	1.73514
3394.27340	1.73811
3392.34483	1.74005
3390.41627	1.74097
3388.48770	1.73882
3386.55914	1.73724
3384.63057	1.74403
3382.70201	1.75742
3380.77344	1.76406
3378.84488	1.76145
3376.91632	1.76047
3374.98775	1.76017
3373.05919	1.75522
3371.13062	1.75589
3369.20206	1.76580
3367.27349	1.77195
3365.34493	1.76955
3363.41636	1.76401
3361.48780	1.76087
3359.55924	1.76292
3357.63067	1.76347
3355.70211	1.75812
3353.77354	1.75525
3351.84498	1.75953
3349.91641	1.76538
3347.98785	1.76769
3346.05928	1.76778
3344.13072	1.77179
3342.20216	1.78078
3340.27359	1.78563
3338.34503	1.78197
3336.41646	1.77875
3334.48790	1.78251
3332.55933	1.78786
3330.63077	1.78987
3328.70220	1.79026
3326.77364	1.79027
3324.84508	1.79175
3322.91651	1.79693
3320.98795	1.80203
3319.05938	1.80427
3317.13082	1.80929
3315.20225	1.81764
3313.27369	1.81735
3311.34513	1.80295
3309.41656	1.78813
3307.48800	1.79025
3305.55943	1.80643
3303.63087	1.81658
3301.70230	1.81628
3299.77374	1.81528
3297.84517	1.81456
3295.91661	1.81428
3293.98805	1.81519
3292.05948	1.81552
3290.13092	1.81596
3288.20235	1.81412
3286.27379	1.80907
3284.34522	1.80602
3282.41666	1.80754
3280.48809	1.81219
3278.55953	1.81585
3276.63097	1.81486
3274.70240	1.81098
3272.77384	1.80664
3270.84527	1.80265
3268.91671	1.80097
3266.98814	1.79869
3265.05958	1.79108
3263.13101	1.78202
3261.20245	1.77796
3259.27389	1.77890
3257.34532	1.77610
3255.41676	1.76206
3253.48819	1.74647
3251.55963	1.74217
3249.63106	1.74615
3247.70250	1.74788
3245.77393	1.74467
3243.84537	1.74054
3241.91681	1.73575
3239.98824	1.72941
3238.05968	1.72266
3236.13111	1.71625
3234.20255	1.71281
3232.27398	1.71338
3230.34542	1.71603
3228.41685	1.71698
3226.48829	1.71145
3224.55973	1.70397
3222.63116	1.70322
3220.70260	1.70655
3218.77403	1.70522
3216.84547	1.69823
3214.91690	1.69166
3212.98834	1.68844
3211.05977	1.68723
3209.13121	1.68697
3207.20265	1.68541
3205.27408	1.68051
3203.34552	1.67454
3201.41695	1.66925
3199.48839	1.66401
3197.55982	1.66060
3195.63126	1.65780
3193.70269	1.65175
3191.77413	1.64665
3189.84557	1.64607
3187.91700	1.64469
3185.98844	1.63886
3184.05987	1.63053
3182.13131	1.62418
3180.20274	1.62256
3178.27418	1.62117
3176.34562	1.61615
3174.41705	1.61256
3172.48849	1.61380
3170.55992	1.61445
3168.63136	1.60999
3166.70279	1.60389
3164.77423	1.60143
3162.84566	1.60195
3160.91710	1.60155
3158.98854	1.60241
3157.05997	1.60702
3155.13141	1.60899
3153.20284	1.60497
3151.27428	1.60006
3149.34571	1.59717
3147.41715	1.59475
3145.48858	1.59074
3143.56002	1.58500
3141.63146	1.57889
3139.70289	1.57508
3137.77433	1.57495
3135.84576	1.57633
3133.91720	1.57867
3131.98863	1.58226
3130.06007	1.58459
3128.13150	1.58577
3126.20294	1.58734
3124.27438	1.58746
3122.34581	1.58529
3120.41725	1.58379
3118.48868	1.58380
3116.56012	1.58149
3114.63155	1.57589
3112.70299	1.57156
3110.77442	1.57003
3108.84586	1.56865
3106.91730	1.56680
3104.98873	1.56596
3103.06017	1.56698
3101.13160	1.56920
3099.20304	1.57107
3097.27447	1.57180
3095.34591	1.57065
3093.41734	1.56704
3091.48878	1.56353
3089.56022	1.56324
3087.63165	1.56420
3085.70309	1.56345
3083.77452	1.56176
3081.84596	1.55933
3079.91739	1.55609
3077.98883	1.55405
3076.06026	1.55348
3074.13170	1.55352
3072.20314	1.55395
3070.27457	1.55269
3068.34601	1.54940
3066.41744	1.54531
3064.48888	1.53937
3062.56031	1.53436
3060.63175	1.53254
3058.70318	1.52993
3056.77462	1.52566
3054.84606	1.52316
3052.91749	1.52343
3050.98893	1.52429
3049.06036	1.52279
3047.13180	1.51837
3045.20323	1.51353
3043.27467	1.50923
3041.34610	1.50434
3039.41754	1.50043
3037.48898	1.49953
3035.56041	1.49998
3033.63185	1.49914
3031.70328	1.49623
3029.77472	1.49182
3027.84615	1.48718
3025.91759	1.48433
3023.98903	1.48296
3022.06046	1.48030
3020.13190	1.47638
3018.20333	1.47354
3016.27477	1.47171
3014.34620	1.46933
3012.41764	1.46733
3010.48907	1.46656
3008.56051	1.46530
3006.63195	1.46299
3004.70338	1.46083
3002.77482	1.45876
3000.84625	1.45642
2998.91769	1.45451
2996.98912	1.45305
2995.06056	1.45306
2993.13199	1.45686
2991.20343	1.46269
2989.27487	1.46604
2987.34630	1.46715
2985.41774	1.47031
2983.48917	1.47646
2981.56061	1.48298
2979.63204	1.48866
2977.70348	1.49358
2975.77491	1.49778
2973.84635	1.50236
2971.91779	1.50864
2969.98922	1.51549
2968.06066	1.52220
2966.13209	1.53138
2964.20353	1.54144
2962.27496	1.54575
2960.34640	1.54419
2958.41783	1.54170
2956.48927	1.53866
2954.56071	1.53321
2952.63214	1.52625
2950.70358	1.52081
2948.77501	1.51823
2946.84645	1.51687
2944.91788	1.51750
2942.98932	1.52336
2941.06075	1.53304
2939.13219	1.54198
2937.20363	1.55024
2935.27506	1.56197
2933.34650	1.57711
2931.41793	1.59092
2929.48937	1.60162
2927.56080	1.61050
2925.63224	1.61770
2923.70367	1.62415
2921.77511	1.63044
2919.84655	1.63244
2917.91798	1.62571
2915.98942	1.61084
2914.06085	1.59057
2912.13229	1.56755
2910.20372	1.54712
2908.27516	1.53315
2906.34659	1.52208
2904.41803	1.51057
2902.48947	1.50152
2900.56090	1.49710
2898.63234	1.49374
2896.70377	1.48826
2894.77521	1.48245
2892.84664	1.47692
2890.91808	1.47132
2888.98952	1.46709
2887.06095	1.46367
2885.13239	1.46073
2883.20382	1.45879
2881.27526	1.45734
2879.34669	1.45697
2877.41813	1.45764
2875.48956	1.45777
2873.56100	1.45638
2871.63244	1.45273
2869.70387	1.44688
2867.77531	1.44041
2865.84674	1.43546
2863.91818	1.43374
2861.98961	1.43526
2860.06105	1.43951
2858.13248	1.44716
2856.20392	1.45720
2854.27536	1.46813
2852.34679	1.48021
2850.41823	1.48770
2848.48966	1.47909
2846.56110	1.45327
2844.63253	1.42245
2842.70397	1.39715
2840.77540	1.37977
2838.84684	1.36831
2836.91828	1.35961
2834.98971	1.35149
2833.06115	1.34433
2831.13258	1.33946
2829.20402	1.33636
2827.27545	1.33319
2825.34689	1.32947
2823.41832	1.32561
2821.48976	1.32224
2819.56120	1.31953
2817.63263	1.31622
2815.70407	1.31226
2813.77550	1.30850
2811.84694	1.30517
2809.91837	1.30347
2807.98981	1.30249
2806.06124	1.29960
2804.13268	1.29496
2802.20412	1.29003
2800.27555	1.28593
2798.34699	1.28357
2796.41842	1.28195
2794.48986	1.27917
2792.56129	1.27553
2790.63273	1.27317
2788.70416	1.27279
2786.77560	1.27275
2784.84704	1.27148
2782.91847	1.26906
2780.98991	1.26610
2779.06134	1.26320
2777.13278	1.26090
2775.20421	1.25935
2773.27565	1.25795
2771.34708	1.25590
2769.41852	1.25359
2767.48996	1.25245
2765.56139	1.25251
2763.63283	1.25190
2761.70426	1.25007
2759.77570	1.24903
2757.84713	1.24923
2755.91857	1.24878
2753.99001	1.24700
2752.06144	1.24518
2750.13288	1.24424
2748.20431	1.24363
2746.27575	1.24259
2744.34718	1.24120
2742.41862	1.24002
2740.49005	1.23920
2738.56149	1.23835
2736.63293	1.23741
2734.70436	1.23661
2732.77580	1.23531
2730.84723	1.23317
2728.91867	1.23095
2726.99010	1.22870
2725.06154	1.22658
2723.13297	1.22527
2721.20441	1.22390
2719.27585	1.22159
2717.34728	1.21932
2715.41872	1.21797
2713.49015	1.21669
2711.56159	1.21481
2709.63302	1.21298
2707.70446	1.21137
2705.77589	1.20914
2703.84733	1.20638
2701.91877	1.20453
2699.99020	1.20405
2698.06164	1.20362
2696.13307	1.20199
2694.20451	1.19959
2692.27594	1.19808
2690.34738	1.19780
2688.41881	1.19737
2686.49025	1.19651
2684.56169	1.19561
2682.63312	1.19398
2680.70456	1.19205
2678.77599	1.19142
2676.84743	1.19142
2674.91886	1.19033
2672.99030	1.18881
2671.06173	1.18794
2669.13317	1.18724
2667.20461	1.18615
2665.27604	1.18487
2663.34748	1.18375
2661.41891	1.18264
2659.49035	1.18160
2657.56178	1.18110
2655.63322	1.18112
2653.70465	1.18078
2651.77609	1.17901
2649.84753	1.17613
2647.91896	1.17367
2645.99040	1.17186
2644.06183	1.16996
2642.13327	1.16817
2640.20470	1.16698
2638.27614	1.16629
2636.34757	1.16563
2634.41901	1.16461
2632.49045	1.16324
2630.56188	1.16202
2628.63332	1.16152
2626.70475	1.16147
2624.77619	1.16108
2622.84762	1.15991
2620.91906	1.15825
2618.99049	1.15697
2617.06193	1.15619
2615.13337	1.15549
2613.20480	1.15535
2611.27624	1.15590
2609.34767	1.15648
2607.41911	1.15657
2605.49054	1.15578
2603.56198	1.15439
2601.63342	1.15344
2599.70485	1.15307
2597.77629	1.15255
2595.84772	1.15194
2593.91916	1.15179
2591.99059	1.15190
2590.06203	1.15187
2588.13346	1.15155
2586.20490	1.15079
2584.27634	1.14958
2582.34777	1.14789
2580.41921	1.14562
2578.49064	1.14302
2576.56208	1.14082
2574.63351	1.13959
2572.70495	1.13883
2570.77638	1.13766
2568.84782	1.13609
2566.91926	1.13432
2564.99069	1.13252
2563.06213	1.13103
2561.13356	1.12997
2559.20500	1.12883
2557.27643	1.12694
2555.34787	1.12494
2553.41930	1.12381
2551.49074	1.12288
2549.56218	1.12159
2547.63361	1.12054
2545.70505	1.11979
2543.77648	1.11887
2541.84792	1.11787
2539.91935	1.11712
2537.99079	1.11641
2536.06222	1.11554
2534.13366	1.11501
2532.20510	1.11497
2530.27653	1.11508
2528.34797	1.11551
2526.41940	1.11587
2524.49084	1.11522
2522.56227	1.11397
2520.63371	1.11323
2518.70514	1.11312
2516.77658	1.11304
2514.84802	1.11260
2512.91945	1.11187
2510.99089	1.11074
2509.06232	1.10866
2507.13376	1.10610
2505.20519	1.10437
2503.27663	1.10351
2501.34806	1.10280
2499.41950	1.10175
2497.49094	1.10000
2495.56237	1.09811
2493.63381	1.09713
2491.70524	1.09658
2489.77668	1.09526
2487.84811	1.09366
2485.91955	1.09271
2483.99098	1.09229
2482.06242	1.09197
2480.13386	1.09129
2478.20529	1.09005
2476.27673	1.08865
2474.34816	1.08778
2472.41960	1.08741
2470.49103	1.08679
2468.56247	1.08580
2466.63391	1.08490
2464.70534	1.08405
2462.77678	1.08336
2460.84821	1.08281
2458.91965	1.08188
2456.99108	1.08106
2455.06252	1.08081
2453.13395	1.08015
2451.20539	1.07870
2449.27683	1.07719
2447.34826	1.07612
2445.41970	1.07552
2443.49113	1.07488
2441.56257	1.07372
2439.63400	1.07207
2437.70544	1.07041
2435.77687	1.06913
2433.84831	1.06764
2431.91975	1.06551
2429.99118	1.06337
2428.06262	1.06132
2426.13405	1.05941
2424.20549	1.05828
2422.27692	1.05746
2420.34836	1.05589
2418.41979	1.05383
2416.49123	1.05223
2414.56267	1.05130
2412.63410	1.05052
2410.70554	1.04954
2408.77697	1.04834
2406.84841	1.04690
2404.91984	1.04547
2402.99128	1.04448
2401.06271	1.04381
2399.13415	1.04303
2397.20559	1.04205
2395.27702	1.04096
2393.34846	1.03979
2391.41989	1.03887
2389.49133	1.03836
2387.56276	1.03757
2385.63420	1.03636
2383.70563	1.03574
2381.77707	1.03593
2379.84851	1.03602
2377.91994	1.03565
2375.99138	1.03492
2374.06281	1.03324
2372.13425	1.03036
2370.20568	1.02747
2368.27712	1.02644
2366.34855	1.02776
2364.41999	1.02866
2362.49143	1.02755
2360.56286	1.02613
2358.63430	1.02450
2356.70573	1.02371
2354.77717	1.02563
2352.84860	1.02774
2350.92004	1.02737
2348.99147	1.02583
2347.06291	1.02488
2345.13435	1.02548
2343.20578	1.02710
2341.27722	1.02609
2339.34865	1.02259
2337.42009	1.02085
2335.49152	1.02028
2333.56296	1.01855
2331.63440	1.01715
2329.70583	1.01725
2327.77727	1.01695
2325.84870	1.01630
2323.92014	1.01683
2321.99157	1.01709
2320.06301	1.01621
2318.13444	1.01562
2316.20588	1.01533
2314.27732	1.01449
2312.34875	1.01288
2310.42019	1.01103
2308.49162	1.00974
2306.56306	1.00936
2304.63449	1.00914
2302.70593	1.00806
2300.77736	1.00617
2298.84880	1.00437
2296.92024	1.00358
2294.99167	1.00401
2293.06311	1.00448
2291.13454	1.00377
2289.20598	1.00239
2287.27741	1.00119
2285.34885	1.00037
2283.42028	0.99993
2281.49172	0.99940
2279.56316	0.99856
2277.63459	0.99784
2275.70603	0.99714
2273.77746	0.99649
2271.84890	0.99655
2269.92033	0.99696
2267.99177	0.99661
2266.06320	0.99535
2264.13464	0.99359
2262.20608	0.99208
2260.27751	0.99124
2258.34895	0.99049
2256.42038	0.98942
2254.49182	0.98825
2252.56325	0.98718
2250.63469	0.98627
2248.70612	0.98527
2246.77756	0.98395
2244.84900	0.98232
2242.92043	0.98069
2240.99187	0.97931
2239.06330	0.97780
2237.13474	0.97584
2235.20617	0.97378
2233.27761	0.97196
2231.34904	0.97037
2229.42048	0.96887
2227.49192	0.96723
2225.56335	0.96557
2223.63479	0.96398
2221.70622	0.96193
2219.77766	0.95950
2217.84909	0.95759
2215.92053	0.95630
2213.99196	0.95512
2212.06340	0.95400
2210.13484	0.95305
2208.20627	0.95218
2206.27771	0.95133
2204.34914	0.95043
2202.42058	0.94950
2200.49201	0.94893
2198.56345	0.94857
2196.63488	0.94789
2194.70632	0.94702
2192.77776	0.94636
2190.84919	0.94585
2188.92063	0.94558
2186.99206	0.94577
2185.06350	0.94613
2183.13493	0.94607
2181.20637	0.94560
2179.27781	0.94524
2177.34924	0.94527
2175.42068	0.94548
2173.49211	0.94558
2171.56355	0.94574
2169.63498	0.94587
2167.70642	0.94565
2165.77785	0.94551
2163.84929	0.94581
2161.92073	0.94583
2159.99216	0.94548
2158.06360	0.94546
2156.13503	0.94551
2154.20647	0.94527
2152.27790	0.94513
2150.34934	0.94507
2148.42077	0.94476
2146.49221	0.94405
2144.56365	0.94313
2142.63508	0.94235
2140.70652	0.94179
2138.77795	0.94137
2136.84939	0.94075
2134.92082	0.93971
2132.99226	0.93860
2131.06369	0.93767
2129.13513	0.93661
2127.20657	0.93537
2125.27800	0.93424
2123.34944	0.93310
2121.42087	0.93156
2119.49231	0.92971
2117.56374	0.92816
2115.63518	0.92723
2113.70661	0.92652
2111.77805	0.92548
2109.84949	0.92394
2107.92092	0.92212
2105.99236	0.92050
2104.06379	0.91931
2102.13523	0.91819
2100.20666	0.91694
2098.27810	0.91563
2096.34953	0.91387
2094.42097	0.91165
2092.49241	0.90979
2090.56384	0.90874
2088.63528	0.90772
2086.70671	0.90616
2084.77815	0.90441
2082.84958	0.90251
2080.92102	0.90056
2078.99245	0.89891
2077.06389	0.89749
2075.13533	0.89639
2073.20676	0.89575
2071.27820	0.89516
2069.34963	0.89446
2067.42107	0.89399
2065.49250	0.89375
2063.56394	0.89332
2061.63537	0.89262
2059.70681	0.89177
2057.77825	0.89084
2055.84968	0.89014
2053.92112	0.88978
2051.99255	0.88934
2050.06399	0.88858
2048.13542	0.88759
2046.20686	0.88636
2044.27830	0.88493
2042.34973	0.88344
2040.42117	0.88188
2038.49260	0.88021
2036.56404	0.87861
2034.63547	0.87717
2032.70691	0.87591
2030.77834	0.87488
2028.84978	0.87392
2026.92122	0.87277
2024.99265	0.87150
2023.06409	0.87013
2021.13552	0.86866
2019.20696	0.86761
2017.27839	0.86709
2015.34983	0.86608
2013.42126	0.86451
2011.49270	0.86315
2009.56414	0.86204
2007.63557	0.86087
2005.70701	0.85956
2003.77844	0.85830
2001.84988	0.85732
1999.92131	0.85664
1997.99275	0.85599
1996.06418	0.85529
1994.13562	0.85495
1992.20706	0.85496
1990.27849	0.85460
1988.34993	0.85363
1986.42136	0.85251
1984.49280	0.85150
1982.56423	0.85025
1980.63567	0.84859
1978.70710	0.84697
1976.77854	0.84559
1974.84998	0.84421
1972.92141	0.84262
1970.99285	0.84078
1969.06428	0.83891
1967.13572	0.83713
1965.20715	0.83525
1963.27859	0.83331
1961.35002	0.83149
1959.42146	0.82986
1957.49290	0.82848
1955.56433	0.82735
1953.63577	0.82634
1951.70720	0.82526
1949.77864	0.82418
1947.85007	0.82332
1945.92151	0.82287
1943.99294	0.82278
1942.06438	0.82250
1940.13582	0.82168
1938.20725	0.82082
1936.27869	0.82037
1934.35012	0.82026
1932.42156	0.82015
1930.49299	0.82004
1928.56443	0.82026
1926.63586	0.82089
1924.70730	0.82189
1922.77874	0.82282
1920.85017	0.82296
1918.92161	0.82267
1916.99304	0.82206
1915.06448	0.82085
1913.13591	0.81965
1911.20735	0.81884
1909.27878	0.81811
1907.35022	0.81709
1905.42166	0.81584
1903.49309	0.81451
1901.56453	0.81313
1899.63596	0.81185
1897.70740	0.81080
1895.77883	0.80996
1893.85027	0.80892
1891.92171	0.80769
1889.99314	0.80698
1888.06458	0.80641
1886.13601	0.80536
1884.20745	0.80426
1882.27888	0.80332
1880.35032	0.80237
1878.42175	0.80132
1876.49319	0.80038
1874.56463	0.79962
1872.63606	0.79909
1870.70750	0.79922
1868.77893	0.79984
1866.85037	0.79911
1864.92180	0.79713
1862.99324	0.79542
1861.06467	0.79434
1859.13611	0.79354
1857.20755	0.79266
1855.27898	0.79171
1853.35042	0.79076
1851.42185	0.78982
1849.49329	0.78905
1847.56472	0.78839
1845.63616	0.78790
1843.70759	0.78729
1841.77903	0.78567
1839.85047	0.78390
1837.92190	0.78296
1835.99334	0.78229
1834.06477	0.78145
1832.13621	0.78152
1830.20764	0.78317
1828.27908	0.78437
1826.35051	0.78441
1824.42195	0.78470
1822.49339	0.78499
1820.56482	0.78543
1818.63626	0.78667
1816.70769	0.78811
1814.77913	0.78937
1812.85056	0.79116
1810.92200	0.79371
1808.99343	0.79561
1807.06487	0.79652
1805.13631	0.79771
1803.20774	0.79989
1801.27918	0.80273
1799.35061	0.80485
1797.42205	0.80593
1795.49348	0.80691
1793.56492	0.80871
1791.63635	0.81093
1789.70779	0.81120
1787.77923	0.81062
1785.85066	0.81102
1783.92210	0.81216
1781.99353	0.81349
1780.06497	0.81500
1778.13640	0.81614
1776.20784	0.81715
1774.27927	0.81949
1772.35071	0.82365
1770.42215	0.82656
1768.49358	0.82791
1766.56502	0.82966
1764.63645	0.83201
1762.70789	0.83627
1760.77932	0.84228
1758.85076	0.84800
1756.92220	0.85490
1754.99363	0.86183
1753.06507	0.86834
1751.13650	0.87901
1749.20794	0.89384
1747.27937	0.90578
1745.35081	0.91494
1743.42224	0.92383
1741.49368	0.93293
1739.56512	0.94154
1737.63655	0.94703
1735.70799	0.95165
1733.77942	0.96045
1731.85086	0.96741
1729.92229	0.97077
1727.99373	0.97499
1726.06516	0.98096
1724.13660	0.98914
1722.20804	0.99753
1720.27947	1.00526
1718.35091	1.01763
1716.42234	1.03705
1714.49378	1.05099
1712.56521	1.06054
1710.63665	1.07142
1708.70808	1.08566
1706.77952	1.10732
1704.85096	1.13464
1702.92239	1.15751
1700.99383	1.18868
1699.06526	1.23943
1697.13670	1.28457
1695.20813	1.32293
1693.27957	1.34976
1691.35100	1.37143
1689.42244	1.39712
1687.49388	1.41825
1685.56531	1.43830
1683.63675	1.47204
1681.70818	1.49541
1679.77962	1.50573
1677.85105	1.51485
1675.92249	1.52681
1673.99392	1.53921
1672.06536	1.54888
1670.13680	1.56127
1668.20823	1.57492
1666.27967	1.58177
1664.35110	1.58688
1662.42254	1.59278
1660.49397	1.59574
1658.56541	1.59681
1656.63684	1.59857
1654.70828	1.60365
1652.77972	1.60735
1650.85115	1.60360
1648.92259	1.60130
1646.99402	1.59966
1645.06546	1.59554
1643.13689	1.58995
1641.20833	1.58517
1639.27976	1.58274
1637.35120	1.58444
1635.42264	1.58516
1633.49407	1.57866
1631.56551	1.57215
1629.63694	1.56615
1627.70838	1.55941
1625.77981	1.55137
1623.85125	1.53944
1621.92269	1.52423
1619.99412	1.51197
1618.06556	1.49893
1616.13699	1.47751
1614.20843	1.45762
1612.27986	1.44300
1610.35130	1.42956
1608.42273	1.41620
1606.49417	1.40403
1604.56561	1.39486
1602.63704	1.38917
1600.70848	1.38635
1598.77991	1.38531
1596.85135	1.38616
1594.92278	1.38877
1592.99422	1.39238
1591.06565	1.39760
1589.13709	1.40456
1587.20853	1.41300
1585.27996	1.42328
1583.35140	1.43471
1581.42283	1.44515
1579.49427	1.45396
1577.56570	1.46514
1575.63714	1.48073
1573.70857	1.49055
1571.78001	1.49678
1569.85145	1.50672
1567.92288	1.51686
1565.99432	1.52280
1564.06575	1.52745
1562.13719	1.53054
1560.20862	1.53453
1558.28006	1.54553
1556.35149	1.55126
1554.42293	1.55179
1552.49437	1.55014
1550.56580	1.54807
1548.63724	1.54662
1546.70867	1.54588
1544.78011	1.54702
1542.85154	1.54938
1540.92298	1.54407
1538.99441	1.53098
1537.06585	1.52509
1535.13729	1.52144
1533.20872	1.51556
1531.28016	1.50906
1529.35159	1.50494
1527.42303	1.50251
1525.49446	1.50034
1523.56590	1.49809
1521.63733	1.49485
1519.70877	1.49031
1517.78021	1.48382
1515.85164	1.47448
1513.92308	1.46387
1511.99451	1.45246
1510.06595	1.44130
1508.13738	1.42819
1506.20882	1.40557
1504.28025	1.38918
1502.35169	1.37862
1500.42313	1.36766
1498.49456	1.35272
1496.56600	1.33374
1494.63743	1.31804
1492.70887	1.30716
1490.78030	1.29684
1488.85174	1.28414
1486.92317	1.27193
1484.99461	1.26285
1483.06605	1.25706
1481.13748	1.25405
1479.20892	1.25326
1477.28035	1.25584
1475.35179	1.26368
1473.42322	1.27684
1471.49466	1.28799
1469.56610	1.29256
1467.63753	1.29604
1465.70897	1.30218
1463.78040	1.30877
1461.85184	1.31140
1459.92327	1.31278
1457.99471	1.31787
1456.06614	1.32251
1454.13758	1.32075
1452.20902	1.31814
1450.28045	1.31598
1448.35189	1.31358
1446.42332	1.31039
1444.49476	1.30645
1442.56619	1.30208
1440.63763	1.29784
1438.70906	1.29366
1436.78050	1.28804
1434.85194	1.28095
1432.92337	1.27445
1430.99481	1.26853
1429.06624	1.26349
1427.13768	1.26082
1425.20911	1.26117
1423.28055	1.26309
1421.35198	1.26515
1419.42342	1.26934
1417.49486	1.27390
1415.56629	1.27457
1413.63773	1.27350
1411.70916	1.27261
1409.78060	1.27250
1407.85203	1.27311
1405.92347	1.27418
1403.99490	1.27434
1402.06634	1.27344
1400.13778	1.27321
1398.20921	1.27369
1396.28065	1.27397
1394.35208	1.27421
1392.42352	1.27480
1390.49495	1.27646
1388.56639	1.28090
1386.63782	1.28835
1384.70926	1.29487
1382.78070	1.29933
1380.85213	1.30218
1378.92357	1.30213
1376.99500	1.29841
1375.06644	1.29043
1373.13787	1.27910
1371.20931	1.26815
1369.28074	1.25746
1367.35218	1.24616
1365.42362	1.23647
1363.49505	1.22946
1361.56649	1.22462
1359.63792	1.22204
1357.70936	1.22204
1355.78079	1.22395
1353.85223	1.22639
1351.92366	1.22862
1349.99510	1.23087
1348.06654	1.23342
1346.13797	1.23642
1344.20941	1.23982
1342.28084	1.24389
1340.35228	1.24972
1338.42371	1.25666
1336.49515	1.26259
1334.56659	1.26830
1332.63802	1.27504
1330.70946	1.28228
1328.78089	1.28849
1326.85233	1.29264
1324.92376	1.29481
1322.99520	1.29616
1321.06663	1.29802
1319.13807	1.30023
1317.20951	1.30172
1315.28094	1.30289
1313.35238	1.30438
1311.42381	1.30550
1309.49525	1.30558
1307.56668	1.30476
1305.63812	1.30359
1303.70955	1.30273
1301.78099	1.30202
1299.85243	1.30093
1297.92386	1.29985
1295.99530	1.29947
1294.06673	1.30011
1292.13817	1.30230
1290.20960	1.30604
1288.28104	1.30998
1286.35247	1.31274
1284.42391	1.31448
1282.49535	1.31629
1280.56678	1.31872
1278.63822	1.32175
1276.70965	1.32521
1274.78109	1.32914
1272.85252	1.33392
1270.92396	1.33974
1268.99539	1.34600
1267.06683	1.35158
1265.13827	1.35549
1263.20970	1.35752
1261.28114	1.35825
1259.35257	1.35840
1257.42401	1.35806
1255.49544	1.35727
1253.56688	1.35667
1251.63831	1.35676
1249.70975	1.35670
1247.78119	1.35567
1245.85262	1.35371
1243.92406	1.35084
1241.99549	1.34779
1240.06693	1.34505
1238.13836	1.34149
1236.20980	1.33606
1234.28123	1.32921
1232.35267	1.32222
1230.42411	1.31553
1228.49554	1.30849
1226.56698	1.30100
1224.63841	1.29354
1222.70985	1.28590
1220.78128	1.27812
1218.85272	1.27166
1216.92415	1.26763
1214.99559	1.26590
1213.06703	1.26624
1211.13846	1.26813
1209.20990	1.27029
1207.28133	1.27171
1205.35277	1.27161
1203.42420	1.26925
1201.49564	1.26555
1199.56708	1.26220
1197.63851	1.25970
1195.70995	1.25788
1193.78138	1.25685
1191.85282	1.25700
1189.92425	1.25850
1187.99569	1.26098
1186.06712	1.26379
1184.13856	1.26705
1182.21000	1.27189
1180.28143	1.27854
1178.35287	1.28579
1176.42430	1.29287
1174.49574	1.30012
1172.56717	1.30782
1170.63861	1.31606
1168.71004	1.32514
1166.78148	1.33486
1164.85292	1.34376
1162.92435	1.34986
1160.99579	1.35168
1159.06722	1.34829
1157.13866	1.33969
1155.21009	1.32756
1153.28153	1.31461
1151.35296	1.30191
1149.42440	1.28885
1147.49584	1.27652
1145.56727	1.26685
1143.63871	1.26056
1141.71014	1.25811
1139.78158	1.25918
1137.85301	1.26278
1135.92445	1.26880
1133.99588	1.27746
1132.06732	1.28837
1130.13876	1.30121
1128.21019	1.31518
1126.28163	1.32877
1124.35306	1.34134
1122.42450	1.35289
1120.49593	1.36361
1118.56737	1.37360
1116.63880	1.38028
1114.71024	1.38097
1112.78168	1.37758
1110.85311	1.37406
1108.92455	1.37221
1106.99598	1.37050
1105.06742	1.36768
1103.13885	1.36605
1101.21029	1.36617
1099.28172	1.36621
1097.35316	1.36748
1095.42460	1.37146
1093.49603	1.37627
1091.56747	1.38046
1089.63890	1.38534
1087.71034	1.39254
1085.78177	1.40103
1083.85321	1.40776
1081.92464	1.41144
1079.99608	1.41331
1078.06752	1.41360
1076.13895	1.41044
1074.21039	1.40308
1072.28182	1.39299
1070.35326	1.38143
1068.42469	1.36970
1066.49613	1.35871
1064.56756	1.34777
1062.63900	1.33759
1060.71044	1.33014
1058.78187	1.32431
1056.85331	1.31846
1054.92474	1.31389
1052.99618	1.31161
1051.06761	1.31135
1049.13905	1.31317
1047.21049	1.31710
1045.28192	1.32346
1043.35336	1.33195
1041.42479	1.34075
1039.49623	1.34811
1037.56766	1.35301
1035.63910	1.35597
1033.71053	1.35789
1031.78197	1.35749
1029.85341	1.35495
1027.92484	1.35201
1025.99628	1.34770
1024.06771	1.34072
1022.13915	1.33203
1020.21058	1.32371
1018.28202	1.31659
1016.35345	1.30918
1014.42489	1.29990
1012.49633	1.28801
1010.56776	1.27263
1008.63920	1.25393
1006.71063	1.23454
1004.78207	1.21688
1002.85350	1.20045
1000.92494	1.18512
998.99637	1.17269
997.06781	1.16311
995.13925	1.15490
993.21068	1.14791
991.28212	1.14187
989.35355	1.13584
987.42499	1.12990
985.49642	1.12517
983.56786	1.12205
981.63929	1.12032
979.71073	1.12080
977.78217	1.12339
975.85360	1.12546
973.92504	1.12503
971.99647	1.12208
970.06791	1.11744
968.13934	1.11249
966.21078	1.10825
964.28221	1.10551
962.35365	1.10549
960.42509	1.10946
958.49652	1.11782
956.56796	1.12795
954.63939	1.13424
952.71083	1.13350
950.78226	1.12678
948.85370	1.11611
946.92513	1.10441
944.99657	1.09441
943.06801	1.08593
941.13944	1.07802
939.21088	1.07086
937.28231	1.06461
935.35375	1.05918
933.42518	1.05435
931.49662	1.04979
929.56805	1.04582
927.63949	1.04276
925.71093	1.04027
923.78236	1.03853
921.85380	1.03762
919.92523	1.03638
917.99667	1.03435
916.06810	1.03246
914.13954	1.03161
912.21098	1.03168
910.28241	1.03244
908.35385	1.03487
906.42528	1.03924
904.49672	1.04395
902.56815	1.04810
900.63959	1.05209
898.71102	1.05591
896.78246	1.05863
894.85390	1.05995
892.92533	1.06027
890.99677	1.05909
889.06820	1.05598
887.13964	1.05219
885.21107	1.04924
883.28251	1.04708
881.35394	1.04462
879.42538	1.04144
877.49682	1.03784
875.56825	1.03416
873.63969	1.03037
871.71112	1.02680
869.78256	1.02460
867.85399	1.02390
865.92543	1.02320
863.99686	1.02164
862.06830	1.02016
860.13974	1.02019
858.21117	1.02218
856.28261	1.02545
854.35404	1.02884
852.42548	1.03161
850.49691	1.03385
848.56835	1.03625
846.63978	1.03919
844.71122	1.04231
842.78266	1.04490
840.85409	1.04669
838.92553	1.04866
836.99696	1.05165
835.06840	1.05477
833.13983	1.05718
831.21127	1.05937
829.28270	1.06138
827.35414	1.06262
825.42558	1.06335
823.49701	1.06392
821.56845	1.06357
819.63988	1.06185
817.71132	1.05965
815.78275	1.05831
813.85419	1.05805
811.92562	1.05802
809.99706	1.05733
808.06850	1.05551
806.13993	1.05284
804.21137	1.05038
802.28280	1.04910
800.35424	1.04899
798.42567	1.04911
796.49711	1.04857
794.56854	1.04796
792.63998	1.04890
790.71142	1.05162
788.78285	1.05477
786.85429	1.05774
784.92572	1.06112
782.99716	1.06505
781.06859	1.06862
779.14003	1.07176
777.21147	1.07514
775.28290	1.07816
773.35434	1.07991
771.42577	1.08075
769.49721	1.08156
767.56864	1.08292
765.64008	1.08462
763.71151	1.08594
761.78295	1.08641
759.85439	1.08629
757.92582	1.08639
755.99726	1.08708
754.06869	1.08771
752.14013	1.08760
750.21156	1.08729
748.28300	1.08724
746.35443	1.08693
744.42587	1.08625
742.49731	1.08560
740.56874	1.08454
738.64018	1.08323
736.71161	1.08299
734.78305	1.08333
732.85448	1.08377
730.92592	1.08588
728.99735	1.08903
727.06879	1.09151
725.14023	1.09439
723.21166	1.09864
721.28310	1.10324
719.35453	1.10682
717.42597	1.10927
715.49740	1.11190
713.56884	1.11536
711.64027	1.11903
709.71171	1.12257
707.78315	1.12593
705.85458	1.12873
703.92602	1.13102
701.99745	1.13304
700.06889	1.13400
698.14032	1.13371
696.21176	1.13360
694.28319	1.13425
692.35463	1.13439
690.42607	1.13308
688.49750	1.13063
686.56894	1.12819
684.64037	1.12647
682.71181	1.12429
680.78324	1.12062
678.85468	1.11612
676.92611	1.11182
674.99755	1.10848
673.06899	1.10599
671.14042	1.10338
669.21186	1.10121
667.28329	1.10172
665.35473	1.10212
663.42616	1.10060
661.49760	1.09808
659.56903	1.09740
657.64047	1.09948
655.71191	1.10041
653.78334	1.09877
651.85478	1.09732
649.92621	1.09829
647.99765	1.10186
646.06908	1.10621
644.14052	1.11017
642.21195	1.11339
640.28339	1.11602
638.35483	1.11871
636.42626	1.12033
634.49770	1.11915
632.56913	1.11601
630.64057	1.11342
628.71200	1.11235
626.78344	1.11189
624.85488	1.11090
622.92631	1.10995
620.99775	1.10924
619.06918	1.10748
617.14062	1.10615
615.21205	1.10678
613.28349	1.10657
611.35492	1.10399
609.42636	1.10231
607.49780	1.10367
605.56923	1.10597
603.64067	1.10688
601.71210	1.10389
599.78354	1.09676
