3997.91406	0.97863
3995.98550	0.97791
3994.05693	0.97759
3992.12837	0.97753
3990.19980	0.97669
3988.27124	0.97450
3986.34268	0.97279
3984.41411	0.97278
3982.48555	0.97252
3980.55698	0.97112
3978.62842	0.97069
3976.69985	0.97155
3974.77129	0.97154
3972.84272	0.97059
3970.91416	0.97047
3968.98560	0.97082
3967.05703	0.97014
3965.12847	0.96883
3963.19990	0.96769
3961.27134	0.96665
3959.34277	0.96622
3957.41421	0.96663
3955.48564	0.96686
3953.55708	0.96666
3951.62852	0.96713
3949.69995	0.96805
3947.77139	0.96801
3945.84282	0.96772
3943.91426	0.96739
3941.98569	0.96597
3940.05713	0.96456
3938.12856	0.96376
3936.20000	0.96348
3934.27144	0.96419
3932.34287	0.96408
3930.41431	0.96206
3928.48574	0.96118
3926.55718	0.96255
3924.62861	0.96383
3922.70005	0.96257
3920.77148	0.96031
3918.84292	0.95936
3916.91436	0.95874
3914.98579	0.95742
3913.05723	0.95652
3911.12866	0.95622
3909.20010	0.95685
3907.27153	0.95875
3905.34297	0.95981
3903.41440	0.95853
3901.48584	0.95774
3899.55728	0.95788
3897.62871	0.95679
3895.70015	0.95449
3893.77158	0.95238
3891.84302	0.95136
3889.91445	0.95109
3887.98589	0.95143
3886.05733	0.95216
3884.12876	0.95230
3882.20020	0.95117
3880.27163	0.94773
3878.34307	0.94449
3876.41450	0.94339
3874.48594	0.94298
3872.55737	0.94274
3870.62881	0.94173
3868.70025	0.94026
3866.77168	0.94101
3864.84312	0.94291
3862.91455	0.94271
3860.98599	0.94090
3859.05742	0.94023
3857.12886	0.94105
3855.20029	0.94117
3853.27173	0.93888
3851.34317	0.93835
3849.41460	0.93914
3847.48604	0.93986
3845.55747	0.94049
3843.62891	0.94076
3841.70034	0.94114
3839.77178	0.94220
3837.84321	0.94235
3835.91465	0.94033
3833.98609	0.93735
3832.05752	0.93464
3830.12896	0.93323
3828.20039	0.93333
3826.27183	0.93539
3824.34326	0.93924
3822.41470	0.94218
3820.48613	0.94009
3818.55757	0.93641
3816.62901	0.93412
3814.70044	0.93213
3812.77188	0.93116
3810.84331	0.93190
3808.91475	0.93348
3806.98618	0.93274
3805.05762	0.93080
3803.12905	0.93120
3801.20049	0.93167
3799.27193	0.93065
3797.34336	0.93010
3795.41480	0.92960
3793.48623	0.92830
3791.55767	0.92631
3789.62910	0.92456
3787.70054	0.92431
3785.77197	0.92518
3783.84341	0.92561
3781.91485	0.92517
3779.98628	0.92385
3778.05772	0.92271
3776.12915	0.92235
3774.20059	0.92169
3772.27202	0.92107
3770.34346	0.92090
3768.41489	0.92074
3766.48633	0.92092
3764.55777	0.92141
3762.62920	0.92214
3760.70064	0.92259
3758.77207	0.92183
3756.84351	0.92172
3754.91494	0.92382
3752.98638	0.92683
3751.05781	0.92672
3749.12925	0.92356
3747.20069	0.92266
3745.27212	0.92141
3743.34356	0.91912
3741.41499	0.91967
3739.48643	0.92135
3737.55786	0.92256
3735.62930	0.92401
3733.70074	0.92291
3731.77217	0.91785
3729.84361	0.91458
3727.91504	0.91521
3725.98648	0.91669
3724.05791	0.91570
3722.12935	0.91341
3720.20078	0.91198
3718.27222	0.91179
3716.34366	0.91265
3714.41509	0.91541
3712.48653	0.91934
3710.55796	0.91931
3708.62940	0.91694
3706.70083	0.91637
3704.77227	0.91607
3702.84370	0.91443
3700.91514	0.91297
3698.98658	0.91424
3697.05801	0.91777
3695.12945	0.92175
3693.20088	0.92508
3691.27232	0.92736
3689.34375	0.92627
3687.41519	0.92366
3685.48662	0.92369
3683.55806	0.92580
3681.62950	0.92901
3679.70093	0.93282
3677.77237	0.93640
3675.84380	0.93855
3673.91524	0.94040
3671.98667	0.94294
3670.05811	0.94593
3668.12954	0.94941
3666.20098	0.95339
3664.27242	0.95828
3662.34385	0.96400
3660.41529	0.96981
3658.48672	0.97462
3656.55816	0.97804
3654.62959	0.98145
3652.70103	0.98669
3650.77246	0.99509
3648.84390	1.00451
3646.91534	1.00844
3644.98677	1.01029
3643.05821	1.01331
3641.12964	1.01830
3639.20108	1.02481
3637.27251	1.03154
3635.34395	1.03734
3633.41538	1.04207
3631.48682	1.04701
3629.55826	1.05535
3627.62969	1.06534
3625.70113	1.07218
3623.77256	1.07814
3621.84400	1.08400
3619.91543	1.09066
3617.98687	1.09907
3616.05830	1.10764
3614.12974	1.11484
3612.20118	1.12016
3610.27261	1.12483
3608.34405	1.12992
3606.41548	1.13538
3604.48692	1.14097
3602.55835	1.14823
3600.62979	1.15765
3598.70123	1.16482
3596.77266	1.16847
3594.84410	1.17465
3592.91553	1.18455
3590.98697	1.19342
3589.05840	1.20070
3587.12984	1.20685
3585.20127	1.21282
3583.27271	1.21879
3581.34415	1.22380
3579.41558	1.22875
3577.48702	1.23502
3575.55845	1.24300
3573.62989	1.25050
3571.70132	1.25575
3569.77276	1.26023
3567.84419	1.26665
3565.91563	1.27715
3563.98707	1.28826
3562.05850	1.29677
3560.12994	1.30176
3558.20137	1.30450
3556.27281	1.30777
3554.34424	1.31406
3552.41568	1.32374
3550.48711	1.33339
3548.55855	1.34253
3546.62999	1.35248
3544.70142	1.36089
3542.77286	1.36637
3540.84429	1.37127
3538.91573	1.37774
3536.98716	1.38616
3535.05860	1.39522
3533.13003	1.40324
3531.20147	1.41115
3529.27291	1.42011
3527.34434	1.42862
3525.41578	1.43503
3523.48721	1.43866
3521.55865	1.44225
3519.63008	1.45066
3517.70152	1.46167
3515.77295	1.46913
3513.84439	1.47522
3511.91583	1.48516
3509.98726	1.49854
3508.05870	1.51209
3506.13013	1.52311
3504.20157	1.53213
3502.27300	1.54161
3500.34444	1.55135
3498.41587	1.55848
3496.48731	1.56349
3494.55875	1.56900
3492.63018	1.57355
3490.70162	1.57757
3488.77305	1.58567
3486.84449	1.59603
3484.91592	1.60225
3482.98736	1.60700
3481.05879	1.61313
3479.13023	1.61552
3477.20167	1.61630
3475.27310	1.62090
3473.34454	1.62706
3471.41597	1.63170
3469.48741	1.63545
3467.55884	1.63843
3465.63028	1.64080
3463.70171	1.64374
3461.77315	1.64703
3459.84459	1.65088
3457.91602	1.65358
3455.98746	1.65447
3454.05889	1.65813
3452.13033	1.66505
3450.20176	1.67164
3448.27320	1.67514
3446.34464	1.67599
3444.41607	1.67911
3442.48751	1.68592
3440.55894	1.69395
3438.63038	1.69868
3436.70181	1.69717
3434.77325	1.69228
3432.84468	1.68723
3430.91612	1.68527
3428.98756	1.68742
3427.05899	1.68679
3425.13043	1.68098
3423.20186	1.67883
3421.27330	1.68393
3419.34473	1.68937
3417.41617	1.69254
3415.48760	1.69560
3413.55904	1.69644
3411.63048	1.69474
3409.70191	1.69320
3407.77335	1.69202
3405.84478	1.69262
3403.91622	1.69726
3401.98765	1.70408
3400.05909	1.70913
3398.13052	1.71147
3396.20196	1.71408
3394.27340	1.71673
3392.34483	1.71663
3390.41627	1.71763
3388.48770	1.72105
3386.55914	1.72153
3384.63057	1.71875
3382.70201	1.71620
3380.77344	1.71644
3378.84488	1.71868
3376.91632	1.71936
3374.98775	1.72081
3373.05919	1.72679
3371.13062	1.73519
3369.20206	1.74045
3367.27349	1.73793
3365.34493	1.73240
3363.41636	1.73207
3361.48780	1.73664
3359.55924	1.74195
3357.63067	1.74640
3355.70211	1.75055
3353.77354	1.75265
3351.84498	1.75141
3349.91641	1.75127
3347.98785	1.75348
3346.05928	1.75558
3344.13072	1.75808
3342.20216	1.75995
3340.27359	1.76076
3338.34503	1.76236
3336.41646	1.76424
3334.48790	1.76527
3332.55933	1.76577
3330.63077	1.76757
3328.70220	1.77078
3326.77364	1.77251
3324.84508	1.77165
3322.91651	1.77132
3320.98795	1.77587
3319.05938	1.78244
3317.13082	1.78487
3315.20225	1.78860
3313.27369	1.79809
3311.34513	1.80601
3309.41656	1.81156
3307.48800	1.81725
3305.55943	1.81645
3303.63087	1.81142
3301.70230	1.81299
3299.77374	1.81888
3297.84517	1.81787
3295.91661	1.81034
3293.98805	1.80662
3292.05948	1.80746
3290.13092	1.80616
3288.20235	1.80604
3286.27379	1.81027
3284.34522	1.80832
3282.41666	1.79857
3280.48809	1.79445
3278.55953	1.79689
3276.63097	1.79865
3274.70240	1.80110
3272.77384	1.80197
3270.84527	1.79468
3268.91671	1.78219
3266.98814	1.77174
3265.05958	1.76727
3263.13101	1.76923
3261.20245	1.77267
3259.27389	1.77211
3257.34532	1.76872
3255.41676	1.76334
3253.48819	1.75382
3251.55963	1.74221
3249.63106	1.73321
3247.70250	1.72837
3245.77393	1.72512
3243.84537	1.72145
3241.91681	1.71857
3239.98824	1.71619
3238.05968	1.71024
3236.13111	1.70109
3234.20255	1.69481
3232.27398	1.69233
3230.34542	1.69072
3228.41685	1.68725
3226.48829	1.68031
3224.55973	1.67273
3222.63116	1.66695
3220.70260	1.66274
3218.77403	1.65925
3216.84547	1.65661
3214.91690	1.65597
3212.98834	1.65565
3211.05977	1.65244
3209.13121	1.64619
3207.20265	1.63911
3205.27408	1.63300
3203.34552	1.63009
3201.41695	1.62888
3199.48839	1.62434
3197.55982	1.61884
3195.63126	1.61494
3193.70269	1.60972
3191.77413	1.60480
3189.84557	1.60188
3187.91700	1.59879
3185.98844	1.59496
3184.05987	1.59062
3182.13131	1.58475
3180.20274	1.57713
3178.27418	1.56928
3176.34562	1.56247
3174.41705	1.55733
3172.48849	1.55415
3170.55992	1.55265
3168.63136	1.55104
3166.70279	1.54654
3164.77423	1.54018
3162.84566	1.53485
3160.91710	1.52985
3158.98854	1.52391
3157.05997	1.51782
3155.13141	1.51300
3153.20284	1.51021
3151.27428	1.50958
3149.34571	1.51148
3147.41715	1.51339
3145.48858	1.51005
3143.56002	1.50133
3141.63146	1.49303
3139.70289	1.48986
3137.77433	1.49073
3135.84576	1.49138
3133.91720	1.49138
3131.98863	1.49226
3130.06007	1.49247
3128.13150	1.49148
3126.20294	1.49043
3124.27438	1.48891
3122.34581	1.48689
3120.41725	1.48604
3118.48868	1.48870
3116.56012	1.49515
3114.63155	1.50046
3112.70299	1.50052
3110.77442	1.49766
3108.84586	1.49510
3106.91730	1.49427
3104.98873	1.49617
3103.06017	1.49945
3101.13160	1.50085
3099.20304	1.49949
3097.27447	1.49619
3095.34591	1.49089
3093.41734	1.48718
3091.48878	1.48946
3089.56022	1.49209
3087.63165	1.48861
3085.70309	1.48399
3083.77452	1.48284
3081.84596	1.48261
3079.91739	1.48019
3077.98883	1.47470
3076.06026	1.46878
3074.13170	1.46528
3072.20314	1.46325
3070.27457	1.46081
3068.34601	1.45824
3066.41744	1.45497
3064.48888	1.44831
3062.56031	1.44006
3060.63175	1.43387
3058.70318	1.42953
3056.77462	1.42630
3054.84606	1.42231
3052.91749	1.41623
3050.98893	1.40991
3049.06036	1.40470
3047.13180	1.40122
3045.20323	1.39806
3043.27467	1.39271
3041.34610	1.38612
3039.41754	1.38075
3037.48898	1.37750
3035.56041	1.37445
3033.63185	1.36822
3031.70328	1.36090
3029.77472	1.35763
3027.84615	1.35638
3025.91759	1.35331
3023.98903	1.35008
3022.06046	1.34883
3020.13190	1.34873
3018.20333	1.34707
3016.27477	1.34248
3014.34620	1.33651
3012.41764	1.33135
3010.48907	1.32855
3008.56051	1.32702
3006.63195	1.32480
3004.70338	1.32235
3002.77482	1.32076
3000.84625	1.32097
2998.91769	1.32254
2996.98912	1.32331
2995.06056	1.32428
2993.13199	1.32814
2991.20343	1.33400
2989.27487	1.34011
2987.34630	1.34659
2985.41774	1.35356
2983.48917	1.36047
2981.56061	1.36773
2979.63204	1.37675
2977.70348	1.38646
2975.77491	1.39429
2973.84635	1.40101
2971.91779	1.40979
2969.98922	1.42082
2968.06066	1.43031
2966.13209	1.43659
2964.20353	1.44212
2962.27496	1.44688
2960.34640	1.44755
2958.41783	1.44398
2956.48927	1.43893
2954.56071	1.43276
2952.63214	1.42396
2950.70358	1.41379
2948.77501	1.40666
2946.84645	1.40563
2944.91788	1.40982
2942.98932	1.41700
2941.06075	1.42732
2939.13219	1.44062
2937.20363	1.45415
2935.27506	1.46757
2933.34650	1.48135
2931.41793	1.49298
2929.48937	1.50234
2927.56080	1.51010
2925.63224	1.51527
2923.70367	1.51950
2921.77511	1.52346
2919.84655	1.52528
2917.91798	1.52170
2915.98942	1.50639
2914.06085	1.47902
2912.13229	1.44901
2910.20372	1.42435
2908.27516	1.40680
2906.34659	1.39454
2904.41803	1.38452
2902.48947	1.37528
2900.56090	1.36794
2898.63234	1.36307
2896.70377	1.35949
2894.77521	1.35596
2892.84664	1.35172
2890.91808	1.34629
2888.98952	1.33993
2887.06095	1.33384
2885.13239	1.32966
2883.20382	1.32818
2881.27526	1.32892
2879.34669	1.32994
2877.41813	1.32888
2875.48956	1.32611
2873.56100	1.32346
2871.63244	1.32013
2869.70387	1.31365
2867.77531	1.30450
2865.84674	1.29679
2863.91818	1.29300
2861.98961	1.29224
2860.06105	1.29409
2858.13248	1.29934
2856.20392	1.30793
2854.27536	1.31903
2852.34679	1.33034
2850.41823	1.33466
2848.48966	1.32102
2846.56110	1.28880
2844.63253	1.25249
2842.70397	1.22403
2840.77540	1.20346
2838.84684	1.18762
2836.91828	1.17584
2834.98971	1.16696
2833.06115	1.15929
2831.13258	1.15284
2829.20402	1.14770
2827.27545	1.14232
2825.34689	1.13602
2823.41832	1.13101
2821.48976	1.12852
2819.56120	1.12587
2817.63263	1.12107
2815.70407	1.11576
2813.77550	1.11165
2811.84694	1.10783
2809.91837	1.10303
2807.98981	1.09846
2806.06124	1.09546
2804.13268	1.09261
2802.20412	1.08893
2800.27555	1.08540
2798.34699	1.08206
2796.41842	1.07849
2794.48986	1.07570
2792.56129	1.07389
2790.63273	1.07163
2788.70416	1.06863
2786.77560	1.06582
2784.84704	1.06343
2782.91847	1.06101
2780.98991	1.05815
2779.06134	1.05494
2777.13278	1.05216
2775.20421	1.04998
2773.27565	1.04749
2771.34708	1.04468
2769.41852	1.04219
2767.48996	1.03955
2765.56139	1.03638
2763.63283	1.03328
2761.70426	1.03062
2759.77570	1.02830
2757.84713	1.02615
2755.91857	1.02365
2753.99001	1.02079
2752.06144	1.01856
2750.13288	1.01753
2748.20431	1.01678
2746.27575	1.01469
2744.34718	1.01125
2742.41862	1.00824
2740.49005	1.00647
2738.56149	1.00549
2736.63293	1.00515
2734.70436	1.00492
2732.77580	1.00365
2730.84723	1.00133
2728.91867	0.99897
2726.99010	0.99677
2725.06154	0.99445
2723.13297	0.99212
2721.20441	0.98966
2719.27585	0.98695
2717.34728	0.98458
2715.41872	0.98258
2713.49015	0.98031
2711.56159	0.97797
2709.63302	0.97599
2707.70446	0.97397
2705.77589	0.97156
2703.84733	0.96920
2701.91877	0.96705
2699.99020	0.96476
2698.06164	0.96257
2696.13307	0.96105
2694.20451	0.96005
2692.27594	0.95899
2690.34738	0.95765
2688.41881	0.95610
2686.49025	0.95437
2684.56169	0.95266
2682.63312	0.95088
2680.70456	0.94885
2678.77599	0.94739
2676.84743	0.94675
2674.91886	0.94574
2672.99030	0.94426
2671.06173	0.94296
2669.13317	0.94162
2667.20461	0.94014
2665.27604	0.93877
2663.34748	0.93731
2661.41891	0.93576
2659.49035	0.93448
2657.56178	0.93322
2655.63322	0.93138
2653.70465	0.92899
2651.77609	0.92665
2649.84753	0.92452
2647.91896	0.92214
2645.99040	0.91942
2644.06183	0.91695
2642.13327	0.91515
2640.20470	0.91392
2638.27614	0.91286
2636.34757	0.91135
2634.41901	0.90932
2632.49045	0.90763
2630.56188	0.90655
2628.63332	0.90542
2626.70475	0.90440
2624.77619	0.90428
2622.84762	0.90471
2620.91906	0.90472
2618.99049	0.90401
2617.06193	0.90294
2615.13337	0.90225
2613.20480	0.90216
2611.27624	0.90208
2609.34767	0.90173
2607.41911	0.90142
2605.49054	0.90101
2603.56198	0.89992
2601.63342	0.89818
2599.70485	0.89642
2597.77629	0.89502
2595.84772	0.89378
2593.91916	0.89218
2591.99059	0.89026
2590.06203	0.88851
2588.13346	0.88687
2586.20490	0.88493
2584.27634	0.88292
2582.34777	0.88126
2580.41921	0.87950
2578.49064	0.87732
2576.56208	0.87539
2574.63351	0.87382
2572.70495	0.87213
2570.77638	0.87049
2568.84782	0.86938
2566.91926	0.86880
2564.99069	0.86829
2563.06213	0.86749
2561.13356	0.86652
2559.20500	0.86574
2557.27643	0.86543
2555.34787	0.86533
2553.41930	0.86463
2551.49074	0.86334
2549.56218	0.86228
2547.63361	0.86172
2545.70505	0.86146
2543.77648	0.86098
2541.84792	0.85982
2539.91935	0.85841
2537.99079	0.85698
2536.06222	0.85539
2534.13366	0.85364
2532.20510	0.85155
2530.27653	0.84900
2528.34797	0.84631
2526.41940	0.84397
2524.49084	0.84207
2522.56227	0.84034
2520.63371	0.83856
2518.70514	0.83667
2516.77658	0.83493
2514.84802	0.83344
2512.91945	0.83186
2510.99089	0.83036
2509.06232	0.82930
2507.13376	0.82835
2505.20519	0.82737
2503.27663	0.82668
2501.34806	0.82639
2499.41950	0.82629
2497.49094	0.82624
2495.56237	0.82620
2493.63381	0.82613
2491.70524	0.82593
2489.77668	0.82554
2487.84811	0.82504
2485.91955	0.82475
2483.99098	0.82442
2482.06242	0.82359
2480.13386	0.82247
2478.20529	0.82125
2476.27673	0.81981
2474.34816	0.81822
2472.41960	0.81661
2470.49103	0.81497
2468.56247	0.81307
2466.63391	0.81103
2464.70534	0.80923
2462.77678	0.80767
2460.84821	0.80595
2458.91965	0.80406
2456.99108	0.80244
2455.06252	0.80137
2453.13395	0.80067
2451.20539	0.80025
2449.27683	0.80006
2447.34826	0.79993
2445.41970	0.79974
2443.49113	0.79962
2441.56257	0.79979
2439.63400	0.80007
2437.70544	0.79997
2435.77687	0.79975
2433.84831	0.79990
2431.91975	0.79998
2429.99118	0.79960
2428.06262	0.79898
2426.13405	0.79827
2424.20549	0.79750
2422.27692	0.79667
2420.34836	0.79560
2418.41979	0.79428
2416.49123	0.79315
2414.56267	0.79214
2412.63410	0.79067
2410.70554	0.78885
2408.77697	0.78705
2406.84841	0.78519
2404.91984	0.78319
2402.99128	0.78145
2401.06271	0.78023
2399.13415	0.77917
2397.20559	0.77807
2395.27702	0.77724
2393.34846	0.77666
2391.41989	0.77608
2389.49133	0.77561
2387.56276	0.77533
2385.63420	0.77519
2383.70563	0.77498
2381.77707	0.77468
2379.84851	0.77480
2377.91994	0.77545
2375.99138	0.77566
2374.06281	0.77489
2372.13425	0.77370
2370.20568	0.77229
2368.27712	0.77015
2366.34855	0.76771
2364.41999	0.76642
2362.49143	0.76691
2360.56286	0.76795
2358.63430	0.76726
2356.70573	0.76444
2354.77717	0.76189
2352.84860	0.76111
2350.92004	0.76107
2348.99147	0.76054
2347.06291	0.75936
2345.13435	0.75810
2343.20578	0.75698
2341.27722	0.75516
2339.34865	0.75305
2337.42009	0.75173
2335.49152	0.75149
2333.56296	0.75191
2331.63440	0.75229
2329.70583	0.75286
2327.77727	0.75383
2325.84870	0.75401
2323.92014	0.75299
2321.99157	0.75238
2320.06301	0.75276
2318.13444	0.75302
2316.20588	0.75319
2314.27732	0.75346
2312.34875	0.75312
2310.42019	0.75224
2308.49162	0.75163
2306.56306	0.75123
2304.63449	0.75068
2302.70593	0.75009
2300.77736	0.74967
2298.84880	0.74923
2296.92024	0.74838
2294.99167	0.74732
2293.06311	0.74637
2291.13454	0.74550
2289.20598	0.74482
2287.27741	0.74439
2285.34885	0.74384
2283.42028	0.74301
2281.49172	0.74231
2279.56316	0.74206
2277.63459	0.74207
2275.70603	0.74205
2273.77746	0.74199
2271.84890	0.74192
2269.92033	0.74192
2267.99177	0.74223
2266.06320	0.74280
2264.13464	0.74329
2262.20608	0.74345
2260.27751	0.74335
2258.34895	0.74318
2256.42038	0.74302
2254.49182	0.74287
2252.56325	0.74265
2250.63469	0.74228
2248.70612	0.74174
2246.77756	0.74079
2244.84900	0.73956
2242.92043	0.73845
2240.99187	0.73743
2239.06330	0.73629
2237.13474	0.73505
2235.20617	0.73386
2233.27761	0.73281
2231.34904	0.73182
2229.42048	0.73082
2227.49192	0.72990
2225.56335	0.72911
2223.63479	0.72805
2221.70622	0.72664
2219.77766	0.72554
2217.84909	0.72511
2215.92053	0.72493
2213.99196	0.72458
2212.06340	0.72407
2210.13484	0.72362
2208.20627	0.72341
2206.27771	0.72340
2204.34914	0.72353
2202.42058	0.72373
2200.49201	0.72387
2198.56345	0.72388
2196.63488	0.72394
2194.70632	0.72425
2192.77776	0.72476
2190.84919	0.72517
2188.92063	0.72531
2186.99206	0.72533
2185.06350	0.72539
2183.13493	0.72533
2181.20637	0.72488
2179.27781	0.72424
2177.34924	0.72370
2175.42068	0.72321
2173.49211	0.72269
2171.56355	0.72213
2169.63498	0.72138
2167.70642	0.72035
2165.77785	0.71949
2163.84929	0.71919
2161.92073	0.71922
2159.99216	0.71926
2158.06360	0.71930
2156.13503	0.71935
2154.20647	0.71949
2152.27790	0.71980
2150.34934	0.72027
2148.42077	0.72081
2146.49221	0.72122
2144.56365	0.72157
2142.63508	0.72206
2140.70652	0.72235
2138.77795	0.72236
2136.84939	0.72242
2134.92082	0.72228
2132.99226	0.72179
2131.06369	0.72130
2129.13513	0.72098
2127.20657	0.72076
2125.27800	0.72059
2123.34944	0.72018
2121.42087	0.71923
2119.49231	0.71806
2117.56374	0.71724
2115.63518	0.71650
2113.70661	0.71526
2111.77805	0.71373
2109.84949	0.71232
2107.92092	0.71104
2105.99236	0.70979
2104.06379	0.70870
2102.13523	0.70793
2100.20666	0.70746
2098.27810	0.70712
2096.34953	0.70683
2094.42097	0.70680
2092.49241	0.70694
2090.56384	0.70693
2088.63528	0.70686
2086.70671	0.70699
2084.77815	0.70734
2082.84958	0.70767
2080.92102	0.70794
2078.99245	0.70818
2077.06389	0.70826
2075.13533	0.70810
2073.20676	0.70781
2071.27820	0.70759
2069.34963	0.70760
2067.42107	0.70765
2065.49250	0.70726
2063.56394	0.70621
2061.63537	0.70487
2059.70681	0.70361
2057.77825	0.70240
2055.84968	0.70112
2053.92112	0.69975
2051.99255	0.69837
2050.06399	0.69699
2048.13542	0.69560
2046.20686	0.69434
2044.27830	0.69335
2042.34973	0.69251
2040.42117	0.69148
2038.49260	0.69026
2036.56404	0.68931
2034.63547	0.68886
2032.70691	0.68878
2030.77834	0.68880
2028.84978	0.68871
2026.92122	0.68859
2024.99265	0.68841
2023.06409	0.68812
2021.13552	0.68801
2019.20696	0.68826
2017.27839	0.68847
2015.34983	0.68822
2013.42126	0.68764
2011.49270	0.68699
2009.56414	0.68636
2007.63557	0.68564
2005.70701	0.68471
2003.77844	0.68369
2001.84988	0.68255
1999.92131	0.68121
1997.99275	0.67966
1996.06418	0.67808
1994.13562	0.67653
1992.20706	0.67460
1990.27849	0.67223
1988.34993	0.66993
1986.42136	0.66776
1984.49280	0.66561
1982.56423	0.66385
1980.63567	0.66272
1978.70710	0.66202
1976.77854	0.66133
1974.84998	0.66050
1972.92141	0.65986
1970.99285	0.65965
1969.06428	0.65980
1967.13572	0.66007
1965.20715	0.66029
1963.27859	0.66051
1961.35002	0.66065
1959.42146	0.66051
1957.49290	0.66032
1955.56433	0.66033
1953.63577	0.66034
1951.70720	0.66000
1949.77864	0.65940
1947.85007	0.65885
1945.92151	0.65845
1943.99294	0.65789
1942.06438	0.65659
1940.13582	0.65466
1938.20725	0.65270
1936.27869	0.65084
1934.35012	0.64896
1932.42156	0.64693
1930.49299	0.64482
1928.56443	0.64288
1926.63586	0.64132
1924.70730	0.64004
1922.77874	0.63855
1920.85017	0.63701
1918.92161	0.63586
1916.99304	0.63465
1915.06448	0.63349
1913.13591	0.63315
1911.20735	0.63361
1909.27878	0.63406
1907.35022	0.63409
1905.42166	0.63417
1903.49309	0.63461
1901.56453	0.63520
1899.63596	0.63561
1897.70740	0.63586
1895.77883	0.63594
1893.85027	0.63567
1891.92171	0.63518
1889.99314	0.63427
1888.06458	0.63262
1886.13601	0.63088
1884.20745	0.62919
1882.27888	0.62727
1880.35032	0.62520
1878.42175	0.62308
1876.49319	0.62095
1874.56463	0.61902
1872.63606	0.61777
1870.70750	0.61717
1868.77893	0.61597
1866.85037	0.61348
1864.92180	0.61113
1862.99324	0.60967
1861.06467	0.60892
1859.13611	0.60853
1857.20755	0.60834
1855.27898	0.60844
1853.35042	0.60884
1851.42185	0.60949
1849.49329	0.61053
1847.56472	0.61193
1845.63616	0.61357
1843.70759	0.61469
1841.77903	0.61462
1839.85047	0.61439
1837.92190	0.61455
1835.99334	0.61469
1834.06477	0.61474
1832.13621	0.61531
1830.20764	0.61600
1828.27908	0.61536
1826.35051	0.61357
1824.42195	0.61113
1822.49339	0.60850
1820.56482	0.60617
1818.63626	0.60400
1816.70769	0.60166
1814.77913	0.59940
1812.85056	0.59753
1810.92200	0.59555
1808.99343	0.59306
1807.06487	0.59060
1805.13631	0.58895
1803.20774	0.58844
1801.27918	0.58862
1799.35061	0.58872
1797.42205	0.58890
1795.49348	0.58954
1793.56492	0.59059
1791.63635	0.59144
1789.70779	0.59129
1787.77923	0.59130
1785.85066	0.59213
1783.92210	0.59338
1781.99353	0.59482
1780.06497	0.59607
1778.13640	0.59683
1776.20784	0.59769
1774.27927	0.59927
1772.35071	0.60053
1770.42215	0.59976
1768.49358	0.59830
1766.56502	0.59745
1764.63645	0.59768
1762.70789	0.59891
1760.77932	0.60045
1758.85076	0.60205
1756.92220	0.60445
1754.99363	0.60761
1753.06507	0.61202
1751.13650	0.61959
1749.20794	0.62952
1747.27937	0.63818
1745.35081	0.64587
1743.42224	0.65382
1741.49368	0.66196
1739.56512	0.66972
1737.63655	0.67568
1735.70799	0.68124
1733.77942	0.68951
1731.85086	0.69591
1729.92229	0.69959
1727.99373	0.70356
1726.06516	0.70852
1724.13660	0.71531
1722.20804	0.72282
1720.27947	0.73070
1718.35091	0.74279
1716.42234	0.75975
1714.49378	0.77283
1712.56521	0.78430
1710.63665	0.79854
1708.70808	0.81692
1706.77952	0.84469
1704.85096	0.88178
1702.92239	0.91665
1700.99383	0.96596
1699.06526	1.04438
1697.13670	1.11693
1695.20813	1.18565
1693.27957	1.23821
1691.35100	1.28047
1689.42244	1.33113
1687.49388	1.37906
1685.56531	1.42775
1683.63675	1.49939
1681.70818	1.55056
1679.77962	1.57938
1677.85105	1.60664
1675.92249	1.63777
1673.99392	1.66812
1672.06536	1.68929
1670.13680	1.70645
1668.20823	1.72404
1666.27967	1.73482
1664.35110	1.74345
1662.42254	1.75300
1660.49397	1.75826
1658.56541	1.75968
1656.63684	1.75897
1654.70828	1.75958
1652.77972	1.75642
1650.85115	1.74897
1648.92259	1.74479
1646.99402	1.74097
1645.06546	1.73736
1643.13689	1.73332
1641.20833	1.72980
1639.27976	1.72626
1637.35120	1.72339
1635.42264	1.71941
1633.49407	1.71297
1631.56551	1.70782
1629.63694	1.70171
1627.70838	1.69458
1625.77981	1.68760
1623.85125	1.67758
1621.92269	1.66191
1619.99412	1.64669
1618.06556	1.62852
1616.13699	1.59948
1614.20843	1.57330
1612.27986	1.55078
1610.35130	1.52492
1608.42273	1.49716
1606.49417	1.47294
1604.56561	1.45359
1602.63704	1.43691
1600.70848	1.42342
1598.77991	1.41441
1596.85135	1.40950
1594.92278	1.40640
1592.99422	1.40391
1591.06565	1.40379
1589.13709	1.40700
1587.20853	1.41365
1585.27996	1.42355
1583.35140	1.43616
1581.42283	1.45056
1579.49427	1.46583
1577.56570	1.48454
1575.63714	1.50810
1573.70857	1.52507
1571.78001	1.53871
1569.85145	1.55756
1567.92288	1.57453
1565.99432	1.58766
1564.06575	1.60279
1562.13719	1.61367
1560.20862	1.62011
1558.28006	1.63768
1556.35149	1.65418
1554.42293	1.66145
1552.49437	1.66579
1550.56580	1.66871
1548.63724	1.66842
1546.70867	1.66579
1544.78011	1.66150
1542.85154	1.65527
1540.92298	1.64968
1538.99441	1.64385
1537.06585	1.63937
1535.13729	1.63566
1533.20872	1.63020
1531.28016	1.62228
1529.35159	1.61530
1527.42303	1.60880
1525.49446	1.60265
1523.56590	1.60156
1521.63733	1.60442
1519.70877	1.60406
1517.78021	1.59670
1515.85164	1.58264
1513.92308	1.56739
1511.99451	1.55335
1510.06595	1.54056
1508.13738	1.51976
1506.20882	1.47897
1504.28025	1.45310
1502.35169	1.43576
1500.42313	1.41669
1498.49456	1.39250
1496.56600	1.35974
1494.63743	1.32988
1492.70887	1.30865
1490.78030	1.28573
1488.85174	1.25531
1486.92317	1.22970
1484.99461	1.21235
1483.06605	1.19936
1481.13748	1.18909
1479.20892	1.18301
1477.28035	1.18322
1475.35179	1.19055
1473.42322	1.20459
1471.49466	1.21857
1469.56610	1.22743
1467.63753	1.23536
1465.70897	1.24507
1463.78040	1.25472
1461.85184	1.26126
1459.92327	1.26736
1457.99471	1.27800
1456.06614	1.28770
1454.13758	1.28978
1452.20902	1.29102
1450.28045	1.29259
1448.35189	1.29290
1446.42332	1.29069
1444.49476	1.28665
1442.56619	1.28166
1440.63763	1.27678
1438.70906	1.27208
1436.78050	1.26428
1434.85194	1.25323
1432.92337	1.24307
1430.99481	1.23260
1429.06624	1.22197
1427.13768	1.21431
1425.20911	1.20955
1423.28055	1.20688
1421.35198	1.20655
1419.42342	1.20814
1417.49486	1.20886
1415.56629	1.20736
1413.63773	1.20516
1411.70916	1.20256
1409.78060	1.20019
1407.85203	1.19930
1405.92347	1.20025
1403.99490	1.20244
1402.06634	1.20550
1400.13778	1.20976
1398.20921	1.21445
1396.28065	1.21862
1394.35208	1.22253
1392.42352	1.22642
1390.49495	1.23190
1388.56639	1.24223
1386.63782	1.25859
1384.70926	1.27551
1382.78070	1.29010
1380.85213	1.30171
1378.92357	1.30776
1376.99500	1.30675
1375.06644	1.29724
1373.13787	1.27979
1371.20931	1.25949
1369.28074	1.23613
1367.35218	1.21058
1365.42362	1.18747
1363.49505	1.16462
1361.56649	1.14183
1359.63792	1.12523
1357.70936	1.11414
1355.78079	1.10563
1353.85223	1.09924
1351.92366	1.09493
1349.99510	1.09199
1348.06654	1.09001
1346.13797	1.08900
1344.20941	1.08932
1342.28084	1.09146
1340.35228	1.09571
1338.42371	1.10125
1336.49515	1.10764
1334.56659	1.11623
1332.63802	1.12739
1330.70946	1.13959
1328.78089	1.14990
1326.85233	1.15639
1324.92376	1.15966
1322.99520	1.16155
1321.06663	1.16350
1319.13807	1.16538
1317.20951	1.16624
1315.28094	1.16585
1313.35238	1.16469
1311.42381	1.16288
1309.49525	1.16025
1307.56668	1.15682
1305.63812	1.15264
1303.70955	1.14757
1301.78099	1.14156
1299.85243	1.13491
1297.92386	1.12769
1295.99530	1.12023
1294.06673	1.11389
1292.13817	1.11013
1290.20960	1.10893
1288.28104	1.10894
1286.35247	1.10911
1284.42391	1.10941
1282.49535	1.11034
1280.56678	1.11187
1278.63822	1.11376
1276.70965	1.11674
1274.78109	1.12140
1272.85252	1.12740
1270.92396	1.13418
1268.99539	1.14132
1267.06683	1.14833
1265.13827	1.15428
1263.20970	1.15814
1261.28114	1.15943
1259.35257	1.15867
1257.42401	1.15740
1255.49544	1.15680
1253.56688	1.15670
1251.63831	1.15618
1249.70975	1.15505
1247.78119	1.15402
1245.85262	1.15336
1243.92406	1.15269
1241.99549	1.15175
1240.06693	1.15044
1238.13836	1.14891
1236.20980	1.14686
1234.28123	1.14362
1232.35267	1.13939
1230.42411	1.13452
1228.49554	1.12866
1226.56698	1.12173
1224.63841	1.11419
1222.70985	1.10616
1220.78128	1.09799
1218.85272	1.09069
1216.92415	1.08485
1214.99559	1.08067
1213.06703	1.07889
1211.13846	1.08025
1209.20990	1.08338
1207.28133	1.08457
1205.35277	1.08078
1203.42420	1.07210
1201.49564	1.06055
1199.56708	1.04768
1197.63851	1.03437
1195.70995	1.02181
1193.78138	1.01119
1191.85282	1.00300
1189.92425	0.99702
1187.99569	0.99308
1186.06712	0.99126
1184.13856	0.99168
1182.21000	0.99483
1180.28143	1.00141
1178.35287	1.01169
1176.42430	1.02491
1174.49574	1.04027
1172.56717	1.05764
1170.63861	1.07648
1168.71004	1.09670
1166.78148	1.11881
1164.85292	1.14144
1162.92435	1.16087
1160.99579	1.17295
1159.06722	1.17610
1157.13866	1.17197
1155.21009	1.16218
1153.28153	1.14709
1151.35296	1.12794
1149.42440	1.10720
1147.49584	1.08729
1145.56727	1.07033
1143.63871	1.05763
1141.71014	1.04927
1139.78158	1.04508
1137.85301	1.04517
1135.92445	1.04896
1133.99588	1.05566
1132.06732	1.06596
1130.13876	1.08094
1128.21019	1.09964
1126.28163	1.12000
1124.35306	1.14024
1122.42450	1.15846
1120.49593	1.17382
1118.56737	1.18605
1116.63880	1.19334
1114.71024	1.19372
1112.78168	1.18782
1110.85311	1.17961
1108.92455	1.17279
1106.99598	1.16798
1105.06742	1.16470
1103.13885	1.16213
1101.21029	1.16011
1099.28172	1.16051
1097.35316	1.16544
1095.42460	1.17613
1093.49603	1.19168
1091.56747	1.20948
1089.63890	1.22908
1087.71034	1.25148
1085.78177	1.27551
1083.85321	1.29867
1081.92464	1.31783
1079.99608	1.32959
1078.06752	1.33285
1076.13895	1.32922
1074.21039	1.32028
1072.28182	1.30573
1070.35326	1.28684
1068.42469	1.26777
1066.49613	1.25102
1064.56756	1.23680
1062.63900	1.22384
1060.71044	1.20994
1058.78187	1.19537
1056.85331	1.18341
1054.92474	1.17617
1052.99618	1.17265
1051.06761	1.17145
1049.13905	1.17346
1047.21049	1.18012
1045.28192	1.19075
1043.35336	1.20368
1041.42479	1.21798
1039.49623	1.23216
1037.56766	1.24394
1035.63910	1.25196
1033.71053	1.25562
1031.78197	1.25478
1029.85341	1.24979
1027.92484	1.24097
1025.99628	1.22919
1024.06771	1.21590
1022.13915	1.20245
1020.21058	1.19060
1018.28202	1.18080
1016.35345	1.17095
1014.42489	1.15788
1012.49633	1.13979
1010.56776	1.11752
1008.63920	1.09268
1006.71063	1.06698
1004.78207	1.04242
1002.85350	1.01991
1000.92494	1.00001
998.99637	0.98372
997.06781	0.97108
995.13925	0.96086
993.21068	0.95156
991.28212	0.94180
989.35355	0.93099
987.42499	0.92008
985.49642	0.91019
983.56786	0.90152
981.63929	0.89443
979.71073	0.88904
977.78217	0.88404
975.85360	0.87771
973.92504	0.86903
971.99647	0.85769
970.06791	0.84463
968.13934	0.83163
966.21078	0.82025
964.28221	0.81182
962.35365	0.80828
960.42509	0.81158
958.49652	0.82124
956.56796	0.83222
954.63939	0.83733
952.71083	0.83313
950.78226	0.82192
948.85370	0.80818
946.92513	0.79547
944.99657	0.78561
943.06801	0.77872
941.13944	0.77373
939.21088	0.76987
937.28231	0.76725
935.35375	0.76579
933.42518	0.76532
931.49662	0.76599
929.56805	0.76755
927.63949	0.76944
925.71093	0.77163
923.78236	0.77417
921.85380	0.77644
919.92523	0.77787
917.99667	0.77840
916.06810	0.77850
914.13954	0.77937
912.21098	0.78196
910.28241	0.78649
908.35385	0.79281
906.42528	0.80080
904.49672	0.81012
902.56815	0.81978
900.63959	0.82889
898.71102	0.83679
896.78246	0.84293
894.85390	0.84769
892.92533	0.85175
890.99677	0.85512
889.06820	0.85783
887.13964	0.86064
885.21107	0.86428
883.28251	0.86834
881.35394	0.87227
879.42538	0.87662
877.49682	0.88172
875.56825	0.88682
873.63969	0.89112
871.71112	0.89470
869.78256	0.89838
867.85399	0.90246
865.92543	0.90647
863.99686	0.91039
862.06830	0.91480
860.13974	0.91986
858.21117	0.92549
856.28261	0.93143
854.35404	0.93708
852.42548	0.94235
850.49691	0.94705
848.56835	0.95038
846.63978	0.95249
844.71122	0.95445
842.78266	0.95659
840.85409	0.95872
838.92553	0.96086
836.99696	0.96287
835.06840	0.96422
833.13983	0.96469
831.21127	0.96477
829.28270	0.96483
827.35414	0.96418
825.42558	0.96268
823.49701	0.96107
821.56845	0.95975
819.63988	0.95890
817.71132	0.95796
815.78275	0.95664
813.85419	0.95593
811.92562	0.95597
809.99706	0.95585
808.06850	0.95546
806.13993	0.95532
804.21137	0.95589
802.28280	0.95721
800.35424	0.95876
798.42567	0.96029
796.49711	0.96267
794.56854	0.96654
792.63998	0.97129
790.71142	0.97657
788.78285	0.98239
786.85429	0.98848
784.92572	0.99546
782.99716	1.00406
781.06859	1.01381
779.14003	1.02354
777.21147	1.03244
775.28290	1.04053
773.35434	1.04883
771.42577	1.05792
769.49721	1.06696
767.56864	1.07518
765.64008	1.08275
763.71151	1.09053
761.78295	1.09950
759.85439	1.10963
757.92582	1.11997
755.99726	1.12985
754.06869	1.13961
752.14013	1.14965
750.21156	1.15965
748.28300	1.16923
746.35443	1.17805
744.42587	1.18579
742.49731	1.19291
740.56874	1.19987
738.64018	1.20577
736.71161	1.21030
734.78305	1.21428
732.85448	1.21789
730.92592	1.22029
728.99735	1.22002
727.06879	1.21765
725.14023	1.21546
723.21166	1.21460
721.28310	1.21485
719.35453	1.21290
717.42597	1.20635
715.49740	1.19859
713.56884	1.19304
711.64027	1.18924
709.71171	1.18576
707.78315	1.18249
705.85458	1.17971
703.92602	1.17785
701.99745	1.17734
700.06889	1.17745
698.14032	1.17767
696.21176	1.17932
694.28319	1.18298
692.35463	1.18698
690.42607	1.18984
688.49750	1.19146
686.56894	1.19243
684.64037	1.19379
682.71181	1.19590
680.78324	1.19833
678.85468	1.19993
676.92611	1.20057
674.99755	1.20163
673.06899	1.20312
671.14042	1.20401
669.21186	1.20230
667.28329	1.19700
665.35473	1.19291
663.42616	1.18915
661.49760	1.18516
659.56903	1.18227
657.64047	1.17995
655.71191	1.17804
653.78334	1.17672
651.85478	1.17655
649.92621	1.17938
647.99765	1.18510
646.06908	1.19294
644.14052	1.20359
642.21195	1.21634
640.28339	1.23060
638.35483	1.24622
636.42626	1.26119
634.49770	1.27547
632.56913	1.28958
630.64057	1.30138
628.71200	1.31266
626.78344	1.32602
624.85488	1.33771
622.92631	1.34466
620.99775	1.34820
619.06918	1.34990
617.14062	1.34795
615.21205	1.33976
613.28349	1.32732
611.35492	1.31178
609.42636	1.29449
607.49780	1.27894
605.56923	1.26487
603.64067	1.25089
601.71210	1.23622
599.78354	1.21924
