3997.91406	0.99210
3995.98550	0.99112
3994.05693	0.99117
3992.12837	0.99094
3990.19980	0.99040
3988.27124	0.99034
3986.34268	0.99025
3984.41411	0.98941
3982.48555	0.98867
3980.55698	0.98816
3978.62842	0.98735
3976.69985	0.98669
3974.77129	0.98605
3972.84272	0.98532
3970.91416	0.98496
3968.98560	0.98517
3967.05703	0.98591
3965.12847	0.98613
3963.19990	0.98557
3961.27134	0.98538
3959.34277	0.98557
3957.41421	0.98571
3955.48564	0.98566
3953.55708	0.98549
3951.62852	0.98580
3949.69995	0.98611
3947.77139	0.98522
3945.84282	0.98398
3943.91426	0.98354
3941.98569	0.98360
3940.05713	0.98296
3938.12856	0.98116
3936.20000	0.97982
3934.27144	0.98056
3932.34287	0.98174
3930.41431	0.98067
3928.48574	0.97937
3926.55718	0.98005
3924.62861	0.98030
3922.70005	0.97897
3920.77148	0.97885
3918.84292	0.97935
3916.91436	0.97715
3914.98579	0.97425
3913.05723	0.97443
3911.12866	0.97584
3909.20010	0.97517
3907.27153	0.97363
3905.34297	0.97461
3903.41440	0.97732
3901.48584	0.97671
3899.55728	0.97306
3897.62871	0.96936
3895.70015	0.96720
3893.77158	0.96626
3891.84302	0.96509
3889.91445	0.96456
3887.98589	0.96521
3886.05733	0.96520
3884.12876	0.96497
3882.20020	0.96564
3880.27163	0.96468
3878.34307	0.96261
3876.41450	0.96200
3874.48594	0.96228
3872.55737	0.96253
3870.62881	0.96176
3868.70025	0.96061
3866.77168	0.96084
3864.84312	0.96097
3862.91455	0.95975
3860.98599	0.95859
3859.05742	0.95878
3857.12886	0.96028
3855.20029	0.96116
3853.27173	0.95828
3851.34317	0.95501
3849.41460	0.95377
3847.48604	0.95374
3845.55747	0.95537
3843.62891	0.95790
3841.70034	0.95894
3839.77178	0.95898
3837.84321	0.95908
3835.91465	0.95701
3833.98609	0.95323
3832.05752	0.94977
3830.12896	0.94831
3828.20039	0.94850
3826.27183	0.94841
3824.34326	0.94769
3822.41470	0.94711
3820.48613	0.94631
3818.55757	0.94479
3816.62901	0.94226
3814.70044	0.93961
3812.77188	0.93824
3810.84331	0.93819
3808.91475	0.93900
3806.98618	0.93975
3805.05762	0.94105
3803.12905	0.94273
3801.20049	0.94224
3799.27193	0.94029
3797.34336	0.93858
3795.41480	0.93703
3793.48623	0.93621
3791.55767	0.93612
3789.62910	0.93713
3787.70054	0.93897
3785.77197	0.93935
3783.84341	0.93760
3781.91485	0.93662
3779.98628	0.93672
3778.05772	0.93567
3776.12915	0.93450
3774.20059	0.93502
3772.27202	0.93659
3770.34346	0.93746
3768.41489	0.93696
3766.48633	0.93622
3764.55777	0.93559
3762.62920	0.93505
3760.70064	0.93498
3758.77207	0.93477
3756.84351	0.93367
3754.91494	0.93339
3752.98638	0.93532
3751.05781	0.93691
3749.12925	0.93444
3747.20069	0.93141
3745.27212	0.92794
3743.34356	0.92520
3741.41499	0.92578
3739.48643	0.92815
3737.55786	0.93071
3735.62930	0.93077
3733.70074	0.92776
3731.77217	0.92602
3729.84361	0.92642
3727.91504	0.92776
3725.98648	0.92843
3724.05791	0.92814
3722.12935	0.92829
3720.20078	0.92873
3718.27222	0.92821
3716.34366	0.92703
3714.41509	0.92725
3712.48653	0.92923
3710.55796	0.92865
3708.62940	0.92614
3706.70083	0.92580
3704.77227	0.92673
3702.84370	0.92666
3700.91514	0.92520
3698.98658	0.92447
3697.05801	0.92549
3695.12945	0.92758
3693.20088	0.92959
3691.27232	0.93152
3689.34375	0.93234
3687.41519	0.93109
3685.48662	0.93075
3683.55806	0.93235
3681.62950	0.93576
3679.70093	0.93993
3677.77237	0.94263
3675.84380	0.94359
3673.91524	0.94525
3671.98667	0.94766
3670.05811	0.94999
3668.12954	0.95162
3666.20098	0.95399
3664.27242	0.95820
3662.34385	0.96388
3660.41529	0.96943
3658.48672	0.97356
3656.55816	0.97735
3654.62959	0.98263
3652.70103	0.99045
3650.77246	1.00093
3648.84390	1.00547
3646.91534	1.00213
3644.98677	1.00188
3643.05821	1.00504
3641.12964	1.01051
3639.20108	1.01742
3637.27251	1.02425
3635.34395	1.03006
3633.41538	1.03521
3631.48682	1.03938
3629.55826	1.04281
3627.62969	1.04617
3625.70113	1.04997
3623.77256	1.05571
3621.84400	1.06356
3619.91543	1.07150
3617.98687	1.07647
3616.05830	1.07977
3614.12974	1.08353
3612.20118	1.08785
3610.27261	1.09347
3608.34405	1.10123
3606.41548	1.10817
3604.48692	1.11281
3602.55835	1.11901
3600.62979	1.12784
3598.70123	1.13529
3596.77266	1.14043
3594.84410	1.14626
3592.91553	1.15330
3590.98697	1.15961
3589.05840	1.16553
3587.12984	1.17218
3585.20127	1.17890
3583.27271	1.18582
3581.34415	1.19244
3579.41558	1.19738
3577.48702	1.20202
3575.55845	1.20817
3573.62989	1.21439
3571.70132	1.22004
3569.77276	1.22621
3567.84419	1.23336
3565.91563	1.24065
3563.98707	1.24711
3562.05850	1.25287
3560.12994	1.25805
3558.20137	1.26363
3556.27281	1.26998
3554.34424	1.27754
3552.41568	1.28682
3550.48711	1.29600
3548.55855	1.30557
3546.62999	1.31576
3544.70142	1.32141
3542.77286	1.32223
3540.84429	1.32473
3538.91573	1.33152
3536.98716	1.33949
3535.05860	1.34473
3533.13003	1.34866
3531.20147	1.35438
3529.27291	1.36067
3527.34434	1.36613
3525.41578	1.37169
3523.48721	1.37759
3521.55865	1.38430
3519.63008	1.39192
3517.70152	1.39992
3515.77295	1.40777
3513.84439	1.41492
3511.91583	1.42186
3509.98726	1.43050
3508.05870	1.43839
3506.13013	1.44230
3504.20157	1.44728
3502.27300	1.45672
3500.34444	1.46715
3498.41587	1.47530
3496.48731	1.47944
3494.55875	1.48316
3492.63018	1.49031
3490.70162	1.49866
3488.77305	1.50555
3486.84449	1.51000
3484.91592	1.51022
3482.98736	1.50667
3481.05879	1.50559
3479.13023	1.51197
3477.20167	1.52110
3475.27310	1.52694
3473.34454	1.53265
3471.41597	1.54076
3469.48741	1.54733
3467.55884	1.55105
3465.63028	1.55264
3463.70171	1.55409
3461.77315	1.55627
3459.84459	1.55661
3457.91602	1.55465
3455.98746	1.55198
3454.05889	1.55207
3452.13033	1.55801
3450.20176	1.56664
3448.27320	1.57195
3446.34464	1.57147
3444.41607	1.56905
3442.48751	1.57148
3440.55894	1.57817
3438.63038	1.58198
3436.70181	1.58321
3434.77325	1.58435
3432.84468	1.58310
3430.91612	1.58257
3428.98756	1.58628
3427.05899	1.58907
3425.13043	1.58849
3423.20186	1.58866
3421.27330	1.59106
3419.34473	1.59415
3417.41617	1.59704
3415.48760	1.59858
3413.55904	1.59674
3411.63048	1.59266
3409.70191	1.59025
3407.77335	1.58880
3405.84478	1.58656
3403.91622	1.58615
3401.98765	1.58802
3400.05909	1.59004
3398.13052	1.59239
3396.20196	1.59541
3394.27340	1.59771
3392.34483	1.59892
3390.41627	1.60119
3388.48770	1.60394
3386.55914	1.60377
3384.63057	1.60216
3382.70201	1.60290
3380.77344	1.60501
3378.84488	1.60493
3376.91632	1.60295
3374.98775	1.60425
3373.05919	1.60969
3371.13062	1.61377
3369.20206	1.61428
3367.27349	1.61336
3365.34493	1.61193
3363.41636	1.60974
3361.48780	1.60787
3359.55924	1.60986
3357.63067	1.61424
3355.70211	1.61452
3353.77354	1.61468
3351.84498	1.62076
3349.91641	1.62576
3347.98785	1.62649
3346.05928	1.63015
3344.13072	1.63615
3342.20216	1.63680
3340.27359	1.63246
3338.34503	1.63067
3336.41646	1.63389
3334.48790	1.63698
3332.55933	1.63812
3330.63077	1.64053
3328.70220	1.64269
3326.77364	1.64296
3324.84508	1.64521
3322.91651	1.64891
3320.98795	1.65061
3319.05938	1.65226
3317.13082	1.65395
3315.20225	1.65297
3313.27369	1.65098
3311.34513	1.65049
3309.41656	1.65286
3307.48800	1.65705
3305.55943	1.65877
3303.63087	1.65800
3301.70230	1.65813
3299.77374	1.65954
3297.84517	1.66028
3295.91661	1.66045
3293.98805	1.66324
3292.05948	1.67000
3290.13092	1.67551
3288.20235	1.67378
3286.27379	1.66746
3284.34522	1.66353
3282.41666	1.66486
3280.48809	1.66877
3278.55953	1.67227
3276.63097	1.67478
3274.70240	1.67186
3272.77384	1.66231
3270.84527	1.65466
3268.91671	1.65085
3266.98814	1.64492
3265.05958	1.63724
3263.13101	1.63333
3261.20245	1.63447
3259.27389	1.63517
3257.34532	1.62939
3255.41676	1.61976
3253.48819	1.61371
3251.55963	1.61101
3249.63106	1.60712
3247.70250	1.60315
3245.77393	1.59995
3243.84537	1.59422
3241.91681	1.58734
3239.98824	1.58244
3238.05968	1.57800
3236.13111	1.57265
3234.20255	1.56543
3232.27398	1.55810
3230.34542	1.55540
3228.41685	1.55663
3226.48829	1.55798
3224.55973	1.55685
3222.63116	1.55223
3220.70260	1.54755
3218.77403	1.54478
3216.84547	1.54062
3214.91690	1.53486
3212.98834	1.53297
3211.05977	1.53536
3209.13121	1.53583
3207.20265	1.53275
3205.27408	1.52799
3203.34552	1.52255
3201.41695	1.51878
3199.48839	1.51785
3197.55982	1.51792
3195.63126	1.51579
3193.70269	1.51069
3191.77413	1.50545
3189.84557	1.50119
3187.91700	1.49682
3185.98844	1.49213
3184.05987	1.48668
3182.13131	1.48128
3180.20274	1.47889
3178.27418	1.47811
3176.34562	1.47442
3174.41705	1.47013
3172.48849	1.46905
3170.55992	1.46730
3168.63136	1.46283
3166.70279	1.45979
3164.77423	1.45795
3162.84566	1.45384
3160.91710	1.44758
3158.98854	1.44247
3157.05997	1.44111
3155.13141	1.44216
3153.20284	1.44237
3151.27428	1.43949
3149.34571	1.43494
3147.41715	1.43245
3145.48858	1.43247
3143.56002	1.43326
3141.63146	1.43232
3139.70289	1.42893
3137.77433	1.42680
3135.84576	1.42703
3133.91720	1.42590
3131.98863	1.42147
3130.06007	1.41819
3128.13150	1.41945
3126.20294	1.42018
3124.27438	1.41634
3122.34581	1.41140
3120.41725	1.40947
3118.48868	1.41101
3116.56012	1.41299
3114.63155	1.41211
3112.70299	1.40976
3110.77442	1.40956
3108.84586	1.41026
3106.91730	1.40914
3104.98873	1.40735
3103.06017	1.40616
3101.13160	1.40612
3099.20304	1.40783
3097.27447	1.40925
3095.34591	1.40747
3093.41734	1.40365
3091.48878	1.40139
3089.56022	1.40124
3087.63165	1.40073
3085.70309	1.39860
3083.77452	1.39585
3081.84596	1.39268
3079.91739	1.38923
3077.98883	1.38656
3076.06026	1.38355
3074.13170	1.37943
3072.20314	1.37682
3070.27457	1.37645
3068.34601	1.37438
3066.41744	1.36852
3064.48888	1.36200
3062.56031	1.35774
3060.63175	1.35521
3058.70318	1.35313
3056.77462	1.35056
3054.84606	1.34637
3052.91749	1.34146
3050.98893	1.33753
3049.06036	1.33437
3047.13180	1.33142
3045.20323	1.32895
3043.27467	1.32690
3041.34610	1.32375
3039.41754	1.31890
3037.48898	1.31427
3035.56041	1.31082
3033.63185	1.30786
3031.70328	1.30525
3029.77472	1.30333
3027.84615	1.30153
3025.91759	1.29862
3023.98903	1.29497
3022.06046	1.29240
3020.13190	1.29172
3018.20333	1.29165
3016.27477	1.29060
3014.34620	1.28894
3012.41764	1.28686
3010.48907	1.28316
3008.56051	1.27874
3006.63195	1.27563
3004.70338	1.27404
3002.77482	1.27302
3000.84625	1.27196
2998.91769	1.27102
2996.98912	1.27010
2995.06056	1.26903
2993.13199	1.26878
2991.20343	1.26994
2989.27487	1.27224
2987.34630	1.27626
2985.41774	1.28200
2983.48917	1.28761
2981.56061	1.29248
2979.63204	1.29721
2977.70348	1.30260
2975.77491	1.30994
2973.84635	1.31846
2971.91779	1.32661
2969.98922	1.33496
2968.06066	1.34323
2966.13209	1.34972
2964.20353	1.35422
2962.27496	1.35702
2960.34640	1.35793
2958.41783	1.35743
2956.48927	1.35555
2954.56071	1.35172
2952.63214	1.34626
2950.70358	1.34043
2948.77501	1.33588
2946.84645	1.33427
2944.91788	1.33685
2942.98932	1.34290
2941.06075	1.34991
2939.13219	1.35777
2937.20363	1.36779
2935.27506	1.37814
2933.34650	1.38805
2931.41793	1.40007
2929.48937	1.41315
2927.56080	1.42328
2925.63224	1.43047
2923.70367	1.43755
2921.77511	1.44509
2919.84655	1.44939
2917.91798	1.44440
2915.98942	1.42817
2914.06085	1.40582
2912.13229	1.38446
2910.20372	1.36731
2908.27516	1.35244
2906.34659	1.33905
2904.41803	1.32966
2902.48947	1.32387
2900.56090	1.31981
2898.63234	1.31728
2896.70377	1.31464
2894.77521	1.31051
2892.84664	1.30698
2890.91808	1.30522
2888.98952	1.30299
2887.06095	1.29870
2885.13239	1.29405
2883.20382	1.29119
2881.27526	1.28965
2879.34669	1.28859
2877.41813	1.28820
2875.48956	1.28630
2873.56100	1.28095
2871.63244	1.27378
2869.70387	1.26664
2867.77531	1.26085
2865.84674	1.25718
2863.91818	1.25500
2861.98961	1.25427
2860.06105	1.25604
2858.13248	1.26068
2856.20392	1.26781
2854.27536	1.27698
2852.34679	1.28615
2850.41823	1.29012
2848.48966	1.28067
2846.56110	1.25523
2844.63253	1.22433
2842.70397	1.19981
2840.77540	1.18374
2838.84684	1.17271
2836.91828	1.16415
2834.98971	1.15731
2833.06115	1.15171
2831.13258	1.14674
2829.20402	1.14256
2827.27545	1.13859
2825.34689	1.13380
2823.41832	1.12937
2821.48976	1.12613
2819.56120	1.12290
2817.63263	1.11962
2815.70407	1.11613
2813.77550	1.11171
2811.84694	1.10720
2809.91837	1.10308
2807.98981	1.09869
2806.06124	1.09405
2804.13268	1.08977
2802.20412	1.08612
2800.27555	1.08273
2798.34699	1.07945
2796.41842	1.07658
2794.48986	1.07405
2792.56129	1.07146
2790.63273	1.06863
2788.70416	1.06567
2786.77560	1.06267
2784.84704	1.05977
2782.91847	1.05738
2780.98991	1.05563
2779.06134	1.05371
2777.13278	1.05084
2775.20421	1.04780
2773.27565	1.04605
2771.34708	1.04506
2769.41852	1.04353
2767.48996	1.04197
2765.56139	1.04120
2763.63283	1.04062
2761.70426	1.03932
2759.77570	1.03730
2757.84713	1.03518
2755.91857	1.03374
2753.99001	1.03297
2752.06144	1.03198
2750.13288	1.03031
2748.20431	1.02831
2746.27575	1.02677
2744.34718	1.02564
2742.41862	1.02410
2740.49005	1.02214
2738.56149	1.02023
2736.63293	1.01859
2734.70436	1.01716
2732.77580	1.01538
2730.84723	1.01285
2728.91867	1.01005
2726.99010	1.00733
2725.06154	1.00465
2723.13297	1.00243
2721.20441	1.00108
2719.27585	0.99977
2717.34728	0.99767
2715.41872	0.99549
2713.49015	0.99385
2711.56159	0.99197
2709.63302	0.98929
2707.70446	0.98650
2705.77589	0.98464
2703.84733	0.98369
2701.91877	0.98242
2699.99020	0.98045
2698.06164	0.97894
2696.13307	0.97824
2694.20451	0.97729
2692.27594	0.97570
2690.34738	0.97427
2688.41881	0.97337
2686.49025	0.97266
2684.56169	0.97172
2682.63312	0.97053
2680.70456	0.96931
2678.77599	0.96799
2676.84743	0.96650
2674.91886	0.96509
2672.99030	0.96382
2671.06173	0.96268
2669.13317	0.96139
2667.20461	0.95947
2665.27604	0.95703
2663.34748	0.95463
2661.41891	0.95258
2659.49035	0.95055
2657.56178	0.94821
2655.63322	0.94591
2653.70465	0.94400
2651.77609	0.94266
2649.84753	0.94178
2647.91896	0.94058
2645.99040	0.93884
2644.06183	0.93731
2642.13327	0.93615
2640.20470	0.93503
2638.27614	0.93395
2636.34757	0.93290
2634.41901	0.93194
2632.49045	0.93115
2630.56188	0.93037
2628.63332	0.92984
2626.70475	0.93002
2624.77619	0.93058
2622.84762	0.93107
2620.91906	0.93144
2618.99049	0.93139
2617.06193	0.93099
2615.13337	0.93084
2613.20480	0.93077
2611.27624	0.93001
2609.34767	0.92887
2607.41911	0.92811
2605.49054	0.92764
2603.56198	0.92692
2601.63342	0.92575
2599.70485	0.92454
2597.77629	0.92360
2595.84772	0.92238
2593.91916	0.92051
2591.99059	0.91844
2590.06203	0.91659
2588.13346	0.91458
2586.20490	0.91206
2584.27634	0.90979
2582.34777	0.90838
2580.41921	0.90715
2578.49064	0.90563
2576.56208	0.90399
2574.63351	0.90239
2572.70495	0.90098
2570.77638	0.89956
2568.84782	0.89810
2566.91926	0.89711
2564.99069	0.89649
2563.06213	0.89583
2561.13356	0.89509
2559.20500	0.89406
2557.27643	0.89292
2555.34787	0.89229
2553.41930	0.89165
2551.49074	0.89032
2549.56218	0.88913
2547.63361	0.88886
2545.70505	0.88906
2543.77648	0.88887
2541.84792	0.88788
2539.91935	0.88645
2537.99079	0.88527
2536.06222	0.88451
2534.13366	0.88379
2532.20510	0.88303
2530.27653	0.88223
2528.34797	0.88103
2526.41940	0.87953
2524.49084	0.87832
2522.56227	0.87736
2520.63371	0.87623
2518.70514	0.87496
2516.77658	0.87378
2514.84802	0.87262
2512.91945	0.87145
2510.99089	0.87086
2509.06232	0.87113
2507.13376	0.87143
2505.20519	0.87083
2503.27663	0.86959
2501.34806	0.86891
2499.41950	0.86913
2497.49094	0.86903
2495.56237	0.86800
2493.63381	0.86689
2491.70524	0.86628
2489.77668	0.86581
2487.84811	0.86512
2485.91955	0.86438
2483.99098	0.86378
2482.06242	0.86324
2480.13386	0.86264
2478.20529	0.86172
2476.27673	0.86036
2474.34816	0.85904
2472.41960	0.85824
2470.49103	0.85795
2468.56247	0.85733
2466.63391	0.85583
2464.70534	0.85431
2462.77678	0.85345
2460.84821	0.85274
2458.91965	0.85164
2456.99108	0.85031
2455.06252	0.84919
2453.13395	0.84833
2451.20539	0.84773
2449.27683	0.84733
2447.34826	0.84670
2445.41970	0.84571
2443.49113	0.84469
2441.56257	0.84361
2439.63400	0.84240
2437.70544	0.84117
2435.77687	0.83982
2433.84831	0.83839
2431.91975	0.83743
2429.99118	0.83704
2428.06262	0.83637
2426.13405	0.83508
2424.20549	0.83365
2422.27692	0.83232
2420.34836	0.83129
2418.41979	0.83067
2416.49123	0.83008
2414.56267	0.82923
2412.63410	0.82805
2410.70554	0.82667
2408.77697	0.82538
2406.84841	0.82442
2404.91984	0.82390
2402.99128	0.82360
2401.06271	0.82308
2399.13415	0.82238
2397.20559	0.82179
2395.27702	0.82128
2393.34846	0.82100
2391.41989	0.82099
2389.49133	0.82083
2387.56276	0.82048
2385.63420	0.82019
2383.70563	0.81986
2381.77707	0.81937
2379.84851	0.81902
2377.91994	0.81919
2375.99138	0.81946
2374.06281	0.81890
2372.13425	0.81758
2370.20568	0.81647
2368.27712	0.81543
2366.34855	0.81477
2364.41999	0.81576
2362.49143	0.81671
2360.56286	0.81613
2358.63430	0.81460
2356.70573	0.81175
2354.77717	0.80896
2352.84860	0.80741
2350.92004	0.80621
2348.99147	0.80510
2347.06291	0.80451
2345.13435	0.80451
2343.20578	0.80422
2341.27722	0.80364
2339.34865	0.80389
2337.42009	0.80400
2335.49152	0.80365
2333.56296	0.80405
2331.63440	0.80419
2329.70583	0.80290
2327.77727	0.80116
2325.84870	0.79991
2323.92014	0.79917
2321.99157	0.79803
2320.06301	0.79594
2318.13444	0.79385
2316.20588	0.79231
2314.27732	0.79095
2312.34875	0.78959
2310.42019	0.78807
2308.49162	0.78617
2306.56306	0.78387
2304.63449	0.78133
2302.70593	0.77896
2300.77736	0.77698
2298.84880	0.77502
2296.92024	0.77302
2294.99167	0.77136
2293.06311	0.76998
2291.13454	0.76851
2289.20598	0.76705
2287.27741	0.76608
2285.34885	0.76548
2283.42028	0.76470
2281.49172	0.76382
2279.56316	0.76341
2277.63459	0.76355
2275.70603	0.76377
2273.77746	0.76380
2271.84890	0.76387
2269.92033	0.76408
2267.99177	0.76427
2266.06320	0.76450
2264.13464	0.76481
2262.20608	0.76494
2260.27751	0.76478
2258.34895	0.76474
2256.42038	0.76496
2254.49182	0.76477
2252.56325	0.76380
2250.63469	0.76256
2248.70612	0.76150
2246.77756	0.76049
2244.84900	0.75923
2242.92043	0.75764
2240.99187	0.75590
2239.06330	0.75437
2237.13474	0.75292
2235.20617	0.75110
2233.27761	0.74899
2231.34904	0.74695
2229.42048	0.74524
2227.49192	0.74381
2225.56335	0.74235
2223.63479	0.74065
2221.70622	0.73878
2219.77766	0.73697
2217.84909	0.73546
2215.92053	0.73414
2213.99196	0.73267
2212.06340	0.73113
2210.13484	0.72993
2208.20627	0.72922
2206.27771	0.72884
2204.34914	0.72850
2202.42058	0.72807
2200.49201	0.72757
2198.56345	0.72708
2196.63488	0.72670
2194.70632	0.72663
2192.77776	0.72686
2190.84919	0.72698
2188.92063	0.72683
2186.99206	0.72659
2185.06350	0.72627
2183.13493	0.72577
2181.20637	0.72519
2179.27781	0.72475
2177.34924	0.72439
2175.42068	0.72389
2173.49211	0.72324
2171.56355	0.72245
2169.63498	0.72140
2167.70642	0.72023
2165.77785	0.71929
2163.84929	0.71872
2161.92073	0.71826
2159.99216	0.71769
2158.06360	0.71708
2156.13503	0.71659
2154.20647	0.71640
2152.27790	0.71644
2150.34934	0.71644
2148.42077	0.71633
2146.49221	0.71638
2144.56365	0.71671
2142.63508	0.71692
2140.70652	0.71688
2138.77795	0.71707
2136.84939	0.71760
2134.92082	0.71819
2132.99226	0.71855
2131.06369	0.71875
2129.13513	0.71904
2127.20657	0.71931
2125.27800	0.71930
2123.34944	0.71889
2121.42087	0.71808
2119.49231	0.71715
2117.56374	0.71617
2115.63518	0.71491
2113.70661	0.71326
2111.77805	0.71139
2109.84949	0.70924
2107.92092	0.70667
2105.99236	0.70394
2104.06379	0.70143
2102.13523	0.69903
2100.20666	0.69644
2098.27810	0.69370
2096.34953	0.69121
2094.42097	0.68916
2092.49241	0.68747
2090.56384	0.68595
2088.63528	0.68444
2086.70671	0.68294
2084.77815	0.68149
2082.84958	0.68035
2080.92102	0.67978
2078.99245	0.67957
2077.06389	0.67937
2075.13533	0.67924
2073.20676	0.67921
2071.27820	0.67921
2069.34963	0.67935
2067.42107	0.67975
2065.49250	0.68022
2063.56394	0.68055
2061.63537	0.68059
2059.70681	0.68036
2057.77825	0.68018
2055.84968	0.68026
2053.92112	0.68028
2051.99255	0.68001
2050.06399	0.67963
2048.13542	0.67916
2046.20686	0.67860
2044.27830	0.67814
2042.34973	0.67770
2040.42117	0.67700
2038.49260	0.67602
2036.56404	0.67506
2034.63547	0.67430
2032.70691	0.67363
2030.77834	0.67301
2028.84978	0.67262
2026.92122	0.67234
2024.99265	0.67188
2023.06409	0.67142
2021.13552	0.67138
2019.20696	0.67171
2017.27839	0.67190
2015.34983	0.67161
2013.42126	0.67132
2011.49270	0.67141
2009.56414	0.67161
2007.63557	0.67168
2005.70701	0.67170
2003.77844	0.67175
2001.84988	0.67181
1999.92131	0.67195
1997.99275	0.67216
1996.06418	0.67232
1994.13562	0.67231
1992.20706	0.67177
1990.27849	0.67060
1988.34993	0.66915
1986.42136	0.66752
1984.49280	0.66597
1982.56423	0.66473
1980.63567	0.66350
1978.70710	0.66189
1976.77854	0.66006
1974.84998	0.65833
1972.92141	0.65674
1970.99285	0.65534
1969.06428	0.65420
1967.13572	0.65291
1965.20715	0.65120
1963.27859	0.64947
1961.35002	0.64796
1959.42146	0.64675
1957.49290	0.64587
1955.56433	0.64504
1953.63577	0.64412
1951.70720	0.64346
1949.77864	0.64322
1947.85007	0.64326
1945.92151	0.64369
1943.99294	0.64452
1942.06438	0.64502
1940.13582	0.64506
1938.20725	0.64537
1936.27869	0.64612
1934.35012	0.64719
1932.42156	0.64839
1930.49299	0.64934
1928.56443	0.65008
1926.63586	0.65114
1924.70730	0.65284
1922.77874	0.65447
1920.85017	0.65540
1918.92161	0.65606
1916.99304	0.65623
1915.06448	0.65584
1913.13591	0.65578
1911.20735	0.65607
1909.27878	0.65595
1907.35022	0.65524
1905.42166	0.65432
1903.49309	0.65332
1901.56453	0.65223
1899.63596	0.65126
1897.70740	0.65066
1895.77883	0.65017
1893.85027	0.64945
1891.92171	0.64900
1889.99314	0.64872
1888.06458	0.64763
1886.13601	0.64623
1884.20745	0.64520
1882.27888	0.64450
1880.35032	0.64415
1878.42175	0.64404
1876.49319	0.64398
1874.56463	0.64406
1872.63606	0.64483
1870.70750	0.64665
1868.77893	0.64829
1866.85037	0.64779
1864.92180	0.64651
1862.99324	0.64614
1861.06467	0.64641
1859.13611	0.64665
1857.20755	0.64670
1855.27898	0.64672
1853.35042	0.64674
1851.42185	0.64683
1849.49329	0.64725
1847.56472	0.64788
1845.63616	0.64799
1843.70759	0.64624
1841.77903	0.64344
1839.85047	0.64137
1837.92190	0.63976
1835.99334	0.63795
1834.06477	0.63642
1832.13621	0.63591
1830.20764	0.63561
1828.27908	0.63436
1826.35051	0.63299
1824.42195	0.63185
1822.49339	0.63086
1820.56482	0.63067
1818.63626	0.63154
1816.70769	0.63274
1814.77913	0.63410
1812.85056	0.63630
1810.92200	0.63913
1808.99343	0.64121
1807.06487	0.64247
1805.13631	0.64409
1803.20774	0.64660
1801.27918	0.64945
1799.35061	0.65136
1797.42205	0.65243
1795.49348	0.65374
1793.56492	0.65549
1791.63635	0.65602
1789.70779	0.65444
1787.77923	0.65305
1785.85066	0.65263
1783.92210	0.65284
1781.99353	0.65328
1780.06497	0.65323
1778.13640	0.65289
1776.20784	0.65345
1774.27927	0.65531
1772.35071	0.65716
1770.42215	0.65717
1768.49358	0.65653
1766.56502	0.65645
1764.63645	0.65756
1762.70789	0.66012
1760.77932	0.66296
1758.85076	0.66545
1756.92220	0.66909
1754.99363	0.67363
1753.06507	0.67919
1751.13650	0.68830
1749.20794	0.69999
1747.27937	0.70910
1745.35081	0.71608
1743.42224	0.72293
1741.49368	0.72983
1739.56512	0.73610
1737.63655	0.74047
1735.70799	0.74403
1733.77942	0.74847
1731.85086	0.75077
1729.92229	0.75152
1727.99373	0.75312
1726.06516	0.75643
1724.13660	0.76194
1722.20804	0.76843
1720.27947	0.77590
1718.35091	0.78831
1716.42234	0.80490
1714.49378	0.81567
1712.56521	0.82466
1710.63665	0.83668
1708.70808	0.85239
1706.77952	0.87462
1704.85096	0.90228
1702.92239	0.92747
1700.99383	0.96318
1699.06526	1.01894
1697.13670	1.07023
1695.20813	1.11797
1693.27957	1.15295
1691.35100	1.18141
1689.42244	1.21650
1687.49388	1.24988
1685.56531	1.28411
1683.63675	1.33355
1681.70818	1.36720
1679.77962	1.38609
1677.85105	1.40489
1675.92249	1.42814
1673.99392	1.45305
1672.06536	1.47391
1670.13680	1.49578
1668.20823	1.51461
1666.27967	1.52398
1664.35110	1.53451
1662.42254	1.54923
1660.49397	1.55921
1658.56541	1.56421
1656.63684	1.56766
1654.70828	1.57028
1652.77972	1.56913
1650.85115	1.56895
1648.92259	1.57118
1646.99402	1.56923
1645.06546	1.56186
1643.13689	1.55589
1641.20833	1.55282
1639.27976	1.55195
1637.35120	1.55238
1635.42264	1.54961
1633.49407	1.54357
1631.56551	1.53832
1629.63694	1.53108
1627.70838	1.52137
1625.77981	1.51126
1623.85125	1.49837
1621.92269	1.48203
1619.99412	1.46832
1618.06556	1.45191
1616.13699	1.42272
1614.20843	1.39470
1612.27986	1.37225
1610.35130	1.34949
1608.42273	1.32748
1606.49417	1.30962
1604.56561	1.29540
1602.63704	1.28252
1600.70848	1.27188
1598.77991	1.26471
1596.85135	1.26004
1594.92278	1.25659
1592.99422	1.25431
1591.06565	1.25356
1589.13709	1.25510
1587.20853	1.26009
1585.27996	1.26855
1583.35140	1.27969
1581.42283	1.29209
1579.49427	1.30476
1577.56570	1.32142
1575.63714	1.34475
1573.70857	1.36154
1571.78001	1.37356
1569.85145	1.39071
1567.92288	1.40869
1565.99432	1.42220
1564.06575	1.43551
1562.13719	1.44684
1560.20862	1.45873
1558.28006	1.47786
1556.35149	1.48691
1554.42293	1.48968
1552.49437	1.49061
1550.56580	1.49050
1548.63724	1.48995
1546.70867	1.49091
1544.78011	1.49454
1542.85154	1.49704
1540.92298	1.48635
1538.99441	1.46693
1537.06585	1.46023
1535.13729	1.45669
1533.20872	1.44904
1531.28016	1.43954
1529.35159	1.43226
1527.42303	1.42631
1525.49446	1.42199
1523.56590	1.41862
1521.63733	1.41201
1519.70877	1.40557
1517.78021	1.39892
1515.85164	1.38601
1513.92308	1.37082
1511.99451	1.35689
1510.06595	1.34437
1508.13738	1.32398
1506.20882	1.28304
1504.28025	1.25895
1502.35169	1.24525
1500.42313	1.23060
1498.49456	1.21165
1496.56600	1.18759
1494.63743	1.16833
1492.70887	1.15701
1490.78030	1.14661
1488.85174	1.13095
1486.92317	1.11542
1484.99461	1.10533
1483.06605	1.09978
1481.13748	1.09723
1479.20892	1.09740
1477.28035	1.10183
1475.35179	1.11185
1473.42322	1.12695
1471.49466	1.13973
1469.56610	1.14622
1467.63753	1.15205
1465.70897	1.15980
1463.78040	1.16684
1461.85184	1.17117
1459.92327	1.17609
1457.99471	1.18459
1456.06614	1.19012
1454.13758	1.18980
1452.20902	1.18940
1450.28045	1.18949
1448.35189	1.18942
1446.42332	1.18833
1444.49476	1.18620
1442.56619	1.18357
1440.63763	1.18128
1438.70906	1.17938
1436.78050	1.17540
1434.85194	1.16846
1432.92337	1.16190
1430.99481	1.15600
1429.06624	1.15078
1427.13768	1.14752
1425.20911	1.14633
1423.28055	1.14657
1421.35198	1.14786
1419.42342	1.15015
1417.49486	1.15058
1415.56629	1.14774
1413.63773	1.14410
1411.70916	1.14073
1409.78060	1.13774
1407.85203	1.13533
1405.92347	1.13359
1403.99490	1.13193
1402.06634	1.13072
1400.13778	1.13054
1398.20921	1.13042
1396.28065	1.12902
1394.35208	1.12664
1392.42352	1.12581
1390.49495	1.12841
1388.56639	1.13551
1386.63782	1.14681
1384.70926	1.15820
1382.78070	1.16817
1380.85213	1.17624
1378.92357	1.18033
1376.99500	1.17976
1375.06644	1.17371
1373.13787	1.16236
1371.20931	1.14984
1369.28074	1.13643
1367.35218	1.12232
1365.42362	1.11078
1363.49505	1.10093
1361.56649	1.09087
1359.63792	1.08316
1357.70936	1.07884
1355.78079	1.07666
1353.85223	1.07561
1351.92366	1.07504
1349.99510	1.07439
1348.06654	1.07347
1346.13797	1.07262
1344.20941	1.07233
1342.28084	1.07290
1340.35228	1.07436
1338.42371	1.07573
1336.49515	1.07687
1334.56659	1.07956
1332.63802	1.08463
1330.70946	1.09077
1328.78089	1.09565
1326.85233	1.09827
1324.92376	1.09943
1322.99520	1.10037
1321.06663	1.10185
1319.13807	1.10365
1317.20951	1.10531
1315.28094	1.10698
1313.35238	1.10867
1311.42381	1.11016
1309.49525	1.11174
1307.56668	1.11353
1305.63812	1.11492
1303.70955	1.11558
1301.78099	1.11587
1299.85243	1.11600
1297.92386	1.11554
1295.99530	1.11467
1294.06673	1.11431
1292.13817	1.11502
1290.20960	1.11665
1288.28104	1.11840
1286.35247	1.11931
1284.42391	1.11907
1282.49535	1.11802
1280.56678	1.11656
1278.63822	1.11476
1276.70965	1.11291
1274.78109	1.11193
1272.85252	1.11227
1270.92396	1.11323
1268.99539	1.11424
1267.06683	1.11508
1265.13827	1.11517
1263.20970	1.11410
1261.28114	1.11178
1259.35257	1.10856
1257.42401	1.10542
1255.49544	1.10315
1253.56688	1.10202
1251.63831	1.10214
1249.70975	1.10316
1247.78119	1.10477
1245.85262	1.10731
1243.92406	1.11063
1241.99549	1.11367
1240.06693	1.11602
1238.13836	1.11823
1236.20980	1.12035
1234.28123	1.12157
1232.35267	1.12154
1230.42411	1.12044
1228.49554	1.11830
1226.56698	1.11536
1224.63841	1.11178
1222.70985	1.10706
1220.78128	1.10093
1218.85272	1.09380
1216.92415	1.08645
1214.99559	1.08007
1213.06703	1.07549
1211.13846	1.07269
1209.20990	1.07077
1207.28133	1.06764
1205.35277	1.06116
1203.42420	1.05122
1201.49564	1.03918
1199.56708	1.02636
1197.63851	1.01358
1195.70995	1.00139
1193.78138	0.99026
1191.85282	0.98086
1189.92425	0.97410
1187.99569	0.97028
1186.06712	0.96904
1184.13856	0.97033
1182.21000	0.97432
1180.28143	0.98103
1178.35287	0.99050
1176.42430	1.00262
1174.49574	1.01660
1172.56717	1.03138
1170.63861	1.04703
1168.71004	1.06415
1166.78148	1.08260
1164.85292	1.10172
1162.92435	1.11966
1160.99579	1.13365
1159.06722	1.14129
1157.13866	1.14192
1155.21009	1.13693
1153.28153	1.12784
1151.35296	1.11586
1149.42440	1.10202
1147.49584	1.08681
1145.56727	1.07202
1143.63871	1.06002
1141.71014	1.05152
1139.78158	1.04629
1137.85301	1.04365
1135.92445	1.04343
1133.99588	1.04672
1132.06732	1.05390
1130.13876	1.06481
1128.21019	1.07933
1126.28163	1.09593
1124.35306	1.11213
1122.42450	1.12643
1120.49593	1.13871
1118.56737	1.14890
1116.63880	1.15685
1114.71024	1.16221
1112.78168	1.16455
1110.85311	1.16489
1108.92455	1.16477
1106.99598	1.16485
1105.06742	1.16534
1103.13885	1.16679
1101.21029	1.16970
1099.28172	1.17387
1097.35316	1.17972
1095.42460	1.18773
1093.49603	1.19706
1091.56747	1.20726
1089.63890	1.21884
1087.71034	1.23180
1085.78177	1.24576
1083.85321	1.25956
1081.92464	1.27148
1079.99608	1.28052
1078.06752	1.28486
1076.13895	1.28326
1074.21039	1.27664
1072.28182	1.26540
1070.35326	1.25063
1068.42469	1.23534
1066.49613	1.22222
1064.56756	1.21176
1062.63900	1.20169
1060.71044	1.19086
1058.78187	1.18139
1056.85331	1.17469
1054.92474	1.17026
1052.99618	1.16801
1051.06761	1.16794
1049.13905	1.16968
1047.21049	1.17334
1045.28192	1.18000
1043.35336	1.19043
1041.42479	1.20342
1039.49623	1.21611
1037.56766	1.22622
1035.63910	1.23372
1033.71053	1.24015
1031.78197	1.24550
1029.85341	1.24746
1027.92484	1.24465
1025.99628	1.23858
1024.06771	1.23042
1022.13915	1.21946
1020.21058	1.20696
1018.28202	1.19538
1016.35345	1.18410
1014.42489	1.17070
1012.49633	1.15367
1010.56776	1.13314
1008.63920	1.11026
1006.71063	1.08602
1004.78207	1.06160
1002.85350	1.03860
1000.92494	1.01872
998.99637	1.00317
997.06781	0.99167
995.13925	0.98323
993.21068	0.97692
991.28212	0.97112
989.35355	0.96479
987.42499	0.95815
985.49642	0.95182
983.56786	0.94703
981.63929	0.94441
979.71073	0.94303
977.78217	0.94176
975.85360	0.93988
973.92504	0.93666
971.99647	0.93149
970.06791	0.92433
968.13934	0.91579
966.21078	0.90672
964.28221	0.89827
962.35365	0.89229
960.42509	0.89045
958.49652	0.89274
956.56796	0.89626
954.63939	0.89624
952.71083	0.88951
950.78226	0.87627
948.85370	0.85934
946.92513	0.84191
944.99657	0.82599
943.06801	0.81255
941.13944	0.80160
939.21088	0.79241
937.28231	0.78467
935.35375	0.77860
933.42518	0.77425
931.49662	0.77143
929.56805	0.77013
927.63949	0.77058
925.71093	0.77293
923.78236	0.77675
921.85380	0.78103
919.92523	0.78497
917.99667	0.78843
916.06810	0.79173
914.13954	0.79542
912.21098	0.79993
910.28241	0.80538
908.35385	0.81172
906.42528	0.81910
904.49672	0.82730
902.56815	0.83493
900.63959	0.84062
898.71102	0.84405
896.78246	0.84522
894.85390	0.84457
892.92533	0.84262
890.99677	0.83925
889.06820	0.83481
887.13964	0.83043
885.21107	0.82651
883.28251	0.82258
881.35394	0.81913
879.42538	0.81691
877.49682	0.81550
875.56825	0.81445
873.63969	0.81402
871.71112	0.81422
869.78256	0.81454
867.85399	0.81490
865.92543	0.81554
863.99686	0.81662
862.06830	0.81855
860.13974	0.82154
858.21117	0.82494
856.28261	0.82818
854.35404	0.83130
852.42548	0.83425
850.49691	0.83662
848.56835	0.83826
846.63978	0.83907
844.71122	0.83937
842.78266	0.84013
840.85409	0.84156
838.92553	0.84289
836.99696	0.84337
835.06840	0.84305
833.13983	0.84251
831.21127	0.84198
829.28270	0.84132
827.35414	0.84080
825.42558	0.84085
823.49701	0.84099
821.56845	0.84084
819.63988	0.84144
817.71132	0.84353
815.78275	0.84660
813.85419	0.85007
811.92562	0.85399
809.99706	0.85823
808.06850	0.86250
806.13993	0.86718
804.21137	0.87236
802.28280	0.87756
800.35424	0.88302
798.42567	0.88920
796.49711	0.89564
794.56854	0.90205
792.63998	0.90868
790.71142	0.91489
788.78285	0.92014
786.85429	0.92516
784.92572	0.93016
782.99716	0.93469
781.06859	0.93887
779.14003	0.94217
777.21147	0.94441
775.28290	0.94651
773.35434	0.94805
771.42577	0.94802
769.49721	0.94743
767.56864	0.94739
765.64008	0.94716
763.71151	0.94647
761.78295	0.94614
759.85439	0.94628
757.92582	0.94643
755.99726	0.94668
754.06869	0.94792
752.14013	0.95056
750.21156	0.95382
748.28300	0.95734
746.35443	0.96141
744.42587	0.96560
742.49731	0.96925
740.56874	0.97236
738.64018	0.97523
736.71161	0.97822
734.78305	0.98239
732.85448	0.98841
730.92592	0.99473
728.99735	0.99940
727.06879	1.00297
725.14023	1.00702
723.21166	1.01184
721.28310	1.01643
719.35453	1.01884
717.42597	1.01853
715.49740	1.01722
713.56884	1.01555
711.64027	1.01323
709.71171	1.01035
707.78315	1.00685
705.85458	1.00315
703.92602	0.99988
701.99745	0.99654
700.06889	0.99226
698.14032	0.98720
696.21176	0.98261
694.28319	0.97946
692.35463	0.97755
690.42607	0.97593
688.49750	0.97454
686.56894	0.97471
684.64037	0.97653
682.71181	0.97877
680.78324	0.98157
678.85468	0.98635
676.92611	0.99266
674.99755	0.99840
673.06899	1.00357
671.14042	1.00924
669.21186	1.01759
667.28329	1.02903
665.35473	1.03678
663.42616	1.04233
661.49760	1.04764
659.56903	1.05234
657.64047	1.05593
655.71191	1.05825
653.78334	1.05969
651.85478	1.05988
649.92621	1.05828
647.99765	1.05593
646.06908	1.05419
644.14052	1.05176
642.21195	1.04724
640.28339	1.04317
638.35483	1.04064
636.42626	1.03600
634.49770	1.02828
632.56913	1.02071
630.64057	1.01411
628.71200	1.00880
626.78344	1.00643
624.85488	1.00540
622.92631	1.00351
620.99775	1.00236
619.06918	1.00315
617.14062	1.00582
615.21205	1.01023
613.28349	1.01462
611.35492	1.01778
609.42636	1.02166
607.49780	1.02812
605.56923	1.03584
603.64067	1.04209
601.71210	1.04480
599.78354	1.04503
