3997.91406	1.16230
3995.98550	1.16280
3994.05693	1.16346
3992.12837	1.16274
3990.19980	1.16220
3988.27124	1.16286
3986.34268	1.16224
3984.41411	1.15989
3982.48555	1.15851
3980.55698	1.15900
3978.62842	1.15942
3976.69985	1.15888
3974.77129	1.15776
3972.84272	1.15622
3970.91416	1.15497
3968.98560	1.15462
3967.05703	1.15438
3965.12847	1.15296
3963.19990	1.15085
3961.27134	1.15008
3959.34277	1.15047
3957.41421	1.15133
3955.48564	1.15290
3953.55708	1.15292
3951.62852	1.15052
3949.69995	1.14899
3947.77139	1.14944
3945.84282	1.15033
3943.91426	1.15098
3941.98569	1.14954
3940.05713	1.14630
3938.12856	1.14520
3936.20000	1.14757
3934.27144	1.15172
3932.34287	1.15549
3930.41431	1.15641
3928.48574	1.15457
3926.55718	1.15261
3924.62861	1.15240
3922.70005	1.15312
3920.77148	1.15264
3918.84292	1.15135
3916.91436	1.15045
3914.98579	1.14915
3913.05723	1.14741
3911.12866	1.14696
3909.20010	1.14815
3907.27153	1.14960
3905.34297	1.15008
3903.41440	1.14849
3901.48584	1.14663
3899.55728	1.14576
3897.62871	1.14389
3895.70015	1.14268
3893.77158	1.14437
3891.84302	1.14614
3889.91445	1.14383
3887.98589	1.14097
3886.05733	1.14064
3884.12876	1.14090
3882.20020	1.13984
3880.27163	1.13925
3878.34307	1.13816
3876.41450	1.13559
3874.48594	1.13480
3872.55737	1.13701
3870.62881	1.13665
3868.70025	1.13303
3866.77168	1.13144
3864.84312	1.13176
3862.91455	1.13195
3860.98599	1.13169
3859.05742	1.13159
3857.12886	1.13183
3855.20029	1.13198
3853.27173	1.13085
3851.34317	1.12831
3849.41460	1.12483
3847.48604	1.12201
3845.55747	1.12210
3843.62891	1.12468
3841.70034	1.12637
3839.77178	1.12505
3837.84321	1.12204
3835.91465	1.11964
3833.98609	1.11847
3832.05752	1.11907
3830.12896	1.11931
3828.20039	1.11712
3826.27183	1.11453
3824.34326	1.11399
3822.41470	1.11749
3820.48613	1.12221
3818.55757	1.11913
3816.62901	1.11332
3814.70044	1.11246
3812.77188	1.11481
3810.84331	1.11619
3808.91475	1.11461
3806.98618	1.11159
3805.05762	1.11231
3803.12905	1.11710
3801.20049	1.12057
3799.27193	1.11686
3797.34336	1.11149
3795.41480	1.10987
3793.48623	1.11165
3791.55767	1.11268
3789.62910	1.11068
3787.70054	1.10754
3785.77197	1.10492
3783.84341	1.10322
3781.91485	1.10384
3779.98628	1.10601
3778.05772	1.10627
3776.12915	1.10430
3774.20059	1.10199
3772.27202	1.10055
3770.34346	1.10035
3768.41489	1.09907
3766.48633	1.09650
3764.55777	1.09559
3762.62920	1.09597
3760.70064	1.09670
3758.77207	1.09745
3756.84351	1.09505
3754.91494	1.08973
3752.98638	1.08624
3751.05781	1.09097
3749.12925	1.09890
3747.20069	1.10154
3745.27212	1.10126
3743.34356	1.09915
3741.41499	1.09681
3739.48643	1.09580
3737.55786	1.09641
3735.62930	1.09681
3733.70074	1.09386
3731.77217	1.08925
3729.84361	1.08634
3727.91504	1.08568
3725.98648	1.08553
3724.05791	1.08385
3722.12935	1.08153
3720.20078	1.08086
3718.27222	1.08183
3716.34366	1.08302
3714.41509	1.08424
3712.48653	1.08591
3710.55796	1.08552
3708.62940	1.08266
3706.70083	1.08191
3704.77227	1.08384
3702.84370	1.08519
3700.91514	1.08225
3698.98658	1.07836
3697.05801	1.07832
3695.12945	1.08094
3693.20088	1.08323
3691.27232	1.08477
3689.34375	1.08488
3687.41519	1.08290
3685.48662	1.08196
3683.55806	1.08305
3681.62950	1.08486
3679.70093	1.08633
3677.77237	1.08783
3675.84380	1.09128
3673.91524	1.09442
3671.98667	1.09507
3670.05811	1.09689
3668.12954	1.09931
3666.20098	1.10039
3664.27242	1.10170
3662.34385	1.10397
3660.41529	1.10646
3658.48672	1.10925
3656.55816	1.11429
3654.62959	1.11874
3652.70103	1.11977
3650.77246	1.12156
3648.84390	1.13006
3646.91534	1.13723
3644.98677	1.13940
3643.05821	1.14049
3641.12964	1.14044
3639.20108	1.13957
3637.27251	1.14098
3635.34395	1.14579
3633.41538	1.15101
3631.48682	1.15476
3629.55826	1.16168
3627.62969	1.17041
3625.70113	1.17309
3623.77256	1.17339
3621.84400	1.17485
3619.91543	1.17937
3617.98687	1.18445
3616.05830	1.18862
3614.12974	1.19275
3612.20118	1.19528
3610.27261	1.19829
3608.34405	1.20358
3606.41548	1.20784
3604.48692	1.21040
3602.55835	1.21361
3600.62979	1.21657
3598.70123	1.21722
3596.77266	1.21731
3594.84410	1.21939
3592.91553	1.22279
3590.98697	1.22501
3589.05840	1.22798
3587.12984	1.23520
3585.20127	1.24244
3583.27271	1.24637
3581.34415	1.24905
3579.41558	1.25274
3577.48702	1.25698
3575.55845	1.26085
3573.62989	1.26563
3571.70132	1.27060
3569.77276	1.27333
3567.84419	1.27468
3565.91563	1.27792
3563.98707	1.28090
3562.05850	1.28233
3560.12994	1.28399
3558.20137	1.28750
3556.27281	1.29219
3554.34424	1.29528
3552.41568	1.29658
3550.48711	1.29987
3548.55855	1.30765
3546.62999	1.31768
3544.70142	1.32417
3542.77286	1.32663
3540.84429	1.32947
3538.91573	1.33372
3536.98716	1.33696
3535.05860	1.33796
3533.13003	1.33923
3531.20147	1.34227
3529.27291	1.34635
3527.34434	1.35181
3525.41578	1.35879
3523.48721	1.36489
3521.55865	1.36867
3519.63008	1.37136
3517.70152	1.37513
3515.77295	1.38148
3513.84439	1.38872
3511.91583	1.39399
3509.98726	1.39841
3508.05870	1.40404
3506.13013	1.40847
3504.20157	1.41196
3502.27300	1.41686
3500.34444	1.42047
3498.41587	1.42341
3496.48731	1.42943
3494.55875	1.43659
3492.63018	1.44139
3490.70162	1.44476
3488.77305	1.44862
3486.84449	1.45175
3484.91592	1.45253
3482.98736	1.45368
3481.05879	1.45685
3479.13023	1.45860
3477.20167	1.45786
3475.27310	1.45776
3473.34454	1.46115
3471.41597	1.46705
3469.48741	1.47002
3467.55884	1.46787
3465.63028	1.46618
3463.70171	1.46863
3461.77315	1.47182
3459.84459	1.47396
3457.91602	1.47735
3455.98746	1.48114
3454.05889	1.48471
3452.13033	1.49013
3450.20176	1.49527
3448.27320	1.49578
3446.34464	1.49208
3444.41607	1.48883
3442.48751	1.48917
3440.55894	1.49290
3438.63038	1.49798
3436.70181	1.50221
3434.77325	1.50314
3432.84468	1.50072
3430.91612	1.49917
3428.98756	1.49944
3427.05899	1.49782
3425.13043	1.49503
3423.20186	1.49606
3421.27330	1.50288
3419.34473	1.51182
3417.41617	1.51825
3415.48760	1.52037
3413.55904	1.51932
3411.63048	1.51739
3409.70191	1.51495
3407.77335	1.51465
3405.84478	1.51898
3403.91622	1.52351
3401.98765	1.52503
3400.05909	1.52722
3398.13052	1.53106
3396.20196	1.53162
3394.27340	1.52708
3392.34483	1.52164
3390.41627	1.52087
3388.48770	1.52591
3386.55914	1.52964
3384.63057	1.52600
3382.70201	1.52098
3380.77344	1.52103
3378.84488	1.52256
3376.91632	1.52218
3374.98775	1.52147
3373.05919	1.52204
3371.13062	1.52484
3369.20206	1.52670
3367.27349	1.52398
3365.34493	1.52023
3363.41636	1.52054
3361.48780	1.52607
3359.55924	1.53334
3357.63067	1.53606
3355.70211	1.53255
3353.77354	1.52898
3351.84498	1.53069
3349.91641	1.53448
3347.98785	1.53578
3346.05928	1.53685
3344.13072	1.53975
3342.20216	1.54096
3340.27359	1.53996
3338.34503	1.54070
3336.41646	1.54320
3334.48790	1.54510
3332.55933	1.54668
3330.63077	1.54898
3328.70220	1.55258
3326.77364	1.55781
3324.84508	1.56270
3322.91651	1.56577
3320.98795	1.56803
3319.05938	1.56839
3317.13082	1.56760
3315.20225	1.56940
3313.27369	1.57258
3311.34513	1.57408
3309.41656	1.57527
3307.48800	1.57820
3305.55943	1.58135
3303.63087	1.58393
3301.70230	1.58890
3299.77374	1.59489
3297.84517	1.59602
3295.91661	1.59275
3293.98805	1.58896
3292.05948	1.58719
3290.13092	1.59098
3288.20235	1.59703
3286.27379	1.59649
3284.34522	1.58935
3282.41666	1.58266
3280.48809	1.58022
3278.55953	1.58093
3276.63097	1.58408
3274.70240	1.58711
3272.77384	1.58270
3270.84527	1.57384
3268.91671	1.57037
3266.98814	1.57020
3265.05958	1.56782
3263.13101	1.56527
3261.20245	1.56402
3259.27389	1.56179
3257.34532	1.55863
3255.41676	1.55600
3253.48819	1.55217
3251.55963	1.54585
3249.63106	1.53840
3247.70250	1.53046
3245.77393	1.52411
3243.84537	1.52137
3241.91681	1.51893
3239.98824	1.51448
3238.05968	1.51010
3236.13111	1.50524
3234.20255	1.49915
3232.27398	1.49497
3230.34542	1.49361
3228.41685	1.49311
3226.48829	1.49266
3224.55973	1.49135
3222.63116	1.48927
3220.70260	1.48761
3218.77403	1.48580
3216.84547	1.48331
3214.91690	1.47955
3212.98834	1.47389
3211.05977	1.46888
3209.13121	1.46625
3207.20265	1.46426
3205.27408	1.46189
3203.34552	1.45928
3201.41695	1.45632
3199.48839	1.45267
3197.55982	1.44870
3195.63126	1.44658
3193.70269	1.44619
3191.77413	1.44392
3189.84557	1.43923
3187.91700	1.43478
3185.98844	1.43109
3184.05987	1.42752
3182.13131	1.42390
3180.20274	1.41945
3178.27418	1.41403
3176.34562	1.40926
3174.41705	1.40585
3172.48849	1.40215
3170.55992	1.39708
3168.63136	1.39243
3166.70279	1.38906
3164.77423	1.38582
3162.84566	1.38346
3160.91710	1.38163
3158.98854	1.37865
3157.05997	1.37639
3155.13141	1.37604
3153.20284	1.37515
3151.27428	1.37269
3149.34571	1.37013
3147.41715	1.36928
3145.48858	1.36896
3143.56002	1.36586
3141.63146	1.36150
3139.70289	1.35885
3137.77433	1.35761
3135.84576	1.35841
3133.91720	1.36099
3131.98863	1.36235
3130.06007	1.36150
3128.13150	1.36020
3126.20294	1.36025
3124.27438	1.36114
3122.34581	1.36125
3120.41725	1.36028
3118.48868	1.35808
3116.56012	1.35643
3114.63155	1.35749
3112.70299	1.35933
3110.77442	1.36019
3108.84586	1.36104
3106.91730	1.36214
3104.98873	1.36232
3103.06017	1.36142
3101.13160	1.36147
3099.20304	1.36310
3097.27447	1.36375
3095.34591	1.36136
3093.41734	1.35750
3091.48878	1.35551
3089.56022	1.35467
3087.63165	1.35180
3085.70309	1.34730
3083.77452	1.34323
3081.84596	1.34068
3079.91739	1.34045
3077.98883	1.34085
3076.06026	1.33879
3074.13170	1.33488
3072.20314	1.33201
3070.27457	1.33075
3068.34601	1.32936
3066.41744	1.32669
3064.48888	1.32372
3062.56031	1.32168
3060.63175	1.31996
3058.70318	1.31738
3056.77462	1.31347
3054.84606	1.30910
3052.91749	1.30590
3050.98893	1.30363
3049.06036	1.30061
3047.13180	1.29713
3045.20323	1.29478
3043.27467	1.29292
3041.34610	1.28976
3039.41754	1.28574
3037.48898	1.28301
3035.56041	1.28187
3033.63185	1.28124
3031.70328	1.28096
3029.77472	1.28055
3027.84615	1.27892
3025.91759	1.27618
3023.98903	1.27334
3022.06046	1.27102
3020.13190	1.26901
3018.20333	1.26693
3016.27477	1.26539
3014.34620	1.26526
3012.41764	1.26510
3010.48907	1.26355
3008.56051	1.26242
3006.63195	1.26237
3004.70338	1.26172
3002.77482	1.26012
3000.84625	1.25900
2998.91769	1.25951
2996.98912	1.26059
2995.06056	1.26094
2993.13199	1.26231
2991.20343	1.26582
2989.27487	1.26879
2987.34630	1.27067
2985.41774	1.27387
2983.48917	1.27787
2981.56061	1.28081
2979.63204	1.28297
2977.70348	1.28556
2975.77491	1.28949
2973.84635	1.29465
2971.91779	1.30052
2969.98922	1.30682
2968.06066	1.31290
2966.13209	1.31820
2964.20353	1.32307
2962.27496	1.32704
2960.34640	1.32860
2958.41783	1.32761
2956.48927	1.32471
2954.56071	1.32066
2952.63214	1.31624
2950.70358	1.31147
2948.77501	1.30762
2946.84645	1.30701
2944.91788	1.31014
2942.98932	1.31619
2941.06075	1.32442
2939.13219	1.33285
2937.20363	1.33988
2935.27506	1.34817
2933.34650	1.36107
2931.41793	1.37674
2929.48937	1.39052
2927.56080	1.40065
2925.63224	1.40988
2923.70367	1.42193
2921.77511	1.43396
2919.84655	1.43937
2917.91798	1.43660
2915.98942	1.42465
2914.06085	1.40315
2912.13229	1.37826
2910.20372	1.35677
2908.27516	1.34122
2906.34659	1.33102
2904.41803	1.32385
2902.48947	1.31786
2900.56090	1.31252
2898.63234	1.30704
2896.70377	1.30125
2894.77521	1.29620
2892.84664	1.29148
2890.91808	1.28680
2888.98952	1.28299
2887.06095	1.27923
2885.13239	1.27506
2883.20382	1.27169
2881.27526	1.27027
2879.34669	1.27101
2877.41813	1.27133
2875.48956	1.26866
2873.56100	1.26438
2871.63244	1.26027
2869.70387	1.25586
2867.77531	1.25093
2865.84674	1.24736
2863.91818	1.24721
2861.98961	1.25027
2860.06105	1.25583
2858.13248	1.26431
2856.20392	1.27553
2854.27536	1.28823
2852.34679	1.30126
2850.41823	1.30990
2848.48966	1.30378
2846.56110	1.28081
2844.63253	1.25271
2842.70397	1.22923
2840.77540	1.21236
2838.84684	1.20077
2836.91828	1.19235
2834.98971	1.18578
2833.06115	1.18060
2831.13258	1.17647
2829.20402	1.17318
2827.27545	1.17054
2825.34689	1.16832
2823.41832	1.16627
2821.48976	1.16431
2819.56120	1.16217
2817.63263	1.15953
2815.70407	1.15701
2813.77550	1.15547
2811.84694	1.15463
2809.91837	1.15333
2807.98981	1.15094
2806.06124	1.14840
2804.13268	1.14661
2802.20412	1.14503
2800.27555	1.14298
2798.34699	1.14056
2796.41842	1.13821
2794.48986	1.13586
2792.56129	1.13321
2790.63273	1.13046
2788.70416	1.12797
2786.77560	1.12546
2784.84704	1.12276
2782.91847	1.12103
2780.98991	1.12033
2779.06134	1.11845
2777.13278	1.11521
2775.20421	1.11249
2773.27565	1.11064
2771.34708	1.10892
2769.41852	1.10724
2767.48996	1.10564
2765.56139	1.10379
2763.63283	1.10173
2761.70426	1.09949
2759.77570	1.09685
2757.84713	1.09415
2755.91857	1.09217
2753.99001	1.09120
2752.06144	1.09044
2750.13288	1.08927
2748.20431	1.08830
2746.27575	1.08769
2744.34718	1.08659
2742.41862	1.08492
2740.49005	1.08323
2738.56149	1.08157
2736.63293	1.07993
2734.70436	1.07860
2732.77580	1.07778
2730.84723	1.07726
2728.91867	1.07672
2726.99010	1.07634
2725.06154	1.07575
2723.13297	1.07475
2721.20441	1.07423
2719.27585	1.07406
2717.34728	1.07302
2715.41872	1.07120
2713.49015	1.06961
2711.56159	1.06846
2709.63302	1.06692
2707.70446	1.06469
2705.77589	1.06283
2703.84733	1.06200
2701.91877	1.06161
2699.99020	1.06110
2698.06164	1.06055
2696.13307	1.06028
2694.20451	1.06026
2692.27594	1.05964
2690.34738	1.05801
2688.41881	1.05633
2686.49025	1.05521
2684.56169	1.05421
2682.63312	1.05313
2680.70456	1.05219
2678.77599	1.05133
2676.84743	1.05059
2674.91886	1.05002
2672.99030	1.04905
2671.06173	1.04758
2669.13317	1.04630
2667.20461	1.04542
2665.27604	1.04456
2663.34748	1.04339
2661.41891	1.04227
2659.49035	1.04189
2657.56178	1.04181
2655.63322	1.04115
2653.70465	1.04007
2651.77609	1.03927
2649.84753	1.03857
2647.91896	1.03734
2645.99040	1.03626
2644.06183	1.03595
2642.13327	1.03554
2640.20470	1.03477
2638.27614	1.03419
2636.34757	1.03381
2634.41901	1.03354
2632.49045	1.03339
2630.56188	1.03274
2628.63332	1.03153
2626.70475	1.03079
2624.77619	1.03049
2622.84762	1.02991
2620.91906	1.02931
2618.99049	1.02874
2617.06193	1.02770
2615.13337	1.02640
2613.20480	1.02539
2611.27624	1.02453
2609.34767	1.02313
2607.41911	1.02135
2605.49054	1.01982
2603.56198	1.01870
2601.63342	1.01779
2599.70485	1.01665
2597.77629	1.01514
2595.84772	1.01380
2593.91916	1.01294
2591.99059	1.01225
2590.06203	1.01127
2588.13346	1.00989
2586.20490	1.00836
2584.27634	1.00682
2582.34777	1.00536
2580.41921	1.00396
2578.49064	1.00248
2576.56208	1.00090
2574.63351	0.99919
2572.70495	0.99769
2570.77638	0.99694
2568.84782	0.99682
2566.91926	0.99674
2564.99069	0.99603
2563.06213	0.99474
2561.13356	0.99341
2559.20500	0.99198
2557.27643	0.99064
2555.34787	0.98979
2553.41930	0.98878
2551.49074	0.98729
2549.56218	0.98592
2547.63361	0.98534
2545.70505	0.98546
2543.77648	0.98514
2541.84792	0.98397
2539.91935	0.98283
2537.99079	0.98184
2536.06222	0.98046
2534.13366	0.97915
2532.20510	0.97872
2530.27653	0.97904
2528.34797	0.97929
2526.41940	0.97874
2524.49084	0.97749
2522.56227	0.97631
2520.63371	0.97529
2518.70514	0.97405
2516.77658	0.97281
2514.84802	0.97199
2512.91945	0.97139
2510.99089	0.97075
2509.06232	0.97002
2507.13376	0.96932
2505.20519	0.96869
2503.27663	0.96777
2501.34806	0.96653
2499.41950	0.96523
2497.49094	0.96387
2495.56237	0.96265
2493.63381	0.96169
2491.70524	0.96066
2489.77668	0.95964
2487.84811	0.95886
2485.91955	0.95787
2483.99098	0.95642
2482.06242	0.95505
2480.13386	0.95401
2478.20529	0.95300
2476.27673	0.95200
2474.34816	0.95121
2472.41960	0.95042
2470.49103	0.94928
2468.56247	0.94803
2466.63391	0.94703
2464.70534	0.94634
2462.77678	0.94582
2460.84821	0.94511
2458.91965	0.94389
2456.99108	0.94275
2455.06252	0.94214
2453.13395	0.94133
2451.20539	0.94009
2449.27683	0.93905
2447.34826	0.93835
2445.41970	0.93744
2443.49113	0.93625
2441.56257	0.93551
2439.63400	0.93497
2437.70544	0.93392
2435.77687	0.93271
2433.84831	0.93190
2431.91975	0.93116
2429.99118	0.93008
2428.06262	0.92897
2426.13405	0.92818
2424.20549	0.92755
2422.27692	0.92705
2420.34836	0.92663
2418.41979	0.92588
2416.49123	0.92468
2414.56267	0.92339
2412.63410	0.92235
2410.70554	0.92133
2408.77697	0.92005
2406.84841	0.91880
2404.91984	0.91800
2402.99128	0.91750
2401.06271	0.91691
2399.13415	0.91621
2397.20559	0.91561
2395.27702	0.91516
2393.34846	0.91460
2391.41989	0.91355
2389.49133	0.91220
2387.56276	0.91095
2385.63420	0.90998
2383.70563	0.90903
2381.77707	0.90747
2379.84851	0.90582
2377.91994	0.90485
2375.99138	0.90371
2374.06281	0.90212
2372.13425	0.90109
2370.20568	0.89928
2368.27712	0.89512
2366.34855	0.89077
2364.41999	0.88790
2362.49143	0.88579
2360.56286	0.88467
2358.63430	0.88539
2356.70573	0.88689
2354.77717	0.88859
2352.84860	0.89083
2350.92004	0.89133
2348.99147	0.88933
2347.06291	0.88632
2345.13435	0.88377
2343.20578	0.88178
2341.27722	0.87962
2339.34865	0.87850
2337.42009	0.87899
2335.49152	0.87927
2333.56296	0.87818
2331.63440	0.87673
2329.70583	0.87588
2327.77727	0.87556
2325.84870	0.87561
2323.92014	0.87561
2321.99157	0.87506
2320.06301	0.87421
2318.13444	0.87340
2316.20588	0.87246
2314.27732	0.87137
2312.34875	0.87042
2310.42019	0.86946
2308.49162	0.86856
2306.56306	0.86813
2304.63449	0.86768
2302.70593	0.86649
2300.77736	0.86504
2298.84880	0.86446
2296.92024	0.86479
2294.99167	0.86515
2293.06311	0.86492
2291.13454	0.86418
2289.20598	0.86329
2287.27741	0.86239
2285.34885	0.86175
2283.42028	0.86166
2281.49172	0.86165
2279.56316	0.86124
2277.63459	0.86075
2275.70603	0.86058
2273.77746	0.86046
2271.84890	0.85995
2269.92033	0.85908
2267.99177	0.85851
2266.06320	0.85849
2264.13464	0.85857
2262.20608	0.85846
2260.27751	0.85797
2258.34895	0.85705
2256.42038	0.85611
2254.49182	0.85537
2252.56325	0.85439
2250.63469	0.85312
2248.70612	0.85219
2246.77756	0.85172
2244.84900	0.85112
2242.92043	0.85022
2240.99187	0.84917
2239.06330	0.84800
2237.13474	0.84681
2235.20617	0.84570
2233.27761	0.84448
2231.34904	0.84324
2229.42048	0.84236
2227.49192	0.84178
2225.56335	0.84111
2223.63479	0.84026
2221.70622	0.83933
2219.77766	0.83831
2217.84909	0.83723
2215.92053	0.83640
2213.99196	0.83581
2212.06340	0.83518
2210.13484	0.83462
2208.20627	0.83435
2206.27771	0.83391
2204.34914	0.83311
2202.42058	0.83264
2200.49201	0.83259
2198.56345	0.83217
2196.63488	0.83116
2194.70632	0.82996
2192.77776	0.82897
2190.84919	0.82809
2188.92063	0.82714
2186.99206	0.82611
2185.06350	0.82489
2183.13493	0.82344
2181.20637	0.82204
2179.27781	0.82070
2177.34924	0.81929
2175.42068	0.81790
2173.49211	0.81656
2171.56355	0.81516
2169.63498	0.81357
2167.70642	0.81185
2165.77785	0.81034
2163.84929	0.80901
2161.92073	0.80746
2159.99216	0.80578
2158.06360	0.80437
2156.13503	0.80332
2154.20647	0.80238
2152.27790	0.80149
2150.34934	0.80067
2148.42077	0.79984
2146.49221	0.79910
2144.56365	0.79862
2142.63508	0.79810
2140.70652	0.79738
2138.77795	0.79684
2136.84939	0.79656
2134.92082	0.79637
2132.99226	0.79630
2131.06369	0.79618
2129.13513	0.79587
2127.20657	0.79555
2125.27800	0.79528
2123.34944	0.79482
2121.42087	0.79420
2119.49231	0.79368
2117.56374	0.79339
2115.63518	0.79310
2113.70661	0.79255
2111.77805	0.79186
2109.84949	0.79129
2107.92092	0.79074
2105.99236	0.78998
2104.06379	0.78896
2102.13523	0.78759
2100.20666	0.78603
2098.27810	0.78456
2096.34953	0.78313
2094.42097	0.78164
2092.49241	0.78035
2090.56384	0.77935
2088.63528	0.77834
2086.70671	0.77703
2084.77815	0.77553
2082.84958	0.77396
2080.92102	0.77228
2078.99245	0.77066
2077.06389	0.76923
2075.13533	0.76788
2073.20676	0.76656
2071.27820	0.76518
2069.34963	0.76377
2067.42107	0.76257
2065.49250	0.76157
2063.56394	0.76048
2061.63537	0.75922
2059.70681	0.75801
2057.77825	0.75707
2055.84968	0.75624
2053.92112	0.75520
2051.99255	0.75406
2050.06399	0.75300
2048.13542	0.75198
2046.20686	0.75111
2044.27830	0.75048
2042.34973	0.74991
2040.42117	0.74907
2038.49260	0.74800
2036.56404	0.74704
2034.63547	0.74624
2032.70691	0.74545
2030.77834	0.74471
2028.84978	0.74392
2026.92122	0.74300
2024.99265	0.74207
2023.06409	0.74116
2021.13552	0.74017
2019.20696	0.73906
2017.27839	0.73791
2015.34983	0.73678
2013.42126	0.73570
2011.49270	0.73470
2009.56414	0.73373
2007.63557	0.73264
2005.70701	0.73137
2003.77844	0.72999
2001.84988	0.72870
1999.92131	0.72767
1997.99275	0.72679
1996.06418	0.72587
1994.13562	0.72513
1992.20706	0.72459
1990.27849	0.72380
1988.34993	0.72279
1986.42136	0.72190
1984.49280	0.72109
1982.56423	0.72024
1980.63567	0.71944
1978.70710	0.71870
1976.77854	0.71795
1974.84998	0.71736
1972.92141	0.71696
1970.99285	0.71661
1969.06428	0.71648
1967.13572	0.71645
1965.20715	0.71605
1963.27859	0.71541
1961.35002	0.71492
1959.42146	0.71438
1957.49290	0.71350
1955.56433	0.71257
1953.63577	0.71183
1951.70720	0.71109
1949.77864	0.71018
1947.85007	0.70915
1945.92151	0.70821
1943.99294	0.70734
1942.06438	0.70600
1940.13582	0.70401
1938.20725	0.70186
1936.27869	0.69989
1934.35012	0.69812
1932.42156	0.69635
1930.49299	0.69440
1928.56443	0.69247
1926.63586	0.69092
1924.70730	0.68981
1922.77874	0.68862
1920.85017	0.68722
1918.92161	0.68621
1916.99304	0.68549
1915.06448	0.68455
1913.13591	0.68383
1911.20735	0.68377
1909.27878	0.68402
1907.35022	0.68407
1905.42166	0.68408
1903.49309	0.68438
1901.56453	0.68487
1899.63596	0.68530
1897.70740	0.68564
1895.77883	0.68601
1893.85027	0.68637
1891.92171	0.68686
1889.99314	0.68752
1888.06458	0.68763
1886.13601	0.68699
1884.20745	0.68610
1882.27888	0.68520
1880.35032	0.68430
1878.42175	0.68311
1876.49319	0.68159
1874.56463	0.67997
1872.63606	0.67866
1870.70750	0.67782
1868.77893	0.67668
1866.85037	0.67418
1864.92180	0.67136
1862.99324	0.66909
1861.06467	0.66708
1859.13611	0.66506
1857.20755	0.66330
1855.27898	0.66191
1853.35042	0.66053
1851.42185	0.65910
1849.49329	0.65805
1847.56472	0.65746
1845.63616	0.65714
1843.70759	0.65647
1841.77903	0.65506
1839.85047	0.65380
1837.92190	0.65322
1835.99334	0.65295
1834.06477	0.65262
1832.13621	0.65268
1830.20764	0.65350
1828.27908	0.65408
1826.35051	0.65386
1824.42195	0.65346
1822.49339	0.65289
1820.56482	0.65229
1818.63626	0.65204
1816.70769	0.65196
1814.77913	0.65196
1812.85056	0.65236
1810.92200	0.65310
1808.99343	0.65355
1807.06487	0.65356
1805.13631	0.65372
1803.20774	0.65467
1801.27918	0.65645
1799.35061	0.65805
1797.42205	0.65888
1795.49348	0.65936
1793.56492	0.66042
1791.63635	0.66236
1789.70779	0.66325
1787.77923	0.66342
1785.85066	0.66425
1783.92210	0.66561
1781.99353	0.66694
1780.06497	0.66804
1778.13640	0.66847
1776.20784	0.66856
1774.27927	0.66939
1772.35071	0.67097
1770.42215	0.67133
1768.49358	0.67064
1766.56502	0.67002
1764.63645	0.66999
1762.70789	0.67130
1760.77932	0.67351
1758.85076	0.67550
1756.92220	0.67831
1754.99363	0.68173
1753.06507	0.68564
1751.13650	0.69243
1749.20794	0.70192
1747.27937	0.70972
1745.35081	0.71591
1743.42224	0.72223
1741.49368	0.72892
1739.56512	0.73550
1737.63655	0.74012
1735.70799	0.74383
1733.77942	0.75007
1731.85086	0.75509
1729.92229	0.75768
1727.99373	0.76068
1726.06516	0.76470
1724.13660	0.77038
1722.20804	0.77657
1720.27947	0.78264
1718.35091	0.79214
1716.42234	0.80634
1714.49378	0.81644
1712.56521	0.82334
1710.63665	0.83099
1708.70808	0.84082
1706.77952	0.85536
1704.85096	0.87302
1702.92239	0.88795
1700.99383	0.90895
1699.06526	0.94128
1697.13670	0.96852
1695.20813	0.99128
1693.27957	1.00687
1691.35100	1.01979
1689.42244	1.03650
1687.49388	1.05182
1685.56531	1.06728
1683.63675	1.09222
1681.70818	1.11026
1679.77962	1.12004
1677.85105	1.12966
1675.92249	1.14320
1673.99392	1.15845
1672.06536	1.16989
1670.13680	1.18339
1668.20823	1.19880
1666.27967	1.20843
1664.35110	1.21850
1662.42254	1.23285
1660.49397	1.24394
1658.56541	1.24953
1656.63684	1.25265
1654.70828	1.25557
1652.77972	1.26111
1650.85115	1.26436
1648.92259	1.26526
1646.99402	1.26551
1645.06546	1.26477
1643.13689	1.26353
1641.20833	1.26295
1639.27976	1.26327
1637.35120	1.26455
1635.42264	1.26541
1633.49407	1.26371
1631.56551	1.26182
1629.63694	1.26015
1627.70838	1.25786
1625.77981	1.25390
1623.85125	1.24707
1621.92269	1.23791
1619.99412	1.22965
1618.06556	1.22017
1616.13699	1.20505
1614.20843	1.19013
1612.27986	1.17758
1610.35130	1.16515
1608.42273	1.15305
1606.49417	1.14257
1604.56561	1.13440
1602.63704	1.12799
1600.70848	1.12300
1598.77991	1.11948
1596.85135	1.11689
1594.92278	1.11478
1592.99422	1.11355
1591.06565	1.11352
1589.13709	1.11464
1587.20853	1.11692
1585.27996	1.12040
1583.35140	1.12517
1581.42283	1.13082
1579.49427	1.13700
1577.56570	1.14577
1575.63714	1.15727
1573.70857	1.16375
1571.78001	1.16783
1569.85145	1.17515
1567.92288	1.18328
1565.99432	1.18934
1564.06575	1.19550
1562.13719	1.20089
1560.20862	1.20781
1558.28006	1.22158
1556.35149	1.22800
1554.42293	1.23028
1552.49437	1.23291
1550.56580	1.23569
1548.63724	1.23733
1546.70867	1.23805
1544.78011	1.23920
1542.85154	1.24001
1540.92298	1.23874
1538.99441	1.23564
1537.06585	1.23350
1535.13729	1.23197
1533.20872	1.22968
1531.28016	1.22629
1529.35159	1.22338
1527.42303	1.22145
1525.49446	1.22088
1523.56590	1.22176
1521.63733	1.22187
1519.70877	1.22005
1517.78021	1.21760
1515.85164	1.21362
1513.92308	1.20784
1511.99451	1.20153
1510.06595	1.19659
1508.13738	1.19049
1506.20882	1.17203
1504.28025	1.15618
1502.35169	1.14581
1500.42313	1.13567
1498.49456	1.12395
1496.56600	1.10905
1494.63743	1.09470
1492.70887	1.08389
1490.78030	1.07290
1488.85174	1.05858
1486.92317	1.04590
1484.99461	1.03704
1483.06605	1.03028
1481.13748	1.02498
1479.20892	1.02209
1477.28035	1.02243
1475.35179	1.02649
1473.42322	1.03496
1471.49466	1.04318
1469.56610	1.04708
1467.63753	1.05010
1465.70897	1.05457
1463.78040	1.05902
1461.85184	1.06081
1459.92327	1.06172
1457.99471	1.06485
1456.06614	1.06778
1454.13758	1.06682
1452.20902	1.06515
1450.28045	1.06394
1448.35189	1.06305
1446.42332	1.06164
1444.49476	1.05957
1442.56619	1.05702
1440.63763	1.05412
1438.70906	1.05103
1436.78050	1.04653
1434.85194	1.03986
1432.92337	1.03305
1430.99481	1.02644
1429.06624	1.02023
1427.13768	1.01562
1425.20911	1.01313
1423.28055	1.01244
1421.35198	1.01258
1419.42342	1.01356
1417.49486	1.01457
1415.56629	1.01440
1413.63773	1.01399
1411.70916	1.01371
1409.78060	1.01356
1407.85203	1.01397
1405.92347	1.01508
1403.99490	1.01586
1402.06634	1.01591
1400.13778	1.01628
1398.20921	1.01722
1396.28065	1.01841
1394.35208	1.01989
1392.42352	1.02131
1390.49495	1.02345
1388.56639	1.02823
1386.63782	1.03504
1384.70926	1.04061
1382.78070	1.04522
1380.85213	1.04950
1378.92357	1.05201
1376.99500	1.05194
1375.06644	1.04870
1373.13787	1.04169
1371.20931	1.03350
1369.28074	1.02529
1367.35218	1.01671
1365.42362	1.00925
1363.49505	1.00309
1361.56649	0.99739
1359.63792	0.99286
1357.70936	0.99011
1355.78079	0.98879
1353.85223	0.98808
1351.92366	0.98747
1349.99510	0.98724
1348.06654	0.98732
1346.13797	0.98746
1344.20941	0.98784
1342.28084	0.98877
1340.35228	0.99076
1338.42371	0.99330
1336.49515	0.99525
1334.56659	0.99739
1332.63802	1.00070
1330.70946	1.00445
1328.78089	1.00732
1326.85233	1.00898
1324.92376	1.00960
1322.99520	1.00965
1321.06663	1.01003
1319.13807	1.01078
1317.20951	1.01118
1315.28094	1.01136
1313.35238	1.01170
1311.42381	1.01163
1309.49525	1.01085
1307.56668	1.00989
1305.63812	1.00917
1303.70955	1.00861
1301.78099	1.00792
1299.85243	1.00698
1297.92386	1.00582
1295.99530	1.00498
1294.06673	1.00500
1292.13817	1.00575
1290.20960	1.00694
1288.28104	1.00861
1286.35247	1.01067
1284.42391	1.01258
1282.49535	1.01400
1280.56678	1.01528
1278.63822	1.01676
1276.70965	1.01835
1274.78109	1.02022
1272.85252	1.02289
1270.92396	1.02627
1268.99539	1.02965
1267.06683	1.03245
1265.13827	1.03467
1263.20970	1.03659
1261.28114	1.03831
1259.35257	1.03963
1257.42401	1.04063
1255.49544	1.04170
1253.56688	1.04276
1251.63831	1.04379
1249.70975	1.04490
1247.78119	1.04579
1245.85262	1.04640
1243.92406	1.04704
1241.99549	1.04757
1240.06693	1.04748
1238.13836	1.04662
1236.20980	1.04514
1234.28123	1.04307
1232.35267	1.04041
1230.42411	1.03709
1228.49554	1.03343
1226.56698	1.02994
1224.63841	1.02640
1222.70985	1.02246
1220.78128	1.01843
1218.85272	1.01462
1216.92415	1.01112
1214.99559	1.00850
1213.06703	1.00725
1211.13846	1.00705
1209.20990	1.00715
1207.28133	1.00667
1205.35277	1.00496
1203.42420	1.00201
1201.49564	0.99815
1199.56708	0.99380
1197.63851	0.98974
1195.70995	0.98678
1193.78138	0.98482
1191.85282	0.98323
1189.92425	0.98199
1187.99569	0.98112
1186.06712	0.98061
1184.13856	0.98079
1182.21000	0.98137
1180.28143	0.98237
1178.35287	0.98471
1176.42430	0.98826
1174.49574	0.99192
1172.56717	0.99527
1170.63861	0.99907
1168.71004	1.00380
1166.78148	1.00882
1164.85292	1.01342
1162.92435	1.01731
1160.99579	1.01986
1159.06722	1.01993
1157.13866	1.01691
1155.21009	1.01131
1153.28153	1.00423
1151.35296	0.99646
1149.42440	0.98839
1147.49584	0.98098
1145.56727	0.97532
1143.63871	0.97145
1141.71014	0.96906
1139.78158	0.96829
1137.85301	0.96928
1135.92445	0.97126
1133.99588	0.97333
1132.06732	0.97621
1130.13876	0.98134
1128.21019	0.98825
1126.28163	0.99533
1124.35306	1.00173
1122.42450	1.00726
1120.49593	1.01159
1118.56737	1.01397
1116.63880	1.01454
1114.71024	1.01439
1112.78168	1.01314
1110.85311	1.01014
1108.92455	1.00668
1106.99598	1.00372
1105.06742	1.00093
1103.13885	0.99898
1101.21029	0.99855
1099.28172	0.99915
1097.35316	1.00084
1095.42460	1.00367
1093.49603	1.00668
1091.56747	1.00988
1089.63890	1.01384
1087.71034	1.01813
1085.78177	1.02259
1083.85321	1.02697
1081.92464	1.03021
1079.99608	1.03216
1078.06752	1.03285
1076.13895	1.03190
1074.21039	1.02977
1072.28182	1.02657
1070.35326	1.02175
1068.42469	1.01542
1066.49613	1.00821
1064.56756	1.00125
1062.63900	0.99530
1060.71044	0.98955
1058.78187	0.98352
1056.85331	0.97826
1054.92474	0.97464
1052.99618	0.97261
1051.06761	0.97154
1049.13905	0.97068
1047.21049	0.97055
1045.28192	0.97234
1043.35336	0.97614
1041.42479	0.98090
1039.49623	0.98512
1037.56766	0.98772
1035.63910	0.98888
1033.71053	0.98936
1031.78197	0.98926
1029.85341	0.98813
1027.92484	0.98603
1025.99628	0.98346
1024.06771	0.98059
1022.13915	0.97741
1020.21058	0.97411
1018.28202	0.97086
1016.35345	0.96750
1014.42489	0.96345
1012.49633	0.95803
1010.56776	0.95121
1008.63920	0.94385
1006.71063	0.93669
1004.78207	0.93004
1002.85350	0.92388
1000.92494	0.91828
998.99637	0.91344
997.06781	0.90930
995.13925	0.90580
993.21068	0.90306
991.28212	0.90059
989.35355	0.89774
987.42499	0.89449
985.49642	0.89158
983.56786	0.88965
981.63929	0.88870
979.71073	0.88836
977.78217	0.88803
975.85360	0.88709
973.92504	0.88534
971.99647	0.88302
970.06791	0.88036
968.13934	0.87763
966.21078	0.87513
964.28221	0.87321
962.35365	0.87284
960.42509	0.87498
958.49652	0.87943
956.56796	0.88439
954.63939	0.88767
952.71083	0.88845
950.78226	0.88711
948.85370	0.88456
946.92513	0.88210
944.99657	0.88060
943.06801	0.87989
941.13944	0.87949
939.21088	0.87901
937.28231	0.87841
935.35375	0.87804
933.42518	0.87777
931.49662	0.87703
929.56805	0.87585
927.63949	0.87475
925.71093	0.87417
923.78236	0.87390
921.85380	0.87294
919.92523	0.87093
917.99667	0.86862
916.06810	0.86641
914.13954	0.86410
912.21098	0.86166
910.28241	0.85945
908.35385	0.85807
906.42528	0.85770
904.49672	0.85792
902.56815	0.85822
900.63959	0.85865
898.71102	0.85929
896.78246	0.85966
894.85390	0.85965
892.92533	0.85956
890.99677	0.85957
889.06820	0.85987
887.13964	0.86043
885.21107	0.86109
883.28251	0.86184
881.35394	0.86264
879.42538	0.86347
877.49682	0.86464
875.56825	0.86605
873.63969	0.86713
871.71112	0.86815
869.78256	0.86987
867.85399	0.87185
865.92543	0.87335
863.99686	0.87448
862.06830	0.87544
860.13974	0.87625
858.21117	0.87717
856.28261	0.87828
854.35404	0.87953
852.42548	0.88086
850.49691	0.88181
848.56835	0.88165
846.63978	0.88025
844.71122	0.87833
842.78266	0.87631
840.85409	0.87398
838.92553	0.87119
836.99696	0.86828
835.06840	0.86562
833.13983	0.86279
831.21127	0.85926
829.28270	0.85558
827.35414	0.85258
825.42558	0.85009
823.49701	0.84754
821.56845	0.84505
819.63988	0.84266
817.71132	0.84014
815.78275	0.83780
813.85419	0.83616
811.92562	0.83547
809.99706	0.83561
808.06850	0.83594
806.13993	0.83595
804.21137	0.83587
802.28280	0.83632
800.35424	0.83789
798.42567	0.84052
796.49711	0.84356
794.56854	0.84669
792.63998	0.85016
790.71142	0.85442
788.78285	0.85958
786.85429	0.86527
784.92572	0.87123
782.99716	0.87722
781.06859	0.88258
779.14003	0.88707
777.21147	0.89136
775.28290	0.89605
773.35434	0.90096
771.42577	0.90534
769.49721	0.90862
767.56864	0.91135
765.64008	0.91430
763.71151	0.91668
761.78295	0.91761
759.85439	0.91743
757.92582	0.91656
755.99726	0.91525
754.06869	0.91349
752.14013	0.91097
750.21156	0.90797
748.28300	0.90513
746.35443	0.90234
744.42587	0.89899
742.49731	0.89476
740.56874	0.89052
738.64018	0.88763
736.71161	0.88558
734.78305	0.88322
732.85448	0.88105
730.92592	0.87990
728.99735	0.87955
727.06879	0.87939
725.14023	0.87916
723.21166	0.87984
721.28310	0.88233
719.35453	0.88500
717.42597	0.88629
715.49740	0.88783
713.56884	0.89099
711.64027	0.89471
709.71171	0.89831
707.78315	0.90233
705.85458	0.90681
703.92602	0.91151
701.99745	0.91623
700.06889	0.91959
698.14032	0.92059
696.21176	0.92092
694.28319	0.92217
692.35463	0.92360
690.42607	0.92432
688.49750	0.92478
686.56894	0.92482
684.64037	0.92317
682.71181	0.92029
680.78324	0.91758
678.85468	0.91518
676.92611	0.91249
674.99755	0.90881
673.06899	0.90505
671.14042	0.90235
669.21186	0.89877
667.28329	0.89217
665.35473	0.88733
663.42616	0.88423
661.49760	0.88081
659.56903	0.87638
657.64047	0.87132
655.71191	0.86668
653.78334	0.86278
651.85478	0.85908
649.92621	0.85512
647.99765	0.85143
646.06908	0.84909
644.14052	0.84841
642.21195	0.84924
640.28339	0.85102
638.35483	0.85266
636.42626	0.85351
634.49770	0.85389
632.56913	0.85400
630.64057	0.85394
628.71200	0.85500
626.78344	0.85757
624.85488	0.86019
622.92631	0.86157
620.99775	0.86188
619.06918	0.86321
617.14062	0.86663
615.21205	0.86986
613.28349	0.87217
611.35492	0.87496
609.42636	0.87778
607.49780	0.88027
605.56923	0.88389
603.64067	0.88844
601.71210	0.89214
599.78354	0.89562
