3997.91406	1.11086
3995.98550	1.11204
3994.05693	1.11204
3992.12837	1.11038
3990.19980	1.10822
3988.27124	1.10833
3986.34268	1.10997
3984.41411	1.11041
3982.48555	1.10858
3980.55698	1.10631
3978.62842	1.10601
3976.69985	1.10689
3974.77129	1.10621
3972.84272	1.10402
3970.91416	1.10327
3968.98560	1.10412
3967.05703	1.10388
3965.12847	1.10279
3963.19990	1.10239
3961.27134	1.10262
3959.34277	1.10322
3957.41421	1.10356
3955.48564	1.10251
3953.55708	1.10024
3951.62852	1.09845
3949.69995	1.09803
3947.77139	1.09764
3945.84282	1.09643
3943.91426	1.09516
3941.98569	1.09501
3940.05713	1.09534
3938.12856	1.09501
3936.20000	1.09556
3934.27144	1.09718
3932.34287	1.09615
3930.41431	1.09292
3928.48574	1.09290
3926.55718	1.09571
3924.62861	1.09706
3922.70005	1.09686
3920.77148	1.09698
3918.84292	1.09567
3916.91436	1.09294
3914.98579	1.09144
3913.05723	1.09101
3911.12866	1.09086
3909.20010	1.09126
3907.27153	1.09288
3905.34297	1.09560
3903.41440	1.09768
3901.48584	1.09683
3899.55728	1.09339
3897.62871	1.09087
3895.70015	1.09094
3893.77158	1.09149
3891.84302	1.08919
3889.91445	1.08696
3887.98589	1.08939
3886.05733	1.09223
3884.12876	1.09056
3882.20020	1.08742
3880.27163	1.08344
3878.34307	1.08107
3876.41450	1.08285
3874.48594	1.08660
3872.55737	1.08883
3870.62881	1.08642
3868.70025	1.08169
3866.77168	1.07958
3864.84312	1.07766
3862.91455	1.07353
3860.98599	1.07035
3859.05742	1.07065
3857.12886	1.07372
3855.20029	1.07566
3853.27173	1.07226
3851.34317	1.06923
3849.41460	1.06919
3847.48604	1.07143
3845.55747	1.07525
3843.62891	1.07745
3841.70034	1.07665
3839.77178	1.07515
3837.84321	1.07371
3835.91465	1.07188
3833.98609	1.07041
3832.05752	1.07059
3830.12896	1.07183
3828.20039	1.07115
3826.27183	1.06865
3824.34326	1.06836
3822.41470	1.06939
3820.48613	1.06713
3818.55757	1.06485
3816.62901	1.06325
3814.70044	1.06072
3812.77188	1.05999
3810.84331	1.06109
3808.91475	1.06164
3806.98618	1.06085
3805.05762	1.06208
3803.12905	1.06354
3801.20049	1.06030
3799.27193	1.05668
3797.34336	1.05485
3795.41480	1.05307
3793.48623	1.05290
3791.55767	1.05409
3789.62910	1.05484
3787.70054	1.05462
3785.77197	1.05350
3783.84341	1.05322
3781.91485	1.05558
3779.98628	1.05684
3778.05772	1.05333
3776.12915	1.04998
3774.20059	1.05018
3772.27202	1.05161
3770.34346	1.05157
3768.41489	1.05262
3766.48633	1.05475
3764.55777	1.05354
3762.62920	1.05111
3760.70064	1.05052
3758.77207	1.05022
3756.84351	1.05055
3754.91494	1.05377
3752.98638	1.05750
3751.05781	1.05444
3749.12925	1.04800
3747.20069	1.04844
3745.27212	1.05237
3743.34356	1.05295
3741.41499	1.05228
3739.48643	1.05326
3737.55786	1.05396
3735.62930	1.05205
3733.70074	1.04831
3731.77217	1.04664
3729.84361	1.04723
3727.91504	1.04727
3725.98648	1.04588
3724.05791	1.04580
3722.12935	1.04645
3720.20078	1.04618
3718.27222	1.04692
3716.34366	1.04878
3714.41509	1.05085
3712.48653	1.05233
3710.55796	1.05075
3708.62940	1.04725
3706.70083	1.04501
3704.77227	1.04468
3702.84370	1.04494
3700.91514	1.04453
3698.98658	1.04564
3697.05801	1.04903
3695.12945	1.05186
3693.20088	1.05314
3691.27232	1.05420
3689.34375	1.05251
3687.41519	1.04992
3685.48662	1.05160
3683.55806	1.05517
3681.62950	1.05812
3679.70093	1.06111
3677.77237	1.06425
3675.84380	1.06348
3673.91524	1.06178
3671.98667	1.06423
3670.05811	1.06778
3668.12954	1.07118
3666.20098	1.07489
3664.27242	1.07810
3662.34385	1.08106
3660.41529	1.08493
3658.48672	1.08955
3656.55816	1.09538
3654.62959	1.10295
3652.70103	1.11208
3650.77246	1.12427
3648.84390	1.13248
3646.91534	1.12780
3644.98677	1.12382
3643.05821	1.12491
3641.12964	1.12902
3639.20108	1.13354
3637.27251	1.13892
3635.34395	1.14709
3633.41538	1.15574
3631.48682	1.16089
3629.55826	1.16456
3627.62969	1.16993
3625.70113	1.17487
3623.77256	1.18007
3621.84400	1.18611
3619.91543	1.19096
3617.98687	1.19617
3616.05830	1.20531
3614.12974	1.21378
3612.20118	1.21841
3610.27261	1.22289
3608.34405	1.22933
3606.41548	1.23718
3604.48692	1.24529
3602.55835	1.25216
3600.62979	1.25591
3598.70123	1.25834
3596.77266	1.26437
3594.84410	1.27470
3592.91553	1.28484
3590.98697	1.29266
3589.05840	1.30063
3587.12984	1.30829
3585.20127	1.31426
3583.27271	1.32021
3581.34415	1.32528
3579.41558	1.32981
3577.48702	1.33515
3575.55845	1.34076
3573.62989	1.34831
3571.70132	1.35947
3569.77276	1.37168
3567.84419	1.37997
3565.91563	1.38010
3563.98707	1.37988
3562.05850	1.38422
3560.12994	1.39072
3558.20137	1.39839
3556.27281	1.40565
3554.34424	1.41200
3552.41568	1.41993
3550.48711	1.42777
3548.55855	1.43528
3546.62999	1.44460
3544.70142	1.45129
3542.77286	1.45290
3540.84429	1.45375
3538.91573	1.45766
3536.98716	1.46726
3535.05860	1.48071
3533.13003	1.49211
3531.20147	1.49867
3529.27291	1.50287
3527.34434	1.51043
3525.41578	1.52065
3523.48721	1.52884
3521.55865	1.53622
3519.63008	1.54204
3517.70152	1.54417
3515.77295	1.54860
3513.84439	1.55919
3511.91583	1.57003
3509.98726	1.57817
3508.05870	1.58639
3506.13013	1.59636
3504.20157	1.60767
3502.27300	1.61529
3500.34444	1.61751
3498.41587	1.61627
3496.48731	1.61480
3494.55875	1.62159
3492.63018	1.63339
3490.70162	1.63862
3488.77305	1.64055
3486.84449	1.64660
3484.91592	1.65280
3482.98736	1.65701
3481.05879	1.66056
3479.13023	1.66071
3477.20167	1.66068
3475.27310	1.66870
3473.34454	1.68294
3471.41597	1.69028
3469.48741	1.68861
3467.55884	1.68887
3465.63028	1.69201
3463.70171	1.69344
3461.77315	1.69579
3459.84459	1.70028
3457.91602	1.70346
3455.98746	1.70649
3454.05889	1.71453
3452.13033	1.72512
3450.20176	1.72984
3448.27320	1.72833
3446.34464	1.72709
3444.41607	1.72768
3442.48751	1.73118
3440.55894	1.73956
3438.63038	1.74637
3436.70181	1.74719
3434.77325	1.74832
3432.84468	1.75328
3430.91612	1.75687
3428.98756	1.75617
3427.05899	1.75275
3425.13043	1.74780
3423.20186	1.74422
3421.27330	1.74390
3419.34473	1.74457
3417.41617	1.74384
3415.48760	1.74218
3413.55904	1.74320
3411.63048	1.74772
3409.70191	1.75059
3407.77335	1.75000
3405.84478	1.75159
3403.91622	1.75838
3401.98765	1.76637
3400.05909	1.77279
3398.13052	1.77536
3396.20196	1.77022
3394.27340	1.76294
3392.34483	1.76159
3390.41627	1.76461
3388.48770	1.76922
3386.55914	1.77503
3384.63057	1.77927
3382.70201	1.78086
3380.77344	1.78142
3378.84488	1.78107
3376.91632	1.78156
3374.98775	1.78569
3373.05919	1.79001
3371.13062	1.78821
3369.20206	1.78021
3367.27349	1.77219
3365.34493	1.77177
3363.41636	1.78056
3361.48780	1.78958
3359.55924	1.78820
3357.63067	1.77809
3355.70211	1.76910
3353.77354	1.76845
3351.84498	1.77767
3349.91641	1.78882
3347.98785	1.79153
3346.05928	1.79030
3344.13072	1.79611
3342.20216	1.80608
3340.27359	1.80978
3338.34503	1.80767
3336.41646	1.80639
3334.48790	1.80659
3332.55933	1.80766
3330.63077	1.81122
3328.70220	1.81569
3326.77364	1.81689
3324.84508	1.81672
3322.91651	1.82111
3320.98795	1.82637
3319.05938	1.82502
3317.13082	1.82211
3315.20225	1.82390
3313.27369	1.82536
3311.34513	1.82392
3309.41656	1.82305
3307.48800	1.82178
3305.55943	1.81975
3303.63087	1.82073
3301.70230	1.82463
3299.77374	1.82730
3297.84517	1.82852
3295.91661	1.82937
3293.98805	1.82693
3292.05948	1.82354
3290.13092	1.82449
3288.20235	1.82581
3286.27379	1.82156
3284.34522	1.81427
3282.41666	1.81115
3280.48809	1.81429
3278.55953	1.81810
3276.63097	1.81791
3274.70240	1.81454
3272.77384	1.80845
3270.84527	1.80034
3268.91671	1.79682
3266.98814	1.80102
3265.05958	1.80667
3263.13101	1.80757
3261.20245	1.80051
3259.27389	1.78706
3257.34532	1.77933
3255.41676	1.78367
3253.48819	1.78604
3251.55963	1.77688
3249.63106	1.76744
3247.70250	1.76603
3245.77393	1.76953
3243.84537	1.77236
3241.91681	1.77051
3239.98824	1.76280
3238.05968	1.75366
3236.13111	1.75012
3234.20255	1.75011
3232.27398	1.74567
3230.34542	1.73761
3228.41685	1.73173
3226.48829	1.72865
3224.55973	1.72732
3222.63116	1.72849
3220.70260	1.72891
3218.77403	1.72566
3216.84547	1.72095
3214.91690	1.71510
3212.98834	1.71029
3211.05977	1.71132
3209.13121	1.71650
3207.20265	1.71831
3205.27408	1.71176
3203.34552	1.70249
3201.41695	1.69926
3199.48839	1.69981
3197.55982	1.69602
3195.63126	1.68856
3193.70269	1.68396
3191.77413	1.68294
3189.84557	1.68233
3187.91700	1.68062
3185.98844	1.67787
3184.05987	1.67579
3182.13131	1.67483
3180.20274	1.67213
3178.27418	1.66678
3176.34562	1.66139
3174.41705	1.65633
3172.48849	1.65129
3170.55992	1.64753
3168.63136	1.64469
3166.70279	1.64334
3164.77423	1.64356
3162.84566	1.64105
3160.91710	1.63561
3158.98854	1.63235
3157.05997	1.63167
3155.13141	1.63003
3153.20284	1.62750
3151.27428	1.62461
3149.34571	1.61915
3147.41715	1.61432
3145.48858	1.61500
3143.56002	1.61548
3141.63146	1.60980
3139.70289	1.60409
3137.77433	1.60343
3135.84576	1.60374
3133.91720	1.60172
3131.98863	1.59947
3130.06007	1.59926
3128.13150	1.60212
3126.20294	1.60722
3124.27438	1.60935
3122.34581	1.60661
3120.41725	1.60275
3118.48868	1.59901
3116.56012	1.59595
3114.63155	1.59454
3112.70299	1.59508
3110.77442	1.59729
3108.84586	1.59817
3106.91730	1.59730
3104.98873	1.59702
3103.06017	1.59739
3101.13160	1.59807
3099.20304	1.59744
3097.27447	1.59449
3095.34591	1.59273
3093.41734	1.59417
3091.48878	1.59463
3089.56022	1.59160
3087.63165	1.58849
3085.70309	1.58658
3083.77452	1.58408
3081.84596	1.58131
3079.91739	1.57989
3077.98883	1.58128
3076.06026	1.58390
3074.13170	1.58262
3072.20314	1.57718
3070.27457	1.57247
3068.34601	1.56989
3066.41744	1.56812
3064.48888	1.56679
3062.56031	1.56571
3060.63175	1.56436
3058.70318	1.56146
3056.77462	1.55726
3054.84606	1.55302
3052.91749	1.54903
3050.98893	1.54624
3049.06036	1.54497
3047.13180	1.54307
3045.20323	1.53964
3043.27467	1.53549
3041.34610	1.52971
3039.41754	1.52351
3037.48898	1.52092
3035.56041	1.52178
3033.63185	1.52165
3031.70328	1.51771
3029.77472	1.51186
3027.84615	1.50707
3025.91759	1.50335
3023.98903	1.49998
3022.06046	1.49734
3020.13190	1.49570
3018.20333	1.49323
3016.27477	1.48818
3014.34620	1.48295
3012.41764	1.48021
3010.48907	1.47872
3008.56051	1.47724
3006.63195	1.47568
3004.70338	1.47258
3002.77482	1.46918
3000.84625	1.46913
2998.91769	1.47186
2996.98912	1.47465
2995.06056	1.47640
2993.13199	1.47773
2991.20343	1.48045
2989.27487	1.48487
2987.34630	1.49099
2985.41774	1.49889
2983.48917	1.50734
2981.56061	1.51608
2979.63204	1.52469
2977.70348	1.53213
2975.77491	1.53950
2973.84635	1.54811
2971.91779	1.55710
2969.98922	1.56429
2968.06066	1.56868
2966.13209	1.57226
2964.20353	1.57637
2962.27496	1.57989
2960.34640	1.58169
2958.41783	1.57994
2956.48927	1.57295
2954.56071	1.56349
2952.63214	1.55749
2950.70358	1.55679
2948.77501	1.55833
2946.84645	1.56075
2944.91788	1.56410
2942.98932	1.56827
2941.06075	1.57519
2939.13219	1.58361
2937.20363	1.59026
2935.27506	1.59682
2933.34650	1.60485
2931.41793	1.61338
2929.48937	1.62231
2927.56080	1.63089
2925.63224	1.63681
2923.70367	1.63996
2921.77511	1.64348
2919.84655	1.64526
2917.91798	1.63831
2915.98942	1.62144
2914.06085	1.59796
2912.13229	1.57180
2910.20372	1.54842
2908.27516	1.53231
2906.34659	1.52409
2904.41803	1.51876
2902.48947	1.51009
2900.56090	1.49936
2898.63234	1.49166
2896.70377	1.48701
2894.77521	1.48315
2892.84664	1.47980
2890.91808	1.47623
2888.98952	1.47196
2887.06095	1.46950
2885.13239	1.46880
2883.20382	1.46665
2881.27526	1.46485
2879.34669	1.46609
2877.41813	1.46776
2875.48956	1.46727
2873.56100	1.46477
2871.63244	1.46128
2869.70387	1.45707
2867.77531	1.45101
2865.84674	1.44337
2863.91818	1.43846
2861.98961	1.43959
2860.06105	1.44374
2858.13248	1.44771
2856.20392	1.45290
2854.27536	1.45973
2852.34679	1.46422
2850.41823	1.46088
2848.48966	1.44682
2846.56110	1.42397
2844.63253	1.39871
2842.70397	1.37666
2840.77540	1.35899
2838.84684	1.34553
2836.91828	1.33661
2834.98971	1.33067
2833.06115	1.32487
2831.13258	1.31869
2829.20402	1.31377
2827.27545	1.31039
2825.34689	1.30664
2823.41832	1.30164
2821.48976	1.29651
2819.56120	1.29189
2817.63263	1.28743
2815.70407	1.28266
2813.77550	1.27815
2811.84694	1.27512
2809.91837	1.27267
2807.98981	1.26918
2806.06124	1.26547
2804.13268	1.26294
2802.20412	1.26067
2800.27555	1.25662
2798.34699	1.25125
2796.41842	1.24716
2794.48986	1.24489
2792.56129	1.24248
2790.63273	1.23940
2788.70416	1.23703
2786.77560	1.23542
2784.84704	1.23348
2782.91847	1.23125
2780.98991	1.22912
2779.06134	1.22657
2777.13278	1.22353
2775.20421	1.22076
2773.27565	1.21848
2771.34708	1.21662
2769.41852	1.21500
2767.48996	1.21318
2765.56139	1.21098
2763.63283	1.20834
2761.70426	1.20526
2759.77570	1.20261
2757.84713	1.20073
2755.91857	1.19859
2753.99001	1.19609
2752.06144	1.19364
2750.13288	1.19064
2748.20431	1.18684
2746.27575	1.18325
2744.34718	1.18077
2742.41862	1.17894
2740.49005	1.17625
2738.56149	1.17241
2736.63293	1.16949
2734.70436	1.16885
2732.77580	1.16870
2730.84723	1.16701
2728.91867	1.16413
2726.99010	1.16150
2725.06154	1.15992
2723.13297	1.15871
2721.20441	1.15672
2719.27585	1.15402
2717.34728	1.15129
2715.41872	1.14910
2713.49015	1.14757
2711.56159	1.14602
2709.63302	1.14386
2707.70446	1.14112
2705.77589	1.13837
2703.84733	1.13638
2701.91877	1.13490
2699.99020	1.13308
2698.06164	1.13086
2696.13307	1.12877
2694.20451	1.12701
2692.27594	1.12508
2690.34738	1.12241
2688.41881	1.11923
2686.49025	1.11639
2684.56169	1.11445
2682.63312	1.11270
2680.70456	1.11031
2678.77599	1.10794
2676.84743	1.10645
2674.91886	1.10525
2672.99030	1.10320
2671.06173	1.10055
2669.13317	1.09860
2667.20461	1.09754
2665.27604	1.09624
2663.34748	1.09411
2661.41891	1.09198
2659.49035	1.09042
2657.56178	1.08890
2655.63322	1.08720
2653.70465	1.08583
2651.77609	1.08487
2649.84753	1.08398
2647.91896	1.08312
2645.99040	1.08207
2644.06183	1.08082
2642.13327	1.07966
2640.20470	1.07848
2638.27614	1.07686
2636.34757	1.07458
2634.41901	1.07258
2632.49045	1.07167
2630.56188	1.07075
2628.63332	1.06875
2626.70475	1.06583
2624.77619	1.06290
2622.84762	1.06064
2620.91906	1.05875
2618.99049	1.05675
2617.06193	1.05453
2615.13337	1.05238
2613.20480	1.05052
2611.27624	1.04880
2609.34767	1.04728
2607.41911	1.04599
2605.49054	1.04490
2603.56198	1.04394
2601.63342	1.04309
2599.70485	1.04258
2597.77629	1.04190
2595.84772	1.04021
2593.91916	1.03817
2591.99059	1.03686
2590.06203	1.03628
2588.13346	1.03588
2586.20490	1.03545
2584.27634	1.03515
2582.34777	1.03450
2580.41921	1.03286
2578.49064	1.03107
2576.56208	1.02997
2574.63351	1.02921
2572.70495	1.02863
2570.77638	1.02794
2568.84782	1.02647
2566.91926	1.02438
2564.99069	1.02217
2563.06213	1.01993
2561.13356	1.01752
2559.20500	1.01513
2557.27643	1.01284
2555.34787	1.01034
2553.41930	1.00804
2551.49074	1.00608
2549.56218	1.00363
2547.63361	1.00129
2545.70505	1.00020
2543.77648	0.99954
2541.84792	0.99824
2539.91935	0.99662
2537.99079	0.99544
2536.06222	0.99454
2534.13366	0.99289
2532.20510	0.99038
2530.27653	0.98836
2528.34797	0.98783
2526.41940	0.98790
2524.49084	0.98717
2522.56227	0.98569
2520.63371	0.98460
2518.70514	0.98428
2516.77658	0.98381
2514.84802	0.98239
2512.91945	0.98039
2510.99089	0.97866
2509.06232	0.97717
2507.13376	0.97575
2505.20519	0.97480
2503.27663	0.97400
2501.34806	0.97256
2499.41950	0.97034
2497.49094	0.96766
2495.56237	0.96491
2493.63381	0.96259
2491.70524	0.96093
2489.77668	0.95937
2487.84811	0.95746
2485.91955	0.95532
2483.99098	0.95304
2482.06242	0.95083
2480.13386	0.94896
2478.20529	0.94738
2476.27673	0.94573
2474.34816	0.94393
2472.41960	0.94238
2470.49103	0.94090
2468.56247	0.93895
2466.63391	0.93682
2464.70534	0.93525
2462.77678	0.93435
2460.84821	0.93346
2458.91965	0.93203
2456.99108	0.93028
2455.06252	0.92859
2453.13395	0.92691
2451.20539	0.92516
2449.27683	0.92343
2447.34826	0.92154
2445.41970	0.91930
2443.49113	0.91711
2441.56257	0.91521
2439.63400	0.91311
2437.70544	0.91096
2435.77687	0.90968
2433.84831	0.90904
2431.91975	0.90785
2429.99118	0.90589
2428.06262	0.90380
2426.13405	0.90196
2424.20549	0.90042
2422.27692	0.89907
2420.34836	0.89761
2418.41979	0.89597
2416.49123	0.89451
2414.56267	0.89329
2412.63410	0.89203
2410.70554	0.89064
2408.77697	0.88928
2406.84841	0.88815
2404.91984	0.88694
2402.99128	0.88531
2401.06271	0.88366
2399.13415	0.88249
2397.20559	0.88155
2395.27702	0.88060
2393.34846	0.87977
2391.41989	0.87915
2389.49133	0.87855
2387.56276	0.87748
2385.63420	0.87618
2383.70563	0.87524
2381.77707	0.87452
2379.84851	0.87359
2377.91994	0.87244
2375.99138	0.87114
2374.06281	0.86995
2372.13425	0.86915
2370.20568	0.86844
2368.27712	0.86746
2366.34855	0.86629
2364.41999	0.86514
2362.49143	0.86510
2360.56286	0.86506
2358.63430	0.86222
2356.70573	0.85761
2354.77717	0.85412
2352.84860	0.85327
2350.92004	0.85356
2348.99147	0.85361
2347.06291	0.85373
2345.13435	0.85380
2343.20578	0.85286
2341.27722	0.85189
2339.34865	0.85143
2337.42009	0.85002
2335.49152	0.84840
2333.56296	0.84799
2331.63440	0.84802
2329.70583	0.84744
2327.77727	0.84655
2325.84870	0.84593
2323.92014	0.84565
2321.99157	0.84613
2320.06301	0.84743
2318.13444	0.84791
2316.20588	0.84673
2314.27732	0.84497
2312.34875	0.84383
2310.42019	0.84347
2308.49162	0.84293
2306.56306	0.84158
2304.63449	0.84000
2302.70593	0.83859
2300.77736	0.83726
2298.84880	0.83582
2296.92024	0.83407
2294.99167	0.83233
2293.06311	0.83107
2291.13454	0.82994
2289.20598	0.82863
2287.27741	0.82723
2285.34885	0.82590
2283.42028	0.82480
2281.49172	0.82391
2279.56316	0.82303
2277.63459	0.82201
2275.70603	0.82108
2273.77746	0.82046
2271.84890	0.82010
2269.92033	0.81970
2267.99177	0.81902
2266.06320	0.81815
2264.13464	0.81742
2262.20608	0.81700
2260.27751	0.81665
2258.34895	0.81608
2256.42038	0.81541
2254.49182	0.81485
2252.56325	0.81421
2250.63469	0.81321
2248.70612	0.81219
2246.77756	0.81157
2244.84900	0.81110
2242.92043	0.81035
2240.99187	0.80925
2239.06330	0.80818
2237.13474	0.80748
2235.20617	0.80685
2233.27761	0.80591
2231.34904	0.80467
2229.42048	0.80359
2227.49192	0.80295
2225.56335	0.80253
2223.63479	0.80205
2221.70622	0.80146
2219.77766	0.80081
2217.84909	0.79999
2215.92053	0.79904
2213.99196	0.79818
2212.06340	0.79762
2210.13484	0.79742
2208.20627	0.79725
2206.27771	0.79681
2204.34914	0.79618
2202.42058	0.79564
2200.49201	0.79553
2198.56345	0.79581
2196.63488	0.79595
2194.70632	0.79584
2192.77776	0.79571
2190.84919	0.79564
2188.92063	0.79572
2186.99206	0.79599
2185.06350	0.79624
2183.13493	0.79617
2181.20637	0.79598
2179.27781	0.79608
2177.34924	0.79641
2175.42068	0.79664
2173.49211	0.79652
2171.56355	0.79625
2169.63498	0.79616
2167.70642	0.79589
2165.77785	0.79516
2163.84929	0.79450
2161.92073	0.79430
2159.99216	0.79427
2158.06360	0.79397
2156.13503	0.79341
2154.20647	0.79292
2152.27790	0.79260
2150.34934	0.79227
2148.42077	0.79185
2146.49221	0.79134
2144.56365	0.79090
2142.63508	0.79065
2140.70652	0.79047
2138.77795	0.79032
2136.84939	0.79031
2134.92082	0.79041
2132.99226	0.79050
2131.06369	0.79048
2129.13513	0.79041
2127.20657	0.79049
2125.27800	0.79076
2123.34944	0.79115
2121.42087	0.79160
2119.49231	0.79194
2117.56374	0.79211
2115.63518	0.79215
2113.70661	0.79213
2111.77805	0.79226
2109.84949	0.79265
2107.92092	0.79279
2105.99236	0.79250
2104.06379	0.79232
2102.13523	0.79235
2100.20666	0.79210
2098.27810	0.79151
2096.34953	0.79082
2094.42097	0.79019
2092.49241	0.78984
2090.56384	0.78999
2088.63528	0.79005
2086.70671	0.78952
2084.77815	0.78874
2082.84958	0.78811
2080.92102	0.78757
2078.99245	0.78702
2077.06389	0.78653
2075.13533	0.78614
2073.20676	0.78574
2071.27820	0.78533
2069.34963	0.78496
2067.42107	0.78471
2065.49250	0.78459
2063.56394	0.78440
2061.63537	0.78403
2059.70681	0.78369
2057.77825	0.78358
2055.84968	0.78340
2053.92112	0.78301
2051.99255	0.78266
2050.06399	0.78270
2048.13542	0.78294
2046.20686	0.78300
2044.27830	0.78298
2042.34973	0.78294
2040.42117	0.78263
2038.49260	0.78201
2036.56404	0.78142
2034.63547	0.78108
2032.70691	0.78062
2030.77834	0.77971
2028.84978	0.77863
2026.92122	0.77766
2024.99265	0.77676
2023.06409	0.77587
2021.13552	0.77499
2019.20696	0.77399
2017.27839	0.77252
2015.34983	0.77077
2013.42126	0.76957
2011.49270	0.76889
2009.56414	0.76807
2007.63557	0.76710
2005.70701	0.76628
2003.77844	0.76551
2001.84988	0.76485
1999.92131	0.76460
1997.99275	0.76467
1996.06418	0.76512
1994.13562	0.76605
1992.20706	0.76678
1990.27849	0.76680
1988.34993	0.76661
1986.42136	0.76656
1984.49280	0.76669
1982.56423	0.76693
1980.63567	0.76709
1978.70710	0.76711
1976.77854	0.76709
1974.84998	0.76702
1972.92141	0.76687
1970.99285	0.76664
1969.06428	0.76644
1967.13572	0.76591
1965.20715	0.76483
1963.27859	0.76368
1961.35002	0.76267
1959.42146	0.76166
1957.49290	0.76067
1955.56433	0.75979
1953.63577	0.75902
1951.70720	0.75820
1949.77864	0.75745
1947.85007	0.75706
1945.92151	0.75717
1943.99294	0.75739
1942.06438	0.75711
1940.13582	0.75665
1938.20725	0.75676
1936.27869	0.75744
1934.35012	0.75837
1932.42156	0.75926
1930.49299	0.75992
1928.56443	0.76056
1926.63586	0.76170
1924.70730	0.76325
1922.77874	0.76444
1920.85017	0.76524
1918.92161	0.76602
1916.99304	0.76627
1915.06448	0.76612
1913.13591	0.76638
1911.20735	0.76711
1909.27878	0.76755
1907.35022	0.76722
1905.42166	0.76682
1903.49309	0.76676
1901.56453	0.76680
1899.63596	0.76682
1897.70740	0.76682
1895.77883	0.76679
1893.85027	0.76677
1891.92171	0.76694
1889.99314	0.76691
1888.06458	0.76639
1886.13601	0.76578
1884.20745	0.76510
1882.27888	0.76456
1880.35032	0.76452
1878.42175	0.76466
1876.49319	0.76489
1874.56463	0.76556
1872.63606	0.76700
1870.70750	0.76932
1868.77893	0.77151
1866.85037	0.77204
1864.92180	0.77228
1862.99324	0.77340
1861.06467	0.77499
1859.13611	0.77671
1857.20755	0.77839
1855.27898	0.77964
1853.35042	0.78060
1851.42185	0.78191
1849.49329	0.78379
1847.56472	0.78563
1845.63616	0.78645
1843.70759	0.78558
1841.77903	0.78424
1839.85047	0.78356
1837.92190	0.78302
1835.99334	0.78220
1834.06477	0.78173
1832.13621	0.78224
1830.20764	0.78289
1828.27908	0.78251
1826.35051	0.78177
1824.42195	0.78091
1822.49339	0.78002
1820.56482	0.77978
1818.63626	0.78016
1816.70769	0.78084
1814.77913	0.78200
1812.85056	0.78353
1810.92200	0.78474
1808.99343	0.78548
1807.06487	0.78631
1805.13631	0.78781
1803.20774	0.78993
1801.27918	0.79187
1799.35061	0.79309
1797.42205	0.79447
1795.49348	0.79657
1793.56492	0.79891
1791.63635	0.80011
1789.70779	0.79986
1787.77923	0.80004
1785.85066	0.80101
1783.92210	0.80238
1781.99353	0.80405
1780.06497	0.80535
1778.13640	0.80619
1776.20784	0.80758
1774.27927	0.80981
1772.35071	0.81132
1770.42215	0.81094
1768.49358	0.81020
1766.56502	0.81004
1764.63645	0.81106
1762.70789	0.81334
1760.77932	0.81628
1758.85076	0.81970
1756.92220	0.82429
1754.99363	0.82989
1753.06507	0.83735
1751.13650	0.84903
1749.20794	0.86304
1747.27937	0.87398
1745.35081	0.88251
1743.42224	0.89037
1741.49368	0.89753
1739.56512	0.90351
1737.63655	0.90777
1735.70799	0.91118
1733.77942	0.91419
1731.85086	0.91524
1729.92229	0.91598
1727.99373	0.91775
1726.06516	0.92094
1724.13660	0.92588
1722.20804	0.93167
1720.27947	0.93848
1718.35091	0.94957
1716.42234	0.96516
1714.49378	0.97765
1712.56521	0.98953
1710.63665	1.00503
1708.70808	1.02521
1706.77952	1.05436
1704.85096	1.09234
1702.92239	1.12821
1700.99383	1.17696
1699.06526	1.25027
1697.13670	1.31708
1695.20813	1.38250
1693.27957	1.43276
1691.35100	1.47217
1689.42244	1.51744
1687.49388	1.55824
1685.56531	1.59579
1683.63675	1.64267
1681.70818	1.66993
1679.77962	1.68145
1677.85105	1.69190
1675.92249	1.70504
1673.99392	1.71972
1672.06536	1.73185
1670.13680	1.73854
1668.20823	1.73961
1666.27967	1.73841
1664.35110	1.73822
1662.42254	1.73874
1660.49397	1.73863
1658.56541	1.73819
1656.63684	1.73707
1654.70828	1.73683
1652.77972	1.73204
1650.85115	1.72694
1648.92259	1.72718
1646.99402	1.72701
1645.06546	1.72339
1643.13689	1.71787
1641.20833	1.71214
1639.27976	1.70790
1637.35120	1.70660
1635.42264	1.70324
1633.49407	1.69589
1631.56551	1.69006
1629.63694	1.68388
1627.70838	1.67582
1625.77981	1.66600
1623.85125	1.65466
1621.92269	1.64334
1619.99412	1.63459
1618.06556	1.62485
1616.13699	1.60953
1614.20843	1.59705
1612.27986	1.58812
1610.35130	1.57752
1608.42273	1.56468
1606.49417	1.55399
1604.56561	1.54805
1602.63704	1.54389
1600.70848	1.54006
1598.77991	1.53808
1596.85135	1.53819
1594.92278	1.53953
1592.99422	1.54199
1591.06565	1.54655
1589.13709	1.55356
1587.20853	1.56218
1585.27996	1.57095
1583.35140	1.57885
1581.42283	1.58646
1579.49427	1.59576
1577.56570	1.60849
1575.63714	1.62039
1573.70857	1.62551
1571.78001	1.63012
1569.85145	1.63819
1567.92288	1.64674
1565.99432	1.65379
1564.06575	1.66201
1562.13719	1.67076
1560.20862	1.67872
1558.28006	1.68330
1556.35149	1.68596
1554.42293	1.68774
1552.49437	1.68647
1550.56580	1.68298
1548.63724	1.67905
1546.70867	1.67799
1544.78011	1.68075
1542.85154	1.68457
1540.92298	1.67694
1538.99441	1.65507
1537.06585	1.64558
1535.13729	1.64129
1533.20872	1.63367
1531.28016	1.62647
1529.35159	1.62422
1527.42303	1.62249
1525.49446	1.61808
1523.56590	1.61381
1521.63733	1.60766
1519.70877	1.60003
1517.78021	1.59312
1515.85164	1.58288
1513.92308	1.57040
1511.99451	1.55759
1510.06595	1.54604
1508.13738	1.53204
1506.20882	1.50304
1504.28025	1.48339
1502.35169	1.47274
1500.42313	1.46115
1498.49456	1.44332
1496.56600	1.42067
1494.63743	1.40479
1492.70887	1.39595
1490.78030	1.38586
1488.85174	1.36909
1486.92317	1.35320
1484.99461	1.34316
1483.06605	1.33781
1481.13748	1.33628
1479.20892	1.33872
1477.28035	1.34606
1475.35179	1.35842
1473.42322	1.37536
1471.49466	1.39100
1469.56610	1.40032
1467.63753	1.40830
1465.70897	1.41713
1463.78040	1.42457
1461.85184	1.42983
1459.92327	1.43578
1457.99471	1.44491
1456.06614	1.44962
1454.13758	1.44703
1452.20902	1.44397
1450.28045	1.44161
1448.35189	1.43925
1446.42332	1.43563
1444.49476	1.43171
1442.56619	1.42843
1440.63763	1.42595
1438.70906	1.42387
1436.78050	1.41826
1434.85194	1.40798
1432.92337	1.40010
1430.99481	1.39488
1429.06624	1.39029
1427.13768	1.38765
1425.20911	1.38834
1423.28055	1.39138
1421.35198	1.39502
1419.42342	1.39988
1417.49486	1.40489
1415.56629	1.40772
1413.63773	1.40986
1411.70916	1.41179
1409.78060	1.41347
1407.85203	1.41585
1405.92347	1.41941
1403.99490	1.42200
1402.06634	1.42259
1400.13778	1.42300
1398.20921	1.42281
1396.28065	1.42044
1394.35208	1.41676
1392.42352	1.41468
1390.49495	1.41466
1388.56639	1.41573
1386.63782	1.41821
1384.70926	1.42203
1382.78070	1.42598
1380.85213	1.42878
1378.92357	1.42904
1376.99500	1.42561
1375.06644	1.41767
1373.13787	1.40653
1371.20931	1.39508
1369.28074	1.38191
1367.35218	1.36669
1365.42362	1.35265
1363.49505	1.33921
1361.56649	1.32593
1359.63792	1.31609
1357.70936	1.30967
1355.78079	1.30469
1353.85223	1.30053
1351.92366	1.29783
1349.99510	1.29604
1348.06654	1.29357
1346.13797	1.29014
1344.20941	1.28689
1342.28084	1.28478
1340.35228	1.28365
1338.42371	1.28218
1336.49515	1.28037
1334.56659	1.28011
1332.63802	1.28281
1330.70946	1.28778
1328.78089	1.29253
1326.85233	1.29584
1324.92376	1.29856
1322.99520	1.30173
1321.06663	1.30591
1319.13807	1.31091
1317.20951	1.31573
1315.28094	1.32013
1313.35238	1.32398
1311.42381	1.32663
1309.49525	1.32855
1307.56668	1.33002
1305.63812	1.33107
1303.70955	1.33181
1301.78099	1.33104
1299.85243	1.32789
1297.92386	1.32328
1295.99530	1.31837
1294.06673	1.31351
1292.13817	1.30881
1290.20960	1.30444
1288.28104	1.30043
1286.35247	1.29658
1284.42391	1.29269
1282.49535	1.28871
1280.56678	1.28457
1278.63822	1.28051
1276.70965	1.27724
1274.78109	1.27531
1272.85252	1.27454
1270.92396	1.27426
1268.99539	1.27425
1267.06683	1.27470
1265.13827	1.27573
1263.20970	1.27702
1261.28114	1.27762
1259.35257	1.27753
1257.42401	1.27789
1255.49544	1.27927
1253.56688	1.28125
1251.63831	1.28348
1249.70975	1.28641
1247.78119	1.29036
1245.85262	1.29460
1243.92406	1.29853
1241.99549	1.30235
1240.06693	1.30593
1238.13836	1.30823
1236.20980	1.30826
1234.28123	1.30630
1232.35267	1.30381
1230.42411	1.30058
1228.49554	1.29487
1226.56698	1.28709
1224.63841	1.27860
1222.70985	1.26932
1220.78128	1.25886
1218.85272	1.24752
1216.92415	1.23645
1214.99559	1.22662
1213.06703	1.21797
1211.13846	1.21071
1209.20990	1.20481
1207.28133	1.19823
1205.35277	1.18925
1203.42420	1.17858
1201.49564	1.16697
1199.56708	1.15408
1197.63851	1.14059
1195.70995	1.12817
1193.78138	1.11774
1191.85282	1.10911
1189.92425	1.10197
1187.99569	1.09691
1186.06712	1.09459
1184.13856	1.09501
1182.21000	1.09832
1180.28143	1.10490
1178.35287	1.11489
1176.42430	1.12768
1174.49574	1.14186
1172.56717	1.15623
1170.63861	1.17055
1168.71004	1.18528
1166.78148	1.20104
1164.85292	1.21718
1162.92435	1.23106
1160.99579	1.24027
1159.06722	1.24387
1157.13866	1.24143
1155.21009	1.23358
1153.28153	1.22207
1151.35296	1.20814
1149.42440	1.19187
1147.49584	1.17419
1145.56727	1.15812
1143.63871	1.14632
1141.71014	1.13916
1139.78158	1.13631
1137.85301	1.13755
1135.92445	1.14166
1133.99588	1.14775
1132.06732	1.15654
1130.13876	1.16854
1128.21019	1.18344
1126.28163	1.20040
1124.35306	1.21746
1122.42450	1.23283
1120.49593	1.24665
1118.56737	1.25915
1116.63880	1.26944
1114.71024	1.27678
1112.78168	1.28086
1110.85311	1.28230
1108.92455	1.28334
1106.99598	1.28515
1105.06742	1.28595
1103.13885	1.28525
1101.21029	1.28660
1099.28172	1.29200
1097.35316	1.29808
1095.42460	1.30266
1093.49603	1.30879
1091.56747	1.31820
1089.63890	1.32961
1087.71034	1.34241
1085.78177	1.35482
1083.85321	1.36478
1081.92464	1.37211
1079.99608	1.37483
1078.06752	1.37060
1076.13895	1.36052
1074.21039	1.34726
1072.28182	1.33288
1070.35326	1.31864
1068.42469	1.30600
1066.49613	1.29562
1064.56756	1.28606
1062.63900	1.27629
1060.71044	1.26691
1058.78187	1.25878
1056.85331	1.25218
1054.92474	1.24681
1052.99618	1.24330
1051.06761	1.24258
1049.13905	1.24483
1047.21049	1.25066
1045.28192	1.26039
1043.35336	1.27285
1041.42479	1.28631
1039.49623	1.30005
1037.56766	1.31353
1035.63910	1.32444
1033.71053	1.33017
1031.78197	1.33040
1029.85341	1.32700
1027.92484	1.32052
1025.99628	1.30944
1024.06771	1.29552
1022.13915	1.28248
1020.21058	1.27005
1018.28202	1.25659
1016.35345	1.24232
1014.42489	1.22628
1012.49633	1.20618
1010.56776	1.18166
1008.63920	1.15447
1006.71063	1.12642
1004.78207	1.09885
1002.85350	1.07352
1000.92494	1.05165
998.99637	1.03349
997.06781	1.01948
995.13925	1.00919
993.21068	1.00068
991.28212	0.99267
989.35355	0.98539
987.42499	0.97919
985.49642	0.97423
983.56786	0.97115
981.63929	0.97064
979.71073	0.97247
977.78217	0.97573
975.85360	0.97917
973.92504	0.98165
971.99647	0.98233
970.06791	0.98079
968.13934	0.97776
966.21078	0.97478
964.28221	0.97301
962.35365	0.97314
960.42509	0.97582
958.49652	0.98083
956.56796	0.98575
954.63939	0.98705
952.71083	0.98237
950.78226	0.97130
948.85370	0.95570
946.92513	0.93908
944.99657	0.92445
943.06801	0.91287
941.13944	0.90335
939.21088	0.89456
937.28231	0.88644
935.35375	0.87973
933.42518	0.87473
931.49662	0.87140
929.56805	0.86983
927.63949	0.87011
925.71093	0.87190
923.78236	0.87463
921.85380	0.87812
919.92523	0.88185
917.99667	0.88496
916.06810	0.88759
914.13954	0.89067
912.21098	0.89466
910.28241	0.89967
908.35385	0.90571
906.42528	0.91239
904.49672	0.91880
902.56815	0.92417
900.63959	0.92831
898.71102	0.93114
896.78246	0.93240
894.85390	0.93149
892.92533	0.92796
890.99677	0.92259
889.06820	0.91644
887.13964	0.91047
885.21107	0.90556
883.28251	0.90140
881.35394	0.89739
879.42538	0.89397
877.49682	0.89178
875.56825	0.89082
873.63969	0.89052
871.71112	0.89075
869.78256	0.89221
867.85399	0.89488
865.92543	0.89810
863.99686	0.90218
862.06830	0.90754
860.13974	0.91417
858.21117	0.92234
856.28261	0.93143
854.35404	0.94060
852.42548	0.95008
850.49691	0.95911
848.56835	0.96637
846.63978	0.97152
844.71122	0.97501
842.78266	0.97776
840.85409	0.98032
838.92553	0.98237
836.99696	0.98330
835.06840	0.98299
833.13983	0.98184
831.21127	0.97964
829.28270	0.97645
827.35414	0.97300
825.42558	0.96917
823.49701	0.96519
821.56845	0.96244
819.63988	0.96098
817.71132	0.95982
815.78275	0.95890
813.85419	0.95847
811.92562	0.95915
809.99706	0.96175
808.06850	0.96514
806.13993	0.96837
804.21137	0.97320
802.28280	0.98092
800.35424	0.99052
798.42567	1.00047
796.49711	1.01049
794.56854	1.02174
792.63998	1.03428
790.71142	1.04689
788.78285	1.05927
786.85429	1.07133
784.92572	1.08239
782.99716	1.09236
781.06859	1.10184
779.14003	1.11031
777.21147	1.11673
775.28290	1.12163
773.35434	1.12584
771.42577	1.12881
769.49721	1.12912
767.56864	1.12674
765.64008	1.12340
763.71151	1.12011
761.78295	1.11693
759.85439	1.11419
757.92582	1.11177
755.99726	1.10970
754.06869	1.10866
752.14013	1.10832
750.21156	1.10874
748.28300	1.11098
746.35443	1.11398
744.42587	1.11600
742.49731	1.11748
740.56874	1.11956
738.64018	1.12315
736.71161	1.12871
734.78305	1.13588
732.85448	1.14441
730.92592	1.15369
728.99735	1.16264
727.06879	1.17226
725.14023	1.18374
723.21166	1.19563
721.28310	1.20705
719.35453	1.21764
717.42597	1.22605
715.49740	1.23302
713.56884	1.24075
711.64027	1.24974
709.71171	1.25882
707.78315	1.26614
705.85458	1.27057
703.92602	1.27333
701.99745	1.27610
700.06889	1.27809
698.14032	1.27822
696.21176	1.27684
694.28319	1.27325
692.35463	1.26740
690.42607	1.26154
688.49750	1.25683
686.56894	1.25296
684.64037	1.24984
682.71181	1.24608
680.78324	1.24061
678.85468	1.23575
676.92611	1.23321
674.99755	1.23106
673.06899	1.22822
671.14042	1.22522
669.21186	1.22248
667.28329	1.22199
665.35473	1.22324
663.42616	1.22506
661.49760	1.22676
659.56903	1.22756
657.64047	1.22965
655.71191	1.23545
653.78334	1.24489
651.85478	1.25466
649.92621	1.26180
647.99765	1.26862
646.06908	1.27938
644.14052	1.29434
642.21195	1.30980
640.28339	1.32311
638.35483	1.33223
636.42626	1.33668
634.49770	1.34236
632.56913	1.35252
630.64057	1.36217
628.71200	1.36899
626.78344	1.37403
624.85488	1.37561
622.92631	1.37338
620.99775	1.36912
619.06918	1.36524
617.14062	1.36367
615.21205	1.36029
613.28349	1.35104
611.35492	1.34068
609.42636	1.33288
607.49780	1.32384
605.56923	1.31313
603.64067	1.30445
601.71210	1.29764
599.78354	1.29277
