3997.91406	0.89440
3995.98550	0.89463
3994.05693	0.89472
3992.12837	0.89459
3990.19980	0.89440
3988.27124	0.89440
3986.34268	0.89480
3984.41411	0.89530
3982.48555	0.89470
3980.55698	0.89308
3978.62842	0.89247
3976.69985	0.89334
3974.77129	0.89356
3972.84272	0.89273
3970.91416	0.89192
3968.98560	0.89046
3967.05703	0.88885
3965.12847	0.88859
3963.19990	0.88879
3961.27134	0.88802
3959.34277	0.88680
3957.41421	0.88622
3955.48564	0.88620
3953.55708	0.88627
3951.62852	0.88628
3949.69995	0.88609
3947.77139	0.88577
3945.84282	0.88551
3943.91426	0.88458
3941.98569	0.88232
3940.05713	0.88051
3938.12856	0.88060
3936.20000	0.88179
3934.27144	0.88337
3932.34287	0.88498
3930.41431	0.88491
3928.48574	0.88290
3926.55718	0.88143
3924.62861	0.88142
3922.70005	0.88140
3920.77148	0.88116
3918.84292	0.88007
3916.91436	0.87698
3914.98579	0.87430
3913.05723	0.87380
3911.12866	0.87463
3909.20010	0.87610
3907.27153	0.87788
3905.34297	0.87925
3903.41440	0.87907
3901.48584	0.87796
3899.55728	0.87632
3897.62871	0.87393
3895.70015	0.87274
3893.77158	0.87306
3891.84302	0.87222
3889.91445	0.87034
3887.98589	0.87059
3886.05733	0.87236
3884.12876	0.87353
3882.20020	0.87389
3880.27163	0.87207
3878.34307	0.86878
3876.41450	0.86764
3874.48594	0.86896
3872.55737	0.87099
3870.62881	0.87147
3868.70025	0.86999
3866.77168	0.86947
3864.84312	0.86999
3862.91455	0.86857
3860.98599	0.86625
3859.05742	0.86598
3857.12886	0.86807
3855.20029	0.87212
3853.27173	0.87336
3851.34317	0.86710
3849.41460	0.86165
3847.48604	0.85953
3845.55747	0.86016
3843.62891	0.86200
3841.70034	0.86412
3839.77178	0.86599
3837.84321	0.86560
3835.91465	0.86386
3833.98609	0.86232
3832.05752	0.86052
3830.12896	0.85968
3828.20039	0.86036
3826.27183	0.86107
3824.34326	0.86169
3822.41470	0.86280
3820.48613	0.86245
3818.55757	0.86090
3816.62901	0.85809
3814.70044	0.85373
3812.77188	0.85109
3810.84331	0.85073
3808.91475	0.85246
3806.98618	0.85474
3805.05762	0.85540
3803.12905	0.85571
3801.20049	0.85571
3799.27193	0.85470
3797.34336	0.85210
3795.41480	0.84791
3793.48623	0.84511
3791.55767	0.84406
3789.62910	0.84335
3787.70054	0.84305
3785.77197	0.84308
3783.84341	0.84282
3781.91485	0.84302
3779.98628	0.84289
3778.05772	0.84089
3776.12915	0.83909
3774.20059	0.83924
3772.27202	0.84107
3770.34346	0.84282
3768.41489	0.84279
3766.48633	0.84201
3764.55777	0.84085
3762.62920	0.83962
3760.70064	0.83978
3758.77207	0.84148
3756.84351	0.84270
3754.91494	0.84414
3752.98638	0.84810
3751.05781	0.85247
3749.12925	0.85209
3747.20069	0.85212
3745.27212	0.85280
3743.34356	0.84931
3741.41499	0.84619
3739.48643	0.84684
3737.55786	0.85001
3735.62930	0.85177
3733.70074	0.84768
3731.77217	0.84226
3729.84361	0.84047
3727.91504	0.84191
3725.98648	0.84293
3724.05791	0.84131
3722.12935	0.83939
3720.20078	0.83830
3718.27222	0.83752
3716.34366	0.83748
3714.41509	0.83921
3712.48653	0.84226
3710.55796	0.84255
3708.62940	0.84006
3706.70083	0.83866
3704.77227	0.83867
3702.84370	0.83940
3700.91514	0.83977
3698.98658	0.83991
3697.05801	0.84120
3695.12945	0.84322
3693.20088	0.84581
3691.27232	0.85053
3689.34375	0.85445
3687.41519	0.85334
3685.48662	0.85192
3683.55806	0.85275
3681.62950	0.85542
3679.70093	0.85898
3677.77237	0.86356
3675.84380	0.86920
3673.91524	0.87327
3671.98667	0.87689
3670.05811	0.88140
3668.12954	0.88373
3666.20098	0.88529
3664.27242	0.88902
3662.34385	0.89502
3660.41529	0.90151
3658.48672	0.90728
3656.55816	0.91292
3654.62959	0.91783
3652.70103	0.92348
3650.77246	0.93560
3648.84390	0.95132
3646.91534	0.95447
3644.98677	0.95438
3643.05821	0.95722
3641.12964	0.96195
3639.20108	0.96765
3637.27251	0.97476
3635.34395	0.98282
3633.41538	0.99029
3631.48682	0.99711
3629.55826	1.00625
3627.62969	1.01494
3625.70113	1.01955
3623.77256	1.02473
3621.84400	1.03254
3619.91543	1.04313
3617.98687	1.05260
3616.05830	1.05903
3614.12974	1.06492
3612.20118	1.07081
3610.27261	1.07814
3608.34405	1.08674
3606.41548	1.09341
3604.48692	1.10012
3602.55835	1.11052
3600.62979	1.12132
3598.70123	1.12711
3596.77266	1.13162
3594.84410	1.13957
3592.91553	1.14794
3590.98697	1.15523
3589.05840	1.16549
3587.12984	1.17701
3585.20127	1.18330
3583.27271	1.18740
3581.34415	1.19252
3579.41558	1.19972
3577.48702	1.20832
3575.55845	1.21645
3573.62989	1.22368
3571.70132	1.23078
3569.77276	1.23653
3567.84419	1.24067
3565.91563	1.24848
3563.98707	1.26042
3562.05850	1.27212
3560.12994	1.28074
3558.20137	1.28728
3556.27281	1.29506
3554.34424	1.30441
3552.41568	1.31345
3550.48711	1.32086
3548.55855	1.32819
3546.62999	1.33705
3544.70142	1.34652
3542.77286	1.35459
3540.84429	1.36292
3538.91573	1.37221
3536.98716	1.37808
3535.05860	1.38084
3533.13003	1.38657
3531.20147	1.39622
3529.27291	1.40540
3527.34434	1.41101
3525.41578	1.41623
3523.48721	1.42406
3521.55865	1.43152
3519.63008	1.43722
3517.70152	1.44427
3515.77295	1.45249
3513.84439	1.45992
3511.91583	1.46620
3509.98726	1.47060
3508.05870	1.47619
3506.13013	1.48765
3504.20157	1.50159
3502.27300	1.50968
3500.34444	1.51422
3498.41587	1.52078
3496.48731	1.52814
3494.55875	1.53396
3492.63018	1.53669
3490.70162	1.53893
3488.77305	1.54406
3486.84449	1.55139
3484.91592	1.55903
3482.98736	1.56601
3481.05879	1.57182
3479.13023	1.57518
3477.20167	1.57562
3475.27310	1.57557
3473.34454	1.57882
3471.41597	1.58470
3469.48741	1.58926
3467.55884	1.59250
3465.63028	1.59581
3463.70171	1.59932
3461.77315	1.60478
3459.84459	1.60980
3457.91602	1.60794
3455.98746	1.60393
3454.05889	1.60639
3452.13033	1.61143
3450.20176	1.61646
3448.27320	1.62496
3446.34464	1.63077
3444.41607	1.62821
3442.48751	1.62508
3440.55894	1.62785
3438.63038	1.63396
3436.70181	1.63603
3434.77325	1.63176
3432.84468	1.62938
3430.91612	1.63302
3428.98756	1.63484
3427.05899	1.63116
3425.13043	1.62832
3423.20186	1.62952
3421.27330	1.63242
3419.34473	1.63450
3417.41617	1.63577
3415.48760	1.63957
3413.55904	1.64530
3411.63048	1.64724
3409.70191	1.64415
3407.77335	1.64029
3405.84478	1.63980
3403.91622	1.64227
3401.98765	1.64512
3400.05909	1.64770
3398.13052	1.64878
3396.20196	1.64823
3394.27340	1.64825
3392.34483	1.64861
3390.41627	1.64927
3388.48770	1.65181
3386.55914	1.65435
3384.63057	1.65510
3382.70201	1.65546
3380.77344	1.65670
3378.84488	1.65958
3376.91632	1.66300
3374.98775	1.66692
3373.05919	1.67190
3371.13062	1.67390
3369.20206	1.67208
3367.27349	1.66944
3365.34493	1.66591
3363.41636	1.66363
3361.48780	1.66502
3359.55924	1.66786
3357.63067	1.67021
3355.70211	1.67347
3353.77354	1.67892
3351.84498	1.68281
3349.91641	1.68225
3347.98785	1.67941
3346.05928	1.67631
3344.13072	1.67480
3342.20216	1.67709
3340.27359	1.68517
3338.34503	1.69478
3336.41646	1.69701
3334.48790	1.69439
3332.55933	1.69442
3330.63077	1.69629
3328.70220	1.69521
3326.77364	1.69034
3324.84508	1.68841
3322.91651	1.69303
3320.98795	1.69688
3319.05938	1.69652
3317.13082	1.69862
3315.20225	1.70264
3313.27369	1.70399
3311.34513	1.70559
3309.41656	1.70665
3307.48800	1.70549
3305.55943	1.70470
3303.63087	1.70390
3301.70230	1.70392
3299.77374	1.70395
3297.84517	1.70149
3295.91661	1.70009
3293.98805	1.70182
3292.05948	1.70359
3290.13092	1.70266
3288.20235	1.69769
3286.27379	1.69079
3284.34522	1.68852
3282.41666	1.69272
3280.48809	1.69577
3278.55953	1.69417
3276.63097	1.69320
3274.70240	1.69380
3272.77384	1.69086
3270.84527	1.68400
3268.91671	1.67810
3266.98814	1.67564
3265.05958	1.67416
3263.13101	1.66999
3261.20245	1.66522
3259.27389	1.66415
3257.34532	1.66444
3255.41676	1.66261
3253.48819	1.65944
3251.55963	1.65538
3249.63106	1.65006
3247.70250	1.64495
3245.77393	1.64094
3243.84537	1.63618
3241.91681	1.63205
3239.98824	1.63183
3238.05968	1.63168
3236.13111	1.62816
3234.20255	1.62568
3232.27398	1.62541
3230.34542	1.62231
3228.41685	1.61437
3226.48829	1.60647
3224.55973	1.60611
3222.63116	1.61151
3220.70260	1.61044
3218.77403	1.60096
3216.84547	1.59403
3214.91690	1.59306
3212.98834	1.59341
3211.05977	1.59292
3209.13121	1.59199
3207.20265	1.59064
3205.27408	1.58930
3203.34552	1.58847
3201.41695	1.58757
3199.48839	1.58544
3197.55982	1.58151
3195.63126	1.57790
3193.70269	1.57634
3191.77413	1.57436
3189.84557	1.57045
3187.91700	1.56618
3185.98844	1.56286
3184.05987	1.56073
3182.13131	1.55929
3180.20274	1.55721
3178.27418	1.55237
3176.34562	1.54461
3174.41705	1.53664
3172.48849	1.53172
3170.55992	1.53141
3168.63136	1.53287
3166.70279	1.53153
3164.77423	1.52671
3162.84566	1.52077
3160.91710	1.51523
3158.98854	1.51147
3157.05997	1.51093
3155.13141	1.51161
3153.20284	1.51121
3151.27428	1.51050
3149.34571	1.50865
3147.41715	1.50513
3145.48858	1.50214
3143.56002	1.49872
3141.63146	1.49333
3139.70289	1.48939
3137.77433	1.48921
3135.84576	1.49108
3133.91720	1.49358
3131.98863	1.49442
3130.06007	1.49139
3128.13150	1.48675
3126.20294	1.48506
3124.27438	1.48705
3122.34581	1.48819
3120.41725	1.48703
3118.48868	1.48680
3116.56012	1.48720
3114.63155	1.48765
3112.70299	1.48974
3110.77442	1.49070
3108.84586	1.48787
3106.91730	1.48494
3104.98873	1.48434
3103.06017	1.48342
3101.13160	1.48183
3099.20304	1.48156
3097.27447	1.48109
3095.34591	1.47979
3093.41734	1.47936
3091.48878	1.47908
3089.56022	1.47850
3087.63165	1.47840
3085.70309	1.47786
3083.77452	1.47667
3081.84596	1.47435
3079.91739	1.46934
3077.98883	1.46408
3076.06026	1.46194
3074.13170	1.46277
3072.20314	1.46428
3070.27457	1.46338
3068.34601	1.45996
3066.41744	1.45672
3064.48888	1.45555
3062.56031	1.45609
3060.63175	1.45496
3058.70318	1.44984
3056.77462	1.44324
3054.84606	1.43865
3052.91749	1.43561
3050.98893	1.43139
3049.06036	1.42583
3047.13180	1.42125
3045.20323	1.41869
3043.27467	1.41622
3041.34610	1.41228
3039.41754	1.40799
3037.48898	1.40497
3035.56041	1.40434
3033.63185	1.40387
3031.70328	1.39938
3029.77472	1.39255
3027.84615	1.38736
3025.91759	1.38437
3023.98903	1.38262
3022.06046	1.38030
3020.13190	1.37684
3018.20333	1.37359
3016.27477	1.37031
3014.34620	1.36689
3012.41764	1.36507
3010.48907	1.36417
3008.56051	1.36254
3006.63195	1.36092
3004.70338	1.35980
3002.77482	1.35867
3000.84625	1.35744
2998.91769	1.35667
2996.98912	1.35757
2995.06056	1.36133
2993.13199	1.36674
2991.20343	1.37129
2989.27487	1.37519
2987.34630	1.38004
2985.41774	1.38689
2983.48917	1.39568
2981.56061	1.40433
2979.63204	1.41195
2977.70348	1.42009
2975.77491	1.42957
2973.84635	1.44022
2971.91779	1.45113
2969.98922	1.45996
2968.06066	1.46633
2966.13209	1.47306
2964.20353	1.48053
2962.27496	1.48548
2960.34640	1.48626
2958.41783	1.48421
2956.48927	1.48010
2954.56071	1.47397
2952.63214	1.46755
2950.70358	1.46271
2948.77501	1.45967
2946.84645	1.45842
2944.91788	1.46025
2942.98932	1.46631
2941.06075	1.47558
2939.13219	1.48590
2937.20363	1.49545
2935.27506	1.50505
2933.34650	1.51612
2931.41793	1.52527
2929.48937	1.53046
2927.56080	1.53511
2925.63224	1.53980
2923.70367	1.54322
2921.77511	1.54622
2919.84655	1.54670
2917.91798	1.53924
2915.98942	1.52096
2914.06085	1.49520
2912.13229	1.46939
2910.20372	1.44842
2908.27516	1.43288
2906.34659	1.42157
2904.41803	1.41221
2902.48947	1.40369
2900.56090	1.39699
2898.63234	1.39174
2896.70377	1.38710
2894.77521	1.38360
2892.84664	1.38031
2890.91808	1.37525
2888.98952	1.36918
2887.06095	1.36540
2885.13239	1.36418
2883.20382	1.36279
2881.27526	1.36208
2879.34669	1.36436
2877.41813	1.36725
2875.48956	1.36756
2873.56100	1.36545
2871.63244	1.36100
2869.70387	1.35352
2867.77531	1.34466
2865.84674	1.33740
2863.91818	1.33316
2861.98961	1.33211
2860.06105	1.33506
2858.13248	1.34190
2856.20392	1.35022
2854.27536	1.35881
2852.34679	1.36681
2850.41823	1.36662
2848.48966	1.34875
2846.56110	1.31722
2844.63253	1.28523
2842.70397	1.26016
2840.77540	1.24219
2838.84684	1.22872
2836.91828	1.21805
2834.98971	1.21011
2833.06115	1.20382
2831.13258	1.19799
2829.20402	1.19304
2827.27545	1.18867
2825.34689	1.18367
2823.41832	1.17823
2821.48976	1.17337
2819.56120	1.16914
2817.63263	1.16454
2815.70407	1.15902
2813.77550	1.15369
2811.84694	1.14910
2809.91837	1.14489
2807.98981	1.14121
2806.06124	1.13765
2804.13268	1.13352
2802.20412	1.12900
2800.27555	1.12456
2798.34699	1.12034
2796.41842	1.11669
2794.48986	1.11361
2792.56129	1.11021
2790.63273	1.10641
2788.70416	1.10299
2786.77560	1.10037
2784.84704	1.09775
2782.91847	1.09408
2780.98991	1.09043
2779.06134	1.08780
2777.13278	1.08519
2775.20421	1.08235
2773.27565	1.07979
2771.34708	1.07718
2769.41852	1.07420
2767.48996	1.07120
2765.56139	1.06843
2763.63283	1.06569
2761.70426	1.06307
2759.77570	1.06059
2757.84713	1.05771
2755.91857	1.05458
2753.99001	1.05173
2752.06144	1.04897
2750.13288	1.04617
2748.20431	1.04360
2746.27575	1.04121
2744.34718	1.03852
2742.41862	1.03553
2740.49005	1.03264
2738.56149	1.02980
2736.63293	1.02698
2734.70436	1.02420
2732.77580	1.02142
2730.84723	1.01921
2728.91867	1.01748
2726.99010	1.01534
2725.06154	1.01295
2723.13297	1.01055
2721.20441	1.00779
2719.27585	1.00519
2717.34728	1.00324
2715.41872	1.00165
2713.49015	1.00025
2711.56159	0.99841
2709.63302	0.99566
2707.70446	0.99272
2705.77589	0.99006
2703.84733	0.98792
2701.91877	0.98659
2699.99020	0.98529
2698.06164	0.98319
2696.13307	0.98068
2694.20451	0.97842
2692.27594	0.97654
2690.34738	0.97487
2688.41881	0.97307
2686.49025	0.97107
2684.56169	0.96939
2682.63312	0.96831
2680.70456	0.96742
2678.77599	0.96631
2676.84743	0.96453
2674.91886	0.96220
2672.99030	0.95982
2671.06173	0.95742
2669.13317	0.95510
2667.20461	0.95306
2665.27604	0.95164
2663.34748	0.95056
2661.41891	0.94882
2659.49035	0.94658
2657.56178	0.94478
2655.63322	0.94349
2653.70465	0.94233
2651.77609	0.94104
2649.84753	0.93961
2647.91896	0.93833
2645.99040	0.93751
2644.06183	0.93673
2642.13327	0.93564
2640.20470	0.93470
2638.27614	0.93417
2636.34757	0.93345
2634.41901	0.93214
2632.49045	0.93087
2630.56188	0.92997
2628.63332	0.92903
2626.70475	0.92816
2624.77619	0.92764
2622.84762	0.92704
2620.91906	0.92585
2618.99049	0.92424
2617.06193	0.92253
2615.13337	0.92096
2613.20480	0.91964
2611.27624	0.91827
2609.34767	0.91692
2607.41911	0.91565
2605.49054	0.91396
2603.56198	0.91196
2601.63342	0.91021
2599.70485	0.90872
2597.77629	0.90701
2595.84772	0.90512
2593.91916	0.90355
2591.99059	0.90244
2590.06203	0.90139
2588.13346	0.89971
2586.20490	0.89722
2584.27634	0.89494
2582.34777	0.89361
2580.41921	0.89265
2578.49064	0.89118
2576.56208	0.88919
2574.63351	0.88751
2572.70495	0.88641
2570.77638	0.88525
2568.84782	0.88385
2566.91926	0.88272
2564.99069	0.88225
2563.06213	0.88190
2561.13356	0.88079
2559.20500	0.87892
2557.27643	0.87691
2555.34787	0.87514
2553.41930	0.87382
2551.49074	0.87289
2549.56218	0.87193
2547.63361	0.87074
2545.70505	0.86937
2543.77648	0.86788
2541.84792	0.86638
2539.91935	0.86499
2537.99079	0.86369
2536.06222	0.86244
2534.13366	0.86088
2532.20510	0.85884
2530.27653	0.85694
2528.34797	0.85535
2526.41940	0.85375
2524.49084	0.85241
2522.56227	0.85159
2520.63371	0.85092
2518.70514	0.84989
2516.77658	0.84852
2514.84802	0.84704
2512.91945	0.84550
2510.99089	0.84415
2509.06232	0.84323
2507.13376	0.84243
2505.20519	0.84136
2503.27663	0.84006
2501.34806	0.83877
2499.41950	0.83755
2497.49094	0.83598
2495.56237	0.83399
2493.63381	0.83211
2491.70524	0.83033
2489.77668	0.82832
2487.84811	0.82636
2485.91955	0.82461
2483.99098	0.82302
2482.06242	0.82152
2480.13386	0.81980
2478.20529	0.81785
2476.27673	0.81618
2474.34816	0.81494
2472.41960	0.81378
2470.49103	0.81237
2468.56247	0.81060
2466.63391	0.80880
2464.70534	0.80728
2462.77678	0.80590
2460.84821	0.80452
2458.91965	0.80297
2456.99108	0.80113
2455.06252	0.79924
2453.13395	0.79765
2451.20539	0.79648
2449.27683	0.79531
2447.34826	0.79370
2445.41970	0.79184
2443.49113	0.79030
2441.56257	0.78924
2439.63400	0.78818
2437.70544	0.78660
2435.77687	0.78465
2433.84831	0.78284
2431.91975	0.78141
2429.99118	0.78022
2428.06262	0.77893
2426.13405	0.77748
2424.20549	0.77628
2422.27692	0.77540
2420.34836	0.77444
2418.41979	0.77330
2416.49123	0.77228
2414.56267	0.77141
2412.63410	0.77026
2410.70554	0.76884
2408.77697	0.76749
2406.84841	0.76619
2404.91984	0.76500
2402.99128	0.76401
2401.06271	0.76294
2399.13415	0.76171
2397.20559	0.76067
2395.27702	0.75970
2393.34846	0.75846
2391.41989	0.75698
2389.49133	0.75543
2387.56276	0.75403
2385.63420	0.75312
2383.70563	0.75258
2381.77707	0.75165
2379.84851	0.75029
2377.91994	0.74938
2375.99138	0.74909
2374.06281	0.74896
2372.13425	0.74819
2370.20568	0.74599
2368.27712	0.74413
2366.34855	0.74487
2364.41999	0.74548
2362.49143	0.74218
2360.56286	0.73799
2358.63430	0.73713
2356.70573	0.73798
2354.77717	0.73799
2352.84860	0.73745
2350.92004	0.73734
2348.99147	0.73782
2347.06291	0.73851
2345.13435	0.73894
2343.20578	0.73875
2341.27722	0.73835
2339.34865	0.73827
2337.42009	0.73777
2335.49152	0.73643
2333.56296	0.73506
2331.63440	0.73366
2329.70583	0.73207
2327.77727	0.73056
2325.84870	0.72933
2323.92014	0.72855
2321.99157	0.72795
2320.06301	0.72714
2318.13444	0.72603
2316.20588	0.72492
2314.27732	0.72390
2312.34875	0.72275
2310.42019	0.72112
2308.49162	0.71911
2306.56306	0.71750
2304.63449	0.71650
2302.70593	0.71579
2300.77736	0.71528
2298.84880	0.71491
2296.92024	0.71453
2294.99167	0.71393
2293.06311	0.71301
2291.13454	0.71214
2289.20598	0.71150
2287.27741	0.71081
2285.34885	0.71009
2283.42028	0.70956
2281.49172	0.70918
2279.56316	0.70893
2277.63459	0.70866
2275.70603	0.70813
2273.77746	0.70739
2271.84890	0.70664
2269.92033	0.70596
2267.99177	0.70523
2266.06320	0.70445
2264.13464	0.70356
2262.20608	0.70238
2260.27751	0.70115
2258.34895	0.70007
2256.42038	0.69916
2254.49182	0.69839
2252.56325	0.69770
2250.63469	0.69701
2248.70612	0.69630
2246.77756	0.69569
2244.84900	0.69517
2242.92043	0.69465
2240.99187	0.69407
2239.06330	0.69350
2237.13474	0.69320
2235.20617	0.69324
2233.27761	0.69327
2231.34904	0.69330
2229.42048	0.69364
2227.49192	0.69402
2225.56335	0.69406
2223.63479	0.69391
2221.70622	0.69392
2219.77766	0.69412
2217.84909	0.69427
2215.92053	0.69416
2213.99196	0.69380
2212.06340	0.69327
2210.13484	0.69263
2208.20627	0.69198
2206.27771	0.69123
2204.34914	0.69027
2202.42058	0.68940
2200.49201	0.68887
2198.56345	0.68838
2196.63488	0.68773
2194.70632	0.68710
2192.77776	0.68660
2190.84919	0.68623
2188.92063	0.68602
2186.99206	0.68591
2185.06350	0.68587
2183.13493	0.68606
2181.20637	0.68662
2179.27781	0.68731
2177.34924	0.68790
2175.42068	0.68865
2173.49211	0.68956
2171.56355	0.69021
2169.63498	0.69066
2167.70642	0.69109
2165.77785	0.69145
2163.84929	0.69179
2161.92073	0.69223
2159.99216	0.69246
2158.06360	0.69222
2156.13503	0.69159
2154.20647	0.69073
2152.27790	0.68976
2150.34934	0.68876
2148.42077	0.68768
2146.49221	0.68643
2144.56365	0.68505
2142.63508	0.68374
2140.70652	0.68265
2138.77795	0.68166
2136.84939	0.68064
2134.92082	0.67964
2132.99226	0.67870
2131.06369	0.67793
2129.13513	0.67756
2127.20657	0.67744
2125.27800	0.67729
2123.34944	0.67720
2121.42087	0.67741
2119.49231	0.67800
2117.56374	0.67865
2115.63518	0.67915
2113.70661	0.67965
2111.77805	0.68015
2109.84949	0.68062
2107.92092	0.68107
2105.99236	0.68156
2104.06379	0.68216
2102.13523	0.68248
2100.20666	0.68224
2098.27810	0.68180
2096.34953	0.68141
2094.42097	0.68099
2092.49241	0.68053
2090.56384	0.67985
2088.63528	0.67865
2086.70671	0.67711
2084.77815	0.67556
2082.84958	0.67408
2080.92102	0.67263
2078.99245	0.67106
2077.06389	0.66942
2075.13533	0.66795
2073.20676	0.66674
2071.27820	0.66560
2069.34963	0.66447
2067.42107	0.66358
2065.49250	0.66294
2063.56394	0.66227
2061.63537	0.66154
2059.70681	0.66104
2057.77825	0.66091
2055.84968	0.66101
2053.92112	0.66119
2051.99255	0.66147
2050.06399	0.66190
2048.13542	0.66242
2046.20686	0.66296
2044.27830	0.66339
2042.34973	0.66366
2040.42117	0.66358
2038.49260	0.66309
2036.56404	0.66261
2034.63547	0.66222
2032.70691	0.66162
2030.77834	0.66080
2028.84978	0.65993
2026.92122	0.65900
2024.99265	0.65786
2023.06409	0.65653
2021.13552	0.65526
2019.20696	0.65409
2017.27839	0.65253
2015.34983	0.65041
2013.42126	0.64837
2011.49270	0.64671
2009.56414	0.64533
2007.63557	0.64407
2005.70701	0.64274
2003.77844	0.64145
2001.84988	0.64036
1999.92131	0.63945
1997.99275	0.63865
1996.06418	0.63824
1994.13562	0.63836
1992.20706	0.63836
1990.27849	0.63779
1988.34993	0.63727
1986.42136	0.63698
1984.49280	0.63676
1982.56423	0.63657
1980.63567	0.63638
1978.70710	0.63626
1976.77854	0.63616
1974.84998	0.63595
1972.92141	0.63568
1970.99285	0.63552
1969.06428	0.63551
1967.13572	0.63507
1965.20715	0.63380
1963.27859	0.63231
1961.35002	0.63095
1959.42146	0.62939
1957.49290	0.62751
1955.56433	0.62539
1953.63577	0.62314
1951.70720	0.62092
1949.77864	0.61879
1947.85007	0.61686
1945.92151	0.61537
1943.99294	0.61408
1942.06438	0.61201
1940.13582	0.60918
1938.20725	0.60672
1936.27869	0.60508
1934.35012	0.60406
1932.42156	0.60325
1930.49299	0.60249
1928.56443	0.60208
1926.63586	0.60230
1924.70730	0.60312
1922.77874	0.60371
1920.85017	0.60363
1918.92161	0.60363
1916.99304	0.60340
1915.06448	0.60265
1913.13591	0.60242
1911.20735	0.60293
1909.27878	0.60321
1907.35022	0.60254
1905.42166	0.60151
1903.49309	0.60068
1901.56453	0.59982
1899.63596	0.59885
1897.70740	0.59813
1895.77883	0.59748
1893.85027	0.59650
1891.92171	0.59564
1889.99314	0.59467
1888.06458	0.59272
1886.13601	0.59063
1884.20745	0.58911
1882.27888	0.58786
1880.35032	0.58661
1878.42175	0.58528
1876.49319	0.58396
1874.56463	0.58293
1872.63606	0.58288
1870.70750	0.58423
1868.77893	0.58508
1866.85037	0.58280
1864.92180	0.57986
1862.99324	0.57844
1861.06467	0.57807
1859.13611	0.57793
1857.20755	0.57760
1855.27898	0.57724
1853.35042	0.57724
1851.42185	0.57773
1849.49329	0.57874
1847.56472	0.58015
1845.63616	0.58143
1843.70759	0.58109
1841.77903	0.57937
1839.85047	0.57851
1837.92190	0.57875
1835.99334	0.57898
1834.06477	0.57921
1832.13621	0.58052
1830.20764	0.58227
1828.27908	0.58232
1826.35051	0.58136
1824.42195	0.58041
1822.49339	0.57925
1820.56482	0.57836
1818.63626	0.57814
1816.70769	0.57829
1814.77913	0.57878
1812.85056	0.57980
1810.92200	0.58064
1808.99343	0.58034
1807.06487	0.57970
1805.13631	0.58003
1803.20774	0.58139
1801.27918	0.58281
1799.35061	0.58342
1797.42205	0.58401
1795.49348	0.58549
1793.56492	0.58773
1791.63635	0.58873
1789.70779	0.58750
1787.77923	0.58698
1785.85066	0.58828
1783.92210	0.59066
1781.99353	0.59344
1780.06497	0.59605
1778.13640	0.59842
1776.20784	0.60177
1774.27927	0.60716
1772.35071	0.61327
1770.42215	0.61642
1768.49358	0.61792
1766.56502	0.62036
1764.63645	0.62445
1762.70789	0.63092
1760.77932	0.63836
1758.85076	0.64519
1756.92220	0.65351
1754.99363	0.66274
1753.06507	0.67316
1751.13650	0.68872
1749.20794	0.70733
1747.27937	0.72093
1745.35081	0.73072
1743.42224	0.73979
1741.49368	0.74843
1739.56512	0.75616
1737.63655	0.76183
1735.70799	0.76736
1733.77942	0.77477
1731.85086	0.77887
1729.92229	0.78060
1727.99373	0.78365
1726.06516	0.78924
1724.13660	0.79787
1722.20804	0.80787
1720.27947	0.81918
1718.35091	0.83772
1716.42234	0.86377
1714.49378	0.88220
1712.56521	0.89761
1710.63665	0.91768
1708.70808	0.94457
1706.77952	0.98388
1704.85096	1.03423
1702.92239	1.08011
1700.99383	1.14140
1699.06526	1.23742
1697.13670	1.32487
1695.20813	1.40367
1693.27957	1.45966
1691.35100	1.50092
1689.42244	1.54786
1687.49388	1.58763
1685.56531	1.62048
1683.63675	1.65854
1681.70818	1.67967
1679.77962	1.68874
1677.85105	1.69887
1675.92249	1.71091
1673.99392	1.71873
1672.06536	1.72433
1670.13680	1.72710
1668.20823	1.72184
1666.27967	1.71428
1664.35110	1.71095
1662.42254	1.70955
1660.49397	1.70565
1658.56541	1.70415
1656.63684	1.70606
1654.70828	1.70829
1652.77972	1.69917
1650.85115	1.69057
1648.92259	1.68984
1646.99402	1.68665
1645.06546	1.67771
1643.13689	1.66942
1641.20833	1.66452
1639.27976	1.66325
1637.35120	1.66439
1635.42264	1.65732
1633.49407	1.64412
1631.56551	1.63690
1629.63694	1.63170
1627.70838	1.62545
1625.77981	1.61747
1623.85125	1.60777
1621.92269	1.59840
1619.99412	1.59280
1618.06556	1.58704
1616.13699	1.57284
1614.20843	1.55804
1612.27986	1.54735
1610.35130	1.53742
1608.42273	1.52632
1606.49417	1.51472
1604.56561	1.50551
1602.63704	1.49872
1600.70848	1.49436
1598.77991	1.49251
1596.85135	1.49230
1594.92278	1.49270
1592.99422	1.49297
1591.06565	1.49351
1589.13709	1.49570
1587.20853	1.50120
1585.27996	1.50954
1583.35140	1.51902
1581.42283	1.52785
1579.49427	1.53533
1577.56570	1.54512
1575.63714	1.55878
1573.70857	1.56810
1571.78001	1.57574
1569.85145	1.58714
1567.92288	1.59709
1565.99432	1.60300
1564.06575	1.60880
1562.13719	1.61449
1560.20862	1.62441
1558.28006	1.63831
1556.35149	1.63589
1554.42293	1.63013
1552.49437	1.62677
1550.56580	1.62538
1548.63724	1.62364
1546.70867	1.62273
1544.78011	1.62451
1542.85154	1.62832
1540.92298	1.62751
1538.99441	1.61276
1537.06585	1.60307
1535.13729	1.60036
1533.20872	1.59835
1531.28016	1.59311
1529.35159	1.58845
1527.42303	1.58553
1525.49446	1.58340
1523.56590	1.58322
1521.63733	1.58198
1519.70877	1.57534
1517.78021	1.56355
1515.85164	1.54704
1513.92308	1.53187
1511.99451	1.52038
1510.06595	1.51174
1508.13738	1.49627
1506.20882	1.45962
1504.28025	1.43686
1502.35169	1.42398
1500.42313	1.41023
1498.49456	1.39133
1496.56600	1.36456
1494.63743	1.34122
1492.70887	1.32678
1490.78030	1.31386
1488.85174	1.29539
1486.92317	1.27706
1484.99461	1.26526
1483.06605	1.25956
1481.13748	1.25845
1479.20892	1.26135
1477.28035	1.26962
1475.35179	1.28440
1473.42322	1.30557
1471.49466	1.32463
1469.56610	1.33346
1467.63753	1.33954
1465.70897	1.34857
1463.78040	1.35759
1461.85184	1.36205
1459.92327	1.36617
1457.99471	1.37502
1456.06614	1.38080
1454.13758	1.37774
1452.20902	1.37348
1450.28045	1.36934
1448.35189	1.36424
1446.42332	1.35782
1444.49476	1.35146
1442.56619	1.34529
1440.63763	1.33964
1438.70906	1.33466
1436.78050	1.32677
1434.85194	1.31511
1432.92337	1.30528
1430.99481	1.29749
1429.06624	1.29170
1427.13768	1.28970
1425.20911	1.29104
1423.28055	1.29433
1421.35198	1.29981
1419.42342	1.30873
1417.49486	1.31558
1415.56629	1.31698
1413.63773	1.31844
1411.70916	1.32217
1409.78060	1.32720
1407.85203	1.33280
1405.92347	1.33911
1403.99490	1.34386
1402.06634	1.34654
1400.13778	1.35022
1398.20921	1.35468
1396.28065	1.35616
1394.35208	1.35330
1392.42352	1.34980
1390.49495	1.34872
1388.56639	1.35039
1386.63782	1.35295
1384.70926	1.35405
1382.78070	1.35550
1380.85213	1.35743
1378.92357	1.35660
1376.99500	1.35121
1375.06644	1.34070
1373.13787	1.32570
1371.20931	1.31021
1369.28074	1.29372
1367.35218	1.27583
1365.42362	1.26040
1363.49505	1.24685
1361.56649	1.23354
1359.63792	1.22331
1357.70936	1.21710
1355.78079	1.21358
1353.85223	1.21201
1351.92366	1.21210
1349.99510	1.21282
1348.06654	1.21282
1346.13797	1.21193
1344.20941	1.21145
1342.28084	1.21253
1340.35228	1.21412
1338.42371	1.21327
1336.49515	1.21128
1334.56659	1.21188
1332.63802	1.21543
1330.70946	1.22075
1328.78089	1.22601
1326.85233	1.22937
1324.92376	1.23086
1322.99520	1.23193
1321.06663	1.23376
1319.13807	1.23598
1317.20951	1.23734
1315.28094	1.23779
1313.35238	1.23794
1311.42381	1.23792
1309.49525	1.23784
1307.56668	1.23743
1305.63812	1.23634
1303.70955	1.23502
1301.78099	1.23356
1299.85243	1.23107
1297.92386	1.22714
1295.99530	1.22239
1294.06673	1.21805
1292.13817	1.21487
1290.20960	1.21283
1288.28104	1.21175
1286.35247	1.21098
1284.42391	1.20968
1282.49535	1.20811
1280.56678	1.20664
1278.63822	1.20509
1276.70965	1.20377
1274.78109	1.20355
1272.85252	1.20486
1270.92396	1.20695
1268.99539	1.20906
1267.06683	1.21093
1265.13827	1.21231
1263.20970	1.21306
1261.28114	1.21256
1259.35257	1.21067
1257.42401	1.20865
1255.49544	1.20733
1253.56688	1.20651
1251.63831	1.20623
1249.70975	1.20673
1247.78119	1.20733
1245.85262	1.20717
1243.92406	1.20681
1241.99549	1.20721
1240.06693	1.20754
1238.13836	1.20633
1236.20980	1.20392
1234.28123	1.20124
1232.35267	1.19790
1230.42411	1.19326
1228.49554	1.18783
1226.56698	1.18182
1224.63841	1.17476
1222.70985	1.16710
1220.78128	1.15903
1218.85272	1.15044
1216.92415	1.14267
1214.99559	1.13693
1213.06703	1.13311
1211.13846	1.13052
1209.20990	1.12774
1207.28133	1.12321
1205.35277	1.11613
1203.42420	1.10636
1201.49564	1.09451
1199.56708	1.08175
1197.63851	1.06869
1195.70995	1.05574
1193.78138	1.04399
1191.85282	1.03457
1189.92425	1.02771
1187.99569	1.02297
1186.06712	1.02012
1184.13856	1.01935
1182.21000	1.02161
1180.28143	1.02787
1178.35287	1.03786
1176.42430	1.05109
1174.49574	1.06705
1172.56717	1.08433
1170.63861	1.10232
1168.71004	1.12148
1166.78148	1.14098
1164.85292	1.15861
1162.92435	1.17260
1160.99579	1.18201
1159.06722	1.18563
1157.13866	1.18247
1155.21009	1.17288
1153.28153	1.15829
1151.35296	1.14079
1149.42440	1.12251
1147.49584	1.10466
1145.56727	1.08869
1143.63871	1.07683
1141.71014	1.06998
1139.78158	1.06744
1137.85301	1.06834
1135.92445	1.07224
1133.99588	1.07916
1132.06732	1.08951
1130.13876	1.10364
1128.21019	1.12144
1126.28163	1.14139
1124.35306	1.16104
1122.42450	1.17901
1120.49593	1.19509
1118.56737	1.20847
1116.63880	1.21794
1114.71024	1.22286
1112.78168	1.22330
1110.85311	1.22073
1108.92455	1.21831
1106.99598	1.21813
1105.06742	1.22007
1103.13885	1.22311
1101.21029	1.22709
1099.28172	1.23364
1097.35316	1.24360
1095.42460	1.25551
1093.49603	1.26885
1091.56747	1.28515
1089.63890	1.30382
1087.71034	1.32216
1085.78177	1.33970
1083.85321	1.35578
1081.92464	1.36708
1079.99608	1.37205
1078.06752	1.37153
1076.13895	1.36532
1074.21039	1.35380
1072.28182	1.33857
1070.35326	1.32101
1068.42469	1.30385
1066.49613	1.28915
1064.56756	1.27662
1062.63900	1.26462
1060.71044	1.25151
1058.78187	1.23847
1056.85331	1.22732
1054.92474	1.21741
1052.99618	1.20863
1051.06761	1.20321
1049.13905	1.20238
1047.21049	1.20553
1045.28192	1.21290
1043.35336	1.22395
1041.42479	1.23586
1039.49623	1.24666
1037.56766	1.25532
1035.63910	1.26063
1033.71053	1.26277
1031.78197	1.26258
1029.85341	1.25971
1027.92484	1.25308
1025.99628	1.24310
1024.06771	1.23175
1022.13915	1.22075
1020.21058	1.21082
1018.28202	1.20106
1016.35345	1.18985
1014.42489	1.17629
1012.49633	1.15915
1010.56776	1.13794
1008.63920	1.11448
1006.71063	1.09098
1004.78207	1.06865
1002.85350	1.04797
1000.92494	1.02923
998.99637	1.01326
997.06781	1.00103
995.13925	0.99163
993.21068	0.98313
991.28212	0.97486
989.35355	0.96693
987.42499	0.95981
985.49642	0.95454
983.56786	0.95172
981.63929	0.95078
979.71073	0.95104
977.78217	0.95180
975.85360	0.95166
973.92504	0.94906
971.99647	0.94328
970.06791	0.93475
968.13934	0.92490
966.21078	0.91564
964.28221	0.90883
962.35365	0.90561
960.42509	0.90688
958.49652	0.91286
956.56796	0.92026
954.63939	0.92346
952.71083	0.91977
950.78226	0.91037
948.85370	0.89836
946.92513	0.88679
944.99657	0.87702
943.06801	0.86941
941.13944	0.86412
939.21088	0.86037
937.28231	0.85733
935.35375	0.85497
933.42518	0.85311
931.49662	0.85168
929.56805	0.85112
927.63949	0.85164
925.71093	0.85280
923.78236	0.85399
921.85380	0.85462
919.92523	0.85398
917.99667	0.85188
916.06810	0.84929
914.13954	0.84713
912.21098	0.84549
910.28241	0.84466
908.35385	0.84523
906.42528	0.84720
904.49672	0.84988
902.56815	0.85261
900.63959	0.85464
898.71102	0.85560
896.78246	0.85559
894.85390	0.85428
892.92533	0.85133
890.99677	0.84734
889.06820	0.84339
887.13964	0.84035
885.21107	0.83882
883.28251	0.83848
881.35394	0.83846
879.42538	0.83915
877.49682	0.84107
875.56825	0.84317
873.63969	0.84511
871.71112	0.84788
869.78256	0.85148
867.85399	0.85504
865.92543	0.85841
863.99686	0.86191
862.06830	0.86596
860.13974	0.87111
858.21117	0.87738
856.28261	0.88427
854.35404	0.89091
852.42548	0.89621
850.49691	0.89994
848.56835	0.90277
846.63978	0.90488
844.71122	0.90623
842.78266	0.90692
840.85409	0.90736
838.92553	0.90799
836.99696	0.90836
835.06840	0.90796
833.13983	0.90745
831.21127	0.90738
829.28270	0.90730
827.35414	0.90715
825.42558	0.90789
823.49701	0.90935
821.56845	0.91086
819.63988	0.91306
817.71132	0.91635
815.78275	0.92048
813.85419	0.92570
811.92562	0.93195
809.99706	0.93855
808.06850	0.94488
806.13993	0.95046
804.21137	0.95593
802.28280	0.96246
800.35424	0.96958
798.42567	0.97578
796.49711	0.98044
794.56854	0.98409
792.63998	0.98731
790.71142	0.99063
788.78285	0.99437
786.85429	0.99778
784.92572	1.00036
782.99716	1.00287
781.06859	1.00558
779.14003	1.00771
777.21147	1.00951
775.28290	1.01185
773.35434	1.01439
771.42577	1.01677
769.49721	1.01993
767.56864	1.02464
765.64008	1.03038
763.71151	1.03616
761.78295	1.04224
759.85439	1.04998
757.92582	1.05957
755.99726	1.06976
754.06869	1.07984
752.14013	1.08989
750.21156	1.10000
748.28300	1.11010
746.35443	1.11914
744.42587	1.12607
742.49731	1.13175
740.56874	1.13628
738.64018	1.13895
736.71161	1.14166
734.78305	1.14602
732.85448	1.15102
730.92592	1.15554
728.99735	1.15968
727.06879	1.16395
725.14023	1.16796
723.21166	1.17218
721.28310	1.17785
719.35453	1.18337
717.42597	1.18687
715.49740	1.18960
713.56884	1.19270
711.64027	1.19599
709.71171	1.20039
707.78315	1.20610
705.85458	1.21094
703.92602	1.21333
701.99745	1.21415
700.06889	1.21579
698.14032	1.21883
696.21176	1.22122
694.28319	1.22164
692.35463	1.22149
690.42607	1.22286
688.49750	1.22492
686.56894	1.22713
684.64037	1.23091
682.71181	1.23547
680.78324	1.23860
678.85468	1.24026
676.92611	1.24256
674.99755	1.24596
673.06899	1.24839
671.14042	1.24825
669.21186	1.24616
667.28329	1.24733
665.35473	1.25041
663.42616	1.25139
661.49760	1.25156
659.56903	1.25109
657.64047	1.24970
655.71191	1.24952
653.78334	1.24946
651.85478	1.24761
649.92621	1.24599
647.99765	1.24516
646.06908	1.24523
644.14052	1.24789
642.21195	1.25137
640.28339	1.25211
638.35483	1.25061
636.42626	1.24995
634.49770	1.25112
632.56913	1.25326
630.64057	1.25530
628.71200	1.25679
626.78344	1.25770
624.85488	1.25715
622.92631	1.25527
620.99775	1.25312
619.06918	1.25183
617.14062	1.25332
615.21205	1.25714
613.28349	1.26120
611.35492	1.26507
609.42636	1.26761
607.49780	1.26899
605.56923	1.27086
603.64067	1.27074
601.71210	1.26715
599.78354	1.26306
