3997.91406	0.99535
3995.98550	0.99569
3994.05693	0.99565
3992.12837	0.99578
3990.19980	0.99569
3988.27124	0.99488
3986.34268	0.99396
3984.41411	0.99420
3982.48555	0.99515
3980.55698	0.99548
3978.62842	0.99462
3976.69985	0.99261
3974.77129	0.99072
3972.84272	0.99043
3970.91416	0.99073
3968.98560	0.99000
3967.05703	0.98940
3965.12847	0.99006
3963.19990	0.99030
3961.27134	0.98893
3959.34277	0.98755
3957.41421	0.98769
3955.48564	0.98876
3953.55708	0.98895
3951.62852	0.98821
3949.69995	0.98742
3947.77139	0.98576
3945.84282	0.98408
3943.91426	0.98341
3941.98569	0.98223
3940.05713	0.98114
3938.12856	0.98076
3936.20000	0.98001
3934.27144	0.97933
3932.34287	0.97900
3930.41431	0.97773
3928.48574	0.97542
3926.55718	0.97401
3924.62861	0.97530
3922.70005	0.97739
3920.77148	0.97782
3918.84292	0.97671
3916.91436	0.97465
3914.98579	0.97274
3913.05723	0.97157
3911.12866	0.97048
3909.20010	0.96982
3907.27153	0.97111
3905.34297	0.97436
3903.41440	0.97709
3901.48584	0.97740
3899.55728	0.97538
3897.62871	0.97249
3895.70015	0.97043
3893.77158	0.96998
3891.84302	0.97135
3889.91445	0.97279
3887.98589	0.97352
3886.05733	0.97343
3884.12876	0.97216
3882.20020	0.97218
3880.27163	0.97322
3878.34307	0.97205
3876.41450	0.96968
3874.48594	0.96813
3872.55737	0.96914
3870.62881	0.97169
3868.70025	0.97042
3866.77168	0.96699
3864.84312	0.96488
3862.91455	0.96261
3860.98599	0.96058
3859.05742	0.96085
3857.12886	0.96352
3855.20029	0.96871
3853.27173	0.97285
3851.34317	0.96859
3849.41460	0.96254
3847.48604	0.95849
3845.55747	0.95806
3843.62891	0.96126
3841.70034	0.96494
3839.77178	0.96709
3837.84321	0.96648
3835.91465	0.96212
3833.98609	0.95770
3832.05752	0.95545
3830.12896	0.95452
3828.20039	0.95452
3826.27183	0.95574
3824.34326	0.95789
3822.41470	0.96164
3820.48613	0.96472
3818.55757	0.96379
3816.62901	0.96023
3814.70044	0.95464
3812.77188	0.95076
3810.84331	0.94987
3808.91475	0.95071
3806.98618	0.95128
3805.05762	0.95103
3803.12905	0.95230
3801.20049	0.95437
3799.27193	0.95372
3797.34336	0.95126
3795.41480	0.94753
3793.48623	0.94431
3791.55767	0.94365
3789.62910	0.94433
3787.70054	0.94398
3785.77197	0.94280
3783.84341	0.94195
3781.91485	0.94213
3779.98628	0.94321
3778.05772	0.94301
3776.12915	0.94090
3774.20059	0.93849
3772.27202	0.93757
3770.34346	0.93920
3768.41489	0.94082
3766.48633	0.94023
3764.55777	0.93893
3762.62920	0.93871
3760.70064	0.93929
3758.77207	0.93873
3756.84351	0.93763
3754.91494	0.93835
3752.98638	0.94264
3751.05781	0.94955
3749.12925	0.94941
3747.20069	0.94476
3745.27212	0.94102
3743.34356	0.93977
3741.41499	0.94034
3739.48643	0.94125
3737.55786	0.94307
3735.62930	0.94470
3733.70074	0.94180
3731.77217	0.93754
3729.84361	0.93554
3727.91504	0.93538
3725.98648	0.93624
3724.05791	0.93728
3722.12935	0.93836
3720.20078	0.93945
3718.27222	0.93949
3716.34366	0.93833
3714.41509	0.93798
3712.48653	0.94001
3710.55796	0.94066
3708.62940	0.93673
3706.70083	0.93201
3704.77227	0.92884
3702.84370	0.92765
3700.91514	0.92727
3698.98658	0.92722
3697.05801	0.92819
3695.12945	0.93002
3693.20088	0.93390
3691.27232	0.94147
3689.34375	0.94560
3687.41519	0.94028
3685.48662	0.93639
3683.55806	0.93697
3681.62950	0.94011
3679.70093	0.94453
3677.77237	0.94970
3675.84380	0.95463
3673.91524	0.95514
3671.98667	0.95320
3670.05811	0.95314
3668.12954	0.95527
3666.20098	0.95759
3664.27242	0.95989
3662.34385	0.96211
3660.41529	0.96469
3658.48672	0.96895
3656.55816	0.97547
3654.62959	0.98106
3652.70103	0.98595
3650.77246	0.99502
3648.84390	1.00447
3646.91534	1.00343
3644.98677	1.00019
3643.05821	0.99953
3641.12964	1.00243
3639.20108	1.00727
3637.27251	1.01086
3635.34395	1.01359
3633.41538	1.01745
3631.48682	1.02297
3629.55826	1.03248
3627.62969	1.04030
3625.70113	1.04156
3623.77256	1.04319
3621.84400	1.04739
3619.91543	1.05368
3617.98687	1.05954
3616.05830	1.06377
3614.12974	1.06780
3612.20118	1.07168
3610.27261	1.07599
3608.34405	1.08204
3606.41548	1.08768
3604.48692	1.09152
3602.55835	1.09611
3600.62979	1.10170
3598.70123	1.10658
3596.77266	1.11196
3594.84410	1.11868
3592.91553	1.12354
3590.98697	1.12580
3589.05840	1.13035
3587.12984	1.13926
3585.20127	1.14541
3583.27271	1.14778
3581.34415	1.14996
3579.41558	1.15308
3577.48702	1.15702
3575.55845	1.16218
3573.62989	1.16821
3571.70132	1.17395
3569.77276	1.17964
3567.84419	1.18844
3565.91563	1.19956
3563.98707	1.20584
3562.05850	1.20855
3560.12994	1.21056
3558.20137	1.21390
3556.27281	1.21950
3554.34424	1.22592
3552.41568	1.23074
3550.48711	1.23364
3548.55855	1.23848
3546.62999	1.24775
3544.70142	1.25701
3542.77286	1.26055
3540.84429	1.26106
3538.91573	1.26371
3536.98716	1.26966
3535.05860	1.27603
3533.13003	1.28078
3531.20147	1.28607
3529.27291	1.29321
3527.34434	1.29947
3525.41578	1.30331
3523.48721	1.30677
3521.55865	1.31188
3519.63008	1.31817
3517.70152	1.32383
3515.77295	1.32812
3513.84439	1.33266
3511.91583	1.33968
3509.98726	1.35043
3508.05870	1.36186
3506.13013	1.36993
3504.20157	1.37664
3502.27300	1.38280
3500.34444	1.38699
3498.41587	1.39307
3496.48731	1.40287
3494.55875	1.41071
3492.63018	1.41383
3490.70162	1.41691
3488.77305	1.42245
3486.84449	1.42915
3484.91592	1.43428
3482.98736	1.43850
3481.05879	1.44550
3479.13023	1.45089
3477.20167	1.45074
3475.27310	1.45092
3473.34454	1.45459
3471.41597	1.45817
3469.48741	1.46143
3467.55884	1.46595
3465.63028	1.46860
3463.70171	1.46945
3461.77315	1.47216
3459.84459	1.47575
3457.91602	1.47797
3455.98746	1.47884
3454.05889	1.48030
3452.13033	1.48524
3450.20176	1.49125
3448.27320	1.49381
3446.34464	1.49508
3444.41607	1.49657
3442.48751	1.49662
3440.55894	1.49695
3438.63038	1.49856
3436.70181	1.49889
3434.77325	1.49750
3432.84468	1.49905
3430.91612	1.50327
3428.98756	1.50380
3427.05899	1.50162
3425.13043	1.50207
3423.20186	1.50430
3421.27330	1.50330
3419.34473	1.49915
3417.41617	1.49766
3415.48760	1.49959
3413.55904	1.50107
3411.63048	1.50213
3409.70191	1.50438
3407.77335	1.50546
3405.84478	1.50356
3403.91622	1.50113
3401.98765	1.50136
3400.05909	1.50435
3398.13052	1.50722
3396.20196	1.50673
3394.27340	1.50444
3392.34483	1.50535
3390.41627	1.50803
3388.48770	1.50904
3386.55914	1.51010
3384.63057	1.51065
3382.70201	1.50900
3380.77344	1.50775
3378.84488	1.50989
3376.91632	1.51427
3374.98775	1.51628
3373.05919	1.51299
3371.13062	1.50735
3369.20206	1.50640
3367.27349	1.51137
3365.34493	1.51477
3363.41636	1.51520
3361.48780	1.51862
3359.55924	1.52405
3357.63067	1.52825
3355.70211	1.53225
3353.77354	1.53410
3351.84498	1.53323
3349.91641	1.53329
3347.98785	1.53527
3346.05928	1.53747
3344.13072	1.53770
3342.20216	1.53819
3340.27359	1.54214
3338.34503	1.54483
3336.41646	1.54400
3334.48790	1.54657
3332.55933	1.55262
3330.63077	1.55415
3328.70220	1.55133
3326.77364	1.55029
3324.84508	1.55247
3322.91651	1.55540
3320.98795	1.55697
3319.05938	1.55829
3317.13082	1.56146
3315.20225	1.56659
3313.27369	1.57177
3311.34513	1.57424
3309.41656	1.57367
3307.48800	1.57358
3305.55943	1.57607
3303.63087	1.57870
3301.70230	1.58150
3299.77374	1.58657
3297.84517	1.59122
3295.91661	1.59107
3293.98805	1.58665
3292.05948	1.58501
3290.13092	1.58926
3288.20235	1.59307
3286.27379	1.59177
3284.34522	1.58684
3282.41666	1.58217
3280.48809	1.57979
3278.55953	1.57879
3276.63097	1.57830
3274.70240	1.57775
3272.77384	1.57669
3270.84527	1.57566
3268.91671	1.57621
3266.98814	1.57654
3265.05958	1.57172
3263.13101	1.56290
3261.20245	1.55487
3259.27389	1.54873
3257.34532	1.54387
3255.41676	1.53776
3253.48819	1.53041
3251.55963	1.52599
3249.63106	1.52261
3247.70250	1.51552
3245.77393	1.50660
3243.84537	1.49986
3241.91681	1.49569
3239.98824	1.49194
3238.05968	1.48677
3236.13111	1.48091
3234.20255	1.47541
3232.27398	1.46919
3230.34542	1.46353
3228.41685	1.46058
3226.48829	1.45846
3224.55973	1.45619
3222.63116	1.45477
3220.70260	1.45278
3218.77403	1.44905
3216.84547	1.44538
3214.91690	1.44223
3212.98834	1.43730
3211.05977	1.42994
3209.13121	1.42282
3207.20265	1.41841
3205.27408	1.41513
3203.34552	1.41083
3201.41695	1.40686
3199.48839	1.40391
3197.55982	1.40016
3195.63126	1.39583
3193.70269	1.39184
3191.77413	1.38617
3189.84557	1.37969
3187.91700	1.37624
3185.98844	1.37415
3184.05987	1.37015
3182.13131	1.36531
3180.20274	1.36043
3178.27418	1.35501
3176.34562	1.34991
3174.41705	1.34555
3172.48849	1.34115
3170.55992	1.33707
3168.63136	1.33345
3166.70279	1.32932
3164.77423	1.32480
3162.84566	1.32043
3160.91710	1.31671
3158.98854	1.31416
3157.05997	1.31139
3155.13141	1.30730
3153.20284	1.30331
3151.27428	1.30034
3149.34571	1.29715
3147.41715	1.29289
3145.48858	1.28914
3143.56002	1.28761
3141.63146	1.28709
3139.70289	1.28507
3137.77433	1.28226
3135.84576	1.28055
3133.91720	1.27941
3131.98863	1.27859
3130.06007	1.27867
3128.13150	1.27951
3126.20294	1.28104
3124.27438	1.28232
3122.34581	1.28197
3120.41725	1.28084
3118.48868	1.28109
3116.56012	1.28263
3114.63155	1.28348
3112.70299	1.28332
3110.77442	1.28317
3108.84586	1.28341
3106.91730	1.28300
3104.98873	1.28112
3103.06017	1.27955
3101.13160	1.27909
3099.20304	1.27806
3097.27447	1.27637
3095.34591	1.27523
3093.41734	1.27409
3091.48878	1.27171
3089.56022	1.26923
3087.63165	1.26776
3085.70309	1.26587
3083.77452	1.26310
3081.84596	1.26036
3079.91739	1.25751
3077.98883	1.25454
3076.06026	1.25164
3074.13170	1.24882
3072.20314	1.24621
3070.27457	1.24368
3068.34601	1.24104
3066.41744	1.23793
3064.48888	1.23461
3062.56031	1.23187
3060.63175	1.22915
3058.70318	1.22561
3056.77462	1.22190
3054.84606	1.21819
3052.91749	1.21390
3050.98893	1.21026
3049.06036	1.20829
3047.13180	1.20553
3045.20323	1.20017
3043.27467	1.19446
3041.34610	1.19050
3039.41754	1.18770
3037.48898	1.18551
3035.56041	1.18443
3033.63185	1.18355
3031.70328	1.18077
3029.77472	1.17637
3027.84615	1.17257
3025.91759	1.17006
3023.98903	1.16847
3022.06046	1.16737
3020.13190	1.16584
3018.20333	1.16400
3016.27477	1.16281
3014.34620	1.16138
3012.41764	1.15866
3010.48907	1.15606
3008.56051	1.15463
3006.63195	1.15378
3004.70338	1.15306
3002.77482	1.15210
3000.84625	1.15107
2998.91769	1.15040
2996.98912	1.15080
2995.06056	1.15323
2993.13199	1.15644
2991.20343	1.15892
2989.27487	1.16162
2987.34630	1.16532
2985.41774	1.16996
2983.48917	1.17572
2981.56061	1.18153
2979.63204	1.18637
2977.70348	1.19183
2975.77491	1.19911
2973.84635	1.20678
2971.91779	1.21341
2969.98922	1.21878
2968.06066	1.22411
2966.13209	1.23041
2964.20353	1.23599
2962.27496	1.23907
2960.34640	1.23981
2958.41783	1.23843
2956.48927	1.23508
2954.56071	1.23075
2952.63214	1.22640
2950.70358	1.22226
2948.77501	1.21901
2946.84645	1.21847
2944.91788	1.22128
2942.98932	1.22705
2941.06075	1.23622
2939.13219	1.24781
2937.20363	1.25930
2935.27506	1.26936
2933.34650	1.27855
2931.41793	1.28939
2929.48937	1.30200
2927.56080	1.31223
2925.63224	1.31829
2923.70367	1.32160
2921.77511	1.32293
2919.84655	1.32146
2917.91798	1.31434
2915.98942	1.29975
2914.06085	1.27918
2912.13229	1.25645
2910.20372	1.23661
2908.27516	1.22289
2906.34659	1.21415
2904.41803	1.20726
2902.48947	1.20095
2900.56090	1.19496
2898.63234	1.18964
2896.70377	1.18624
2894.77521	1.18397
2892.84664	1.18086
2890.91808	1.17664
2888.98952	1.17211
2887.06095	1.16866
2885.13239	1.16686
2883.20382	1.16595
2881.27526	1.16570
2879.34669	1.16610
2877.41813	1.16610
2875.48956	1.16517
2873.56100	1.16345
2871.63244	1.15981
2869.70387	1.15366
2867.77531	1.14683
2865.84674	1.14126
2863.91818	1.13785
2861.98961	1.13704
2860.06105	1.13918
2858.13248	1.14444
2856.20392	1.15232
2854.27536	1.16171
2852.34679	1.17051
2850.41823	1.17273
2848.48966	1.16090
2846.56110	1.13682
2844.63253	1.11041
2842.70397	1.08896
2840.77540	1.07449
2838.84684	1.06493
2836.91828	1.05734
2834.98971	1.05091
2833.06115	1.04536
2831.13258	1.04058
2829.20402	1.03685
2827.27545	1.03327
2825.34689	1.02915
2823.41832	1.02539
2821.48976	1.02216
2819.56120	1.01869
2817.63263	1.01520
2815.70407	1.01186
2813.77550	1.00830
2811.84694	1.00521
2809.91837	1.00297
2807.98981	1.00075
2806.06124	0.99819
2804.13268	0.99528
2802.20412	0.99178
2800.27555	0.98812
2798.34699	0.98498
2796.41842	0.98233
2794.48986	0.98001
2792.56129	0.97809
2790.63273	0.97616
2788.70416	0.97375
2786.77560	0.97136
2784.84704	0.96957
2782.91847	0.96793
2780.98991	0.96594
2779.06134	0.96382
2777.13278	0.96185
2775.20421	0.95980
2773.27565	0.95769
2771.34708	0.95576
2769.41852	0.95393
2767.48996	0.95225
2765.56139	0.95081
2763.63283	0.94932
2761.70426	0.94768
2759.77570	0.94606
2757.84713	0.94445
2755.91857	0.94274
2753.99001	0.94098
2752.06144	0.93953
2750.13288	0.93843
2748.20431	0.93704
2746.27575	0.93527
2744.34718	0.93398
2742.41862	0.93327
2740.49005	0.93265
2738.56149	0.93195
2736.63293	0.93114
2734.70436	0.93041
2732.77580	0.92976
2730.84723	0.92885
2728.91867	0.92759
2726.99010	0.92625
2725.06154	0.92502
2723.13297	0.92372
2721.20441	0.92201
2719.27585	0.92004
2717.34728	0.91844
2715.41872	0.91724
2713.49015	0.91606
2711.56159	0.91474
2709.63302	0.91326
2707.70446	0.91171
2705.77589	0.91003
2703.84733	0.90836
2701.91877	0.90665
2699.99020	0.90447
2698.06164	0.90197
2696.13307	0.89999
2694.20451	0.89900
2692.27594	0.89819
2690.34738	0.89659
2688.41881	0.89458
2686.49025	0.89281
2684.56169	0.89142
2682.63312	0.89031
2680.70456	0.88913
2678.77599	0.88765
2676.84743	0.88598
2674.91886	0.88442
2672.99030	0.88305
2671.06173	0.88182
2669.13317	0.88084
2667.20461	0.87982
2665.27604	0.87832
2663.34748	0.87667
2661.41891	0.87524
2659.49035	0.87385
2657.56178	0.87232
2655.63322	0.87067
2653.70465	0.86922
2651.77609	0.86843
2649.84753	0.86796
2647.91896	0.86715
2645.99040	0.86597
2644.06183	0.86469
2642.13327	0.86361
2640.20470	0.86269
2638.27614	0.86163
2636.34757	0.86054
2634.41901	0.85976
2632.49045	0.85916
2630.56188	0.85834
2628.63332	0.85734
2626.70475	0.85649
2624.77619	0.85590
2622.84762	0.85557
2620.91906	0.85525
2618.99049	0.85461
2617.06193	0.85356
2615.13337	0.85232
2613.20480	0.85130
2611.27624	0.85060
2609.34767	0.84997
2607.41911	0.84926
2605.49054	0.84830
2603.56198	0.84691
2601.63342	0.84542
2599.70485	0.84426
2597.77629	0.84343
2595.84772	0.84249
2593.91916	0.84143
2591.99059	0.84061
2590.06203	0.84006
2588.13346	0.83959
2586.20490	0.83881
2584.27634	0.83762
2582.34777	0.83674
2580.41921	0.83657
2578.49064	0.83651
2576.56208	0.83593
2574.63351	0.83498
2572.70495	0.83424
2570.77638	0.83369
2568.84782	0.83288
2566.91926	0.83183
2564.99069	0.83088
2563.06213	0.82998
2561.13356	0.82910
2559.20500	0.82824
2557.27643	0.82720
2555.34787	0.82607
2553.41930	0.82508
2551.49074	0.82416
2549.56218	0.82310
2547.63361	0.82205
2545.70505	0.82110
2543.77648	0.82006
2541.84792	0.81894
2539.91935	0.81782
2537.99079	0.81663
2536.06222	0.81545
2534.13366	0.81442
2532.20510	0.81331
2530.27653	0.81196
2528.34797	0.81052
2526.41940	0.80912
2524.49084	0.80785
2522.56227	0.80677
2520.63371	0.80589
2518.70514	0.80514
2516.77658	0.80410
2514.84802	0.80268
2512.91945	0.80138
2510.99089	0.80042
2509.06232	0.79966
2507.13376	0.79897
2505.20519	0.79842
2503.27663	0.79796
2501.34806	0.79735
2499.41950	0.79652
2497.49094	0.79551
2495.56237	0.79447
2493.63381	0.79374
2491.70524	0.79308
2489.77668	0.79219
2487.84811	0.79135
2485.91955	0.79057
2483.99098	0.78962
2482.06242	0.78858
2480.13386	0.78754
2478.20529	0.78668
2476.27673	0.78626
2474.34816	0.78606
2472.41960	0.78556
2470.49103	0.78468
2468.56247	0.78369
2466.63391	0.78272
2464.70534	0.78180
2462.77678	0.78101
2460.84821	0.78021
2458.91965	0.77907
2456.99108	0.77783
2455.06252	0.77696
2453.13395	0.77629
2451.20539	0.77581
2449.27683	0.77546
2447.34826	0.77480
2445.41970	0.77365
2443.49113	0.77219
2441.56257	0.77088
2439.63400	0.77009
2437.70544	0.76960
2435.77687	0.76891
2433.84831	0.76790
2431.91975	0.76687
2429.99118	0.76590
2428.06262	0.76476
2426.13405	0.76345
2424.20549	0.76218
2422.27692	0.76096
2420.34836	0.75982
2418.41979	0.75881
2416.49123	0.75775
2414.56267	0.75657
2412.63410	0.75551
2410.70554	0.75462
2408.77697	0.75381
2406.84841	0.75301
2404.91984	0.75228
2402.99128	0.75168
2401.06271	0.75114
2399.13415	0.75053
2397.20559	0.74991
2395.27702	0.74939
2393.34846	0.74889
2391.41989	0.74850
2389.49133	0.74825
2387.56276	0.74785
2385.63420	0.74736
2383.70563	0.74719
2381.77707	0.74727
2379.84851	0.74714
2377.91994	0.74688
2375.99138	0.74684
2374.06281	0.74664
2372.13425	0.74593
2370.20568	0.74471
2368.27712	0.74328
2366.34855	0.74310
2364.41999	0.74479
2362.49143	0.74471
2360.56286	0.74138
2358.63430	0.73925
2356.70573	0.73885
2354.77717	0.73879
2352.84860	0.73970
2350.92004	0.74033
2348.99147	0.73997
2347.06291	0.73874
2345.13435	0.73691
2343.20578	0.73570
2341.27722	0.73516
2339.34865	0.73464
2337.42009	0.73501
2335.49152	0.73599
2333.56296	0.73615
2331.63440	0.73520
2329.70583	0.73401
2327.77727	0.73313
2325.84870	0.73282
2323.92014	0.73289
2321.99157	0.73227
2320.06301	0.73089
2318.13444	0.72971
2316.20588	0.72866
2314.27732	0.72762
2312.34875	0.72700
2310.42019	0.72650
2308.49162	0.72550
2306.56306	0.72423
2304.63449	0.72335
2302.70593	0.72275
2300.77736	0.72194
2298.84880	0.72098
2296.92024	0.72000
2294.99167	0.71900
2293.06311	0.71812
2291.13454	0.71719
2289.20598	0.71601
2287.27741	0.71478
2285.34885	0.71382
2283.42028	0.71325
2281.49172	0.71299
2279.56316	0.71279
2277.63459	0.71250
2275.70603	0.71234
2273.77746	0.71255
2271.84890	0.71276
2269.92033	0.71278
2267.99177	0.71285
2266.06320	0.71294
2264.13464	0.71287
2262.20608	0.71284
2260.27751	0.71308
2258.34895	0.71328
2256.42038	0.71302
2254.49182	0.71250
2252.56325	0.71194
2250.63469	0.71115
2248.70612	0.71008
2246.77756	0.70895
2244.84900	0.70785
2242.92043	0.70665
2240.99187	0.70534
2239.06330	0.70395
2237.13474	0.70249
2235.20617	0.70102
2233.27761	0.69954
2231.34904	0.69819
2229.42048	0.69709
2227.49192	0.69626
2225.56335	0.69556
2223.63479	0.69488
2221.70622	0.69437
2219.77766	0.69413
2217.84909	0.69407
2215.92053	0.69422
2213.99196	0.69448
2212.06340	0.69466
2210.13484	0.69498
2208.20627	0.69564
2206.27771	0.69632
2204.34914	0.69673
2202.42058	0.69707
2200.49201	0.69757
2198.56345	0.69803
2196.63488	0.69828
2194.70632	0.69852
2192.77776	0.69872
2190.84919	0.69858
2188.92063	0.69819
2186.99206	0.69792
2185.06350	0.69788
2183.13493	0.69766
2181.20637	0.69702
2179.27781	0.69634
2177.34924	0.69600
2175.42068	0.69580
2173.49211	0.69535
2171.56355	0.69466
2169.63498	0.69401
2167.70642	0.69353
2165.77785	0.69327
2163.84929	0.69322
2161.92073	0.69311
2159.99216	0.69274
2158.06360	0.69234
2156.13503	0.69201
2154.20647	0.69167
2152.27790	0.69134
2150.34934	0.69107
2148.42077	0.69088
2146.49221	0.69064
2144.56365	0.69012
2142.63508	0.68931
2140.70652	0.68845
2138.77795	0.68770
2136.84939	0.68697
2134.92082	0.68623
2132.99226	0.68554
2131.06369	0.68488
2129.13513	0.68419
2127.20657	0.68353
2125.27800	0.68299
2123.34944	0.68253
2121.42087	0.68211
2119.49231	0.68182
2117.56374	0.68178
2115.63518	0.68191
2113.70661	0.68205
2111.77805	0.68216
2109.84949	0.68229
2107.92092	0.68242
2105.99236	0.68283
2104.06379	0.68355
2102.13523	0.68405
2100.20666	0.68411
2098.27810	0.68406
2096.34953	0.68407
2094.42097	0.68421
2092.49241	0.68453
2090.56384	0.68481
2088.63528	0.68468
2086.70671	0.68415
2084.77815	0.68361
2082.84958	0.68311
2080.92102	0.68254
2078.99245	0.68184
2077.06389	0.68092
2075.13533	0.67997
2073.20676	0.67920
2071.27820	0.67852
2069.34963	0.67787
2067.42107	0.67737
2065.49250	0.67668
2063.56394	0.67551
2061.63537	0.67435
2059.70681	0.67338
2057.77825	0.67224
2055.84968	0.67120
2053.92112	0.67059
2051.99255	0.67005
2050.06399	0.66932
2048.13542	0.66859
2046.20686	0.66795
2044.27830	0.66723
2042.34973	0.66648
2040.42117	0.66579
2038.49260	0.66522
2036.56404	0.66477
2034.63547	0.66438
2032.70691	0.66406
2030.77834	0.66392
2028.84978	0.66388
2026.92122	0.66379
2024.99265	0.66363
2023.06409	0.66350
2021.13552	0.66346
2019.20696	0.66352
2017.27839	0.66335
2015.34983	0.66274
2013.42126	0.66204
2011.49270	0.66152
2009.56414	0.66109
2007.63557	0.66065
2005.70701	0.66020
2003.77844	0.65977
2001.84988	0.65930
1999.92131	0.65870
1997.99275	0.65813
1996.06418	0.65798
1994.13562	0.65837
1992.20706	0.65865
1990.27849	0.65809
1988.34993	0.65696
1986.42136	0.65578
1984.49280	0.65466
1982.56423	0.65377
1980.63567	0.65319
1978.70710	0.65268
1976.77854	0.65204
1974.84998	0.65141
1972.92141	0.65104
1970.99285	0.65112
1969.06428	0.65170
1967.13572	0.65190
1965.20715	0.65094
1963.27859	0.64976
1961.35002	0.64913
1959.42146	0.64878
1957.49290	0.64844
1955.56433	0.64802
1953.63577	0.64761
1951.70720	0.64734
1949.77864	0.64717
1947.85007	0.64727
1945.92151	0.64787
1943.99294	0.64848
1942.06438	0.64792
1940.13582	0.64633
1938.20725	0.64494
1936.27869	0.64395
1934.35012	0.64322
1932.42156	0.64273
1930.49299	0.64227
1928.56443	0.64171
1926.63586	0.64151
1924.70730	0.64206
1922.77874	0.64239
1920.85017	0.64180
1918.92161	0.64103
1916.99304	0.63995
1915.06448	0.63856
1913.13591	0.63785
1911.20735	0.63770
1909.27878	0.63699
1907.35022	0.63540
1905.42166	0.63369
1903.49309	0.63216
1901.56453	0.63063
1899.63596	0.62931
1897.70740	0.62842
1895.77883	0.62759
1893.85027	0.62644
1891.92171	0.62558
1889.99314	0.62511
1888.06458	0.62404
1886.13601	0.62254
1884.20745	0.62117
1882.27888	0.62000
1880.35032	0.61921
1878.42175	0.61863
1876.49319	0.61807
1874.56463	0.61768
1872.63606	0.61811
1870.70750	0.62005
1868.77893	0.62188
1866.85037	0.62028
1864.92180	0.61714
1862.99324	0.61520
1861.06467	0.61436
1859.13611	0.61371
1857.20755	0.61274
1855.27898	0.61160
1853.35042	0.61068
1851.42185	0.61028
1849.49329	0.61063
1847.56472	0.61160
1845.63616	0.61250
1843.70759	0.61147
1841.77903	0.60877
1839.85047	0.60697
1837.92190	0.60643
1835.99334	0.60609
1834.06477	0.60596
1832.13621	0.60714
1830.20764	0.60878
1828.27908	0.60851
1826.35051	0.60741
1824.42195	0.60642
1822.49339	0.60492
1820.56482	0.60362
1818.63626	0.60306
1816.70769	0.60268
1814.77913	0.60248
1812.85056	0.60275
1810.92200	0.60255
1808.99343	0.60098
1807.06487	0.59891
1805.13631	0.59751
1803.20774	0.59712
1801.27918	0.59692
1799.35061	0.59581
1797.42205	0.59460
1795.49348	0.59438
1793.56492	0.59480
1791.63635	0.59364
1789.70779	0.59063
1787.77923	0.58889
1785.85066	0.58921
1783.92210	0.59065
1781.99353	0.59248
1780.06497	0.59409
1778.13640	0.59520
1776.20784	0.59697
1774.27927	0.60076
1772.35071	0.60521
1770.42215	0.60622
1768.49358	0.60531
1766.56502	0.60515
1764.63645	0.60660
1762.70789	0.60994
1760.77932	0.61364
1758.85076	0.61657
1756.92220	0.62000
1754.99363	0.62392
1753.06507	0.62940
1751.13650	0.63901
1749.20794	0.65013
1747.27937	0.65701
1745.35081	0.66134
1743.42224	0.66543
1741.49368	0.66937
1739.56512	0.67244
1737.63655	0.67443
1735.70799	0.67694
1733.77942	0.67988
1731.85086	0.67914
1729.92229	0.67698
1727.99373	0.67636
1726.06516	0.67827
1724.13660	0.68284
1722.20804	0.68854
1720.27947	0.69570
1718.35091	0.70865
1716.42234	0.72548
1714.49378	0.73478
1712.56521	0.74228
1710.63665	0.75371
1708.70808	0.76982
1706.77952	0.79379
1704.85096	0.82411
1702.92239	0.85155
1700.99383	0.89037
1699.06526	0.95017
1697.13670	1.00180
1695.20813	1.04689
1693.27957	1.08061
1691.35100	1.11005
1689.42244	1.14688
1687.49388	1.18082
1685.56531	1.21539
1683.63675	1.27025
1681.70818	1.31042
1679.77962	1.33260
1677.85105	1.35430
1675.92249	1.38210
1673.99392	1.41274
1672.06536	1.43778
1670.13680	1.46444
1668.20823	1.48890
1666.27967	1.50053
1664.35110	1.51200
1662.42254	1.52799
1660.49397	1.53816
1658.56541	1.54297
1656.63684	1.54785
1654.70828	1.55531
1652.77972	1.55965
1650.85115	1.55672
1648.92259	1.55488
1646.99402	1.55104
1645.06546	1.54363
1643.13689	1.53700
1641.20833	1.53232
1639.27976	1.52936
1637.35120	1.52907
1635.42264	1.52827
1633.49407	1.52193
1631.56551	1.51460
1629.63694	1.50641
1627.70838	1.49653
1625.77981	1.48580
1623.85125	1.47196
1621.92269	1.45325
1619.99412	1.43729
1618.06556	1.41970
1616.13699	1.38897
1614.20843	1.35991
1612.27986	1.33792
1610.35130	1.31595
1608.42273	1.29301
1606.49417	1.27225
1604.56561	1.25508
1602.63704	1.24104
1600.70848	1.23105
1598.77991	1.22490
1596.85135	1.22124
1594.92278	1.21875
1592.99422	1.21697
1591.06565	1.21739
1589.13709	1.22082
1587.20853	1.22623
1585.27996	1.23347
1583.35140	1.24386
1581.42283	1.25612
1579.49427	1.26851
1577.56570	1.28499
1575.63714	1.30534
1573.70857	1.31659
1571.78001	1.32523
1569.85145	1.34098
1567.92288	1.35764
1565.99432	1.36911
1564.06575	1.37946
1562.13719	1.38812
1560.20862	1.40154
1558.28006	1.42853
1556.35149	1.43651
1554.42293	1.43556
1552.49437	1.43571
1550.56580	1.43665
1548.63724	1.43659
1546.70867	1.43637
1544.78011	1.43721
1542.85154	1.43783
1540.92298	1.43352
1538.99441	1.42122
1537.06585	1.41422
1535.13729	1.41075
1533.20872	1.40498
1531.28016	1.39765
1529.35159	1.39371
1527.42303	1.39201
1525.49446	1.39077
1523.56590	1.39112
1521.63733	1.38978
1519.70877	1.38492
1517.78021	1.37901
1515.85164	1.36836
1513.92308	1.35384
1511.99451	1.33961
1510.06595	1.32788
1508.13738	1.31188
1506.20882	1.27760
1504.28025	1.25385
1502.35169	1.23944
1500.42313	1.22534
1498.49456	1.20810
1496.56600	1.18549
1494.63743	1.16556
1492.70887	1.15263
1490.78030	1.13997
1488.85174	1.12042
1486.92317	1.10062
1484.99461	1.08682
1483.06605	1.07801
1481.13748	1.07284
1479.20892	1.07131
1477.28035	1.07465
1475.35179	1.08445
1473.42322	1.10174
1471.49466	1.11736
1469.56610	1.12445
1467.63753	1.13051
1465.70897	1.13948
1463.78040	1.14847
1461.85184	1.15451
1459.92327	1.16144
1457.99471	1.17351
1456.06614	1.18175
1454.13758	1.18075
1452.20902	1.17889
1450.28045	1.17755
1448.35189	1.17580
1446.42332	1.17214
1444.49476	1.16685
1442.56619	1.16081
1440.63763	1.15516
1438.70906	1.14978
1436.78050	1.14061
1434.85194	1.12793
1432.92337	1.11725
1430.99481	1.10636
1429.06624	1.09451
1427.13768	1.08615
1425.20911	1.08179
1423.28055	1.07947
1421.35198	1.07920
1419.42342	1.08104
1417.49486	1.08083
1415.56629	1.07807
1413.63773	1.07613
1411.70916	1.07465
1409.78060	1.07281
1407.85203	1.07198
1405.92347	1.07326
1403.99490	1.07521
1402.06634	1.07669
1400.13778	1.07900
1398.20921	1.08201
1396.28065	1.08391
1394.35208	1.08418
1392.42352	1.08460
1390.49495	1.08817
1388.56639	1.09708
1386.63782	1.11011
1384.70926	1.12257
1382.78070	1.13465
1380.85213	1.14636
1378.92357	1.15384
1376.99500	1.15480
1375.06644	1.14827
1373.13787	1.13453
1371.20931	1.11887
1369.28074	1.10179
1367.35218	1.08240
1365.42362	1.06438
1363.49505	1.04767
1361.56649	1.03168
1359.63792	1.02006
1357.70936	1.01309
1355.78079	1.00869
1353.85223	1.00536
1351.92366	1.00291
1349.99510	1.00183
1348.06654	1.00185
1346.13797	1.00218
1344.20941	1.00305
1342.28084	1.00535
1340.35228	1.00902
1338.42371	1.01187
1336.49515	1.01376
1334.56659	1.01771
1332.63802	1.02464
1330.70946	1.03291
1328.78089	1.04041
1326.85233	1.04582
1324.92376	1.04883
1322.99520	1.05048
1321.06663	1.05238
1319.13807	1.05463
1317.20951	1.05626
1315.28094	1.05752
1313.35238	1.05895
1311.42381	1.06000
1309.49525	1.06031
1307.56668	1.05959
1305.63812	1.05765
1303.70955	1.05526
1301.78099	1.05265
1299.85243	1.04902
1297.92386	1.04402
1295.99530	1.03831
1294.06673	1.03292
1292.13817	1.02877
1290.20960	1.02646
1288.28104	1.02544
1286.35247	1.02407
1284.42391	1.02166
1282.49535	1.01896
1280.56678	1.01648
1278.63822	1.01437
1276.70965	1.01330
1274.78109	1.01388
1272.85252	1.01631
1270.92396	1.02027
1268.99539	1.02529
1267.06683	1.03109
1265.13827	1.03656
1263.20970	1.04079
1261.28114	1.04383
1259.35257	1.04573
1257.42401	1.04706
1255.49544	1.04902
1253.56688	1.05189
1251.63831	1.05513
1249.70975	1.05846
1247.78119	1.06188
1245.85262	1.06553
1243.92406	1.06897
1241.99549	1.07118
1240.06693	1.07228
1238.13836	1.07297
1236.20980	1.07261
1234.28123	1.07055
1232.35267	1.06704
1230.42411	1.06177
1228.49554	1.05441
1226.56698	1.04534
1224.63841	1.03479
1222.70985	1.02318
1220.78128	1.01137
1218.85272	0.99991
1216.92415	0.98936
1214.99559	0.98063
1213.06703	0.97433
1211.13846	0.97069
1209.20990	0.96913
1207.28133	0.96749
1205.35277	0.96342
1203.42420	0.95610
1201.49564	0.94612
1199.56708	0.93487
1197.63851	0.92371
1195.70995	0.91339
1193.78138	0.90451
1191.85282	0.89780
1189.92425	0.89360
1187.99569	0.89204
1186.06712	0.89297
1184.13856	0.89559
1182.21000	0.89968
1180.28143	0.90606
1178.35287	0.91507
1176.42430	0.92571
1174.49574	0.93679
1172.56717	0.94816
1170.63861	0.96029
1168.71004	0.97411
1166.78148	0.99033
1164.85292	1.00763
1162.92435	1.02279
1160.99579	1.03273
1159.06722	1.03629
1157.13866	1.03372
1155.21009	1.02488
1153.28153	1.00999
1151.35296	0.99134
1149.42440	0.97171
1147.49584	0.95262
1145.56727	0.93570
1143.63871	0.92316
1141.71014	0.91592
1139.78158	0.91334
1137.85301	0.91451
1135.92445	0.91935
1133.99588	0.92834
1132.06732	0.94157
1130.13876	0.95868
1128.21019	0.97884
1126.28163	0.99992
1124.35306	1.01941
1122.42450	1.03587
1120.49593	1.04885
1118.56737	1.05825
1116.63880	1.06366
1114.71024	1.06445
1112.78168	1.06034
1110.85311	1.05217
1108.92455	1.04241
1106.99598	1.03321
1105.06742	1.02462
1103.13885	1.01632
1101.21029	1.00950
1099.28172	1.00607
1097.35316	1.00688
1095.42460	1.01162
1093.49603	1.01954
1091.56747	1.03046
1089.63890	1.04501
1087.71034	1.06308
1085.78177	1.08327
1083.85321	1.10402
1081.92464	1.12405
1079.99608	1.14093
1078.06752	1.15142
1076.13895	1.15518
1074.21039	1.15432
1072.28182	1.14953
1070.35326	1.14172
1068.42469	1.13369
1066.49613	1.12579
1064.56756	1.11623
1062.63900	1.10571
1060.71044	1.09495
1058.78187	1.08323
1056.85331	1.07142
1054.92474	1.06105
1052.99618	1.05231
1051.06761	1.04511
1049.13905	1.03988
1047.21049	1.03736
1045.28192	1.03787
1043.35336	1.04126
1041.42479	1.04697
1039.49623	1.05343
1037.56766	1.05868
1035.63910	1.06163
1033.71053	1.06204
1031.78197	1.06029
1029.85341	1.05609
1027.92484	1.04863
1025.99628	1.03850
1024.06771	1.02740
1022.13915	1.01678
1020.21058	1.00751
1018.28202	0.99998
1016.35345	0.99344
1014.42489	0.98577
1012.49633	0.97481
1010.56776	0.95973
1008.63920	0.94175
1006.71063	0.92318
1004.78207	0.90558
1002.85350	0.88983
1000.92494	0.87667
998.99637	0.86658
997.06781	0.85947
995.13925	0.85387
993.21068	0.84799
991.28212	0.84094
989.35355	0.83251
987.42499	0.82306
985.49642	0.81367
983.56786	0.80554
981.63929	0.79920
979.71073	0.79457
977.78217	0.79097
975.85360	0.78708
973.92504	0.78152
971.99647	0.77380
970.06791	0.76469
968.13934	0.75551
966.21078	0.74751
964.28221	0.74213
962.35365	0.74131
960.42509	0.74695
958.49652	0.75861
956.56796	0.77157
954.63939	0.77980
952.71083	0.78077
950.78226	0.77574
948.85370	0.76732
946.92513	0.75841
944.99657	0.75106
943.06801	0.74564
941.13944	0.74137
939.21088	0.73733
937.28231	0.73304
935.35375	0.72856
933.42518	0.72402
931.49662	0.71948
929.56805	0.71517
927.63949	0.71142
925.71093	0.70853
923.78236	0.70638
921.85380	0.70443
919.92523	0.70241
917.99667	0.70050
916.06810	0.69909
914.13954	0.69871
912.21098	0.69998
910.28241	0.70348
908.35385	0.70895
906.42528	0.71578
904.49672	0.72383
902.56815	0.73259
900.63959	0.74071
898.71102	0.74751
896.78246	0.75315
894.85390	0.75742
892.92533	0.75971
890.99677	0.76004
889.06820	0.75901
887.13964	0.75703
885.21107	0.75426
883.28251	0.75071
881.35394	0.74646
879.42538	0.74189
877.49682	0.73732
875.56825	0.73269
873.63969	0.72796
871.71112	0.72322
869.78256	0.71842
867.85399	0.71380
865.92543	0.70991
863.99686	0.70691
862.06830	0.70465
860.13974	0.70338
858.21117	0.70366
856.28261	0.70555
854.35404	0.70871
852.42548	0.71279
850.49691	0.71749
848.56835	0.72271
846.63978	0.72877
844.71122	0.73618
842.78266	0.74497
840.85409	0.75455
838.92553	0.76457
836.99696	0.77534
835.06840	0.78659
833.13983	0.79726
831.21127	0.80668
829.28270	0.81473
827.35414	0.82117
825.42558	0.82596
823.49701	0.82919
821.56845	0.83112
819.63988	0.83220
817.71132	0.83221
815.78275	0.83112
813.85419	0.82968
811.92562	0.82808
809.99706	0.82580
808.06850	0.82315
806.13993	0.82105
804.21137	0.81958
802.28280	0.81807
800.35424	0.81653
798.42567	0.81585
796.49711	0.81656
794.56854	0.81847
792.63998	0.82118
790.71142	0.82453
788.78285	0.82864
786.85429	0.83319
784.92572	0.83747
782.99716	0.84136
781.06859	0.84493
779.14003	0.84756
777.21147	0.84910
775.28290	0.84994
773.35434	0.85011
771.42577	0.84980
769.49721	0.84933
767.56864	0.84846
765.64008	0.84691
763.71151	0.84471
761.78295	0.84230
759.85439	0.84035
757.92582	0.83920
755.99726	0.83856
754.06869	0.83827
752.14013	0.83843
750.21156	0.83868
748.28300	0.83894
746.35443	0.83972
744.42587	0.84104
742.49731	0.84237
740.56874	0.84330
738.64018	0.84375
736.71161	0.84386
734.78305	0.84442
732.85448	0.84643
730.92592	0.84935
728.99735	0.85176
727.06879	0.85367
725.14023	0.85568
723.21166	0.85794
721.28310	0.86036
719.35453	0.86202
717.42597	0.86228
715.49740	0.86252
713.56884	0.86433
711.64027	0.86749
709.71171	0.87083
707.78315	0.87413
705.85458	0.87755
703.92602	0.88044
701.99745	0.88257
700.06889	0.88453
698.14032	0.88628
696.21176	0.88796
694.28319	0.89011
692.35463	0.89197
690.42607	0.89251
688.49750	0.89190
686.56894	0.89087
684.64037	0.88950
682.71181	0.88765
680.78324	0.88582
678.85468	0.88444
676.92611	0.88334
674.99755	0.88279
673.06899	0.88329
671.14042	0.88442
669.21186	0.88535
667.28329	0.88550
665.35473	0.88521
663.42616	0.88483
661.49760	0.88459
659.56903	0.88486
657.64047	0.88595
655.71191	0.88837
653.78334	0.89212
651.85478	0.89627
649.92621	0.89970
647.99765	0.90246
646.06908	0.90676
644.14052	0.91445
642.21195	0.92428
640.28339	0.93393
638.35483	0.94270
636.42626	0.94962
634.49770	0.95289
632.56913	0.95338
630.64057	0.95335
628.71200	0.95254
626.78344	0.94959
624.85488	0.94578
622.92631	0.94292
620.99775	0.93985
619.06918	0.93595
617.14062	0.93251
615.21205	0.92952
613.28349	0.92550
611.35492	0.92102
609.42636	0.91749
607.49780	0.91349
605.56923	0.90767
603.64067	0.90269
601.71210	0.90098
599.78354	0.90063
