3997.91406	0.93857
3995.98550	0.93795
3994.05693	0.93951
3992.12837	0.94125
3990.19980	0.94176
3988.27124	0.94098
3986.34268	0.93985
3984.41411	0.93942
3982.48555	0.93890
3980.55698	0.93783
3978.62842	0.93750
3976.69985	0.93822
3974.77129	0.93883
3972.84272	0.93867
3970.91416	0.93773
3968.98560	0.93692
3967.05703	0.93765
3965.12847	0.93915
3963.19990	0.93928
3961.27134	0.93780
3959.34277	0.93662
3957.41421	0.93617
3955.48564	0.93521
3953.55708	0.93414
3951.62852	0.93461
3949.69995	0.93609
3947.77139	0.93628
3945.84282	0.93584
3943.91426	0.93570
3941.98569	0.93478
3940.05713	0.93363
3938.12856	0.93342
3936.20000	0.93412
3934.27144	0.93527
3932.34287	0.93586
3930.41431	0.93396
3928.48574	0.93122
3926.55718	0.93113
3924.62861	0.93207
3922.70005	0.93051
3920.77148	0.92839
3918.84292	0.92773
3916.91436	0.92718
3914.98579	0.92663
3913.05723	0.92660
3911.12866	0.92574
3909.20010	0.92505
3907.27153	0.92754
3905.34297	0.93281
3903.41440	0.93580
3901.48584	0.93415
3899.55728	0.93028
3897.62871	0.92691
3895.70015	0.92697
3893.77158	0.93009
3891.84302	0.93114
3889.91445	0.92789
3887.98589	0.92533
3886.05733	0.92455
3884.12876	0.92543
3882.20020	0.92663
3880.27163	0.92454
3878.34307	0.92240
3876.41450	0.92382
3874.48594	0.92622
3872.55737	0.92754
3870.62881	0.92717
3868.70025	0.92524
3866.77168	0.92550
3864.84312	0.92759
3862.91455	0.92647
3860.98599	0.92350
3859.05742	0.92343
3857.12886	0.92652
3855.20029	0.93261
3853.27173	0.93690
3851.34317	0.93056
3849.41460	0.92435
3847.48604	0.92250
3845.55747	0.92375
3843.62891	0.92631
3841.70034	0.92997
3839.77178	0.93295
3837.84321	0.93018
3835.91465	0.92471
3833.98609	0.92139
3832.05752	0.91908
3830.12896	0.91728
3828.20039	0.91668
3826.27183	0.91725
3824.34326	0.91921
3822.41470	0.92219
3820.48613	0.92208
3818.55757	0.91876
3816.62901	0.91414
3814.70044	0.90931
3812.77188	0.90776
3810.84331	0.90899
3808.91475	0.91133
3806.98618	0.91301
3805.05762	0.91469
3803.12905	0.91701
3801.20049	0.91594
3799.27193	0.91271
3797.34336	0.91061
3795.41480	0.90837
3793.48623	0.90709
3791.55767	0.90768
3789.62910	0.90923
3787.70054	0.91042
3785.77197	0.91030
3783.84341	0.90919
3781.91485	0.90838
3779.98628	0.90741
3778.05772	0.90635
3776.12915	0.90725
3774.20059	0.91014
3772.27202	0.91247
3770.34346	0.91121
3768.41489	0.90892
3766.48633	0.90872
3764.55777	0.90846
3762.62920	0.90900
3760.70064	0.91108
3758.77207	0.91135
3756.84351	0.91047
3754.91494	0.91257
3752.98638	0.91753
3751.05781	0.92141
3749.12925	0.92071
3747.20069	0.91833
3745.27212	0.91340
3743.34356	0.90932
3741.41499	0.91099
3739.48643	0.91563
3737.55786	0.92076
3735.62930	0.92054
3733.70074	0.91233
3731.77217	0.90630
3729.84361	0.90510
3727.91504	0.90593
3725.98648	0.90606
3724.05791	0.90497
3722.12935	0.90381
3720.20078	0.90262
3718.27222	0.90182
3716.34366	0.90218
3714.41509	0.90455
3712.48653	0.90812
3710.55796	0.90735
3708.62940	0.90303
3706.70083	0.90091
3704.77227	0.90128
3702.84370	0.90158
3700.91514	0.89991
3698.98658	0.89912
3697.05801	0.90073
3695.12945	0.90338
3693.20088	0.90765
3691.27232	0.91330
3689.34375	0.91226
3687.41519	0.90533
3685.48662	0.90247
3683.55806	0.90316
3681.62950	0.90592
3679.70093	0.91033
3677.77237	0.91516
3675.84380	0.91799
3673.91524	0.91931
3671.98667	0.92184
3670.05811	0.92150
3668.12954	0.91676
3666.20098	0.91448
3664.27242	0.91581
3662.34385	0.91961
3660.41529	0.92441
3658.48672	0.92857
3656.55816	0.93126
3654.62959	0.93426
3652.70103	0.94071
3650.77246	0.95199
3648.84390	0.95932
3646.91534	0.95561
3644.98677	0.95378
3643.05821	0.95563
3641.12964	0.95831
3639.20108	0.96067
3637.27251	0.96349
3635.34395	0.96654
3633.41538	0.97006
3631.48682	0.97582
3629.55826	0.98299
3627.62969	0.98421
3625.70113	0.98360
3623.77256	0.98674
3621.84400	0.99279
3619.91543	0.99957
3617.98687	1.00396
3616.05830	1.00664
3614.12974	1.00876
3612.20118	1.01060
3610.27261	1.01371
3608.34405	1.01609
3606.41548	1.01568
3604.48692	1.01569
3602.55835	1.01794
3600.62979	1.02171
3598.70123	1.02542
3596.77266	1.02778
3594.84410	1.02882
3592.91553	1.02991
3590.98697	1.03300
3589.05840	1.03964
3587.12984	1.04580
3585.20127	1.04607
3583.27271	1.04579
3581.34415	1.04753
3579.41558	1.05032
3577.48702	1.05342
3575.55845	1.05533
3573.62989	1.05625
3571.70132	1.05951
3569.77276	1.06576
3567.84419	1.07160
3565.91563	1.07288
3563.98707	1.07259
3562.05850	1.07408
3560.12994	1.07595
3558.20137	1.07731
3556.27281	1.07966
3554.34424	1.08347
3552.41568	1.08729
3550.48711	1.09090
3548.55855	1.09566
3546.62999	1.10019
3544.70142	1.10129
3542.77286	1.10032
3540.84429	1.10064
3538.91573	1.10285
3536.98716	1.10561
3535.05860	1.10838
3533.13003	1.11187
3531.20147	1.11560
3529.27291	1.11791
3527.34434	1.11996
3525.41578	1.12410
3523.48721	1.12841
3521.55865	1.13016
3519.63008	1.13015
3517.70152	1.13114
3515.77295	1.13459
3513.84439	1.13891
3511.91583	1.14153
3509.98726	1.14162
3508.05870	1.14188
3506.13013	1.14531
3504.20157	1.14999
3502.27300	1.15264
3500.34444	1.15458
3498.41587	1.15764
3496.48731	1.16167
3494.55875	1.16550
3492.63018	1.16743
3490.70162	1.16853
3488.77305	1.17047
3486.84449	1.17226
3484.91592	1.17319
3482.98736	1.17391
3481.05879	1.17485
3479.13023	1.17647
3477.20167	1.17818
3475.27310	1.17872
3473.34454	1.17930
3471.41597	1.18223
3469.48741	1.18598
3467.55884	1.18614
3465.63028	1.18334
3463.70171	1.18242
3461.77315	1.18422
3459.84459	1.18637
3457.91602	1.18707
3455.98746	1.18614
3454.05889	1.18572
3452.13033	1.18806
3450.20176	1.19235
3448.27320	1.19474
3446.34464	1.19310
3444.41607	1.19098
3442.48751	1.19163
3440.55894	1.19331
3438.63038	1.19468
3436.70181	1.19679
3434.77325	1.19832
3432.84468	1.19784
3430.91612	1.19671
3428.98756	1.19598
3427.05899	1.19567
3425.13043	1.19627
3423.20186	1.19782
3421.27330	1.19828
3419.34473	1.19654
3417.41617	1.19474
3415.48760	1.19486
3413.55904	1.19666
3411.63048	1.19837
3409.70191	1.19836
3407.77335	1.19691
3405.84478	1.19653
3403.91622	1.19882
3401.98765	1.20166
3400.05909	1.20254
3398.13052	1.20250
3396.20196	1.20315
3394.27340	1.20387
3392.34483	1.20421
3390.41627	1.20440
3388.48770	1.20431
3386.55914	1.20469
3384.63057	1.20558
3382.70201	1.20617
3380.77344	1.20647
3378.84488	1.20672
3376.91632	1.20708
3374.98775	1.20676
3373.05919	1.20592
3371.13062	1.20675
3369.20206	1.20932
3367.27349	1.21149
3365.34493	1.21212
3363.41636	1.21112
3361.48780	1.20980
3359.55924	1.21074
3357.63067	1.21352
3355.70211	1.21472
3353.77354	1.21389
3351.84498	1.21338
3349.91641	1.21355
3347.98785	1.21326
3346.05928	1.21252
3344.13072	1.21260
3342.20216	1.21435
3340.27359	1.21683
3338.34503	1.21777
3336.41646	1.21661
3334.48790	1.21584
3332.55933	1.21689
3330.63077	1.21824
3328.70220	1.21928
3326.77364	1.22085
3324.84508	1.22316
3322.91651	1.22501
3320.98795	1.22495
3319.05938	1.22420
3317.13082	1.22422
3315.20225	1.22454
3313.27369	1.22593
3311.34513	1.22803
3309.41656	1.22865
3307.48800	1.22883
3305.55943	1.22994
3303.63087	1.23086
3301.70230	1.23142
3299.77374	1.23175
3297.84517	1.23159
3295.91661	1.23165
3293.98805	1.23168
3292.05948	1.23119
3290.13092	1.23115
3288.20235	1.23171
3286.27379	1.23194
3284.34522	1.23150
3282.41666	1.23062
3280.48809	1.22920
3278.55953	1.22754
3276.63097	1.22722
3274.70240	1.22817
3272.77384	1.22872
3270.84527	1.22867
3268.91671	1.22758
3266.98814	1.22509
3265.05958	1.22346
3263.13101	1.22374
3261.20245	1.22289
3259.27389	1.22004
3257.34532	1.21897
3255.41676	1.22010
3253.48819	1.21933
3251.55963	1.21578
3249.63106	1.21232
3247.70250	1.21093
3245.77393	1.21023
3243.84537	1.20740
3241.91681	1.20345
3239.98824	1.20123
3238.05968	1.20031
3236.13111	1.19875
3234.20255	1.19692
3232.27398	1.19585
3230.34542	1.19473
3228.41685	1.19316
3226.48829	1.19207
3224.55973	1.19118
3222.63116	1.18951
3220.70260	1.18822
3218.77403	1.18825
3216.84547	1.18841
3214.91690	1.18784
3212.98834	1.18604
3211.05977	1.18266
3209.13121	1.17921
3207.20265	1.17688
3205.27408	1.17491
3203.34552	1.17285
3201.41695	1.17081
3199.48839	1.16815
3197.55982	1.16511
3195.63126	1.16307
3193.70269	1.16093
3191.77413	1.15732
3189.84557	1.15416
3187.91700	1.15235
3185.98844	1.15037
3184.05987	1.14762
3182.13131	1.14542
3180.20274	1.14457
3178.27418	1.14277
3176.34562	1.13888
3174.41705	1.13535
3172.48849	1.13338
3170.55992	1.13207
3168.63136	1.13021
3166.70279	1.12727
3164.77423	1.12439
3162.84566	1.12280
3160.91710	1.12191
3158.98854	1.12034
3157.05997	1.11820
3155.13141	1.11677
3153.20284	1.11631
3151.27428	1.11522
3149.34571	1.11298
3147.41715	1.11128
3145.48858	1.11037
3143.56002	1.10916
3141.63146	1.10767
3139.70289	1.10644
3137.77433	1.10567
3135.84576	1.10483
3133.91720	1.10338
3131.98863	1.10162
3130.06007	1.10035
3128.13150	1.10010
3126.20294	1.10108
3124.27438	1.10319
3122.34581	1.10480
3120.41725	1.10489
3118.48868	1.10508
3116.56012	1.10552
3114.63155	1.10511
3112.70299	1.10495
3110.77442	1.10517
3108.84586	1.10471
3106.91730	1.10439
3104.98873	1.10528
3103.06017	1.10638
3101.13160	1.10619
3099.20304	1.10513
3097.27447	1.10437
3095.34591	1.10373
3093.41734	1.10275
3091.48878	1.10179
3089.56022	1.10063
3087.63165	1.09866
3085.70309	1.09632
3083.77452	1.09432
3081.84596	1.09285
3079.91739	1.09162
3077.98883	1.08964
3076.06026	1.08673
3074.13170	1.08408
3072.20314	1.08206
3070.27457	1.08025
3068.34601	1.07869
3066.41744	1.07737
3064.48888	1.07582
3062.56031	1.07367
3060.63175	1.07141
3058.70318	1.06969
3056.77462	1.06749
3054.84606	1.06402
3052.91749	1.06042
3050.98893	1.05763
3049.06036	1.05604
3047.13180	1.05512
3045.20323	1.05315
3043.27467	1.05007
3041.34610	1.04736
3039.41754	1.04536
3037.48898	1.04389
3035.56041	1.04283
3033.63185	1.04152
3031.70328	1.03975
3029.77472	1.03762
3027.84615	1.03547
3025.91759	1.03407
3023.98903	1.03297
3022.06046	1.03143
3020.13190	1.02987
3018.20333	1.02865
3016.27477	1.02744
3014.34620	1.02608
3012.41764	1.02520
3010.48907	1.02479
3008.56051	1.02400
3006.63195	1.02288
3004.70338	1.02184
3002.77482	1.02089
3000.84625	1.02011
2998.91769	1.01991
2996.98912	1.02056
2995.06056	1.02157
2993.13199	1.02265
2991.20343	1.02459
2989.27487	1.02759
2987.34630	1.03047
2985.41774	1.03265
2983.48917	1.03516
2981.56061	1.03881
2979.63204	1.04291
2977.70348	1.04655
2975.77491	1.04983
2973.84635	1.05289
2971.91779	1.05580
2969.98922	1.05938
2968.06066	1.06395
2966.13209	1.06785
2964.20353	1.06935
2962.27496	1.06948
2960.34640	1.06986
2958.41783	1.06976
2956.48927	1.06761
2954.56071	1.06373
2952.63214	1.05971
2950.70358	1.05642
2948.77501	1.05439
2946.84645	1.05412
2944.91788	1.05600
2942.98932	1.06053
2941.06075	1.06657
2939.13219	1.07182
2937.20363	1.07612
2935.27506	1.08064
2933.34650	1.08576
2931.41793	1.09149
2929.48937	1.09711
2927.56080	1.10162
2925.63224	1.10517
2923.70367	1.10843
2921.77511	1.11180
2919.84655	1.11469
2917.91798	1.11433
2915.98942	1.10718
2914.06085	1.09375
2912.13229	1.07916
2910.20372	1.06770
2908.27516	1.05974
2906.34659	1.05359
2904.41803	1.04821
2902.48947	1.04361
2900.56090	1.04021
2898.63234	1.03784
2896.70377	1.03598
2894.77521	1.03456
2892.84664	1.03294
2890.91808	1.03037
2888.98952	1.02733
2887.06095	1.02482
2885.13239	1.02341
2883.20382	1.02303
2881.27526	1.02299
2879.34669	1.02297
2877.41813	1.02304
2875.48956	1.02229
2873.56100	1.02004
2871.63244	1.01733
2869.70387	1.01441
2867.77531	1.01044
2865.84674	1.00633
2863.91818	1.00406
2861.98961	1.00418
2860.06105	1.00616
2858.13248	1.00942
2856.20392	1.01350
2854.27536	1.01885
2852.34679	1.02491
2850.41823	1.02759
2848.48966	1.02142
2846.56110	1.00625
2844.63253	0.98906
2842.70397	0.97576
2840.77540	0.96628
2838.84684	0.95855
2836.91828	0.95193
2834.98971	0.94683
2833.06115	0.94332
2831.13258	0.94081
2829.20402	0.93830
2827.27545	0.93541
2825.34689	0.93244
2823.41832	0.92958
2821.48976	0.92695
2819.56120	0.92429
2817.63263	0.92143
2815.70407	0.91860
2813.77550	0.91574
2811.84694	0.91295
2809.91837	0.91057
2807.98981	0.90865
2806.06124	0.90721
2804.13268	0.90578
2802.20412	0.90362
2800.27555	0.90106
2798.34699	0.89883
2796.41842	0.89684
2794.48986	0.89513
2792.56129	0.89422
2790.63273	0.89378
2788.70416	0.89284
2786.77560	0.89136
2784.84704	0.88971
2782.91847	0.88783
2780.98991	0.88621
2779.06134	0.88540
2777.13278	0.88510
2775.20421	0.88478
2773.27565	0.88404
2771.34708	0.88290
2769.41852	0.88164
2767.48996	0.88029
2765.56139	0.87893
2763.63283	0.87794
2761.70426	0.87706
2759.77570	0.87581
2757.84713	0.87434
2755.91857	0.87281
2753.99001	0.87118
2752.06144	0.86990
2750.13288	0.86908
2748.20431	0.86796
2746.27575	0.86630
2744.34718	0.86484
2742.41862	0.86397
2740.49005	0.86333
2738.56149	0.86239
2736.63293	0.86117
2734.70436	0.85993
2732.77580	0.85879
2730.84723	0.85776
2728.91867	0.85670
2726.99010	0.85569
2725.06154	0.85512
2723.13297	0.85456
2721.20441	0.85337
2719.27585	0.85215
2717.34728	0.85156
2715.41872	0.85118
2713.49015	0.85060
2711.56159	0.84975
2709.63302	0.84862
2707.70446	0.84761
2705.77589	0.84683
2703.84733	0.84606
2701.91877	0.84537
2699.99020	0.84478
2698.06164	0.84415
2696.13307	0.84345
2694.20451	0.84298
2692.27594	0.84286
2690.34738	0.84262
2688.41881	0.84181
2686.49025	0.84078
2684.56169	0.84004
2682.63312	0.83949
2680.70456	0.83881
2678.77599	0.83785
2676.84743	0.83658
2674.91886	0.83500
2672.99030	0.83342
2671.06173	0.83228
2669.13317	0.83160
2667.20461	0.83133
2665.27604	0.83105
2663.34748	0.83009
2661.41891	0.82886
2659.49035	0.82815
2657.56178	0.82780
2655.63322	0.82713
2653.70465	0.82612
2651.77609	0.82555
2649.84753	0.82540
2647.91896	0.82478
2645.99040	0.82373
2644.06183	0.82307
2642.13327	0.82283
2640.20470	0.82249
2638.27614	0.82181
2636.34757	0.82086
2634.41901	0.81987
2632.49045	0.81898
2630.56188	0.81806
2628.63332	0.81720
2626.70475	0.81642
2624.77619	0.81526
2622.84762	0.81399
2620.91906	0.81328
2618.99049	0.81291
2617.06193	0.81262
2615.13337	0.81227
2613.20480	0.81162
2611.27624	0.81079
2609.34767	0.81005
2607.41911	0.80950
2605.49054	0.80884
2603.56198	0.80788
2601.63342	0.80733
2599.70485	0.80722
2597.77629	0.80673
2595.84772	0.80604
2593.91916	0.80577
2591.99059	0.80569
2590.06203	0.80536
2588.13346	0.80479
2586.20490	0.80412
2584.27634	0.80341
2582.34777	0.80284
2580.41921	0.80237
2578.49064	0.80152
2576.56208	0.80035
2574.63351	0.79952
2572.70495	0.79908
2570.77638	0.79850
2568.84782	0.79775
2566.91926	0.79687
2564.99069	0.79583
2563.06213	0.79488
2561.13356	0.79404
2559.20500	0.79300
2557.27643	0.79163
2555.34787	0.79050
2553.41930	0.78996
2551.49074	0.78941
2549.56218	0.78838
2547.63361	0.78712
2545.70505	0.78625
2543.77648	0.78588
2541.84792	0.78556
2539.91935	0.78496
2537.99079	0.78401
2536.06222	0.78305
2534.13366	0.78236
2532.20510	0.78181
2530.27653	0.78132
2528.34797	0.78093
2526.41940	0.78077
2524.49084	0.78081
2522.56227	0.78065
2520.63371	0.77998
2518.70514	0.77897
2516.77658	0.77814
2514.84802	0.77769
2512.91945	0.77730
2510.99089	0.77683
2509.06232	0.77651
2507.13376	0.77630
2505.20519	0.77577
2503.27663	0.77492
2501.34806	0.77417
2499.41950	0.77357
2497.49094	0.77285
2495.56237	0.77201
2493.63381	0.77136
2491.70524	0.77092
2489.77668	0.77031
2487.84811	0.76939
2485.91955	0.76846
2483.99098	0.76764
2482.06242	0.76693
2480.13386	0.76631
2478.20529	0.76573
2476.27673	0.76531
2474.34816	0.76487
2472.41960	0.76403
2470.49103	0.76290
2468.56247	0.76176
2466.63391	0.76070
2464.70534	0.75978
2462.77678	0.75883
2460.84821	0.75753
2458.91965	0.75604
2456.99108	0.75492
2455.06252	0.75440
2453.13395	0.75402
2451.20539	0.75331
2449.27683	0.75229
2447.34826	0.75113
2445.41970	0.75007
2443.49113	0.74930
2441.56257	0.74876
2439.63400	0.74818
2437.70544	0.74741
2435.77687	0.74681
2433.84831	0.74647
2431.91975	0.74613
2429.99118	0.74568
2428.06262	0.74507
2426.13405	0.74450
2424.20549	0.74406
2422.27692	0.74357
2420.34836	0.74313
2418.41979	0.74281
2416.49123	0.74240
2414.56267	0.74184
2412.63410	0.74116
2410.70554	0.74039
2408.77697	0.73964
2406.84841	0.73893
2404.91984	0.73812
2402.99128	0.73728
2401.06271	0.73665
2399.13415	0.73620
2397.20559	0.73556
2395.27702	0.73471
2393.34846	0.73386
2391.41989	0.73298
2389.49133	0.73225
2387.56276	0.73194
2385.63420	0.73184
2383.70563	0.73172
2381.77707	0.73167
2379.84851	0.73154
2377.91994	0.73114
2375.99138	0.73103
2374.06281	0.73181
2372.13425	0.73304
2370.20568	0.73336
2368.27712	0.73224
2366.34855	0.73200
2364.41999	0.73335
2362.49143	0.73256
2360.56286	0.72960
2358.63430	0.72699
2356.70573	0.72451
2354.77717	0.72264
2352.84860	0.72218
2350.92004	0.72257
2348.99147	0.72300
2347.06291	0.72294
2345.13435	0.72210
2343.20578	0.72113
2341.27722	0.72080
2339.34865	0.72062
2337.42009	0.72025
2335.49152	0.72036
2333.56296	0.72126
2331.63440	0.72128
2329.70583	0.71957
2327.77727	0.71782
2325.84870	0.71651
2323.92014	0.71515
2321.99157	0.71435
2320.06301	0.71434
2318.13444	0.71426
2316.20588	0.71348
2314.27732	0.71232
2312.34875	0.71116
2310.42019	0.70982
2308.49162	0.70829
2306.56306	0.70712
2304.63449	0.70645
2302.70593	0.70567
2300.77736	0.70435
2298.84880	0.70298
2296.92024	0.70210
2294.99167	0.70152
2293.06311	0.70076
2291.13454	0.69957
2289.20598	0.69826
2287.27741	0.69719
2285.34885	0.69650
2283.42028	0.69605
2281.49172	0.69557
2279.56316	0.69502
2277.63459	0.69444
2275.70603	0.69361
2273.77746	0.69268
2271.84890	0.69206
2269.92033	0.69161
2267.99177	0.69098
2266.06320	0.69051
2264.13464	0.69040
2262.20608	0.69021
2260.27751	0.68977
2258.34895	0.68933
2256.42038	0.68884
2254.49182	0.68811
2252.56325	0.68717
2250.63469	0.68620
2248.70612	0.68539
2246.77756	0.68475
2244.84900	0.68399
2242.92043	0.68300
2240.99187	0.68219
2239.06330	0.68160
2237.13474	0.68081
2235.20617	0.67973
2233.27761	0.67850
2231.34904	0.67728
2229.42048	0.67632
2227.49192	0.67552
2225.56335	0.67444
2223.63479	0.67318
2221.70622	0.67228
2219.77766	0.67170
2217.84909	0.67097
2215.92053	0.67011
2213.99196	0.66923
2212.06340	0.66827
2210.13484	0.66749
2208.20627	0.66716
2206.27771	0.66702
2204.34914	0.66668
2202.42058	0.66615
2200.49201	0.66557
2198.56345	0.66497
2196.63488	0.66442
2194.70632	0.66392
2192.77776	0.66335
2190.84919	0.66268
2188.92063	0.66202
2186.99206	0.66139
2185.06350	0.66067
2183.13493	0.65985
2181.20637	0.65905
2179.27781	0.65840
2177.34924	0.65783
2175.42068	0.65714
2173.49211	0.65637
2171.56355	0.65573
2169.63498	0.65525
2167.70642	0.65459
2165.77785	0.65371
2163.84929	0.65296
2161.92073	0.65238
2159.99216	0.65176
2158.06360	0.65103
2156.13503	0.65021
2154.20647	0.64938
2152.27790	0.64868
2150.34934	0.64800
2148.42077	0.64723
2146.49221	0.64634
2144.56365	0.64536
2142.63508	0.64443
2140.70652	0.64366
2138.77795	0.64303
2136.84939	0.64245
2134.92082	0.64177
2132.99226	0.64090
2131.06369	0.63990
2129.13513	0.63888
2127.20657	0.63791
2125.27800	0.63708
2123.34944	0.63627
2121.42087	0.63521
2119.49231	0.63400
2117.56374	0.63292
2115.63518	0.63203
2113.70661	0.63106
2111.77805	0.62985
2109.84949	0.62857
2107.92092	0.62731
2105.99236	0.62608
2104.06379	0.62501
2102.13523	0.62410
2100.20666	0.62302
2098.27810	0.62167
2096.34953	0.62035
2094.42097	0.61928
2092.49241	0.61852
2090.56384	0.61773
2088.63528	0.61651
2086.70671	0.61516
2084.77815	0.61414
2082.84958	0.61331
2080.92102	0.61238
2078.99245	0.61147
2077.06389	0.61082
2075.13533	0.61024
2073.20676	0.60941
2071.27820	0.60851
2069.34963	0.60799
2067.42107	0.60766
2065.49250	0.60686
2063.56394	0.60558
2061.63537	0.60439
2059.70681	0.60327
2057.77825	0.60199
2055.84968	0.60070
2053.92112	0.59949
2051.99255	0.59840
2050.06399	0.59746
2048.13542	0.59634
2046.20686	0.59496
2044.27830	0.59375
2042.34973	0.59271
2040.42117	0.59129
2038.49260	0.58961
2036.56404	0.58813
2034.63547	0.58689
2032.70691	0.58571
2030.77834	0.58447
2028.84978	0.58320
2026.92122	0.58191
2024.99265	0.58065
2023.06409	0.57965
2021.13552	0.57900
2019.20696	0.57855
2017.27839	0.57780
2015.34983	0.57654
2013.42126	0.57523
2011.49270	0.57423
2009.56414	0.57352
2007.63557	0.57284
2005.70701	0.57199
2003.77844	0.57102
2001.84988	0.57015
1999.92131	0.56941
1997.99275	0.56871
1996.06418	0.56830
1994.13562	0.56837
1992.20706	0.56801
1990.27849	0.56650
1988.34993	0.56468
1986.42136	0.56312
1984.49280	0.56180
1982.56423	0.56070
1980.63567	0.55961
1978.70710	0.55836
1976.77854	0.55703
1974.84998	0.55575
1972.92141	0.55460
1970.99285	0.55384
1969.06428	0.55348
1967.13572	0.55265
1965.20715	0.55088
1963.27859	0.54905
1961.35002	0.54768
1959.42146	0.54657
1957.49290	0.54556
1955.56433	0.54438
1953.63577	0.54302
1951.70720	0.54186
1949.77864	0.54109
1947.85007	0.54053
1945.92151	0.54016
1943.99294	0.53977
1942.06438	0.53826
1940.13582	0.53580
1938.20725	0.53389
1936.27869	0.53274
1934.35012	0.53183
1932.42156	0.53070
1930.49299	0.52932
1928.56443	0.52810
1926.63586	0.52768
1924.70730	0.52812
1922.77874	0.52801
1920.85017	0.52689
1918.92161	0.52565
1916.99304	0.52396
1915.06448	0.52213
1913.13591	0.52122
1911.20735	0.52106
1909.27878	0.52051
1907.35022	0.51906
1905.42166	0.51756
1903.49309	0.51639
1901.56453	0.51527
1899.63596	0.51440
1897.70740	0.51420
1895.77883	0.51408
1893.85027	0.51343
1891.92171	0.51295
1889.99314	0.51246
1888.06458	0.51101
1886.13601	0.50940
1884.20745	0.50811
1882.27888	0.50686
1880.35032	0.50582
1878.42175	0.50495
1876.49319	0.50417
1874.56463	0.50376
1872.63606	0.50452
1870.70750	0.50677
1868.77893	0.50803
1866.85037	0.50560
1864.92180	0.50255
1862.99324	0.50114
1861.06467	0.50069
1859.13611	0.50016
1857.20755	0.49931
1855.27898	0.49848
1853.35042	0.49795
1851.42185	0.49789
1849.49329	0.49853
1847.56472	0.49982
1845.63616	0.50079
1843.70759	0.49920
1841.77903	0.49588
1839.85047	0.49380
1837.92190	0.49279
1835.99334	0.49180
1834.06477	0.49136
1832.13621	0.49249
1830.20764	0.49371
1828.27908	0.49281
1826.35051	0.49122
1824.42195	0.48955
1822.49339	0.48768
1820.56482	0.48660
1818.63626	0.48639
1816.70769	0.48636
1814.77913	0.48673
1812.85056	0.48793
1810.92200	0.48877
1808.99343	0.48808
1807.06487	0.48694
1805.13631	0.48677
1803.20774	0.48781
1801.27918	0.48889
1799.35061	0.48880
1797.42205	0.48863
1795.49348	0.48957
1793.56492	0.49102
1791.63635	0.49032
1789.70779	0.48743
1787.77923	0.48585
1785.85066	0.48598
1783.92210	0.48681
1781.99353	0.48794
1780.06497	0.48868
1778.13640	0.48906
1776.20784	0.49067
1774.27927	0.49410
1772.35071	0.49697
1770.42215	0.49635
1768.49358	0.49455
1766.56502	0.49368
1764.63645	0.49475
1762.70789	0.49754
1760.77932	0.50000
1758.85076	0.50174
1756.92220	0.50391
1754.99363	0.50675
1753.06507	0.51163
1751.13650	0.52004
1749.20794	0.52879
1747.27937	0.53387
1745.35081	0.53760
1743.42224	0.54185
1741.49368	0.54658
1739.56512	0.55130
1737.63655	0.55551
1735.70799	0.56079
1733.77942	0.56731
1731.85086	0.56938
1729.92229	0.56910
1727.99373	0.56991
1726.06516	0.57278
1724.13660	0.57792
1722.20804	0.58418
1720.27947	0.59208
1718.35091	0.60522
1716.42234	0.62061
1714.49378	0.62845
1712.56521	0.63496
1710.63665	0.64501
1708.70808	0.65933
1706.77952	0.68032
1704.85096	0.70568
1702.92239	0.72779
1700.99383	0.75769
1699.06526	0.80094
1697.13670	0.83412
1695.20813	0.85902
1693.27957	0.87699
1691.35100	0.89370
1689.42244	0.91473
1687.49388	0.93385
1685.56531	0.95249
1683.63675	0.97680
1681.70818	0.99110
1679.77962	0.99796
1677.85105	1.00499
1675.92249	1.01523
1673.99392	1.02718
1672.06536	1.03717
1670.13680	1.04607
1668.20823	1.05188
1666.27967	1.05520
1664.35110	1.06088
1662.42254	1.06879
1660.49397	1.07416
1658.56541	1.07794
1656.63684	1.08267
1654.70828	1.08983
1652.77972	1.09529
1650.85115	1.09504
1648.92259	1.09733
1646.99402	1.09988
1645.06546	1.09668
1643.13689	1.09291
1641.20833	1.09213
1639.27976	1.09438
1637.35120	1.09920
1635.42264	1.10044
1633.49407	1.09594
1631.56551	1.09387
1629.63694	1.09456
1627.70838	1.09577
1625.77981	1.09529
1623.85125	1.09156
1621.92269	1.08401
1619.99412	1.07725
1618.06556	1.06987
1616.13699	1.05362
1614.20843	1.03531
1612.27986	1.02047
1610.35130	1.00562
1608.42273	0.98953
1606.49417	0.97447
1604.56561	0.96281
1602.63704	0.95381
1600.70848	0.94669
1598.77991	0.94212
1596.85135	0.94009
1594.92278	0.93898
1592.99422	0.93799
1591.06565	0.93797
1589.13709	0.93951
1587.20853	0.94305
1585.27996	0.94866
1583.35140	0.95584
1581.42283	0.96400
1579.49427	0.97304
1577.56570	0.98469
1575.63714	0.99666
1573.70857	1.00228
1571.78001	1.00738
1569.85145	1.01651
1567.92288	1.02512
1565.99432	1.03097
1564.06575	1.03693
1562.13719	1.04303
1560.20862	1.05311
1558.28006	1.06773
1556.35149	1.06921
1554.42293	1.06750
1552.49437	1.06703
1550.56580	1.06765
1548.63724	1.06840
1546.70867	1.07050
1544.78011	1.07590
1542.85154	1.08429
1540.92298	1.08880
1538.99441	1.07895
1537.06585	1.07158
1535.13729	1.06943
1533.20872	1.06681
1531.28016	1.06263
1529.35159	1.06118
1527.42303	1.06205
1525.49446	1.06232
1523.56590	1.06300
1521.63733	1.06507
1519.70877	1.06597
1517.78021	1.06380
1515.85164	1.05687
1513.92308	1.04825
1511.99451	1.04166
1510.06595	1.03813
1508.13738	1.03056
1506.20882	1.00191
1504.28025	0.98082
1502.35169	0.96944
1500.42313	0.95873
1498.49456	0.94482
1496.56600	0.92448
1494.63743	0.90620
1492.70887	0.89561
1490.78030	0.88652
1488.85174	0.87104
1486.92317	0.85414
1484.99461	0.84261
1483.06605	0.83544
1481.13748	0.83091
1479.20892	0.82945
1477.28035	0.83265
1475.35179	0.84110
1473.42322	0.85296
1471.49466	0.86068
1469.56610	0.86355
1467.63753	0.86737
1465.70897	0.87348
1463.78040	0.87934
1461.85184	0.88409
1459.92327	0.89101
1457.99471	0.90219
1456.06614	0.90720
1454.13758	0.90444
1452.20902	0.90242
1450.28045	0.90165
1448.35189	0.90081
1446.42332	0.89838
1444.49476	0.89506
1442.56619	0.89186
1440.63763	0.88943
1438.70906	0.88793
1436.78050	0.88405
1434.85194	0.87597
1432.92337	0.86851
1430.99481	0.86137
1429.06624	0.85299
1427.13768	0.84612
1425.20911	0.84212
1423.28055	0.83981
1421.35198	0.83904
1419.42342	0.83929
1417.49486	0.83710
1415.56629	0.83310
1413.63773	0.82995
1411.70916	0.82738
1409.78060	0.82488
1407.85203	0.82355
1405.92347	0.82386
1403.99490	0.82404
1402.06634	0.82432
1400.13778	0.82650
1398.20921	0.82944
1396.28065	0.83074
1394.35208	0.83028
1392.42352	0.83041
1390.49495	0.83391
1388.56639	0.84226
1386.63782	0.85348
1384.70926	0.86297
1382.78070	0.87107
1380.85213	0.87809
1378.92357	0.88187
1376.99500	0.88151
1375.06644	0.87594
1373.13787	0.86477
1371.20931	0.85214
1369.28074	0.83864
1367.35218	0.82407
1365.42362	0.81150
1363.49505	0.79993
1361.56649	0.78752
1359.63792	0.77768
1357.70936	0.77161
1355.78079	0.76776
1353.85223	0.76510
1351.92366	0.76350
1349.99510	0.76269
1348.06654	0.76227
1346.13797	0.76256
1344.20941	0.76429
1342.28084	0.76794
1340.35228	0.77311
1338.42371	0.77749
1336.49515	0.78080
1334.56659	0.78561
1332.63802	0.79273
1330.70946	0.80084
1328.78089	0.80772
1326.85233	0.81227
1324.92376	0.81485
1322.99520	0.81640
1321.06663	0.81794
1319.13807	0.81951
1317.20951	0.82037
1315.28094	0.82060
1313.35238	0.82019
1311.42381	0.81877
1309.49525	0.81672
1307.56668	0.81423
1305.63812	0.81109
1303.70955	0.80751
1301.78099	0.80375
1299.85243	0.79991
1297.92386	0.79581
1295.99530	0.79175
1294.06673	0.78868
1292.13817	0.78708
1290.20960	0.78653
1288.28104	0.78645
1286.35247	0.78647
1284.42391	0.78640
1282.49535	0.78642
1280.56678	0.78696
1278.63822	0.78832
1276.70965	0.79063
1274.78109	0.79401
1272.85252	0.79835
1270.92396	0.80317
1268.99539	0.80812
1267.06683	0.81278
1265.13827	0.81628
1263.20970	0.81832
1261.28114	0.81917
1259.35257	0.81894
1257.42401	0.81811
1255.49544	0.81744
1253.56688	0.81694
1251.63831	0.81625
1249.70975	0.81536
1247.78119	0.81425
1245.85262	0.81303
1243.92406	0.81181
1241.99549	0.81038
1240.06693	0.80863
1238.13836	0.80656
1236.20980	0.80397
1234.28123	0.80069
1232.35267	0.79681
1230.42411	0.79217
1228.49554	0.78672
1226.56698	0.78073
1224.63841	0.77447
1222.70985	0.76829
1220.78128	0.76258
1218.85272	0.75777
1216.92415	0.75435
1214.99559	0.75291
1213.06703	0.75369
1211.13846	0.75648
1209.20990	0.76035
1207.28133	0.76359
1205.35277	0.76457
1203.42420	0.76279
1201.49564	0.75894
1199.56708	0.75394
1197.63851	0.74865
1195.70995	0.74395
1193.78138	0.74019
1191.85282	0.73745
1189.92425	0.73609
1187.99569	0.73606
1186.06712	0.73656
1184.13856	0.73741
1182.21000	0.73912
1180.28143	0.74192
1178.35287	0.74587
1176.42430	0.75086
1174.49574	0.75648
1172.56717	0.76260
1170.63861	0.76940
1168.71004	0.77724
1166.78148	0.78631
1164.85292	0.79550
1162.92435	0.80270
1160.99579	0.80679
1159.06722	0.80780
1157.13866	0.80558
1155.21009	0.80024
1153.28153	0.79272
1151.35296	0.78388
1149.42440	0.77440
1147.49584	0.76534
1145.56727	0.75806
1143.63871	0.75346
1141.71014	0.75196
1139.78158	0.75356
1137.85301	0.75752
1135.92445	0.76324
1133.99588	0.77088
1132.06732	0.78040
1130.13876	0.79138
1128.21019	0.80351
1126.28163	0.81572
1124.35306	0.82608
1122.42450	0.83361
1120.49593	0.83862
1118.56737	0.84123
1116.63880	0.84122
1114.71024	0.83854
1112.78168	0.83367
1110.85311	0.82762
1108.92455	0.82132
1106.99598	0.81562
1105.06742	0.81098
1103.13885	0.80707
1101.21029	0.80440
1099.28172	0.80440
1097.35316	0.80758
1095.42460	0.81355
1093.49603	0.82139
1091.56747	0.83003
1089.63890	0.83945
1087.71034	0.85000
1085.78177	0.86089
1083.85321	0.87126
1081.92464	0.88062
1079.99608	0.88739
1078.06752	0.89047
1076.13895	0.89065
1074.21039	0.88910
1072.28182	0.88664
1070.35326	0.88347
1068.42469	0.87938
1066.49613	0.87438
1064.56756	0.86856
1062.63900	0.86188
1060.71044	0.85438
1058.78187	0.84673
1056.85331	0.83988
1054.92474	0.83412
1052.99618	0.82942
1051.06761	0.82592
1049.13905	0.82419
1047.21049	0.82480
1045.28192	0.82780
1043.35336	0.83249
1041.42479	0.83786
1039.49623	0.84283
1037.56766	0.84613
1035.63910	0.84707
1033.71053	0.84610
1031.78197	0.84393
1029.85341	0.84051
1027.92484	0.83552
1025.99628	0.82940
1024.06771	0.82333
1022.13915	0.81829
1020.21058	0.81452
1018.28202	0.81133
1016.35345	0.80690
1014.42489	0.79985
1012.49633	0.79020
1010.56776	0.77819
1008.63920	0.76442
1006.71063	0.75007
1004.78207	0.73614
1002.85350	0.72343
1000.92494	0.71249
998.99637	0.70357
997.06781	0.69655
995.13925	0.69061
993.21068	0.68493
991.28212	0.67919
989.35355	0.67332
987.42499	0.66768
985.49642	0.66322
983.56786	0.66078
981.63929	0.66030
979.71073	0.66104
977.78217	0.66199
975.85360	0.66220
973.92504	0.66105
971.99647	0.65831
970.06791	0.65430
968.13934	0.64987
966.21078	0.64618
964.28221	0.64432
962.35365	0.64578
960.42509	0.65193
958.49652	0.66214
956.56796	0.67267
954.63939	0.67887
952.71083	0.67896
950.78226	0.67398
948.85370	0.66615
946.92513	0.65837
944.99657	0.65258
943.06801	0.64866
941.13944	0.64580
939.21088	0.64356
937.28231	0.64180
935.35375	0.64027
933.42518	0.63868
931.49662	0.63726
929.56805	0.63651
927.63949	0.63632
925.71093	0.63640
923.78236	0.63675
921.85380	0.63692
919.92523	0.63616
917.99667	0.63455
916.06810	0.63298
914.13954	0.63234
912.21098	0.63304
910.28241	0.63518
908.35385	0.63872
906.42528	0.64340
904.49672	0.64870
902.56815	0.65415
900.63959	0.65934
898.71102	0.66401
896.78246	0.66790
894.85390	0.67064
892.92533	0.67238
890.99677	0.67378
889.06820	0.67517
887.13964	0.67663
885.21107	0.67846
883.28251	0.68053
881.35394	0.68244
879.42538	0.68424
877.49682	0.68588
875.56825	0.68713
873.63969	0.68812
871.71112	0.68905
869.78256	0.68991
867.85399	0.69043
865.92543	0.69070
863.99686	0.69106
862.06830	0.69171
860.13974	0.69298
858.21117	0.69494
856.28261	0.69719
854.35404	0.69932
852.42548	0.70133
850.49691	0.70315
848.56835	0.70481
846.63978	0.70662
844.71122	0.70895
842.78266	0.71199
840.85409	0.71581
838.92553	0.72018
836.99696	0.72467
835.06840	0.72926
833.13983	0.73409
831.21127	0.73908
829.28270	0.74405
827.35414	0.74869
825.42558	0.75275
823.49701	0.75629
821.56845	0.75936
819.63988	0.76236
817.71132	0.76549
815.78275	0.76836
813.85419	0.77066
811.92562	0.77234
809.99706	0.77324
808.06850	0.77327
806.13993	0.77298
804.21137	0.77288
802.28280	0.77259
800.35424	0.77177
798.42567	0.77134
796.49711	0.77207
794.56854	0.77350
792.63998	0.77497
790.71142	0.77629
788.78285	0.77793
786.85429	0.78032
784.92572	0.78295
782.99716	0.78526
781.06859	0.78753
779.14003	0.79037
777.21147	0.79390
775.28290	0.79775
773.35434	0.80171
771.42577	0.80602
769.49721	0.81076
767.56864	0.81544
765.64008	0.81991
763.71151	0.82439
761.78295	0.82891
759.85439	0.83352
757.92582	0.83790
755.99726	0.84188
754.06869	0.84605
752.14013	0.85017
750.21156	0.85343
748.28300	0.85611
746.35443	0.85868
744.42587	0.86088
742.49731	0.86231
740.56874	0.86317
738.64018	0.86403
736.71161	0.86498
734.78305	0.86605
732.85448	0.86727
730.92592	0.86806
728.99735	0.86857
727.06879	0.86993
725.14023	0.87196
723.21166	0.87358
721.28310	0.87504
719.35453	0.87645
717.42597	0.87733
715.49740	0.87832
713.56884	0.88058
711.64027	0.88399
709.71171	0.88732
707.78315	0.88992
705.85458	0.89188
703.92602	0.89339
701.99745	0.89473
700.06889	0.89598
698.14032	0.89703
696.21176	0.89752
694.28319	0.89746
692.35463	0.89784
690.42607	0.89923
688.49750	0.90024
686.56894	0.90003
684.64037	0.89965
682.71181	0.89927
680.78324	0.89811
678.85468	0.89640
676.92611	0.89507
674.99755	0.89424
673.06899	0.89315
671.14042	0.89186
669.21186	0.89101
667.28329	0.89086
665.35473	0.89119
663.42616	0.89187
661.49760	0.89223
659.56903	0.89188
657.64047	0.89181
655.71191	0.89209
653.78334	0.89207
651.85478	0.89202
649.92621	0.89277
647.99765	0.89507
646.06908	0.89798
644.14052	0.90036
642.21195	0.90354
640.28339	0.90872
638.35483	0.91429
636.42626	0.91816
634.49770	0.91980
632.56913	0.91968
630.64057	0.91844
628.71200	0.91740
626.78344	0.91769
624.85488	0.91766
622.92631	0.91611
620.99775	0.91461
619.06918	0.91426
617.14062	0.91478
615.21205	0.91465
613.28349	0.91307
611.35492	0.91204
609.42636	0.91264
607.49780	0.91302
605.56923	0.91248
603.64067	0.91201
601.71210	0.91152
599.78354	0.91163
