3997.91406	0.66205
3995.98550	0.66186
3994.05693	0.66128
3992.12837	0.66085
3990.19980	0.66169
3988.27124	0.66287
3986.34268	0.66233
3984.41411	0.66064
3982.48555	0.65988
3980.55698	0.66032
3978.62842	0.66091
3976.69985	0.66078
3974.77129	0.66026
3972.84272	0.66009
3970.91416	0.65952
3968.98560	0.65819
3967.05703	0.65779
3965.12847	0.65901
3963.19990	0.65992
3961.27134	0.65889
3959.34277	0.65755
3957.41421	0.65751
3955.48564	0.65719
3953.55708	0.65553
3951.62852	0.65446
3949.69995	0.65514
3947.77139	0.65624
3945.84282	0.65712
3943.91426	0.65800
3941.98569	0.65789
3940.05713	0.65633
3938.12856	0.65397
3936.20000	0.65211
3934.27144	0.65243
3932.34287	0.65446
3930.41431	0.65516
3928.48574	0.65383
3926.55718	0.65285
3924.62861	0.65343
3922.70005	0.65437
3920.77148	0.65472
3918.84292	0.65463
3916.91436	0.65395
3914.98579	0.65216
3913.05723	0.65008
3911.12866	0.64929
3909.20010	0.64986
3907.27153	0.65100
3905.34297	0.65284
3903.41440	0.65426
3901.48584	0.65301
3899.55728	0.65011
3897.62871	0.64810
3895.70015	0.64813
3893.77158	0.64983
3891.84302	0.65122
3889.91445	0.64993
3887.98589	0.64804
3886.05733	0.64872
3884.12876	0.65111
3882.20020	0.65227
3880.27163	0.65226
3878.34307	0.65119
3876.41450	0.65062
3874.48594	0.65144
3872.55737	0.65216
3870.62881	0.65182
3868.70025	0.65030
3866.77168	0.64946
3864.84312	0.65106
3862.91455	0.65204
3860.98599	0.64998
3859.05742	0.64798
3857.12886	0.64817
3855.20029	0.65176
3853.27173	0.65683
3851.34317	0.65468
3849.41460	0.65015
3847.48604	0.64740
3845.55747	0.64649
3843.62891	0.64725
3841.70034	0.64958
3839.77178	0.65273
3837.84321	0.65459
3835.91465	0.65302
3833.98609	0.64908
3832.05752	0.64526
3830.12896	0.64371
3828.20039	0.64424
3826.27183	0.64509
3824.34326	0.64543
3822.41470	0.64641
3820.48613	0.64692
3818.55757	0.64543
3816.62901	0.64398
3814.70044	0.64252
3812.77188	0.64082
3810.84331	0.63974
3808.91475	0.64059
3806.98618	0.64311
3805.05762	0.64420
3803.12905	0.64441
3801.20049	0.64412
3799.27193	0.64211
3797.34336	0.64018
3795.41480	0.63872
3793.48623	0.63740
3791.55767	0.63680
3789.62910	0.63730
3787.70054	0.63844
3785.77197	0.63935
3783.84341	0.63957
3781.91485	0.64040
3779.98628	0.64214
3778.05772	0.64199
3776.12915	0.63986
3774.20059	0.63823
3772.27202	0.63840
3770.34346	0.64021
3768.41489	0.64163
3766.48633	0.64163
3764.55777	0.64071
3762.62920	0.63970
3760.70064	0.63954
3758.77207	0.63993
3756.84351	0.63990
3754.91494	0.64072
3752.98638	0.64456
3751.05781	0.64948
3749.12925	0.64779
3747.20069	0.64283
3745.27212	0.63918
3743.34356	0.63753
3741.41499	0.63702
3739.48643	0.63784
3737.55786	0.64106
3735.62930	0.64530
3733.70074	0.64446
3731.77217	0.63970
3729.84361	0.63668
3727.91504	0.63616
3725.98648	0.63654
3724.05791	0.63678
3722.12935	0.63697
3720.20078	0.63691
3718.27222	0.63657
3716.34366	0.63671
3714.41509	0.63840
3712.48653	0.64172
3710.55796	0.64306
3708.62940	0.64108
3706.70083	0.63965
3704.77227	0.64016
3702.84370	0.64189
3700.91514	0.64256
3698.98658	0.64199
3697.05801	0.64245
3695.12945	0.64412
3693.20088	0.64671
3691.27232	0.65150
3689.34375	0.65665
3687.41519	0.65642
3685.48662	0.65402
3683.55806	0.65391
3681.62950	0.65677
3679.70093	0.66074
3677.77237	0.66491
3675.84380	0.67091
3673.91524	0.67553
3671.98667	0.67878
3670.05811	0.68300
3668.12954	0.68354
3666.20098	0.68239
3664.27242	0.68363
3662.34385	0.68725
3660.41529	0.69212
3658.48672	0.69779
3656.55816	0.70476
3654.62959	0.71105
3652.70103	0.71673
3650.77246	0.72600
3648.84390	0.73713
3646.91534	0.74153
3644.98677	0.74338
3643.05821	0.74647
3641.12964	0.75116
3639.20108	0.75713
3637.27251	0.76407
3635.34395	0.77124
3633.41538	0.77765
3631.48682	0.78332
3629.55826	0.79182
3627.62969	0.80111
3625.70113	0.80509
3623.77256	0.80857
3621.84400	0.81480
3619.91543	0.82360
3617.98687	0.83175
3616.05830	0.83825
3614.12974	0.84483
3612.20118	0.85061
3610.27261	0.85612
3608.34405	0.86257
3606.41548	0.86726
3604.48692	0.87107
3602.55835	0.87700
3600.62979	0.88357
3598.70123	0.88951
3596.77266	0.89633
3594.84410	0.90384
3592.91553	0.91009
3590.98697	0.91513
3589.05840	0.92268
3587.12984	0.93228
3585.20127	0.93783
3583.27271	0.94142
3581.34415	0.94602
3579.41558	0.95238
3577.48702	0.96058
3575.55845	0.96849
3573.62989	0.97377
3571.70132	0.97822
3569.77276	0.98593
3567.84419	0.99909
3565.91563	1.01005
3563.98707	1.01242
3562.05850	1.01368
3560.12994	1.01801
3558.20137	1.02426
3556.27281	1.03084
3554.34424	1.03882
3552.41568	1.04902
3550.48711	1.05815
3548.55855	1.06493
3546.62999	1.07049
3544.70142	1.07501
3542.77286	1.07946
3540.84429	1.08408
3538.91573	1.08927
3536.98716	1.09662
3535.05860	1.10420
3533.13003	1.10985
3531.20147	1.11698
3529.27291	1.12568
3527.34434	1.13143
3525.41578	1.13674
3523.48721	1.14659
3521.55865	1.15761
3519.63008	1.16471
3517.70152	1.17035
3515.77295	1.17778
3513.84439	1.18553
3511.91583	1.19171
3509.98726	1.19908
3508.05870	1.21077
3506.13013	1.22375
3504.20157	1.23493
3502.27300	1.24404
3500.34444	1.25265
3498.41587	1.26210
3496.48731	1.27107
3494.55875	1.27908
3492.63018	1.28693
3490.70162	1.29447
3488.77305	1.30073
3486.84449	1.30519
3484.91592	1.30680
3482.98736	1.30640
3481.05879	1.30896
3479.13023	1.31504
3477.20167	1.32176
3475.27310	1.32809
3473.34454	1.33129
3471.41597	1.33225
3469.48741	1.33660
3467.55884	1.34325
3465.63028	1.34680
3463.70171	1.34864
3461.77315	1.35176
3459.84459	1.35608
3457.91602	1.36076
3455.98746	1.36376
3454.05889	1.36523
3452.13033	1.36803
3450.20176	1.37332
3448.27320	1.37986
3446.34464	1.38378
3444.41607	1.38409
3442.48751	1.38696
3440.55894	1.39262
3438.63038	1.39410
3436.70181	1.39125
3434.77325	1.38801
3432.84468	1.38693
3430.91612	1.39015
3428.98756	1.39425
3427.05899	1.39326
3425.13043	1.38916
3423.20186	1.38760
3421.27330	1.39016
3419.34473	1.39481
3417.41617	1.39672
3415.48760	1.39453
3413.55904	1.39171
3411.63048	1.38976
3409.70191	1.38946
3407.77335	1.39331
3405.84478	1.39944
3403.91622	1.40271
3401.98765	1.40262
3400.05909	1.40206
3398.13052	1.40363
3396.20196	1.40650
3394.27340	1.40552
3392.34483	1.40095
3390.41627	1.40005
3388.48770	1.40511
3386.55914	1.41091
3384.63057	1.41327
3382.70201	1.41342
3380.77344	1.41429
3378.84488	1.41704
3376.91632	1.41859
3374.98775	1.41605
3373.05919	1.41481
3371.13062	1.41996
3369.20206	1.42773
3367.27349	1.43348
3365.34493	1.43490
3363.41636	1.43177
3361.48780	1.42955
3359.55924	1.43259
3357.63067	1.43866
3355.70211	1.44170
3353.77354	1.43863
3351.84498	1.43537
3349.91641	1.43771
3347.98785	1.44294
3346.05928	1.44605
3344.13072	1.44590
3342.20216	1.44456
3340.27359	1.44482
3338.34503	1.44882
3336.41646	1.45645
3334.48790	1.46374
3332.55933	1.46706
3330.63077	1.46772
3328.70220	1.46716
3326.77364	1.46588
3324.84508	1.46741
3322.91651	1.47326
3320.98795	1.47917
3319.05938	1.48243
3317.13082	1.48641
3315.20225	1.49182
3313.27369	1.49383
3311.34513	1.49147
3309.41656	1.48994
3307.48800	1.49498
3305.55943	1.50430
3303.63087	1.50972
3301.70230	1.51145
3299.77374	1.51141
3297.84517	1.50587
3295.91661	1.50086
3293.98805	1.50615
3292.05948	1.51665
3290.13092	1.52072
3288.20235	1.51836
3286.27379	1.51785
3284.34522	1.51894
3282.41666	1.51435
3280.48809	1.50808
3278.55953	1.50918
3276.63097	1.51279
3274.70240	1.51126
3272.77384	1.50875
3270.84527	1.51042
3268.91671	1.51587
3266.98814	1.52162
3265.05958	1.52167
3263.13101	1.51512
3261.20245	1.50752
3259.27389	1.50071
3257.34532	1.49339
3255.41676	1.48586
3253.48819	1.47835
3251.55963	1.47048
3249.63106	1.46164
3247.70250	1.45309
3245.77393	1.44869
3243.84537	1.44715
3241.91681	1.44184
3239.98824	1.43378
3238.05968	1.42961
3236.13111	1.42935
3234.20255	1.42674
3232.27398	1.41858
3230.34542	1.41091
3228.41685	1.40948
3226.48829	1.40832
3224.55973	1.40041
3222.63116	1.38937
3220.70260	1.38181
3218.77403	1.37901
3216.84547	1.37738
3214.91690	1.37352
3212.98834	1.36888
3211.05977	1.36488
3209.13121	1.35905
3207.20265	1.35176
3205.27408	1.34617
3203.34552	1.34274
3201.41695	1.33985
3199.48839	1.33615
3197.55982	1.33102
3195.63126	1.32471
3193.70269	1.31852
3191.77413	1.31372
3189.84557	1.31064
3187.91700	1.30700
3185.98844	1.29955
3184.05987	1.29053
3182.13131	1.28479
3180.20274	1.28176
3178.27418	1.27771
3176.34562	1.27214
3174.41705	1.26635
3172.48849	1.26089
3170.55992	1.25654
3168.63136	1.25409
3166.70279	1.25346
3164.77423	1.25220
3162.84566	1.24817
3160.91710	1.24314
3158.98854	1.23961
3157.05997	1.23715
3155.13141	1.23350
3153.20284	1.22892
3151.27428	1.22619
3149.34571	1.22555
3147.41715	1.22531
3145.48858	1.22460
3143.56002	1.22254
3141.63146	1.21918
3139.70289	1.21708
3137.77433	1.21693
3135.84576	1.21578
3133.91720	1.21406
3131.98863	1.21512
3130.06007	1.21766
3128.13150	1.21899
3126.20294	1.21963
3124.27438	1.21970
3122.34581	1.21808
3120.41725	1.21692
3118.48868	1.21891
3116.56012	1.22183
3114.63155	1.22339
3112.70299	1.22414
3110.77442	1.22425
3108.84586	1.22482
3106.91730	1.22601
3104.98873	1.22608
3103.06017	1.22605
3101.13160	1.22639
3099.20304	1.22438
3097.27447	1.22050
3095.34591	1.21812
3093.41734	1.21746
3091.48878	1.21649
3089.56022	1.21481
3087.63165	1.21268
3085.70309	1.20942
3083.77452	1.20576
3081.84596	1.20304
3079.91739	1.20012
3077.98883	1.19645
3076.06026	1.19259
3074.13170	1.18829
3072.20314	1.18481
3070.27457	1.18267
3068.34601	1.17968
3066.41744	1.17494
3064.48888	1.17048
3062.56031	1.16704
3060.63175	1.16269
3058.70318	1.15771
3056.77462	1.15363
3054.84606	1.14970
3052.91749	1.14598
3050.98893	1.14265
3049.06036	1.13858
3047.13180	1.13368
3045.20323	1.12795
3043.27467	1.12212
3041.34610	1.11770
3039.41754	1.11402
3037.48898	1.11006
3035.56041	1.10639
3033.63185	1.10311
3031.70328	1.09954
3029.77472	1.09539
3027.84615	1.09115
3025.91759	1.08745
3023.98903	1.08463
3022.06046	1.08297
3020.13190	1.08118
3018.20333	1.07805
3016.27477	1.07510
3014.34620	1.07337
3012.41764	1.07183
3010.48907	1.06961
3008.56051	1.06718
3006.63195	1.06580
3004.70338	1.06553
3002.77482	1.06603
3000.84625	1.06798
2998.91769	1.07071
2996.98912	1.07288
2995.06056	1.07444
2993.13199	1.07625
2991.20343	1.08027
2989.27487	1.08726
2987.34630	1.09471
2985.41774	1.10135
2983.48917	1.10816
2981.56061	1.11526
2979.63204	1.12304
2977.70348	1.13240
2975.77491	1.14237
2973.84635	1.15076
2971.91779	1.15747
2969.98922	1.16405
2968.06066	1.17020
2966.13209	1.17520
2964.20353	1.17986
2962.27496	1.18371
2960.34640	1.18422
2958.41783	1.17999
2956.48927	1.17247
2954.56071	1.16468
2952.63214	1.15848
2950.70358	1.15338
2948.77501	1.14934
2946.84645	1.14796
2944.91788	1.15055
2942.98932	1.15693
2941.06075	1.16497
2939.13219	1.17239
2937.20363	1.17915
2935.27506	1.18601
2933.34650	1.19317
2931.41793	1.19984
2929.48937	1.20452
2927.56080	1.20827
2925.63224	1.21340
2923.70367	1.21839
2921.77511	1.22036
2919.84655	1.21871
2917.91798	1.21299
2915.98942	1.20184
2914.06085	1.18520
2912.13229	1.16671
2910.20372	1.15086
2908.27516	1.13877
2906.34659	1.12952
2904.41803	1.12210
2902.48947	1.11612
2900.56090	1.11197
2898.63234	1.10936
2896.70377	1.10775
2894.77521	1.10640
2892.84664	1.10412
2890.91808	1.10104
2888.98952	1.09788
2887.06095	1.09485
2885.13239	1.09292
2883.20382	1.09270
2881.27526	1.09356
2879.34669	1.09488
2877.41813	1.09535
2875.48956	1.09347
2873.56100	1.08925
2871.63244	1.08317
2869.70387	1.07557
2867.77531	1.06748
2865.84674	1.05984
2863.91818	1.05243
2861.98961	1.04613
2860.06105	1.04378
2858.13248	1.04574
2856.20392	1.04954
2854.27536	1.05392
2852.34679	1.05807
2850.41823	1.05830
2848.48966	1.04866
2846.56110	1.02854
2844.63253	1.00539
2842.70397	0.98564
2840.77540	0.97075
2838.84684	0.96021
2836.91828	0.95279
2834.98971	0.94726
2833.06115	0.94260
2831.13258	0.93783
2829.20402	0.93306
2827.27545	0.92930
2825.34689	0.92649
2823.41832	0.92308
2821.48976	0.91858
2819.56120	0.91459
2817.63263	0.91172
2815.70407	0.90913
2813.77550	0.90668
2811.84694	0.90414
2809.91837	0.90101
2807.98981	0.89779
2806.06124	0.89495
2804.13268	0.89198
2802.20412	0.88888
2800.27555	0.88645
2798.34699	0.88461
2796.41842	0.88206
2794.48986	0.87815
2792.56129	0.87421
2790.63273	0.87134
2788.70416	0.86910
2786.77560	0.86723
2784.84704	0.86569
2782.91847	0.86386
2780.98991	0.86193
2779.06134	0.86044
2777.13278	0.85869
2775.20421	0.85641
2773.27565	0.85454
2771.34708	0.85316
2769.41852	0.85177
2767.48996	0.85050
2765.56139	0.84932
2763.63283	0.84801
2761.70426	0.84678
2759.77570	0.84541
2757.84713	0.84322
2755.91857	0.84060
2753.99001	0.83824
2752.06144	0.83629
2750.13288	0.83496
2748.20431	0.83403
2746.27575	0.83315
2744.34718	0.83209
2742.41862	0.83075
2740.49005	0.82925
2738.56149	0.82748
2736.63293	0.82544
2734.70436	0.82359
2732.77580	0.82197
2730.84723	0.82014
2728.91867	0.81828
2726.99010	0.81681
2725.06154	0.81528
2723.13297	0.81306
2721.20441	0.81054
2719.27585	0.80847
2717.34728	0.80678
2715.41872	0.80508
2713.49015	0.80330
2711.56159	0.80148
2709.63302	0.79969
2707.70446	0.79767
2705.77589	0.79551
2703.84733	0.79380
2701.91877	0.79255
2699.99020	0.79141
2698.06164	0.79030
2696.13307	0.78894
2694.20451	0.78697
2692.27594	0.78506
2690.34738	0.78395
2688.41881	0.78342
2686.49025	0.78301
2684.56169	0.78218
2682.63312	0.78106
2680.70456	0.78021
2678.77599	0.77958
2676.84743	0.77936
2674.91886	0.77938
2672.99030	0.77855
2671.06173	0.77694
2669.13317	0.77578
2667.20461	0.77540
2665.27604	0.77501
2663.34748	0.77407
2661.41891	0.77296
2659.49035	0.77225
2657.56178	0.77204
2655.63322	0.77202
2653.70465	0.77171
2651.77609	0.77075
2649.84753	0.76945
2647.91896	0.76860
2645.99040	0.76790
2644.06183	0.76651
2642.13327	0.76480
2640.20470	0.76364
2638.27614	0.76309
2636.34757	0.76255
2634.41901	0.76161
2632.49045	0.76062
2630.56188	0.75974
2628.63332	0.75854
2626.70475	0.75687
2624.77619	0.75533
2622.84762	0.75451
2620.91906	0.75412
2618.99049	0.75344
2617.06193	0.75226
2615.13337	0.75103
2613.20480	0.75014
2611.27624	0.74943
2609.34767	0.74842
2607.41911	0.74716
2605.49054	0.74651
2603.56198	0.74643
2601.63342	0.74581
2599.70485	0.74432
2597.77629	0.74257
2595.84772	0.74114
2593.91916	0.73993
2591.99059	0.73878
2590.06203	0.73788
2588.13346	0.73700
2586.20490	0.73589
2584.27634	0.73482
2582.34777	0.73415
2580.41921	0.73363
2578.49064	0.73281
2576.56208	0.73190
2574.63351	0.73106
2572.70495	0.72998
2570.77638	0.72867
2568.84782	0.72750
2566.91926	0.72667
2564.99069	0.72629
2563.06213	0.72605
2561.13356	0.72537
2559.20500	0.72419
2557.27643	0.72283
2555.34787	0.72142
2553.41930	0.72006
2551.49074	0.71883
2549.56218	0.71748
2547.63361	0.71581
2545.70505	0.71412
2543.77648	0.71260
2541.84792	0.71105
2539.91935	0.70949
2537.99079	0.70819
2536.06222	0.70693
2534.13366	0.70534
2532.20510	0.70380
2530.27653	0.70281
2528.34797	0.70200
2526.41940	0.70092
2524.49084	0.69970
2522.56227	0.69868
2520.63371	0.69788
2518.70514	0.69719
2516.77658	0.69654
2514.84802	0.69572
2512.91945	0.69478
2510.99089	0.69424
2509.06232	0.69426
2507.13376	0.69413
2505.20519	0.69321
2503.27663	0.69198
2501.34806	0.69121
2499.41950	0.69091
2497.49094	0.69063
2495.56237	0.69016
2493.63381	0.68951
2491.70524	0.68876
2489.77668	0.68804
2487.84811	0.68739
2485.91955	0.68668
2483.99098	0.68586
2482.06242	0.68524
2480.13386	0.68494
2478.20529	0.68436
2476.27673	0.68327
2474.34816	0.68223
2472.41960	0.68157
2470.49103	0.68090
2468.56247	0.67985
2466.63391	0.67867
2464.70534	0.67761
2462.77678	0.67636
2460.84821	0.67482
2458.91965	0.67316
2456.99108	0.67135
2455.06252	0.66948
2453.13395	0.66768
2451.20539	0.66574
2449.27683	0.66360
2447.34826	0.66166
2445.41970	0.66019
2443.49113	0.65888
2441.56257	0.65742
2439.63400	0.65598
2437.70544	0.65468
2435.77687	0.65368
2433.84831	0.65314
2431.91975	0.65283
2429.99118	0.65247
2428.06262	0.65214
2426.13405	0.65198
2424.20549	0.65187
2422.27692	0.65171
2420.34836	0.65176
2418.41979	0.65201
2416.49123	0.65212
2414.56267	0.65196
2412.63410	0.65161
2410.70554	0.65114
2408.77697	0.65050
2406.84841	0.64984
2404.91984	0.64929
2402.99128	0.64856
2401.06271	0.64761
2399.13415	0.64665
2397.20559	0.64553
2395.27702	0.64416
2393.34846	0.64278
2391.41989	0.64141
2389.49133	0.63993
2387.56276	0.63826
2385.63420	0.63658
2383.70563	0.63522
2381.77707	0.63397
2379.84851	0.63255
2377.91994	0.63142
2375.99138	0.63116
2374.06281	0.63095
2372.13425	0.62967
2370.20568	0.62824
2368.27712	0.62789
2366.34855	0.62730
2364.41999	0.62519
2362.49143	0.62330
2360.56286	0.62291
2358.63430	0.62183
2356.70573	0.61944
2354.77717	0.61797
2352.84860	0.61781
2350.92004	0.61777
2348.99147	0.61726
2347.06291	0.61615
2345.13435	0.61465
2343.20578	0.61396
2341.27722	0.61426
2339.34865	0.61409
2337.42009	0.61307
2335.49152	0.61185
2333.56296	0.61102
2331.63440	0.61070
2329.70583	0.61103
2327.77727	0.61171
2325.84870	0.61164
2323.92014	0.61060
2321.99157	0.60898
2320.06301	0.60699
2318.13444	0.60518
2316.20588	0.60385
2314.27732	0.60274
2312.34875	0.60133
2310.42019	0.59949
2308.49162	0.59780
2306.56306	0.59633
2304.63449	0.59469
2302.70593	0.59314
2300.77736	0.59201
2298.84880	0.59092
2296.92024	0.58969
2294.99167	0.58862
2293.06311	0.58780
2291.13454	0.58704
2289.20598	0.58638
2287.27741	0.58582
2285.34885	0.58526
2283.42028	0.58459
2281.49172	0.58395
2279.56316	0.58356
2277.63459	0.58327
2275.70603	0.58287
2273.77746	0.58221
2271.84890	0.58120
2269.92033	0.58018
2267.99177	0.57953
2266.06320	0.57911
2264.13464	0.57846
2262.20608	0.57753
2260.27751	0.57669
2258.34895	0.57592
2256.42038	0.57495
2254.49182	0.57381
2252.56325	0.57268
2250.63469	0.57148
2248.70612	0.57021
2246.77756	0.56898
2244.84900	0.56778
2242.92043	0.56654
2240.99187	0.56532
2239.06330	0.56422
2237.13474	0.56321
2235.20617	0.56220
2233.27761	0.56125
2231.34904	0.56045
2229.42048	0.55975
2227.49192	0.55899
2225.56335	0.55811
2223.63479	0.55729
2221.70622	0.55683
2219.77766	0.55669
2217.84909	0.55649
2215.92053	0.55595
2213.99196	0.55522
2212.06340	0.55458
2210.13484	0.55413
2208.20627	0.55377
2206.27771	0.55329
2204.34914	0.55269
2202.42058	0.55221
2200.49201	0.55186
2198.56345	0.55153
2196.63488	0.55117
2194.70632	0.55056
2192.77776	0.54958
2190.84919	0.54853
2188.92063	0.54766
2186.99206	0.54674
2185.06350	0.54560
2183.13493	0.54451
2181.20637	0.54366
2179.27781	0.54281
2177.34924	0.54162
2175.42068	0.54015
2173.49211	0.53882
2171.56355	0.53782
2169.63498	0.53693
2167.70642	0.53609
2165.77785	0.53541
2163.84929	0.53468
2161.92073	0.53379
2159.99216	0.53304
2158.06360	0.53251
2156.13503	0.53199
2154.20647	0.53145
2152.27790	0.53110
2150.34934	0.53090
2148.42077	0.53057
2146.49221	0.53008
2144.56365	0.52963
2142.63508	0.52928
2140.70652	0.52888
2138.77795	0.52855
2136.84939	0.52837
2134.92082	0.52813
2132.99226	0.52783
2131.06369	0.52762
2129.13513	0.52735
2127.20657	0.52702
2125.27800	0.52672
2123.34944	0.52652
2121.42087	0.52626
2119.49231	0.52566
2117.56374	0.52492
2115.63518	0.52445
2113.70661	0.52413
2111.77805	0.52358
2109.84949	0.52265
2107.92092	0.52165
2105.99236	0.52079
2104.06379	0.51976
2102.13523	0.51847
2100.20666	0.51726
2098.27810	0.51633
2096.34953	0.51545
2094.42097	0.51440
2092.49241	0.51319
2090.56384	0.51196
2088.63528	0.51068
2086.70671	0.50935
2084.77815	0.50802
2082.84958	0.50665
2080.92102	0.50528
2078.99245	0.50398
2077.06389	0.50272
2075.13533	0.50156
2073.20676	0.50054
2071.27820	0.49954
2069.34963	0.49851
2067.42107	0.49744
2065.49250	0.49629
2063.56394	0.49509
2061.63537	0.49402
2059.70681	0.49315
2057.77825	0.49235
2055.84968	0.49157
2053.92112	0.49084
2051.99255	0.49017
2050.06399	0.48967
2048.13542	0.48939
2046.20686	0.48913
2044.27830	0.48886
2042.34973	0.48854
2040.42117	0.48801
2038.49260	0.48750
2036.56404	0.48729
2034.63547	0.48725
2032.70691	0.48717
2030.77834	0.48705
2028.84978	0.48700
2026.92122	0.48702
2024.99265	0.48689
2023.06409	0.48665
2021.13552	0.48646
2019.20696	0.48617
2017.27839	0.48556
2015.34983	0.48461
2013.42126	0.48363
2011.49270	0.48281
2009.56414	0.48194
2007.63557	0.48088
2005.70701	0.47967
2003.77844	0.47835
2001.84988	0.47695
1999.92131	0.47568
1997.99275	0.47451
1996.06418	0.47359
1994.13562	0.47315
1992.20706	0.47277
1990.27849	0.47185
1988.34993	0.47057
1986.42136	0.46936
1984.49280	0.46844
1982.56423	0.46782
1980.63567	0.46732
1978.70710	0.46682
1976.77854	0.46648
1974.84998	0.46627
1972.92141	0.46604
1970.99285	0.46604
1969.06428	0.46650
1967.13572	0.46680
1965.20715	0.46636
1963.27859	0.46576
1961.35002	0.46551
1959.42146	0.46553
1957.49290	0.46580
1955.56433	0.46621
1953.63577	0.46646
1951.70720	0.46653
1949.77864	0.46664
1947.85007	0.46700
1945.92151	0.46768
1943.99294	0.46852
1942.06438	0.46880
1940.13582	0.46815
1938.20725	0.46735
1936.27869	0.46687
1934.35012	0.46645
1932.42156	0.46598
1930.49299	0.46547
1928.56443	0.46486
1926.63586	0.46440
1924.70730	0.46420
1922.77874	0.46365
1920.85017	0.46260
1918.92161	0.46159
1916.99304	0.46023
1915.06448	0.45862
1913.13591	0.45765
1911.20735	0.45732
1909.27878	0.45668
1907.35022	0.45533
1905.42166	0.45397
1903.49309	0.45310
1901.56453	0.45252
1899.63596	0.45205
1897.70740	0.45194
1895.77883	0.45210
1893.85027	0.45201
1891.92171	0.45212
1889.99314	0.45269
1888.06458	0.45293
1886.13601	0.45294
1884.20745	0.45323
1882.27888	0.45373
1880.35032	0.45443
1878.42175	0.45520
1876.49319	0.45579
1874.56463	0.45634
1872.63606	0.45748
1870.70750	0.45974
1868.77893	0.46207
1866.85037	0.46205
1864.92180	0.46067
1862.99324	0.45996
1861.06467	0.45993
1859.13611	0.45986
1857.20755	0.45952
1855.27898	0.45915
1853.35042	0.45896
1851.42185	0.45908
1849.49329	0.45973
1847.56472	0.46092
1845.63616	0.46219
1843.70759	0.46207
1841.77903	0.46042
1839.85047	0.45919
1837.92190	0.45868
1835.99334	0.45815
1834.06477	0.45772
1832.13621	0.45814
1830.20764	0.45879
1828.27908	0.45815
1826.35051	0.45687
1824.42195	0.45566
1822.49339	0.45436
1820.56482	0.45347
1818.63626	0.45331
1816.70769	0.45356
1814.77913	0.45415
1812.85056	0.45529
1810.92200	0.45653
1808.99343	0.45712
1807.06487	0.45753
1805.13631	0.45859
1803.20774	0.46069
1801.27918	0.46356
1799.35061	0.46594
1797.42205	0.46763
1795.49348	0.46969
1793.56492	0.47243
1791.63635	0.47419
1789.70779	0.47376
1787.77923	0.47349
1785.85066	0.47454
1783.92210	0.47632
1781.99353	0.47827
1780.06497	0.47991
1778.13640	0.48095
1776.20784	0.48226
1774.27927	0.48509
1772.35071	0.48883
1770.42215	0.49019
1768.49358	0.48989
1766.56502	0.49024
1764.63645	0.49193
1762.70789	0.49532
1760.77932	0.49917
1758.85076	0.50244
1756.92220	0.50654
1754.99363	0.51123
1753.06507	0.51692
1751.13650	0.52610
1749.20794	0.53712
1747.27937	0.54514
1745.35081	0.55125
1743.42224	0.55734
1741.49368	0.56377
1739.56512	0.57045
1737.63655	0.57613
1735.70799	0.58216
1733.77942	0.59076
1731.85086	0.59670
1729.92229	0.60023
1727.99373	0.60477
1726.06516	0.61089
1724.13660	0.61916
1722.20804	0.62807
1720.27947	0.63754
1718.35091	0.65320
1716.42234	0.67577
1714.49378	0.69265
1712.56521	0.70674
1710.63665	0.72412
1708.70808	0.74624
1706.77952	0.77745
1704.85096	0.81628
1702.92239	0.85036
1700.99383	0.89318
1699.06526	0.95511
1697.13670	1.00646
1695.20813	1.05081
1693.27957	1.08373
1691.35100	1.10935
1689.42244	1.13813
1687.49388	1.16241
1685.56531	1.18513
1683.63675	1.21754
1681.70818	1.23838
1679.77962	1.24766
1677.85105	1.25618
1675.92249	1.26612
1673.99392	1.27477
1672.06536	1.28149
1670.13680	1.28782
1668.20823	1.29180
1666.27967	1.29292
1664.35110	1.29474
1662.42254	1.29709
1660.49397	1.29760
1658.56541	1.29785
1656.63684	1.29832
1654.70828	1.29887
1652.77972	1.29617
1650.85115	1.29311
1648.92259	1.29284
1646.99402	1.29071
1645.06546	1.28451
1643.13689	1.27880
1641.20833	1.27551
1639.27976	1.27433
1637.35120	1.27415
1635.42264	1.27057
1633.49407	1.26453
1631.56551	1.26060
1629.63694	1.25623
1627.70838	1.24984
1625.77981	1.24226
1623.85125	1.23313
1621.92269	1.22163
1619.99412	1.21044
1618.06556	1.19650
1616.13699	1.17404
1614.20843	1.15333
1612.27986	1.13727
1610.35130	1.12142
1608.42273	1.10539
1606.49417	1.09125
1604.56561	1.08080
1602.63704	1.07353
1600.70848	1.06881
1598.77991	1.06640
1596.85135	1.06589
1594.92278	1.06672
1592.99422	1.06896
1591.06565	1.07326
1589.13709	1.07934
1587.20853	1.08705
1585.27996	1.09680
1583.35140	1.10823
1581.42283	1.11965
1579.49427	1.13032
1577.56570	1.14359
1575.63714	1.16028
1573.70857	1.17090
1571.78001	1.17852
1569.85145	1.18954
1567.92288	1.19986
1565.99432	1.20649
1564.06575	1.21249
1562.13719	1.21753
1560.20862	1.22428
1558.28006	1.23377
1556.35149	1.23418
1554.42293	1.23193
1552.49437	1.23054
1550.56580	1.22987
1548.63724	1.22893
1546.70867	1.22898
1544.78011	1.23112
1542.85154	1.23418
1540.92298	1.23256
1538.99441	1.21831
1537.06585	1.20710
1535.13729	1.20078
1533.20872	1.19430
1531.28016	1.18759
1529.35159	1.18355
1527.42303	1.18141
1525.49446	1.17969
1523.56590	1.17898
1521.63733	1.17718
1519.70877	1.17265
1517.78021	1.16603
1515.85164	1.15560
1513.92308	1.14335
1511.99451	1.13173
1510.06595	1.12217
1508.13738	1.10796
1506.20882	1.07493
1504.28025	1.05170
1502.35169	1.03823
1500.42313	1.02453
1498.49456	1.00736
1496.56600	0.98573
1494.63743	0.96721
1492.70887	0.95528
1490.78030	0.94420
1488.85174	0.92895
1486.92317	0.91445
1484.99461	0.90489
1483.06605	0.89952
1481.13748	0.89749
1479.20892	0.89886
1477.28035	0.90477
1475.35179	0.91640
1473.42322	0.93375
1471.49466	0.94932
1469.56610	0.95742
1467.63753	0.96457
1465.70897	0.97468
1463.78040	0.98446
1461.85184	0.99057
1459.92327	0.99691
1457.99471	1.00857
1456.06614	1.01839
1454.13758	1.01838
1452.20902	1.01681
1450.28045	1.01618
1448.35189	1.01569
1446.42332	1.01370
1444.49476	1.00990
1442.56619	1.00564
1440.63763	1.00215
1438.70906	0.99886
1436.78050	0.99302
1434.85194	0.98480
1432.92337	0.97770
1430.99481	0.97087
1429.06624	0.96324
1427.13768	0.95687
1425.20911	0.95306
1423.28055	0.95125
1421.35198	0.95097
1419.42342	0.95196
1417.49486	0.95108
1415.56629	0.94761
1413.63773	0.94423
1411.70916	0.94158
1409.78060	0.93970
1407.85203	0.93903
1405.92347	0.93969
1403.99490	0.94103
1402.06634	0.94297
1400.13778	0.94665
1398.20921	0.95136
1396.28065	0.95507
1394.35208	0.95752
1392.42352	0.95971
1390.49495	0.96427
1388.56639	0.97407
1386.63782	0.98813
1384.70926	1.00100
1382.78070	1.01158
1380.85213	1.01976
1378.92357	1.02324
1376.99500	1.02101
1375.06644	1.01284
1373.13787	1.00000
1371.20931	0.98630
1369.28074	0.97143
1367.35218	0.95508
1365.42362	0.94040
1363.49505	0.92728
1361.56649	0.91484
1359.63792	0.90534
1357.70936	0.89900
1355.78079	0.89438
1353.85223	0.89097
1351.92366	0.88867
1349.99510	0.88706
1348.06654	0.88590
1346.13797	0.88523
1344.20941	0.88527
1342.28084	0.88657
1340.35228	0.88926
1338.42371	0.89211
1336.49515	0.89490
1334.56659	0.89962
1332.63802	0.90720
1330.70946	0.91610
1328.78089	0.92368
1326.85233	0.92871
1324.92376	0.93168
1322.99520	0.93399
1321.06663	0.93687
1319.13807	0.94008
1317.20951	0.94265
1315.28094	0.94481
1313.35238	0.94727
1311.42381	0.94955
1309.49525	0.95097
1307.56668	0.95144
1305.63812	0.95097
1303.70955	0.95012
1301.78099	0.94941
1299.85243	0.94826
1297.92386	0.94583
1295.99530	0.94259
1294.06673	0.94010
1292.13817	0.93909
1290.20960	0.93929
1288.28104	0.94005
1286.35247	0.94046
1284.42391	0.94010
1282.49535	0.93944
1280.56678	0.93876
1278.63822	0.93818
1276.70965	0.93854
1274.78109	0.94011
1272.85252	0.94237
1270.92396	0.94521
1268.99539	0.94854
1267.06683	0.95175
1265.13827	0.95389
1263.20970	0.95441
1261.28114	0.95338
1259.35257	0.95149
1257.42401	0.94963
1255.49544	0.94815
1253.56688	0.94717
1251.63831	0.94674
1249.70975	0.94696
1247.78119	0.94796
1245.85262	0.94951
1243.92406	0.95119
1241.99549	0.95275
1240.06693	0.95380
1238.13836	0.95435
1236.20980	0.95500
1234.28123	0.95582
1232.35267	0.95603
1230.42411	0.95523
1228.49554	0.95390
1226.56698	0.95253
1224.63841	0.95074
1222.70985	0.94852
1220.78128	0.94705
1218.85272	0.94663
1216.92415	0.94652
1214.99559	0.94724
1213.06703	0.95004
1211.13846	0.95433
1209.20990	0.95787
1207.28133	0.95887
1205.35277	0.95623
1203.42420	0.94951
1201.49564	0.93936
1199.56708	0.92680
1197.63851	0.91297
1195.70995	0.89897
1193.78138	0.88576
1191.85282	0.87420
1189.92425	0.86471
1187.99569	0.85742
1186.06712	0.85245
1184.13856	0.84995
1182.21000	0.84992
1180.28143	0.85214
1178.35287	0.85706
1176.42430	0.86537
1174.49574	0.87644
1172.56717	0.88906
1170.63861	0.90311
1168.71004	0.91883
1166.78148	0.93578
1164.85292	0.95242
1162.92435	0.96645
1160.99579	0.97634
1159.06722	0.98160
1157.13866	0.98257
1155.21009	0.98077
1153.28153	0.97824
1151.35296	0.97577
1149.42440	0.97324
1147.49584	0.97152
1145.56727	0.97193
1143.63871	0.97480
1141.71014	0.98005
1139.78158	0.98764
1137.85301	0.99696
1135.92445	1.00687
1133.99588	1.01775
1132.06732	1.03110
1130.13876	1.04648
1128.21019	1.06093
1126.28163	1.07238
1124.35306	1.08127
1122.42450	1.08783
1120.49593	1.09089
1118.56737	1.09008
1116.63880	1.08611
1114.71024	1.07947
1112.78168	1.07103
1110.85311	1.06253
1108.92455	1.05485
1106.99598	1.04707
1105.06742	1.03940
1103.13885	1.03344
1101.21029	1.02970
1099.28172	1.02872
1097.35316	1.03175
1095.42460	1.03899
1093.49603	1.04948
1091.56747	1.06231
1089.63890	1.07615
1087.71034	1.08969
1085.78177	1.10254
1083.85321	1.11378
1081.92464	1.12171
1079.99608	1.12516
1078.06752	1.12514
1076.13895	1.12399
1074.21039	1.12223
1072.28182	1.11955
1070.35326	1.11706
1068.42469	1.11598
1066.49613	1.11616
1064.56756	1.11633
1062.63900	1.11555
1060.71044	1.11367
1058.78187	1.11104
1056.85331	1.10851
1054.92474	1.10640
1052.99618	1.10462
1051.06761	1.10375
1049.13905	1.10316
1047.21049	1.10230
1045.28192	1.10329
1043.35336	1.10598
1041.42479	1.10687
1039.49623	1.10448
1037.56766	1.10022
1035.63910	1.09574
1033.71053	1.09047
1031.78197	1.08240
1029.85341	1.07152
1027.92484	1.05890
1025.99628	1.04499
1024.06771	1.03100
1022.13915	1.01852
1020.21058	1.00798
1018.28202	0.99886
1016.35345	0.98963
1014.42489	0.97840
1012.49633	0.96476
1010.56776	0.94948
1008.63920	0.93327
1006.71063	0.91710
1004.78207	0.90246
1002.85350	0.89099
1000.92494	0.88354
998.99637	0.87975
997.06781	0.87890
995.13925	0.88052
993.21068	0.88349
991.28212	0.88627
989.35355	0.88905
987.42499	0.89301
985.49642	0.89796
983.56786	0.90342
981.63929	0.91001
979.71073	0.91763
977.78217	0.92425
975.85360	0.92825
973.92504	0.92920
971.99647	0.92621
970.06791	0.91895
968.13934	0.90890
966.21078	0.89808
964.28221	0.88809
962.35365	0.88070
960.42509	0.87811
958.49652	0.88056
956.56796	0.88389
954.63939	0.88176
952.71083	0.87162
950.78226	0.85579
948.85370	0.83750
946.92513	0.82000
944.99657	0.80607
943.06801	0.79610
941.13944	0.78889
939.21088	0.78393
937.28231	0.78141
935.35375	0.78160
933.42518	0.78444
931.49662	0.78939
929.56805	0.79591
927.63949	0.80384
925.71093	0.81325
923.78236	0.82361
921.85380	0.83380
919.92523	0.84299
917.99667	0.85088
916.06810	0.85751
914.13954	0.86370
912.21098	0.87039
910.28241	0.87731
908.35385	0.88395
906.42528	0.89044
904.49672	0.89673
902.56815	0.90240
900.63959	0.90655
898.71102	0.90817
896.78246	0.90705
894.85390	0.90383
892.92533	0.89937
890.99677	0.89429
889.06820	0.88896
887.13964	0.88351
885.21107	0.87847
883.28251	0.87507
881.35394	0.87339
879.42538	0.87208
877.49682	0.87082
875.56825	0.87058
873.63969	0.87150
871.71112	0.87318
869.78256	0.87586
867.85399	0.87933
865.92543	0.88273
863.99686	0.88622
862.06830	0.89070
860.13974	0.89635
858.21117	0.90240
856.28261	0.90837
854.35404	0.91466
852.42548	0.92070
850.49691	0.92522
848.56835	0.92856
846.63978	0.93175
844.71122	0.93493
842.78266	0.93805
840.85409	0.94126
838.92553	0.94442
836.99696	0.94699
835.06840	0.94910
833.13983	0.95114
831.21127	0.95224
829.28270	0.95193
827.35414	0.95162
825.42558	0.95180
823.49701	0.95138
821.56845	0.95018
819.63988	0.94902
817.71132	0.94810
815.78275	0.94707
813.85419	0.94616
811.92562	0.94632
809.99706	0.94785
808.06850	0.95015
806.13993	0.95285
804.21137	0.95555
802.28280	0.95789
800.35424	0.96004
798.42567	0.96232
796.49711	0.96538
794.56854	0.96994
792.63998	0.97546
790.71142	0.98039
788.78285	0.98447
786.85429	0.98823
784.92572	0.99180
782.99716	0.99603
781.06859	1.00062
779.14003	1.00379
777.21147	1.00626
775.28290	1.00895
773.35434	1.01044
771.42577	1.01118
769.49721	1.01304
767.56864	1.01475
765.64008	1.01459
763.71151	1.01396
761.78295	1.01404
759.85439	1.01440
757.92582	1.01505
755.99726	1.01600
754.06869	1.01704
752.14013	1.01819
750.21156	1.01936
748.28300	1.02085
746.35443	1.02271
744.42587	1.02435
742.49731	1.02597
740.56874	1.02819
738.64018	1.03101
736.71161	1.03393
734.78305	1.03637
732.85448	1.03840
730.92592	1.04071
728.99735	1.04388
727.06879	1.04827
725.14023	1.05353
723.21166	1.05868
721.28310	1.06288
719.35453	1.06557
717.42597	1.06730
715.49740	1.06910
713.56884	1.07143
711.64027	1.07457
709.71171	1.07713
707.78315	1.07726
705.85458	1.07680
703.92602	1.07834
701.99745	1.08061
700.06889	1.08135
698.14032	1.08071
696.21176	1.08017
694.28319	1.07957
692.35463	1.07718
690.42607	1.07348
688.49750	1.07057
686.56894	1.06875
684.64037	1.06703
682.71181	1.06551
680.78324	1.06388
678.85468	1.06016
676.92611	1.05504
674.99755	1.05101
673.06899	1.04803
671.14042	1.04591
669.21186	1.04608
667.28329	1.04931
665.35473	1.05116
663.42616	1.05060
661.49760	1.04908
659.56903	1.04816
657.64047	1.04820
655.71191	1.04775
653.78334	1.04653
651.85478	1.04602
649.92621	1.04630
647.99765	1.04627
646.06908	1.04593
644.14052	1.04622
642.21195	1.04820
640.28339	1.05174
638.35483	1.05425
636.42626	1.05382
634.49770	1.05218
632.56913	1.05097
630.64057	1.04864
628.71200	1.04405
626.78344	1.03979
624.85488	1.03911
622.92631	1.04118
620.99775	1.04241
619.06918	1.04117
617.14062	1.03898
615.21205	1.03844
613.28349	1.04081
611.35492	1.04410
609.42636	1.04513
607.49780	1.04450
605.56923	1.04411
603.64067	1.04526
601.71210	1.05019
599.78354	1.05670
