3997.91406	0.81725
3995.98550	0.81645
3994.05693	0.81640
3992.12837	0.81647
3990.19980	0.81542
3988.27124	0.81367
3986.34268	0.81259
3984.41411	0.81198
3982.48555	0.81169
3980.55698	0.81177
3978.62842	0.81138
3976.69985	0.81025
3974.77129	0.80914
3972.84272	0.80943
3970.91416	0.81077
3968.98560	0.81030
3967.05703	0.80793
3965.12847	0.80721
3963.19990	0.80902
3961.27134	0.81076
3959.34277	0.81162
3957.41421	0.81175
3955.48564	0.80984
3953.55708	0.80746
3951.62852	0.80764
3949.69995	0.80978
3947.77139	0.81166
3945.84282	0.81251
3943.91426	0.81149
3941.98569	0.80862
3940.05713	0.80674
3938.12856	0.80713
3936.20000	0.80856
3934.27144	0.80935
3932.34287	0.80844
3930.41431	0.80698
3928.48574	0.80615
3926.55718	0.80547
3924.62861	0.80477
3922.70005	0.80434
3920.77148	0.80371
3918.84292	0.80217
3916.91436	0.80041
3914.98579	0.79846
3913.05723	0.79585
3911.12866	0.79424
3909.20010	0.79532
3907.27153	0.79852
3905.34297	0.80140
3903.41440	0.80154
3901.48584	0.80035
3899.55728	0.79793
3897.62871	0.79401
3895.70015	0.79254
3893.77158	0.79412
3891.84302	0.79368
3889.91445	0.79033
3887.98589	0.78939
3886.05733	0.78969
3884.12876	0.78881
3882.20020	0.78882
3880.27163	0.78811
3878.34307	0.78591
3876.41450	0.78574
3874.48594	0.78758
3872.55737	0.79002
3870.62881	0.79127
3868.70025	0.78890
3866.77168	0.78660
3864.84312	0.78645
3862.91455	0.78489
3860.98599	0.78152
3859.05742	0.78050
3857.12886	0.78372
3855.20029	0.78937
3853.27173	0.79010
3851.34317	0.78489
3849.41460	0.78154
3847.48604	0.78041
3845.55747	0.78165
3843.62891	0.78450
3841.70034	0.78652
3839.77178	0.78628
3837.84321	0.78318
3835.91465	0.77971
3833.98609	0.77790
3832.05752	0.77616
3830.12896	0.77400
3828.20039	0.77287
3826.27183	0.77388
3824.34326	0.77700
3822.41470	0.77929
3820.48613	0.77564
3818.55757	0.77133
3816.62901	0.77010
3814.70044	0.76773
3812.77188	0.76500
3810.84331	0.76458
3808.91475	0.76635
3806.98618	0.76816
3805.05762	0.77028
3803.12905	0.77393
3801.20049	0.77392
3799.27193	0.77010
3797.34336	0.76724
3795.41480	0.76378
3793.48623	0.76058
3791.55767	0.75919
3789.62910	0.75928
3787.70054	0.75982
3785.77197	0.75951
3783.84341	0.75851
3781.91485	0.75840
3779.98628	0.75834
3778.05772	0.75696
3776.12915	0.75579
3774.20059	0.75602
3772.27202	0.75774
3770.34346	0.75902
3768.41489	0.75811
3766.48633	0.75712
3764.55777	0.75610
3762.62920	0.75529
3760.70064	0.75621
3758.77207	0.75799
3756.84351	0.75966
3754.91494	0.76299
3752.98638	0.76794
3751.05781	0.76906
3749.12925	0.76570
3747.20069	0.76462
3745.27212	0.76223
3743.34356	0.75753
3741.41499	0.75644
3739.48643	0.75888
3737.55786	0.76291
3735.62930	0.76473
3733.70074	0.76051
3731.77217	0.75370
3729.84361	0.74952
3727.91504	0.74932
3725.98648	0.75164
3724.05791	0.75369
3722.12935	0.75262
3720.20078	0.74868
3718.27222	0.74520
3716.34366	0.74442
3714.41509	0.74700
3712.48653	0.75160
3710.55796	0.75224
3708.62940	0.74821
3706.70083	0.74540
3704.77227	0.74515
3702.84370	0.74542
3700.91514	0.74455
3698.98658	0.74441
3697.05801	0.74563
3695.12945	0.74754
3693.20088	0.75159
3691.27232	0.75772
3689.34375	0.75941
3687.41519	0.75632
3685.48662	0.75543
3683.55806	0.75660
3681.62950	0.75897
3679.70093	0.76281
3677.77237	0.76827
3675.84380	0.77275
3673.91524	0.77385
3671.98667	0.77621
3670.05811	0.77858
3668.12954	0.77691
3666.20098	0.77530
3664.27242	0.77586
3662.34385	0.77819
3660.41529	0.78225
3658.48672	0.78765
3656.55816	0.79281
3654.62959	0.79669
3652.70103	0.80290
3650.77246	0.81510
3648.84390	0.82406
3646.91534	0.82012
3644.98677	0.81808
3643.05821	0.82159
3641.12964	0.82737
3639.20108	0.83261
3637.27251	0.83796
3635.34395	0.84478
3633.41538	0.85207
3631.48682	0.85863
3629.55826	0.86485
3627.62969	0.86859
3625.70113	0.87073
3623.77256	0.87465
3621.84400	0.88205
3619.91543	0.89249
3617.98687	0.89962
3616.05830	0.90261
3614.12974	0.90692
3612.20118	0.91306
3610.27261	0.91880
3608.34405	0.92365
3606.41548	0.92784
3604.48692	0.93194
3602.55835	0.93693
3600.62979	0.94328
3598.70123	0.94989
3596.77266	0.95583
3594.84410	0.96226
3592.91553	0.96875
3590.98697	0.97451
3589.05840	0.98193
3587.12984	0.99041
3585.20127	0.99621
3583.27271	1.00088
3581.34415	1.00617
3579.41558	1.01320
3577.48702	1.02166
3575.55845	1.02863
3573.62989	1.03384
3571.70132	1.04068
3569.77276	1.04999
3567.84419	1.06095
3565.91563	1.07035
3563.98707	1.07461
3562.05850	1.07676
3560.12994	1.08030
3558.20137	1.08625
3556.27281	1.09351
3554.34424	1.10162
3552.41568	1.10918
3550.48711	1.11558
3548.55855	1.12504
3546.62999	1.13756
3544.70142	1.14669
3542.77286	1.15078
3540.84429	1.15390
3538.91573	1.15911
3536.98716	1.16638
3535.05860	1.17320
3533.13003	1.17994
3531.20147	1.18872
3529.27291	1.19761
3527.34434	1.20645
3525.41578	1.21652
3523.48721	1.22329
3521.55865	1.22604
3519.63008	1.22990
3517.70152	1.23697
3515.77295	1.24573
3513.84439	1.25453
3511.91583	1.26261
3509.98726	1.27016
3508.05870	1.27834
3506.13013	1.28809
3504.20157	1.29878
3502.27300	1.30611
3500.34444	1.30978
3498.41587	1.31511
3496.48731	1.32433
3494.55875	1.33566
3492.63018	1.34343
3490.70162	1.34506
3488.77305	1.34570
3486.84449	1.34883
3484.91592	1.35096
3482.98736	1.35233
3481.05879	1.35765
3479.13023	1.36495
3477.20167	1.37063
3475.27310	1.37611
3473.34454	1.38290
3471.41597	1.38885
3469.48741	1.39226
3467.55884	1.39521
3465.63028	1.40028
3463.70171	1.40914
3461.77315	1.41862
3459.84459	1.42301
3457.91602	1.42284
3455.98746	1.42059
3454.05889	1.41870
3452.13033	1.42021
3450.20176	1.42430
3448.27320	1.42679
3446.34464	1.42545
3444.41607	1.42512
3442.48751	1.43240
3440.55894	1.44343
3438.63038	1.44839
3436.70181	1.44767
3434.77325	1.44649
3432.84468	1.44500
3430.91612	1.44221
3428.98756	1.43824
3427.05899	1.43571
3425.13043	1.43943
3423.20186	1.44783
3421.27330	1.45259
3419.34473	1.45205
3417.41617	1.45085
3415.48760	1.45014
3413.55904	1.45176
3411.63048	1.45714
3409.70191	1.46281
3407.77335	1.46581
3405.84478	1.46692
3403.91622	1.46673
3401.98765	1.46381
3400.05909	1.45954
3398.13052	1.45776
3396.20196	1.46007
3394.27340	1.46596
3392.34483	1.46974
3390.41627	1.46676
3388.48770	1.46389
3386.55914	1.46701
3384.63057	1.47100
3382.70201	1.47056
3380.77344	1.47000
3378.84488	1.47382
3376.91632	1.47748
3374.98775	1.47644
3373.05919	1.47320
3371.13062	1.47163
3369.20206	1.47409
3367.27349	1.47989
3365.34493	1.48366
3363.41636	1.48338
3361.48780	1.48335
3359.55924	1.48482
3357.63067	1.48611
3355.70211	1.48799
3353.77354	1.49269
3351.84498	1.50056
3349.91641	1.50711
3347.98785	1.50861
3346.05928	1.50836
3344.13072	1.51085
3342.20216	1.51530
3340.27359	1.51728
3338.34503	1.51570
3336.41646	1.51495
3334.48790	1.51681
3332.55933	1.52005
3330.63077	1.52547
3328.70220	1.53085
3326.77364	1.53374
3324.84508	1.53587
3322.91651	1.53726
3320.98795	1.53886
3319.05938	1.54302
3317.13082	1.54918
3315.20225	1.55647
3313.27369	1.56235
3311.34513	1.56310
3309.41656	1.56214
3307.48800	1.56566
3305.55943	1.57246
3303.63087	1.57875
3301.70230	1.58299
3299.77374	1.58426
3297.84517	1.58319
3295.91661	1.57930
3293.98805	1.57284
3292.05948	1.56825
3290.13092	1.56609
3288.20235	1.56226
3286.27379	1.56018
3284.34522	1.56266
3282.41666	1.56241
3280.48809	1.55974
3278.55953	1.55978
3276.63097	1.55870
3274.70240	1.55468
3272.77384	1.55017
3270.84527	1.54578
3268.91671	1.54002
3266.98814	1.53460
3265.05958	1.53338
3263.13101	1.53261
3261.20245	1.52753
3259.27389	1.51756
3257.34532	1.50443
3255.41676	1.49410
3253.48819	1.48904
3251.55963	1.48556
3249.63106	1.47960
3247.70250	1.47111
3245.77393	1.46590
3243.84537	1.46735
3241.91681	1.46902
3239.98824	1.46485
3238.05968	1.45731
3236.13111	1.45009
3234.20255	1.44345
3232.27398	1.43607
3230.34542	1.42941
3228.41685	1.42574
3226.48829	1.42228
3224.55973	1.41725
3222.63116	1.41268
3220.70260	1.40869
3218.77403	1.40439
3216.84547	1.40121
3214.91690	1.39975
3212.98834	1.39724
3211.05977	1.39176
3209.13121	1.38653
3207.20265	1.38570
3205.27408	1.38594
3203.34552	1.38341
3201.41695	1.38203
3199.48839	1.38153
3197.55982	1.37646
3195.63126	1.36975
3193.70269	1.36766
3191.77413	1.36841
3189.84557	1.36674
3187.91700	1.36158
3185.98844	1.35483
3184.05987	1.34893
3182.13131	1.34510
3180.20274	1.34188
3178.27418	1.33793
3176.34562	1.33416
3174.41705	1.33134
3172.48849	1.32827
3170.55992	1.32368
3168.63136	1.31732
3166.70279	1.31100
3164.77423	1.30764
3162.84566	1.30635
3160.91710	1.30343
3158.98854	1.29848
3157.05997	1.29428
3155.13141	1.29164
3153.20284	1.28985
3151.27428	1.28978
3149.34571	1.29084
3147.41715	1.29004
3145.48858	1.28669
3143.56002	1.28269
3141.63146	1.27950
3139.70289	1.27843
3137.77433	1.27932
3135.84576	1.27977
3133.91720	1.27895
3131.98863	1.27758
3130.06007	1.27657
3128.13150	1.27706
3126.20294	1.27746
3124.27438	1.27576
3122.34581	1.27342
3120.41725	1.27209
3118.48868	1.27145
3116.56012	1.27147
3114.63155	1.27203
3112.70299	1.27097
3110.77442	1.26748
3108.84586	1.26450
3106.91730	1.26338
3104.98873	1.26301
3103.06017	1.26362
3101.13160	1.26449
3099.20304	1.26382
3097.27447	1.26226
3095.34591	1.26076
3093.41734	1.26027
3091.48878	1.26069
3089.56022	1.25964
3087.63165	1.25739
3085.70309	1.25572
3083.77452	1.25386
3081.84596	1.25115
3079.91739	1.24949
3077.98883	1.25005
3076.06026	1.24982
3074.13170	1.24737
3072.20314	1.24533
3070.27457	1.24341
3068.34601	1.23941
3066.41744	1.23479
3064.48888	1.23152
3062.56031	1.22794
3060.63175	1.22316
3058.70318	1.21920
3056.77462	1.21698
3054.84606	1.21564
3052.91749	1.21342
3050.98893	1.20888
3049.06036	1.20383
3047.13180	1.20035
3045.20323	1.19721
3043.27467	1.19317
3041.34610	1.18858
3039.41754	1.18484
3037.48898	1.18278
3035.56041	1.18100
3033.63185	1.17845
3031.70328	1.17590
3029.77472	1.17383
3027.84615	1.17179
3025.91759	1.16882
3023.98903	1.16529
3022.06046	1.16316
3020.13190	1.16243
3018.20333	1.16090
3016.27477	1.15864
3014.34620	1.15754
3012.41764	1.15639
3010.48907	1.15311
3008.56051	1.14928
3006.63195	1.14640
3004.70338	1.14281
3002.77482	1.13827
3000.84625	1.13549
2998.91769	1.13536
2996.98912	1.13575
2995.06056	1.13543
2993.13199	1.13598
2991.20343	1.13902
2989.27487	1.14426
2987.34630	1.15072
2985.41774	1.15735
2983.48917	1.16343
2981.56061	1.16982
2979.63204	1.17730
2977.70348	1.18425
2975.77491	1.18976
2973.84635	1.19652
2971.91779	1.20547
2969.98922	1.21354
2968.06066	1.21936
2966.13209	1.22459
2964.20353	1.22958
2962.27496	1.23312
2960.34640	1.23483
2958.41783	1.23494
2956.48927	1.23329
2954.56071	1.22906
2952.63214	1.22260
2950.70358	1.21701
2948.77501	1.21455
2946.84645	1.21448
2944.91788	1.21708
2942.98932	1.22359
2941.06075	1.23232
2939.13219	1.24155
2937.20363	1.25193
2935.27506	1.26244
2933.34650	1.27133
2931.41793	1.27979
2929.48937	1.28857
2927.56080	1.29628
2925.63224	1.30294
2923.70367	1.30897
2921.77511	1.31398
2919.84655	1.31777
2917.91798	1.31760
2915.98942	1.30854
2914.06085	1.28970
2912.13229	1.26643
2910.20372	1.24608
2908.27516	1.23208
2906.34659	1.22235
2904.41803	1.21472
2902.48947	1.20895
2900.56090	1.20394
2898.63234	1.19845
2896.70377	1.19242
2894.77521	1.18693
2892.84664	1.18296
2890.91808	1.17944
2888.98952	1.17526
2887.06095	1.17152
2885.13239	1.16923
2883.20382	1.16786
2881.27526	1.16652
2879.34669	1.16527
2877.41813	1.16464
2875.48956	1.16325
2873.56100	1.15973
2871.63244	1.15562
2869.70387	1.15198
2867.77531	1.14777
2865.84674	1.14272
2863.91818	1.13869
2861.98961	1.13779
2860.06105	1.14002
2858.13248	1.14477
2856.20392	1.15184
2854.27536	1.15995
2852.34679	1.16726
2850.41823	1.17012
2848.48966	1.16170
2846.56110	1.14103
2844.63253	1.11705
2842.70397	1.09753
2840.77540	1.08372
2838.84684	1.07392
2836.91828	1.06627
2834.98971	1.05930
2833.06115	1.05270
2831.13258	1.04705
2829.20402	1.04232
2827.27545	1.03838
2825.34689	1.03570
2823.41832	1.03421
2821.48976	1.03258
2819.56120	1.02975
2817.63263	1.02661
2815.70407	1.02414
2813.77550	1.02189
2811.84694	1.01948
2809.91837	1.01755
2807.98981	1.01602
2806.06124	1.01351
2804.13268	1.01009
2802.20412	1.00706
2800.27555	1.00455
2798.34699	1.00189
2796.41842	0.99870
2794.48986	0.99523
2792.56129	0.99204
2790.63273	0.98923
2788.70416	0.98638
2786.77560	0.98344
2784.84704	0.98089
2782.91847	0.97835
2780.98991	0.97515
2779.06134	0.97184
2777.13278	0.96919
2775.20421	0.96668
2773.27565	0.96354
2771.34708	0.96032
2769.41852	0.95800
2767.48996	0.95635
2765.56139	0.95459
2763.63283	0.95236
2761.70426	0.94982
2759.77570	0.94748
2757.84713	0.94565
2755.91857	0.94411
2753.99001	0.94245
2752.06144	0.94072
2750.13288	0.93956
2748.20431	0.93923
2746.27575	0.93907
2744.34718	0.93831
2742.41862	0.93699
2740.49005	0.93547
2738.56149	0.93413
2736.63293	0.93317
2734.70436	0.93205
2732.77580	0.93074
2730.84723	0.93016
2728.91867	0.93005
2726.99010	0.92948
2725.06154	0.92860
2723.13297	0.92770
2721.20441	0.92644
2719.27585	0.92506
2717.34728	0.92371
2715.41872	0.92174
2713.49015	0.91932
2711.56159	0.91731
2709.63302	0.91573
2707.70446	0.91418
2705.77589	0.91238
2703.84733	0.91045
2701.91877	0.90896
2699.99020	0.90804
2698.06164	0.90695
2696.13307	0.90540
2694.20451	0.90387
2692.27594	0.90281
2690.34738	0.90208
2688.41881	0.90113
2686.49025	0.89992
2684.56169	0.89843
2682.63312	0.89682
2680.70456	0.89552
2678.77599	0.89419
2676.84743	0.89249
2674.91886	0.89081
2672.99030	0.88906
2671.06173	0.88681
2669.13317	0.88423
2667.20461	0.88169
2665.27604	0.87930
2663.34748	0.87661
2661.41891	0.87336
2659.49035	0.87030
2657.56178	0.86821
2655.63322	0.86663
2653.70465	0.86456
2651.77609	0.86221
2649.84753	0.86067
2647.91896	0.85967
2645.99040	0.85863
2644.06183	0.85762
2642.13327	0.85634
2640.20470	0.85513
2638.27614	0.85492
2636.34757	0.85540
2634.41901	0.85533
2632.49045	0.85445
2630.56188	0.85396
2628.63332	0.85439
2626.70475	0.85480
2624.77619	0.85456
2622.84762	0.85388
2620.91906	0.85298
2618.99049	0.85168
2617.06193	0.84963
2615.13337	0.84707
2613.20480	0.84479
2611.27624	0.84255
2609.34767	0.83934
2607.41911	0.83547
2605.49054	0.83251
2603.56198	0.83074
2601.63342	0.82863
2599.70485	0.82558
2597.77629	0.82258
2595.84772	0.82048
2593.91916	0.81916
2591.99059	0.81789
2590.06203	0.81622
2588.13346	0.81471
2586.20490	0.81396
2584.27634	0.81346
2582.34777	0.81254
2580.41921	0.81158
2578.49064	0.81105
2576.56208	0.81089
2574.63351	0.81087
2572.70495	0.81037
2570.77638	0.80930
2568.84782	0.80822
2566.91926	0.80710
2564.99069	0.80577
2563.06213	0.80430
2561.13356	0.80263
2559.20500	0.80087
2557.27643	0.79902
2555.34787	0.79704
2553.41930	0.79528
2551.49074	0.79386
2549.56218	0.79241
2547.63361	0.79070
2545.70505	0.78898
2543.77648	0.78768
2541.84792	0.78690
2539.91935	0.78633
2537.99079	0.78574
2536.06222	0.78537
2534.13366	0.78524
2532.20510	0.78501
2530.27653	0.78469
2528.34797	0.78454
2526.41940	0.78438
2524.49084	0.78398
2522.56227	0.78335
2520.63371	0.78268
2518.70514	0.78194
2516.77658	0.78057
2514.84802	0.77851
2512.91945	0.77629
2510.99089	0.77387
2509.06232	0.77091
2507.13376	0.76768
2505.20519	0.76470
2503.27663	0.76206
2501.34806	0.75941
2499.41950	0.75655
2497.49094	0.75389
2495.56237	0.75182
2493.63381	0.75013
2491.70524	0.74845
2489.77668	0.74668
2487.84811	0.74488
2485.91955	0.74322
2483.99098	0.74206
2482.06242	0.74150
2480.13386	0.74119
2478.20529	0.74094
2476.27673	0.74072
2474.34816	0.74048
2472.41960	0.74005
2470.49103	0.73920
2468.56247	0.73815
2466.63391	0.73712
2464.70534	0.73607
2462.77678	0.73517
2460.84821	0.73445
2458.91965	0.73347
2456.99108	0.73219
2455.06252	0.73083
2453.13395	0.72924
2451.20539	0.72745
2449.27683	0.72573
2447.34826	0.72423
2445.41970	0.72306
2443.49113	0.72189
2441.56257	0.72035
2439.63400	0.71883
2437.70544	0.71763
2435.77687	0.71658
2433.84831	0.71569
2431.91975	0.71495
2429.99118	0.71411
2428.06262	0.71327
2426.13405	0.71263
2424.20549	0.71192
2422.27692	0.71095
2420.34836	0.70989
2418.41979	0.70870
2416.49123	0.70709
2414.56267	0.70508
2412.63410	0.70306
2410.70554	0.70133
2408.77697	0.69948
2406.84841	0.69711
2404.91984	0.69469
2402.99128	0.69240
2401.06271	0.69001
2399.13415	0.68761
2397.20559	0.68515
2395.27702	0.68278
2393.34846	0.68076
2391.41989	0.67886
2389.49133	0.67717
2387.56276	0.67625
2385.63420	0.67590
2383.70563	0.67566
2381.77707	0.67561
2379.84851	0.67574
2377.91994	0.67580
2375.99138	0.67600
2374.06281	0.67650
2372.13425	0.67696
2370.20568	0.67749
2368.27712	0.67835
2366.34855	0.67877
2364.41999	0.67775
2362.49143	0.67640
2360.56286	0.67671
2358.63430	0.67679
2356.70573	0.67426
2354.77717	0.67125
2352.84860	0.66943
2350.92004	0.66817
2348.99147	0.66723
2347.06291	0.66670
2345.13435	0.66592
2343.20578	0.66407
2341.27722	0.66264
2339.34865	0.66240
2337.42009	0.66178
2335.49152	0.66093
2333.56296	0.66060
2331.63440	0.66002
2329.70583	0.65906
2327.77727	0.65843
2325.84870	0.65832
2323.92014	0.65799
2321.99157	0.65671
2320.06301	0.65510
2318.13444	0.65376
2316.20588	0.65283
2314.27732	0.65242
2312.34875	0.65213
2310.42019	0.65135
2308.49162	0.64998
2306.56306	0.64862
2304.63449	0.64766
2302.70593	0.64685
2300.77736	0.64586
2298.84880	0.64464
2296.92024	0.64316
2294.99167	0.64165
2293.06311	0.64048
2291.13454	0.63966
2289.20598	0.63915
2287.27741	0.63887
2285.34885	0.63854
2283.42028	0.63793
2281.49172	0.63741
2279.56316	0.63740
2277.63459	0.63756
2275.70603	0.63744
2273.77746	0.63704
2271.84890	0.63665
2269.92033	0.63651
2267.99177	0.63654
2266.06320	0.63651
2264.13464	0.63631
2262.20608	0.63604
2260.27751	0.63566
2258.34895	0.63481
2256.42038	0.63349
2254.49182	0.63235
2252.56325	0.63153
2250.63469	0.63060
2248.70612	0.62942
2246.77756	0.62812
2244.84900	0.62672
2242.92043	0.62551
2240.99187	0.62475
2239.06330	0.62415
2237.13474	0.62337
2235.20617	0.62268
2233.27761	0.62238
2231.34904	0.62237
2229.42048	0.62244
2227.49192	0.62255
2225.56335	0.62280
2223.63479	0.62320
2221.70622	0.62355
2219.77766	0.62382
2217.84909	0.62422
2215.92053	0.62474
2213.99196	0.62512
2212.06340	0.62533
2210.13484	0.62545
2208.20627	0.62578
2206.27771	0.62636
2204.34914	0.62683
2202.42058	0.62699
2200.49201	0.62686
2198.56345	0.62657
2196.63488	0.62625
2194.70632	0.62600
2192.77776	0.62580
2190.84919	0.62547
2188.92063	0.62506
2186.99206	0.62476
2185.06350	0.62468
2183.13493	0.62479
2181.20637	0.62487
2179.27781	0.62469
2177.34924	0.62442
2175.42068	0.62439
2173.49211	0.62454
2171.56355	0.62458
2169.63498	0.62442
2167.70642	0.62417
2165.77785	0.62394
2163.84929	0.62366
2161.92073	0.62322
2159.99216	0.62263
2158.06360	0.62202
2156.13503	0.62137
2154.20647	0.62072
2152.27790	0.62010
2150.34934	0.61935
2148.42077	0.61852
2146.49221	0.61770
2144.56365	0.61665
2142.63508	0.61547
2140.70652	0.61477
2138.77795	0.61454
2136.84939	0.61442
2134.92082	0.61443
2132.99226	0.61454
2131.06369	0.61454
2129.13513	0.61452
2127.20657	0.61457
2125.27800	0.61455
2123.34944	0.61443
2121.42087	0.61443
2119.49231	0.61471
2117.56374	0.61498
2115.63518	0.61494
2113.70661	0.61457
2111.77805	0.61393
2109.84949	0.61319
2107.92092	0.61252
2105.99236	0.61187
2104.06379	0.61113
2102.13523	0.61023
2100.20666	0.60918
2098.27810	0.60817
2096.34953	0.60723
2094.42097	0.60617
2092.49241	0.60495
2090.56384	0.60367
2088.63528	0.60254
2086.70671	0.60160
2084.77815	0.60074
2082.84958	0.59996
2080.92102	0.59927
2078.99245	0.59857
2077.06389	0.59781
2075.13533	0.59712
2073.20676	0.59668
2071.27820	0.59638
2069.34963	0.59591
2067.42107	0.59548
2065.49250	0.59524
2063.56394	0.59474
2061.63537	0.59389
2059.70681	0.59299
2057.77825	0.59214
2055.84968	0.59141
2053.92112	0.59078
2051.99255	0.59002
2050.06399	0.58910
2048.13542	0.58822
2046.20686	0.58753
2044.27830	0.58708
2042.34973	0.58671
2040.42117	0.58612
2038.49260	0.58540
2036.56404	0.58480
2034.63547	0.58441
2032.70691	0.58436
2030.77834	0.58447
2028.84978	0.58438
2026.92122	0.58413
2024.99265	0.58384
2023.06409	0.58353
2021.13552	0.58339
2019.20696	0.58359
2017.27839	0.58352
2015.34983	0.58263
2013.42126	0.58152
2011.49270	0.58070
2009.56414	0.58003
2007.63557	0.57928
2005.70701	0.57828
2003.77844	0.57719
2001.84988	0.57627
1999.92131	0.57531
1997.99275	0.57420
1996.06418	0.57355
1994.13562	0.57368
1992.20706	0.57356
1990.27849	0.57226
1988.34993	0.57054
1986.42136	0.56918
1984.49280	0.56823
1982.56423	0.56754
1980.63567	0.56690
1978.70710	0.56633
1976.77854	0.56598
1974.84998	0.56573
1972.92141	0.56534
1970.99285	0.56515
1969.06428	0.56556
1967.13572	0.56568
1965.20715	0.56474
1963.27859	0.56367
1961.35002	0.56305
1959.42146	0.56257
1957.49290	0.56222
1955.56433	0.56195
1953.63577	0.56137
1951.70720	0.56078
1949.77864	0.56072
1947.85007	0.56120
1945.92151	0.56196
1943.99294	0.56264
1942.06438	0.56249
1940.13582	0.56128
1938.20725	0.56010
1936.27869	0.55947
1934.35012	0.55917
1932.42156	0.55893
1930.49299	0.55865
1928.56443	0.55839
1926.63586	0.55842
1924.70730	0.55891
1922.77874	0.55891
1920.85017	0.55791
1918.92161	0.55672
1916.99304	0.55505
1915.06448	0.55320
1913.13591	0.55243
1911.20735	0.55244
1909.27878	0.55186
1907.35022	0.55037
1905.42166	0.54904
1903.49309	0.54822
1901.56453	0.54746
1899.63596	0.54695
1897.70740	0.54728
1895.77883	0.54799
1893.85027	0.54811
1891.92171	0.54834
1889.99314	0.54916
1888.06458	0.54934
1886.13601	0.54890
1884.20745	0.54864
1882.27888	0.54857
1880.35032	0.54868
1878.42175	0.54892
1876.49319	0.54912
1874.56463	0.54935
1872.63606	0.55034
1870.70750	0.55273
1868.77893	0.55465
1866.85037	0.55304
1864.92180	0.55015
1862.99324	0.54851
1861.06467	0.54792
1859.13611	0.54760
1857.20755	0.54725
1855.27898	0.54707
1853.35042	0.54725
1851.42185	0.54791
1849.49329	0.54937
1847.56472	0.55177
1845.63616	0.55449
1843.70759	0.55511
1841.77903	0.55325
1839.85047	0.55217
1837.92190	0.55267
1835.99334	0.55341
1834.06477	0.55416
1832.13621	0.55605
1830.20764	0.55794
1828.27908	0.55727
1826.35051	0.55554
1824.42195	0.55373
1822.49339	0.55122
1820.56482	0.54903
1818.63626	0.54769
1816.70769	0.54652
1814.77913	0.54570
1812.85056	0.54578
1810.92200	0.54552
1808.99343	0.54373
1807.06487	0.54188
1805.13631	0.54158
1803.20774	0.54301
1801.27918	0.54515
1799.35061	0.54671
1797.42205	0.54824
1795.49348	0.55080
1793.56492	0.55435
1791.63635	0.55661
1789.70779	0.55612
1787.77923	0.55626
1785.85066	0.55843
1783.92210	0.56142
1781.99353	0.56429
1780.06497	0.56637
1778.13640	0.56751
1776.20784	0.56934
1774.27927	0.57295
1772.35071	0.57609
1770.42215	0.57498
1768.49358	0.57188
1766.56502	0.56965
1764.63645	0.56940
1762.70789	0.57064
1760.77932	0.57167
1758.85076	0.57261
1756.92220	0.57433
1754.99363	0.57662
1753.06507	0.58092
1751.13650	0.58904
1749.20794	0.59789
1747.27937	0.60324
1745.35081	0.60725
1743.42224	0.61192
1741.49368	0.61729
1739.56512	0.62273
1737.63655	0.62754
1735.70799	0.63373
1733.77942	0.64236
1731.85086	0.64631
1729.92229	0.64687
1727.99373	0.64846
1726.06516	0.65235
1724.13660	0.65891
1722.20804	0.66638
1720.27947	0.67517
1718.35091	0.68996
1716.42234	0.70798
1714.49378	0.71750
1712.56521	0.72454
1710.63665	0.73509
1708.70808	0.75013
1706.77952	0.77223
1704.85096	0.79929
1702.92239	0.82417
1700.99383	0.86050
1699.06526	0.91576
1697.13670	0.96422
1695.20813	1.00877
1693.27957	1.04446
1691.35100	1.07697
1689.42244	1.11771
1687.49388	1.15713
1685.56531	1.19790
1683.63675	1.25260
1681.70818	1.28947
1679.77962	1.31242
1677.85105	1.33564
1675.92249	1.36234
1673.99392	1.39010
1672.06536	1.41394
1670.13680	1.43854
1668.20823	1.46040
1666.27967	1.47354
1664.35110	1.48754
1662.42254	1.50294
1660.49397	1.51203
1658.56541	1.51826
1656.63684	1.52478
1654.70828	1.53335
1652.77972	1.53889
1650.85115	1.53801
1648.92259	1.54005
1646.99402	1.53899
1645.06546	1.52825
1643.13689	1.51902
1641.20833	1.51602
1639.27976	1.51628
1637.35120	1.51608
1635.42264	1.51034
1633.49407	1.50268
1631.56551	1.49858
1629.63694	1.49480
1627.70838	1.49009
1625.77981	1.48369
1623.85125	1.47297
1621.92269	1.45865
1619.99412	1.44599
1618.06556	1.42950
1616.13699	1.40041
1614.20843	1.37329
1612.27986	1.35201
1610.35130	1.32977
1608.42273	1.30592
1606.49417	1.28358
1604.56561	1.26409
1602.63704	1.24615
1600.70848	1.23022
1598.77991	1.21779
1596.85135	1.20860
1594.92278	1.20077
1592.99422	1.19406
1591.06565	1.19004
1589.13709	1.18934
1587.20853	1.19198
1585.27996	1.19730
1583.35140	1.20466
1581.42283	1.21416
1579.49427	1.22625
1577.56570	1.24320
1575.63714	1.26362
1573.70857	1.27619
1571.78001	1.28528
1569.85145	1.29807
1567.92288	1.31034
1565.99432	1.32024
1564.06575	1.33119
1562.13719	1.34193
1560.20862	1.35721
1558.28006	1.37859
1556.35149	1.38184
1554.42293	1.37950
1552.49437	1.37835
1550.56580	1.37792
1548.63724	1.37708
1546.70867	1.37779
1544.78011	1.38155
1542.85154	1.38736
1540.92298	1.38590
1538.99441	1.36673
1537.06585	1.35459
1535.13729	1.34949
1533.20872	1.34279
1531.28016	1.33428
1529.35159	1.32935
1527.42303	1.32719
1525.49446	1.32577
1523.56590	1.32610
1521.63733	1.32554
1519.70877	1.32218
1517.78021	1.31721
1515.85164	1.30644
1513.92308	1.29214
1511.99451	1.28011
1510.06595	1.27234
1508.13738	1.25809
1506.20882	1.21716
1504.28025	1.18886
1502.35169	1.17395
1500.42313	1.15941
1498.49456	1.14020
1496.56600	1.11328
1494.63743	1.08954
1492.70887	1.07499
1490.78030	1.06150
1488.85174	1.04063
1486.92317	1.01896
1484.99461	1.00452
1483.06605	0.99691
1481.13748	0.99407
1479.20892	0.99535
1477.28035	1.00188
1475.35179	1.01460
1473.42322	1.03287
1471.49466	1.04834
1469.56610	1.05629
1467.63753	1.06391
1465.70897	1.07452
1463.78040	1.08421
1461.85184	1.09059
1459.92327	1.09820
1457.99471	1.10936
1456.06614	1.11321
1454.13758	1.10858
1452.20902	1.10408
1450.28045	1.10019
1448.35189	1.09482
1446.42332	1.08681
1444.49476	1.07870
1442.56619	1.07127
1440.63763	1.06471
1438.70906	1.05893
1436.78050	1.05069
1434.85194	1.04069
1432.92337	1.03366
1430.99481	1.02848
1429.06624	1.02394
1427.13768	1.02173
1425.20911	1.02325
1423.28055	1.02764
1421.35198	1.03362
1419.42342	1.04186
1417.49486	1.04894
1415.56629	1.05210
1413.63773	1.05482
1411.70916	1.05813
1409.78060	1.06114
1407.85203	1.06376
1405.92347	1.06639
1403.99490	1.06778
1402.06634	1.06811
1400.13778	1.06871
1398.20921	1.06868
1396.28065	1.06641
1394.35208	1.06103
1392.42352	1.05610
1390.49495	1.05529
1388.56639	1.05825
1386.63782	1.06286
1384.70926	1.06769
1382.78070	1.07320
1380.85213	1.07808
1378.92357	1.08019
1376.99500	1.07911
1375.06644	1.07319
1373.13787	1.06164
1371.20931	1.04957
1369.28074	1.03806
1367.35218	1.02574
1365.42362	1.01508
1363.49505	1.00611
1361.56649	0.99681
1359.63792	0.98884
1357.70936	0.98353
1355.78079	0.97975
1353.85223	0.97622
1351.92366	0.97256
1349.99510	0.96835
1348.06654	0.96302
1346.13797	0.95710
1344.20941	0.95205
1342.28084	0.94933
1340.35228	0.94833
1338.42371	0.94622
1336.49515	0.94329
1334.56659	0.94247
1332.63802	0.94472
1330.70946	0.94912
1328.78089	0.95379
1326.85233	0.95749
1324.92376	0.96035
1322.99520	0.96342
1321.06663	0.96760
1319.13807	0.97231
1317.20951	0.97638
1315.28094	0.98005
1313.35238	0.98374
1311.42381	0.98686
1309.49525	0.98926
1307.56668	0.99108
1305.63812	0.99217
1303.70955	0.99268
1301.78099	0.99250
1299.85243	0.99098
1297.92386	0.98776
1295.99530	0.98328
1294.06673	0.97878
1292.13817	0.97538
1290.20960	0.97310
1288.28104	0.97088
1286.35247	0.96817
1284.42391	0.96556
1282.49535	0.96379
1280.56678	0.96311
1278.63822	0.96331
1276.70965	0.96451
1274.78109	0.96734
1272.85252	0.97186
1270.92396	0.97716
1268.99539	0.98204
1267.06683	0.98601
1265.13827	0.98943
1263.20970	0.99227
1261.28114	0.99379
1259.35257	0.99363
1257.42401	0.99248
1255.49544	0.99117
1253.56688	0.98951
1251.63831	0.98712
1249.70975	0.98422
1247.78119	0.98139
1245.85262	0.97896
1243.92406	0.97657
1241.99549	0.97379
1240.06693	0.97060
1238.13836	0.96736
1236.20980	0.96427
1234.28123	0.96101
1232.35267	0.95727
1230.42411	0.95288
1228.49554	0.94799
1226.56698	0.94307
1224.63841	0.93833
1222.70985	0.93394
1220.78128	0.93000
1218.85272	0.92618
1216.92415	0.92268
1214.99559	0.92049
1213.06703	0.91999
1211.13846	0.92073
1209.20990	0.92164
1207.28133	0.92103
1205.35277	0.91777
1203.42420	0.91214
1201.49564	0.90498
1199.56708	0.89670
1197.63851	0.88747
1195.70995	0.87754
1193.78138	0.86748
1191.85282	0.85825
1189.92425	0.85062
1187.99569	0.84520
1186.06712	0.84252
1184.13856	0.84249
1182.21000	0.84528
1180.28143	0.85154
1178.35287	0.86139
1176.42430	0.87417
1174.49574	0.88882
1172.56717	0.90443
1170.63861	0.92061
1168.71004	0.93727
1166.78148	0.95467
1164.85292	0.97273
1162.92435	0.98938
1160.99579	1.00163
1159.06722	1.00757
1157.13866	1.00716
1155.21009	1.00134
1153.28153	0.99135
1151.35296	0.97910
1149.42440	0.96609
1147.49584	0.95311
1145.56727	0.94116
1143.63871	0.93153
1141.71014	0.92542
1139.78158	0.92347
1137.85301	0.92546
1135.92445	0.93095
1133.99588	0.93987
1132.06732	0.95194
1130.13876	0.96688
1128.21019	0.98420
1126.28163	1.00198
1124.35306	1.01845
1122.42450	1.03367
1120.49593	1.04712
1118.56737	1.05696
1116.63880	1.06214
1114.71024	1.06266
1112.78168	1.05947
1110.85311	1.05463
1108.92455	1.04942
1106.99598	1.04374
1105.06742	1.03759
1103.13885	1.03128
1101.21029	1.02515
1099.28172	1.01977
1097.35316	1.01611
1095.42460	1.01540
1093.49603	1.01822
1091.56747	1.02454
1089.63890	1.03476
1087.71034	1.04946
1085.78177	1.06742
1083.85321	1.08531
1081.92464	1.09964
1079.99608	1.10804
1078.06752	1.10958
1076.13895	1.10512
1074.21039	1.09634
1072.28182	1.08580
1070.35326	1.07643
1068.42469	1.06876
1066.49613	1.06212
1064.56756	1.05757
1062.63900	1.05603
1060.71044	1.05639
1058.78187	1.05745
1056.85331	1.05879
1054.92474	1.06060
1052.99618	1.06343
1051.06761	1.06666
1049.13905	1.06925
1047.21049	1.07178
1045.28192	1.07551
1043.35336	1.08023
1041.42479	1.08425
1039.49623	1.08644
1037.56766	1.08678
1035.63910	1.08517
1033.71053	1.08177
1031.78197	1.07683
1029.85341	1.06963
1027.92484	1.05976
1025.99628	1.04822
1024.06771	1.03640
1022.13915	1.02523
1020.21058	1.01528
1018.28202	1.00712
1016.35345	1.00007
1014.42489	0.99197
1012.49633	0.98230
1010.56776	0.97237
1008.63920	0.96249
1006.71063	0.95257
1004.78207	0.94310
1002.85350	0.93430
1000.92494	0.92631
998.99637	0.91942
997.06781	0.91319
995.13925	0.90617
993.21068	0.89682
991.28212	0.88414
989.35355	0.86771
987.42499	0.84792
985.49642	0.82606
983.56786	0.80353
981.63929	0.78149
979.71073	0.76122
977.78217	0.74319
975.85360	0.72709
973.92504	0.71270
971.99647	0.69993
970.06791	0.68877
968.13934	0.67977
966.21078	0.67415
964.28221	0.67334
962.35365	0.67840
960.42509	0.68979
958.49652	0.70642
956.56796	0.72466
954.63939	0.73999
952.71083	0.75044
950.78226	0.75713
948.85370	0.76182
946.92513	0.76546
944.99657	0.76823
943.06801	0.76985
941.13944	0.76946
939.21088	0.76629
937.28231	0.76053
935.35375	0.75297
933.42518	0.74430
931.49662	0.73497
929.56805	0.72537
927.63949	0.71659
925.71093	0.71002
923.78236	0.70570
921.85380	0.70286
919.92523	0.70108
917.99667	0.70038
916.06810	0.70132
914.13954	0.70460
912.21098	0.71007
910.28241	0.71756
908.35385	0.72767
906.42528	0.74078
904.49672	0.75569
902.56815	0.77042
900.63959	0.78382
898.71102	0.79520
896.78246	0.80354
894.85390	0.80819
892.92533	0.80867
890.99677	0.80483
889.06820	0.79730
887.13964	0.78717
885.21107	0.77555
883.28251	0.76338
881.35394	0.75105
879.42538	0.73868
877.49682	0.72714
875.56825	0.71748
873.63969	0.71000
871.71112	0.70476
869.78256	0.70191
867.85399	0.70130
865.92543	0.70290
863.99686	0.70721
862.06830	0.71452
860.13974	0.72444
858.21117	0.73663
856.28261	0.75068
854.35404	0.76580
852.42548	0.78153
850.49691	0.79753
848.56835	0.81265
846.63978	0.82543
844.71122	0.83548
842.78266	0.84286
840.85409	0.84678
838.92553	0.84664
836.99696	0.84254
835.06840	0.83519
833.13983	0.82612
831.21127	0.81634
829.28270	0.80601
827.35414	0.79589
825.42558	0.78694
823.49701	0.77914
821.56845	0.77227
819.63988	0.76726
817.71132	0.76472
815.78275	0.76430
813.85419	0.76632
811.92562	0.77104
809.99706	0.77735
808.06850	0.78495
806.13993	0.79478
804.21137	0.80681
802.28280	0.82016
800.35424	0.83474
798.42567	0.85081
796.49711	0.86713
794.56854	0.88230
792.63998	0.89648
790.71142	0.90896
788.78285	0.91821
786.85429	0.92391
784.92572	0.92675
782.99716	0.92778
781.06859	0.92735
779.14003	0.92462
777.21147	0.91921
775.28290	0.91257
773.35434	0.90637
771.42577	0.90088
769.49721	0.89564
767.56864	0.89039
765.64008	0.88550
763.71151	0.88205
761.78295	0.88092
759.85439	0.88207
757.92582	0.88549
755.99726	0.89149
754.06869	0.89983
752.14013	0.90993
750.21156	0.92115
748.28300	0.93206
746.35443	0.94152
744.42587	0.95004
742.49731	0.95802
740.56874	0.96449
738.64018	0.96851
736.71161	0.97026
734.78305	0.96998
732.85448	0.96839
730.92592	0.96749
728.99735	0.96756
727.06879	0.96683
725.14023	0.96488
723.21166	0.96342
721.28310	0.96286
719.35453	0.96142
717.42597	0.95924
715.49740	0.95788
713.56884	0.95773
711.64027	0.95880
709.71171	0.96071
707.78315	0.96298
705.85458	0.96559
703.92602	0.96880
701.99745	0.97287
700.06889	0.97742
698.14032	0.98257
696.21176	0.98943
694.28319	0.99799
692.35463	1.00739
690.42607	1.01736
688.49750	1.02696
686.56894	1.03522
684.64037	1.04279
682.71181	1.05117
680.78324	1.06055
678.85468	1.06775
676.92611	1.07030
674.99755	1.07041
673.06899	1.07063
671.14042	1.07174
669.21186	1.07354
667.28329	1.07181
665.35473	1.06582
663.42616	1.05972
661.49760	1.05517
659.56903	1.05197
657.64047	1.04902
655.71191	1.04745
653.78334	1.04771
651.85478	1.04802
649.92621	1.04825
647.99765	1.04958
646.06908	1.05003
644.14052	1.04941
642.21195	1.05219
640.28339	1.05773
638.35483	1.06099
636.42626	1.06295
634.49770	1.06651
632.56913	1.06962
630.64057	1.07138
628.71200	1.07434
626.78344	1.08028
624.85488	1.08862
622.92631	1.09623
620.99775	1.10132
619.06918	1.10532
617.14062	1.10960
615.21205	1.11314
613.28349	1.11377
611.35492	1.11269
609.42636	1.11121
607.49780	1.10645
605.56923	1.09748
603.64067	1.08711
601.71210	1.07748
599.78354	1.06874
