3997.91406	0.69565
3995.98550	0.69681
3994.05693	0.69780
3992.12837	0.69742
3990.19980	0.69606
3988.27124	0.69575
3986.34268	0.69766
3984.41411	0.69903
3982.48555	0.69751
3980.55698	0.69567
3978.62842	0.69616
3976.69985	0.69764
3974.77129	0.69773
3972.84272	0.69640
3970.91416	0.69505
3968.98560	0.69449
3967.05703	0.69507
3965.12847	0.69598
3963.19990	0.69589
3961.27134	0.69467
3959.34277	0.69387
3957.41421	0.69415
3955.48564	0.69479
3953.55708	0.69558
3951.62852	0.69597
3949.69995	0.69538
3947.77139	0.69484
3945.84282	0.69479
3943.91426	0.69330
3941.98569	0.68998
3940.05713	0.68760
3938.12856	0.68715
3936.20000	0.68854
3934.27144	0.69103
3932.34287	0.69179
3930.41431	0.69003
3928.48574	0.68889
3926.55718	0.68909
3924.62861	0.68775
3922.70005	0.68551
3920.77148	0.68595
3918.84292	0.68691
3916.91436	0.68430
3914.98579	0.68021
3913.05723	0.67783
3911.12866	0.67719
3909.20010	0.67898
3907.27153	0.68424
3905.34297	0.69093
3903.41440	0.69384
3901.48584	0.69143
3899.55728	0.68624
3897.62871	0.68178
3895.70015	0.68190
3893.77158	0.68541
3891.84302	0.68664
3889.91445	0.68534
3887.98589	0.68603
3886.05733	0.68640
3884.12876	0.68511
3882.20020	0.68396
3880.27163	0.68065
3878.34307	0.67822
3876.41450	0.68014
3874.48594	0.68404
3872.55737	0.68776
3870.62881	0.68795
3868.70025	0.68405
3866.77168	0.68359
3864.84312	0.68499
3862.91455	0.68149
3860.98599	0.67763
3859.05742	0.67925
3857.12886	0.68573
3855.20029	0.69364
3853.27173	0.69275
3851.34317	0.68310
3849.41460	0.67721
3847.48604	0.67539
3845.55747	0.67722
3843.62891	0.68200
3841.70034	0.68791
3839.77178	0.69099
3837.84321	0.68636
3835.91465	0.67938
3833.98609	0.67521
3832.05752	0.67203
3830.12896	0.67062
3828.20039	0.67212
3826.27183	0.67489
3824.34326	0.67899
3822.41470	0.68352
3820.48613	0.68177
3818.55757	0.67679
3816.62901	0.67179
3814.70044	0.66537
3812.77188	0.66263
3810.84331	0.66460
3808.91475	0.66889
3806.98618	0.67137
3805.05762	0.67308
3803.12905	0.67602
3801.20049	0.67393
3799.27193	0.67026
3797.34336	0.66882
3795.41480	0.66523
3793.48623	0.66150
3791.55767	0.65987
3789.62910	0.66025
3787.70054	0.66273
3785.77197	0.66476
3783.84341	0.66460
3781.91485	0.66517
3779.98628	0.66520
3778.05772	0.66149
3776.12915	0.65830
3774.20059	0.65862
3772.27202	0.66130
3770.34346	0.66268
3768.41489	0.66145
3766.48633	0.66051
3764.55777	0.65991
3762.62920	0.66081
3760.70064	0.66340
3758.77207	0.66412
3756.84351	0.66389
3754.91494	0.66749
3752.98638	0.67492
3751.05781	0.67806
3749.12925	0.67358
3747.20069	0.67230
3745.27212	0.67128
3743.34356	0.66712
3741.41499	0.66656
3739.48643	0.67066
3737.55786	0.67716
3735.62930	0.67915
3733.70074	0.67057
3731.77217	0.66241
3729.84361	0.66090
3727.91504	0.66306
3725.98648	0.66501
3724.05791	0.66499
3722.12935	0.66343
3720.20078	0.66106
3718.27222	0.65895
3716.34366	0.65890
3714.41509	0.66238
3712.48653	0.66633
3710.55796	0.66334
3708.62940	0.65748
3706.70083	0.65507
3704.77227	0.65581
3702.84370	0.65698
3700.91514	0.65567
3698.98658	0.65410
3697.05801	0.65479
3695.12945	0.65782
3693.20088	0.66370
3691.27232	0.67106
3689.34375	0.67150
3687.41519	0.66508
3685.48662	0.66197
3683.55806	0.66285
3681.62950	0.66651
3679.70093	0.67309
3677.77237	0.68174
3675.84380	0.68643
3673.91524	0.68654
3671.98667	0.69071
3670.05811	0.69322
3668.12954	0.68874
3666.20098	0.68583
3664.27242	0.68706
3662.34385	0.69161
3660.41529	0.69840
3658.48672	0.70517
3656.55816	0.71015
3654.62959	0.71505
3652.70103	0.72412
3650.77246	0.73852
3648.84390	0.74670
3646.91534	0.74171
3644.98677	0.73912
3643.05821	0.74148
3641.12964	0.74599
3639.20108	0.75092
3637.27251	0.75689
3635.34395	0.76465
3633.41538	0.77388
3631.48682	0.78342
3629.55826	0.79068
3627.62969	0.79230
3625.70113	0.79408
3623.77256	0.79941
3621.84400	0.80801
3619.91543	0.81742
3617.98687	0.82361
3616.05830	0.82889
3614.12974	0.83381
3612.20118	0.83778
3610.27261	0.84390
3608.34405	0.85067
3606.41548	0.85498
3604.48692	0.86015
3602.55835	0.86845
3600.62979	0.87662
3598.70123	0.88160
3596.77266	0.88547
3594.84410	0.89036
3592.91553	0.89634
3590.98697	0.90393
3589.05840	0.91333
3587.12984	0.91974
3585.20127	0.92219
3583.27271	0.92676
3581.34415	0.93393
3579.41558	0.94113
3577.48702	0.94660
3575.55845	0.95126
3573.62989	0.95649
3571.70132	0.96359
3569.77276	0.97351
3567.84419	0.98463
3565.91563	0.99161
3563.98707	0.99539
3562.05850	1.00007
3560.12994	1.00418
3558.20137	1.00803
3556.27281	1.01525
3554.34424	1.02600
3552.41568	1.03704
3550.48711	1.04581
3548.55855	1.05332
3546.62999	1.06070
3544.70142	1.06628
3542.77286	1.06941
3540.84429	1.07312
3538.91573	1.08015
3536.98716	1.08980
3535.05860	1.09796
3533.13003	1.10317
3531.20147	1.10942
3529.27291	1.11917
3527.34434	1.12974
3525.41578	1.13736
3523.48721	1.14145
3521.55865	1.14491
3519.63008	1.15132
3517.70152	1.16087
3515.77295	1.17091
3513.84439	1.18095
3511.91583	1.19061
3509.98726	1.19861
3508.05870	1.20677
3506.13013	1.21751
3504.20157	1.23016
3502.27300	1.24077
3500.34444	1.24995
3498.41587	1.26060
3496.48731	1.26982
3494.55875	1.27433
3492.63018	1.27646
3490.70162	1.28122
3488.77305	1.28923
3486.84449	1.29810
3484.91592	1.30689
3482.98736	1.31586
3481.05879	1.32403
3479.13023	1.32828
3477.20167	1.32888
3475.27310	1.32805
3473.34454	1.32849
3471.41597	1.33221
3469.48741	1.33711
3467.55884	1.34110
3465.63028	1.34355
3463.70171	1.34578
3461.77315	1.34948
3459.84459	1.35317
3457.91602	1.35536
3455.98746	1.35896
3454.05889	1.36731
3452.13033	1.37605
3450.20176	1.38045
3448.27320	1.38453
3446.34464	1.38958
3444.41607	1.39111
3442.48751	1.39236
3440.55894	1.39721
3438.63038	1.40109
3436.70181	1.40226
3434.77325	1.40478
3432.84468	1.40968
3430.91612	1.41374
3428.98756	1.41292
3427.05899	1.40835
3425.13043	1.40587
3423.20186	1.40657
3421.27330	1.40632
3419.34473	1.40470
3417.41617	1.40510
3415.48760	1.40993
3413.55904	1.41745
3411.63048	1.41985
3409.70191	1.41509
3407.77335	1.41191
3405.84478	1.41615
3403.91622	1.42400
3401.98765	1.42701
3400.05909	1.42424
3398.13052	1.42329
3396.20196	1.42625
3394.27340	1.42990
3392.34483	1.43314
3390.41627	1.43496
3388.48770	1.43517
3386.55914	1.43431
3384.63057	1.43158
3382.70201	1.42847
3380.77344	1.42708
3378.84488	1.42823
3376.91632	1.43260
3374.98775	1.43877
3373.05919	1.44460
3371.13062	1.44849
3369.20206	1.44957
3367.27349	1.44786
3365.34493	1.44392
3363.41636	1.44196
3361.48780	1.44517
3359.55924	1.45118
3357.63067	1.45594
3355.70211	1.45820
3353.77354	1.46018
3351.84498	1.46303
3349.91641	1.46571
3347.98785	1.46669
3346.05928	1.46678
3344.13072	1.46993
3342.20216	1.47535
3340.27359	1.47827
3338.34503	1.47866
3336.41646	1.47982
3334.48790	1.48276
3332.55933	1.48759
3330.63077	1.49361
3328.70220	1.49505
3326.77364	1.48971
3324.84508	1.48633
3322.91651	1.49202
3320.98795	1.50266
3319.05938	1.50967
3317.13082	1.51233
3315.20225	1.51713
3313.27369	1.52642
3311.34513	1.53514
3309.41656	1.53801
3307.48800	1.53692
3305.55943	1.53758
3303.63087	1.54022
3301.70230	1.54131
3299.77374	1.54062
3297.84517	1.54118
3295.91661	1.54448
3293.98805	1.54764
3292.05948	1.54776
3290.13092	1.54606
3288.20235	1.54581
3286.27379	1.54746
3284.34522	1.54729
3282.41666	1.54510
3280.48809	1.54362
3278.55953	1.54092
3276.63097	1.53632
3274.70240	1.53531
3272.77384	1.53991
3270.84527	1.54327
3268.91671	1.53963
3266.98814	1.53197
3265.05958	1.52479
3263.13101	1.51809
3261.20245	1.51137
3259.27389	1.50438
3257.34532	1.49644
3255.41676	1.48790
3253.48819	1.47893
3251.55963	1.47083
3249.63106	1.46489
3247.70250	1.45973
3245.77393	1.45363
3243.84537	1.44650
3241.91681	1.43844
3239.98824	1.43011
3238.05968	1.42509
3236.13111	1.42248
3234.20255	1.41741
3232.27398	1.41128
3230.34542	1.40662
3228.41685	1.40255
3226.48829	1.39761
3224.55973	1.39230
3222.63116	1.38954
3220.70260	1.38770
3218.77403	1.38273
3216.84547	1.37578
3214.91690	1.36867
3212.98834	1.36183
3211.05977	1.35644
3209.13121	1.35212
3207.20265	1.34811
3205.27408	1.34539
3203.34552	1.34271
3201.41695	1.33710
3199.48839	1.32987
3197.55982	1.32518
3195.63126	1.32365
3193.70269	1.32184
3191.77413	1.31705
3189.84557	1.31007
3187.91700	1.30345
3185.98844	1.29765
3184.05987	1.29149
3182.13131	1.28537
3180.20274	1.28008
3178.27418	1.27586
3176.34562	1.27314
3174.41705	1.27071
3172.48849	1.26730
3170.55992	1.26381
3168.63136	1.25959
3166.70279	1.25328
3164.77423	1.24678
3162.84566	1.24154
3160.91710	1.23639
3158.98854	1.23208
3157.05997	1.22971
3155.13141	1.22690
3153.20284	1.22235
3151.27428	1.21804
3149.34571	1.21491
3147.41715	1.21272
3145.48858	1.21021
3143.56002	1.20652
3141.63146	1.20378
3139.70289	1.20271
3137.77433	1.20153
3135.84576	1.20059
3133.91720	1.20059
3131.98863	1.19956
3130.06007	1.19623
3128.13150	1.19314
3126.20294	1.19266
3124.27438	1.19407
3122.34581	1.19618
3120.41725	1.19803
3118.48868	1.19835
3116.56012	1.19764
3114.63155	1.19754
3112.70299	1.19841
3110.77442	1.19987
3108.84586	1.20132
3106.91730	1.20072
3104.98873	1.19796
3103.06017	1.19627
3101.13160	1.19597
3099.20304	1.19481
3097.27447	1.19274
3095.34591	1.19098
3093.41734	1.19013
3091.48878	1.18914
3089.56022	1.18714
3087.63165	1.18523
3085.70309	1.18377
3083.77452	1.18163
3081.84596	1.17783
3079.91739	1.17291
3077.98883	1.16942
3076.06026	1.16738
3074.13170	1.16428
3072.20314	1.16013
3070.27457	1.15598
3068.34601	1.15208
3066.41744	1.14919
3064.48888	1.14678
3062.56031	1.14326
3060.63175	1.13842
3058.70318	1.13308
3056.77462	1.12854
3054.84606	1.12504
3052.91749	1.12048
3050.98893	1.11386
3049.06036	1.10738
3047.13180	1.10339
3045.20323	1.10171
3043.27467	1.09974
3041.34610	1.09487
3039.41754	1.08778
3037.48898	1.08163
3035.56041	1.07738
3033.63185	1.07350
3031.70328	1.06916
3029.77472	1.06494
3027.84615	1.06158
3025.91759	1.05909
3023.98903	1.05683
3022.06046	1.05431
3020.13190	1.05115
3018.20333	1.04758
3016.27477	1.04493
3014.34620	1.04391
3012.41764	1.04326
3010.48907	1.04122
3008.56051	1.03784
3006.63195	1.03463
3004.70338	1.03272
3002.77482	1.03223
3000.84625	1.03231
2998.91769	1.03213
2996.98912	1.03225
2995.06056	1.03337
2993.13199	1.03581
2991.20343	1.04010
2989.27487	1.04518
2987.34630	1.04992
2985.41774	1.05614
2983.48917	1.06464
2981.56061	1.07302
2979.63204	1.07970
2977.70348	1.08557
2975.77491	1.09209
2973.84635	1.09952
2971.91779	1.10745
2969.98922	1.11581
2968.06066	1.12379
2966.13209	1.13001
2964.20353	1.13445
2962.27496	1.13755
2960.34640	1.13926
2958.41783	1.13881
2956.48927	1.13452
2954.56071	1.12672
2952.63214	1.11843
2950.70358	1.11228
2948.77501	1.10963
2946.84645	1.11056
2944.91788	1.11404
2942.98932	1.11898
2941.06075	1.12523
2939.13219	1.13406
2937.20363	1.14589
2935.27506	1.15814
2933.34650	1.16779
2931.41793	1.17493
2929.48937	1.18127
2927.56080	1.18782
2925.63224	1.19438
2923.70367	1.19936
2921.77511	1.20228
2919.84655	1.20390
2917.91798	1.20121
2915.98942	1.18794
2914.06085	1.16409
2912.13229	1.13854
2910.20372	1.11789
2908.27516	1.10186
2906.34659	1.08926
2904.41803	1.08023
2902.48947	1.07493
2900.56090	1.07220
2898.63234	1.06942
2896.70377	1.06552
2894.77521	1.06141
2892.84664	1.05726
2890.91808	1.05237
2888.98952	1.04743
2887.06095	1.04397
2885.13239	1.04171
2883.20382	1.03983
2881.27526	1.03858
2879.34669	1.03788
2877.41813	1.03779
2875.48956	1.03810
2873.56100	1.03653
2871.63244	1.03165
2869.70387	1.02427
2867.77531	1.01546
2865.84674	1.00767
2863.91818	1.00358
2861.98961	1.00256
2860.06105	1.00321
2858.13248	1.00661
2856.20392	1.01342
2854.27536	1.02229
2852.34679	1.03072
2850.41823	1.03321
2848.48966	1.02214
2846.56110	0.99717
2844.63253	0.96844
2842.70397	0.94477
2840.77540	0.92749
2838.84684	0.91513
2836.91828	0.90591
2834.98971	0.89813
2833.06115	0.89104
2831.13258	0.88455
2829.20402	0.87919
2827.27545	0.87509
2825.34689	0.87146
2823.41832	0.86755
2821.48976	0.86285
2819.56120	0.85779
2817.63263	0.85369
2815.70407	0.85084
2813.77550	0.84811
2811.84694	0.84505
2809.91837	0.84182
2807.98981	0.83811
2806.06124	0.83429
2804.13268	0.83123
2802.20412	0.82848
2800.27555	0.82520
2798.34699	0.82153
2796.41842	0.81790
2794.48986	0.81464
2792.56129	0.81176
2790.63273	0.80893
2788.70416	0.80624
2786.77560	0.80405
2784.84704	0.80215
2782.91847	0.80021
2780.98991	0.79838
2779.06134	0.79650
2777.13278	0.79436
2775.20421	0.79245
2773.27565	0.79097
2771.34708	0.78940
2769.41852	0.78760
2767.48996	0.78615
2765.56139	0.78525
2763.63283	0.78406
2761.70426	0.78210
2759.77570	0.78017
2757.84713	0.77867
2755.91857	0.77698
2753.99001	0.77520
2752.06144	0.77405
2750.13288	0.77328
2748.20431	0.77214
2746.27575	0.77054
2744.34718	0.76880
2742.41862	0.76725
2740.49005	0.76566
2738.56149	0.76344
2736.63293	0.76094
2734.70436	0.75898
2732.77580	0.75734
2730.84723	0.75542
2728.91867	0.75332
2726.99010	0.75122
2725.06154	0.74901
2723.13297	0.74668
2721.20441	0.74431
2719.27585	0.74230
2717.34728	0.74095
2715.41872	0.73972
2713.49015	0.73786
2711.56159	0.73547
2709.63302	0.73350
2707.70446	0.73231
2705.77589	0.73096
2703.84733	0.72891
2701.91877	0.72675
2699.99020	0.72512
2698.06164	0.72394
2696.13307	0.72280
2694.20451	0.72134
2692.27594	0.71950
2690.34738	0.71764
2688.41881	0.71615
2686.49025	0.71503
2684.56169	0.71381
2682.63312	0.71240
2680.70456	0.71117
2678.77599	0.71005
2676.84743	0.70885
2674.91886	0.70766
2672.99030	0.70667
2671.06173	0.70605
2669.13317	0.70556
2667.20461	0.70491
2665.27604	0.70437
2663.34748	0.70420
2661.41891	0.70413
2659.49035	0.70396
2657.56178	0.70373
2655.63322	0.70357
2653.70465	0.70364
2651.77609	0.70363
2649.84753	0.70332
2647.91896	0.70293
2645.99040	0.70215
2644.06183	0.70071
2642.13327	0.69920
2640.20470	0.69795
2638.27614	0.69682
2636.34757	0.69573
2634.41901	0.69462
2632.49045	0.69361
2630.56188	0.69255
2628.63332	0.69085
2626.70475	0.68879
2624.77619	0.68722
2622.84762	0.68588
2620.91906	0.68427
2618.99049	0.68284
2617.06193	0.68172
2615.13337	0.68038
2613.20480	0.67891
2611.27624	0.67765
2609.34767	0.67648
2607.41911	0.67535
2605.49054	0.67448
2603.56198	0.67372
2601.63342	0.67247
2599.70485	0.67084
2597.77629	0.66961
2595.84772	0.66889
2593.91916	0.66816
2591.99059	0.66724
2590.06203	0.66628
2588.13346	0.66516
2586.20490	0.66385
2584.27634	0.66261
2582.34777	0.66128
2580.41921	0.65983
2578.49064	0.65867
2576.56208	0.65782
2574.63351	0.65705
2572.70495	0.65630
2570.77638	0.65551
2568.84782	0.65454
2566.91926	0.65343
2564.99069	0.65236
2563.06213	0.65162
2561.13356	0.65146
2559.20500	0.65171
2557.27643	0.65176
2555.34787	0.65154
2553.41930	0.65150
2551.49074	0.65166
2549.56218	0.65174
2547.63361	0.65150
2545.70505	0.65099
2543.77648	0.65060
2541.84792	0.65017
2539.91935	0.64914
2537.99079	0.64787
2536.06222	0.64704
2534.13366	0.64637
2532.20510	0.64531
2530.27653	0.64377
2528.34797	0.64204
2526.41940	0.64037
2524.49084	0.63869
2522.56227	0.63703
2520.63371	0.63558
2518.70514	0.63440
2516.77658	0.63316
2514.84802	0.63162
2512.91945	0.63005
2510.99089	0.62884
2509.06232	0.62789
2507.13376	0.62681
2505.20519	0.62571
2503.27663	0.62501
2501.34806	0.62462
2499.41950	0.62420
2497.49094	0.62367
2495.56237	0.62297
2493.63381	0.62227
2491.70524	0.62179
2489.77668	0.62128
2487.84811	0.62040
2485.91955	0.61913
2483.99098	0.61771
2482.06242	0.61650
2480.13386	0.61568
2478.20529	0.61508
2476.27673	0.61440
2474.34816	0.61347
2472.41960	0.61221
2470.49103	0.61079
2468.56247	0.60960
2466.63391	0.60869
2464.70534	0.60807
2462.77678	0.60769
2460.84821	0.60711
2458.91965	0.60623
2456.99108	0.60552
2455.06252	0.60517
2453.13395	0.60501
2451.20539	0.60506
2449.27683	0.60521
2447.34826	0.60511
2445.41970	0.60472
2443.49113	0.60422
2441.56257	0.60368
2439.63400	0.60316
2437.70544	0.60266
2435.77687	0.60208
2433.84831	0.60132
2431.91975	0.60048
2429.99118	0.59948
2428.06262	0.59820
2426.13405	0.59686
2424.20549	0.59545
2422.27692	0.59393
2420.34836	0.59247
2418.41979	0.59101
2416.49123	0.58933
2414.56267	0.58747
2412.63410	0.58571
2410.70554	0.58403
2408.77697	0.58232
2406.84841	0.58078
2404.91984	0.57962
2402.99128	0.57867
2401.06271	0.57771
2399.13415	0.57678
2397.20559	0.57586
2395.27702	0.57487
2393.34846	0.57405
2391.41989	0.57365
2389.49133	0.57359
2387.56276	0.57381
2385.63420	0.57439
2383.70563	0.57525
2381.77707	0.57642
2379.84851	0.57799
2377.91994	0.57972
2375.99138	0.58136
2374.06281	0.58269
2372.13425	0.58329
2370.20568	0.58385
2368.27712	0.58522
2366.34855	0.58639
2364.41999	0.58626
2362.49143	0.58554
2360.56286	0.58596
2358.63430	0.58692
2356.70573	0.58642
2354.77717	0.58435
2352.84860	0.58116
2350.92004	0.57859
2348.99147	0.57804
2347.06291	0.57896
2345.13435	0.57988
2343.20578	0.57985
2341.27722	0.57987
2339.34865	0.58061
2337.42009	0.58128
2335.49152	0.58135
2333.56296	0.58123
2331.63440	0.58044
2329.70583	0.57837
2327.77727	0.57615
2325.84870	0.57430
2323.92014	0.57237
2321.99157	0.57043
2320.06301	0.56853
2318.13444	0.56664
2316.20588	0.56489
2314.27732	0.56327
2312.34875	0.56137
2310.42019	0.55887
2308.49162	0.55613
2306.56306	0.55363
2304.63449	0.55161
2302.70593	0.55025
2300.77736	0.54916
2298.84880	0.54769
2296.92024	0.54591
2294.99167	0.54424
2293.06311	0.54293
2291.13454	0.54199
2289.20598	0.54114
2287.27741	0.54019
2285.34885	0.53926
2283.42028	0.53850
2281.49172	0.53798
2279.56316	0.53764
2277.63459	0.53733
2275.70603	0.53689
2273.77746	0.53631
2271.84890	0.53566
2269.92033	0.53489
2267.99177	0.53412
2266.06320	0.53363
2264.13464	0.53343
2262.20608	0.53324
2260.27751	0.53287
2258.34895	0.53244
2256.42038	0.53203
2254.49182	0.53173
2252.56325	0.53162
2250.63469	0.53146
2248.70612	0.53127
2246.77756	0.53133
2244.84900	0.53138
2242.92043	0.53113
2240.99187	0.53084
2239.06330	0.53066
2237.13474	0.53048
2235.20617	0.53034
2233.27761	0.53025
2231.34904	0.53006
2229.42048	0.52967
2227.49192	0.52912
2225.56335	0.52844
2223.63479	0.52777
2221.70622	0.52726
2219.77766	0.52673
2217.84909	0.52596
2215.92053	0.52511
2213.99196	0.52428
2212.06340	0.52336
2210.13484	0.52239
2208.20627	0.52139
2206.27771	0.52030
2204.34914	0.51933
2202.42058	0.51860
2200.49201	0.51773
2198.56345	0.51660
2196.63488	0.51551
2194.70632	0.51443
2192.77776	0.51323
2190.84919	0.51205
2188.92063	0.51104
2186.99206	0.51007
2185.06350	0.50896
2183.13493	0.50794
2181.20637	0.50726
2179.27781	0.50669
2177.34924	0.50605
2175.42068	0.50549
2173.49211	0.50508
2171.56355	0.50465
2169.63498	0.50423
2167.70642	0.50399
2165.77785	0.50392
2163.84929	0.50398
2161.92073	0.50419
2159.99216	0.50455
2158.06360	0.50493
2156.13503	0.50526
2154.20647	0.50554
2152.27790	0.50569
2150.34934	0.50583
2148.42077	0.50611
2146.49221	0.50635
2144.56365	0.50652
2142.63508	0.50679
2140.70652	0.50700
2138.77795	0.50699
2136.84939	0.50697
2134.92082	0.50712
2132.99226	0.50714
2131.06369	0.50682
2129.13513	0.50644
2127.20657	0.50628
2125.27800	0.50622
2123.34944	0.50608
2121.42087	0.50586
2119.49231	0.50553
2117.56374	0.50516
2115.63518	0.50488
2113.70661	0.50457
2111.77805	0.50424
2109.84949	0.50402
2107.92092	0.50370
2105.99236	0.50303
2104.06379	0.50212
2102.13523	0.50116
2100.20666	0.50004
2098.27810	0.49877
2096.34953	0.49750
2094.42097	0.49616
2092.49241	0.49466
2090.56384	0.49311
2088.63528	0.49156
2086.70671	0.49009
2084.77815	0.48861
2082.84958	0.48700
2080.92102	0.48540
2078.99245	0.48404
2077.06389	0.48300
2075.13533	0.48221
2073.20676	0.48160
2071.27820	0.48116
2069.34963	0.48093
2067.42107	0.48102
2065.49250	0.48104
2063.56394	0.48062
2061.63537	0.48017
2059.70681	0.48003
2057.77825	0.48003
2055.84968	0.48017
2053.92112	0.48057
2051.99255	0.48085
2050.06399	0.48073
2048.13542	0.48041
2046.20686	0.48016
2044.27830	0.48011
2042.34973	0.47995
2040.42117	0.47930
2038.49260	0.47845
2036.56404	0.47772
2034.63547	0.47702
2032.70691	0.47638
2030.77834	0.47593
2028.84978	0.47573
2026.92122	0.47555
2024.99265	0.47511
2023.06409	0.47470
2021.13552	0.47478
2019.20696	0.47524
2017.27839	0.47525
2015.34983	0.47446
2013.42126	0.47385
2011.49270	0.47404
2009.56414	0.47450
2007.63557	0.47455
2005.70701	0.47406
2003.77844	0.47344
2001.84988	0.47291
1999.92131	0.47228
1997.99275	0.47145
1996.06418	0.47082
1994.13562	0.47054
1992.20706	0.46949
1990.27849	0.46694
1988.34993	0.46393
1986.42136	0.46116
1984.49280	0.45874
1982.56423	0.45658
1980.63567	0.45438
1978.70710	0.45224
1976.77854	0.45036
1974.84998	0.44874
1972.92141	0.44736
1970.99285	0.44652
1969.06428	0.44646
1967.13572	0.44612
1965.20715	0.44475
1963.27859	0.44341
1961.35002	0.44286
1959.42146	0.44273
1957.49290	0.44276
1955.56433	0.44280
1953.63577	0.44265
1951.70720	0.44257
1949.77864	0.44290
1947.85007	0.44361
1945.92151	0.44457
1943.99294	0.44535
1942.06438	0.44446
1940.13582	0.44193
1938.20725	0.43974
1936.27869	0.43835
1934.35012	0.43716
1932.42156	0.43580
1930.49299	0.43434
1928.56443	0.43308
1926.63586	0.43270
1924.70730	0.43340
1922.77874	0.43360
1920.85017	0.43264
1918.92161	0.43171
1916.99304	0.43039
1915.06448	0.42882
1913.13591	0.42874
1911.20735	0.43015
1909.27878	0.43109
1907.35022	0.43052
1905.42166	0.42960
1903.49309	0.42912
1901.56453	0.42872
1899.63596	0.42845
1897.70740	0.42863
1895.77883	0.42844
1893.85027	0.42707
1891.92171	0.42575
1889.99314	0.42446
1888.06458	0.42170
1886.13601	0.41852
1884.20745	0.41574
1882.27888	0.41303
1880.35032	0.41038
1878.42175	0.40772
1876.49319	0.40509
1874.56463	0.40307
1872.63606	0.40272
1870.70750	0.40432
1868.77893	0.40468
1866.85037	0.40064
1864.92180	0.39593
1862.99324	0.39340
1861.06467	0.39244
1859.13611	0.39181
1857.20755	0.39117
1855.27898	0.39086
1853.35042	0.39101
1851.42185	0.39172
1849.49329	0.39351
1847.56472	0.39632
1845.63616	0.39891
1843.70759	0.39845
1841.77903	0.39542
1839.85047	0.39359
1837.92190	0.39309
1835.99334	0.39227
1834.06477	0.39170
1832.13621	0.39312
1830.20764	0.39469
1828.27908	0.39325
1826.35051	0.39086
1824.42195	0.38847
1822.49339	0.38564
1820.56482	0.38367
1818.63626	0.38300
1816.70769	0.38273
1814.77913	0.38305
1812.85056	0.38447
1810.92200	0.38545
1808.99343	0.38458
1807.06487	0.38331
1805.13631	0.38341
1803.20774	0.38514
1801.27918	0.38678
1799.35061	0.38651
1797.42205	0.38587
1795.49348	0.38684
1793.56492	0.38865
1791.63635	0.38727
1789.70779	0.38244
1787.77923	0.37926
1785.85066	0.37850
1783.92210	0.37871
1781.99353	0.37916
1780.06497	0.37896
1778.13640	0.37837
1776.20784	0.37962
1774.27927	0.38364
1772.35071	0.38691
1770.42215	0.38487
1768.49358	0.38126
1766.56502	0.37945
1764.63645	0.38058
1762.70789	0.38413
1760.77932	0.38728
1758.85076	0.38954
1756.92220	0.39262
1754.99363	0.39645
1753.06507	0.40283
1751.13650	0.41425
1749.20794	0.42643
1747.27937	0.43335
1745.35081	0.43826
1743.42224	0.44430
1741.49368	0.45156
1739.56512	0.45873
1737.63655	0.46482
1735.70799	0.47268
1733.77942	0.48300
1731.85086	0.48743
1729.92229	0.48860
1727.99373	0.49141
1726.06516	0.49714
1724.13660	0.50626
1722.20804	0.51666
1720.27947	0.52877
1718.35091	0.54794
1716.42234	0.56947
1714.49378	0.57954
1712.56521	0.58748
1710.63665	0.60071
1708.70808	0.62021
1706.77952	0.64885
1704.85096	0.68377
1702.92239	0.71581
1700.99383	0.76136
1699.06526	0.82910
1697.13670	0.88626
1695.20813	0.93692
1693.27957	0.97700
1691.35100	1.01365
1689.42244	1.06011
1687.49388	1.10468
1685.56531	1.15148
1683.63675	1.21791
1681.70818	1.26251
1679.77962	1.28759
1677.85105	1.31395
1675.92249	1.34732
1673.99392	1.38169
1672.06536	1.40809
1670.13680	1.43165
1668.20823	1.45053
1666.27967	1.46046
1664.35110	1.47102
1662.42254	1.48224
1660.49397	1.48584
1658.56541	1.48668
1656.63684	1.48932
1654.70828	1.49650
1652.77972	1.49931
1650.85115	1.49287
1648.92259	1.49042
1646.99402	1.48517
1645.06546	1.47204
1643.13689	1.46139
1641.20833	1.45831
1639.27976	1.46126
1637.35120	1.46523
1635.42264	1.45827
1633.49407	1.44442
1631.56551	1.43576
1629.63694	1.42859
1627.70838	1.42117
1625.77981	1.41345
1623.85125	1.40238
1621.92269	1.38519
1619.99412	1.36913
1618.06556	1.35141
1616.13699	1.31923
1614.20843	1.28628
1612.27986	1.25972
1610.35130	1.23276
1608.42273	1.20498
1606.49417	1.18048
1604.56561	1.16119
1602.63704	1.14534
1600.70848	1.13242
1598.77991	1.12349
1596.85135	1.11835
1594.92278	1.11492
1592.99422	1.11289
1591.06565	1.11325
1589.13709	1.11593
1587.20853	1.12170
1585.27996	1.13090
1583.35140	1.14329
1581.42283	1.15798
1579.49427	1.17382
1577.56570	1.19356
1575.63714	1.21520
1573.70857	1.22737
1571.78001	1.23795
1569.85145	1.25517
1567.92288	1.27074
1565.99432	1.28141
1564.06575	1.29358
1562.13719	1.30598
1560.20862	1.32411
1558.28006	1.35185
1556.35149	1.35712
1554.42293	1.35399
1552.49437	1.35243
1550.56580	1.35197
1548.63724	1.35031
1546.70867	1.35050
1544.78011	1.35538
1542.85154	1.36240
1540.92298	1.35879
1538.99441	1.33608
1537.06585	1.32329
1535.13729	1.31791
1533.20872	1.30943
1531.28016	1.29870
1529.35159	1.29296
1527.42303	1.29066
1525.49446	1.28810
1523.56590	1.28689
1521.63733	1.28567
1519.70877	1.28111
1517.78021	1.27286
1515.85164	1.25807
1513.92308	1.24035
1511.99451	1.22500
1510.06595	1.21466
1508.13738	1.19845
1506.20882	1.15051
1504.28025	1.11517
1502.35169	1.09659
1500.42313	1.07982
1498.49456	1.05815
1496.56600	1.02711
1494.63743	0.99937
1492.70887	0.98246
1490.78030	0.96677
1488.85174	0.94254
1486.92317	0.91805
1484.99461	0.90146
1483.06605	0.89150
1481.13748	0.88603
1479.20892	0.88511
1477.28035	0.89085
1475.35179	0.90432
1473.42322	0.92280
1471.49466	0.93589
1469.56610	0.94198
1467.63753	0.94938
1465.70897	0.96028
1463.78040	0.96977
1461.85184	0.97589
1459.92327	0.98428
1457.99471	0.99790
1456.06614	1.00362
1454.13758	0.99918
1452.20902	0.99532
1450.28045	0.99306
1448.35189	0.99030
1446.42332	0.98436
1444.49476	0.97677
1442.56619	0.96964
1440.63763	0.96417
1438.70906	0.96006
1436.78050	0.95211
1434.85194	0.93896
1432.92337	0.92791
1430.99481	0.91872
1429.06624	0.90941
1427.13768	0.90276
1425.20911	0.90057
1423.28055	0.90149
1421.35198	0.90468
1419.42342	0.90973
1417.49486	0.91114
1415.56629	0.90843
1413.63773	0.90609
1411.70916	0.90451
1409.78060	0.90330
1407.85203	0.90337
1405.92347	0.90496
1403.99490	0.90621
1402.06634	0.90741
1400.13778	0.91048
1398.20921	0.91443
1396.28065	0.91716
1394.35208	0.91788
1392.42352	0.91860
1390.49495	0.92324
1388.56639	0.93389
1386.63782	0.94864
1384.70926	0.96273
1382.78070	0.97598
1380.85213	0.98768
1378.92357	0.99440
1376.99500	0.99474
1375.06644	0.98693
1373.13787	0.96991
1371.20931	0.95015
1369.28074	0.92962
1367.35218	0.90799
1365.42362	0.88935
1363.49505	0.87288
1361.56649	0.85629
1359.63792	0.84325
1357.70936	0.83542
1355.78079	0.83087
1353.85223	0.82759
1351.92366	0.82487
1349.99510	0.82276
1348.06654	0.82098
1346.13797	0.81959
1344.20941	0.81971
1342.28084	0.82250
1340.35228	0.82707
1338.42371	0.82994
1336.49515	0.83145
1334.56659	0.83564
1332.63802	0.84348
1330.70946	0.85309
1328.78089	0.86141
1326.85233	0.86672
1324.92376	0.86964
1322.99520	0.87177
1321.06663	0.87452
1319.13807	0.87754
1317.20951	0.87948
1315.28094	0.88036
1313.35238	0.88053
1311.42381	0.87964
1309.49525	0.87788
1307.56668	0.87551
1305.63812	0.87251
1303.70955	0.86895
1301.78099	0.86468
1299.85243	0.85956
1297.92386	0.85371
1295.99530	0.84770
1294.06673	0.84252
1292.13817	0.83908
1290.20960	0.83772
1288.28104	0.83759
1286.35247	0.83756
1284.42391	0.83746
1282.49535	0.83774
1280.56678	0.83867
1278.63822	0.84055
1276.70965	0.84395
1274.78109	0.84938
1272.85252	0.85678
1270.92396	0.86531
1268.99539	0.87386
1267.06683	0.88159
1265.13827	0.88797
1263.20970	0.89305
1261.28114	0.89716
1259.35257	0.90010
1257.42401	0.90197
1255.49544	0.90372
1253.56688	0.90573
1251.63831	0.90765
1249.70975	0.90929
1247.78119	0.91044
1245.85262	0.91096
1243.92406	0.91101
1241.99549	0.91079
1240.06693	0.91006
1238.13836	0.90817
1236.20980	0.90483
1234.28123	0.90035
1232.35267	0.89499
1230.42411	0.88856
1228.49554	0.88109
1226.56698	0.87298
1224.63841	0.86427
1222.70985	0.85494
1220.78128	0.84561
1218.85272	0.83739
1216.92415	0.83124
1214.99559	0.82771
1213.06703	0.82654
1211.13846	0.82701
1209.20990	0.82836
1207.28133	0.82878
1205.35277	0.82578
1203.42420	0.81850
1201.49564	0.80850
1199.56708	0.79799
1197.63851	0.78805
1195.70995	0.77881
1193.78138	0.77093
1191.85282	0.76555
1189.92425	0.76246
1187.99569	0.76071
1186.06712	0.76044
1184.13856	0.76219
1182.21000	0.76607
1180.28143	0.77227
1178.35287	0.78115
1176.42430	0.79269
1174.49574	0.80612
1172.56717	0.82076
1170.63861	0.83680
1168.71004	0.85470
1166.78148	0.87454
1164.85292	0.89506
1162.92435	0.91341
1160.99579	0.92620
1159.06722	0.93059
1157.13866	0.92662
1155.21009	0.91675
1153.28153	0.90249
1151.35296	0.88505
1149.42440	0.86691
1147.49584	0.85078
1145.56727	0.83846
1143.63871	0.83077
1141.71014	0.82795
1139.78158	0.82991
1137.85301	0.83606
1135.92445	0.84531
1133.99588	0.85714
1132.06732	0.87226
1130.13876	0.89162
1128.21019	0.91456
1126.28163	0.93777
1124.35306	0.95815
1122.42450	0.97536
1120.49593	0.98953
1118.56737	0.99981
1116.63880	1.00549
1114.71024	1.00574
1112.78168	1.00085
1110.85311	0.99362
1108.92455	0.98715
1106.99598	0.98174
1105.06742	0.97627
1103.13885	0.97136
1101.21029	0.96895
1099.28172	0.97019
1097.35316	0.97528
1095.42460	0.98440
1093.49603	0.99708
1091.56747	1.01223
1089.63890	1.02986
1087.71034	1.05049
1085.78177	1.07322
1083.85321	1.09555
1081.92464	1.11404
1079.99608	1.12597
1078.06752	1.13075
1076.13895	1.12861
1074.21039	1.12019
1072.28182	1.10709
1070.35326	1.09153
1068.42469	1.07605
1066.49613	1.06183
1064.56756	1.04796
1062.63900	1.03360
1060.71044	1.01890
1058.78187	1.00494
1056.85331	0.99301
1054.92474	0.98324
1052.99618	0.97539
1051.06761	0.97001
1049.13905	0.96783
1047.21049	0.96929
1045.28192	0.97482
1043.35336	0.98407
1041.42479	0.99485
1039.49623	1.00477
1037.56766	1.01332
1035.63910	1.02018
1033.71053	1.02384
1031.78197	1.02328
1029.85341	1.01894
1027.92484	1.01167
1025.99628	1.00220
1024.06771	0.99203
1022.13915	0.98237
1020.21058	0.97363
1018.28202	0.96616
1016.35345	0.95867
1014.42489	0.94859
1012.49633	0.93457
1010.56776	0.91665
1008.63920	0.89596
1006.71063	0.87452
1004.78207	0.85398
1002.85350	0.83521
1000.92494	0.81891
998.99637	0.80553
997.06781	0.79471
995.13925	0.78551
993.21068	0.77701
991.28212	0.76848
989.35355	0.75976
987.42499	0.75137
985.49642	0.74435
983.56786	0.73973
981.63929	0.73775
979.71073	0.73759
977.78217	0.73793
975.85360	0.73737
973.92504	0.73474
971.99647	0.72963
970.06791	0.72279
968.13934	0.71532
966.21078	0.70839
964.28221	0.70321
962.35365	0.70125
960.42509	0.70409
958.49652	0.71146
956.56796	0.71924
954.63939	0.72143
952.71083	0.71498
950.78226	0.70173
948.85370	0.68544
946.92513	0.66917
944.99657	0.65482
943.06801	0.64312
941.13944	0.63375
939.21088	0.62622
937.28231	0.62027
935.35375	0.61585
933.42518	0.61321
931.49662	0.61217
929.56805	0.61242
927.63949	0.61426
925.71093	0.61795
923.78236	0.62302
921.85380	0.62851
919.92523	0.63349
917.99667	0.63770
916.06810	0.64188
914.13954	0.64696
912.21098	0.65333
910.28241	0.66103
908.35385	0.66993
906.42528	0.67983
904.49672	0.69003
902.56815	0.69929
900.63959	0.70711
898.71102	0.71353
896.78246	0.71808
894.85390	0.72046
892.92533	0.72089
890.99677	0.71977
889.06820	0.71762
887.13964	0.71509
885.21107	0.71257
883.28251	0.71017
881.35394	0.70810
879.42538	0.70647
877.49682	0.70514
875.56825	0.70397
873.63969	0.70303
871.71112	0.70252
869.78256	0.70228
867.85399	0.70214
865.92543	0.70224
863.99686	0.70272
862.06830	0.70374
860.13974	0.70543
858.21117	0.70770
856.28261	0.71052
854.35404	0.71357
852.42548	0.71604
850.49691	0.71739
848.56835	0.71803
846.63978	0.71854
844.71122	0.71909
842.78266	0.71960
840.85409	0.71986
838.92553	0.71982
836.99696	0.71989
835.06840	0.72045
833.13983	0.72132
831.21127	0.72225
829.28270	0.72335
827.35414	0.72464
825.42558	0.72600
823.49701	0.72756
821.56845	0.72989
819.63988	0.73313
817.71132	0.73661
815.78275	0.74030
813.85419	0.74482
811.92562	0.74988
809.99706	0.75465
808.06850	0.75909
806.13993	0.76338
804.21137	0.76778
802.28280	0.77265
800.35424	0.77774
798.42567	0.78270
796.49711	0.78765
794.56854	0.79274
792.63998	0.79740
790.71142	0.80140
788.78285	0.80563
786.85429	0.81025
784.92572	0.81434
782.99716	0.81747
781.06859	0.81992
779.14003	0.82177
777.21147	0.82282
775.28290	0.82341
773.35434	0.82416
771.42577	0.82528
769.49721	0.82617
767.56864	0.82611
765.64008	0.82513
763.71151	0.82398
761.78295	0.82360
759.85439	0.82431
757.92582	0.82567
755.99726	0.82741
754.06869	0.83021
752.14013	0.83455
750.21156	0.83995
748.28300	0.84584
746.35443	0.85210
744.42587	0.85863
742.49731	0.86466
740.56874	0.86928
738.64018	0.87304
736.71161	0.87729
734.78305	0.88225
732.85448	0.88717
730.92592	0.89212
728.99735	0.89749
727.06879	0.90301
725.14023	0.90802
723.21166	0.91229
721.28310	0.91552
719.35453	0.91693
717.42597	0.91736
715.49740	0.91869
713.56884	0.92127
711.64027	0.92456
709.71171	0.92895
707.78315	0.93493
705.85458	0.94109
703.92602	0.94599
701.99745	0.95010
700.06889	0.95409
698.14032	0.95793
696.21176	0.96127
694.28319	0.96418
692.35463	0.96703
690.42607	0.96900
688.49750	0.96903
686.56894	0.96698
684.64037	0.96354
682.71181	0.95965
680.78324	0.95488
678.85468	0.94856
676.92611	0.94153
674.99755	0.93488
673.06899	0.92916
671.14042	0.92428
669.21186	0.91622
667.28329	0.90299
665.35473	0.89479
663.42616	0.88946
661.49760	0.88264
659.56903	0.87601
657.64047	0.87197
655.71191	0.86942
653.78334	0.86752
651.85478	0.86783
649.92621	0.87124
647.99765	0.87672
646.06908	0.88389
644.14052	0.89436
642.21195	0.90857
640.28339	0.92381
638.35483	0.93719
636.42626	0.94919
634.49770	0.96166
632.56913	0.97370
630.64057	0.98413
628.71200	0.99530
626.78344	1.00777
624.85488	1.01759
622.92631	1.02364
620.99775	1.02808
619.06918	1.03151
617.14062	1.03309
615.21205	1.03256
613.28349	1.03118
611.35492	1.02926
609.42636	1.02556
607.49780	1.02062
605.56923	1.01735
603.64067	1.01764
601.71210	1.02105
599.78354	1.02584
