3997.91406	1.05602
3995.98550	1.05641
3994.05693	1.05518
3992.12837	1.05247
3990.19980	1.05047
3988.27124	1.05019
3986.34268	1.05060
3984.41411	1.05084
3982.48555	1.05115
3980.55698	1.05136
3978.62842	1.05051
3976.69985	1.04868
3974.77129	1.04728
3972.84272	1.04735
3970.91416	1.04817
3968.98560	1.04743
3967.05703	1.04601
3965.12847	1.04695
3963.19990	1.04948
3961.27134	1.05091
3959.34277	1.05117
3957.41421	1.05200
3955.48564	1.05237
3953.55708	1.05069
3951.62852	1.04945
3949.69995	1.04887
3947.77139	1.04650
3945.84282	1.04563
3943.91426	1.04749
3941.98569	1.04805
3940.05713	1.04760
3938.12856	1.04779
3936.20000	1.04814
3934.27144	1.04983
3932.34287	1.05180
3930.41431	1.04948
3928.48574	1.04490
3926.55718	1.04360
3924.62861	1.04380
3922.70005	1.04072
3920.77148	1.03735
3918.84292	1.03795
3916.91436	1.04032
3914.98579	1.03985
3913.05723	1.03754
3911.12866	1.03648
3909.20010	1.03829
3907.27153	1.04326
3905.34297	1.04895
3903.41440	1.05009
3901.48584	1.04505
3899.55728	1.03800
3897.62871	1.03440
3895.70015	1.03601
3893.77158	1.04020
3891.84302	1.04149
3889.91445	1.03839
3887.98589	1.03617
3886.05733	1.03661
3884.12876	1.03979
3882.20020	1.04269
3880.27163	1.04116
3878.34307	1.03921
3876.41450	1.04042
3874.48594	1.04161
3872.55737	1.04080
3870.62881	1.03716
3868.70025	1.03352
3866.77168	1.03543
3864.84312	1.03877
3862.91455	1.03688
3860.98599	1.03317
3859.05742	1.03391
3857.12886	1.04075
3855.20029	1.05025
3853.27173	1.04691
3851.34317	1.03364
3849.41460	1.02818
3847.48604	1.02715
3845.55747	1.02884
3843.62891	1.03441
3841.70034	1.04214
3839.77178	1.04622
3837.84321	1.04217
3835.91465	1.03460
3833.98609	1.02838
3832.05752	1.02402
3830.12896	1.02313
3828.20039	1.02553
3826.27183	1.02886
3824.34326	1.03295
3822.41470	1.03811
3820.48613	1.03899
3818.55757	1.03659
3816.62901	1.03353
3814.70044	1.02696
3812.77188	1.02222
3810.84331	1.02232
3808.91475	1.02547
3806.98618	1.02663
3805.05762	1.02612
3803.12905	1.02952
3801.20049	1.03201
3799.27193	1.02961
3797.34336	1.02600
3795.41480	1.02110
3793.48623	1.01797
3791.55767	1.01753
3789.62910	1.01767
3787.70054	1.01782
3785.77197	1.01844
3783.84341	1.01942
3781.91485	1.02079
3779.98628	1.02123
3778.05772	1.01771
3776.12915	1.01297
3774.20059	1.01246
3772.27202	1.01700
3770.34346	1.02166
3768.41489	1.02205
3766.48633	1.02037
3764.55777	1.01895
3762.62920	1.02022
3760.70064	1.02376
3758.77207	1.02550
3756.84351	1.02598
3754.91494	1.02935
3752.98638	1.03641
3751.05781	1.04123
3749.12925	1.03796
3747.20069	1.03639
3745.27212	1.03682
3743.34356	1.03381
3741.41499	1.03052
3739.48643	1.02993
3737.55786	1.03321
3735.62930	1.03888
3733.70074	1.03645
3731.77217	1.02759
3729.84361	1.02273
3727.91504	1.02187
3725.98648	1.02085
3724.05791	1.01989
3722.12935	1.02068
3720.20078	1.01976
3718.27222	1.01619
3716.34366	1.01510
3714.41509	1.01924
3712.48653	1.02474
3710.55796	1.02339
3708.62940	1.01655
3706.70083	1.01236
3704.77227	1.01319
3702.84370	1.01520
3700.91514	1.01394
3698.98658	1.01160
3697.05801	1.01005
3695.12945	1.01116
3693.20088	1.01867
3691.27232	1.03105
3689.34375	1.03365
3687.41519	1.02162
3685.48662	1.01322
3683.55806	1.01236
3681.62950	1.01569
3679.70093	1.02140
3677.77237	1.02902
3675.84380	1.03358
3673.91524	1.03296
3671.98667	1.03548
3670.05811	1.03617
3668.12954	1.02984
3666.20098	1.02632
3664.27242	1.02774
3662.34385	1.03095
3660.41529	1.03490
3658.48672	1.04042
3656.55816	1.04539
3654.62959	1.04811
3652.70103	1.05501
3650.77246	1.06986
3648.84390	1.07473
3646.91534	1.06096
3644.98677	1.05375
3643.05821	1.05432
3641.12964	1.05668
3639.20108	1.05891
3637.27251	1.06352
3635.34395	1.07086
3633.41538	1.07722
3631.48682	1.08227
3629.55826	1.08836
3627.62969	1.08930
3625.70113	1.08729
3623.77256	1.08960
3621.84400	1.09690
3619.91543	1.10526
3617.98687	1.10739
3616.05830	1.10649
3614.12974	1.10660
3612.20118	1.10713
3610.27261	1.10944
3608.34405	1.11205
3606.41548	1.11285
3604.48692	1.11424
3602.55835	1.11764
3600.62979	1.12197
3598.70123	1.12658
3596.77266	1.13168
3594.84410	1.13399
3592.91553	1.13255
3590.98697	1.13452
3589.05840	1.14267
3587.12984	1.14821
3585.20127	1.14683
3583.27271	1.14618
3581.34415	1.14583
3579.41558	1.14476
3577.48702	1.14550
3575.55845	1.14709
3573.62989	1.14908
3571.70132	1.15461
3569.77276	1.16334
3567.84419	1.17101
3565.91563	1.17267
3563.98707	1.17158
3562.05850	1.17331
3560.12994	1.17675
3558.20137	1.17856
3556.27281	1.17930
3554.34424	1.18092
3552.41568	1.18257
3550.48711	1.18417
3548.55855	1.18942
3546.62999	1.19835
3544.70142	1.20299
3542.77286	1.20076
3540.84429	1.19929
3538.91573	1.20278
3536.98716	1.20756
3535.05860	1.20948
3533.13003	1.21140
3531.20147	1.21631
3529.27291	1.22233
3527.34434	1.22781
3525.41578	1.23228
3523.48721	1.23301
3521.55865	1.22979
3519.63008	1.22692
3517.70152	1.22700
3515.77295	1.22993
3513.84439	1.23448
3511.91583	1.23911
3509.98726	1.24302
3508.05870	1.24632
3506.13013	1.25071
3504.20157	1.25707
3502.27300	1.26236
3500.34444	1.26497
3498.41587	1.26734
3496.48731	1.27123
3494.55875	1.27630
3492.63018	1.28049
3490.70162	1.28335
3488.77305	1.28501
3486.84449	1.28395
3484.91592	1.28244
3482.98736	1.28461
3481.05879	1.28842
3479.13023	1.29031
3477.20167	1.29206
3475.27310	1.29337
3473.34454	1.29226
3471.41597	1.29218
3469.48741	1.29455
3467.55884	1.29585
3465.63028	1.29503
3463.70171	1.29375
3461.77315	1.29538
3459.84459	1.30077
3457.91602	1.30561
3455.98746	1.30841
3454.05889	1.31121
3452.13033	1.31430
3450.20176	1.31621
3448.27320	1.31562
3446.34464	1.31323
3444.41607	1.31195
3442.48751	1.31423
3440.55894	1.31817
3438.63038	1.31890
3436.70181	1.31517
3434.77325	1.31123
3432.84468	1.31168
3430.91612	1.31536
3428.98756	1.31900
3427.05899	1.32110
3425.13043	1.32000
3423.20186	1.31856
3421.27330	1.32065
3419.34473	1.32195
3417.41617	1.32021
3415.48760	1.32038
3413.55904	1.32329
3411.63048	1.32560
3409.70191	1.32465
3407.77335	1.32077
3405.84478	1.31915
3403.91622	1.32269
3401.98765	1.32720
3400.05909	1.32883
3398.13052	1.32946
3396.20196	1.33163
3394.27340	1.33382
3392.34483	1.33365
3390.41627	1.33170
3388.48770	1.33112
3386.55914	1.33417
3384.63057	1.33875
3382.70201	1.34058
3380.77344	1.34000
3378.84488	1.34014
3376.91632	1.34032
3374.98775	1.33809
3373.05919	1.33476
3371.13062	1.33345
3369.20206	1.33468
3367.27349	1.33725
3365.34493	1.34017
3363.41636	1.34169
3361.48780	1.34114
3359.55924	1.34163
3357.63067	1.34560
3355.70211	1.35027
3353.77354	1.35216
3351.84498	1.35152
3349.91641	1.34960
3347.98785	1.34797
3346.05928	1.34856
3344.13072	1.34983
3342.20216	1.34926
3340.27359	1.34853
3338.34503	1.34980
3336.41646	1.35145
3334.48790	1.35237
3332.55933	1.35443
3330.63077	1.35760
3328.70220	1.36099
3326.77364	1.36503
3324.84508	1.36799
3322.91651	1.36874
3320.98795	1.36959
3319.05938	1.37144
3317.13082	1.37264
3315.20225	1.37212
3313.27369	1.37155
3311.34513	1.37362
3309.41656	1.37783
3307.48800	1.38081
3305.55943	1.38140
3303.63087	1.38190
3301.70230	1.38416
3299.77374	1.38761
3297.84517	1.39059
3295.91661	1.39155
3293.98805	1.38968
3292.05948	1.38644
3290.13092	1.38482
3288.20235	1.38678
3286.27379	1.39100
3284.34522	1.39313
3282.41666	1.39233
3280.48809	1.39320
3278.55953	1.39739
3276.63097	1.39978
3274.70240	1.39681
3272.77384	1.39274
3270.84527	1.39117
3268.91671	1.38967
3266.98814	1.38666
3265.05958	1.38516
3263.13101	1.38743
3261.20245	1.38941
3259.27389	1.38626
3257.34532	1.38093
3255.41676	1.37864
3253.48819	1.37778
3251.55963	1.37485
3249.63106	1.37021
3247.70250	1.36575
3245.77393	1.36250
3243.84537	1.35985
3241.91681	1.35833
3239.98824	1.35849
3238.05968	1.35746
3236.13111	1.35407
3234.20255	1.35040
3232.27398	1.34703
3230.34542	1.34389
3228.41685	1.34161
3226.48829	1.34018
3224.55973	1.33943
3222.63116	1.34000
3220.70260	1.34177
3218.77403	1.34281
3216.84547	1.34206
3214.91690	1.34048
3212.98834	1.33818
3211.05977	1.33382
3209.13121	1.32833
3207.20265	1.32471
3205.27408	1.32218
3203.34552	1.31875
3201.41695	1.31628
3199.48839	1.31530
3197.55982	1.31339
3195.63126	1.30973
3193.70269	1.30579
3191.77413	1.30294
3189.84557	1.30051
3187.91700	1.29832
3185.98844	1.29741
3184.05987	1.29636
3182.13131	1.29352
3180.20274	1.28984
3178.27418	1.28611
3176.34562	1.28336
3174.41705	1.28328
3172.48849	1.28398
3170.55992	1.28215
3168.63136	1.27913
3166.70279	1.27729
3164.77423	1.27545
3162.84566	1.27331
3160.91710	1.27166
3158.98854	1.26875
3157.05997	1.26498
3155.13141	1.26358
3153.20284	1.26377
3151.27428	1.26195
3149.34571	1.25736
3147.41715	1.25338
3145.48858	1.25350
3143.56002	1.25567
3141.63146	1.25520
3139.70289	1.25194
3137.77433	1.24897
3135.84576	1.24801
3133.91720	1.24767
3131.98863	1.24553
3130.06007	1.24319
3128.13150	1.24304
3126.20294	1.24408
3124.27438	1.24538
3122.34581	1.24655
3120.41725	1.24716
3118.48868	1.24761
3116.56012	1.24815
3114.63155	1.24892
3112.70299	1.24942
3110.77442	1.24932
3108.84586	1.24956
3106.91730	1.25000
3104.98873	1.24879
3103.06017	1.24657
3101.13160	1.24607
3099.20304	1.24671
3097.27447	1.24634
3095.34591	1.24504
3093.41734	1.24374
3091.48878	1.24273
3089.56022	1.24137
3087.63165	1.23958
3085.70309	1.23765
3083.77452	1.23575
3081.84596	1.23417
3079.91739	1.23199
3077.98883	1.22863
3076.06026	1.22555
3074.13170	1.22414
3072.20314	1.22426
3070.27457	1.22432
3068.34601	1.22329
3066.41744	1.22246
3064.48888	1.22174
3062.56031	1.21913
3060.63175	1.21601
3058.70318	1.21445
3056.77462	1.21313
3054.84606	1.21099
3052.91749	1.20897
3050.98893	1.20750
3049.06036	1.20627
3047.13180	1.20503
3045.20323	1.20298
3043.27467	1.19940
3041.34610	1.19525
3039.41754	1.19276
3037.48898	1.19298
3035.56041	1.19425
3033.63185	1.19347
3031.70328	1.18915
3029.77472	1.18368
3027.84615	1.18029
3025.91759	1.17867
3023.98903	1.17667
3022.06046	1.17432
3020.13190	1.17343
3018.20333	1.17381
3016.27477	1.17293
3014.34620	1.17012
3012.41764	1.16729
3010.48907	1.16559
3008.56051	1.16480
3006.63195	1.16510
3004.70338	1.16617
3002.77482	1.16703
3000.84625	1.16789
2998.91769	1.16867
2996.98912	1.16787
2995.06056	1.16602
2993.13199	1.16581
2991.20343	1.16795
2989.27487	1.17128
2987.34630	1.17468
2985.41774	1.17722
2983.48917	1.17921
2981.56061	1.18157
2979.63204	1.18411
2977.70348	1.18642
2975.77491	1.18898
2973.84635	1.19240
2971.91779	1.19638
2969.98922	1.20091
2968.06066	1.20578
2966.13209	1.21027
2964.20353	1.21508
2962.27496	1.21981
2960.34640	1.22200
2958.41783	1.22166
2956.48927	1.22093
2954.56071	1.22002
2952.63214	1.21805
2950.70358	1.21619
2948.77501	1.21566
2946.84645	1.21617
2944.91788	1.21828
2942.98932	1.22285
2941.06075	1.22929
2939.13219	1.23662
2937.20363	1.24523
2935.27506	1.25562
2933.34650	1.26652
2931.41793	1.27645
2929.48937	1.28439
2927.56080	1.29074
2925.63224	1.29751
2923.70367	1.30393
2921.77511	1.30826
2919.84655	1.31196
2917.91798	1.31347
2915.98942	1.30641
2914.06085	1.29004
2912.13229	1.27179
2910.20372	1.25721
2908.27516	1.24515
2906.34659	1.23342
2904.41803	1.22382
2902.48947	1.21859
2900.56090	1.21652
2898.63234	1.21470
2896.70377	1.21146
2894.77521	1.20786
2892.84664	1.20567
2890.91808	1.20373
2888.98952	1.20050
2887.06095	1.19757
2885.13239	1.19641
2883.20382	1.19643
2881.27526	1.19632
2879.34669	1.19519
2877.41813	1.19350
2875.48956	1.19169
2873.56100	1.18993
2871.63244	1.18793
2869.70387	1.18478
2867.77531	1.18110
2865.84674	1.17838
2863.91818	1.17735
2861.98961	1.17826
2860.06105	1.18091
2858.13248	1.18575
2856.20392	1.19404
2854.27536	1.20531
2852.34679	1.21639
2850.41823	1.22245
2848.48966	1.21715
2846.56110	1.19830
2844.63253	1.17400
2842.70397	1.15357
2840.77540	1.13961
2838.84684	1.13032
2836.91828	1.12298
2834.98971	1.11714
2833.06115	1.11341
2831.13258	1.11042
2829.20402	1.10750
2827.27545	1.10502
2825.34689	1.10215
2823.41832	1.09862
2821.48976	1.09584
2819.56120	1.09454
2817.63263	1.09326
2815.70407	1.09112
2813.77550	1.08870
2811.84694	1.08558
2809.91837	1.08247
2807.98981	1.08095
2806.06124	1.07953
2804.13268	1.07731
2802.20412	1.07567
2800.27555	1.07424
2798.34699	1.07179
2796.41842	1.06899
2794.48986	1.06668
2792.56129	1.06414
2790.63273	1.06184
2788.70416	1.06071
2786.77560	1.05928
2784.84704	1.05695
2782.91847	1.05514
2780.98991	1.05418
2779.06134	1.05361
2777.13278	1.05345
2775.20421	1.05335
2773.27565	1.05265
2771.34708	1.05130
2769.41852	1.04951
2767.48996	1.04751
2765.56139	1.04589
2763.63283	1.04501
2761.70426	1.04439
2759.77570	1.04378
2757.84713	1.04350
2755.91857	1.04323
2753.99001	1.04182
2752.06144	1.03936
2750.13288	1.03701
2748.20431	1.03523
2746.27575	1.03415
2744.34718	1.03342
2742.41862	1.03244
2740.49005	1.03153
2738.56149	1.03083
2736.63293	1.03004
2734.70436	1.02923
2732.77580	1.02825
2730.84723	1.02705
2728.91867	1.02623
2726.99010	1.02593
2725.06154	1.02580
2723.13297	1.02535
2721.20441	1.02407
2719.27585	1.02210
2717.34728	1.01995
2715.41872	1.01839
2713.49015	1.01801
2711.56159	1.01785
2709.63302	1.01662
2707.70446	1.01473
2705.77589	1.01302
2703.84733	1.01175
2701.91877	1.01112
2699.99020	1.01068
2698.06164	1.00985
2696.13307	1.00899
2694.20451	1.00819
2692.27594	1.00707
2690.34738	1.00581
2688.41881	1.00464
2686.49025	1.00379
2684.56169	1.00314
2682.63312	1.00201
2680.70456	1.00045
2678.77599	0.99915
2676.84743	0.99805
2674.91886	0.99679
2672.99030	0.99555
2671.06173	0.99443
2669.13317	0.99349
2667.20461	0.99284
2665.27604	0.99172
2663.34748	0.98987
2661.41891	0.98875
2659.49035	0.98850
2657.56178	0.98781
2655.63322	0.98705
2653.70465	0.98698
2651.77609	0.98682
2649.84753	0.98607
2647.91896	0.98496
2645.99040	0.98336
2644.06183	0.98131
2642.13327	0.97962
2640.20470	0.97861
2638.27614	0.97765
2636.34757	0.97641
2634.41901	0.97525
2632.49045	0.97451
2630.56188	0.97436
2628.63332	0.97432
2626.70475	0.97342
2624.77619	0.97206
2622.84762	0.97138
2620.91906	0.97081
2618.99049	0.96998
2617.06193	0.96997
2615.13337	0.97011
2613.20480	0.96893
2611.27624	0.96745
2609.34767	0.96684
2607.41911	0.96652
2605.49054	0.96599
2603.56198	0.96541
2601.63342	0.96456
2599.70485	0.96339
2597.77629	0.96223
2595.84772	0.96116
2593.91916	0.96034
2591.99059	0.95989
2590.06203	0.95914
2588.13346	0.95810
2586.20490	0.95767
2584.27634	0.95757
2582.34777	0.95669
2580.41921	0.95496
2578.49064	0.95339
2576.56208	0.95282
2574.63351	0.95263
2572.70495	0.95160
2570.77638	0.95016
2568.84782	0.94951
2566.91926	0.94914
2564.99069	0.94805
2563.06213	0.94677
2561.13356	0.94611
2559.20500	0.94575
2557.27643	0.94526
2555.34787	0.94470
2553.41930	0.94405
2551.49074	0.94311
2549.56218	0.94190
2547.63361	0.94073
2545.70505	0.93984
2543.77648	0.93914
2541.84792	0.93846
2539.91935	0.93746
2537.99079	0.93596
2536.06222	0.93478
2534.13366	0.93450
2532.20510	0.93428
2530.27653	0.93384
2528.34797	0.93391
2526.41940	0.93417
2524.49084	0.93391
2522.56227	0.93302
2520.63371	0.93178
2518.70514	0.93100
2516.77658	0.93099
2514.84802	0.93110
2512.91945	0.93059
2510.99089	0.92931
2509.06232	0.92767
2507.13376	0.92618
2505.20519	0.92490
2503.27663	0.92370
2501.34806	0.92287
2499.41950	0.92288
2497.49094	0.92321
2495.56237	0.92292
2493.63381	0.92212
2491.70524	0.92144
2489.77668	0.92095
2487.84811	0.92041
2485.91955	0.91947
2483.99098	0.91824
2482.06242	0.91764
2480.13386	0.91776
2478.20529	0.91756
2476.27673	0.91663
2474.34816	0.91532
2472.41960	0.91397
2470.49103	0.91275
2468.56247	0.91186
2466.63391	0.91100
2464.70534	0.90967
2462.77678	0.90819
2460.84821	0.90720
2458.91965	0.90669
2456.99108	0.90612
2455.06252	0.90499
2453.13395	0.90358
2451.20539	0.90281
2449.27683	0.90275
2447.34826	0.90287
2445.41970	0.90282
2443.49113	0.90238
2441.56257	0.90176
2439.63400	0.90111
2437.70544	0.90043
2435.77687	0.90007
2433.84831	0.89998
2431.91975	0.89963
2429.99118	0.89890
2428.06262	0.89763
2426.13405	0.89591
2424.20549	0.89443
2422.27692	0.89362
2420.34836	0.89323
2418.41979	0.89267
2416.49123	0.89158
2414.56267	0.89033
2412.63410	0.88955
2410.70554	0.88908
2408.77697	0.88823
2406.84841	0.88701
2404.91984	0.88589
2402.99128	0.88489
2401.06271	0.88416
2399.13415	0.88396
2397.20559	0.88372
2395.27702	0.88287
2393.34846	0.88197
2391.41989	0.88168
2389.49133	0.88210
2387.56276	0.88311
2385.63420	0.88451
2383.70563	0.88635
2381.77707	0.88861
2379.84851	0.89071
2377.91994	0.89265
2375.99138	0.89508
2374.06281	0.89799
2372.13425	0.90114
2370.20568	0.90429
2368.27712	0.90695
2366.34855	0.90896
2364.41999	0.91026
2362.49143	0.91166
2360.56286	0.91270
2358.63430	0.91067
2356.70573	0.90650
2354.77717	0.90188
2352.84860	0.89583
2350.92004	0.89090
2348.99147	0.88988
2347.06291	0.89151
2345.13435	0.89279
2343.20578	0.89236
2341.27722	0.89117
2339.34865	0.88948
2337.42009	0.88853
2335.49152	0.89005
2333.56296	0.89227
2331.63440	0.89128
2329.70583	0.88774
2327.77727	0.88490
2325.84870	0.88328
2323.92014	0.88274
2321.99157	0.88263
2320.06301	0.88088
2318.13444	0.87733
2316.20588	0.87421
2314.27732	0.87230
2312.34875	0.87075
2310.42019	0.86934
2308.49162	0.86781
2306.56306	0.86575
2304.63449	0.86370
2302.70593	0.86220
2300.77736	0.86096
2298.84880	0.85959
2296.92024	0.85818
2294.99167	0.85680
2293.06311	0.85543
2291.13454	0.85416
2289.20598	0.85309
2287.27741	0.85223
2285.34885	0.85144
2283.42028	0.85074
2281.49172	0.85019
2279.56316	0.84982
2277.63459	0.84969
2275.70603	0.84975
2273.77746	0.84976
2271.84890	0.84951
2269.92033	0.84908
2267.99177	0.84874
2266.06320	0.84851
2264.13464	0.84820
2262.20608	0.84775
2260.27751	0.84740
2258.34895	0.84727
2256.42038	0.84704
2254.49182	0.84645
2252.56325	0.84566
2250.63469	0.84465
2248.70612	0.84337
2246.77756	0.84224
2244.84900	0.84133
2242.92043	0.84026
2240.99187	0.83903
2239.06330	0.83791
2237.13474	0.83696
2235.20617	0.83625
2233.27761	0.83579
2231.34904	0.83532
2229.42048	0.83480
2227.49192	0.83431
2225.56335	0.83384
2223.63479	0.83362
2221.70622	0.83381
2219.77766	0.83395
2217.84909	0.83373
2215.92053	0.83356
2213.99196	0.83372
2212.06340	0.83379
2210.13484	0.83335
2208.20627	0.83239
2206.27771	0.83159
2204.34914	0.83140
2202.42058	0.83095
2200.49201	0.82988
2198.56345	0.82892
2196.63488	0.82823
2194.70632	0.82737
2192.77776	0.82630
2190.84919	0.82520
2188.92063	0.82407
2186.99206	0.82297
2185.06350	0.82232
2183.13493	0.82236
2181.20637	0.82224
2179.27781	0.82153
2177.34924	0.82090
2175.42068	0.82072
2173.49211	0.82066
2171.56355	0.82043
2169.63498	0.82004
2167.70642	0.81978
2165.77785	0.81993
2163.84929	0.82023
2161.92073	0.81991
2159.99216	0.81876
2158.06360	0.81739
2156.13503	0.81624
2154.20647	0.81531
2152.27790	0.81435
2150.34934	0.81308
2148.42077	0.81166
2146.49221	0.81036
2144.56365	0.80919
2142.63508	0.80807
2140.70652	0.80717
2138.77795	0.80651
2136.84939	0.80584
2134.92082	0.80507
2132.99226	0.80429
2131.06369	0.80355
2129.13513	0.80292
2127.20657	0.80239
2125.27800	0.80178
2123.34944	0.80111
2121.42087	0.80052
2119.49231	0.79996
2117.56374	0.79956
2115.63518	0.79944
2113.70661	0.79925
2111.77805	0.79879
2109.84949	0.79816
2107.92092	0.79744
2105.99236	0.79677
2104.06379	0.79621
2102.13523	0.79551
2100.20666	0.79440
2098.27810	0.79315
2096.34953	0.79222
2094.42097	0.79152
2092.49241	0.79057
2090.56384	0.78936
2088.63528	0.78814
2086.70671	0.78701
2084.77815	0.78607
2082.84958	0.78516
2080.92102	0.78412
2078.99245	0.78315
2077.06389	0.78242
2075.13533	0.78182
2073.20676	0.78127
2071.27820	0.78084
2069.34963	0.78060
2067.42107	0.78048
2065.49250	0.78022
2063.56394	0.77963
2061.63537	0.77895
2059.70681	0.77831
2057.77825	0.77761
2055.84968	0.77690
2053.92112	0.77623
2051.99255	0.77555
2050.06399	0.77471
2048.13542	0.77354
2046.20686	0.77232
2044.27830	0.77150
2042.34973	0.77078
2040.42117	0.76933
2038.49260	0.76733
2036.56404	0.76555
2034.63547	0.76417
2032.70691	0.76285
2030.77834	0.76141
2028.84978	0.76010
2026.92122	0.75903
2024.99265	0.75807
2023.06409	0.75730
2021.13552	0.75707
2019.20696	0.75738
2017.27839	0.75714
2015.34983	0.75581
2013.42126	0.75444
2011.49270	0.75365
2009.56414	0.75312
2007.63557	0.75243
2005.70701	0.75139
2003.77844	0.75012
2001.84988	0.74868
1999.92131	0.74718
1997.99275	0.74560
1996.06418	0.74438
1994.13562	0.74408
1992.20706	0.74358
1990.27849	0.74172
1988.34993	0.73941
1986.42136	0.73751
1984.49280	0.73617
1982.56423	0.73530
1980.63567	0.73450
1978.70710	0.73344
1976.77854	0.73233
1974.84998	0.73167
1972.92141	0.73154
1970.99285	0.73214
1969.06428	0.73337
1967.13572	0.73341
1965.20715	0.73147
1963.27859	0.72963
1961.35002	0.72880
1959.42146	0.72815
1957.49290	0.72732
1955.56433	0.72632
1953.63577	0.72512
1951.70720	0.72394
1949.77864	0.72316
1947.85007	0.72317
1945.92151	0.72409
1943.99294	0.72494
1942.06438	0.72359
1940.13582	0.72052
1938.20725	0.71847
1936.27869	0.71775
1934.35012	0.71723
1932.42156	0.71647
1930.49299	0.71569
1928.56443	0.71500
1926.63586	0.71491
1924.70730	0.71584
1922.77874	0.71608
1920.85017	0.71501
1918.92161	0.71382
1916.99304	0.71156
1915.06448	0.70879
1913.13591	0.70780
1911.20735	0.70832
1909.27878	0.70804
1907.35022	0.70594
1905.42166	0.70361
1903.49309	0.70220
1901.56453	0.70133
1899.63596	0.70074
1897.70740	0.70085
1895.77883	0.70122
1893.85027	0.70094
1891.92171	0.70092
1889.99314	0.70100
1888.06458	0.69948
1886.13601	0.69753
1884.20745	0.69618
1882.27888	0.69510
1880.35032	0.69433
1878.42175	0.69345
1876.49319	0.69233
1874.56463	0.69191
1872.63606	0.69371
1870.70750	0.69794
1868.77893	0.70019
1866.85037	0.69612
1864.92180	0.69092
1862.99324	0.68836
1861.06467	0.68747
1859.13611	0.68680
1857.20755	0.68577
1855.27898	0.68460
1853.35042	0.68383
1851.42185	0.68396
1849.49329	0.68524
1847.56472	0.68756
1845.63616	0.68983
1843.70759	0.68861
1841.77903	0.68436
1839.85047	0.68170
1837.92190	0.68091
1835.99334	0.68007
1834.06477	0.67980
1832.13621	0.68213
1830.20764	0.68483
1828.27908	0.68384
1826.35051	0.68146
1824.42195	0.67898
1822.49339	0.67625
1820.56482	0.67479
1818.63626	0.67462
1816.70769	0.67464
1814.77913	0.67515
1812.85056	0.67688
1810.92200	0.67819
1808.99343	0.67739
1807.06487	0.67620
1805.13631	0.67684
1803.20774	0.67937
1801.27918	0.68151
1799.35061	0.68162
1797.42205	0.68193
1795.49348	0.68423
1793.56492	0.68697
1791.63635	0.68501
1789.70779	0.67914
1787.77923	0.67603
1785.85066	0.67593
1783.92210	0.67674
1781.99353	0.67773
1780.06497	0.67786
1778.13640	0.67757
1776.20784	0.67976
1774.27927	0.68523
1772.35071	0.68937
1770.42215	0.68706
1768.49358	0.68305
1766.56502	0.68145
1764.63645	0.68348
1762.70789	0.68796
1760.77932	0.69145
1758.85076	0.69394
1756.92220	0.69716
1754.99363	0.70118
1753.06507	0.70834
1751.13650	0.72056
1749.20794	0.73232
1747.27937	0.73789
1745.35081	0.74151
1743.42224	0.74611
1741.49368	0.75132
1739.56512	0.75588
1737.63655	0.75989
1735.70799	0.76604
1733.77942	0.77267
1731.85086	0.77257
1729.92229	0.77002
1727.99373	0.76952
1726.06516	0.77302
1724.13660	0.78019
1722.20804	0.78871
1720.27947	0.79984
1718.35091	0.81781
1716.42234	0.83422
1714.49378	0.83728
1712.56521	0.83958
1710.63665	0.84786
1708.70808	0.86230
1706.77952	0.88321
1704.85096	0.90616
1702.92239	0.92593
1700.99383	0.95503
1699.06526	0.99688
1697.13670	1.02717
1695.20813	1.04757
1693.27957	1.06287
1691.35100	1.08032
1689.42244	1.10441
1687.49388	1.12810
1685.56531	1.15375
1683.63675	1.18367
1681.70818	1.19685
1679.77962	1.20270
1677.85105	1.21158
1675.92249	1.22713
1673.99392	1.24622
1672.06536	1.26200
1670.13680	1.27605
1668.20823	1.28671
1666.27967	1.29411
1664.35110	1.30462
1662.42254	1.31806
1660.49397	1.32715
1658.56541	1.33326
1656.63684	1.34073
1654.70828	1.35186
1652.77972	1.36022
1650.85115	1.35906
1648.92259	1.35991
1646.99402	1.35772
1645.06546	1.34735
1643.13689	1.34025
1641.20833	1.33965
1639.27976	1.34346
1637.35120	1.34816
1635.42264	1.34590
1633.49407	1.33858
1631.56551	1.33465
1629.63694	1.33212
1627.70838	1.32897
1625.77981	1.32510
1623.85125	1.31784
1621.92269	1.30479
1619.99412	1.29282
1618.06556	1.28013
1616.13699	1.25644
1614.20843	1.23277
1612.27986	1.21669
1610.35130	1.20293
1608.42273	1.18840
1606.49417	1.17446
1604.56561	1.16401
1602.63704	1.15668
1600.70848	1.15103
1598.77991	1.14751
1596.85135	1.14652
1594.92278	1.14635
1592.99422	1.14638
1591.06565	1.14818
1589.13709	1.15212
1587.20853	1.15805
1585.27996	1.16598
1583.35140	1.17535
1581.42283	1.18590
1579.49427	1.19841
1577.56570	1.21411
1575.63714	1.22803
1573.70857	1.23431
1571.78001	1.24166
1569.85145	1.25394
1567.92288	1.26380
1565.99432	1.27001
1564.06575	1.27715
1562.13719	1.28586
1560.20862	1.30157
1558.28006	1.32048
1556.35149	1.32042
1554.42293	1.31803
1552.49437	1.31736
1550.56580	1.31798
1548.63724	1.31848
1546.70867	1.32093
1544.78011	1.32978
1542.85154	1.34467
1540.92298	1.35033
1538.99441	1.32891
1537.06585	1.31385
1535.13729	1.30931
1533.20872	1.30475
1531.28016	1.29769
1529.35159	1.29470
1527.42303	1.29589
1525.49446	1.29754
1523.56590	1.29908
1521.63733	1.29723
1519.70877	1.29151
1517.78021	1.28652
1515.85164	1.27726
1513.92308	1.26507
1511.99451	1.25721
1510.06595	1.25674
1508.13738	1.25347
1506.20882	1.21771
1504.28025	1.18743
1502.35169	1.17408
1500.42313	1.16512
1498.49456	1.15364
1496.56600	1.13291
1494.63743	1.11290
1492.70887	1.10329
1490.78030	1.09810
1488.85174	1.08509
1486.92317	1.06604
1484.99461	1.05255
1483.06605	1.04581
1481.13748	1.04249
1479.20892	1.04163
1477.28035	1.04648
1475.35179	1.05945
1473.42322	1.07588
1471.49466	1.08272
1469.56610	1.08365
1467.63753	1.08842
1465.70897	1.09678
1463.78040	1.10283
1461.85184	1.10697
1459.92327	1.11578
1457.99471	1.12974
1456.06614	1.13075
1454.13758	1.12208
1452.20902	1.11747
1450.28045	1.11714
1448.35189	1.11775
1446.42332	1.11496
1444.49476	1.11002
1442.56619	1.10573
1440.63763	1.10348
1438.70906	1.10362
1436.78050	1.10193
1434.85194	1.09489
1432.92337	1.08785
1430.99481	1.08094
1429.06624	1.07234
1427.13768	1.06613
1425.20911	1.06469
1423.28055	1.06577
1421.35198	1.06820
1419.42342	1.07138
1417.49486	1.06975
1415.56629	1.06527
1413.63773	1.06314
1411.70916	1.06266
1409.78060	1.06228
1407.85203	1.06296
1405.92347	1.06544
1403.99490	1.06744
1402.06634	1.06916
1400.13778	1.07313
1398.20921	1.07823
1396.28065	1.08161
1394.35208	1.08165
1392.42352	1.08073
1390.49495	1.08427
1388.56639	1.09407
1386.63782	1.10587
1384.70926	1.11435
1382.78070	1.12130
1380.85213	1.12696
1378.92357	1.12868
1376.99500	1.12686
1375.06644	1.12093
1373.13787	1.10882
1371.20931	1.09550
1369.28074	1.08335
1367.35218	1.07110
1365.42362	1.06129
1363.49505	1.05380
1361.56649	1.04511
1359.63792	1.03683
1357.70936	1.03186
1355.78079	1.02957
1353.85223	1.02839
1351.92366	1.02783
1349.99510	1.02815
1348.06654	1.02929
1346.13797	1.03097
1344.20941	1.03377
1342.28084	1.03907
1340.35228	1.04660
1338.42371	1.05226
1336.49515	1.05503
1334.56659	1.05910
1332.63802	1.06567
1330.70946	1.07291
1328.78089	1.07871
1326.85233	1.08220
1324.92376	1.08422
1322.99520	1.08597
1321.06663	1.08829
1319.13807	1.09051
1317.20951	1.09115
1315.28094	1.09096
1313.35238	1.09085
1311.42381	1.08982
1309.49525	1.08785
1307.56668	1.08600
1305.63812	1.08455
1303.70955	1.08330
1301.78099	1.08213
1299.85243	1.08102
1297.92386	1.08026
1295.99530	1.08022
1294.06673	1.08126
1292.13817	1.08352
1290.20960	1.08679
1288.28104	1.09060
1286.35247	1.09417
1284.42391	1.09698
1282.49535	1.09908
1280.56678	1.10065
1278.63822	1.10226
1276.70965	1.10463
1274.78109	1.10793
1272.85252	1.11206
1270.92396	1.11652
1268.99539	1.12059
1267.06683	1.12418
1265.13827	1.12714
1263.20970	1.12884
1261.28114	1.12879
1259.35257	1.12755
1257.42401	1.12647
1255.49544	1.12599
1253.56688	1.12566
1251.63831	1.12553
1249.70975	1.12614
1247.78119	1.12716
1245.85262	1.12753
1243.92406	1.12708
1241.99549	1.12663
1240.06693	1.12622
1238.13836	1.12484
1236.20980	1.12208
1234.28123	1.11858
1232.35267	1.11489
1230.42411	1.11091
1228.49554	1.10637
1226.56698	1.10119
1224.63841	1.09567
1222.70985	1.09046
1220.78128	1.08578
1218.85272	1.08183
1216.92415	1.07939
1214.99559	1.07892
1213.06703	1.08053
1211.13846	1.08379
1209.20990	1.08757
1207.28133	1.09090
1205.35277	1.09231
1203.42420	1.09041
1201.49564	1.08582
1199.56708	1.08061
1197.63851	1.07618
1195.70995	1.07269
1193.78138	1.07016
1191.85282	1.06843
1189.92425	1.06705
1187.99569	1.06642
1186.06712	1.06704
1184.13856	1.06857
1182.21000	1.07018
1180.28143	1.07213
1178.35287	1.07625
1176.42430	1.08297
1174.49574	1.09030
1172.56717	1.09668
1170.63861	1.10279
1168.71004	1.11039
1166.78148	1.11995
1164.85292	1.12991
1162.92435	1.13831
1160.99579	1.14399
1159.06722	1.14610
1157.13866	1.14495
1155.21009	1.14156
1153.28153	1.13592
1151.35296	1.12767
1149.42440	1.11788
1147.49584	1.10864
1145.56727	1.10112
1143.63871	1.09599
1141.71014	1.09411
1139.78158	1.09523
1137.85301	1.09830
1135.92445	1.10325
1133.99588	1.11050
1132.06732	1.11928
1130.13876	1.12912
1128.21019	1.14087
1126.28163	1.15396
1124.35306	1.16504
1122.42450	1.17183
1120.49593	1.17594
1118.56737	1.17952
1116.63880	1.18185
1114.71024	1.18070
1112.78168	1.17588
1110.85311	1.16980
1108.92455	1.16455
1106.99598	1.16056
1105.06742	1.15696
1103.13885	1.15284
1101.21029	1.14915
1099.28172	1.14748
1097.35316	1.14805
1095.42460	1.15083
1093.49603	1.15603
1091.56747	1.16252
1089.63890	1.16928
1087.71034	1.17738
1085.78177	1.18734
1083.85321	1.19717
1081.92464	1.20489
1079.99608	1.21014
1078.06752	1.21277
1076.13895	1.21305
1074.21039	1.21170
1072.28182	1.20892
1070.35326	1.20472
1068.42469	1.20040
1066.49613	1.19687
1064.56756	1.19257
1062.63900	1.18644
1060.71044	1.17976
1058.78187	1.17387
1056.85331	1.16882
1054.92474	1.16421
1052.99618	1.16003
1051.06761	1.15622
1049.13905	1.15358
1047.21049	1.15426
1045.28192	1.15835
1043.35336	1.16363
1041.42479	1.16942
1039.49623	1.17518
1037.56766	1.17895
1035.63910	1.18086
1033.71053	1.18181
1031.78197	1.18089
1029.85341	1.17782
1027.92484	1.17267
1025.99628	1.16554
1024.06771	1.15858
1022.13915	1.15447
1020.21058	1.15333
1018.28202	1.15261
1016.35345	1.15017
1014.42489	1.14537
1012.49633	1.13759
1010.56776	1.12688
1008.63920	1.11463
1006.71063	1.10160
1004.78207	1.08840
1002.85350	1.07653
1000.92494	1.06687
998.99637	1.05936
997.06781	1.05340
995.13925	1.04777
993.21068	1.04116
991.28212	1.03315
989.35355	1.02446
987.42499	1.01595
985.49642	1.00829
983.56786	1.00230
981.63929	0.99831
979.71073	0.99604
977.78217	0.99494
975.85360	0.99394
973.92504	0.99200
971.99647	0.98871
970.06791	0.98370
968.13934	0.97723
966.21078	0.97075
964.28221	0.96617
962.35365	0.96575
960.42509	0.97067
958.49652	0.97927
956.56796	0.98835
954.63939	0.99445
952.71083	0.99447
950.78226	0.98807
948.85370	0.97784
946.92513	0.96679
944.99657	0.95705
943.06801	0.94953
941.13944	0.94385
939.21088	0.93917
937.28231	0.93498
935.35375	0.93155
933.42518	0.92933
931.49662	0.92796
929.56805	0.92664
927.63949	0.92528
925.71093	0.92447
923.78236	0.92405
921.85380	0.92289
919.92523	0.92033
917.99667	0.91667
916.06810	0.91214
914.13954	0.90699
912.21098	0.90255
910.28241	0.89999
908.35385	0.89912
906.42528	0.89980
904.49672	0.90212
902.56815	0.90484
900.63959	0.90657
898.71102	0.90741
896.78246	0.90800
894.85390	0.90848
892.92533	0.90800
890.99677	0.90589
889.06820	0.90305
887.13964	0.90064
885.21107	0.89862
883.28251	0.89659
881.35394	0.89466
879.42538	0.89302
877.49682	0.89164
875.56825	0.89026
873.63969	0.88871
871.71112	0.88723
869.78256	0.88586
867.85399	0.88450
865.92543	0.88311
863.99686	0.88201
862.06830	0.88170
860.13974	0.88184
858.21117	0.88212
856.28261	0.88294
854.35404	0.88455
852.42548	0.88671
850.49691	0.88863
848.56835	0.88956
846.63978	0.88967
844.71122	0.88983
842.78266	0.89070
840.85409	0.89180
838.92553	0.89263
836.99696	0.89365
835.06840	0.89524
833.13983	0.89725
831.21127	0.89926
829.28270	0.90099
827.35414	0.90271
825.42558	0.90444
823.49701	0.90600
821.56845	0.90725
819.63988	0.90811
817.71132	0.90896
815.78275	0.91018
813.85419	0.91157
811.92562	0.91251
809.99706	0.91268
808.06850	0.91292
806.13993	0.91353
804.21137	0.91372
802.28280	0.91299
800.35424	0.91108
798.42567	0.90853
796.49711	0.90676
794.56854	0.90591
792.63998	0.90522
790.71142	0.90459
788.78285	0.90454
786.85429	0.90535
784.92572	0.90644
782.99716	0.90752
781.06859	0.90899
779.14003	0.91067
777.21147	0.91209
775.28290	0.91340
773.35434	0.91434
771.42577	0.91460
769.49721	0.91500
767.56864	0.91660
765.64008	0.91887
763.71151	0.92026
761.78295	0.92096
759.85439	0.92222
757.92582	0.92364
755.99726	0.92447
754.06869	0.92515
752.14013	0.92610
750.21156	0.92712
748.28300	0.92764
746.35443	0.92792
744.42587	0.92904
742.49731	0.93070
740.56874	0.93160
738.64018	0.93144
736.71161	0.93128
734.78305	0.93206
732.85448	0.93337
730.92592	0.93481
728.99735	0.93664
727.06879	0.93889
725.14023	0.94195
723.21166	0.94622
721.28310	0.95140
719.35453	0.95600
717.42597	0.95834
715.49740	0.95911
713.56884	0.96004
711.64027	0.96205
709.71171	0.96525
707.78315	0.96909
705.85458	0.97284
703.92602	0.97550
701.99745	0.97638
700.06889	0.97673
698.14032	0.97782
696.21176	0.97850
694.28319	0.97789
692.35463	0.97721
690.42607	0.97647
688.49750	0.97456
686.56894	0.97221
684.64037	0.97110
682.71181	0.97099
680.78324	0.97049
678.85468	0.96872
676.92611	0.96575
674.99755	0.96364
673.06899	0.96486
671.14042	0.96927
669.21186	0.97395
667.28329	0.97293
665.35473	0.97131
663.42616	0.97407
661.49760	0.97843
659.56903	0.98210
657.64047	0.98524
655.71191	0.98734
653.78334	0.98898
651.85478	0.99112
649.92621	0.99316
647.99765	0.99515
646.06908	0.99766
644.14052	1.00160
642.21195	1.00688
640.28339	1.01175
638.35483	1.01607
636.42626	1.02017
634.49770	1.02263
632.56913	1.02329
630.64057	1.02389
628.71200	1.02644
626.78344	1.03175
624.85488	1.03784
622.92631	1.04268
620.99775	1.04671
619.06918	1.05059
617.14062	1.05507
615.21205	1.06077
613.28349	1.06716
611.35492	1.07497
609.42636	1.08291
607.49780	1.08685
605.56923	1.08918
603.64067	1.09500
601.71210	1.10389
599.78354	1.11392
