3997.91406	0.87711
3995.98550	0.87633
3994.05693	0.87510
3992.12837	0.87400
3990.19980	0.87396
3988.27124	0.87526
3986.34268	0.87578
3984.41411	0.87406
3982.48555	0.87220
3980.55698	0.87183
3978.62842	0.87159
3976.69985	0.87047
3974.77129	0.86925
3972.84272	0.86897
3970.91416	0.86996
3968.98560	0.87143
3967.05703	0.87226
3965.12847	0.87166
3963.19990	0.87022
3961.27134	0.86963
3959.34277	0.86992
3957.41421	0.87025
3955.48564	0.87019
3953.55708	0.86979
3951.62852	0.87005
3949.69995	0.87032
3947.77139	0.86939
3945.84282	0.86870
3943.91426	0.86894
3941.98569	0.86911
3940.05713	0.86873
3938.12856	0.86815
3936.20000	0.86795
3934.27144	0.86796
3932.34287	0.86743
3930.41431	0.86738
3928.48574	0.86815
3926.55718	0.86785
3924.62861	0.86622
3922.70005	0.86527
3920.77148	0.86537
3918.84292	0.86518
3916.91436	0.86461
3914.98579	0.86492
3913.05723	0.86604
3911.12866	0.86638
3909.20010	0.86519
3907.27153	0.86350
3905.34297	0.86189
3903.41440	0.86078
3901.48584	0.86006
3899.55728	0.85881
3897.62871	0.85864
3895.70015	0.85957
3893.77158	0.85894
3891.84302	0.85646
3889.91445	0.85659
3887.98589	0.85799
3886.05733	0.85590
3884.12876	0.85247
3882.20020	0.85133
3880.27163	0.85057
3878.34307	0.85041
3876.41450	0.85072
3874.48594	0.85004
3872.55737	0.84880
3870.62881	0.84781
3868.70025	0.84781
3866.77168	0.84891
3864.84312	0.84884
3862.91455	0.84701
3860.98599	0.84598
3859.05742	0.84618
3857.12886	0.84625
3855.20029	0.84430
3853.27173	0.84069
3851.34317	0.84004
3849.41460	0.84015
3847.48604	0.84034
3845.55747	0.84109
3843.62891	0.84111
3841.70034	0.83928
3839.77178	0.83718
3837.84321	0.83708
3835.91465	0.83872
3833.98609	0.83984
3832.05752	0.84010
3830.12896	0.84045
3828.20039	0.84105
3826.27183	0.84208
3824.34326	0.84329
3822.41470	0.84311
3820.48613	0.84133
3818.55757	0.84104
3816.62901	0.84249
3814.70044	0.84431
3812.77188	0.84537
3810.84331	0.84550
3808.91475	0.84471
3806.98618	0.84311
3805.05762	0.84189
3803.12905	0.84107
3801.20049	0.84059
3799.27193	0.84102
3797.34336	0.84057
3795.41480	0.83940
3793.48623	0.83874
3791.55767	0.83795
3789.62910	0.83685
3787.70054	0.83627
3785.77197	0.83636
3783.84341	0.83639
3781.91485	0.83608
3779.98628	0.83512
3778.05772	0.83379
3776.12915	0.83319
3774.20059	0.83283
3772.27202	0.83171
3770.34346	0.83018
3768.41489	0.83024
3766.48633	0.83128
3764.55777	0.83164
3762.62920	0.83162
3760.70064	0.83085
3758.77207	0.82883
3756.84351	0.82738
3754.91494	0.82794
3752.98638	0.82915
3751.05781	0.82729
3749.12925	0.82477
3747.20069	0.82602
3745.27212	0.82791
3743.34356	0.82713
3741.41499	0.82590
3739.48643	0.82534
3737.55786	0.82402
3735.62930	0.82167
3733.70074	0.82155
3731.77217	0.82376
3729.84361	0.82546
3727.91504	0.82601
3725.98648	0.82573
3724.05791	0.82525
3722.12935	0.82513
3720.20078	0.82501
3718.27222	0.82501
3716.34366	0.82658
3714.41509	0.82986
3712.48653	0.83164
3710.55796	0.82949
3708.62940	0.82845
3706.70083	0.82981
3704.77227	0.83165
3702.84370	0.83227
3700.91514	0.83164
3698.98658	0.83204
3697.05801	0.83407
3695.12945	0.83662
3693.20088	0.83875
3691.27232	0.83998
3689.34375	0.83988
3687.41519	0.84088
3685.48662	0.84408
3683.55806	0.84791
3681.62950	0.85128
3679.70093	0.85412
3677.77237	0.85662
3675.84380	0.85895
3673.91524	0.86207
3671.98667	0.86641
3670.05811	0.87243
3668.12954	0.87745
3666.20098	0.88106
3664.27242	0.88528
3662.34385	0.89045
3660.41529	0.89603
3658.48672	0.90159
3656.55816	0.90810
3654.62959	0.91467
3652.70103	0.91991
3650.77246	0.92463
3648.84390	0.92902
3646.91534	0.93543
3644.98677	0.94309
3643.05821	0.94985
3641.12964	0.95511
3639.20108	0.96040
3637.27251	0.96815
3635.34395	0.97831
3633.41538	0.98805
3631.48682	0.99514
3629.55826	1.00091
3627.62969	1.00793
3625.70113	1.01601
3623.77256	1.02411
3621.84400	1.03175
3619.91543	1.04074
3617.98687	1.05126
3616.05830	1.05929
3614.12974	1.06402
3612.20118	1.06808
3610.27261	1.07489
3608.34405	1.08509
3606.41548	1.09566
3604.48692	1.10403
3602.55835	1.11253
3600.62979	1.12260
3598.70123	1.13167
3596.77266	1.13915
3594.84410	1.14724
3592.91553	1.15487
3590.98697	1.16083
3589.05840	1.16825
3587.12984	1.18027
3585.20127	1.19369
3583.27271	1.20476
3581.34415	1.21346
3579.41558	1.22053
3577.48702	1.22623
3575.55845	1.23219
3573.62989	1.24139
3571.70132	1.25352
3569.77276	1.26490
3567.84419	1.27438
3565.91563	1.28389
3563.98707	1.29326
3562.05850	1.30260
3560.12994	1.31155
3558.20137	1.32099
3556.27281	1.33159
3554.34424	1.34197
3552.41568	1.35227
3550.48711	1.36217
3548.55855	1.37142
3546.62999	1.38210
3544.70142	1.39445
3542.77286	1.40463
3540.84429	1.41185
3538.91573	1.41933
3536.98716	1.42767
3535.05860	1.43512
3533.13003	1.44199
3531.20147	1.44872
3529.27291	1.45479
3527.34434	1.46193
3525.41578	1.47181
3523.48721	1.48228
3521.55865	1.49126
3519.63008	1.50044
3517.70152	1.51120
3515.77295	1.52177
3513.84439	1.53301
3511.91583	1.54510
3509.98726	1.55378
3508.05870	1.55984
3506.13013	1.56786
3504.20157	1.57937
3502.27300	1.59465
3500.34444	1.61039
3498.41587	1.61933
3496.48731	1.62120
3494.55875	1.62558
3492.63018	1.63661
3490.70162	1.65011
3488.77305	1.66112
3486.84449	1.66802
3484.91592	1.67338
3482.98736	1.67828
3481.05879	1.68073
3479.13023	1.68027
3477.20167	1.67777
3475.27310	1.67419
3473.34454	1.67473
3471.41597	1.68303
3469.48741	1.69376
3467.55884	1.70085
3465.63028	1.70530
3463.70171	1.70862
3461.77315	1.71091
3459.84459	1.71549
3457.91602	1.72192
3455.98746	1.72407
3454.05889	1.72266
3452.13033	1.72516
3450.20176	1.73034
3448.27320	1.73189
3446.34464	1.73346
3444.41607	1.73872
3442.48751	1.74448
3440.55894	1.75222
3438.63038	1.76469
3436.70181	1.77250
3434.77325	1.76754
3432.84468	1.76431
3430.91612	1.77228
3428.98756	1.77772
3427.05899	1.77240
3425.13043	1.76446
3423.20186	1.76286
3421.27330	1.76418
3419.34473	1.75763
3417.41617	1.75195
3415.48760	1.75842
3413.55904	1.76607
3411.63048	1.76754
3409.70191	1.76822
3407.77335	1.76782
3405.84478	1.76647
3403.91622	1.76594
3401.98765	1.76725
3400.05909	1.77501
3398.13052	1.78455
3396.20196	1.78670
3394.27340	1.78707
3392.34483	1.78877
3390.41627	1.78987
3388.48770	1.79573
3386.55914	1.80263
3384.63057	1.80189
3382.70201	1.79913
3380.77344	1.80328
3378.84488	1.80927
3376.91632	1.80863
3374.98775	1.80842
3373.05919	1.81584
3371.13062	1.82297
3369.20206	1.82429
3367.27349	1.82688
3365.34493	1.83410
3363.41636	1.83994
3361.48780	1.83674
3359.55924	1.82536
3357.63067	1.81931
3355.70211	1.82023
3353.77354	1.82006
3351.84498	1.82504
3349.91641	1.83498
3347.98785	1.83648
3346.05928	1.83138
3344.13072	1.83295
3342.20216	1.84264
3340.27359	1.84959
3338.34503	1.84532
3336.41646	1.83391
3334.48790	1.82610
3332.55933	1.82553
3330.63077	1.83310
3328.70220	1.84703
3326.77364	1.85352
3324.84508	1.84846
3322.91651	1.84506
3320.98795	1.84779
3319.05938	1.85257
3317.13082	1.85734
3315.20225	1.86162
3313.27369	1.86527
3311.34513	1.86767
3309.41656	1.87009
3307.48800	1.87176
3305.55943	1.86930
3303.63087	1.86573
3301.70230	1.86390
3299.77374	1.86201
3297.84517	1.85975
3295.91661	1.85683
3293.98805	1.85373
3292.05948	1.85137
3290.13092	1.84962
3288.20235	1.85190
3286.27379	1.85735
3284.34522	1.85880
3282.41666	1.85436
3280.48809	1.84767
3278.55953	1.84341
3276.63097	1.84039
3274.70240	1.83461
3272.77384	1.82989
3270.84527	1.83062
3268.91671	1.83494
3266.98814	1.83695
3265.05958	1.83143
3263.13101	1.82030
3261.20245	1.81293
3259.27389	1.81385
3257.34532	1.81539
3255.41676	1.81624
3253.48819	1.82187
3251.55963	1.82362
3249.63106	1.81453
3247.70250	1.80365
3245.77393	1.79729
3243.84537	1.79258
3241.91681	1.78825
3239.98824	1.78406
3238.05968	1.77619
3236.13111	1.76737
3234.20255	1.76568
3232.27398	1.76956
3230.34542	1.77129
3228.41685	1.76797
3226.48829	1.76123
3224.55973	1.75655
3222.63116	1.75731
3220.70260	1.75610
3218.77403	1.74815
3216.84547	1.74097
3214.91690	1.73775
3212.98834	1.73567
3211.05977	1.73217
3209.13121	1.72492
3207.20265	1.71967
3205.27408	1.72294
3203.34552	1.72825
3201.41695	1.72836
3199.48839	1.72671
3197.55982	1.72521
3195.63126	1.71990
3193.70269	1.71076
3191.77413	1.70190
3189.84557	1.69765
3187.91700	1.69934
3185.98844	1.70078
3184.05987	1.69679
3182.13131	1.69150
3180.20274	1.68718
3178.27418	1.68211
3176.34562	1.67961
3174.41705	1.68096
3172.48849	1.68044
3170.55992	1.67585
3168.63136	1.67178
3166.70279	1.67183
3164.77423	1.67378
3162.84566	1.67026
3160.91710	1.65873
3158.98854	1.64844
3157.05997	1.64401
3155.13141	1.63922
3153.20284	1.63390
3151.27428	1.63254
3149.34571	1.63284
3147.41715	1.63246
3145.48858	1.63344
3143.56002	1.63441
3141.63146	1.63034
3139.70289	1.62202
3137.77433	1.61597
3135.84576	1.61441
3133.91720	1.61338
3131.98863	1.61083
3130.06007	1.60900
3128.13150	1.61025
3126.20294	1.61434
3124.27438	1.61637
3122.34581	1.61385
3120.41725	1.61169
3118.48868	1.61124
3116.56012	1.60955
3114.63155	1.60850
3112.70299	1.60939
3110.77442	1.60871
3108.84586	1.60504
3106.91730	1.60116
3104.98873	1.59896
3103.06017	1.59618
3101.13160	1.59313
3099.20304	1.59338
3097.27447	1.59429
3095.34591	1.59301
3093.41734	1.59251
3091.48878	1.59316
3089.56022	1.59216
3087.63165	1.59119
3085.70309	1.59329
3083.77452	1.59442
3081.84596	1.59141
3079.91739	1.58898
3077.98883	1.58950
3076.06026	1.58997
3074.13170	1.58879
3072.20314	1.58625
3070.27457	1.58234
3068.34601	1.57848
3066.41744	1.57587
3064.48888	1.57345
3062.56031	1.57066
3060.63175	1.56706
3058.70318	1.56300
3056.77462	1.55995
3054.84606	1.55736
3052.91749	1.55353
3050.98893	1.54939
3049.06036	1.54711
3047.13180	1.54396
3045.20323	1.53746
3043.27467	1.53045
3041.34610	1.52226
3039.41754	1.51172
3037.48898	1.50423
3035.56041	1.50216
3033.63185	1.50142
3031.70328	1.50006
3029.77472	1.49712
3027.84615	1.49103
3025.91759	1.48429
3023.98903	1.47824
3022.06046	1.47177
3020.13190	1.46713
3018.20333	1.46612
3016.27477	1.46521
3014.34620	1.46154
3012.41764	1.45788
3010.48907	1.45571
3008.56051	1.45336
3006.63195	1.45111
3004.70338	1.44884
3002.77482	1.44618
3000.84625	1.44458
2998.91769	1.44484
2996.98912	1.44728
2995.06056	1.45093
2993.13199	1.45382
2991.20343	1.45620
2989.27487	1.45990
2987.34630	1.46517
2985.41774	1.47090
2983.48917	1.47700
2981.56061	1.48370
2979.63204	1.49044
2977.70348	1.49805
2975.77491	1.50715
2973.84635	1.51657
2971.91779	1.52520
2969.98922	1.53173
2968.06066	1.53683
2966.13209	1.54332
2964.20353	1.55063
2962.27496	1.55407
2960.34640	1.55248
2958.41783	1.55146
2956.48927	1.55266
2954.56071	1.55096
2952.63214	1.54485
2950.70358	1.53817
2948.77501	1.53477
2946.84645	1.53481
2944.91788	1.53676
2942.98932	1.54208
2941.06075	1.55184
2939.13219	1.56282
2937.20363	1.57243
2935.27506	1.58248
2933.34650	1.59312
2931.41793	1.60157
2929.48937	1.60729
2927.56080	1.61080
2925.63224	1.61157
2923.70367	1.61165
2921.77511	1.61410
2919.84655	1.61484
2917.91798	1.60641
2915.98942	1.58920
2914.06085	1.56920
2912.13229	1.55007
2910.20372	1.53318
2908.27516	1.52053
2906.34659	1.51165
2904.41803	1.50369
2902.48947	1.49607
2900.56090	1.48978
2898.63234	1.48604
2896.70377	1.48341
2894.77521	1.47884
2892.84664	1.47430
2890.91808	1.47156
2888.98952	1.46854
2887.06095	1.46493
2885.13239	1.46094
2883.20382	1.45708
2881.27526	1.45601
2879.34669	1.45780
2877.41813	1.45935
2875.48956	1.45942
2873.56100	1.45811
2871.63244	1.45432
2869.70387	1.44877
2867.77531	1.44349
2865.84674	1.43818
2863.91818	1.43213
2861.98961	1.42719
2860.06105	1.42678
2858.13248	1.43117
2856.20392	1.43729
2854.27536	1.44382
2852.34679	1.44978
2850.41823	1.44952
2848.48966	1.43539
2846.56110	1.40833
2844.63253	1.37880
2842.70397	1.35466
2840.77540	1.33770
2838.84684	1.32669
2836.91828	1.31781
2834.98971	1.30850
2833.06115	1.30060
2831.13258	1.29483
2829.20402	1.28903
2827.27545	1.28297
2825.34689	1.27794
2823.41832	1.27328
2821.48976	1.26833
2819.56120	1.26405
2817.63263	1.26038
2815.70407	1.25639
2813.77550	1.25309
2811.84694	1.25140
2809.91837	1.24977
2807.98981	1.24695
2806.06124	1.24416
2804.13268	1.24249
2802.20412	1.24071
2800.27555	1.23724
2798.34699	1.23252
2796.41842	1.22813
2794.48986	1.22499
2792.56129	1.22184
2790.63273	1.21742
2788.70416	1.21366
2786.77560	1.21195
2784.84704	1.21039
2782.91847	1.20740
2780.98991	1.20328
2779.06134	1.19894
2777.13278	1.19498
2775.20421	1.19141
2773.27565	1.18823
2771.34708	1.18553
2769.41852	1.18282
2767.48996	1.17949
2765.56139	1.17592
2763.63283	1.17278
2761.70426	1.16995
2759.77570	1.16702
2757.84713	1.16379
2755.91857	1.16049
2753.99001	1.15751
2752.06144	1.15485
2750.13288	1.15276
2748.20431	1.15134
2746.27575	1.14952
2744.34718	1.14721
2742.41862	1.14571
2740.49005	1.14486
2738.56149	1.14349
2736.63293	1.14151
2734.70436	1.13948
2732.77580	1.13704
2730.84723	1.13395
2728.91867	1.13115
2726.99010	1.12876
2725.06154	1.12653
2723.13297	1.12488
2721.20441	1.12359
2719.27585	1.12220
2717.34728	1.12054
2715.41872	1.11824
2713.49015	1.11516
2711.56159	1.11174
2709.63302	1.10844
2707.70446	1.10589
2705.77589	1.10421
2703.84733	1.10262
2701.91877	1.10137
2699.99020	1.10080
2698.06164	1.09944
2696.13307	1.09694
2694.20451	1.09465
2692.27594	1.09343
2690.34738	1.09332
2688.41881	1.09283
2686.49025	1.09063
2684.56169	1.08801
2682.63312	1.08659
2680.70456	1.08636
2678.77599	1.08608
2676.84743	1.08441
2674.91886	1.08187
2672.99030	1.07990
2671.06173	1.07820
2669.13317	1.07624
2667.20461	1.07460
2665.27604	1.07302
2663.34748	1.07090
2661.41891	1.06887
2659.49035	1.06715
2657.56178	1.06499
2655.63322	1.06253
2653.70465	1.06059
2651.77609	1.05878
2649.84753	1.05638
2647.91896	1.05383
2645.99040	1.05183
2644.06183	1.05010
2642.13327	1.04807
2640.20470	1.04624
2638.27614	1.04465
2636.34757	1.04200
2634.41901	1.03879
2632.49045	1.03656
2630.56188	1.03468
2628.63332	1.03231
2626.70475	1.03020
2624.77619	1.02849
2622.84762	1.02657
2620.91906	1.02450
2618.99049	1.02264
2617.06193	1.02062
2615.13337	1.01800
2613.20480	1.01556
2611.27624	1.01418
2609.34767	1.01353
2607.41911	1.01312
2605.49054	1.01279
2603.56198	1.01211
2601.63342	1.01077
2599.70485	1.00916
2597.77629	1.00790
2595.84772	1.00730
2593.91916	1.00682
2591.99059	1.00600
2590.06203	1.00503
2588.13346	1.00372
2586.20490	1.00219
2584.27634	1.00095
2582.34777	0.99944
2580.41921	0.99712
2578.49064	0.99435
2576.56208	0.99166
2574.63351	0.98942
2572.70495	0.98732
2570.77638	0.98484
2568.84782	0.98217
2566.91926	0.97986
2564.99069	0.97795
2563.06213	0.97624
2561.13356	0.97466
2559.20500	0.97287
2557.27643	0.97068
2555.34787	0.96848
2553.41930	0.96652
2551.49074	0.96499
2549.56218	0.96416
2547.63361	0.96378
2545.70505	0.96328
2543.77648	0.96238
2541.84792	0.96139
2539.91935	0.96069
2537.99079	0.96024
2536.06222	0.96000
2534.13366	0.95964
2532.20510	0.95846
2530.27653	0.95642
2528.34797	0.95429
2526.41940	0.95267
2524.49084	0.95123
2522.56227	0.94936
2520.63371	0.94709
2518.70514	0.94464
2516.77658	0.94200
2514.84802	0.93930
2512.91945	0.93675
2510.99089	0.93443
2509.06232	0.93262
2507.13376	0.93120
2505.20519	0.92951
2503.27663	0.92744
2501.34806	0.92563
2499.41950	0.92412
2497.49094	0.92260
2495.56237	0.92169
2493.63381	0.92174
2491.70524	0.92217
2489.77668	0.92234
2487.84811	0.92186
2485.91955	0.92102
2483.99098	0.92061
2482.06242	0.92064
2480.13386	0.92032
2478.20529	0.91961
2476.27673	0.91907
2474.34816	0.91855
2472.41960	0.91783
2470.49103	0.91687
2468.56247	0.91529
2466.63391	0.91320
2464.70534	0.91107
2462.77678	0.90853
2460.84821	0.90520
2458.91965	0.90176
2456.99108	0.89870
2455.06252	0.89568
2453.13395	0.89260
2451.20539	0.88960
2449.27683	0.88673
2447.34826	0.88378
2445.41970	0.88070
2443.49113	0.87783
2441.56257	0.87543
2439.63400	0.87322
2437.70544	0.87125
2435.77687	0.86977
2433.84831	0.86828
2431.91975	0.86647
2429.99118	0.86490
2428.06262	0.86365
2426.13405	0.86225
2424.20549	0.86086
2422.27692	0.85977
2420.34836	0.85892
2418.41979	0.85832
2416.49123	0.85794
2414.56267	0.85730
2412.63410	0.85590
2410.70554	0.85422
2408.77697	0.85312
2406.84841	0.85245
2404.91984	0.85156
2402.99128	0.85016
2401.06271	0.84863
2399.13415	0.84754
2397.20559	0.84677
2395.27702	0.84575
2393.34846	0.84402
2391.41989	0.84169
2389.49133	0.83961
2387.56276	0.83822
2385.63420	0.83698
2383.70563	0.83532
2381.77707	0.83324
2379.84851	0.83094
2377.91994	0.82875
2375.99138	0.82713
2374.06281	0.82615
2372.13425	0.82451
2370.20568	0.82073
2368.27712	0.81634
2366.34855	0.81489
2364.41999	0.81665
2362.49143	0.81709
2360.56286	0.81443
2358.63430	0.81249
2356.70573	0.81403
2354.77717	0.81772
2352.84860	0.81993
2350.92004	0.81994
2348.99147	0.81974
2347.06291	0.82023
2345.13435	0.82072
2343.20578	0.81937
2341.27722	0.81722
2339.34865	0.81623
2337.42009	0.81505
2335.49152	0.81397
2333.56296	0.81416
2331.63440	0.81399
2329.70583	0.81268
2327.77727	0.81187
2325.84870	0.81208
2323.92014	0.81250
2321.99157	0.81252
2320.06301	0.81200
2318.13444	0.81112
2316.20588	0.81032
2314.27732	0.81027
2312.34875	0.81102
2310.42019	0.81139
2308.49162	0.81085
2306.56306	0.81029
2304.63449	0.81031
2302.70593	0.81067
2300.77736	0.81081
2298.84880	0.81053
2296.92024	0.81006
2294.99167	0.80969
2293.06311	0.80943
2291.13454	0.80895
2289.20598	0.80818
2287.27741	0.80742
2285.34885	0.80639
2283.42028	0.80488
2281.49172	0.80331
2279.56316	0.80197
2277.63459	0.80079
2275.70603	0.79955
2273.77746	0.79804
2271.84890	0.79641
2269.92033	0.79480
2267.99177	0.79307
2266.06320	0.79138
2264.13464	0.79009
2262.20608	0.78894
2260.27751	0.78745
2258.34895	0.78581
2256.42038	0.78436
2254.49182	0.78296
2252.56325	0.78171
2250.63469	0.78082
2248.70612	0.77993
2246.77756	0.77870
2244.84900	0.77738
2242.92043	0.77645
2240.99187	0.77595
2239.06330	0.77552
2237.13474	0.77499
2235.20617	0.77443
2233.27761	0.77408
2231.34904	0.77375
2229.42048	0.77321
2227.49192	0.77281
2225.56335	0.77269
2223.63479	0.77249
2221.70622	0.77226
2219.77766	0.77203
2217.84909	0.77171
2215.92053	0.77152
2213.99196	0.77127
2212.06340	0.77057
2210.13484	0.76973
2208.20627	0.76934
2206.27771	0.76934
2204.34914	0.76907
2202.42058	0.76826
2200.49201	0.76747
2198.56345	0.76706
2196.63488	0.76693
2194.70632	0.76693
2192.77776	0.76691
2190.84919	0.76683
2188.92063	0.76692
2186.99206	0.76724
2185.06350	0.76739
2183.13493	0.76730
2181.20637	0.76739
2179.27781	0.76761
2177.34924	0.76762
2175.42068	0.76762
2173.49211	0.76789
2171.56355	0.76828
2169.63498	0.76863
2167.70642	0.76886
2165.77785	0.76888
2163.84929	0.76878
2161.92073	0.76882
2159.99216	0.76890
2158.06360	0.76881
2156.13503	0.76875
2154.20647	0.76874
2152.27790	0.76836
2150.34934	0.76729
2148.42077	0.76581
2146.49221	0.76445
2144.56365	0.76337
2142.63508	0.76225
2140.70652	0.76065
2138.77795	0.75866
2136.84939	0.75687
2134.92082	0.75541
2132.99226	0.75383
2131.06369	0.75198
2129.13513	0.75023
2127.20657	0.74897
2125.27800	0.74809
2123.34944	0.74712
2121.42087	0.74598
2119.49231	0.74488
2117.56374	0.74377
2115.63518	0.74265
2113.70661	0.74171
2111.77805	0.74101
2109.84949	0.74020
2107.92092	0.73918
2105.99236	0.73803
2104.06379	0.73668
2102.13523	0.73528
2100.20666	0.73399
2098.27810	0.73257
2096.34953	0.73068
2094.42097	0.72850
2092.49241	0.72645
2090.56384	0.72462
2088.63528	0.72277
2086.70671	0.72091
2084.77815	0.71934
2082.84958	0.71814
2080.92102	0.71706
2078.99245	0.71599
2077.06389	0.71511
2075.13533	0.71432
2073.20676	0.71354
2071.27820	0.71336
2069.34963	0.71398
2067.42107	0.71484
2065.49250	0.71574
2063.56394	0.71684
2061.63537	0.71810
2059.70681	0.71949
2057.77825	0.72093
2055.84968	0.72233
2053.92112	0.72384
2051.99255	0.72561
2050.06399	0.72725
2048.13542	0.72854
2046.20686	0.72982
2044.27830	0.73110
2042.34973	0.73199
2040.42117	0.73236
2038.49260	0.73250
2036.56404	0.73265
2034.63547	0.73279
2032.70691	0.73260
2030.77834	0.73190
2028.84978	0.73100
2026.92122	0.73004
2024.99265	0.72894
2023.06409	0.72779
2021.13552	0.72658
2019.20696	0.72506
2017.27839	0.72318
2015.34983	0.72135
2013.42126	0.71975
2011.49270	0.71816
2009.56414	0.71646
2007.63557	0.71474
2005.70701	0.71317
2003.77844	0.71171
2001.84988	0.71027
1999.92131	0.70897
1997.99275	0.70800
1996.06418	0.70724
1994.13562	0.70613
1992.20706	0.70450
1990.27849	0.70312
1988.34993	0.70224
1986.42136	0.70143
1984.49280	0.70049
1982.56423	0.69939
1980.63567	0.69812
1978.70710	0.69679
1976.77854	0.69559
1974.84998	0.69452
1972.92141	0.69323
1970.99285	0.69148
1969.06428	0.68948
1967.13572	0.68752
1965.20715	0.68597
1963.27859	0.68485
1961.35002	0.68374
1959.42146	0.68245
1957.49290	0.68129
1955.56433	0.68050
1953.63577	0.68012
1951.70720	0.67999
1949.77864	0.68006
1947.85007	0.68032
1945.92151	0.68064
1943.99294	0.68119
1942.06438	0.68224
1940.13582	0.68360
1938.20725	0.68514
1936.27869	0.68701
1934.35012	0.68913
1932.42156	0.69114
1930.49299	0.69283
1928.56443	0.69441
1926.63586	0.69614
1924.70730	0.69795
1922.77874	0.69953
1920.85017	0.70068
1918.92161	0.70155
1916.99304	0.70220
1915.06448	0.70259
1913.13591	0.70283
1911.20735	0.70285
1909.27878	0.70252
1907.35022	0.70206
1905.42166	0.70156
1903.49309	0.70094
1901.56453	0.70013
1899.63596	0.69924
1897.70740	0.69848
1895.77883	0.69781
1893.85027	0.69706
1891.92171	0.69621
1889.99314	0.69538
1888.06458	0.69484
1886.13601	0.69459
1884.20745	0.69423
1882.27888	0.69366
1880.35032	0.69311
1878.42175	0.69255
1876.49319	0.69184
1874.56463	0.69090
1872.63606	0.68980
1870.70750	0.68848
1868.77893	0.68677
1866.85037	0.68523
1864.92180	0.68407
1862.99324	0.68276
1861.06467	0.68112
1859.13611	0.67941
1857.20755	0.67759
1855.27898	0.67549
1853.35042	0.67325
1851.42185	0.67094
1849.49329	0.66848
1847.56472	0.66610
1845.63616	0.66362
1843.70759	0.66040
1841.77903	0.65761
1839.85047	0.65551
1837.92190	0.65317
1835.99334	0.65078
1834.06477	0.64888
1832.13621	0.64708
1830.20764	0.64478
1828.27908	0.64284
1826.35051	0.64163
1824.42195	0.64027
1822.49339	0.63917
1820.56482	0.63868
1818.63626	0.63836
1816.70769	0.63789
1814.77913	0.63737
1812.85056	0.63698
1810.92200	0.63669
1808.99343	0.63631
1807.06487	0.63572
1805.13631	0.63517
1803.20774	0.63467
1801.27918	0.63396
1799.35061	0.63312
1797.42205	0.63243
1795.49348	0.63183
1793.56492	0.63089
1791.63635	0.62949
1789.70779	0.62844
1787.77923	0.62788
1785.85066	0.62719
1783.92210	0.62611
1781.99353	0.62501
1780.06497	0.62421
1778.13640	0.62392
1776.20784	0.62376
1774.27927	0.62322
1772.35071	0.62230
1770.42215	0.62213
1768.49358	0.62290
1766.56502	0.62395
1764.63645	0.62501
1762.70789	0.62611
1760.77932	0.62748
1758.85076	0.62933
1756.92220	0.63207
1754.99363	0.63543
1753.06507	0.63891
1751.13650	0.64367
1749.20794	0.65066
1747.27937	0.65820
1745.35081	0.66536
1743.42224	0.67251
1741.49368	0.68019
1739.56512	0.68870
1737.63655	0.69612
1735.70799	0.70298
1733.77942	0.71413
1731.85086	0.72681
1729.92229	0.73817
1727.99373	0.75043
1726.06516	0.76330
1724.13660	0.77818
1722.20804	0.79374
1720.27947	0.80821
1718.35091	0.82807
1716.42234	0.86013
1714.49378	0.88938
1712.56521	0.91291
1710.63665	0.93681
1708.70808	0.96315
1706.77952	0.99754
1704.85096	1.04021
1702.92239	1.07852
1700.99383	1.12639
1699.06526	1.19695
1697.13670	1.25994
1695.20813	1.32060
1693.27957	1.36785
1691.35100	1.40404
1689.42244	1.44456
1687.49388	1.48060
1685.56531	1.51610
1683.63675	1.56834
1681.70818	1.60455
1679.77962	1.62261
1677.85105	1.63849
1675.92249	1.65928
1673.99392	1.68073
1672.06536	1.69427
1670.13680	1.70480
1668.20823	1.71713
1666.27967	1.72413
1664.35110	1.72809
1662.42254	1.73171
1660.49397	1.73238
1658.56541	1.73080
1656.63684	1.72572
1654.70828	1.71714
1652.77972	1.70744
1650.85115	1.70525
1648.92259	1.70602
1646.99402	1.70285
1645.06546	1.69548
1643.13689	1.68737
1641.20833	1.67974
1639.27976	1.67340
1637.35120	1.66768
1635.42264	1.66061
1633.49407	1.65657
1631.56551	1.65504
1629.63694	1.65056
1627.70838	1.64237
1625.77981	1.63256
1623.85125	1.62142
1621.92269	1.61066
1619.99412	1.60243
1618.06556	1.59154
1616.13699	1.57318
1614.20843	1.55804
1612.27986	1.54581
1610.35130	1.53109
1608.42273	1.51388
1606.49417	1.49713
1604.56561	1.48355
1602.63704	1.47329
1600.70848	1.46511
1598.77991	1.45707
1596.85135	1.44989
1594.92278	1.44548
1592.99422	1.44343
1591.06565	1.44237
1589.13709	1.44230
1587.20853	1.44479
1585.27996	1.45053
1583.35140	1.45921
1581.42283	1.46934
1579.49427	1.47858
1577.56570	1.48870
1575.63714	1.50277
1573.70857	1.51339
1571.78001	1.52089
1569.85145	1.53164
1567.92288	1.54329
1565.99432	1.55370
1564.06575	1.56490
1562.13719	1.57225
1560.20862	1.57640
1558.28006	1.58784
1556.35149	1.59794
1554.42293	1.60323
1552.49437	1.60790
1550.56580	1.61283
1548.63724	1.61640
1546.70867	1.61846
1544.78011	1.61990
1542.85154	1.61859
1540.92298	1.60952
1538.99441	1.59441
1537.06585	1.58522
1535.13729	1.57811
1533.20872	1.57139
1531.28016	1.56652
1529.35159	1.56192
1527.42303	1.55533
1525.49446	1.54803
1523.56590	1.54251
1521.63733	1.53703
1519.70877	1.53275
1517.78021	1.52747
1515.85164	1.51769
1513.92308	1.50609
1511.99451	1.49498
1510.06595	1.48511
1508.13738	1.46858
1506.20882	1.43507
1504.28025	1.41546
1502.35169	1.40322
1500.42313	1.38825
1498.49456	1.36889
1496.56600	1.34719
1494.63743	1.32939
1492.70887	1.31477
1490.78030	1.29622
1488.85174	1.27362
1486.92317	1.25792
1484.99461	1.24819
1483.06605	1.24067
1481.13748	1.23535
1479.20892	1.23393
1477.28035	1.23711
1475.35179	1.24534
1473.42322	1.26154
1471.49466	1.28047
1469.56610	1.29066
1467.63753	1.29676
1465.70897	1.30438
1463.78040	1.31238
1461.85184	1.31683
1459.92327	1.31924
1457.99471	1.32306
1456.06614	1.32851
1454.13758	1.33039
1452.20902	1.32952
1450.28045	1.32741
1448.35189	1.32485
1446.42332	1.32170
1444.49476	1.31767
1442.56619	1.31249
1440.63763	1.30642
1438.70906	1.29951
1436.78050	1.29081
1434.85194	1.28246
1432.92337	1.27533
1430.99481	1.26687
1429.06624	1.25852
1427.13768	1.25339
1425.20911	1.25081
1423.28055	1.25004
1421.35198	1.25047
1419.42342	1.25166
1417.49486	1.25419
1415.56629	1.25710
1413.63773	1.25944
1411.70916	1.26079
1409.78060	1.26125
1407.85203	1.26172
1405.92347	1.26298
1403.99490	1.26441
1402.06634	1.26483
1400.13778	1.26419
1398.20921	1.26264
1396.28065	1.26129
1394.35208	1.26139
1392.42352	1.26217
1390.49495	1.26344
1388.56639	1.26773
1386.63782	1.27681
1384.70926	1.28720
1382.78070	1.29648
1380.85213	1.30433
1378.92357	1.30917
1376.99500	1.30916
1375.06644	1.30364
1373.13787	1.29403
1371.20931	1.28268
1369.28074	1.26878
1367.35218	1.25296
1365.42362	1.23826
1363.49505	1.22405
1361.56649	1.21111
1359.63792	1.20290
1357.70936	1.19901
1355.78079	1.19785
1353.85223	1.19778
1351.92366	1.19748
1349.99510	1.19681
1348.06654	1.19589
1346.13797	1.19456
1344.20941	1.19327
1342.28084	1.19256
1340.35228	1.19239
1338.42371	1.19289
1336.49515	1.19480
1334.56659	1.19841
1332.63802	1.20332
1330.70946	1.20859
1328.78089	1.21265
1326.85233	1.21439
1324.92376	1.21424
1322.99520	1.21341
1321.06663	1.21286
1319.13807	1.21295
1317.20951	1.21317
1315.28094	1.21282
1313.35238	1.21198
1311.42381	1.21082
1309.49525	1.20908
1307.56668	1.20699
1305.63812	1.20486
1303.70955	1.20219
1301.78099	1.19847
1299.85243	1.19366
1297.92386	1.18789
1295.99530	1.18211
1294.06673	1.17746
1292.13817	1.17442
1290.20960	1.17293
1288.28104	1.17238
1286.35247	1.17225
1284.42391	1.17262
1282.49535	1.17309
1280.56678	1.17332
1278.63822	1.17408
1276.70965	1.17595
1274.78109	1.17897
1272.85252	1.18337
1270.92396	1.18872
1268.99539	1.19441
1267.06683	1.19995
1265.13827	1.20425
1263.20970	1.20686
1261.28114	1.20855
1259.35257	1.21026
1257.42401	1.21225
1255.49544	1.21449
1253.56688	1.21752
1251.63831	1.22147
1249.70975	1.22530
1247.78119	1.22799
1245.85262	1.22983
1243.92406	1.23200
1241.99549	1.23456
1240.06693	1.23596
1238.13836	1.23551
1236.20980	1.23353
1234.28123	1.22993
1232.35267	1.22492
1230.42411	1.21865
1228.49554	1.21048
1226.56698	1.20080
1224.63841	1.19110
1222.70985	1.18151
1220.78128	1.17130
1218.85272	1.16097
1216.92415	1.15171
1214.99559	1.14448
1213.06703	1.14002
1211.13846	1.13811
1209.20990	1.13709
1207.28133	1.13470
1205.35277	1.12959
1203.42420	1.12185
1201.49564	1.11223
1199.56708	1.10180
1197.63851	1.09213
1195.70995	1.08446
1193.78138	1.07920
1191.85282	1.07633
1189.92425	1.07591
1187.99569	1.07852
1186.06712	1.08448
1184.13856	1.09308
1182.21000	1.10384
1180.28143	1.11760
1178.35287	1.13484
1176.42430	1.15411
1174.49574	1.17382
1172.56717	1.19366
1170.63861	1.21386
1168.71004	1.23463
1166.78148	1.25503
1164.85292	1.27359
1162.92435	1.28982
1160.99579	1.30214
1159.06722	1.30787
1157.13866	1.30692
1155.21009	1.30078
1153.28153	1.29041
1151.35296	1.27782
1149.42440	1.26573
1147.49584	1.25518
1145.56727	1.24657
1143.63871	1.24093
1141.71014	1.23865
1139.78158	1.23997
1137.85301	1.24475
1135.92445	1.25159
1133.99588	1.25991
1132.06732	1.27040
1130.13876	1.28329
1128.21019	1.29793
1126.28163	1.31301
1124.35306	1.32672
1122.42450	1.33805
1120.49593	1.34739
1118.56737	1.35427
1116.63880	1.35667
1114.71024	1.35394
1112.78168	1.34756
1110.85311	1.33938
1108.92455	1.33225
1106.99598	1.32803
1105.06742	1.32482
1103.13885	1.32086
1101.21029	1.31726
1099.28172	1.31563
1097.35316	1.31742
1095.42460	1.32280
1093.49603	1.33070
1091.56747	1.34185
1089.63890	1.35684
1087.71034	1.37387
1085.78177	1.39075
1083.85321	1.40410
1081.92464	1.41228
1079.99608	1.41828
1078.06752	1.42302
1076.13895	1.42404
1074.21039	1.42068
1072.28182	1.41384
1070.35326	1.40378
1068.42469	1.39218
1066.49613	1.38209
1064.56756	1.37425
1062.63900	1.36774
1060.71044	1.36217
1058.78187	1.35670
1056.85331	1.35018
1054.92474	1.34285
1052.99618	1.33633
1051.06761	1.33231
1049.13905	1.33175
1047.21049	1.33328
1045.28192	1.33467
1043.35336	1.33636
1041.42479	1.33927
1039.49623	1.34320
1037.56766	1.34810
1035.63910	1.35206
1033.71053	1.35304
1031.78197	1.35231
1029.85341	1.35115
1027.92484	1.34878
1025.99628	1.34385
1024.06771	1.33678
1022.13915	1.32963
1020.21058	1.32315
1018.28202	1.31785
1016.35345	1.31334
1014.42489	1.30625
1012.49633	1.29463
1010.56776	1.27951
1008.63920	1.26238
1006.71063	1.24394
1004.78207	1.22448
1002.85350	1.20580
1000.92494	1.18971
998.99637	1.17620
997.06781	1.16457
995.13925	1.15345
993.21068	1.14170
991.28212	1.12975
989.35355	1.11765
987.42499	1.10499
985.49642	1.09322
983.56786	1.08411
981.63929	1.07789
979.71073	1.07372
977.78217	1.07054
975.85360	1.06790
973.92504	1.06495
971.99647	1.06030
970.06791	1.05382
968.13934	1.04671
966.21078	1.04110
964.28221	1.03853
962.35365	1.03967
960.42509	1.04547
958.49652	1.05507
956.56796	1.06408
954.63939	1.06736
952.71083	1.06284
950.78226	1.05190
948.85370	1.03731
946.92513	1.02194
944.99657	1.00715
943.06801	0.99281
941.13944	0.97879
939.21088	0.96476
937.28231	0.95048
935.35375	0.93697
933.42518	0.92555
931.49662	0.91573
929.56805	0.90606
927.63949	0.89713
925.71093	0.89061
923.78236	0.88629
921.85380	0.88304
919.92523	0.88024
917.99667	0.87772
916.06810	0.87590
914.13954	0.87555
912.21098	0.87750
910.28241	0.88223
908.35385	0.88993
906.42528	0.90081
904.49672	0.91478
902.56815	0.93076
900.63959	0.94649
898.71102	0.96008
896.78246	0.97153
894.85390	0.98148
892.92533	0.98955
890.99677	0.99468
889.06820	0.99685
887.13964	0.99706
885.21107	0.99537
883.28251	0.99171
881.35394	0.98677
879.42538	0.98062
877.49682	0.97301
875.56825	0.96454
873.63969	0.95594
871.71112	0.94731
869.78256	0.93920
867.85399	0.93283
865.92543	0.92859
863.99686	0.92638
862.06830	0.92638
860.13974	0.92896
858.21117	0.93446
856.28261	0.94234
854.35404	0.95152
852.42548	0.96162
850.49691	0.97234
848.56835	0.98274
846.63978	0.99242
844.71122	1.00209
842.78266	1.01181
840.85409	1.02046
838.92553	1.02760
836.99696	1.03341
835.06840	1.03710
833.13983	1.03817
831.21127	1.03720
829.28270	1.03433
827.35414	1.02941
825.42558	1.02292
823.49701	1.01576
821.56845	1.00811
819.63988	1.00014
817.71132	0.99314
815.78275	0.98783
813.85419	0.98393
811.92562	0.98160
809.99706	0.98108
808.06850	0.98205
806.13993	0.98434
804.21137	0.98815
802.28280	0.99315
800.35424	0.99877
798.42567	1.00505
796.49711	1.01256
794.56854	1.02163
792.63998	1.03113
790.71142	1.03916
788.78285	1.04605
786.85429	1.05357
784.92572	1.06118
782.99716	1.06706
781.06859	1.07104
779.14003	1.07400
777.21147	1.07639
775.28290	1.07823
773.35434	1.07882
771.42577	1.07782
769.49721	1.07593
767.56864	1.07362
765.64008	1.07052
763.71151	1.06676
761.78295	1.06386
759.85439	1.06251
757.92582	1.06201
755.99726	1.06227
754.06869	1.06355
752.14013	1.06566
750.21156	1.06816
748.28300	1.07089
746.35443	1.07397
744.42587	1.07742
742.49731	1.08168
740.56874	1.08678
738.64018	1.09180
736.71161	1.09651
734.78305	1.10157
732.85448	1.10720
730.92592	1.11336
728.99735	1.12094
727.06879	1.12970
725.14023	1.13714
723.21166	1.14281
721.28310	1.14858
719.35453	1.15361
717.42597	1.15579
715.49740	1.15653
713.56884	1.15897
711.64027	1.16366
709.71171	1.16816
707.78315	1.17053
705.85458	1.17034
703.92602	1.16786
701.99745	1.16470
700.06889	1.16230
698.14032	1.16095
696.21176	1.15993
694.28319	1.15823
692.35463	1.15677
690.42607	1.15710
688.49750	1.15764
686.56894	1.15634
684.64037	1.15524
682.71181	1.15564
680.78324	1.15528
678.85468	1.15366
676.92611	1.15199
674.99755	1.15093
673.06899	1.15087
671.14042	1.15062
669.21186	1.14870
667.28329	1.14813
665.35473	1.15048
663.42616	1.15147
661.49760	1.15038
659.56903	1.15007
657.64047	1.15243
655.71191	1.15618
653.78334	1.15983
651.85478	1.16437
649.92621	1.17080
647.99765	1.17771
646.06908	1.18626
644.14052	1.19806
642.21195	1.21075
640.28339	1.22305
638.35483	1.23381
636.42626	1.24199
634.49770	1.25025
632.56913	1.25891
630.64057	1.26408
628.71200	1.26663
626.78344	1.27076
624.85488	1.27503
622.92631	1.27597
620.99775	1.27625
619.06918	1.27940
617.14062	1.28223
615.21205	1.28108
613.28349	1.27814
611.35492	1.27520
609.42636	1.27277
607.49780	1.26940
605.56923	1.26402
603.64067	1.26117
601.71210	1.26193
599.78354	1.26177
