3997.91406	0.74188
3995.98550	0.74136
3994.05693	0.74093
3992.12837	0.74044
3990.19980	0.74014
3988.27124	0.73977
3986.34268	0.73948
3984.41411	0.73930
3982.48555	0.73846
3980.55698	0.73678
3978.62842	0.73496
3976.69985	0.73421
3974.77129	0.73480
3972.84272	0.73483
3970.91416	0.73327
3968.98560	0.73147
3967.05703	0.73110
3965.12847	0.73217
3963.19990	0.73313
3961.27134	0.73333
3959.34277	0.73365
3957.41421	0.73416
3955.48564	0.73417
3953.55708	0.73363
3951.62852	0.73302
3949.69995	0.73251
3947.77139	0.73218
3945.84282	0.73238
3943.91426	0.73299
3941.98569	0.73304
3940.05713	0.73220
3938.12856	0.73114
3936.20000	0.73050
3934.27144	0.73027
3932.34287	0.73016
3930.41431	0.73040
3928.48574	0.73055
3926.55718	0.72999
3924.62861	0.72898
3922.70005	0.72809
3920.77148	0.72759
3918.84292	0.72715
3916.91436	0.72664
3914.98579	0.72630
3913.05723	0.72575
3911.12866	0.72515
3909.20010	0.72488
3907.27153	0.72441
3905.34297	0.72357
3903.41440	0.72324
3901.48584	0.72309
3899.55728	0.72241
3897.62871	0.72201
3895.70015	0.72231
3893.77158	0.72297
3891.84302	0.72306
3889.91445	0.72196
3887.98589	0.72068
3886.05733	0.72004
3884.12876	0.72036
3882.20020	0.72065
3880.27163	0.72099
3878.34307	0.72222
3876.41450	0.72329
3874.48594	0.72329
3872.55737	0.72288
3870.62881	0.72247
3868.70025	0.72167
3866.77168	0.72151
3864.84312	0.72184
3862.91455	0.72125
3860.98599	0.72018
3859.05742	0.71989
3857.12886	0.72064
3855.20029	0.72194
3853.27173	0.72156
3851.34317	0.71922
3849.41460	0.71737
3847.48604	0.71659
3845.55747	0.71723
3843.62891	0.71835
3841.70034	0.71877
3839.77178	0.71915
3837.84321	0.71913
3835.91465	0.71733
3833.98609	0.71540
3832.05752	0.71472
3830.12896	0.71472
3828.20039	0.71487
3826.27183	0.71570
3824.34326	0.71639
3822.41470	0.71446
3820.48613	0.71033
3818.55757	0.70868
3816.62901	0.70896
3814.70044	0.70986
3812.77188	0.71074
3810.84331	0.71154
3808.91475	0.71209
3806.98618	0.71157
3805.05762	0.71060
3803.12905	0.71020
3801.20049	0.70995
3799.27193	0.70886
3797.34336	0.70708
3795.41480	0.70655
3793.48623	0.70728
3791.55767	0.70718
3789.62910	0.70650
3787.70054	0.70652
3785.77197	0.70653
3783.84341	0.70568
3781.91485	0.70512
3779.98628	0.70594
3778.05772	0.70703
3776.12915	0.70677
3774.20059	0.70582
3772.27202	0.70526
3770.34346	0.70548
3768.41489	0.70610
3766.48633	0.70651
3764.55777	0.70677
3762.62920	0.70703
3760.70064	0.70702
3758.77207	0.70673
3756.84351	0.70705
3754.91494	0.70754
3752.98638	0.70692
3751.05781	0.70562
3749.12925	0.70527
3747.20069	0.70515
3745.27212	0.70554
3743.34356	0.70680
3741.41499	0.70791
3739.48643	0.70892
3737.55786	0.70981
3735.62930	0.70980
3733.70074	0.70919
3731.77217	0.70923
3729.84361	0.70974
3727.91504	0.71060
3725.98648	0.71164
3724.05791	0.71172
3722.12935	0.71028
3720.20078	0.70918
3718.27222	0.70983
3716.34366	0.71132
3714.41509	0.71286
3712.48653	0.71413
3710.55796	0.71405
3708.62940	0.71323
3706.70083	0.71322
3704.77227	0.71403
3702.84370	0.71534
3700.91514	0.71713
3698.98658	0.71890
3697.05801	0.72065
3695.12945	0.72250
3693.20088	0.72412
3691.27232	0.72483
3689.34375	0.72476
3687.41519	0.72586
3685.48662	0.72718
3683.55806	0.72850
3681.62950	0.73101
3679.70093	0.73391
3677.77237	0.73461
3675.84380	0.73419
3673.91524	0.73728
3671.98667	0.74181
3670.05811	0.74714
3668.12954	0.75165
3666.20098	0.75474
3664.27242	0.75826
3662.34385	0.76249
3660.41529	0.76700
3658.48672	0.77158
3656.55816	0.77632
3654.62959	0.78037
3652.70103	0.78385
3650.77246	0.78886
3648.84390	0.79722
3646.91534	0.80523
3644.98677	0.81136
3643.05821	0.81736
3641.12964	0.82368
3639.20108	0.82953
3637.27251	0.83481
3635.34395	0.84004
3633.41538	0.84444
3631.48682	0.84714
3629.55826	0.85224
3627.62969	0.86339
3625.70113	0.87354
3623.77256	0.88153
3621.84400	0.88865
3619.91543	0.89575
3617.98687	0.90243
3616.05830	0.90851
3614.12974	0.91495
3612.20118	0.92109
3610.27261	0.92703
3608.34405	0.93479
3606.41548	0.94382
3604.48692	0.95171
3602.55835	0.95872
3600.62979	0.96582
3598.70123	0.97399
3596.77266	0.98314
3594.84410	0.99233
3592.91553	1.00032
3590.98697	1.00660
3589.05840	1.01389
3587.12984	1.02472
3585.20127	1.03504
3583.27271	1.04280
3581.34415	1.04933
3579.41558	1.05471
3577.48702	1.06040
3575.55845	1.06887
3573.62989	1.07810
3571.70132	1.08517
3569.77276	1.09144
3567.84419	1.09981
3565.91563	1.10965
3563.98707	1.11849
3562.05850	1.12749
3560.12994	1.13628
3558.20137	1.14434
3556.27281	1.15146
3554.34424	1.15814
3552.41568	1.16651
3550.48711	1.17599
3548.55855	1.18476
3546.62999	1.19430
3544.70142	1.20623
3542.77286	1.21684
3540.84429	1.22512
3538.91573	1.23428
3536.98716	1.24424
3535.05860	1.25355
3533.13003	1.26257
3531.20147	1.27123
3529.27291	1.27819
3527.34434	1.28418
3525.41578	1.29204
3523.48721	1.30137
3521.55865	1.31124
3519.63008	1.32296
3517.70152	1.33421
3515.77295	1.34005
3513.84439	1.34400
3511.91583	1.35262
3509.98726	1.36516
3508.05870	1.37733
3506.13013	1.38697
3504.20157	1.39630
3502.27300	1.40632
3500.34444	1.41431
3498.41587	1.42134
3496.48731	1.42920
3494.55875	1.43669
3492.63018	1.44340
3490.70162	1.45150
3488.77305	1.46257
3486.84449	1.47386
3484.91592	1.48000
3482.98736	1.48233
3481.05879	1.48672
3479.13023	1.49239
3477.20167	1.49532
3475.27310	1.49561
3473.34454	1.49747
3471.41597	1.50333
3469.48741	1.51087
3467.55884	1.51953
3465.63028	1.53052
3463.70171	1.53936
3461.77315	1.53991
3459.84459	1.53637
3457.91602	1.53672
3455.98746	1.53953
3454.05889	1.53881
3452.13033	1.53605
3450.20176	1.53747
3448.27320	1.54506
3446.34464	1.55571
3444.41607	1.56311
3442.48751	1.56550
3440.55894	1.56539
3438.63038	1.56679
3436.70181	1.57331
3434.77325	1.58005
3432.84468	1.58153
3430.91612	1.58074
3428.98756	1.57908
3427.05899	1.57481
3425.13043	1.57079
3423.20186	1.57258
3421.27330	1.57928
3419.34473	1.58355
3417.41617	1.58350
3415.48760	1.58492
3413.55904	1.59028
3411.63048	1.59376
3409.70191	1.59155
3407.77335	1.58913
3405.84478	1.58995
3403.91622	1.59091
3401.98765	1.59188
3400.05909	1.59533
3398.13052	1.59909
3396.20196	1.59950
3394.27340	1.59864
3392.34483	1.60024
3390.41627	1.60491
3388.48770	1.61118
3386.55914	1.61411
3384.63057	1.61252
3382.70201	1.61244
3380.77344	1.61258
3378.84488	1.60895
3376.91632	1.60881
3374.98775	1.61411
3373.05919	1.61671
3371.13062	1.61831
3369.20206	1.62159
3367.27349	1.62260
3365.34493	1.62395
3363.41636	1.62806
3361.48780	1.63237
3359.55924	1.63701
3357.63067	1.64082
3355.70211	1.64064
3353.77354	1.63801
3351.84498	1.63645
3349.91641	1.63840
3347.98785	1.64386
3346.05928	1.64859
3344.13072	1.65153
3342.20216	1.65458
3340.27359	1.65659
3338.34503	1.65780
3336.41646	1.65942
3334.48790	1.66000
3332.55933	1.66026
3330.63077	1.66155
3328.70220	1.66015
3326.77364	1.65654
3324.84508	1.65685
3322.91651	1.65967
3320.98795	1.66114
3319.05938	1.66298
3317.13082	1.66489
3315.20225	1.66509
3313.27369	1.66718
3311.34513	1.67294
3309.41656	1.67564
3307.48800	1.67158
3305.55943	1.66846
3303.63087	1.67277
3301.70230	1.67986
3299.77374	1.68214
3297.84517	1.68050
3295.91661	1.68029
3293.98805	1.68166
3292.05948	1.68210
3290.13092	1.68304
3288.20235	1.68621
3286.27379	1.68792
3284.34522	1.68247
3282.41666	1.67351
3280.48809	1.67165
3278.55953	1.67488
3276.63097	1.67249
3274.70240	1.66597
3272.77384	1.66285
3270.84527	1.66408
3268.91671	1.66488
3266.98814	1.65891
3265.05958	1.64759
3263.13101	1.63889
3261.20245	1.63634
3259.27389	1.63671
3257.34532	1.63552
3255.41676	1.63271
3253.48819	1.63048
3251.55963	1.63090
3249.63106	1.63322
3247.70250	1.63100
3245.77393	1.62394
3243.84537	1.61901
3241.91681	1.61383
3239.98824	1.60375
3238.05968	1.59572
3236.13111	1.59349
3234.20255	1.58961
3232.27398	1.58185
3230.34542	1.57420
3228.41685	1.56764
3226.48829	1.56434
3224.55973	1.56504
3222.63116	1.56551
3220.70260	1.56392
3218.77403	1.56171
3216.84547	1.55977
3214.91690	1.55664
3212.98834	1.55053
3211.05977	1.54547
3209.13121	1.54617
3207.20265	1.54911
3205.27408	1.54889
3203.34552	1.54568
3201.41695	1.54171
3199.48839	1.53770
3197.55982	1.53348
3195.63126	1.52961
3193.70269	1.52629
3191.77413	1.52233
3189.84557	1.51776
3187.91700	1.51300
3185.98844	1.50830
3184.05987	1.50518
3182.13131	1.50423
3180.20274	1.50485
3178.27418	1.50524
3176.34562	1.50305
3174.41705	1.49943
3172.48849	1.49575
3170.55992	1.49222
3168.63136	1.48992
3166.70279	1.48644
3164.77423	1.47988
3162.84566	1.47501
3160.91710	1.47442
3158.98854	1.47425
3157.05997	1.47046
3155.13141	1.46320
3153.20284	1.45742
3151.27428	1.45506
3149.34571	1.45232
3147.41715	1.44974
3145.48858	1.44905
3143.56002	1.44621
3141.63146	1.44104
3139.70289	1.43832
3137.77433	1.43793
3135.84576	1.43645
3133.91720	1.43385
3131.98863	1.43301
3130.06007	1.43479
3128.13150	1.43685
3126.20294	1.43763
3124.27438	1.43757
3122.34581	1.43600
3120.41725	1.43244
3118.48868	1.42871
3116.56012	1.42675
3114.63155	1.42654
3112.70299	1.42681
3110.77442	1.42735
3108.84586	1.42738
3106.91730	1.42539
3104.98873	1.42322
3103.06017	1.42327
3101.13160	1.42480
3099.20304	1.42536
3097.27447	1.42304
3095.34591	1.41894
3093.41734	1.41607
3091.48878	1.41587
3089.56022	1.41696
3087.63165	1.41598
3085.70309	1.41149
3083.77452	1.40730
3081.84596	1.40610
3079.91739	1.40422
3077.98883	1.39947
3076.06026	1.39558
3074.13170	1.39440
3072.20314	1.39267
3070.27457	1.38851
3068.34601	1.38385
3066.41744	1.37907
3064.48888	1.37370
3062.56031	1.36913
3060.63175	1.36595
3058.70318	1.36343
3056.77462	1.35970
3054.84606	1.35306
3052.91749	1.34561
3050.98893	1.34048
3049.06036	1.33748
3047.13180	1.33440
3045.20323	1.33022
3043.27467	1.32607
3041.34610	1.32280
3039.41754	1.31990
3037.48898	1.31636
3035.56041	1.31136
3033.63185	1.30670
3031.70328	1.30490
3029.77472	1.30393
3027.84615	1.30078
3025.91759	1.29652
3023.98903	1.29206
3022.06046	1.28688
3020.13190	1.28205
3018.20333	1.27920
3016.27477	1.27827
3014.34620	1.27712
3012.41764	1.27510
3010.48907	1.27358
3008.56051	1.27140
3006.63195	1.26745
3004.70338	1.26329
3002.77482	1.26002
3000.84625	1.25805
2998.91769	1.25777
2996.98912	1.25837
2995.06056	1.25930
2993.13199	1.26120
2991.20343	1.26426
2989.27487	1.26880
2987.34630	1.27452
2985.41774	1.27970
2983.48917	1.28487
2981.56061	1.29237
2979.63204	1.30110
2977.70348	1.30811
2975.77491	1.31389
2973.84635	1.32054
2971.91779	1.32888
2969.98922	1.33848
2968.06066	1.34713
2966.13209	1.35408
2964.20353	1.36087
2962.27496	1.36639
2960.34640	1.36772
2958.41783	1.36468
2956.48927	1.35909
2954.56071	1.35273
2952.63214	1.34771
2950.70358	1.34486
2948.77501	1.34470
2946.84645	1.34818
2944.91788	1.35299
2942.98932	1.35704
2941.06075	1.36275
2939.13219	1.37187
2937.20363	1.38230
2935.27506	1.39196
2933.34650	1.40076
2931.41793	1.40819
2929.48937	1.41346
2927.56080	1.41757
2925.63224	1.42202
2923.70367	1.42625
2921.77511	1.42908
2919.84655	1.42859
2917.91798	1.42037
2915.98942	1.40422
2914.06085	1.38483
2912.13229	1.36451
2910.20372	1.34607
2908.27516	1.33280
2906.34659	1.32294
2904.41803	1.31436
2902.48947	1.30886
2900.56090	1.30629
2898.63234	1.30247
2896.70377	1.29604
2894.77521	1.29031
2892.84664	1.28733
2890.91808	1.28560
2888.98952	1.28308
2887.06095	1.27995
2885.13239	1.27823
2883.20382	1.27879
2881.27526	1.27991
2879.34669	1.27879
2877.41813	1.27485
2875.48956	1.27095
2873.56100	1.26921
2871.63244	1.26685
2869.70387	1.26066
2867.77531	1.25267
2865.84674	1.24515
2863.91818	1.23774
2861.98961	1.23230
2860.06105	1.23155
2858.13248	1.23486
2856.20392	1.24012
2854.27536	1.24665
2852.34679	1.25334
2850.41823	1.25415
2848.48966	1.24137
2846.56110	1.21721
2844.63253	1.19255
2842.70397	1.17367
2840.77540	1.15919
2838.84684	1.14712
2836.91828	1.13733
2834.98971	1.12985
2833.06115	1.12391
2831.13258	1.11795
2829.20402	1.11156
2827.27545	1.10564
2825.34689	1.10050
2823.41832	1.09622
2821.48976	1.09223
2819.56120	1.08783
2817.63263	1.08331
2815.70407	1.07881
2813.77550	1.07433
2811.84694	1.07005
2809.91837	1.06624
2807.98981	1.06293
2806.06124	1.05897
2804.13268	1.05400
2802.20412	1.04970
2800.27555	1.04635
2798.34699	1.04274
2796.41842	1.03876
2794.48986	1.03478
2792.56129	1.03062
2790.63273	1.02630
2788.70416	1.02237
2786.77560	1.01962
2784.84704	1.01824
2782.91847	1.01700
2780.98991	1.01483
2779.06134	1.01208
2777.13278	1.00934
2775.20421	1.00673
2773.27565	1.00418
2771.34708	1.00182
2769.41852	0.99966
2767.48996	0.99750
2765.56139	0.99566
2763.63283	0.99418
2761.70426	0.99206
2759.77570	0.98880
2757.84713	0.98565
2755.91857	0.98347
2753.99001	0.98089
2752.06144	0.97736
2750.13288	0.97422
2748.20431	0.97191
2746.27575	0.97007
2744.34718	0.96829
2742.41862	0.96594
2740.49005	0.96306
2738.56149	0.95997
2736.63293	0.95701
2734.70436	0.95440
2732.77580	0.95184
2730.84723	0.94932
2728.91867	0.94706
2726.99010	0.94451
2725.06154	0.94133
2723.13297	0.93826
2721.20441	0.93589
2719.27585	0.93385
2717.34728	0.93196
2715.41872	0.93039
2713.49015	0.92892
2711.56159	0.92730
2709.63302	0.92559
2707.70446	0.92379
2705.77589	0.92213
2703.84733	0.92084
2701.91877	0.91963
2699.99020	0.91800
2698.06164	0.91590
2696.13307	0.91381
2694.20451	0.91211
2692.27594	0.91061
2690.34738	0.90887
2688.41881	0.90711
2686.49025	0.90559
2684.56169	0.90387
2682.63312	0.90194
2680.70456	0.90004
2678.77599	0.89792
2676.84743	0.89581
2674.91886	0.89427
2672.99030	0.89295
2671.06173	0.89126
2669.13317	0.88948
2667.20461	0.88792
2665.27604	0.88600
2663.34748	0.88366
2661.41891	0.88167
2659.49035	0.87997
2657.56178	0.87823
2655.63322	0.87659
2653.70465	0.87498
2651.77609	0.87344
2649.84753	0.87228
2647.91896	0.87123
2645.99040	0.86982
2644.06183	0.86795
2642.13327	0.86601
2640.20470	0.86428
2638.27614	0.86259
2636.34757	0.86079
2634.41901	0.85906
2632.49045	0.85755
2630.56188	0.85600
2628.63332	0.85423
2626.70475	0.85253
2624.77619	0.85085
2622.84762	0.84902
2620.91906	0.84725
2618.99049	0.84564
2617.06193	0.84422
2615.13337	0.84313
2613.20480	0.84229
2611.27624	0.84139
2609.34767	0.84029
2607.41911	0.83888
2605.49054	0.83716
2603.56198	0.83524
2601.63342	0.83351
2599.70485	0.83239
2597.77629	0.83124
2595.84772	0.82951
2593.91916	0.82777
2591.99059	0.82639
2590.06203	0.82493
2588.13346	0.82302
2586.20490	0.82114
2584.27634	0.81965
2582.34777	0.81827
2580.41921	0.81675
2578.49064	0.81484
2576.56208	0.81282
2574.63351	0.81120
2572.70495	0.80982
2570.77638	0.80824
2568.84782	0.80669
2566.91926	0.80560
2564.99069	0.80456
2563.06213	0.80309
2561.13356	0.80153
2559.20500	0.80009
2557.27643	0.79852
2555.34787	0.79687
2553.41930	0.79566
2551.49074	0.79482
2549.56218	0.79379
2547.63361	0.79250
2545.70505	0.79139
2543.77648	0.79055
2541.84792	0.78962
2539.91935	0.78820
2537.99079	0.78634
2536.06222	0.78472
2534.13366	0.78378
2532.20510	0.78312
2530.27653	0.78232
2528.34797	0.78141
2526.41940	0.78034
2524.49084	0.77908
2522.56227	0.77789
2520.63371	0.77699
2518.70514	0.77595
2516.77658	0.77435
2514.84802	0.77250
2512.91945	0.77088
2510.99089	0.76952
2509.06232	0.76832
2507.13376	0.76730
2505.20519	0.76654
2503.27663	0.76573
2501.34806	0.76457
2499.41950	0.76328
2497.49094	0.76202
2495.56237	0.76085
2493.63381	0.75955
2491.70524	0.75785
2489.77668	0.75625
2487.84811	0.75527
2485.91955	0.75444
2483.99098	0.75323
2482.06242	0.75176
2480.13386	0.75029
2478.20529	0.74890
2476.27673	0.74765
2474.34816	0.74639
2472.41960	0.74499
2470.49103	0.74361
2468.56247	0.74233
2466.63391	0.74096
2464.70534	0.73928
2462.77678	0.73736
2460.84821	0.73573
2458.91965	0.73470
2456.99108	0.73395
2455.06252	0.73307
2453.13395	0.73188
2451.20539	0.73051
2449.27683	0.72917
2447.34826	0.72784
2445.41970	0.72648
2443.49113	0.72520
2441.56257	0.72387
2439.63400	0.72238
2437.70544	0.72105
2435.77687	0.71987
2433.84831	0.71853
2431.91975	0.71701
2429.99118	0.71550
2428.06262	0.71391
2426.13405	0.71204
2424.20549	0.71002
2422.27692	0.70820
2420.34836	0.70665
2418.41979	0.70520
2416.49123	0.70393
2414.56267	0.70277
2412.63410	0.70116
2410.70554	0.69896
2408.77697	0.69688
2406.84841	0.69537
2404.91984	0.69402
2402.99128	0.69263
2401.06271	0.69145
2399.13415	0.69046
2397.20559	0.68958
2395.27702	0.68895
2393.34846	0.68845
2391.41989	0.68776
2389.49133	0.68688
2387.56276	0.68598
2385.63420	0.68501
2383.70563	0.68384
2381.77707	0.68237
2379.84851	0.68044
2377.91994	0.67811
2375.99138	0.67590
2374.06281	0.67386
2372.13425	0.67097
2370.20568	0.66711
2368.27712	0.66370
2366.34855	0.66137
2364.41999	0.65970
2362.49143	0.65802
2360.56286	0.65572
2358.63430	0.65409
2356.70573	0.65433
2354.77717	0.65547
2352.84860	0.65709
2350.92004	0.65899
2348.99147	0.65987
2347.06291	0.65868
2345.13435	0.65556
2343.20578	0.65262
2341.27722	0.65158
2339.34865	0.65186
2337.42009	0.65243
2335.49152	0.65318
2333.56296	0.65378
2331.63440	0.65407
2329.70583	0.65516
2327.77727	0.65704
2325.84870	0.65855
2323.92014	0.65968
2321.99157	0.66054
2320.06301	0.66093
2318.13444	0.66130
2316.20588	0.66188
2314.27732	0.66225
2312.34875	0.66244
2310.42019	0.66267
2308.49162	0.66273
2306.56306	0.66271
2304.63449	0.66282
2302.70593	0.66284
2300.77736	0.66254
2298.84880	0.66209
2296.92024	0.66173
2294.99167	0.66127
2293.06311	0.66061
2291.13454	0.65998
2289.20598	0.65947
2287.27741	0.65894
2285.34885	0.65829
2283.42028	0.65762
2281.49172	0.65702
2279.56316	0.65657
2277.63459	0.65629
2275.70603	0.65615
2273.77746	0.65596
2271.84890	0.65560
2269.92033	0.65524
2267.99177	0.65510
2266.06320	0.65521
2264.13464	0.65547
2262.20608	0.65575
2260.27751	0.65586
2258.34895	0.65580
2256.42038	0.65574
2254.49182	0.65580
2252.56325	0.65582
2250.63469	0.65544
2248.70612	0.65478
2246.77756	0.65418
2244.84900	0.65361
2242.92043	0.65287
2240.99187	0.65193
2239.06330	0.65091
2237.13474	0.64993
2235.20617	0.64893
2233.27761	0.64789
2231.34904	0.64699
2229.42048	0.64627
2227.49192	0.64565
2225.56335	0.64515
2223.63479	0.64489
2221.70622	0.64492
2219.77766	0.64506
2217.84909	0.64508
2215.92053	0.64508
2213.99196	0.64515
2212.06340	0.64535
2210.13484	0.64579
2208.20627	0.64650
2206.27771	0.64722
2204.34914	0.64783
2202.42058	0.64853
2200.49201	0.64936
2198.56345	0.65012
2196.63488	0.65070
2194.70632	0.65122
2192.77776	0.65191
2190.84919	0.65266
2188.92063	0.65324
2186.99206	0.65388
2185.06350	0.65470
2183.13493	0.65538
2181.20637	0.65582
2179.27781	0.65612
2177.34924	0.65621
2175.42068	0.65622
2173.49211	0.65642
2171.56355	0.65682
2169.63498	0.65726
2167.70642	0.65764
2165.77785	0.65797
2163.84929	0.65825
2161.92073	0.65841
2159.99216	0.65838
2158.06360	0.65830
2156.13503	0.65839
2154.20647	0.65837
2152.27790	0.65795
2150.34934	0.65749
2148.42077	0.65728
2146.49221	0.65707
2144.56365	0.65668
2142.63508	0.65623
2140.70652	0.65605
2138.77795	0.65627
2136.84939	0.65667
2134.92082	0.65708
2132.99226	0.65754
2131.06369	0.65799
2129.13513	0.65834
2127.20657	0.65870
2125.27800	0.65915
2123.34944	0.65956
2121.42087	0.65987
2119.49231	0.66029
2117.56374	0.66094
2115.63518	0.66160
2113.70661	0.66213
2111.77805	0.66253
2109.84949	0.66280
2107.92092	0.66310
2105.99236	0.66343
2104.06379	0.66377
2102.13523	0.66405
2100.20666	0.66407
2098.27810	0.66384
2096.34953	0.66366
2094.42097	0.66366
2092.49241	0.66376
2090.56384	0.66367
2088.63528	0.66329
2086.70671	0.66289
2084.77815	0.66256
2082.84958	0.66197
2080.92102	0.66105
2078.99245	0.66008
2077.06389	0.65938
2075.13533	0.65886
2073.20676	0.65820
2071.27820	0.65730
2069.34963	0.65627
2067.42107	0.65521
2065.49250	0.65419
2063.56394	0.65329
2061.63537	0.65251
2059.70681	0.65176
2057.77825	0.65110
2055.84968	0.65055
2053.92112	0.65009
2051.99255	0.64970
2050.06399	0.64952
2048.13542	0.64965
2046.20686	0.64994
2044.27830	0.65019
2042.34973	0.65038
2040.42117	0.65064
2038.49260	0.65097
2036.56404	0.65129
2034.63547	0.65157
2032.70691	0.65166
2030.77834	0.65153
2028.84978	0.65129
2026.92122	0.65109
2024.99265	0.65093
2023.06409	0.65060
2021.13552	0.65000
2019.20696	0.64934
2017.27839	0.64866
2015.34983	0.64796
2013.42126	0.64736
2011.49270	0.64672
2009.56414	0.64582
2007.63557	0.64481
2005.70701	0.64402
2003.77844	0.64346
2001.84988	0.64292
1999.92131	0.64230
1997.99275	0.64173
1996.06418	0.64133
1994.13562	0.64092
1992.20706	0.64047
1990.27849	0.64013
1988.34993	0.63991
1986.42136	0.64004
1984.49280	0.64054
1982.56423	0.64106
1980.63567	0.64150
1978.70710	0.64186
1976.77854	0.64209
1974.84998	0.64221
1972.92141	0.64228
1970.99285	0.64222
1969.06428	0.64195
1967.13572	0.64159
1965.20715	0.64125
1963.27859	0.64081
1961.35002	0.64026
1959.42146	0.63976
1957.49290	0.63935
1955.56433	0.63920
1953.63577	0.63938
1951.70720	0.63961
1949.77864	0.63973
1947.85007	0.63995
1945.92151	0.64026
1943.99294	0.64048
1942.06438	0.64076
1940.13582	0.64119
1938.20725	0.64151
1936.27869	0.64167
1934.35012	0.64188
1932.42156	0.64215
1930.49299	0.64236
1928.56443	0.64237
1926.63586	0.64208
1924.70730	0.64166
1922.77874	0.64123
1920.85017	0.64072
1918.92161	0.63986
1916.99304	0.63883
1915.06448	0.63804
1913.13591	0.63726
1911.20735	0.63606
1909.27878	0.63453
1907.35022	0.63296
1905.42166	0.63134
1903.49309	0.62971
1901.56453	0.62818
1899.63596	0.62677
1897.70740	0.62542
1895.77883	0.62397
1893.85027	0.62248
1891.92171	0.62113
1889.99314	0.61995
1888.06458	0.61896
1886.13601	0.61802
1884.20745	0.61689
1882.27888	0.61566
1880.35032	0.61451
1878.42175	0.61339
1876.49319	0.61226
1874.56463	0.61103
1872.63606	0.60972
1870.70750	0.60825
1868.77893	0.60648
1866.85037	0.60495
1864.92180	0.60380
1862.99324	0.60262
1861.06467	0.60123
1859.13611	0.59965
1857.20755	0.59793
1855.27898	0.59623
1853.35042	0.59457
1851.42185	0.59295
1849.49329	0.59138
1847.56472	0.58979
1845.63616	0.58818
1843.70759	0.58673
1841.77903	0.58579
1839.85047	0.58502
1837.92190	0.58417
1835.99334	0.58360
1834.06477	0.58345
1832.13621	0.58336
1830.20764	0.58312
1828.27908	0.58308
1826.35051	0.58331
1824.42195	0.58365
1822.49339	0.58410
1820.56482	0.58453
1818.63626	0.58486
1816.70769	0.58500
1814.77913	0.58500
1812.85056	0.58492
1810.92200	0.58482
1808.99343	0.58476
1807.06487	0.58452
1805.13631	0.58401
1803.20774	0.58327
1801.27918	0.58259
1799.35061	0.58213
1797.42205	0.58169
1795.49348	0.58109
1793.56492	0.58033
1791.63635	0.57986
1789.70779	0.57980
1787.77923	0.57980
1785.85066	0.57991
1783.92210	0.58030
1781.99353	0.58086
1780.06497	0.58157
1778.13640	0.58247
1776.20784	0.58336
1774.27927	0.58442
1772.35071	0.58618
1770.42215	0.58823
1768.49358	0.59028
1766.56502	0.59249
1764.63645	0.59462
1762.70789	0.59709
1760.77932	0.60031
1758.85076	0.60377
1756.92220	0.60791
1754.99363	0.61235
1753.06507	0.61657
1751.13650	0.62226
1749.20794	0.63016
1747.27937	0.63784
1745.35081	0.64448
1743.42224	0.65089
1741.49368	0.65758
1739.56512	0.66442
1737.63655	0.66985
1735.70799	0.67441
1733.77942	0.68179
1731.85086	0.69032
1729.92229	0.69815
1727.99373	0.70677
1726.06516	0.71591
1724.13660	0.72637
1722.20804	0.73700
1720.27947	0.74674
1718.35091	0.76042
1716.42234	0.78291
1714.49378	0.80355
1712.56521	0.82021
1710.63665	0.83715
1708.70808	0.85574
1706.77952	0.88064
1704.85096	0.91254
1702.92239	0.94254
1700.99383	0.98426
1699.06526	1.04958
1697.13670	1.11153
1695.20813	1.17200
1693.27957	1.21807
1691.35100	1.25498
1689.42244	1.29941
1687.49388	1.34161
1685.56531	1.38360
1683.63675	1.44344
1681.70818	1.48582
1679.77962	1.50989
1677.85105	1.53189
1675.92249	1.55670
1673.99392	1.58133
1672.06536	1.59890
1670.13680	1.61482
1668.20823	1.63145
1666.27967	1.63971
1664.35110	1.64468
1662.42254	1.65073
1660.49397	1.65502
1658.56541	1.65729
1656.63684	1.65838
1654.70828	1.66180
1652.77972	1.66105
1650.85115	1.65254
1648.92259	1.64755
1646.99402	1.64408
1645.06546	1.64135
1643.13689	1.63814
1641.20833	1.63400
1639.27976	1.62814
1637.35120	1.62150
1635.42264	1.61423
1633.49407	1.60838
1631.56551	1.60438
1629.63694	1.59914
1627.70838	1.59300
1625.77981	1.58632
1623.85125	1.57748
1621.92269	1.56799
1619.99412	1.56073
1618.06556	1.55104
1616.13699	1.53268
1614.20843	1.51608
1612.27986	1.50351
1610.35130	1.49010
1608.42273	1.47538
1606.49417	1.46206
1604.56561	1.45239
1602.63704	1.44552
1600.70848	1.43988
1598.77991	1.43501
1596.85135	1.43245
1594.92278	1.43254
1592.99422	1.43341
1591.06565	1.43487
1589.13709	1.43823
1587.20853	1.44433
1585.27996	1.45297
1583.35140	1.46372
1581.42283	1.47424
1579.49427	1.48212
1577.56570	1.49027
1575.63714	1.50309
1573.70857	1.51350
1571.78001	1.51971
1569.85145	1.52833
1567.92288	1.53963
1565.99432	1.54846
1564.06575	1.55571
1562.13719	1.56192
1560.20862	1.56960
1558.28006	1.57972
1556.35149	1.58501
1554.42293	1.58981
1552.49437	1.59250
1550.56580	1.59144
1548.63724	1.58807
1546.70867	1.58514
1544.78011	1.58247
1542.85154	1.57817
1540.92298	1.56868
1538.99441	1.55792
1537.06585	1.55383
1535.13729	1.54752
1533.20872	1.53515
1531.28016	1.52511
1529.35159	1.51966
1527.42303	1.51353
1525.49446	1.50740
1523.56590	1.50427
1521.63733	1.50082
1519.70877	1.49710
1517.78021	1.49201
1515.85164	1.48119
1513.92308	1.46726
1511.99451	1.45238
1510.06595	1.43593
1508.13738	1.40977
1506.20882	1.37156
1504.28025	1.35154
1502.35169	1.33717
1500.42313	1.31922
1498.49456	1.29513
1496.56600	1.26569
1494.63743	1.24194
1492.70887	1.22511
1490.78030	1.20659
1488.85174	1.18418
1486.92317	1.16801
1484.99461	1.15887
1483.06605	1.15427
1481.13748	1.15443
1479.20892	1.15911
1477.28035	1.16775
1475.35179	1.18101
1473.42322	1.20326
1471.49466	1.23082
1469.56610	1.24816
1467.63753	1.25863
1465.70897	1.26969
1463.78040	1.28244
1461.85184	1.29172
1459.92327	1.29773
1457.99471	1.30582
1456.06614	1.31650
1454.13758	1.32045
1452.20902	1.31998
1450.28045	1.31793
1448.35189	1.31450
1446.42332	1.30970
1444.49476	1.30430
1442.56619	1.29816
1440.63763	1.29203
1438.70906	1.28566
1436.78050	1.27624
1434.85194	1.26586
1432.92337	1.25825
1430.99481	1.25154
1429.06624	1.24589
1427.13768	1.24323
1425.20911	1.24404
1423.28055	1.24813
1421.35198	1.25329
1419.42342	1.25917
1417.49486	1.26596
1415.56629	1.27102
1413.63773	1.27424
1411.70916	1.27615
1409.78060	1.27760
1407.85203	1.27894
1405.92347	1.28001
1403.99490	1.28047
1402.06634	1.28003
1400.13778	1.27873
1398.20921	1.27601
1396.28065	1.27228
1394.35208	1.26949
1392.42352	1.26896
1390.49495	1.27009
1388.56639	1.27412
1386.63782	1.28300
1384.70926	1.29350
1382.78070	1.30239
1380.85213	1.30822
1378.92357	1.30928
1376.99500	1.30499
1375.06644	1.29496
1373.13787	1.27999
1371.20931	1.26289
1369.28074	1.24313
1367.35218	1.22141
1365.42362	1.20115
1363.49505	1.18168
1361.56649	1.16437
1359.63792	1.15312
1357.70936	1.14680
1355.78079	1.14354
1353.85223	1.14212
1351.92366	1.14095
1349.99510	1.13919
1348.06654	1.13707
1346.13797	1.13494
1344.20941	1.13338
1342.28084	1.13264
1340.35228	1.13241
1338.42371	1.13337
1336.49515	1.13669
1334.56659	1.14227
1332.63802	1.14971
1330.70946	1.15836
1328.78089	1.16672
1326.85233	1.17303
1324.92376	1.17654
1322.99520	1.17859
1321.06663	1.18129
1319.13807	1.18486
1317.20951	1.18810
1315.28094	1.19066
1313.35238	1.19279
1311.42381	1.19434
1309.49525	1.19491
1307.56668	1.19392
1305.63812	1.19135
1303.70955	1.18806
1301.78099	1.18446
1299.85243	1.17972
1297.92386	1.17266
1295.99530	1.16368
1294.06673	1.15504
1292.13817	1.14835
1290.20960	1.14331
1288.28104	1.13907
1286.35247	1.13552
1284.42391	1.13248
1282.49535	1.12937
1280.56678	1.12631
1278.63822	1.12418
1276.70965	1.12358
1274.78109	1.12437
1272.85252	1.12688
1270.92396	1.13145
1268.99539	1.13744
1267.06683	1.14383
1265.13827	1.14976
1263.20970	1.15436
1261.28114	1.15711
1259.35257	1.15877
1257.42401	1.16059
1255.49544	1.16271
1253.56688	1.16459
1251.63831	1.16616
1249.70975	1.16771
1247.78119	1.16949
1245.85262	1.17135
1243.92406	1.17268
1241.99549	1.17308
1240.06693	1.17257
1238.13836	1.17078
1236.20980	1.16712
1234.28123	1.16181
1232.35267	1.15553
1230.42411	1.14836
1228.49554	1.14007
1226.56698	1.13046
1224.63841	1.11947
1222.70985	1.10794
1220.78128	1.09720
1218.85272	1.08751
1216.92415	1.07881
1214.99559	1.07183
1213.06703	1.06753
1211.13846	1.06645
1209.20990	1.06758
1207.28133	1.06815
1205.35277	1.06568
1203.42420	1.05921
1201.49564	1.04972
1199.56708	1.03910
1197.63851	1.02805
1195.70995	1.01692
1193.78138	1.00709
1191.85282	0.99930
1189.92425	0.99342
1187.99569	0.98953
1186.06712	0.98746
1184.13856	0.98749
1182.21000	0.99051
1180.28143	0.99612
1178.35287	1.00362
1176.42430	1.01327
1174.49574	1.02507
1172.56717	1.03839
1170.63861	1.05332
1168.71004	1.07048
1166.78148	1.08965
1164.85292	1.10989
1162.92435	1.12944
1160.99579	1.14597
1159.06722	1.15738
1157.13866	1.16196
1155.21009	1.15989
1153.28153	1.15308
1151.35296	1.14357
1149.42440	1.13280
1147.49584	1.12165
1145.56727	1.11109
1143.63871	1.10307
1141.71014	1.09963
1139.78158	1.10083
1137.85301	1.10516
1135.92445	1.11244
1133.99588	1.12349
1132.06732	1.13785
1130.13876	1.15447
1128.21019	1.17296
1126.28163	1.19193
1124.35306	1.20830
1122.42450	1.22062
1120.49593	1.23058
1118.56737	1.23890
1116.63880	1.24430
1114.71024	1.24578
1112.78168	1.24346
1110.85311	1.23880
1108.92455	1.23306
1106.99598	1.22658
1105.06742	1.22039
1103.13885	1.21562
1101.21029	1.21213
1099.28172	1.20990
1097.35316	1.21041
1095.42460	1.21588
1093.49603	1.22617
1091.56747	1.23918
1089.63890	1.25536
1087.71034	1.27561
1085.78177	1.29749
1083.85321	1.31859
1081.92464	1.33760
1079.99608	1.35288
1078.06752	1.36263
1076.13895	1.36569
1074.21039	1.36453
1072.28182	1.36219
1070.35326	1.35676
1068.42469	1.34709
1066.49613	1.33734
1064.56756	1.33034
1062.63900	1.32407
1060.71044	1.31643
1058.78187	1.30819
1056.85331	1.30049
1054.92474	1.29299
1052.99618	1.28595
1051.06761	1.28057
1049.13905	1.27737
1047.21049	1.27626
1045.28192	1.27714
1043.35336	1.28034
1041.42479	1.28622
1039.49623	1.29344
1037.56766	1.29941
1035.63910	1.30343
1033.71053	1.30700
1031.78197	1.30961
1029.85341	1.30828
1027.92484	1.30322
1025.99628	1.29737
1024.06771	1.29109
1022.13915	1.28328
1020.21058	1.27493
1018.28202	1.26741
1016.35345	1.25988
1014.42489	1.24986
1012.49633	1.23540
1010.56776	1.21683
1008.63920	1.19572
1006.71063	1.17292
1004.78207	1.14893
1002.85350	1.12545
1000.92494	1.10452
998.99637	1.08682
997.06781	1.07230
995.13925	1.05979
993.21068	1.04715
991.28212	1.03343
989.35355	1.01807
987.42499	1.00076
985.49642	0.98323
983.56786	0.96749
981.63929	0.95405
979.71073	0.94343
977.78217	0.93543
975.85360	0.92775
973.92504	0.91833
971.99647	0.90714
970.06791	0.89493
968.13934	0.88267
966.21078	0.87171
964.28221	0.86350
962.35365	0.85984
960.42509	0.86243
958.49652	0.87080
956.56796	0.88050
954.63939	0.88553
952.71083	0.88323
950.78226	0.87520
948.85370	0.86503
946.92513	0.85596
944.99657	0.84929
943.06801	0.84458
941.13944	0.84095
939.21088	0.83789
937.28231	0.83599
935.35375	0.83554
933.42518	0.83555
931.49662	0.83545
929.56805	0.83555
927.63949	0.83599
925.71093	0.83696
923.78236	0.83827
921.85380	0.83871
919.92523	0.83750
917.99667	0.83515
916.06810	0.83237
914.13954	0.82935
912.21098	0.82645
910.28241	0.82446
908.35385	0.82385
906.42528	0.82461
904.49672	0.82636
902.56815	0.82828
900.63959	0.82944
898.71102	0.82924
896.78246	0.82779
894.85390	0.82558
892.92533	0.82245
890.99677	0.81810
889.06820	0.81334
887.13964	0.80941
885.21107	0.80678
883.28251	0.80537
881.35394	0.80515
879.42538	0.80591
877.49682	0.80732
875.56825	0.80910
873.63969	0.81092
871.71112	0.81277
869.78256	0.81484
867.85399	0.81723
865.92543	0.82009
863.99686	0.82341
862.06830	0.82712
860.13974	0.83144
858.21117	0.83613
856.28261	0.84052
854.35404	0.84476
852.42548	0.84916
850.49691	0.85337
848.56835	0.85693
846.63978	0.85962
844.71122	0.86129
842.78266	0.86179
840.85409	0.86131
838.92553	0.86031
836.99696	0.85898
835.06840	0.85765
833.13983	0.85660
831.21127	0.85554
829.28270	0.85443
827.35414	0.85362
825.42558	0.85278
823.49701	0.85176
821.56845	0.85146
819.63988	0.85231
817.71132	0.85334
815.78275	0.85389
813.85419	0.85450
811.92562	0.85591
809.99706	0.85786
808.06850	0.86016
806.13993	0.86323
804.21137	0.86700
802.28280	0.87112
800.35424	0.87580
798.42567	0.88159
796.49711	0.88895
794.56854	0.89800
792.63998	0.90811
790.71142	0.91867
788.78285	0.92998
786.85429	0.94172
784.92572	0.95274
782.99716	0.96334
781.06859	0.97467
779.14003	0.98614
777.21147	0.99641
775.28290	1.00527
773.35434	1.01308
771.42577	1.01953
769.49721	1.02411
767.56864	1.02720
765.64008	1.02986
763.71151	1.03235
761.78295	1.03370
759.85439	1.03386
757.92582	1.03433
755.99726	1.03491
754.06869	1.03405
752.14013	1.03240
750.21156	1.03136
748.28300	1.03065
746.35443	1.02941
744.42587	1.02750
742.49731	1.02461
740.56874	1.02004
738.64018	1.01462
736.71161	1.01051
734.78305	1.00840
732.85448	1.00733
730.92592	1.00650
728.99735	1.00557
727.06879	1.00518
725.14023	1.00631
723.21166	1.00885
721.28310	1.01195
719.35453	1.01510
717.42597	1.01881
715.49740	1.02434
713.56884	1.03162
711.64027	1.03902
709.71171	1.04586
707.78315	1.05297
705.85458	1.06089
703.92602	1.06910
701.99745	1.07642
700.06889	1.08249
698.14032	1.08759
696.21176	1.09218
694.28319	1.09748
692.35463	1.10346
690.42607	1.10852
688.49750	1.11339
686.56894	1.11941
684.64037	1.12510
682.71181	1.12948
680.78324	1.13335
678.85468	1.13682
676.92611	1.13949
674.99755	1.14160
673.06899	1.14273
671.14042	1.14219
669.21186	1.14230
667.28329	1.14613
665.35473	1.14873
663.42616	1.14831
661.49760	1.14613
659.56903	1.14495
657.64047	1.14598
655.71191	1.14591
653.78334	1.14350
651.85478	1.14145
649.92621	1.14095
647.99765	1.14105
646.06908	1.14317
644.14052	1.15005
642.21195	1.15882
640.28339	1.16336
638.35483	1.16405
636.42626	1.16579
634.49770	1.16985
632.56913	1.17566
630.64057	1.18339
628.71200	1.19028
626.78344	1.19276
624.85488	1.19405
622.92631	1.20021
620.99775	1.20955
619.06918	1.21627
617.14062	1.21988
615.21205	1.22347
613.28349	1.22669
611.35492	1.22925
609.42636	1.23330
607.49780	1.23809
605.56923	1.24401
603.64067	1.25126
601.71210	1.25466
599.78354	1.25448
