3997.91406	1.00967
3995.98550	1.01064
3994.05693	1.00912
3992.12837	1.00641
3990.19980	1.00531
3988.27124	1.00502
3986.34268	1.00424
3984.41411	1.00422
3982.48555	1.00501
3980.55698	1.00450
3978.62842	1.00198
3976.69985	0.99882
3974.77129	0.99649
3972.84272	0.99623
3970.91416	0.99769
3968.98560	0.99836
3967.05703	0.99705
3965.12847	0.99509
3963.19990	0.99440
3961.27134	0.99554
3959.34277	0.99663
3957.41421	0.99632
3955.48564	0.99603
3953.55708	0.99732
3951.62852	0.99826
3949.69995	0.99760
3947.77139	0.99713
3945.84282	0.99643
3943.91426	0.99620
3941.98569	0.99770
3940.05713	0.99777
3938.12856	0.99573
3936.20000	0.99361
3934.27144	0.99189
3932.34287	0.99129
3930.41431	0.99133
3928.48574	0.98908
3926.55718	0.98546
3924.62861	0.98334
3922.70005	0.98166
3920.77148	0.97920
3918.84292	0.97794
3916.91436	0.97799
3914.98579	0.97729
3913.05723	0.97569
3911.12866	0.97316
3909.20010	0.96999
3907.27153	0.96794
3905.34297	0.96753
3903.41440	0.96766
3901.48584	0.96995
3899.55728	0.97515
3897.62871	0.97733
3895.70015	0.97394
3893.77158	0.96966
3891.84302	0.96996
3889.91445	0.97229
3887.98589	0.97241
3886.05733	0.97234
3884.12876	0.97173
3882.20020	0.97098
3880.27163	0.97109
3878.34307	0.96712
3876.41450	0.96141
3874.48594	0.95980
3872.55737	0.96165
3870.62881	0.96407
3868.70025	0.96468
3866.77168	0.96209
3864.84312	0.96025
3862.91455	0.96010
3860.98599	0.95886
3859.05742	0.95638
3857.12886	0.95270
3855.20029	0.95144
3853.27173	0.95957
3851.34317	0.96192
3849.41460	0.95725
3847.48604	0.95399
3845.55747	0.95272
3843.62891	0.95117
3841.70034	0.94799
3839.77178	0.94683
3837.84321	0.95077
3835.91465	0.95270
3833.98609	0.94996
3832.05752	0.94656
3830.12896	0.94336
3828.20039	0.93960
3826.27183	0.93713
3824.34326	0.93672
3822.41470	0.93873
3820.48613	0.94249
3818.55757	0.94268
3816.62901	0.94229
3814.70044	0.94163
3812.77188	0.93840
3810.84331	0.93547
3808.91475	0.93566
3806.98618	0.93817
3805.05762	0.93697
3803.12905	0.93414
3801.20049	0.93563
3799.27193	0.93729
3797.34336	0.93841
3795.41480	0.93962
3793.48623	0.93783
3791.55767	0.93481
3789.62910	0.93245
3787.70054	0.93014
3785.77197	0.92817
3783.84341	0.92680
3781.91485	0.92608
3779.98628	0.92732
3778.05772	0.92881
3776.12915	0.92787
3774.20059	0.92515
3772.27202	0.92186
3770.34346	0.92070
3768.41489	0.92233
3766.48633	0.92389
3764.55777	0.92323
3762.62920	0.92000
3760.70064	0.91821
3758.77207	0.91981
3756.84351	0.91920
3754.91494	0.91524
3752.98638	0.91286
3751.05781	0.91758
3749.12925	0.92152
3747.20069	0.91908
3745.27212	0.91806
3743.34356	0.91911
3741.41499	0.91708
3739.48643	0.91338
3737.55786	0.91070
3735.62930	0.91110
3733.70074	0.91325
3731.77217	0.91295
3729.84361	0.91026
3727.91504	0.90761
3725.98648	0.90718
3724.05791	0.90930
3722.12935	0.91132
3720.20078	0.91070
3718.27222	0.90832
3716.34366	0.90588
3714.41509	0.90398
3712.48653	0.90484
3710.55796	0.90882
3708.62940	0.90969
3706.70083	0.90720
3704.77227	0.90414
3702.84370	0.90349
3700.91514	0.90536
3698.98658	0.90575
3697.05801	0.90481
3695.12945	0.90344
3693.20088	0.90070
3691.27232	0.89893
3689.34375	0.90411
3687.41519	0.90985
3685.48662	0.90958
3683.55806	0.90806
3681.62950	0.90848
3679.70093	0.90927
3677.77237	0.90847
3675.84380	0.91102
3673.91524	0.91568
3671.98667	0.91778
3670.05811	0.92402
3668.12954	0.92974
3666.20098	0.93028
3664.27242	0.93146
3662.34385	0.93469
3660.41529	0.93685
3658.48672	0.93817
3656.55816	0.94287
3654.62959	0.94686
3652.70103	0.94538
3650.77246	0.94430
3648.84390	0.95491
3646.91534	0.96634
3644.98677	0.96894
3643.05821	0.96985
3641.12964	0.97288
3639.20108	0.97749
3637.27251	0.98181
3635.34395	0.98548
3633.41538	0.98845
3631.48682	0.99077
3629.55826	0.99861
3627.62969	1.01099
3625.70113	1.01451
3623.77256	1.01383
3621.84400	1.01477
3619.91543	1.02036
3617.98687	1.02703
3616.05830	1.02979
3614.12974	1.03261
3612.20118	1.03733
3610.27261	1.04171
3608.34405	1.04636
3606.41548	1.05041
3604.48692	1.05241
3602.55835	1.05586
3600.62979	1.06288
3598.70123	1.06949
3596.77266	1.07332
3594.84410	1.07735
3592.91553	1.08230
3590.98697	1.08603
3589.05840	1.09111
3587.12984	1.10025
3585.20127	1.10741
3583.27271	1.11196
3581.34415	1.11772
3579.41558	1.12470
3577.48702	1.13102
3575.55845	1.13693
3573.62989	1.14221
3571.70132	1.14459
3569.77276	1.14545
3567.84419	1.15069
3565.91563	1.15947
3563.98707	1.16387
3562.05850	1.16599
3560.12994	1.16896
3558.20137	1.17438
3556.27281	1.18164
3554.34424	1.18908
3552.41568	1.19662
3550.48711	1.20283
3548.55855	1.20794
3546.62999	1.21557
3544.70142	1.22573
3542.77286	1.23456
3540.84429	1.24076
3538.91573	1.24505
3536.98716	1.24887
3535.05860	1.25312
3533.13003	1.25819
3531.20147	1.26599
3529.27291	1.27634
3527.34434	1.28461
3525.41578	1.29044
3523.48721	1.29745
3521.55865	1.30429
3519.63008	1.31001
3517.70152	1.31634
3515.77295	1.32193
3513.84439	1.32655
3511.91583	1.33212
3509.98726	1.33921
3508.05870	1.34756
3506.13013	1.35647
3504.20157	1.36610
3502.27300	1.37771
3500.34444	1.39176
3498.41587	1.40581
3496.48731	1.41798
3494.55875	1.42956
3492.63018	1.43872
3490.70162	1.44396
3488.77305	1.45033
3486.84449	1.45895
3484.91592	1.46390
3482.98736	1.46536
3481.05879	1.46804
3479.13023	1.47329
3477.20167	1.47971
3475.27310	1.48362
3473.34454	1.48519
3471.41597	1.48831
3469.48741	1.49310
3467.55884	1.49817
3465.63028	1.50292
3463.70171	1.50803
3461.77315	1.51215
3459.84459	1.51306
3457.91602	1.51362
3455.98746	1.51707
3454.05889	1.52249
3452.13033	1.52683
3450.20176	1.52892
3448.27320	1.53320
3446.34464	1.54208
3444.41607	1.54792
3442.48751	1.54819
3440.55894	1.54921
3438.63038	1.55398
3436.70181	1.56191
3434.77325	1.56844
3432.84468	1.56992
3430.91612	1.56961
3428.98756	1.56820
3427.05899	1.56371
3425.13043	1.55906
3423.20186	1.55830
3421.27330	1.56102
3419.34473	1.56257
3417.41617	1.56002
3415.48760	1.55682
3413.55904	1.55657
3411.63048	1.55587
3409.70191	1.55205
3407.77335	1.55065
3405.84478	1.55504
3403.91622	1.56073
3401.98765	1.56410
3400.05909	1.56580
3398.13052	1.56658
3396.20196	1.56723
3394.27340	1.56893
3392.34483	1.57045
3390.41627	1.56910
3388.48770	1.56768
3386.55914	1.57076
3384.63057	1.57651
3382.70201	1.58185
3380.77344	1.58479
3378.84488	1.58370
3376.91632	1.58221
3374.98775	1.58330
3373.05919	1.58517
3371.13062	1.58668
3369.20206	1.58939
3367.27349	1.59442
3365.34493	1.59910
3363.41636	1.59967
3361.48780	1.59676
3359.55924	1.59565
3357.63067	1.59795
3355.70211	1.59954
3353.77354	1.60061
3351.84498	1.60367
3349.91641	1.60575
3347.98785	1.60562
3346.05928	1.60979
3344.13072	1.62003
3342.20216	1.62770
3340.27359	1.63308
3338.34503	1.64526
3336.41646	1.65942
3334.48790	1.66429
3332.55933	1.66056
3330.63077	1.65460
3328.70220	1.65405
3326.77364	1.66143
3324.84508	1.66633
3322.91651	1.66288
3320.98795	1.66108
3319.05938	1.66896
3317.13082	1.68264
3315.20225	1.69363
3313.27369	1.69898
3311.34513	1.70269
3309.41656	1.70921
3307.48800	1.71860
3305.55943	1.72843
3303.63087	1.73524
3301.70230	1.73277
3299.77374	1.72184
3297.84517	1.71501
3295.91661	1.71897
3293.98805	1.72827
3292.05948	1.73729
3290.13092	1.74335
3288.20235	1.74508
3286.27379	1.74366
3284.34522	1.74178
3282.41666	1.74237
3280.48809	1.74468
3278.55953	1.74536
3276.63097	1.74349
3274.70240	1.73792
3272.77384	1.72669
3270.84527	1.71464
3268.91671	1.70888
3266.98814	1.70578
3265.05958	1.69774
3263.13101	1.68779
3261.20245	1.68077
3259.27389	1.67178
3257.34532	1.65963
3255.41676	1.65271
3253.48819	1.64986
3251.55963	1.64004
3249.63106	1.62264
3247.70250	1.60678
3245.77393	1.59808
3243.84537	1.59376
3241.91681	1.58649
3239.98824	1.57551
3238.05968	1.56752
3236.13111	1.56432
3234.20255	1.56138
3232.27398	1.55555
3230.34542	1.54749
3228.41685	1.53939
3226.48829	1.53225
3224.55973	1.52703
3222.63116	1.52331
3220.70260	1.51709
3218.77403	1.50790
3216.84547	1.49947
3214.91690	1.49121
3212.98834	1.48173
3211.05977	1.47400
3209.13121	1.46972
3207.20265	1.46518
3205.27408	1.45626
3203.34552	1.44558
3201.41695	1.43865
3199.48839	1.43663
3197.55982	1.43694
3195.63126	1.43528
3193.70269	1.42960
3191.77413	1.42302
3189.84557	1.41801
3187.91700	1.41311
3185.98844	1.40825
3184.05987	1.40388
3182.13131	1.39772
3180.20274	1.38987
3178.27418	1.38304
3176.34562	1.37801
3174.41705	1.37355
3172.48849	1.36804
3170.55992	1.36128
3168.63136	1.35413
3166.70279	1.34803
3164.77423	1.34336
3162.84566	1.33818
3160.91710	1.33317
3158.98854	1.33047
3157.05997	1.32782
3155.13141	1.32319
3153.20284	1.31853
3151.27428	1.31550
3149.34571	1.31361
3147.41715	1.31080
3145.48858	1.30634
3143.56002	1.30286
3141.63146	1.30211
3139.70289	1.30252
3137.77433	1.30268
3135.84576	1.30226
3133.91720	1.30020
3131.98863	1.29655
3130.06007	1.29417
3128.13150	1.29469
3126.20294	1.29650
3124.27438	1.29766
3122.34581	1.29762
3120.41725	1.29799
3118.48868	1.30092
3116.56012	1.30400
3114.63155	1.30329
3112.70299	1.30091
3110.77442	1.29991
3108.84586	1.29898
3106.91730	1.29768
3104.98873	1.29765
3103.06017	1.29852
3101.13160	1.29851
3099.20304	1.29739
3097.27447	1.29679
3095.34591	1.29749
3093.41734	1.29792
3091.48878	1.29706
3089.56022	1.29489
3087.63165	1.29116
3085.70309	1.28743
3083.77452	1.28566
3081.84596	1.28501
3079.91739	1.28298
3077.98883	1.27855
3076.06026	1.27346
3074.13170	1.26986
3072.20314	1.26784
3070.27457	1.26589
3068.34601	1.26356
3066.41744	1.26092
3064.48888	1.25696
3062.56031	1.25203
3060.63175	1.24678
3058.70318	1.24189
3056.77462	1.23879
3054.84606	1.23577
3052.91749	1.23104
3050.98893	1.22629
3049.06036	1.22221
3047.13180	1.21787
3045.20323	1.21323
3043.27467	1.20943
3041.34610	1.20726
3039.41754	1.20488
3037.48898	1.20011
3035.56041	1.19415
3033.63185	1.18927
3031.70328	1.18545
3029.77472	1.18205
3027.84615	1.17943
3025.91759	1.17708
3023.98903	1.17401
3022.06046	1.17075
3020.13190	1.16790
3018.20333	1.16444
3016.27477	1.16049
3014.34620	1.15856
3012.41764	1.15860
3010.48907	1.15790
3008.56051	1.15626
3006.63195	1.15456
3004.70338	1.15278
3002.77482	1.15146
3000.84625	1.15130
2998.91769	1.15231
2996.98912	1.15381
2995.06056	1.15535
2993.13199	1.15759
2991.20343	1.16126
2989.27487	1.16690
2987.34630	1.17455
2985.41774	1.18256
2983.48917	1.18980
2981.56061	1.19643
2979.63204	1.20229
2977.70348	1.20851
2975.77491	1.21653
2973.84635	1.22540
2971.91779	1.23327
2969.98922	1.23990
2968.06066	1.24688
2966.13209	1.25486
2964.20353	1.26136
2962.27496	1.26388
2960.34640	1.26288
2958.41783	1.25911
2956.48927	1.25250
2954.56071	1.24440
2952.63214	1.23642
2950.70358	1.22960
2948.77501	1.22549
2946.84645	1.22498
2944.91788	1.22795
2942.98932	1.23449
2941.06075	1.24401
2939.13219	1.25449
2937.20363	1.26421
2935.27506	1.27269
2933.34650	1.28016
2931.41793	1.28732
2929.48937	1.29427
2927.56080	1.29997
2925.63224	1.30464
2923.70367	1.30910
2921.77511	1.31129
2919.84655	1.30896
2917.91798	1.30051
2915.98942	1.28380
2914.06085	1.26189
2912.13229	1.24138
2910.20372	1.22368
2908.27516	1.20811
2906.34659	1.19671
2904.41803	1.18895
2902.48947	1.18202
2900.56090	1.17676
2898.63234	1.17386
2896.70377	1.17091
2894.77521	1.16708
2892.84664	1.16416
2890.91808	1.16322
2888.98952	1.16193
2887.06095	1.15810
2885.13239	1.15444
2883.20382	1.15331
2881.27526	1.15319
2879.34669	1.15437
2877.41813	1.15766
2875.48956	1.15950
2873.56100	1.15673
2871.63244	1.15023
2869.70387	1.14235
2867.77531	1.13486
2865.84674	1.12829
2863.91818	1.12285
2861.98961	1.11997
2860.06105	1.12064
2858.13248	1.12339
2856.20392	1.12699
2854.27536	1.13180
2852.34679	1.13600
2850.41823	1.13470
2848.48966	1.12389
2846.56110	1.10409
2844.63253	1.08085
2842.70397	1.06081
2840.77540	1.04708
2838.84684	1.03862
2836.91828	1.03284
2834.98971	1.02791
2833.06115	1.02346
2831.13258	1.01964
2829.20402	1.01592
2827.27545	1.01221
2825.34689	1.00886
2823.41832	1.00503
2821.48976	1.00076
2819.56120	0.99765
2817.63263	0.99531
2815.70407	0.99203
2813.77550	0.98812
2811.84694	0.98474
2809.91837	0.98207
2807.98981	0.97924
2806.06124	0.97543
2804.13268	0.97127
2802.20412	0.96785
2800.27555	0.96504
2798.34699	0.96191
2796.41842	0.95828
2794.48986	0.95511
2792.56129	0.95293
2790.63273	0.95091
2788.70416	0.94845
2786.77560	0.94600
2784.84704	0.94426
2782.91847	0.94322
2780.98991	0.94189
2779.06134	0.93989
2777.13278	0.93771
2775.20421	0.93553
2773.27565	0.93364
2771.34708	0.93208
2769.41852	0.93031
2767.48996	0.92817
2765.56139	0.92569
2763.63283	0.92297
2761.70426	0.92026
2759.77570	0.91802
2757.84713	0.91630
2755.91857	0.91468
2753.99001	0.91334
2752.06144	0.91263
2750.13288	0.91164
2748.20431	0.91003
2746.27575	0.90873
2744.34718	0.90801
2742.41862	0.90748
2740.49005	0.90734
2738.56149	0.90742
2736.63293	0.90696
2734.70436	0.90584
2732.77580	0.90460
2730.84723	0.90344
2728.91867	0.90227
2726.99010	0.90108
2725.06154	0.89945
2723.13297	0.89714
2721.20441	0.89462
2719.27585	0.89217
2717.34728	0.88986
2715.41872	0.88763
2713.49015	0.88463
2711.56159	0.88087
2709.63302	0.87775
2707.70446	0.87567
2705.77589	0.87375
2703.84733	0.87146
2701.91877	0.86921
2699.99020	0.86761
2698.06164	0.86644
2696.13307	0.86510
2694.20451	0.86380
2692.27594	0.86310
2690.34738	0.86300
2688.41881	0.86267
2686.49025	0.86152
2684.56169	0.86044
2682.63312	0.86006
2680.70456	0.85939
2678.77599	0.85808
2676.84743	0.85710
2674.91886	0.85626
2672.99030	0.85444
2671.06173	0.85182
2669.13317	0.84944
2667.20461	0.84770
2665.27604	0.84634
2663.34748	0.84499
2661.41891	0.84350
2659.49035	0.84196
2657.56178	0.84050
2655.63322	0.83912
2653.70465	0.83794
2651.77609	0.83705
2649.84753	0.83633
2647.91896	0.83574
2645.99040	0.83535
2644.06183	0.83501
2642.13327	0.83430
2640.20470	0.83345
2638.27614	0.83326
2636.34757	0.83363
2634.41901	0.83371
2632.49045	0.83310
2630.56188	0.83197
2628.63332	0.83058
2626.70475	0.82916
2624.77619	0.82765
2622.84762	0.82599
2620.91906	0.82449
2618.99049	0.82329
2617.06193	0.82199
2615.13337	0.82041
2613.20480	0.81884
2611.27624	0.81728
2609.34767	0.81558
2607.41911	0.81402
2605.49054	0.81297
2603.56198	0.81216
2601.63342	0.81127
2599.70485	0.81059
2597.77629	0.81027
2595.84772	0.80983
2593.91916	0.80894
2591.99059	0.80780
2590.06203	0.80677
2588.13346	0.80592
2586.20490	0.80505
2584.27634	0.80400
2582.34777	0.80271
2580.41921	0.80143
2578.49064	0.80046
2576.56208	0.79935
2574.63351	0.79762
2572.70495	0.79565
2570.77638	0.79374
2568.84782	0.79170
2566.91926	0.78972
2564.99069	0.78805
2563.06213	0.78656
2561.13356	0.78501
2559.20500	0.78338
2557.27643	0.78192
2555.34787	0.78083
2553.41930	0.77989
2551.49074	0.77889
2549.56218	0.77807
2547.63361	0.77742
2545.70505	0.77648
2543.77648	0.77519
2541.84792	0.77414
2539.91935	0.77357
2537.99079	0.77306
2536.06222	0.77217
2534.13366	0.77106
2532.20510	0.77021
2530.27653	0.76972
2528.34797	0.76923
2526.41940	0.76847
2524.49084	0.76745
2522.56227	0.76647
2520.63371	0.76581
2518.70514	0.76541
2516.77658	0.76491
2514.84802	0.76414
2512.91945	0.76308
2510.99089	0.76175
2509.06232	0.76038
2507.13376	0.75917
2505.20519	0.75826
2503.27663	0.75773
2501.34806	0.75721
2499.41950	0.75652
2497.49094	0.75584
2495.56237	0.75524
2493.63381	0.75462
2491.70524	0.75380
2489.77668	0.75287
2487.84811	0.75200
2485.91955	0.75117
2483.99098	0.75014
2482.06242	0.74883
2480.13386	0.74774
2478.20529	0.74703
2476.27673	0.74608
2474.34816	0.74470
2472.41960	0.74332
2470.49103	0.74216
2468.56247	0.74101
2466.63391	0.73965
2464.70534	0.73819
2462.77678	0.73675
2460.84821	0.73519
2458.91965	0.73345
2456.99108	0.73195
2455.06252	0.73096
2453.13395	0.73021
2451.20539	0.72939
2449.27683	0.72841
2447.34826	0.72743
2445.41970	0.72655
2443.49113	0.72562
2441.56257	0.72481
2439.63400	0.72434
2437.70544	0.72408
2435.77687	0.72380
2433.84831	0.72334
2431.91975	0.72279
2429.99118	0.72259
2428.06262	0.72277
2426.13405	0.72271
2424.20549	0.72215
2422.27692	0.72140
2420.34836	0.72075
2418.41979	0.72009
2416.49123	0.71915
2414.56267	0.71792
2412.63410	0.71660
2410.70554	0.71537
2408.77697	0.71419
2406.84841	0.71295
2404.91984	0.71171
2402.99128	0.71054
2401.06271	0.70958
2399.13415	0.70887
2397.20559	0.70819
2395.27702	0.70750
2393.34846	0.70695
2391.41989	0.70634
2389.49133	0.70555
2387.56276	0.70478
2385.63420	0.70390
2383.70563	0.70257
2381.77707	0.70086
2379.84851	0.69911
2377.91994	0.69720
2375.99138	0.69483
2374.06281	0.69227
2372.13425	0.68968
2370.20568	0.68644
2368.27712	0.68250
2366.34855	0.67860
2364.41999	0.67459
2362.49143	0.67110
2360.56286	0.67011
2358.63430	0.67198
2356.70573	0.67474
2354.77717	0.67689
2352.84860	0.67901
2350.92004	0.68032
2348.99147	0.67956
2347.06291	0.67706
2345.13435	0.67404
2343.20578	0.67195
2341.27722	0.67042
2339.34865	0.66879
2337.42009	0.66850
2335.49152	0.66982
2333.56296	0.67128
2331.63440	0.67283
2329.70583	0.67467
2327.77727	0.67566
2325.84870	0.67568
2323.92014	0.67566
2321.99157	0.67630
2320.06301	0.67734
2318.13444	0.67809
2316.20588	0.67831
2314.27732	0.67816
2312.34875	0.67782
2310.42019	0.67738
2308.49162	0.67724
2306.56306	0.67772
2304.63449	0.67816
2302.70593	0.67791
2300.77736	0.67734
2298.84880	0.67705
2296.92024	0.67722
2294.99167	0.67759
2293.06311	0.67783
2291.13454	0.67804
2289.20598	0.67846
2287.27741	0.67886
2285.34885	0.67909
2283.42028	0.67927
2281.49172	0.67932
2279.56316	0.67934
2277.63459	0.67935
2275.70603	0.67889
2273.77746	0.67799
2271.84890	0.67712
2269.92033	0.67636
2267.99177	0.67569
2266.06320	0.67492
2264.13464	0.67396
2262.20608	0.67319
2260.27751	0.67259
2258.34895	0.67182
2256.42038	0.67086
2254.49182	0.66985
2252.56325	0.66901
2250.63469	0.66851
2248.70612	0.66822
2246.77756	0.66792
2244.84900	0.66776
2242.92043	0.66790
2240.99187	0.66818
2239.06330	0.66856
2237.13474	0.66909
2235.20617	0.66960
2233.27761	0.67005
2231.34904	0.67036
2229.42048	0.67039
2227.49192	0.67031
2225.56335	0.67040
2223.63479	0.67042
2221.70622	0.66988
2219.77766	0.66886
2217.84909	0.66794
2215.92053	0.66722
2213.99196	0.66622
2212.06340	0.66479
2210.13484	0.66347
2208.20627	0.66268
2206.27771	0.66213
2204.34914	0.66147
2202.42058	0.66064
2200.49201	0.65988
2198.56345	0.65954
2196.63488	0.65969
2194.70632	0.65999
2192.77776	0.66020
2190.84919	0.66040
2188.92063	0.66061
2186.99206	0.66080
2185.06350	0.66088
2183.13493	0.66076
2181.20637	0.66061
2179.27781	0.66048
2177.34924	0.66014
2175.42068	0.65957
2173.49211	0.65876
2171.56355	0.65755
2169.63498	0.65616
2167.70642	0.65491
2165.77785	0.65372
2163.84929	0.65264
2161.92073	0.65188
2159.99216	0.65137
2158.06360	0.65086
2156.13503	0.65031
2154.20647	0.64981
2152.27790	0.64958
2150.34934	0.64978
2148.42077	0.65026
2146.49221	0.65087
2144.56365	0.65161
2142.63508	0.65242
2140.70652	0.65312
2138.77795	0.65362
2136.84939	0.65400
2134.92082	0.65430
2132.99226	0.65454
2131.06369	0.65446
2129.13513	0.65390
2127.20657	0.65308
2125.27800	0.65209
2123.34944	0.65086
2121.42087	0.64942
2119.49231	0.64798
2117.56374	0.64676
2115.63518	0.64559
2113.70661	0.64431
2111.77805	0.64300
2109.84949	0.64188
2107.92092	0.64101
2105.99236	0.64041
2104.06379	0.64023
2102.13523	0.64031
2100.20666	0.64046
2098.27810	0.64077
2096.34953	0.64112
2094.42097	0.64130
2092.49241	0.64151
2090.56384	0.64204
2088.63528	0.64267
2086.70671	0.64292
2084.77815	0.64267
2082.84958	0.64210
2080.92102	0.64136
2078.99245	0.64055
2077.06389	0.63972
2075.13533	0.63881
2073.20676	0.63774
2071.27820	0.63646
2069.34963	0.63488
2067.42107	0.63318
2065.49250	0.63168
2063.56394	0.63062
2061.63537	0.62996
2059.70681	0.62952
2057.77825	0.62898
2055.84968	0.62823
2053.92112	0.62771
2051.99255	0.62774
2050.06399	0.62788
2048.13542	0.62783
2046.20686	0.62766
2044.27830	0.62756
2042.34973	0.62755
2040.42117	0.62743
2038.49260	0.62693
2036.56404	0.62616
2034.63547	0.62538
2032.70691	0.62458
2030.77834	0.62356
2028.84978	0.62243
2026.92122	0.62149
2024.99265	0.62070
2023.06409	0.61984
2021.13552	0.61880
2019.20696	0.61767
2017.27839	0.61676
2015.34983	0.61628
2013.42126	0.61591
2011.49270	0.61533
2009.56414	0.61475
2007.63557	0.61456
2005.70701	0.61476
2003.77844	0.61504
2001.84988	0.61530
1999.92131	0.61564
1997.99275	0.61588
1996.06418	0.61583
1994.13562	0.61582
1992.20706	0.61624
1990.27849	0.61653
1988.34993	0.61638
1986.42136	0.61608
1984.49280	0.61565
1982.56423	0.61509
1980.63567	0.61439
1978.70710	0.61357
1976.77854	0.61284
1974.84998	0.61214
1972.92141	0.61126
1970.99285	0.61013
1969.06428	0.60906
1967.13572	0.60838
1965.20715	0.60783
1963.27859	0.60706
1961.35002	0.60634
1959.42146	0.60584
1957.49290	0.60536
1955.56433	0.60480
1953.63577	0.60425
1951.70720	0.60379
1949.77864	0.60342
1947.85007	0.60294
1945.92151	0.60217
1943.99294	0.60151
1942.06438	0.60131
1940.13582	0.60099
1938.20725	0.60036
1936.27869	0.59972
1934.35012	0.59902
1932.42156	0.59837
1930.49299	0.59787
1928.56443	0.59752
1926.63586	0.59724
1924.70730	0.59707
1922.77874	0.59716
1920.85017	0.59702
1918.92161	0.59683
1916.99304	0.59715
1915.06448	0.59733
1913.13591	0.59706
1911.20735	0.59678
1909.27878	0.59679
1907.35022	0.59673
1905.42166	0.59628
1903.49309	0.59567
1901.56453	0.59513
1899.63596	0.59459
1897.70740	0.59400
1895.77883	0.59355
1893.85027	0.59290
1891.92171	0.59197
1889.99314	0.59168
1888.06458	0.59186
1886.13601	0.59170
1884.20745	0.59163
1882.27888	0.59173
1880.35032	0.59164
1878.42175	0.59149
1876.49319	0.59162
1874.56463	0.59190
1872.63606	0.59190
1870.70750	0.59198
1868.77893	0.59307
1866.85037	0.59399
1864.92180	0.59367
1862.99324	0.59320
1861.06467	0.59303
1859.13611	0.59288
1857.20755	0.59264
1855.27898	0.59228
1853.35042	0.59168
1851.42185	0.59080
1849.49329	0.58990
1847.56472	0.58911
1845.63616	0.58878
1843.70759	0.58951
1841.77903	0.58996
1839.85047	0.58954
1837.92190	0.58935
1835.99334	0.58975
1834.06477	0.58996
1832.13621	0.59004
1830.20764	0.59108
1828.27908	0.59245
1826.35051	0.59308
1824.42195	0.59385
1822.49339	0.59455
1820.56482	0.59474
1818.63626	0.59490
1816.70769	0.59486
1814.77913	0.59440
1812.85056	0.59395
1810.92200	0.59403
1808.99343	0.59407
1807.06487	0.59340
1805.13631	0.59231
1803.20774	0.59137
1801.27918	0.59113
1799.35061	0.59116
1797.42205	0.59070
1795.49348	0.59003
1793.56492	0.59041
1791.63635	0.59276
1789.70779	0.59437
1787.77923	0.59449
1785.85066	0.59490
1783.92210	0.59606
1781.99353	0.59771
1780.06497	0.59972
1778.13640	0.60104
1776.20784	0.60115
1774.27927	0.60143
1772.35071	0.60349
1770.42215	0.60577
1768.49358	0.60658
1766.56502	0.60646
1764.63645	0.60587
1762.70789	0.60616
1760.77932	0.60781
1758.85076	0.60930
1756.92220	0.61132
1754.99363	0.61371
1753.06507	0.61589
1751.13650	0.62032
1749.20794	0.62803
1747.27937	0.63512
1745.35081	0.64036
1743.42224	0.64503
1741.49368	0.64975
1739.56512	0.65438
1737.63655	0.65724
1735.70799	0.65913
1733.77942	0.66401
1731.85086	0.66871
1729.92229	0.67105
1727.99373	0.67342
1726.06516	0.67592
1724.13660	0.67931
1722.20804	0.68263
1720.27947	0.68511
1718.35091	0.69075
1716.42234	0.70392
1714.49378	0.71611
1712.56521	0.72556
1710.63665	0.73651
1708.70808	0.75032
1706.77952	0.77177
1704.85096	0.80171
1702.92239	0.83008
1700.99383	0.87026
1699.06526	0.93363
1697.13670	0.99253
1695.20813	1.04967
1693.27957	1.09193
1691.35100	1.12474
1689.42244	1.16509
1687.49388	1.20361
1685.56531	1.24377
1683.63675	1.30749
1681.70818	1.35466
1679.77962	1.38215
1677.85105	1.40867
1675.92249	1.44058
1673.99392	1.47553
1672.06536	1.50323
1670.13680	1.53199
1668.20823	1.56285
1666.27967	1.57979
1664.35110	1.59373
1662.42254	1.61295
1660.49397	1.62639
1658.56541	1.63136
1656.63684	1.63216
1654.70828	1.63020
1652.77972	1.62755
1650.85115	1.62776
1648.92259	1.62777
1646.99402	1.62731
1645.06546	1.62377
1643.13689	1.61737
1641.20833	1.61295
1639.27976	1.60959
1637.35120	1.60515
1635.42264	1.60051
1633.49407	1.59546
1631.56551	1.58778
1629.63694	1.57615
1627.70838	1.56268
1625.77981	1.54810
1623.85125	1.52668
1621.92269	1.49974
1619.99412	1.47645
1618.06556	1.44780
1616.13699	1.40502
1614.20843	1.36939
1612.27986	1.34126
1610.35130	1.31141
1608.42273	1.28063
1606.49417	1.25390
1604.56561	1.23303
1602.63704	1.21690
1600.70848	1.20554
1598.77991	1.19855
1596.85135	1.19461
1594.92278	1.19234
1592.99422	1.19169
1591.06565	1.19392
1589.13709	1.19952
1587.20853	1.20774
1585.27996	1.21830
1583.35140	1.23173
1581.42283	1.24644
1579.49427	1.25960
1577.56570	1.27523
1575.63714	1.29930
1573.70857	1.31718
1571.78001	1.32884
1569.85145	1.34672
1567.92288	1.36665
1565.99432	1.38133
1564.06575	1.39463
1562.13719	1.40352
1560.20862	1.41218
1558.28006	1.43941
1556.35149	1.45864
1554.42293	1.46524
1552.49437	1.46864
1550.56580	1.47008
1548.63724	1.46892
1546.70867	1.46567
1544.78011	1.46236
1542.85154	1.45866
1540.92298	1.45185
1538.99441	1.44467
1537.06585	1.44045
1535.13729	1.43578
1533.20872	1.43014
1531.28016	1.42499
1529.35159	1.42040
1527.42303	1.41458
1525.49446	1.40681
1523.56590	1.40125
1521.63733	1.40267
1519.70877	1.40636
1517.78021	1.40177
1515.85164	1.38774
1513.92308	1.36856
1511.99451	1.34761
1510.06595	1.32708
1508.13738	1.29780
1506.20882	1.24920
1504.28025	1.21998
1502.35169	1.19989
1500.42313	1.17714
1498.49456	1.14985
1496.56600	1.12032
1494.63743	1.09749
1492.70887	1.08137
1490.78030	1.06502
1488.85174	1.04683
1486.92317	1.03348
1484.99461	1.02522
1483.06605	1.02037
1481.13748	1.01840
1479.20892	1.01883
1477.28035	1.02213
1475.35179	1.03002
1473.42322	1.04673
1471.49466	1.06756
1469.56610	1.07898
1467.63753	1.08511
1465.70897	1.09271
1463.78040	1.10149
1461.85184	1.10597
1459.92327	1.10765
1457.99471	1.11416
1456.06614	1.12692
1454.13758	1.13170
1452.20902	1.13168
1450.28045	1.13096
1448.35189	1.13028
1446.42332	1.12873
1444.49476	1.12589
1442.56619	1.12229
1440.63763	1.11808
1438.70906	1.11305
1436.78050	1.10678
1434.85194	1.09951
1432.92337	1.09182
1430.99481	1.08300
1429.06624	1.07407
1427.13768	1.06746
1425.20911	1.06293
1423.28055	1.05955
1421.35198	1.05697
1419.42342	1.05563
1417.49486	1.05511
1415.56629	1.05318
1413.63773	1.04971
1411.70916	1.04545
1409.78060	1.04184
1407.85203	1.03998
1405.92347	1.04029
1403.99490	1.04234
1402.06634	1.04429
1400.13778	1.04649
1398.20921	1.04996
1396.28065	1.05462
1394.35208	1.06042
1392.42352	1.06579
1390.49495	1.07118
1388.56639	1.08096
1386.63782	1.09772
1384.70926	1.11593
1382.78070	1.13212
1380.85213	1.14541
1378.92357	1.15276
1376.99500	1.15229
1375.06644	1.14274
1373.13787	1.12533
1371.20931	1.10516
1369.28074	1.08172
1367.35218	1.05552
1365.42362	1.03124
1363.49505	1.00891
1361.56649	0.98961
1359.63792	0.97632
1357.70936	0.96755
1355.78079	0.96191
1353.85223	0.95890
1351.92366	0.95748
1349.99510	0.95700
1348.06654	0.95756
1346.13797	0.95903
1344.20941	0.96083
1342.28084	0.96284
1340.35228	0.96639
1338.42371	0.97188
1336.49515	0.97797
1334.56659	0.98499
1332.63802	0.99364
1330.70946	1.00307
1328.78089	1.01112
1326.85233	1.01590
1324.92376	1.01753
1322.99520	1.01763
1321.06663	1.01741
1319.13807	1.01748
1317.20951	1.01797
1315.28094	1.01827
1313.35238	1.01802
1311.42381	1.01740
1309.49525	1.01658
1307.56668	1.01523
1305.63812	1.01290
1303.70955	1.01017
1301.78099	1.00745
1299.85243	1.00395
1297.92386	0.99933
1295.99530	0.99452
1294.06673	0.99053
1292.13817	0.98796
1290.20960	0.98712
1288.28104	0.98746
1286.35247	0.98803
1284.42391	0.98847
1282.49535	0.98894
1280.56678	0.98954
1278.63822	0.99061
1276.70965	0.99263
1274.78109	0.99585
1272.85252	1.00055
1270.92396	1.00711
1268.99539	1.01495
1267.06683	1.02267
1265.13827	1.02924
1263.20970	1.03402
1261.28114	1.03670
1259.35257	1.03783
1257.42401	1.03857
1255.49544	1.03996
1253.56688	1.04221
1251.63831	1.04473
1249.70975	1.04712
1247.78119	1.04958
1245.85262	1.05214
1243.92406	1.05423
1241.99549	1.05562
1240.06693	1.05647
1238.13836	1.05604
1236.20980	1.05355
1234.28123	1.04967
1232.35267	1.04482
1230.42411	1.03826
1228.49554	1.02960
1226.56698	1.01926
1224.63841	1.00823
1222.70985	0.99734
1220.78128	0.98673
1218.85272	0.97672
1216.92415	0.96809
1214.99559	0.96174
1213.06703	0.95842
1211.13846	0.95809
1209.20990	0.95913
1207.28133	0.95907
1205.35277	0.95562
1203.42420	0.94771
1201.49564	0.93672
1199.56708	0.92496
1197.63851	0.91351
1195.70995	0.90283
1193.78138	0.89377
1191.85282	0.88718
1189.92425	0.88313
1187.99569	0.88096
1186.06712	0.88031
1184.13856	0.88157
1182.21000	0.88513
1180.28143	0.89111
1178.35287	0.89985
1176.42430	0.91115
1174.49574	0.92398
1172.56717	0.93750
1170.63861	0.95219
1168.71004	0.96936
1166.78148	0.98893
1164.85292	1.00869
1162.92435	1.02517
1160.99579	1.03516
1159.06722	1.03738
1157.13866	1.03228
1155.21009	1.02028
1153.28153	1.00257
1151.35296	0.98170
1149.42440	0.96028
1147.49584	0.94059
1145.56727	0.92452
1143.63871	0.91326
1141.71014	0.90752
1139.78158	0.90745
1137.85301	0.91213
1135.92445	0.92011
1133.99588	0.93108
1132.06732	0.94577
1130.13876	0.96470
1128.21019	0.98733
1126.28163	1.01110
1124.35306	1.03290
1122.42450	1.05141
1120.49593	1.06642
1118.56737	1.07715
1116.63880	1.08235
1114.71024	1.08127
1112.78168	1.07489
1110.85311	1.06573
1108.92455	1.05578
1106.99598	1.04629
1105.06742	1.03866
1103.13885	1.03365
1101.21029	1.03070
1099.28172	1.02993
1097.35316	1.03378
1095.42460	1.04406
1093.49603	1.05942
1091.56747	1.07753
1089.63890	1.09802
1087.71034	1.12136
1085.78177	1.14660
1083.85321	1.17182
1081.92464	1.19436
1079.99608	1.21150
1078.06752	1.22214
1076.13895	1.22521
1074.21039	1.21940
1072.28182	1.20645
1070.35326	1.18993
1068.42469	1.17122
1066.49613	1.15085
1064.56756	1.13005
1062.63900	1.10941
1060.71044	1.08905
1058.78187	1.06884
1056.85331	1.04957
1054.92474	1.03361
1052.99618	1.02227
1051.06761	1.01487
1049.13905	1.01079
1047.21049	1.01087
1045.28192	1.01647
1043.35336	1.02717
1041.42479	1.04086
1039.49623	1.05508
1037.56766	1.06814
1035.63910	1.07947
1033.71053	1.08870
1031.78197	1.09513
1029.85341	1.09759
1027.92484	1.09510
1025.99628	1.08850
1024.06771	1.07967
1022.13915	1.07019
1020.21058	1.06110
1018.28202	1.05245
1016.35345	1.04308
1014.42489	1.03102
1012.49633	1.01467
1010.56776	0.99413
1008.63920	0.97060
1006.71063	0.94598
1004.78207	0.92240
1002.85350	0.90115
1000.92494	0.88281
998.99637	0.86796
997.06781	0.85676
995.13925	0.84832
993.21068	0.84165
991.28212	0.83636
989.35355	0.83218
987.42499	0.82936
985.49642	0.82836
983.56786	0.82915
981.63929	0.83160
979.71073	0.83502
977.78217	0.83777
975.85360	0.83805
973.92504	0.83456
971.99647	0.82670
970.06791	0.81504
968.13934	0.80116
966.21078	0.78724
964.28221	0.77554
962.35365	0.76817
960.42509	0.76674
958.49652	0.77093
956.56796	0.77702
954.63939	0.77997
952.71083	0.77746
950.78226	0.77061
948.85370	0.76234
946.92513	0.75567
944.99657	0.75238
943.06801	0.75250
941.13944	0.75507
939.21088	0.75905
937.28231	0.76363
935.35375	0.76865
933.42518	0.77420
931.49662	0.77957
929.56805	0.78368
927.63949	0.78634
925.71093	0.78797
923.78236	0.78835
921.85380	0.78638
919.92523	0.78156
917.99667	0.77429
916.06810	0.76549
914.13954	0.75672
912.21098	0.74973
910.28241	0.74523
908.35385	0.74301
906.42528	0.74307
904.49672	0.74553
902.56815	0.74966
900.63959	0.75459
898.71102	0.76002
896.78246	0.76557
894.85390	0.77075
892.92533	0.77542
890.99677	0.78006
889.06820	0.78506
887.13964	0.79006
885.21107	0.79508
883.28251	0.80061
881.35394	0.80628
879.42538	0.81094
877.49682	0.81371
875.56825	0.81427
873.63969	0.81284
871.71112	0.81019
869.78256	0.80688
867.85399	0.80289
865.92543	0.79839
863.99686	0.79416
862.06830	0.79125
860.13974	0.79005
858.21117	0.79006
856.28261	0.79146
854.35404	0.79475
852.42548	0.79966
850.49691	0.80544
848.56835	0.81182
846.63978	0.81901
844.71122	0.82691
842.78266	0.83534
840.85409	0.84476
838.92553	0.85495
836.99696	0.86450
835.06840	0.87260
833.13983	0.87946
831.21127	0.88491
829.28270	0.88801
827.35414	0.88831
825.42558	0.88644
823.49701	0.88271
821.56845	0.87757
819.63988	0.87221
817.71132	0.86708
815.78275	0.86227
813.85419	0.85873
811.92562	0.85651
809.99706	0.85442
808.06850	0.85279
806.13993	0.85310
804.21137	0.85538
802.28280	0.85888
800.35424	0.86328
798.42567	0.86858
796.49711	0.87494
794.56854	0.88292
792.63998	0.89248
790.71142	0.90199
788.78285	0.91047
786.85429	0.91822
784.92572	0.92487
782.99716	0.92976
781.06859	0.93224
779.14003	0.93176
777.21147	0.92929
775.28290	0.92628
773.35434	0.92265
771.42577	0.91788
769.49721	0.91283
767.56864	0.90847
765.64008	0.90504
763.71151	0.90328
761.78295	0.90409
759.85439	0.90703
757.92582	0.91120
755.99726	0.91621
754.06869	0.92241
752.14013	0.93021
750.21156	0.93916
748.28300	0.94848
746.35443	0.95819
744.42587	0.96854
742.49731	0.97893
740.56874	0.98834
738.64018	0.99559
736.71161	1.00003
734.78305	1.00238
732.85448	1.00350
730.92592	1.00364
728.99735	1.00262
727.06879	1.00053
725.14023	0.99826
723.21166	0.99631
721.28310	0.99431
719.35453	0.99254
717.42597	0.99173
715.49740	0.99183
713.56884	0.99314
711.64027	0.99674
709.71171	1.00189
707.78315	1.00658
705.85458	1.01088
703.92602	1.01490
701.99745	1.01716
700.06889	1.01809
698.14032	1.01932
696.21176	1.02048
694.28319	1.02001
692.35463	1.01755
690.42607	1.01411
688.49750	1.00996
686.56894	1.00557
684.64037	1.00224
682.71181	0.99972
680.78324	0.99681
678.85468	0.99367
676.92611	0.99151
674.99755	0.99051
673.06899	0.98968
671.14042	0.98856
669.21186	0.98913
667.28329	0.99371
665.35473	0.99702
663.42616	0.99844
661.49760	0.99963
659.56903	1.00026
657.64047	1.00027
655.71191	0.99910
653.78334	0.99558
651.85478	0.99063
649.92621	0.98565
647.99765	0.98066
646.06908	0.97579
644.14052	0.97108
642.21195	0.96589
640.28339	0.96070
638.35483	0.95668
636.42626	0.95297
634.49770	0.94864
632.56913	0.94524
630.64057	0.94419
628.71200	0.94588
626.78344	0.95152
624.85488	0.96153
622.92631	0.97424
620.99775	0.98816
619.06918	1.00212
617.14062	1.01519
615.21205	1.02706
613.28349	1.03743
611.35492	1.04611
609.42636	1.05251
607.49780	1.05534
605.56923	1.05511
603.64067	1.05417
601.71210	1.05214
599.78354	1.04650
