3997.91406	1.02773
3995.98550	1.02495
3994.05693	1.02250
3992.12837	1.02188
3990.19980	1.02292
3988.27124	1.02295
3986.34268	1.02056
3984.41411	1.01833
3982.48555	1.01865
3980.55698	1.01952
3978.62842	1.01799
3976.69985	1.01543
3974.77129	1.01436
3972.84272	1.01447
3970.91416	1.01438
3968.98560	1.01361
3967.05703	1.01279
3965.12847	1.01223
3963.19990	1.01114
3961.27134	1.00933
3959.34277	1.00816
3957.41421	1.00840
3955.48564	1.00886
3953.55708	1.00804
3951.62852	1.00685
3949.69995	1.00737
3947.77139	1.00788
3945.84282	1.00627
3943.91426	1.00437
3941.98569	1.00252
3940.05713	1.00051
3938.12856	1.00011
3936.20000	1.00083
3934.27144	1.00123
3932.34287	1.00122
3930.41431	1.00034
3928.48574	0.99910
3926.55718	0.99846
3924.62861	0.99779
3922.70005	0.99739
3920.77148	0.99761
3918.84292	0.99731
3916.91436	0.99687
3914.98579	0.99614
3913.05723	0.99442
3911.12866	0.99329
3909.20010	0.99295
3907.27153	0.99235
3905.34297	0.99230
3903.41440	0.99271
3901.48584	0.99261
3899.55728	0.99331
3897.62871	0.99324
3895.70015	0.99069
3893.77158	0.98843
3891.84302	0.99003
3889.91445	0.99032
3887.98589	0.98624
3886.05733	0.98401
3884.12876	0.98515
3882.20020	0.98649
3880.27163	0.98812
3878.34307	0.98587
3876.41450	0.98127
3874.48594	0.97970
3872.55737	0.98014
3870.62881	0.98057
3868.70025	0.98162
3866.77168	0.98052
3864.84312	0.97797
3862.91455	0.97666
3860.98599	0.97616
3859.05742	0.97483
3857.12886	0.97182
3855.20029	0.96954
3853.27173	0.97425
3851.34317	0.97697
3849.41460	0.97403
3847.48604	0.97081
3845.55747	0.96850
3843.62891	0.96630
3841.70034	0.96372
3839.77178	0.96347
3837.84321	0.96711
3835.91465	0.96853
3833.98609	0.96629
3832.05752	0.96454
3830.12896	0.96467
3828.20039	0.96482
3826.27183	0.96341
3824.34326	0.96063
3822.41470	0.96032
3820.48613	0.96524
3818.55757	0.96743
3816.62901	0.96610
3814.70044	0.96435
3812.77188	0.96194
3810.84331	0.95894
3808.91475	0.95702
3806.98618	0.95836
3805.05762	0.95942
3803.12905	0.95813
3801.20049	0.95744
3799.27193	0.95698
3797.34336	0.95642
3795.41480	0.95572
3793.48623	0.95437
3791.55767	0.95330
3789.62910	0.95267
3787.70054	0.95183
3785.77197	0.95079
3783.84341	0.94969
3781.91485	0.94871
3779.98628	0.94884
3778.05772	0.94961
3776.12915	0.94940
3774.20059	0.94834
3772.27202	0.94773
3770.34346	0.94898
3768.41489	0.94943
3766.48633	0.94822
3764.55777	0.94743
3762.62920	0.94541
3760.70064	0.94360
3758.77207	0.94459
3756.84351	0.94461
3754.91494	0.94245
3752.98638	0.94176
3751.05781	0.94635
3749.12925	0.95036
3747.20069	0.95070
3745.27212	0.95227
3743.34356	0.95163
3741.41499	0.94693
3739.48643	0.94290
3737.55786	0.94263
3735.62930	0.94663
3733.70074	0.94830
3731.77217	0.94503
3729.84361	0.94120
3727.91504	0.93990
3725.98648	0.94131
3724.05791	0.94218
3722.12935	0.94209
3720.20078	0.94275
3718.27222	0.94320
3716.34366	0.94248
3714.41509	0.94081
3712.48653	0.94065
3710.55796	0.94342
3708.62940	0.94400
3706.70083	0.94248
3704.77227	0.94098
3702.84370	0.94057
3700.91514	0.94093
3698.98658	0.94031
3697.05801	0.93910
3695.12945	0.93771
3693.20088	0.93660
3691.27232	0.93866
3689.34375	0.94461
3687.41519	0.94694
3685.48662	0.94571
3683.55806	0.94456
3681.62950	0.94500
3679.70093	0.94682
3677.77237	0.94817
3675.84380	0.95110
3673.91524	0.95407
3671.98667	0.95423
3670.05811	0.95803
3668.12954	0.96306
3666.20098	0.96449
3664.27242	0.96601
3662.34385	0.96938
3660.41529	0.97349
3658.48672	0.97766
3656.55816	0.98333
3654.62959	0.98656
3652.70103	0.98486
3650.77246	0.98612
3648.84390	1.00092
3646.91534	1.01326
3644.98677	1.01602
3643.05821	1.01726
3641.12964	1.02077
3639.20108	1.02588
3637.27251	1.02928
3635.34395	1.03164
3633.41538	1.03598
3631.48682	1.04252
3629.55826	1.05389
3627.62969	1.06422
3625.70113	1.06564
3623.77256	1.06527
3621.84400	1.06679
3619.91543	1.07308
3617.98687	1.08229
3616.05830	1.08931
3614.12974	1.09616
3612.20118	1.10194
3610.27261	1.10538
3608.34405	1.10997
3606.41548	1.11558
3604.48692	1.11874
3602.55835	1.12065
3600.62979	1.12466
3598.70123	1.13045
3596.77266	1.13564
3594.84410	1.14203
3592.91553	1.14950
3590.98697	1.15442
3589.05840	1.15966
3587.12984	1.17015
3585.20127	1.17949
3583.27271	1.18311
3581.34415	1.18458
3579.41558	1.18854
3577.48702	1.19596
3575.55845	1.20336
3573.62989	1.20890
3571.70132	1.21394
3569.77276	1.21984
3567.84419	1.22880
3565.91563	1.23961
3563.98707	1.24579
3562.05850	1.24983
3560.12994	1.25536
3558.20137	1.26260
3556.27281	1.27086
3554.34424	1.27994
3552.41568	1.28945
3550.48711	1.29644
3548.55855	1.30008
3546.62999	1.30438
3544.70142	1.31264
3542.77286	1.32268
3540.84429	1.33017
3538.91573	1.33451
3536.98716	1.34033
3535.05860	1.34976
3533.13003	1.35877
3531.20147	1.36500
3529.27291	1.36894
3527.34434	1.37313
3525.41578	1.38102
3523.48721	1.39345
3521.55865	1.40675
3519.63008	1.41617
3517.70152	1.42254
3515.77295	1.42868
3513.84439	1.43507
3511.91583	1.44207
3509.98726	1.45040
3508.05870	1.45991
3506.13013	1.47067
3504.20157	1.48215
3502.27300	1.48996
3500.34444	1.49406
3498.41587	1.50133
3496.48731	1.51274
3494.55875	1.52254
3492.63018	1.52948
3490.70162	1.53855
3488.77305	1.55014
3486.84449	1.55794
3484.91592	1.55868
3482.98736	1.55483
3481.05879	1.55186
3479.13023	1.55501
3477.20167	1.56205
3475.27310	1.56811
3473.34454	1.57278
3471.41597	1.57749
3469.48741	1.58351
3467.55884	1.58902
3465.63028	1.59096
3463.70171	1.59308
3461.77315	1.59802
3459.84459	1.60057
3457.91602	1.60029
3455.98746	1.60336
3454.05889	1.60817
3452.13033	1.61052
3450.20176	1.61310
3448.27320	1.61778
3446.34464	1.62339
3444.41607	1.62662
3442.48751	1.62740
3440.55894	1.63116
3438.63038	1.63677
3436.70181	1.63855
3434.77325	1.63861
3432.84468	1.64096
3430.91612	1.64308
3428.98756	1.64382
3427.05899	1.64399
3425.13043	1.64094
3423.20186	1.63635
3421.27330	1.63450
3419.34473	1.63629
3417.41617	1.64140
3415.48760	1.64604
3413.55904	1.64828
3411.63048	1.65191
3409.70191	1.65588
3407.77335	1.65665
3405.84478	1.65524
3403.91622	1.65362
3401.98765	1.65354
3400.05909	1.65355
3398.13052	1.65325
3396.20196	1.65642
3394.27340	1.65992
3392.34483	1.65960
3390.41627	1.65954
3388.48770	1.66235
3386.55914	1.66595
3384.63057	1.66828
3382.70201	1.67180
3380.77344	1.67963
3378.84488	1.68536
3376.91632	1.68340
3374.98775	1.68166
3373.05919	1.68387
3371.13062	1.68328
3369.20206	1.68033
3367.27349	1.67963
3365.34493	1.67996
3363.41636	1.67937
3361.48780	1.67757
3359.55924	1.67671
3357.63067	1.67888
3355.70211	1.68060
3353.77354	1.67863
3351.84498	1.67714
3349.91641	1.68106
3347.98785	1.68912
3346.05928	1.69629
3344.13072	1.69764
3342.20216	1.69536
3340.27359	1.69520
3338.34503	1.69653
3336.41646	1.70018
3334.48790	1.70520
3332.55933	1.70441
3330.63077	1.70064
3328.70220	1.70116
3326.77364	1.70494
3324.84508	1.70970
3322.91651	1.71536
3320.98795	1.72158
3319.05938	1.72579
3317.13082	1.72382
3315.20225	1.72019
3313.27369	1.72367
3311.34513	1.72872
3309.41656	1.72786
3307.48800	1.72836
3305.55943	1.73156
3303.63087	1.72984
3301.70230	1.72518
3299.77374	1.72236
3297.84517	1.72135
3295.91661	1.72329
3293.98805	1.73004
3292.05948	1.73846
3290.13092	1.74195
3288.20235	1.74055
3286.27379	1.73776
3284.34522	1.73627
3282.41666	1.73867
3280.48809	1.73997
3278.55953	1.73731
3276.63097	1.73534
3274.70240	1.73421
3272.77384	1.73112
3270.84527	1.72505
3268.91671	1.71910
3266.98814	1.71584
3265.05958	1.71303
3263.13101	1.71134
3261.20245	1.71115
3259.27389	1.70876
3257.34532	1.70389
3255.41676	1.69673
3253.48819	1.68575
3251.55963	1.67357
3249.63106	1.66392
3247.70250	1.65679
3245.77393	1.65261
3243.84537	1.65265
3241.91681	1.65086
3239.98824	1.64148
3238.05968	1.63153
3236.13111	1.62654
3234.20255	1.62187
3232.27398	1.61583
3230.34542	1.61145
3228.41685	1.60826
3226.48829	1.60486
3224.55973	1.60450
3222.63116	1.60787
3220.70260	1.60766
3218.77403	1.60082
3216.84547	1.59349
3214.91690	1.58953
3212.98834	1.58730
3211.05977	1.58473
3209.13121	1.58190
3207.20265	1.57889
3205.27408	1.57491
3203.34552	1.57023
3201.41695	1.56579
3199.48839	1.56265
3197.55982	1.56140
3195.63126	1.55960
3193.70269	1.55511
3191.77413	1.54948
3189.84557	1.54409
3187.91700	1.54005
3185.98844	1.53720
3184.05987	1.53281
3182.13131	1.52869
3180.20274	1.52725
3178.27418	1.52503
3176.34562	1.52101
3174.41705	1.51687
3172.48849	1.51293
3170.55992	1.51031
3168.63136	1.50792
3166.70279	1.50388
3164.77423	1.50046
3162.84566	1.49917
3160.91710	1.49590
3158.98854	1.48875
3157.05997	1.48225
3155.13141	1.47852
3153.20284	1.47546
3151.27428	1.47273
3149.34571	1.47181
3147.41715	1.47129
3145.48858	1.46823
3143.56002	1.46418
3141.63146	1.46154
3139.70289	1.46003
3137.77433	1.45954
3135.84576	1.45934
3133.91720	1.45835
3131.98863	1.45672
3130.06007	1.45503
3128.13150	1.45405
3126.20294	1.45501
3124.27438	1.45663
3122.34581	1.45533
3120.41725	1.45362
3118.48868	1.45536
3116.56012	1.45541
3114.63155	1.45080
3112.70299	1.44707
3110.77442	1.44676
3108.84586	1.44875
3106.91730	1.45128
3104.98873	1.45058
3103.06017	1.44720
3101.13160	1.44599
3099.20304	1.44625
3097.27447	1.44386
3095.34591	1.43999
3093.41734	1.43849
3091.48878	1.43872
3089.56022	1.43775
3087.63165	1.43604
3085.70309	1.43546
3083.77452	1.43585
3081.84596	1.43580
3079.91739	1.43412
3077.98883	1.43167
3076.06026	1.43128
3074.13170	1.43245
3072.20314	1.43117
3070.27457	1.42743
3068.34601	1.42357
3066.41744	1.42042
3064.48888	1.41888
3062.56031	1.41707
3060.63175	1.41267
3058.70318	1.40652
3056.77462	1.39977
3054.84606	1.39393
3052.91749	1.38975
3050.98893	1.38605
3049.06036	1.38230
3047.13180	1.37873
3045.20323	1.37513
3043.27467	1.37078
3041.34610	1.36552
3039.41754	1.36152
3037.48898	1.35992
3035.56041	1.35734
3033.63185	1.35243
3031.70328	1.34883
3029.77472	1.34758
3027.84615	1.34649
3025.91759	1.34549
3023.98903	1.34421
3022.06046	1.34085
3020.13190	1.33649
3018.20333	1.33385
3016.27477	1.33326
3014.34620	1.33268
3012.41764	1.33090
3010.48907	1.32913
3008.56051	1.32755
3006.63195	1.32488
3004.70338	1.32219
3002.77482	1.32124
3000.84625	1.32121
2998.91769	1.32058
2996.98912	1.31980
2995.06056	1.32084
2993.13199	1.32481
2991.20343	1.33000
2989.27487	1.33419
2987.34630	1.33851
2985.41774	1.34566
2983.48917	1.35468
2981.56061	1.36220
2979.63204	1.36841
2977.70348	1.37564
2975.77491	1.38441
2973.84635	1.39476
2971.91779	1.40504
2969.98922	1.41287
2968.06066	1.42018
2966.13209	1.42850
2964.20353	1.43450
2962.27496	1.43692
2960.34640	1.43800
2958.41783	1.43699
2956.48927	1.43305
2954.56071	1.42837
2952.63214	1.42298
2950.70358	1.41584
2948.77501	1.41000
2946.84645	1.40957
2944.91788	1.41404
2942.98932	1.42060
2941.06075	1.42919
2939.13219	1.44042
2937.20363	1.45149
2935.27506	1.46013
2933.34650	1.46947
2931.41793	1.48200
2929.48937	1.49398
2927.56080	1.50167
2925.63224	1.50700
2923.70367	1.51329
2921.77511	1.51890
2919.84655	1.51820
2917.91798	1.50774
2915.98942	1.48843
2914.06085	1.46462
2912.13229	1.44228
2910.20372	1.42458
2908.27516	1.41010
2906.34659	1.39602
2904.41803	1.38221
2902.48947	1.37112
2900.56090	1.36502
2898.63234	1.36379
2896.70377	1.36320
2894.77521	1.35907
2892.84664	1.35356
2890.91808	1.34974
2888.98952	1.34643
2887.06095	1.34211
2885.13239	1.33731
2883.20382	1.33467
2881.27526	1.33618
2879.34669	1.33983
2877.41813	1.34287
2875.48956	1.34442
2873.56100	1.34411
2871.63244	1.34154
2869.70387	1.33615
2867.77531	1.32917
2865.84674	1.32350
2863.91818	1.32114
2861.98961	1.32253
2860.06105	1.32558
2858.13248	1.32890
2856.20392	1.33506
2854.27536	1.34478
2852.34679	1.35403
2850.41823	1.35610
2848.48966	1.34320
2846.56110	1.31520
2844.63253	1.28354
2842.70397	1.25835
2840.77540	1.24067
2838.84684	1.22841
2836.91828	1.21953
2834.98971	1.21144
2833.06115	1.20445
2831.13258	1.19988
2829.20402	1.19581
2827.27545	1.19125
2825.34689	1.18758
2823.41832	1.18479
2821.48976	1.18240
2819.56120	1.18031
2817.63263	1.17809
2815.70407	1.17584
2813.77550	1.17339
2811.84694	1.17053
2809.91837	1.16784
2807.98981	1.16548
2806.06124	1.16332
2804.13268	1.16108
2802.20412	1.15821
2800.27555	1.15460
2798.34699	1.15101
2796.41842	1.14791
2794.48986	1.14482
2792.56129	1.14130
2790.63273	1.13722
2788.70416	1.13342
2786.77560	1.13119
2784.84704	1.12960
2782.91847	1.12686
2780.98991	1.12360
2779.06134	1.12149
2777.13278	1.12057
2775.20421	1.11942
2773.27565	1.11745
2771.34708	1.11590
2769.41852	1.11499
2767.48996	1.11347
2765.56139	1.11175
2763.63283	1.11088
2761.70426	1.11000
2759.77570	1.10778
2757.84713	1.10506
2755.91857	1.10342
2753.99001	1.10201
2752.06144	1.10008
2750.13288	1.09853
2748.20431	1.09711
2746.27575	1.09485
2744.34718	1.09188
2742.41862	1.08940
2740.49005	1.08785
2738.56149	1.08618
2736.63293	1.08422
2734.70436	1.08277
2732.77580	1.08187
2730.84723	1.08110
2728.91867	1.08021
2726.99010	1.07890
2725.06154	1.07736
2723.13297	1.07577
2721.20441	1.07391
2719.27585	1.07251
2717.34728	1.07200
2715.41872	1.07116
2713.49015	1.06907
2711.56159	1.06635
2709.63302	1.06451
2707.70446	1.06370
2705.77589	1.06247
2703.84733	1.06063
2701.91877	1.05911
2699.99020	1.05768
2698.06164	1.05581
2696.13307	1.05427
2694.20451	1.05356
2692.27594	1.05267
2690.34738	1.05055
2688.41881	1.04778
2686.49025	1.04535
2684.56169	1.04282
2682.63312	1.04023
2680.70456	1.03883
2678.77599	1.03864
2676.84743	1.03805
2674.91886	1.03614
2672.99030	1.03377
2671.06173	1.03191
2669.13317	1.03073
2667.20461	1.02985
2665.27604	1.02848
2663.34748	1.02643
2661.41891	1.02423
2659.49035	1.02217
2657.56178	1.02032
2655.63322	1.01888
2653.70465	1.01808
2651.77609	1.01719
2649.84753	1.01532
2647.91896	1.01317
2645.99040	1.01178
2644.06183	1.01090
2642.13327	1.00994
2640.20470	1.00883
2638.27614	1.00783
2636.34757	1.00735
2634.41901	1.00717
2632.49045	1.00680
2630.56188	1.00630
2628.63332	1.00572
2626.70475	1.00461
2624.77619	1.00319
2622.84762	1.00198
2620.91906	1.00046
2618.99049	0.99843
2617.06193	0.99674
2615.13337	0.99560
2613.20480	0.99439
2611.27624	0.99315
2609.34767	0.99224
2607.41911	0.99137
2605.49054	0.99020
2603.56198	0.98868
2601.63342	0.98733
2599.70485	0.98672
2597.77629	0.98582
2595.84772	0.98373
2593.91916	0.98137
2591.99059	0.97950
2590.06203	0.97810
2588.13346	0.97699
2586.20490	0.97568
2584.27634	0.97408
2582.34777	0.97269
2580.41921	0.97147
2578.49064	0.96994
2576.56208	0.96825
2574.63351	0.96675
2572.70495	0.96542
2570.77638	0.96394
2568.84782	0.96221
2566.91926	0.96061
2564.99069	0.95922
2563.06213	0.95755
2561.13356	0.95592
2559.20500	0.95529
2557.27643	0.95529
2555.34787	0.95481
2553.41930	0.95352
2551.49074	0.95198
2549.56218	0.95099
2547.63361	0.95052
2545.70505	0.94982
2543.77648	0.94889
2541.84792	0.94791
2539.91935	0.94674
2537.99079	0.94564
2536.06222	0.94449
2534.13366	0.94279
2532.20510	0.94118
2530.27653	0.94017
2528.34797	0.93882
2526.41940	0.93671
2524.49084	0.93485
2522.56227	0.93379
2520.63371	0.93281
2518.70514	0.93149
2516.77658	0.93000
2514.84802	0.92828
2512.91945	0.92646
2510.99089	0.92502
2509.06232	0.92407
2507.13376	0.92330
2505.20519	0.92240
2503.27663	0.92136
2501.34806	0.92029
2499.41950	0.91898
2497.49094	0.91740
2495.56237	0.91591
2493.63381	0.91480
2491.70524	0.91387
2489.77668	0.91264
2487.84811	0.91101
2485.91955	0.90914
2483.99098	0.90727
2482.06242	0.90546
2480.13386	0.90390
2478.20529	0.90281
2476.27673	0.90160
2474.34816	0.89982
2472.41960	0.89789
2470.49103	0.89610
2468.56247	0.89433
2466.63391	0.89278
2464.70534	0.89193
2462.77678	0.89147
2460.84821	0.89059
2458.91965	0.88954
2456.99108	0.88885
2455.06252	0.88808
2453.13395	0.88686
2451.20539	0.88579
2449.27683	0.88516
2447.34826	0.88430
2445.41970	0.88298
2443.49113	0.88174
2441.56257	0.88060
2439.63400	0.87910
2437.70544	0.87737
2435.77687	0.87562
2433.84831	0.87373
2431.91975	0.87187
2429.99118	0.87048
2428.06262	0.86940
2426.13405	0.86813
2424.20549	0.86685
2422.27692	0.86585
2420.34836	0.86482
2418.41979	0.86367
2416.49123	0.86285
2414.56267	0.86226
2412.63410	0.86130
2410.70554	0.85984
2408.77697	0.85810
2406.84841	0.85626
2404.91984	0.85449
2402.99128	0.85279
2401.06271	0.85100
2399.13415	0.84899
2397.20559	0.84679
2395.27702	0.84458
2393.34846	0.84249
2391.41989	0.84025
2389.49133	0.83763
2387.56276	0.83505
2385.63420	0.83270
2383.70563	0.82994
2381.77707	0.82640
2379.84851	0.82267
2377.91994	0.81931
2375.99138	0.81604
2374.06281	0.81233
2372.13425	0.80827
2370.20568	0.80402
2368.27712	0.79899
2366.34855	0.79366
2364.41999	0.79080
2362.49143	0.79034
2360.56286	0.78986
2358.63430	0.79099
2356.70573	0.79501
2354.77717	0.80004
2352.84860	0.80485
2350.92004	0.80756
2348.99147	0.80684
2347.06291	0.80343
2345.13435	0.79892
2343.20578	0.79556
2341.27722	0.79438
2339.34865	0.79402
2337.42009	0.79370
2335.49152	0.79332
2333.56296	0.79240
2331.63440	0.79218
2329.70583	0.79343
2327.77727	0.79425
2325.84870	0.79410
2323.92014	0.79416
2321.99157	0.79485
2320.06301	0.79623
2318.13444	0.79817
2316.20588	0.79952
2314.27732	0.79931
2312.34875	0.79834
2310.42019	0.79812
2308.49162	0.79862
2306.56306	0.79875
2304.63449	0.79806
2302.70593	0.79690
2300.77736	0.79579
2298.84880	0.79476
2296.92024	0.79343
2294.99167	0.79180
2293.06311	0.79017
2291.13454	0.78866
2289.20598	0.78706
2287.27741	0.78529
2285.34885	0.78379
2283.42028	0.78281
2281.49172	0.78209
2279.56316	0.78133
2277.63459	0.78027
2275.70603	0.77905
2273.77746	0.77831
2271.84890	0.77818
2269.92033	0.77818
2267.99177	0.77839
2266.06320	0.77908
2264.13464	0.77998
2262.20608	0.78075
2260.27751	0.78138
2258.34895	0.78171
2256.42038	0.78182
2254.49182	0.78217
2252.56325	0.78259
2250.63469	0.78254
2248.70612	0.78211
2246.77756	0.78159
2244.84900	0.78097
2242.92043	0.78029
2240.99187	0.77967
2239.06330	0.77895
2237.13474	0.77800
2235.20617	0.77695
2233.27761	0.77586
2231.34904	0.77493
2229.42048	0.77425
2227.49192	0.77370
2225.56335	0.77328
2223.63479	0.77305
2221.70622	0.77284
2219.77766	0.77252
2217.84909	0.77216
2215.92053	0.77190
2213.99196	0.77178
2212.06340	0.77150
2210.13484	0.77088
2208.20627	0.77020
2206.27771	0.76946
2204.34914	0.76860
2202.42058	0.76793
2200.49201	0.76723
2198.56345	0.76619
2196.63488	0.76506
2194.70632	0.76397
2192.77776	0.76281
2190.84919	0.76172
2188.92063	0.76081
2186.99206	0.76002
2185.06350	0.75934
2183.13493	0.75907
2181.20637	0.75931
2179.27781	0.75950
2177.34924	0.75943
2175.42068	0.75968
2173.49211	0.76040
2171.56355	0.76122
2169.63498	0.76194
2167.70642	0.76275
2165.77785	0.76378
2163.84929	0.76480
2161.92073	0.76564
2159.99216	0.76624
2158.06360	0.76654
2156.13503	0.76656
2154.20647	0.76640
2152.27790	0.76639
2150.34934	0.76649
2148.42077	0.76618
2146.49221	0.76551
2144.56365	0.76493
2142.63508	0.76432
2140.70652	0.76331
2138.77795	0.76203
2136.84939	0.76091
2134.92082	0.76016
2132.99226	0.75962
2131.06369	0.75915
2129.13513	0.75852
2127.20657	0.75748
2125.27800	0.75637
2123.34944	0.75564
2121.42087	0.75516
2119.49231	0.75476
2117.56374	0.75449
2115.63518	0.75423
2113.70661	0.75378
2111.77805	0.75321
2109.84949	0.75262
2107.92092	0.75217
2105.99236	0.75194
2104.06379	0.75176
2102.13523	0.75133
2100.20666	0.75070
2098.27810	0.75013
2096.34953	0.74974
2094.42097	0.74940
2092.49241	0.74893
2090.56384	0.74841
2088.63528	0.74800
2086.70671	0.74776
2084.77815	0.74776
2082.84958	0.74775
2080.92102	0.74763
2078.99245	0.74791
2077.06389	0.74883
2075.13533	0.74996
2073.20676	0.75100
2071.27820	0.75212
2069.34963	0.75332
2067.42107	0.75444
2065.49250	0.75519
2063.56394	0.75547
2061.63537	0.75542
2059.70681	0.75520
2057.77825	0.75481
2055.84968	0.75411
2053.92112	0.75303
2051.99255	0.75177
2050.06399	0.75050
2048.13542	0.74909
2046.20686	0.74748
2044.27830	0.74579
2042.34973	0.74408
2040.42117	0.74254
2038.49260	0.74119
2036.56404	0.73981
2034.63547	0.73844
2032.70691	0.73735
2030.77834	0.73634
2028.84978	0.73523
2026.92122	0.73435
2024.99265	0.73360
2023.06409	0.73263
2021.13552	0.73174
2019.20696	0.73130
2017.27839	0.73111
2015.34983	0.73073
2013.42126	0.73013
2011.49270	0.72943
2009.56414	0.72881
2007.63557	0.72842
2005.70701	0.72814
2003.77844	0.72760
2001.84988	0.72695
1999.92131	0.72651
1997.99275	0.72616
1996.06418	0.72562
1994.13562	0.72497
1992.20706	0.72467
1990.27849	0.72471
1988.34993	0.72443
1986.42136	0.72384
1984.49280	0.72346
1982.56423	0.72342
1980.63567	0.72341
1978.70710	0.72342
1976.77854	0.72374
1974.84998	0.72437
1972.92141	0.72506
1970.99285	0.72560
1969.06428	0.72624
1967.13572	0.72713
1965.20715	0.72779
1963.27859	0.72796
1961.35002	0.72791
1959.42146	0.72775
1957.49290	0.72732
1955.56433	0.72665
1953.63577	0.72581
1951.70720	0.72466
1949.77864	0.72316
1947.85007	0.72136
1945.92151	0.71929
1943.99294	0.71736
1942.06438	0.71589
1940.13582	0.71433
1938.20725	0.71251
1936.27869	0.71085
1934.35012	0.70929
1932.42156	0.70759
1930.49299	0.70598
1928.56443	0.70475
1926.63586	0.70375
1924.70730	0.70303
1922.77874	0.70273
1920.85017	0.70244
1918.92161	0.70244
1916.99304	0.70309
1915.06448	0.70352
1913.13591	0.70355
1911.20735	0.70372
1909.27878	0.70436
1907.35022	0.70537
1905.42166	0.70622
1903.49309	0.70649
1901.56453	0.70634
1899.63596	0.70618
1897.70740	0.70600
1895.77883	0.70565
1893.85027	0.70501
1891.92171	0.70414
1889.99314	0.70348
1888.06458	0.70285
1886.13601	0.70204
1884.20745	0.70133
1882.27888	0.70060
1880.35032	0.69964
1878.42175	0.69869
1876.49319	0.69798
1874.56463	0.69741
1872.63606	0.69682
1870.70750	0.69688
1868.77893	0.69849
1866.85037	0.69992
1864.92180	0.69994
1862.99324	0.69984
1861.06467	0.70013
1859.13611	0.70060
1857.20755	0.70105
1855.27898	0.70138
1853.35042	0.70154
1851.42185	0.70142
1849.49329	0.70096
1847.56472	0.70012
1845.63616	0.69957
1843.70759	0.69989
1841.77903	0.69965
1839.85047	0.69851
1837.92190	0.69752
1835.99334	0.69672
1834.06477	0.69542
1832.13621	0.69409
1830.20764	0.69398
1828.27908	0.69442
1826.35051	0.69404
1824.42195	0.69365
1822.49339	0.69345
1820.56482	0.69314
1818.63626	0.69316
1816.70769	0.69353
1814.77913	0.69379
1812.85056	0.69407
1810.92200	0.69480
1808.99343	0.69553
1807.06487	0.69562
1805.13631	0.69540
1803.20774	0.69539
1801.27918	0.69591
1799.35061	0.69611
1797.42205	0.69520
1795.49348	0.69371
1793.56492	0.69291
1791.63635	0.69349
1789.70779	0.69305
1787.77923	0.69136
1785.85066	0.69002
1783.92210	0.68931
1781.99353	0.68888
1780.06497	0.68882
1778.13640	0.68868
1776.20784	0.68805
1774.27927	0.68796
1772.35071	0.69018
1770.42215	0.69352
1768.49358	0.69602
1766.56502	0.69811
1764.63645	0.70012
1762.70789	0.70367
1760.77932	0.70890
1758.85076	0.71335
1756.92220	0.71810
1754.99363	0.72263
1753.06507	0.72629
1751.13650	0.73214
1749.20794	0.74086
1747.27937	0.74823
1745.35081	0.75344
1743.42224	0.75793
1741.49368	0.76274
1739.56512	0.76758
1737.63655	0.77023
1735.70799	0.77197
1733.77942	0.77720
1731.85086	0.78233
1729.92229	0.78564
1727.99373	0.78985
1726.06516	0.79463
1724.13660	0.80084
1722.20804	0.80751
1720.27947	0.81340
1718.35091	0.82325
1716.42234	0.84168
1714.49378	0.85768
1712.56521	0.86968
1710.63665	0.88260
1708.70808	0.89794
1706.77952	0.92068
1704.85096	0.95155
1702.92239	0.98038
1700.99383	1.02124
1699.06526	1.08637
1697.13670	1.14820
1695.20813	1.21085
1693.27957	1.25934
1691.35100	1.29727
1689.42244	1.34296
1687.49388	1.38644
1685.56531	1.42995
1683.63675	1.49822
1681.70818	1.55226
1679.77962	1.58526
1677.85105	1.61618
1675.92249	1.64971
1673.99392	1.68023
1672.06536	1.70034
1670.13680	1.72009
1668.20823	1.74296
1666.27967	1.75526
1664.35110	1.76282
1662.42254	1.77127
1660.49397	1.77647
1658.56541	1.77690
1656.63684	1.77297
1654.70828	1.76847
1652.77972	1.76554
1650.85115	1.76024
1648.92259	1.75335
1646.99402	1.74588
1645.06546	1.73836
1643.13689	1.72964
1641.20833	1.72206
1639.27976	1.71667
1637.35120	1.71188
1635.42264	1.69908
1633.49407	1.68359
1631.56551	1.67267
1629.63694	1.65965
1627.70838	1.64255
1625.77981	1.62499
1623.85125	1.60746
1621.92269	1.58929
1619.99412	1.57304
1618.06556	1.55391
1616.13699	1.52827
1614.20843	1.50933
1612.27986	1.49556
1610.35130	1.47998
1608.42273	1.46251
1606.49417	1.44732
1604.56561	1.43655
1602.63704	1.42975
1600.70848	1.42677
1598.77991	1.42536
1596.85135	1.42325
1594.92278	1.42087
1592.99422	1.41969
1591.06565	1.41929
1589.13709	1.41989
1587.20853	1.42351
1585.27996	1.42991
1583.35140	1.43854
1581.42283	1.44921
1579.49427	1.46029
1577.56570	1.47420
1575.63714	1.49336
1573.70857	1.50576
1571.78001	1.51370
1569.85145	1.52908
1567.92288	1.54837
1565.99432	1.56173
1564.06575	1.57425
1562.13719	1.58626
1560.20862	1.59920
1558.28006	1.61633
1556.35149	1.62077
1554.42293	1.62077
1552.49437	1.62197
1550.56580	1.62333
1548.63724	1.62207
1546.70867	1.61923
1544.78011	1.61622
1542.85154	1.61085
1540.92298	1.59879
1538.99441	1.58268
1537.06585	1.57235
1535.13729	1.56331
1533.20872	1.55338
1531.28016	1.54341
1529.35159	1.53304
1527.42303	1.52218
1525.49446	1.51406
1523.56590	1.50941
1521.63733	1.50535
1519.70877	1.50203
1517.78021	1.49590
1515.85164	1.48464
1513.92308	1.47150
1511.99451	1.45785
1510.06595	1.44375
1508.13738	1.42287
1506.20882	1.39236
1504.28025	1.37647
1502.35169	1.36499
1500.42313	1.35066
1498.49456	1.33277
1496.56600	1.31266
1494.63743	1.29582
1492.70887	1.28245
1490.78030	1.26750
1488.85174	1.24946
1486.92317	1.23410
1484.99461	1.22304
1483.06605	1.21514
1481.13748	1.20970
1479.20892	1.20730
1477.28035	1.20911
1475.35179	1.21654
1473.42322	1.23311
1471.49466	1.25421
1469.56610	1.26705
1467.63753	1.27507
1465.70897	1.28453
1463.78040	1.29466
1461.85184	1.29981
1459.92327	1.30212
1457.99471	1.30946
1456.06614	1.32144
1454.13758	1.32462
1452.20902	1.32331
1450.28045	1.32102
1448.35189	1.31782
1446.42332	1.31253
1444.49476	1.30574
1442.56619	1.29810
1440.63763	1.28951
1438.70906	1.27954
1436.78050	1.26661
1434.85194	1.25334
1432.92337	1.24233
1430.99481	1.23165
1429.06624	1.22213
1427.13768	1.21613
1425.20911	1.21371
1423.28055	1.21429
1421.35198	1.21676
1419.42342	1.22167
1417.49486	1.22765
1415.56629	1.23075
1413.63773	1.23243
1411.70916	1.23395
1409.78060	1.23537
1407.85203	1.23717
1405.92347	1.24045
1403.99490	1.24426
1402.06634	1.24602
1400.13778	1.24629
1398.20921	1.24611
1396.28065	1.24525
1394.35208	1.24448
1392.42352	1.24507
1390.49495	1.24730
1388.56639	1.25275
1386.63782	1.26264
1384.70926	1.27347
1382.78070	1.28300
1380.85213	1.29065
1378.92357	1.29412
1376.99500	1.29200
1375.06644	1.28441
1373.13787	1.27323
1371.20931	1.26104
1369.28074	1.24666
1367.35218	1.23065
1365.42362	1.21633
1363.49505	1.20355
1361.56649	1.19228
1359.63792	1.18411
1357.70936	1.17893
1355.78079	1.17598
1353.85223	1.17424
1351.92366	1.17295
1349.99510	1.17170
1348.06654	1.17008
1346.13797	1.16816
1344.20941	1.16647
1342.28084	1.16508
1340.35228	1.16403
1338.42371	1.16343
1336.49515	1.16370
1334.56659	1.16599
1332.63802	1.17029
1330.70946	1.17504
1328.78089	1.17877
1326.85233	1.18115
1324.92376	1.18235
1322.99520	1.18246
1321.06663	1.18221
1319.13807	1.18269
1317.20951	1.18401
1315.28094	1.18522
1313.35238	1.18550
1311.42381	1.18470
1309.49525	1.18334
1307.56668	1.18152
1305.63812	1.17862
1303.70955	1.17449
1301.78099	1.16960
1299.85243	1.16386
1297.92386	1.15693
1295.99530	1.14937
1294.06673	1.14207
1292.13817	1.13604
1290.20960	1.13212
1288.28104	1.12990
1286.35247	1.12850
1284.42391	1.12742
1282.49535	1.12685
1280.56678	1.12779
1278.63822	1.13057
1276.70965	1.13464
1274.78109	1.14003
1272.85252	1.14719
1270.92396	1.15637
1268.99539	1.16704
1267.06683	1.17765
1265.13827	1.18737
1263.20970	1.19620
1261.28114	1.20370
1259.35257	1.20962
1257.42401	1.21433
1255.49544	1.21880
1253.56688	1.22369
1251.63831	1.22831
1249.70975	1.23204
1247.78119	1.23509
1245.85262	1.23729
1243.92406	1.23797
1241.99549	1.23706
1240.06693	1.23547
1238.13836	1.23404
1236.20980	1.23191
1234.28123	1.22781
1232.35267	1.22198
1230.42411	1.21472
1228.49554	1.20620
1226.56698	1.19702
1224.63841	1.18737
1222.70985	1.17751
1220.78128	1.16768
1218.85272	1.15810
1216.92415	1.14968
1214.99559	1.14341
1213.06703	1.13955
1211.13846	1.13704
1209.20990	1.13356
1207.28133	1.12798
1205.35277	1.12036
1203.42420	1.10990
1201.49564	1.09646
1199.56708	1.08139
1197.63851	1.06602
1195.70995	1.05125
1193.78138	1.03774
1191.85282	1.02589
1189.92425	1.01614
1187.99569	1.00898
1186.06712	1.00492
1184.13856	1.00392
1182.21000	1.00548
1180.28143	1.00991
1178.35287	1.01835
1176.42430	1.03107
1174.49574	1.04701
1172.56717	1.06488
1170.63861	1.08500
1168.71004	1.10856
1166.78148	1.13521
1164.85292	1.16275
1162.92435	1.18756
1160.99579	1.20645
1159.06722	1.21812
1157.13866	1.22211
1155.21009	1.21910
1153.28153	1.21131
1151.35296	1.20034
1149.42440	1.18679
1147.49584	1.17279
1145.56727	1.16097
1143.63871	1.15202
1141.71014	1.14591
1139.78158	1.14306
1137.85301	1.14333
1135.92445	1.14549
1133.99588	1.14946
1132.06732	1.15685
1130.13876	1.16803
1128.21019	1.18138
1126.28163	1.19484
1124.35306	1.20733
1122.42450	1.21880
1120.49593	1.22884
1118.56737	1.23687
1116.63880	1.24193
1114.71024	1.24204
1112.78168	1.23718
1110.85311	1.23039
1108.92455	1.22434
1106.99598	1.21946
1105.06742	1.21490
1103.13885	1.21071
1101.21029	1.20819
1099.28172	1.20790
1097.35316	1.20954
1095.42460	1.21365
1093.49603	1.22123
1091.56747	1.23242
1089.63890	1.24738
1087.71034	1.26620
1085.78177	1.28707
1083.85321	1.30766
1081.92464	1.32556
1079.99608	1.33776
1078.06752	1.34224
1076.13895	1.33938
1074.21039	1.33273
1072.28182	1.32389
1070.35326	1.31179
1068.42469	1.29985
1066.49613	1.29245
1064.56756	1.28941
1062.63900	1.28879
1060.71044	1.28900
1058.78187	1.28878
1056.85331	1.28819
1054.92474	1.28904
1052.99618	1.29241
1051.06761	1.29636
1049.13905	1.29916
1047.21049	1.30205
1045.28192	1.30559
1043.35336	1.30861
1041.42479	1.31035
1039.49623	1.31066
1037.56766	1.30963
1035.63910	1.30657
1033.71053	1.30031
1031.78197	1.29093
1029.85341	1.27934
1027.92484	1.26581
1025.99628	1.25052
1024.06771	1.23494
1022.13915	1.22063
1020.21058	1.20763
1018.28202	1.19559
1016.35345	1.18481
1014.42489	1.17440
1012.49633	1.16140
1010.56776	1.14390
1008.63920	1.12353
1006.71063	1.10294
1004.78207	1.08292
1002.85350	1.06361
1000.92494	1.04597
998.99637	1.03114
997.06781	1.01918
995.13925	1.00906
993.21068	0.99964
991.28212	0.98974
989.35355	0.97861
987.42499	0.96714
985.49642	0.95719
983.56786	0.94992
981.63929	0.94519
979.71073	0.94281
977.78217	0.94260
975.85360	0.94327
973.92504	0.94303
971.99647	0.94098
970.06791	0.93764
968.13934	0.93467
966.21078	0.93373
964.28221	0.93554
962.35365	0.94086
960.42509	0.95139
958.49652	0.96644
956.56796	0.98081
954.63939	0.98873
952.71083	0.98816
950.78226	0.98073
948.85370	0.96934
946.92513	0.95612
944.99657	0.94236
943.06801	0.92898
941.13944	0.91608
939.21088	0.90339
937.28231	0.89114
935.35375	0.87978
933.42518	0.86969
931.49662	0.86107
929.56805	0.85385
927.63949	0.84839
925.71093	0.84527
923.78236	0.84413
921.85380	0.84389
919.92523	0.84362
917.99667	0.84302
916.06810	0.84252
914.13954	0.84280
912.21098	0.84428
910.28241	0.84682
908.35385	0.85023
906.42528	0.85495
904.49672	0.86092
902.56815	0.86687
900.63959	0.87180
898.71102	0.87545
896.78246	0.87789
894.85390	0.87905
892.92533	0.87854
890.99677	0.87672
889.06820	0.87470
887.13964	0.87346
885.21107	0.87304
883.28251	0.87277
881.35394	0.87309
879.42538	0.87495
877.49682	0.87814
875.56825	0.88182
873.63969	0.88546
871.71112	0.88931
869.78256	0.89385
867.85399	0.89914
865.92543	0.90505
863.99686	0.91124
862.06830	0.91707
860.13974	0.92246
858.21117	0.92840
856.28261	0.93507
854.35404	0.94109
852.42548	0.94536
850.49691	0.94780
848.56835	0.94864
846.63978	0.94783
844.71122	0.94557
842.78266	0.94258
840.85409	0.93942
838.92553	0.93603
836.99696	0.93200
835.06840	0.92756
833.13983	0.92348
831.21127	0.91991
829.28270	0.91662
827.35414	0.91365
825.42558	0.91174
823.49701	0.91143
821.56845	0.91251
819.63988	0.91500
817.71132	0.91874
815.78275	0.92333
813.85419	0.92880
811.92562	0.93515
809.99706	0.94146
808.06850	0.94728
806.13993	0.95351
804.21137	0.96059
802.28280	0.96761
800.35424	0.97382
798.42567	0.97922
796.49711	0.98365
794.56854	0.98690
792.63998	0.98917
790.71142	0.99026
788.78285	0.98998
786.85429	0.98918
784.92572	0.98876
782.99716	0.98874
781.06859	0.98888
779.14003	0.98908
777.21147	0.98969
775.28290	0.99154
773.35434	0.99471
771.42577	0.99837
769.49721	1.00244
767.56864	1.00731
765.64008	1.01281
763.71151	1.01885
761.78295	1.02576
759.85439	1.03368
757.92582	1.04223
755.99726	1.05023
754.06869	1.05760
752.14013	1.06542
750.21156	1.07295
748.28300	1.07880
746.35443	1.08338
744.42587	1.08702
742.49731	1.08921
740.56874	1.09036
738.64018	1.09075
736.71161	1.09020
734.78305	1.09026
732.85448	1.09267
730.92592	1.09630
728.99735	1.09940
727.06879	1.10294
725.14023	1.10835
723.21166	1.11460
721.28310	1.12051
719.35453	1.12659
717.42597	1.13319
715.49740	1.14012
713.56884	1.14705
711.64027	1.15345
709.71171	1.15952
707.78315	1.16545
705.85458	1.17009
703.92602	1.17212
701.99745	1.17150
700.06889	1.16867
698.14032	1.16383
696.21176	1.15704
694.28319	1.14798
692.35463	1.13699
690.42607	1.12571
688.49750	1.11549
686.56894	1.10633
684.64037	1.09757
682.71181	1.08911
680.78324	1.08205
678.85468	1.07740
676.92611	1.07559
674.99755	1.07674
673.06899	1.07985
671.14042	1.08333
669.21186	1.09036
667.28329	1.10528
665.35473	1.11709
663.42616	1.12530
661.49760	1.13359
659.56903	1.14039
657.64047	1.14475
655.71191	1.14847
653.78334	1.15376
651.85478	1.15998
649.92621	1.16253
647.99765	1.16087
646.06908	1.16071
644.14052	1.16184
642.21195	1.16011
640.28339	1.15763
638.35483	1.15658
636.42626	1.15409
634.49770	1.14993
632.56913	1.14873
630.64057	1.15298
628.71200	1.16055
626.78344	1.16871
624.85488	1.17747
622.92631	1.18747
620.99775	1.19649
619.06918	1.20540
617.14062	1.21976
615.21205	1.23683
613.28349	1.24711
611.35492	1.25172
609.42636	1.25804
607.49780	1.26432
605.56923	1.26419
603.64067	1.25912
601.71210	1.25304
599.78354	1.24275
