3997.91406	0.98991
3995.98550	0.98858
3994.05693	0.98758
3992.12837	0.98700
3990.19980	0.98762
3988.27124	0.98795
3986.34268	0.98744
3984.41411	0.98798
3982.48555	0.98915
3980.55698	0.98899
3978.62842	0.98799
3976.69985	0.98708
3974.77129	0.98611
3972.84272	0.98562
3970.91416	0.98627
3968.98560	0.98782
3967.05703	0.98977
3965.12847	0.99115
3963.19990	0.99159
3961.27134	0.99089
3959.34277	0.98868
3957.41421	0.98718
3955.48564	0.98775
3953.55708	0.98780
3951.62852	0.98622
3949.69995	0.98486
3947.77139	0.98378
3945.84282	0.98249
3943.91426	0.98290
3941.98569	0.98408
3940.05713	0.98366
3938.12856	0.98284
3936.20000	0.98153
3934.27144	0.97991
3932.34287	0.98081
3930.41431	0.98370
3928.48574	0.98520
3926.55718	0.98581
3924.62861	0.98676
3922.70005	0.98618
3920.77148	0.98368
3918.84292	0.98213
3916.91436	0.98285
3914.98579	0.98268
3913.05723	0.97998
3911.12866	0.97638
3909.20010	0.97281
3907.27153	0.97051
3905.34297	0.97182
3903.41440	0.97504
3901.48584	0.97565
3899.55728	0.97495
3897.62871	0.97318
3895.70015	0.96920
3893.77158	0.96608
3891.84302	0.96811
3889.91445	0.97016
3887.98589	0.96897
3886.05733	0.97045
3884.12876	0.97264
3882.20020	0.97057
3880.27163	0.96848
3878.34307	0.96620
3876.41450	0.96277
3874.48594	0.96095
3872.55737	0.96066
3870.62881	0.96191
3868.70025	0.96300
3866.77168	0.96105
3864.84312	0.96084
3862.91455	0.96247
3860.98599	0.95995
3859.05742	0.95458
3857.12886	0.94862
3855.20029	0.94589
3853.27173	0.95464
3851.34317	0.95890
3849.41460	0.95411
3847.48604	0.94999
3845.55747	0.94876
3843.62891	0.95001
3841.70034	0.95183
3839.77178	0.95257
3837.84321	0.95385
3835.91465	0.95492
3833.98609	0.95380
3832.05752	0.95178
3830.12896	0.95034
3828.20039	0.95029
3826.27183	0.95020
3824.34326	0.94763
3822.41470	0.94707
3820.48613	0.95036
3818.55757	0.94831
3816.62901	0.94639
3814.70044	0.94764
3812.77188	0.94584
3810.84331	0.94221
3808.91475	0.94054
3806.98618	0.94216
3805.05762	0.94309
3803.12905	0.94409
3801.20049	0.94735
3799.27193	0.94586
3797.34336	0.94332
3795.41480	0.94434
3793.48623	0.94460
3791.55767	0.94272
3789.62910	0.94046
3787.70054	0.93860
3785.77197	0.93779
3783.84341	0.93729
3781.91485	0.93681
3779.98628	0.93850
3778.05772	0.93983
3776.12915	0.93758
3774.20059	0.93462
3772.27202	0.93338
3770.34346	0.93468
3768.41489	0.93607
3766.48633	0.93593
3764.55777	0.93547
3762.62920	0.93354
3760.70064	0.93161
3758.77207	0.93217
3756.84351	0.93125
3754.91494	0.92690
3752.98638	0.92401
3751.05781	0.93142
3749.12925	0.94063
3747.20069	0.94064
3745.27212	0.93996
3743.34356	0.93921
3741.41499	0.93438
3739.48643	0.92910
3737.55786	0.92785
3735.62930	0.93321
3733.70074	0.93752
3731.77217	0.93496
3729.84361	0.93035
3727.91504	0.92753
3725.98648	0.92790
3724.05791	0.92915
3722.12935	0.92917
3720.20078	0.92914
3718.27222	0.92916
3716.34366	0.92779
3714.41509	0.92565
3712.48653	0.92773
3710.55796	0.93442
3708.62940	0.93526
3706.70083	0.93195
3704.77227	0.92889
3702.84370	0.92788
3700.91514	0.92946
3698.98658	0.93095
3697.05801	0.93061
3695.12945	0.92903
3693.20088	0.92815
3691.27232	0.93114
3689.34375	0.93975
3687.41519	0.94482
3685.48662	0.94360
3683.55806	0.94176
3681.62950	0.94201
3679.70093	0.94381
3677.77237	0.94780
3675.84380	0.95802
3673.91524	0.96295
3671.98667	0.95998
3670.05811	0.96332
3668.12954	0.97010
3666.20098	0.97175
3664.27242	0.97297
3662.34385	0.97637
3660.41529	0.98030
3658.48672	0.98436
3656.55816	0.99131
3654.62959	0.99740
3652.70103	1.00005
3650.77246	1.00712
3648.84390	1.02234
3646.91534	1.02829
3644.98677	1.02747
3643.05821	1.02895
3641.12964	1.03460
3639.20108	1.04122
3637.27251	1.04636
3635.34395	1.05170
3633.41538	1.05787
3631.48682	1.06374
3629.55826	1.07445
3627.62969	1.08871
3625.70113	1.09467
3623.77256	1.09678
3621.84400	1.09988
3619.91543	1.10641
3617.98687	1.11208
3616.05830	1.11509
3614.12974	1.12269
3612.20118	1.13288
3610.27261	1.13888
3608.34405	1.14566
3606.41548	1.15565
3604.48692	1.16350
3602.55835	1.17123
3600.62979	1.18161
3598.70123	1.19109
3596.77266	1.19864
3594.84410	1.20729
3592.91553	1.21474
3590.98697	1.21818
3589.05840	1.22404
3587.12984	1.23779
3585.20127	1.24903
3583.27271	1.25522
3581.34415	1.26226
3579.41558	1.27095
3577.48702	1.28029
3575.55845	1.28993
3573.62989	1.29777
3571.70132	1.30335
3569.77276	1.30933
3567.84419	1.31976
3565.91563	1.33205
3563.98707	1.33826
3562.05850	1.34266
3560.12994	1.35083
3558.20137	1.36320
3556.27281	1.37512
3554.34424	1.38452
3552.41568	1.39361
3550.48711	1.40056
3548.55855	1.40513
3546.62999	1.41177
3544.70142	1.42166
3542.77286	1.43013
3540.84429	1.43483
3538.91573	1.43967
3536.98716	1.44915
3535.05860	1.45978
3533.13003	1.46484
3531.20147	1.46874
3529.27291	1.48008
3527.34434	1.49483
3525.41578	1.50410
3523.48721	1.51229
3521.55865	1.52319
3519.63008	1.53190
3517.70152	1.53909
3515.77295	1.54712
3513.84439	1.55463
3511.91583	1.56238
3509.98726	1.57423
3508.05870	1.59053
3506.13013	1.60358
3504.20157	1.61138
3502.27300	1.62224
3500.34444	1.63737
3498.41587	1.64961
3496.48731	1.65768
3494.55875	1.66588
3492.63018	1.67550
3490.70162	1.68257
3488.77305	1.68376
3486.84449	1.68393
3484.91592	1.68892
3482.98736	1.69878
3481.05879	1.70935
3479.13023	1.71398
3477.20167	1.71681
3475.27310	1.72585
3473.34454	1.73814
3471.41597	1.74767
3469.48741	1.75337
3467.55884	1.75574
3465.63028	1.75613
3463.70171	1.75599
3461.77315	1.75642
3459.84459	1.75957
3457.91602	1.76553
3455.98746	1.77354
3454.05889	1.78581
3452.13033	1.80034
3450.20176	1.80947
3448.27320	1.81164
3446.34464	1.80747
3444.41607	1.79869
3442.48751	1.80054
3440.55894	1.81772
3438.63038	1.83052
3436.70181	1.83385
3434.77325	1.84026
3432.84468	1.84210
3430.91612	1.82722
3428.98756	1.81248
3427.05899	1.81496
3425.13043	1.82693
3423.20186	1.83607
3421.27330	1.84095
3419.34473	1.84445
3417.41617	1.84405
3415.48760	1.83740
3413.55904	1.83294
3411.63048	1.83925
3409.70191	1.85063
3407.77335	1.85897
3405.84478	1.86657
3403.91622	1.87084
3401.98765	1.86433
3400.05909	1.85513
3398.13052	1.85478
3396.20196	1.86172
3394.27340	1.87007
3392.34483	1.87675
3390.41627	1.88173
3388.48770	1.88698
3386.55914	1.88732
3384.63057	1.87668
3382.70201	1.86501
3380.77344	1.86493
3378.84488	1.87226
3376.91632	1.87559
3374.98775	1.87461
3373.05919	1.87728
3371.13062	1.88832
3369.20206	1.90199
3367.27349	1.90876
3365.34493	1.90889
3363.41636	1.90606
3361.48780	1.90348
3359.55924	1.90668
3357.63067	1.91567
3355.70211	1.92226
3353.77354	1.92217
3351.84498	1.92307
3349.91641	1.92910
3347.98785	1.93530
3346.05928	1.94029
3344.13072	1.94557
3342.20216	1.94908
3340.27359	1.94946
3338.34503	1.95304
3336.41646	1.96451
3334.48790	1.97267
3332.55933	1.96849
3330.63077	1.96548
3328.70220	1.97370
3326.77364	1.97874
3324.84508	1.97243
3322.91651	1.96828
3320.98795	1.97021
3319.05938	1.97180
3317.13082	1.96972
3315.20225	1.96436
3313.27369	1.96401
3311.34513	1.96859
3309.41656	1.97032
3307.48800	1.97983
3305.55943	1.99996
3303.63087	2.00818
3301.70230	1.99879
3299.77374	1.98799
3297.84517	1.98268
3295.91661	1.97839
3293.98805	1.97441
3292.05948	1.97879
3290.13092	1.99020
3288.20235	1.99771
3286.27379	2.00094
3284.34522	2.00257
3282.41666	1.99905
3280.48809	1.99082
3278.55953	1.98101
3276.63097	1.97126
3274.70240	1.96592
3272.77384	1.96788
3270.84527	1.97236
3268.91671	1.97197
3266.98814	1.96972
3265.05958	1.97157
3263.13101	1.97149
3261.20245	1.96649
3259.27389	1.95428
3257.34532	1.93331
3255.41676	1.91965
3253.48819	1.91735
3251.55963	1.91193
3249.63106	1.90142
3247.70250	1.89235
3245.77393	1.88747
3243.84537	1.88576
3241.91681	1.87970
3239.98824	1.86599
3238.05968	1.85675
3236.13111	1.85801
3234.20255	1.85658
3232.27398	1.84627
3230.34542	1.83733
3228.41685	1.83251
3226.48829	1.82567
3224.55973	1.82190
3222.63116	1.82718
3220.70260	1.83208
3218.77403	1.82903
3216.84547	1.82013
3214.91690	1.80733
3212.98834	1.79613
3211.05977	1.79330
3209.13121	1.79597
3207.20265	1.79492
3205.27408	1.78764
3203.34552	1.77917
3201.41695	1.77200
3199.48839	1.76490
3197.55982	1.75983
3195.63126	1.75881
3193.70269	1.75795
3191.77413	1.75350
3189.84557	1.74451
3187.91700	1.73246
3185.98844	1.72448
3184.05987	1.72501
3182.13131	1.72725
3180.20274	1.72378
3178.27418	1.71514
3176.34562	1.70513
3174.41705	1.69801
3172.48849	1.69381
3170.55992	1.68804
3168.63136	1.68205
3166.70279	1.67972
3164.77423	1.67720
3162.84566	1.67309
3160.91710	1.67169
3158.98854	1.67063
3157.05997	1.66733
3155.13141	1.66356
3153.20284	1.65724
3151.27428	1.64860
3149.34571	1.64320
3147.41715	1.64250
3145.48858	1.64233
3143.56002	1.64029
3141.63146	1.63714
3139.70289	1.63389
3137.77433	1.63102
3135.84576	1.62653
3133.91720	1.61899
3131.98863	1.61005
3130.06007	1.60320
3128.13150	1.60328
3126.20294	1.60951
3124.27438	1.61315
3122.34581	1.60994
3120.41725	1.60630
3118.48868	1.60691
3116.56012	1.60730
3114.63155	1.60254
3112.70299	1.59503
3110.77442	1.59211
3108.84586	1.59644
3106.91730	1.60130
3104.98873	1.59985
3103.06017	1.59565
3101.13160	1.59735
3099.20304	1.60418
3097.27447	1.60759
3095.34591	1.60549
3093.41734	1.60203
3091.48878	1.59940
3089.56022	1.59697
3087.63165	1.59391
3085.70309	1.59164
3083.77452	1.59270
3081.84596	1.59430
3079.91739	1.59181
3077.98883	1.58745
3076.06026	1.58517
3074.13170	1.58504
3072.20314	1.58534
3070.27457	1.58391
3068.34601	1.57828
3066.41744	1.56911
3064.48888	1.56259
3062.56031	1.56180
3060.63175	1.56221
3058.70318	1.56012
3056.77462	1.55634
3054.84606	1.55214
3052.91749	1.54845
3050.98893	1.54567
3049.06036	1.54158
3047.13180	1.53459
3045.20323	1.52634
3043.27467	1.51963
3041.34610	1.51599
3039.41754	1.51304
3037.48898	1.50713
3035.56041	1.49953
3033.63185	1.49511
3031.70328	1.49488
3029.77472	1.49530
3027.84615	1.49462
3025.91759	1.49264
3023.98903	1.48769
3022.06046	1.47891
3020.13190	1.46926
3018.20333	1.46343
3016.27477	1.46158
3014.34620	1.45955
3012.41764	1.45588
3010.48907	1.45236
3008.56051	1.44970
3006.63195	1.44773
3004.70338	1.44599
3002.77482	1.44385
3000.84625	1.44177
2998.91769	1.44075
2996.98912	1.44105
2995.06056	1.44273
2993.13199	1.44644
2991.20343	1.45235
2989.27487	1.45968
2987.34630	1.46757
2985.41774	1.47557
2983.48917	1.48469
2981.56061	1.49536
2979.63204	1.50504
2977.70348	1.51335
2975.77491	1.52289
2973.84635	1.53262
2971.91779	1.53979
2969.98922	1.54709
2968.06066	1.55816
2966.13209	1.57029
2964.20353	1.57925
2962.27496	1.58425
2960.34640	1.58492
2958.41783	1.58060
2956.48927	1.57274
2954.56071	1.56613
2952.63214	1.56341
2950.70358	1.56339
2948.77501	1.56530
2946.84645	1.56689
2944.91788	1.56742
2942.98932	1.57116
2941.06075	1.57982
2939.13219	1.59037
2937.20363	1.60045
2935.27506	1.60997
2933.34650	1.61773
2931.41793	1.62215
2929.48937	1.62577
2927.56080	1.63209
2925.63224	1.63889
2923.70367	1.64164
2921.77511	1.64112
2919.84655	1.64083
2917.91798	1.63710
2915.98942	1.62043
2914.06085	1.59318
2912.13229	1.56706
2910.20372	1.54501
2908.27516	1.52539
2906.34659	1.50852
2904.41803	1.49544
2902.48947	1.48813
2900.56090	1.48454
2898.63234	1.47940
2896.70377	1.47263
2894.77521	1.46633
2892.84664	1.46005
2890.91808	1.45538
2888.98952	1.45362
2887.06095	1.45239
2885.13239	1.45135
2883.20382	1.45167
2881.27526	1.45199
2879.34669	1.45156
2877.41813	1.45190
2875.48956	1.45242
2873.56100	1.45078
2871.63244	1.44730
2869.70387	1.44190
2867.77531	1.43418
2865.84674	1.42647
2863.91818	1.42123
2861.98961	1.41966
2860.06105	1.42097
2858.13248	1.42360
2856.20392	1.42808
2854.27536	1.43538
2852.34679	1.44318
2850.41823	1.44475
2848.48966	1.43299
2846.56110	1.40697
2844.63253	1.37580
2842.70397	1.35030
2840.77540	1.33229
2838.84684	1.31908
2836.91828	1.30938
2834.98971	1.30155
2833.06115	1.29391
2831.13258	1.28635
2829.20402	1.28014
2827.27545	1.27595
2825.34689	1.27218
2823.41832	1.26762
2821.48976	1.26340
2819.56120	1.25997
2817.63263	1.25593
2815.70407	1.25080
2813.77550	1.24556
2811.84694	1.24101
2809.91837	1.23788
2807.98981	1.23598
2806.06124	1.23316
2804.13268	1.22878
2802.20412	1.22495
2800.27555	1.22269
2798.34699	1.21995
2796.41842	1.21563
2794.48986	1.21142
2792.56129	1.20759
2790.63273	1.20320
2788.70416	1.19913
2786.77560	1.19631
2784.84704	1.19424
2782.91847	1.19146
2780.98991	1.18706
2779.06134	1.18224
2777.13278	1.17862
2775.20421	1.17590
2773.27565	1.17318
2771.34708	1.17057
2769.41852	1.16803
2767.48996	1.16573
2765.56139	1.16408
2763.63283	1.16245
2761.70426	1.16102
2759.77570	1.16008
2757.84713	1.15833
2755.91857	1.15551
2753.99001	1.15279
2752.06144	1.15068
2750.13288	1.14863
2748.20431	1.14550
2746.27575	1.14166
2744.34718	1.13896
2742.41862	1.13741
2740.49005	1.13591
2738.56149	1.13435
2736.63293	1.13197
2734.70436	1.12837
2732.77580	1.12574
2730.84723	1.12500
2728.91867	1.12383
2726.99010	1.12094
2725.06154	1.11786
2723.13297	1.11611
2721.20441	1.11502
2719.27585	1.11322
2717.34728	1.11100
2715.41872	1.10924
2713.49015	1.10751
2711.56159	1.10486
2709.63302	1.10179
2707.70446	1.09979
2705.77589	1.09871
2703.84733	1.09721
2701.91877	1.09537
2699.99020	1.09409
2698.06164	1.09269
2696.13307	1.09016
2694.20451	1.08719
2692.27594	1.08504
2690.34738	1.08386
2688.41881	1.08256
2686.49025	1.08064
2684.56169	1.07928
2682.63312	1.07860
2680.70456	1.07734
2678.77599	1.07590
2676.84743	1.07494
2674.91886	1.07373
2672.99030	1.07199
2671.06173	1.06990
2669.13317	1.06774
2667.20461	1.06606
2665.27604	1.06465
2663.34748	1.06291
2661.41891	1.06042
2659.49035	1.05724
2657.56178	1.05431
2655.63322	1.05202
2653.70465	1.04993
2651.77609	1.04832
2649.84753	1.04743
2647.91896	1.04692
2645.99040	1.04641
2644.06183	1.04560
2642.13327	1.04434
2640.20470	1.04265
2638.27614	1.04114
2636.34757	1.04012
2634.41901	1.03912
2632.49045	1.03796
2630.56188	1.03676
2628.63332	1.03580
2626.70475	1.03494
2624.77619	1.03348
2622.84762	1.03145
2620.91906	1.02975
2618.99049	1.02862
2617.06193	1.02701
2615.13337	1.02436
2613.20480	1.02175
2611.27624	1.01998
2609.34767	1.01844
2607.41911	1.01660
2605.49054	1.01473
2603.56198	1.01292
2601.63342	1.01116
2599.70485	1.00973
2597.77629	1.00843
2595.84772	1.00668
2593.91916	1.00462
2591.99059	1.00320
2590.06203	1.00298
2588.13346	1.00323
2586.20490	1.00287
2584.27634	1.00145
2582.34777	0.99932
2580.41921	0.99729
2578.49064	0.99584
2576.56208	0.99451
2574.63351	0.99294
2572.70495	0.99171
2570.77638	0.99072
2568.84782	0.98914
2566.91926	0.98729
2564.99069	0.98575
2563.06213	0.98438
2561.13356	0.98326
2559.20500	0.98234
2557.27643	0.98122
2555.34787	0.97987
2553.41930	0.97844
2551.49074	0.97711
2549.56218	0.97597
2547.63361	0.97505
2545.70505	0.97410
2543.77648	0.97266
2541.84792	0.97119
2539.91935	0.97017
2537.99079	0.96886
2536.06222	0.96704
2534.13366	0.96537
2532.20510	0.96413
2530.27653	0.96301
2528.34797	0.96154
2526.41940	0.95960
2524.49084	0.95746
2522.56227	0.95551
2520.63371	0.95398
2518.70514	0.95236
2516.77658	0.95012
2514.84802	0.94783
2512.91945	0.94608
2510.99089	0.94461
2509.06232	0.94322
2507.13376	0.94188
2505.20519	0.94025
2503.27663	0.93827
2501.34806	0.93661
2499.41950	0.93519
2497.49094	0.93353
2495.56237	0.93205
2493.63381	0.93087
2491.70524	0.92962
2489.77668	0.92847
2487.84811	0.92732
2485.91955	0.92566
2483.99098	0.92392
2482.06242	0.92292
2480.13386	0.92241
2478.20529	0.92145
2476.27673	0.91998
2474.34816	0.91872
2472.41960	0.91787
2470.49103	0.91700
2468.56247	0.91552
2466.63391	0.91367
2464.70534	0.91235
2462.77678	0.91159
2460.84821	0.91089
2458.91965	0.91017
2456.99108	0.90940
2455.06252	0.90850
2453.13395	0.90756
2451.20539	0.90672
2449.27683	0.90569
2447.34826	0.90423
2445.41970	0.90265
2443.49113	0.90107
2441.56257	0.89938
2439.63400	0.89762
2437.70544	0.89598
2435.77687	0.89440
2433.84831	0.89248
2431.91975	0.89018
2429.99118	0.88803
2428.06262	0.88653
2426.13405	0.88552
2424.20549	0.88442
2422.27692	0.88287
2420.34836	0.88081
2418.41979	0.87830
2416.49123	0.87591
2414.56267	0.87419
2412.63410	0.87298
2410.70554	0.87181
2408.77697	0.87045
2406.84841	0.86898
2404.91984	0.86745
2402.99128	0.86595
2401.06271	0.86461
2399.13415	0.86338
2397.20559	0.86208
2395.27702	0.86074
2393.34846	0.85926
2391.41989	0.85769
2389.49133	0.85622
2387.56276	0.85451
2385.63420	0.85209
2383.70563	0.84924
2381.77707	0.84647
2379.84851	0.84360
2377.91994	0.84027
2375.99138	0.83695
2374.06281	0.83372
2372.13425	0.82984
2370.20568	0.82539
2368.27712	0.82075
2366.34855	0.81673
2364.41999	0.81477
2362.49143	0.81337
2360.56286	0.81013
2358.63430	0.80818
2356.70573	0.81142
2354.77717	0.81712
2352.84860	0.82165
2350.92004	0.82366
2348.99147	0.82248
2347.06291	0.81851
2345.13435	0.81394
2343.20578	0.81222
2341.27722	0.81275
2339.34865	0.81265
2337.42009	0.81222
2335.49152	0.81305
2333.56296	0.81452
2331.63440	0.81538
2329.70583	0.81550
2327.77727	0.81453
2325.84870	0.81278
2323.92014	0.81147
2321.99157	0.81132
2320.06301	0.81239
2318.13444	0.81414
2316.20588	0.81552
2314.27732	0.81588
2312.34875	0.81560
2310.42019	0.81535
2308.49162	0.81526
2306.56306	0.81536
2304.63449	0.81549
2302.70593	0.81517
2300.77736	0.81445
2298.84880	0.81367
2296.92024	0.81285
2294.99167	0.81217
2293.06311	0.81174
2291.13454	0.81118
2289.20598	0.81023
2287.27741	0.80908
2285.34885	0.80797
2283.42028	0.80689
2281.49172	0.80577
2279.56316	0.80463
2277.63459	0.80364
2275.70603	0.80292
2273.77746	0.80225
2271.84890	0.80148
2269.92033	0.80092
2267.99177	0.80069
2266.06320	0.80040
2264.13464	0.79976
2262.20608	0.79894
2260.27751	0.79828
2258.34895	0.79769
2256.42038	0.79676
2254.49182	0.79546
2252.56325	0.79440
2250.63469	0.79384
2248.70612	0.79311
2246.77756	0.79183
2244.84900	0.79058
2242.92043	0.78976
2240.99187	0.78928
2239.06330	0.78897
2237.13474	0.78864
2235.20617	0.78821
2233.27761	0.78786
2231.34904	0.78764
2229.42048	0.78732
2227.49192	0.78696
2225.56335	0.78677
2223.63479	0.78685
2221.70622	0.78715
2219.77766	0.78737
2217.84909	0.78739
2215.92053	0.78738
2213.99196	0.78740
2212.06340	0.78734
2210.13484	0.78706
2208.20627	0.78638
2206.27771	0.78547
2204.34914	0.78484
2202.42058	0.78440
2200.49201	0.78371
2198.56345	0.78305
2196.63488	0.78273
2194.70632	0.78238
2192.77776	0.78191
2190.84919	0.78149
2188.92063	0.78101
2186.99206	0.78045
2185.06350	0.77992
2183.13493	0.77931
2181.20637	0.77861
2179.27781	0.77809
2177.34924	0.77784
2175.42068	0.77749
2173.49211	0.77682
2171.56355	0.77602
2169.63498	0.77515
2167.70642	0.77422
2165.77785	0.77343
2163.84929	0.77283
2161.92073	0.77225
2159.99216	0.77160
2158.06360	0.77093
2156.13503	0.77040
2154.20647	0.77007
2152.27790	0.76964
2150.34934	0.76892
2148.42077	0.76822
2146.49221	0.76759
2144.56365	0.76680
2142.63508	0.76597
2140.70652	0.76545
2138.77795	0.76531
2136.84939	0.76522
2134.92082	0.76485
2132.99226	0.76413
2131.06369	0.76317
2129.13513	0.76222
2127.20657	0.76147
2125.27800	0.76077
2123.34944	0.75983
2121.42087	0.75857
2119.49231	0.75738
2117.56374	0.75660
2115.63518	0.75607
2113.70661	0.75549
2111.77805	0.75488
2109.84949	0.75439
2107.92092	0.75404
2105.99236	0.75387
2104.06379	0.75403
2102.13523	0.75427
2100.20666	0.75419
2098.27810	0.75377
2096.34953	0.75334
2094.42097	0.75320
2092.49241	0.75312
2090.56384	0.75264
2088.63528	0.75189
2086.70671	0.75130
2084.77815	0.75061
2082.84958	0.74933
2080.92102	0.74786
2078.99245	0.74648
2077.06389	0.74497
2075.13533	0.74341
2073.20676	0.74199
2071.27820	0.74067
2069.34963	0.73966
2067.42107	0.73901
2065.49250	0.73812
2063.56394	0.73668
2061.63537	0.73516
2059.70681	0.73390
2057.77825	0.73274
2055.84968	0.73138
2053.92112	0.72992
2051.99255	0.72850
2050.06399	0.72710
2048.13542	0.72573
2046.20686	0.72433
2044.27830	0.72271
2042.34973	0.72092
2040.42117	0.71915
2038.49260	0.71739
2036.56404	0.71545
2034.63547	0.71341
2032.70691	0.71158
2030.77834	0.71017
2028.84978	0.70914
2026.92122	0.70820
2024.99265	0.70705
2023.06409	0.70572
2021.13552	0.70474
2019.20696	0.70433
2017.27839	0.70402
2015.34983	0.70357
2013.42126	0.70296
2011.49270	0.70202
2009.56414	0.70090
2007.63557	0.69995
2005.70701	0.69925
2003.77844	0.69873
2001.84988	0.69818
1999.92131	0.69723
1997.99275	0.69592
1996.06418	0.69467
1994.13562	0.69380
1992.20706	0.69335
1990.27849	0.69280
1988.34993	0.69180
1986.42136	0.69057
1984.49280	0.68932
1982.56423	0.68819
1980.63567	0.68721
1978.70710	0.68634
1976.77854	0.68553
1974.84998	0.68485
1972.92141	0.68420
1970.99285	0.68329
1969.06428	0.68245
1967.13572	0.68205
1965.20715	0.68148
1963.27859	0.68041
1961.35002	0.67927
1959.42146	0.67802
1957.49290	0.67636
1955.56433	0.67464
1953.63577	0.67317
1951.70720	0.67169
1949.77864	0.67011
1947.85007	0.66855
1945.92151	0.66689
1943.99294	0.66499
1942.06438	0.66294
1940.13582	0.66073
1938.20725	0.65863
1936.27869	0.65687
1934.35012	0.65540
1932.42156	0.65414
1930.49299	0.65299
1928.56443	0.65180
1926.63586	0.65062
1924.70730	0.64975
1922.77874	0.64926
1920.85017	0.64864
1918.92161	0.64809
1916.99304	0.64777
1915.06448	0.64694
1913.13591	0.64583
1911.20735	0.64511
1909.27878	0.64475
1907.35022	0.64421
1905.42166	0.64335
1903.49309	0.64256
1901.56453	0.64203
1899.63596	0.64158
1897.70740	0.64117
1895.77883	0.64095
1893.85027	0.64061
1891.92171	0.64004
1889.99314	0.63988
1888.06458	0.63971
1886.13601	0.63900
1884.20745	0.63839
1882.27888	0.63802
1880.35032	0.63762
1878.42175	0.63710
1876.49319	0.63644
1874.56463	0.63570
1872.63606	0.63501
1870.70750	0.63480
1868.77893	0.63532
1866.85037	0.63520
1864.92180	0.63395
1862.99324	0.63269
1861.06467	0.63170
1859.13611	0.63090
1857.20755	0.63028
1855.27898	0.62957
1853.35042	0.62861
1851.42185	0.62758
1849.49329	0.62672
1847.56472	0.62606
1845.63616	0.62590
1843.70759	0.62612
1841.77903	0.62527
1839.85047	0.62372
1837.92190	0.62271
1835.99334	0.62208
1834.06477	0.62098
1832.13621	0.61994
1830.20764	0.62003
1828.27908	0.62014
1826.35051	0.61937
1824.42195	0.61888
1822.49339	0.61869
1820.56482	0.61826
1818.63626	0.61801
1816.70769	0.61803
1814.77913	0.61807
1812.85056	0.61845
1810.92200	0.61944
1808.99343	0.62029
1807.06487	0.62067
1805.13631	0.62100
1803.20774	0.62157
1801.27918	0.62298
1799.35061	0.62461
1797.42205	0.62540
1795.49348	0.62591
1793.56492	0.62748
1791.63635	0.63014
1789.70779	0.63112
1787.77923	0.63084
1785.85066	0.63123
1783.92210	0.63243
1781.99353	0.63379
1780.06497	0.63521
1778.13640	0.63631
1776.20784	0.63684
1774.27927	0.63798
1772.35071	0.64129
1770.42215	0.64450
1768.49358	0.64598
1766.56502	0.64700
1764.63645	0.64812
1762.70789	0.65097
1760.77932	0.65564
1758.85076	0.65995
1756.92220	0.66507
1754.99363	0.67035
1753.06507	0.67526
1751.13650	0.68338
1749.20794	0.69518
1747.27937	0.70514
1745.35081	0.71303
1743.42224	0.72103
1741.49368	0.72990
1739.56512	0.73923
1737.63655	0.74578
1735.70799	0.75128
1733.77942	0.76289
1731.85086	0.77480
1729.92229	0.78275
1727.99373	0.79091
1726.06516	0.79989
1724.13660	0.81138
1722.20804	0.82366
1720.27947	0.83469
1718.35091	0.85194
1716.42234	0.88198
1714.49378	0.90720
1712.56521	0.92630
1710.63665	0.94729
1708.70808	0.97270
1706.77952	1.00867
1704.85096	1.05470
1702.92239	1.09510
1700.99383	1.14625
1699.06526	1.22524
1697.13670	1.29642
1695.20813	1.36198
1693.27957	1.40926
1691.35100	1.44244
1689.42244	1.47739
1687.49388	1.50521
1685.56531	1.53097
1683.63675	1.56780
1681.70818	1.58926
1679.77962	1.59662
1677.85105	1.60130
1675.92249	1.60690
1673.99392	1.61202
1672.06536	1.61500
1670.13680	1.61812
1668.20823	1.62298
1666.27967	1.62442
1664.35110	1.62530
1662.42254	1.62941
1660.49397	1.63196
1658.56541	1.63143
1656.63684	1.62971
1654.70828	1.63138
1652.77972	1.63562
1650.85115	1.63155
1648.92259	1.62685
1646.99402	1.62164
1645.06546	1.61514
1643.13689	1.60901
1641.20833	1.60374
1639.27976	1.59888
1637.35120	1.59539
1635.42264	1.59277
1633.49407	1.58903
1631.56551	1.58580
1629.63694	1.58107
1627.70838	1.57400
1625.77981	1.56549
1623.85125	1.55469
1621.92269	1.54235
1619.99412	1.53162
1618.06556	1.51957
1616.13699	1.50080
1614.20843	1.48231
1612.27986	1.46563
1610.35130	1.44677
1608.42273	1.42669
1606.49417	1.40944
1604.56561	1.39650
1602.63704	1.38666
1600.70848	1.37965
1598.77991	1.37517
1596.85135	1.37269
1594.92278	1.37158
1592.99422	1.37122
1591.06565	1.37200
1589.13709	1.37527
1587.20853	1.38167
1585.27996	1.38951
1583.35140	1.39784
1581.42283	1.40652
1579.49427	1.41522
1577.56570	1.42699
1575.63714	1.44244
1573.70857	1.45136
1571.78001	1.45723
1569.85145	1.46792
1567.92288	1.47930
1565.99432	1.48749
1564.06575	1.49679
1562.13719	1.50509
1560.20862	1.51338
1558.28006	1.52522
1556.35149	1.53038
1554.42293	1.53292
1552.49437	1.53377
1550.56580	1.53366
1548.63724	1.53342
1546.70867	1.53290
1544.78011	1.53323
1542.85154	1.53747
1540.92298	1.53926
1538.99441	1.52332
1537.06585	1.51216
1535.13729	1.50765
1533.20872	1.50479
1531.28016	1.50033
1529.35159	1.49392
1527.42303	1.48712
1525.49446	1.48198
1523.56590	1.47931
1521.63733	1.47758
1519.70877	1.47589
1517.78021	1.47212
1515.85164	1.46426
1513.92308	1.45379
1511.99451	1.44186
1510.06595	1.42920
1508.13738	1.41251
1506.20882	1.38571
1504.28025	1.36567
1502.35169	1.34959
1500.42313	1.33240
1498.49456	1.31253
1496.56600	1.28771
1494.63743	1.26490
1492.70887	1.24790
1490.78030	1.23067
1488.85174	1.21098
1486.92317	1.19591
1484.99461	1.18611
1483.06605	1.18031
1481.13748	1.17845
1479.20892	1.17982
1477.28035	1.18447
1475.35179	1.19410
1473.42322	1.21225
1471.49466	1.23243
1469.56610	1.24215
1467.63753	1.24713
1465.70897	1.25366
1463.78040	1.26094
1461.85184	1.26503
1459.92327	1.26821
1457.99471	1.27609
1456.06614	1.28397
1454.13758	1.28306
1452.20902	1.28032
1450.28045	1.27798
1448.35189	1.27499
1446.42332	1.27081
1444.49476	1.26674
1442.56619	1.26303
1440.63763	1.25893
1438.70906	1.25372
1436.78050	1.24642
1434.85194	1.23797
1432.92337	1.23035
1430.99481	1.22340
1429.06624	1.21782
1427.13768	1.21447
1425.20911	1.21317
1423.28055	1.21362
1421.35198	1.21503
1419.42342	1.21825
1417.49486	1.22214
1415.56629	1.22375
1413.63773	1.22469
1411.70916	1.22587
1409.78060	1.22748
1407.85203	1.23002
1405.92347	1.23380
1403.99490	1.23775
1402.06634	1.24022
1400.13778	1.24186
1398.20921	1.24297
1396.28065	1.24334
1394.35208	1.24355
1392.42352	1.24308
1390.49495	1.24214
1388.56639	1.24298
1386.63782	1.24675
1384.70926	1.25072
1382.78070	1.25363
1380.85213	1.25511
1378.92357	1.25393
1376.99500	1.24995
1375.06644	1.24273
1373.13787	1.23227
1371.20931	1.22112
1369.28074	1.20918
1367.35218	1.19579
1365.42362	1.18249
1363.49505	1.16982
1361.56649	1.15900
1359.63792	1.15158
1357.70936	1.14688
1355.78079	1.14425
1353.85223	1.14306
1351.92366	1.14275
1349.99510	1.14350
1348.06654	1.14560
1346.13797	1.14829
1344.20941	1.15034
1342.28084	1.15171
1340.35228	1.15386
1338.42371	1.15705
1336.49515	1.16004
1334.56659	1.16298
1332.63802	1.16639
1330.70946	1.17062
1328.78089	1.17526
1326.85233	1.17873
1324.92376	1.18046
1322.99520	1.18180
1321.06663	1.18390
1319.13807	1.18641
1317.20951	1.18854
1315.28094	1.19014
1313.35238	1.19135
1311.42381	1.19179
1309.49525	1.19161
1307.56668	1.19145
1305.63812	1.19127
1303.70955	1.19100
1301.78099	1.19027
1299.85243	1.18850
1297.92386	1.18626
1295.99530	1.18401
1294.06673	1.18137
1292.13817	1.17885
1290.20960	1.17725
1288.28104	1.17663
1286.35247	1.17621
1284.42391	1.17479
1282.49535	1.17245
1280.56678	1.17027
1278.63822	1.16882
1276.70965	1.16822
1274.78109	1.16862
1272.85252	1.17003
1270.92396	1.17259
1268.99539	1.17630
1267.06683	1.18055
1265.13827	1.18468
1263.20970	1.18818
1261.28114	1.19087
1259.35257	1.19330
1257.42401	1.19593
1255.49544	1.19878
1253.56688	1.20135
1251.63831	1.20310
1249.70975	1.20470
1247.78119	1.20661
1245.85262	1.20804
1243.92406	1.20840
1241.99549	1.20773
1240.06693	1.20595
1238.13836	1.20297
1236.20980	1.19915
1234.28123	1.19470
1232.35267	1.18907
1230.42411	1.18187
1228.49554	1.17388
1226.56698	1.16608
1224.63841	1.15889
1222.70985	1.15250
1220.78128	1.14604
1218.85272	1.13900
1216.92415	1.13318
1214.99559	1.13021
1213.06703	1.12969
1211.13846	1.13041
1209.20990	1.13119
1207.28133	1.13119
1205.35277	1.12912
1203.42420	1.12374
1201.49564	1.11568
1199.56708	1.10631
1197.63851	1.09650
1195.70995	1.08705
1193.78138	1.07841
1191.85282	1.07084
1189.92425	1.06451
1187.99569	1.05941
1186.06712	1.05606
1184.13856	1.05518
1182.21000	1.05727
1180.28143	1.06235
1178.35287	1.07030
1176.42430	1.08130
1174.49574	1.09394
1172.56717	1.10637
1170.63861	1.11928
1168.71004	1.13377
1166.78148	1.14944
1164.85292	1.16441
1162.92435	1.17602
1160.99579	1.18273
1159.06722	1.18366
1157.13866	1.17881
1155.21009	1.17033
1153.28153	1.16010
1151.35296	1.14860
1149.42440	1.13631
1147.49584	1.12400
1145.56727	1.11300
1143.63871	1.10534
1141.71014	1.10202
1139.78158	1.10212
1137.85301	1.10456
1135.92445	1.10964
1133.99588	1.11818
1132.06732	1.13084
1130.13876	1.14720
1128.21019	1.16431
1126.28163	1.17937
1124.35306	1.19252
1122.42450	1.20370
1120.49593	1.21192
1118.56737	1.21756
1116.63880	1.22080
1114.71024	1.22091
1112.78168	1.21763
1110.85311	1.21201
1108.92455	1.20669
1106.99598	1.20259
1105.06742	1.19794
1103.13885	1.19276
1101.21029	1.18940
1099.28172	1.18960
1097.35316	1.19327
1095.42460	1.19948
1093.49603	1.20824
1091.56747	1.22001
1089.63890	1.23422
1087.71034	1.24967
1085.78177	1.26579
1083.85321	1.28208
1081.92464	1.29581
1079.99608	1.30278
1078.06752	1.30184
1076.13895	1.29512
1074.21039	1.28463
1072.28182	1.27318
1070.35326	1.26286
1068.42469	1.25243
1066.49613	1.24103
1064.56756	1.23087
1062.63900	1.22307
1060.71044	1.21575
1058.78187	1.20850
1056.85331	1.20336
1054.92474	1.20075
1052.99618	1.19897
1051.06761	1.19635
1049.13905	1.19369
1047.21049	1.19399
1045.28192	1.19745
1043.35336	1.20150
1041.42479	1.20595
1039.49623	1.21117
1037.56766	1.21596
1035.63910	1.21966
1033.71053	1.22118
1031.78197	1.21948
1029.85341	1.21493
1027.92484	1.20786
1025.99628	1.19925
1024.06771	1.19043
1022.13915	1.18173
1020.21058	1.17431
1018.28202	1.16906
1016.35345	1.16366
1014.42489	1.15532
1012.49633	1.14378
1010.56776	1.12950
1008.63920	1.11341
1006.71063	1.09758
1004.78207	1.08324
1002.85350	1.07053
1000.92494	1.06010
998.99637	1.05250
997.06781	1.04736
995.13925	1.04403
993.21068	1.04106
991.28212	1.03643
989.35355	1.02984
987.42499	1.02278
985.49642	1.01651
983.56786	1.01129
981.63929	1.00687
979.71073	1.00339
977.78217	1.00082
975.85360	0.99805
973.92504	0.99330
971.99647	0.98584
970.06791	0.97699
968.13934	0.96813
966.21078	0.95931
964.28221	0.95106
962.35365	0.94558
960.42509	0.94524
958.49652	0.94992
956.56796	0.95624
954.63939	0.96034
952.71083	0.96025
950.78226	0.95586
948.85370	0.94883
946.92513	0.94191
944.99657	0.93728
943.06801	0.93513
941.13944	0.93382
939.21088	0.93192
937.28231	0.92960
935.35375	0.92749
933.42518	0.92534
931.49662	0.92264
929.56805	0.91966
927.63949	0.91673
925.71093	0.91346
923.78236	0.90942
921.85380	0.90493
919.92523	0.90057
917.99667	0.89592
916.06810	0.89062
914.13954	0.88588
912.21098	0.88290
910.28241	0.88215
908.35385	0.88431
906.42528	0.88934
904.49672	0.89596
902.56815	0.90313
900.63959	0.91046
898.71102	0.91758
896.78246	0.92396
894.85390	0.92874
892.92533	0.93113
890.99677	0.93128
889.06820	0.92997
887.13964	0.92780
885.21107	0.92493
883.28251	0.92173
881.35394	0.91854
879.42538	0.91530
877.49682	0.91232
875.56825	0.91007
873.63969	0.90790
871.71112	0.90553
869.78256	0.90416
867.85399	0.90419
865.92543	0.90502
863.99686	0.90702
862.06830	0.91098
860.13974	0.91768
858.21117	0.92727
856.28261	0.93819
854.35404	0.94911
852.42548	0.96005
850.49691	0.97037
848.56835	0.97871
846.63978	0.98437
844.71122	0.98756
842.78266	0.98840
840.85409	0.98683
838.92553	0.98327
836.99696	0.97795
835.06840	0.97091
833.13983	0.96302
831.21127	0.95528
829.28270	0.94799
827.35414	0.94121
825.42558	0.93566
823.49701	0.93221
821.56845	0.93112
819.63988	0.93228
817.71132	0.93537
815.78275	0.94059
813.85419	0.94838
811.92562	0.95783
809.99706	0.96715
808.06850	0.97590
806.13993	0.98446
804.21137	0.99211
802.28280	0.99766
800.35424	1.00068
798.42567	1.00179
796.49711	1.00191
794.56854	1.00094
792.63998	0.99868
790.71142	0.99600
788.78285	0.99345
786.85429	0.99054
784.92572	0.98753
782.99716	0.98570
781.06859	0.98555
779.14003	0.98686
777.21147	0.98949
775.28290	0.99368
773.35434	0.99965
771.42577	1.00710
769.49721	1.01603
767.56864	1.02648
765.64008	1.03771
763.71151	1.04912
761.78295	1.06070
759.85439	1.07195
757.92582	1.08165
755.99726	1.08905
754.06869	1.09461
752.14013	1.09884
750.21156	1.10088
748.28300	1.09966
746.35443	1.09598
744.42587	1.09109
742.49731	1.08478
740.56874	1.07696
738.64018	1.06919
736.71161	1.06301
734.78305	1.05920
732.85448	1.05778
730.92592	1.05790
728.99735	1.05964
727.06879	1.06402
725.14023	1.07044
723.21166	1.07787
721.28310	1.08672
719.35453	1.09663
717.42597	1.10603
715.49740	1.11507
713.56884	1.12423
711.64027	1.13298
709.71171	1.14122
707.78315	1.14830
705.85458	1.15308
703.92602	1.15534
701.99745	1.15499
700.06889	1.15145
698.14032	1.14461
696.21176	1.13573
694.28319	1.12593
692.35463	1.11544
690.42607	1.10530
688.49750	1.09674
686.56894	1.08992
684.64037	1.08520
682.71181	1.08334
680.78324	1.08412
678.85468	1.08654
676.92611	1.09037
674.99755	1.09622
673.06899	1.10394
671.14042	1.11238
669.21186	1.12514
667.28329	1.14365
665.35473	1.15436
663.42616	1.16032
661.49760	1.16668
659.56903	1.17100
657.64047	1.17111
655.71191	1.17017
653.78334	1.17045
651.85478	1.16844
649.92621	1.16164
647.99765	1.15415
646.06908	1.14904
644.14052	1.14411
642.21195	1.13815
640.28339	1.13317
638.35483	1.13024
636.42626	1.12763
634.49770	1.12453
632.56913	1.12338
630.64057	1.12624
628.71200	1.13098
626.78344	1.13604
624.85488	1.14349
622.92631	1.15229
620.99775	1.15828
619.06918	1.16091
617.14062	1.16468
615.21205	1.17255
613.28349	1.17992
611.35492	1.18323
609.42636	1.18409
607.49780	1.18168
605.56923	1.17452
603.64067	1.16635
601.71210	1.15897
599.78354	1.14911
