3997.91406	0.91344
3995.98550	0.91394
3994.05693	0.91573
3992.12837	0.91683
3990.19980	0.91642
3988.27124	0.91531
3986.34268	0.91425
3984.41411	0.91428
3982.48555	0.91548
3980.55698	0.91575
3978.62842	0.91425
3976.69985	0.91299
3974.77129	0.91354
3972.84272	0.91492
3970.91416	0.91568
3968.98560	0.91595
3967.05703	0.91585
3965.12847	0.91443
3963.19990	0.91195
3961.27134	0.91009
3959.34277	0.90939
3957.41421	0.90942
3955.48564	0.90921
3953.55708	0.90776
3951.62852	0.90562
3949.69995	0.90377
3947.77139	0.90247
3945.84282	0.90227
3943.91426	0.90336
3941.98569	0.90396
3940.05713	0.90289
3938.12856	0.90147
3936.20000	0.90071
3934.27144	0.90115
3932.34287	0.90289
3930.41431	0.90395
3928.48574	0.90246
3926.55718	0.90068
3924.62861	0.90121
3922.70005	0.90155
3920.77148	0.90062
3918.84292	0.90160
3916.91436	0.90354
3914.98579	0.90288
3913.05723	0.90071
3911.12866	0.89876
3909.20010	0.89675
3907.27153	0.89518
3905.34297	0.89655
3903.41440	0.90069
3901.48584	0.90340
3899.55728	0.90346
3897.62871	0.90117
3895.70015	0.89828
3893.77158	0.89711
3891.84302	0.89842
3889.91445	0.89867
3887.98589	0.89653
3886.05733	0.89552
3884.12876	0.89536
3882.20020	0.89435
3880.27163	0.89571
3878.34307	0.89669
3876.41450	0.89516
3874.48594	0.89404
3872.55737	0.89442
3870.62881	0.89665
3868.70025	0.89757
3866.77168	0.89498
3864.84312	0.89359
3862.91455	0.89404
3860.98599	0.89265
3859.05742	0.89040
3857.12886	0.88872
3855.20029	0.89086
3853.27173	0.90166
3851.34317	0.90320
3849.41460	0.89581
3847.48604	0.89006
3845.55747	0.88816
3843.62891	0.88908
3841.70034	0.88964
3839.77178	0.88821
3837.84321	0.88681
3835.91465	0.88662
3833.98609	0.88731
3832.05752	0.88733
3830.12896	0.88537
3828.20039	0.88401
3826.27183	0.88414
3824.34326	0.88318
3822.41470	0.88414
3820.48613	0.88868
3818.55757	0.88837
3816.62901	0.88711
3814.70044	0.88678
3812.77188	0.88376
3810.84331	0.87990
3808.91475	0.87750
3806.98618	0.87792
3805.05762	0.87860
3803.12905	0.87957
3801.20049	0.88274
3799.27193	0.88176
3797.34336	0.87862
3795.41480	0.87720
3793.48623	0.87559
3791.55767	0.87411
3789.62910	0.87404
3787.70054	0.87474
3785.77197	0.87619
3783.84341	0.87714
3781.91485	0.87682
3779.98628	0.87774
3778.05772	0.87871
3776.12915	0.87738
3774.20059	0.87599
3772.27202	0.87622
3770.34346	0.87788
3768.41489	0.87824
3766.48633	0.87748
3764.55777	0.87692
3762.62920	0.87527
3760.70064	0.87565
3758.77207	0.87985
3756.84351	0.88082
3754.91494	0.87747
3752.98638	0.87467
3751.05781	0.87745
3749.12925	0.88070
3747.20069	0.87883
3745.27212	0.87916
3743.34356	0.88287
3741.41499	0.88136
3739.48643	0.87650
3737.55786	0.87491
3735.62930	0.88023
3733.70074	0.88480
3731.77217	0.88359
3729.84361	0.88028
3727.91504	0.87754
3725.98648	0.87635
3724.05791	0.87584
3722.12935	0.87583
3720.20078	0.87535
3718.27222	0.87323
3716.34366	0.87097
3714.41509	0.86987
3712.48653	0.87176
3710.55796	0.87666
3708.62940	0.87807
3706.70083	0.87574
3704.77227	0.87279
3702.84370	0.87274
3700.91514	0.87495
3698.98658	0.87480
3697.05801	0.87390
3695.12945	0.87373
3693.20088	0.87361
3691.27232	0.87614
3689.34375	0.88307
3687.41519	0.88531
3685.48662	0.88241
3683.55806	0.87932
3681.62950	0.87737
3679.70093	0.87665
3677.77237	0.87800
3675.84380	0.88474
3673.91524	0.88937
3671.98667	0.88932
3670.05811	0.89536
3668.12954	0.90188
3666.20098	0.90153
3664.27242	0.90042
3662.34385	0.90164
3660.41529	0.90415
3658.48672	0.90733
3656.55816	0.91284
3654.62959	0.91577
3652.70103	0.91358
3650.77246	0.91508
3648.84390	0.92856
3646.91534	0.93775
3644.98677	0.93975
3643.05821	0.94211
3641.12964	0.94632
3639.20108	0.95019
3637.27251	0.95224
3635.34395	0.95432
3633.41538	0.95690
3631.48682	0.95916
3629.55826	0.96830
3627.62969	0.98217
3625.70113	0.98556
3623.77256	0.98549
3621.84400	0.98871
3619.91543	0.99853
3617.98687	1.00911
3616.05830	1.01349
3614.12974	1.01751
3612.20118	1.02267
3610.27261	1.02594
3608.34405	1.03011
3606.41548	1.03674
3604.48692	1.04225
3602.55835	1.04755
3600.62979	1.05471
3598.70123	1.06115
3596.77266	1.06604
3594.84410	1.07217
3592.91553	1.07829
3590.98697	1.08258
3589.05840	1.08921
3587.12984	1.09998
3585.20127	1.10607
3583.27271	1.10750
3581.34415	1.10996
3579.41558	1.11484
3577.48702	1.12106
3575.55845	1.12870
3573.62989	1.13655
3571.70132	1.14142
3569.77276	1.14353
3567.84419	1.14929
3565.91563	1.16056
3563.98707	1.16756
3562.05850	1.17193
3560.12994	1.17744
3558.20137	1.18360
3556.27281	1.18993
3554.34424	1.19628
3552.41568	1.20225
3550.48711	1.20640
3548.55855	1.20927
3546.62999	1.21477
3544.70142	1.22379
3542.77286	1.23099
3540.84429	1.23455
3538.91573	1.23827
3536.98716	1.24463
3535.05860	1.25052
3533.13003	1.25423
3531.20147	1.25933
3529.27291	1.26653
3527.34434	1.27310
3525.41578	1.27918
3523.48721	1.28509
3521.55865	1.29046
3519.63008	1.29780
3517.70152	1.30687
3515.77295	1.31338
3513.84439	1.31891
3511.91583	1.32860
3509.98726	1.34026
3508.05870	1.34640
3506.13013	1.34920
3504.20157	1.35763
3502.27300	1.36892
3500.34444	1.37478
3498.41587	1.37867
3496.48731	1.38503
3494.55875	1.39246
3492.63018	1.39954
3490.70162	1.40750
3488.77305	1.41492
3486.84449	1.42024
3484.91592	1.42638
3482.98736	1.43328
3481.05879	1.43574
3479.13023	1.43357
3477.20167	1.43367
3475.27310	1.43789
3473.34454	1.44320
3471.41597	1.44949
3469.48741	1.45534
3467.55884	1.45715
3465.63028	1.45495
3463.70171	1.45209
3461.77315	1.45362
3459.84459	1.46050
3457.91602	1.46683
3455.98746	1.46971
3454.05889	1.47120
3452.13033	1.47331
3450.20176	1.47680
3448.27320	1.48142
3446.34464	1.48619
3444.41607	1.48944
3442.48751	1.49214
3440.55894	1.49542
3438.63038	1.49690
3436.70181	1.49559
3434.77325	1.49363
3432.84468	1.49374
3430.91612	1.49696
3428.98756	1.50063
3427.05899	1.50096
3425.13043	1.50089
3423.20186	1.50672
3421.27330	1.51345
3419.34473	1.51135
3417.41617	1.50576
3415.48760	1.50512
3413.55904	1.50780
3411.63048	1.51152
3409.70191	1.51455
3407.77335	1.51394
3405.84478	1.51360
3403.91622	1.51538
3401.98765	1.51364
3400.05909	1.50937
3398.13052	1.50874
3396.20196	1.51166
3394.27340	1.51363
3392.34483	1.51422
3390.41627	1.51680
3388.48770	1.52199
3386.55914	1.52740
3384.63057	1.53087
3382.70201	1.52985
3380.77344	1.52486
3378.84488	1.52257
3376.91632	1.52536
3374.98775	1.52798
3373.05919	1.52822
3371.13062	1.52861
3369.20206	1.53095
3367.27349	1.53362
3365.34493	1.53398
3363.41636	1.53294
3361.48780	1.53346
3359.55924	1.53796
3357.63067	1.54468
3355.70211	1.54726
3353.77354	1.54587
3351.84498	1.54667
3349.91641	1.54931
3347.98785	1.55086
3346.05928	1.55012
3344.13072	1.54698
3342.20216	1.54642
3340.27359	1.55186
3338.34503	1.56027
3336.41646	1.56738
3334.48790	1.57015
3332.55933	1.56904
3330.63077	1.56878
3328.70220	1.57261
3326.77364	1.57696
3324.84508	1.57954
3322.91651	1.58263
3320.98795	1.58508
3319.05938	1.58668
3317.13082	1.58911
3315.20225	1.59186
3313.27369	1.59485
3311.34513	1.59708
3309.41656	1.59771
3307.48800	1.59739
3305.55943	1.59491
3303.63087	1.59111
3301.70230	1.59139
3299.77374	1.59733
3297.84517	1.60289
3295.91661	1.60450
3293.98805	1.60639
3292.05948	1.60934
3290.13092	1.60880
3288.20235	1.60534
3286.27379	1.60128
3284.34522	1.59664
3282.41666	1.59381
3280.48809	1.59568
3278.55953	1.60089
3276.63097	1.60465
3274.70240	1.60413
3272.77384	1.60066
3270.84527	1.59581
3268.91671	1.59083
3266.98814	1.58693
3265.05958	1.58420
3263.13101	1.58379
3261.20245	1.58596
3259.27389	1.58473
3257.34532	1.57822
3255.41676	1.57309
3253.48819	1.56994
3251.55963	1.56533
3249.63106	1.56062
3247.70250	1.55739
3245.77393	1.55534
3243.84537	1.55347
3241.91681	1.55068
3239.98824	1.54673
3238.05968	1.54230
3236.13111	1.53758
3234.20255	1.53158
3232.27398	1.52476
3230.34542	1.51919
3228.41685	1.51646
3226.48829	1.51588
3224.55973	1.51495
3222.63116	1.51277
3220.70260	1.51115
3218.77403	1.51073
3216.84547	1.50864
3214.91690	1.50444
3212.98834	1.50210
3211.05977	1.50131
3209.13121	1.49816
3207.20265	1.49342
3205.27408	1.48877
3203.34552	1.48381
3201.41695	1.48092
3199.48839	1.48041
3197.55982	1.47760
3195.63126	1.47191
3193.70269	1.46667
3191.77413	1.46323
3189.84557	1.46157
3187.91700	1.46102
3185.98844	1.46075
3184.05987	1.45962
3182.13131	1.45571
3180.20274	1.44927
3178.27418	1.44344
3176.34562	1.43953
3174.41705	1.43696
3172.48849	1.43581
3170.55992	1.43481
3168.63136	1.43207
3166.70279	1.42792
3164.77423	1.42401
3162.84566	1.42127
3160.91710	1.41938
3158.98854	1.41708
3157.05997	1.41331
3155.13141	1.41027
3153.20284	1.41050
3151.27428	1.41187
3149.34571	1.41111
3147.41715	1.40868
3145.48858	1.40698
3143.56002	1.40573
3141.63146	1.40330
3139.70289	1.40080
3137.77433	1.39944
3135.84576	1.39772
3133.91720	1.39473
3131.98863	1.39270
3130.06007	1.39230
3128.13150	1.39006
3126.20294	1.38584
3124.27438	1.38384
3122.34581	1.38407
3120.41725	1.38407
3118.48868	1.38417
3116.56012	1.38420
3114.63155	1.38337
3112.70299	1.38155
3110.77442	1.37947
3108.84586	1.37914
3106.91730	1.38029
3104.98873	1.38121
3103.06017	1.38065
3101.13160	1.37805
3099.20304	1.37545
3097.27447	1.37401
3095.34591	1.37310
3093.41734	1.37302
3091.48878	1.37376
3089.56022	1.37439
3087.63165	1.37375
3085.70309	1.37140
3083.77452	1.36883
3081.84596	1.36708
3079.91739	1.36520
3077.98883	1.36371
3076.06026	1.36357
3074.13170	1.36190
3072.20314	1.35759
3070.27457	1.35394
3068.34601	1.35141
3066.41744	1.34875
3064.48888	1.34657
3062.56031	1.34376
3060.63175	1.33902
3058.70318	1.33361
3056.77462	1.32950
3054.84606	1.32763
3052.91749	1.32653
3050.98893	1.32344
3049.06036	1.31777
3047.13180	1.31127
3045.20323	1.30607
3043.27467	1.30318
3041.34610	1.30195
3039.41754	1.30041
3037.48898	1.29764
3035.56041	1.29497
3033.63185	1.29322
3031.70328	1.29157
3029.77472	1.28943
3027.84615	1.28642
3025.91759	1.28243
3023.98903	1.27931
3022.06046	1.27852
3020.13190	1.27815
3018.20333	1.27619
3016.27477	1.27350
3014.34620	1.27110
3012.41764	1.26887
3010.48907	1.26716
3008.56051	1.26509
3006.63195	1.26165
3004.70338	1.25873
3002.77482	1.25708
3000.84625	1.25523
2998.91769	1.25409
2996.98912	1.25445
2995.06056	1.25473
2993.13199	1.25536
2991.20343	1.25764
2989.27487	1.26098
2987.34630	1.26551
2985.41774	1.27121
2983.48917	1.27559
2981.56061	1.27807
2979.63204	1.28205
2977.70348	1.28899
2975.77491	1.29657
2973.84635	1.30374
2971.91779	1.31102
2969.98922	1.31786
2968.06066	1.32346
2966.13209	1.32785
2964.20353	1.33110
2962.27496	1.33359
2960.34640	1.33626
2958.41783	1.33744
2956.48927	1.33458
2954.56071	1.32887
2952.63214	1.32299
2950.70358	1.31939
2948.77501	1.31902
2946.84645	1.32000
2944.91788	1.32114
2942.98932	1.32362
2941.06075	1.32818
2939.13219	1.33388
2937.20363	1.33995
2935.27506	1.34769
2933.34650	1.35730
2931.41793	1.36632
2929.48937	1.37357
2927.56080	1.37844
2925.63224	1.38089
2923.70367	1.38320
2921.77511	1.38522
2919.84655	1.38488
2917.91798	1.38203
2915.98942	1.37513
2914.06085	1.36248
2912.13229	1.34737
2910.20372	1.33437
2908.27516	1.32401
2906.34659	1.31481
2904.41803	1.30649
2902.48947	1.30027
2900.56090	1.29620
2898.63234	1.29294
2896.70377	1.29066
2894.77521	1.28927
2892.84664	1.28728
2890.91808	1.28377
2888.98952	1.28006
2887.06095	1.27835
2885.13239	1.27805
2883.20382	1.27704
2881.27526	1.27561
2879.34669	1.27526
2877.41813	1.27522
2875.48956	1.27346
2873.56100	1.26983
2871.63244	1.26500
2869.70387	1.25923
2867.77531	1.25290
2865.84674	1.24627
2863.91818	1.24057
2861.98961	1.23772
2860.06105	1.23781
2858.13248	1.23949
2856.20392	1.24220
2854.27536	1.24633
2852.34679	1.25197
2850.41823	1.25544
2848.48966	1.24894
2846.56110	1.23138
2844.63253	1.21094
2842.70397	1.19365
2840.77540	1.18045
2838.84684	1.17083
2836.91828	1.16342
2834.98971	1.15685
2833.06115	1.15118
2831.13258	1.14696
2829.20402	1.14353
2827.27545	1.14016
2825.34689	1.13676
2823.41832	1.13253
2821.48976	1.12786
2819.56120	1.12492
2817.63263	1.12274
2815.70407	1.11872
2813.77550	1.11397
2811.84694	1.11035
2809.91837	1.10735
2807.98981	1.10453
2806.06124	1.10180
2804.13268	1.09851
2802.20412	1.09495
2800.27555	1.09212
2798.34699	1.09006
2796.41842	1.08775
2794.48986	1.08460
2792.56129	1.08128
2790.63273	1.07794
2788.70416	1.07395
2786.77560	1.07000
2784.84704	1.06725
2782.91847	1.06538
2780.98991	1.06351
2779.06134	1.06127
2777.13278	1.05870
2775.20421	1.05640
2773.27565	1.05493
2771.34708	1.05365
2769.41852	1.05188
2767.48996	1.04999
2765.56139	1.04853
2763.63283	1.04682
2761.70426	1.04422
2759.77570	1.04197
2757.84713	1.04088
2755.91857	1.03987
2753.99001	1.03835
2752.06144	1.03642
2750.13288	1.03363
2748.20431	1.03002
2746.27575	1.02693
2744.34718	1.02548
2742.41862	1.02491
2740.49005	1.02393
2738.56149	1.02237
2736.63293	1.02001
2734.70436	1.01700
2732.77580	1.01440
2730.84723	1.01270
2728.91867	1.01135
2726.99010	1.00968
2725.06154	1.00741
2723.13297	1.00493
2721.20441	1.00296
2719.27585	1.00140
2717.34728	0.99957
2715.41872	0.99766
2713.49015	0.99591
2711.56159	0.99456
2709.63302	0.99401
2707.70446	0.99326
2705.77589	0.99137
2703.84733	0.98907
2701.91877	0.98695
2699.99020	0.98497
2698.06164	0.98359
2696.13307	0.98283
2694.20451	0.98198
2692.27594	0.98076
2690.34738	0.97940
2688.41881	0.97811
2686.49025	0.97680
2684.56169	0.97532
2682.63312	0.97348
2680.70456	0.97126
2678.77599	0.96908
2676.84743	0.96695
2674.91886	0.96475
2672.99030	0.96275
2671.06173	0.96125
2669.13317	0.96014
2667.20461	0.95892
2665.27604	0.95717
2663.34748	0.95512
2661.41891	0.95355
2659.49035	0.95232
2657.56178	0.95055
2655.63322	0.94868
2653.70465	0.94773
2651.77609	0.94742
2649.84753	0.94684
2647.91896	0.94597
2645.99040	0.94537
2644.06183	0.94499
2642.13327	0.94418
2640.20470	0.94267
2638.27614	0.94125
2636.34757	0.94056
2634.41901	0.94013
2632.49045	0.93956
2630.56188	0.93860
2628.63332	0.93728
2626.70475	0.93611
2624.77619	0.93506
2622.84762	0.93376
2620.91906	0.93204
2618.99049	0.92987
2617.06193	0.92792
2615.13337	0.92655
2613.20480	0.92511
2611.27624	0.92335
2609.34767	0.92160
2607.41911	0.92009
2605.49054	0.91889
2603.56198	0.91787
2601.63342	0.91697
2599.70485	0.91608
2597.77629	0.91504
2595.84772	0.91446
2593.91916	0.91476
2591.99059	0.91508
2590.06203	0.91482
2588.13346	0.91447
2586.20490	0.91428
2584.27634	0.91398
2582.34777	0.91356
2580.41921	0.91312
2578.49064	0.91275
2576.56208	0.91235
2574.63351	0.91154
2572.70495	0.91047
2570.77638	0.90955
2568.84782	0.90835
2566.91926	0.90640
2564.99069	0.90447
2563.06213	0.90316
2561.13356	0.90184
2559.20500	0.89995
2557.27643	0.89765
2555.34787	0.89534
2553.41930	0.89316
2551.49074	0.89094
2549.56218	0.88866
2547.63361	0.88642
2545.70505	0.88428
2543.77648	0.88247
2541.84792	0.88131
2539.91935	0.88060
2537.99079	0.87957
2536.06222	0.87820
2534.13366	0.87728
2532.20510	0.87699
2530.27653	0.87683
2528.34797	0.87672
2526.41940	0.87684
2524.49084	0.87687
2522.56227	0.87658
2520.63371	0.87628
2518.70514	0.87610
2516.77658	0.87593
2514.84802	0.87585
2512.91945	0.87577
2510.99089	0.87553
2509.06232	0.87511
2507.13376	0.87438
2505.20519	0.87337
2503.27663	0.87245
2501.34806	0.87163
2499.41950	0.87062
2497.49094	0.86972
2495.56237	0.86919
2493.63381	0.86850
2491.70524	0.86735
2489.77668	0.86615
2487.84811	0.86527
2485.91955	0.86479
2483.99098	0.86438
2482.06242	0.86362
2480.13386	0.86259
2478.20529	0.86182
2476.27673	0.86158
2474.34816	0.86142
2472.41960	0.86111
2470.49103	0.86115
2468.56247	0.86157
2466.63391	0.86165
2464.70534	0.86142
2462.77678	0.86117
2460.84821	0.86059
2458.91965	0.85982
2456.99108	0.85918
2455.06252	0.85845
2453.13395	0.85747
2451.20539	0.85644
2449.27683	0.85558
2447.34826	0.85449
2445.41970	0.85276
2443.49113	0.85084
2441.56257	0.84896
2439.63400	0.84674
2437.70544	0.84435
2435.77687	0.84212
2433.84831	0.83991
2431.91975	0.83754
2429.99118	0.83515
2428.06262	0.83292
2426.13405	0.83095
2424.20549	0.82939
2422.27692	0.82814
2420.34836	0.82712
2418.41979	0.82644
2416.49123	0.82595
2414.56267	0.82554
2412.63410	0.82524
2410.70554	0.82488
2408.77697	0.82455
2406.84841	0.82467
2404.91984	0.82517
2402.99128	0.82546
2401.06271	0.82554
2399.13415	0.82575
2397.20559	0.82583
2395.27702	0.82563
2393.34846	0.82555
2391.41989	0.82549
2389.49133	0.82494
2387.56276	0.82373
2385.63420	0.82173
2383.70563	0.81887
2381.77707	0.81571
2379.84851	0.81304
2377.91994	0.81078
2375.99138	0.80782
2374.06281	0.80419
2372.13425	0.80145
2370.20568	0.79921
2368.27712	0.79540
2366.34855	0.79139
2364.41999	0.78994
2362.49143	0.78960
2360.56286	0.78832
2358.63430	0.78866
2356.70573	0.79256
2354.77717	0.79750
2352.84860	0.80132
2350.92004	0.80323
2348.99147	0.80288
2347.06291	0.80063
2345.13435	0.79784
2343.20578	0.79724
2341.27722	0.79976
2339.34865	0.80320
2337.42009	0.80538
2335.49152	0.80637
2333.56296	0.80687
2331.63440	0.80690
2329.70583	0.80666
2327.77727	0.80605
2325.84870	0.80537
2323.92014	0.80533
2321.99157	0.80556
2320.06301	0.80527
2318.13444	0.80434
2316.20588	0.80304
2314.27732	0.80191
2312.34875	0.80128
2310.42019	0.80046
2308.49162	0.79916
2306.56306	0.79807
2304.63449	0.79750
2302.70593	0.79741
2300.77736	0.79759
2298.84880	0.79747
2296.92024	0.79719
2294.99167	0.79743
2293.06311	0.79806
2291.13454	0.79861
2289.20598	0.79899
2287.27741	0.79928
2285.34885	0.79950
2283.42028	0.79945
2281.49172	0.79903
2279.56316	0.79855
2277.63459	0.79796
2275.70603	0.79700
2273.77746	0.79592
2271.84890	0.79489
2269.92033	0.79360
2267.99177	0.79193
2266.06320	0.79022
2264.13464	0.78852
2262.20608	0.78658
2260.27751	0.78465
2258.34895	0.78297
2256.42038	0.78128
2254.49182	0.77940
2252.56325	0.77755
2250.63469	0.77590
2248.70612	0.77456
2246.77756	0.77369
2244.84900	0.77314
2242.92043	0.77248
2240.99187	0.77190
2239.06330	0.77169
2237.13474	0.77160
2235.20617	0.77153
2233.27761	0.77172
2231.34904	0.77242
2229.42048	0.77345
2227.49192	0.77421
2225.56335	0.77482
2223.63479	0.77584
2221.70622	0.77709
2219.77766	0.77805
2217.84909	0.77865
2215.92053	0.77911
2213.99196	0.77949
2212.06340	0.77984
2210.13484	0.78015
2208.20627	0.78022
2206.27771	0.78007
2204.34914	0.77986
2202.42058	0.77949
2200.49201	0.77883
2198.56345	0.77818
2196.63488	0.77777
2194.70632	0.77728
2192.77776	0.77653
2190.84919	0.77577
2188.92063	0.77497
2186.99206	0.77393
2185.06350	0.77275
2183.13493	0.77166
2181.20637	0.77094
2179.27781	0.77032
2177.34924	0.76933
2175.42068	0.76815
2173.49211	0.76699
2171.56355	0.76587
2169.63498	0.76499
2167.70642	0.76434
2165.77785	0.76351
2163.84929	0.76252
2161.92073	0.76156
2159.99216	0.76053
2158.06360	0.75950
2156.13503	0.75856
2154.20647	0.75770
2152.27790	0.75712
2150.34934	0.75672
2148.42077	0.75621
2146.49221	0.75557
2144.56365	0.75506
2142.63508	0.75463
2140.70652	0.75414
2138.77795	0.75367
2136.84939	0.75325
2134.92082	0.75280
2132.99226	0.75238
2131.06369	0.75196
2129.13513	0.75150
2127.20657	0.75097
2125.27800	0.75014
2123.34944	0.74906
2121.42087	0.74798
2119.49231	0.74688
2117.56374	0.74563
2115.63518	0.74433
2113.70661	0.74322
2111.77805	0.74233
2109.84949	0.74145
2107.92092	0.74049
2105.99236	0.73960
2104.06379	0.73879
2102.13523	0.73796
2100.20666	0.73698
2098.27810	0.73607
2096.34953	0.73542
2094.42097	0.73480
2092.49241	0.73410
2090.56384	0.73364
2088.63528	0.73349
2086.70671	0.73325
2084.77815	0.73275
2082.84958	0.73233
2080.92102	0.73232
2078.99245	0.73253
2077.06389	0.73271
2075.13533	0.73260
2073.20676	0.73212
2071.27820	0.73153
2069.34963	0.73104
2067.42107	0.73054
2065.49250	0.72984
2063.56394	0.72883
2061.63537	0.72754
2059.70681	0.72614
2057.77825	0.72470
2055.84968	0.72315
2053.92112	0.72150
2051.99255	0.71981
2050.06399	0.71803
2048.13542	0.71625
2046.20686	0.71460
2044.27830	0.71312
2042.34973	0.71180
2040.42117	0.71060
2038.49260	0.70943
2036.56404	0.70843
2034.63547	0.70782
2032.70691	0.70753
2030.77834	0.70743
2028.84978	0.70749
2026.92122	0.70774
2024.99265	0.70812
2023.06409	0.70856
2021.13552	0.70914
2019.20696	0.71012
2017.27839	0.71134
2015.34983	0.71214
2013.42126	0.71244
2011.49270	0.71264
2009.56414	0.71278
2007.63557	0.71283
2005.70701	0.71282
2003.77844	0.71261
2001.84988	0.71209
1999.92131	0.71127
1997.99275	0.71006
1996.06418	0.70850
1994.13562	0.70706
1992.20706	0.70609
1990.27849	0.70509
1988.34993	0.70351
1986.42136	0.70152
1984.49280	0.69958
1982.56423	0.69786
1980.63567	0.69620
1978.70710	0.69455
1976.77854	0.69303
1974.84998	0.69174
1972.92141	0.69074
1970.99285	0.68989
1969.06428	0.68921
1967.13572	0.68890
1965.20715	0.68852
1963.27859	0.68770
1961.35002	0.68669
1959.42146	0.68553
1957.49290	0.68438
1955.56433	0.68356
1953.63577	0.68286
1951.70720	0.68184
1949.77864	0.68068
1947.85007	0.67958
1945.92151	0.67832
1943.99294	0.67704
1942.06438	0.67605
1940.13582	0.67475
1938.20725	0.67283
1936.27869	0.67082
1934.35012	0.66916
1932.42156	0.66800
1930.49299	0.66728
1928.56443	0.66676
1926.63586	0.66616
1924.70730	0.66598
1922.77874	0.66653
1920.85017	0.66704
1918.92161	0.66784
1916.99304	0.66942
1915.06448	0.67060
1913.13591	0.67133
1911.20735	0.67265
1909.27878	0.67482
1907.35022	0.67691
1905.42166	0.67835
1903.49309	0.67954
1901.56453	0.68069
1899.63596	0.68183
1897.70740	0.68312
1895.77883	0.68470
1893.85027	0.68590
1891.92171	0.68652
1889.99314	0.68756
1888.06458	0.68856
1886.13601	0.68863
1884.20745	0.68831
1882.27888	0.68775
1880.35032	0.68687
1878.42175	0.68594
1876.49319	0.68516
1874.56463	0.68434
1872.63606	0.68314
1870.70750	0.68234
1868.77893	0.68301
1866.85037	0.68325
1864.92180	0.68174
1862.99324	0.68019
1861.06467	0.67951
1859.13611	0.67925
1857.20755	0.67888
1855.27898	0.67850
1853.35042	0.67822
1851.42185	0.67794
1849.49329	0.67771
1847.56472	0.67755
1845.63616	0.67795
1843.70759	0.67902
1841.77903	0.67902
1839.85047	0.67832
1837.92190	0.67837
1835.99334	0.67866
1834.06477	0.67823
1832.13621	0.67786
1830.20764	0.67865
1828.27908	0.67934
1826.35051	0.67938
1824.42195	0.68000
1822.49339	0.68041
1820.56482	0.68035
1818.63626	0.68081
1816.70769	0.68165
1814.77913	0.68223
1812.85056	0.68293
1810.92200	0.68441
1808.99343	0.68595
1807.06487	0.68690
1805.13631	0.68771
1803.20774	0.68903
1801.27918	0.69161
1799.35061	0.69440
1797.42205	0.69590
1795.49348	0.69685
1793.56492	0.69924
1791.63635	0.70389
1789.70779	0.70690
1787.77923	0.70806
1785.85066	0.71025
1783.92210	0.71375
1781.99353	0.71766
1780.06497	0.72199
1778.13640	0.72569
1776.20784	0.72840
1774.27927	0.73209
1772.35071	0.73895
1770.42215	0.74581
1768.49358	0.75019
1766.56502	0.75361
1764.63645	0.75630
1762.70789	0.75995
1760.77932	0.76473
1758.85076	0.76849
1756.92220	0.77231
1754.99363	0.77561
1753.06507	0.77802
1751.13650	0.78240
1749.20794	0.78917
1747.27937	0.79432
1745.35081	0.79748
1743.42224	0.80032
1741.49368	0.80395
1739.56512	0.80819
1737.63655	0.81082
1735.70799	0.81343
1733.77942	0.82087
1731.85086	0.82815
1729.92229	0.83274
1727.99373	0.83811
1726.06516	0.84464
1724.13660	0.85359
1722.20804	0.86324
1720.27947	0.87170
1718.35091	0.88483
1716.42234	0.90769
1714.49378	0.92576
1712.56521	0.93741
1710.63665	0.94833
1708.70808	0.96055
1706.77952	0.97825
1704.85096	1.00071
1702.92239	1.01944
1700.99383	1.04434
1699.06526	1.08354
1697.13670	1.11913
1695.20813	1.15277
1693.27957	1.17718
1691.35100	1.19625
1689.42244	1.21928
1687.49388	1.23922
1685.56531	1.25813
1683.63675	1.28937
1681.70818	1.30997
1679.77962	1.31780
1677.85105	1.32562
1675.92249	1.33810
1673.99392	1.35107
1672.06536	1.35835
1670.13680	1.36523
1668.20823	1.37366
1666.27967	1.37742
1664.35110	1.38024
1662.42254	1.38664
1660.49397	1.39239
1658.56541	1.39450
1656.63684	1.39487
1654.70828	1.39741
1652.77972	1.40284
1650.85115	1.40006
1648.92259	1.39548
1646.99402	1.39361
1645.06546	1.39204
1643.13689	1.38904
1641.20833	1.38671
1639.27976	1.38437
1637.35120	1.38175
1635.42264	1.38009
1633.49407	1.37670
1631.56551	1.37125
1629.63694	1.36545
1627.70838	1.36065
1625.77981	1.35563
1623.85125	1.34760
1621.92269	1.33766
1619.99412	1.32879
1618.06556	1.31830
1616.13699	1.30321
1614.20843	1.28902
1612.27986	1.27622
1610.35130	1.26270
1608.42273	1.24898
1606.49417	1.23679
1604.56561	1.22742
1602.63704	1.22083
1600.70848	1.21617
1598.77991	1.21286
1596.85135	1.21148
1594.92278	1.21223
1592.99422	1.21450
1591.06565	1.21847
1589.13709	1.22439
1587.20853	1.23210
1585.27996	1.24121
1583.35140	1.25117
1581.42283	1.26092
1579.49427	1.26954
1577.56570	1.28058
1575.63714	1.29660
1573.70857	1.30556
1571.78001	1.30940
1569.85145	1.31766
1567.92288	1.32806
1565.99432	1.33416
1564.06575	1.33791
1562.13719	1.33910
1560.20862	1.33932
1558.28006	1.34485
1556.35149	1.34887
1554.42293	1.34939
1552.49437	1.34818
1550.56580	1.34566
1548.63724	1.34227
1546.70867	1.33830
1544.78011	1.33354
1542.85154	1.32782
1540.92298	1.32269
1538.99441	1.31775
1537.06585	1.31203
1535.13729	1.30530
1533.20872	1.29793
1531.28016	1.29217
1529.35159	1.28827
1527.42303	1.28540
1525.49446	1.28240
1523.56590	1.27925
1521.63733	1.27744
1519.70877	1.27585
1517.78021	1.27126
1515.85164	1.26273
1513.92308	1.25218
1511.99451	1.24133
1510.06595	1.23171
1508.13738	1.22190
1506.20882	1.20404
1504.28025	1.18907
1502.35169	1.17855
1500.42313	1.16849
1498.49456	1.15762
1496.56600	1.14518
1494.63743	1.13369
1492.70887	1.12457
1490.78030	1.11546
1488.85174	1.10513
1486.92317	1.09675
1484.99461	1.09108
1483.06605	1.08791
1481.13748	1.08753
1479.20892	1.08951
1477.28035	1.09406
1475.35179	1.10221
1473.42322	1.11565
1471.49466	1.13058
1469.56610	1.13855
1467.63753	1.14294
1465.70897	1.14933
1463.78040	1.15814
1461.85184	1.16385
1459.92327	1.16696
1457.99471	1.17394
1456.06614	1.18395
1454.13758	1.18628
1452.20902	1.18602
1450.28045	1.18675
1448.35189	1.18863
1446.42332	1.18929
1444.49476	1.18759
1442.56619	1.18529
1440.63763	1.18343
1438.70906	1.18211
1436.78050	1.18142
1434.85194	1.17933
1432.92337	1.17567
1430.99481	1.17240
1429.06624	1.17002
1427.13768	1.16825
1425.20911	1.16760
1423.28055	1.16794
1421.35198	1.16842
1419.42342	1.17026
1417.49486	1.17208
1415.56629	1.17072
1413.63773	1.16825
1411.70916	1.16640
1409.78060	1.16537
1407.85203	1.16482
1405.92347	1.16490
1403.99490	1.16530
1402.06634	1.16555
1400.13778	1.16645
1398.20921	1.16777
1396.28065	1.16850
1394.35208	1.16863
1392.42352	1.16818
1390.49495	1.16870
1388.56639	1.17282
1386.63782	1.18041
1384.70926	1.18697
1382.78070	1.19164
1380.85213	1.19511
1378.92357	1.19627
1376.99500	1.19466
1375.06644	1.19075
1373.13787	1.18489
1371.20931	1.17795
1369.28074	1.17013
1367.35218	1.16162
1365.42362	1.15387
1363.49505	1.14781
1361.56649	1.14374
1359.63792	1.14110
1357.70936	1.13956
1355.78079	1.13931
1353.85223	1.13960
1351.92366	1.13938
1349.99510	1.13881
1348.06654	1.13841
1346.13797	1.13825
1344.20941	1.13801
1342.28084	1.13769
1340.35228	1.13851
1338.42371	1.14112
1336.49515	1.14455
1334.56659	1.14842
1332.63802	1.15289
1330.70946	1.15782
1328.78089	1.16247
1326.85233	1.16611
1324.92376	1.16903
1322.99520	1.17194
1321.06663	1.17517
1319.13807	1.17886
1317.20951	1.18269
1315.28094	1.18595
1313.35238	1.18859
1311.42381	1.19076
1309.49525	1.19231
1307.56668	1.19326
1305.63812	1.19377
1303.70955	1.19394
1301.78099	1.19390
1299.85243	1.19321
1297.92386	1.19119
1295.99530	1.18842
1294.06673	1.18582
1292.13817	1.18375
1290.20960	1.18246
1288.28104	1.18169
1286.35247	1.18093
1284.42391	1.17971
1282.49535	1.17809
1280.56678	1.17675
1278.63822	1.17580
1276.70965	1.17482
1274.78109	1.17409
1272.85252	1.17433
1270.92396	1.17550
1268.99539	1.17718
1267.06683	1.17931
1265.13827	1.18126
1263.20970	1.18230
1261.28114	1.18284
1259.35257	1.18353
1257.42401	1.18453
1255.49544	1.18574
1253.56688	1.18688
1251.63831	1.18799
1249.70975	1.18979
1247.78119	1.19246
1245.85262	1.19528
1243.92406	1.19755
1241.99549	1.19895
1240.06693	1.19987
1238.13836	1.20077
1236.20980	1.20127
1234.28123	1.20135
1232.35267	1.20151
1230.42411	1.20076
1228.49554	1.19765
1226.56698	1.19330
1224.63841	1.18910
1222.70985	1.18443
1220.78128	1.17917
1218.85272	1.17407
1216.92415	1.16941
1214.99559	1.16518
1213.06703	1.16169
1211.13846	1.15985
1209.20990	1.15984
1207.28133	1.15970
1205.35277	1.15735
1203.42420	1.15254
1201.49564	1.14609
1199.56708	1.13900
1197.63851	1.13230
1195.70995	1.12608
1193.78138	1.11977
1191.85282	1.11364
1189.92425	1.10842
1187.99569	1.10452
1186.06712	1.10199
1184.13856	1.10110
1182.21000	1.10219
1180.28143	1.10489
1178.35287	1.10853
1176.42430	1.11307
1174.49574	1.11867
1172.56717	1.12478
1170.63861	1.13080
1168.71004	1.13727
1166.78148	1.14524
1164.85292	1.15434
1162.92435	1.16301
1160.99579	1.16992
1159.06722	1.17401
1157.13866	1.17426
1155.21009	1.16999
1153.28153	1.16182
1151.35296	1.15178
1149.42440	1.14074
1147.49584	1.12806
1145.56727	1.11515
1143.63871	1.10466
1141.71014	1.09694
1139.78158	1.09214
1137.85301	1.09121
1135.92445	1.09353
1133.99588	1.09797
1132.06732	1.10436
1130.13876	1.11313
1128.21019	1.12440
1126.28163	1.13726
1124.35306	1.15072
1122.42450	1.16350
1120.49593	1.17488
1118.56737	1.18498
1116.63880	1.19282
1114.71024	1.19795
1112.78168	1.20170
1110.85311	1.20514
1108.92455	1.20751
1106.99598	1.20815
1105.06742	1.20793
1103.13885	1.20682
1101.21029	1.20419
1099.28172	1.20151
1097.35316	1.20099
1095.42460	1.20235
1093.49603	1.20331
1091.56747	1.20430
1089.63890	1.20738
1087.71034	1.21167
1085.78177	1.21614
1083.85321	1.22203
1081.92464	1.22849
1079.99608	1.23264
1078.06752	1.23432
1076.13895	1.23538
1074.21039	1.23549
1072.28182	1.23279
1070.35326	1.22833
1068.42469	1.22489
1066.49613	1.22283
1064.56756	1.22152
1062.63900	1.22105
1060.71044	1.22052
1058.78187	1.21896
1056.85331	1.21791
1054.92474	1.21881
1052.99618	1.21992
1051.06761	1.21976
1049.13905	1.21960
1047.21049	1.22085
1045.28192	1.22363
1043.35336	1.22739
1041.42479	1.23127
1039.49623	1.23422
1037.56766	1.23599
1035.63910	1.23728
1033.71053	1.23789
1031.78197	1.23670
1029.85341	1.23315
1027.92484	1.22712
1025.99628	1.21917
1024.06771	1.21040
1022.13915	1.20190
1020.21058	1.19356
1018.28202	1.18437
1016.35345	1.17471
1014.42489	1.16517
1012.49633	1.15455
1010.56776	1.14174
1008.63920	1.12743
1006.71063	1.11303
1004.78207	1.09963
1002.85350	1.08838
1000.92494	1.07972
998.99637	1.07350
997.06781	1.07049
995.13925	1.07044
993.21068	1.07112
991.28212	1.07164
989.35355	1.07232
987.42499	1.07239
985.49642	1.07150
983.56786	1.06984
981.63929	1.06749
979.71073	1.06541
977.78217	1.06364
975.85360	1.06022
973.92504	1.05343
971.99647	1.04340
970.06791	1.03042
968.13934	1.01478
966.21078	0.99856
964.28221	0.98365
962.35365	0.97089
960.42509	0.96170
958.49652	0.95694
956.56796	0.95490
954.63939	0.95194
952.71083	0.94525
950.78226	0.93471
948.85370	0.92209
946.92513	0.90980
944.99657	0.90018
943.06801	0.89421
941.13944	0.89098
939.21088	0.88938
937.28231	0.88934
935.35375	0.89061
933.42518	0.89218
931.49662	0.89374
929.56805	0.89551
927.63949	0.89720
925.71093	0.89851
923.78236	0.89894
921.85380	0.89758
919.92523	0.89389
917.99667	0.88778
916.06810	0.87997
914.13954	0.87150
912.21098	0.86325
910.28241	0.85584
908.35385	0.84939
906.42528	0.84414
904.49672	0.84008
902.56815	0.83659
900.63959	0.83305
898.71102	0.82925
896.78246	0.82484
894.85390	0.81980
892.92533	0.81502
890.99677	0.81125
889.06820	0.80857
887.13964	0.80712
885.21107	0.80750
883.28251	0.81030
881.35394	0.81600
879.42538	0.82475
877.49682	0.83607
875.56825	0.84930
873.63969	0.86419
871.71112	0.88048
869.78256	0.89774
867.85399	0.91614
865.92543	0.93574
863.99686	0.95555
862.06830	0.97407
860.13974	0.99050
858.21117	1.00493
856.28261	1.01704
854.35404	1.02581
852.42548	1.03134
850.49691	1.03437
848.56835	1.03468
846.63978	1.03218
844.71122	1.02790
842.78266	1.02271
840.85409	1.01665
838.92553	1.01026
836.99696	1.00438
835.06840	0.99890
833.13983	0.99389
831.21127	0.98995
829.28270	0.98688
827.35414	0.98421
825.42558	0.98293
823.49701	0.98411
821.56845	0.98676
819.63988	0.98935
817.71132	0.99242
815.78275	0.99629
813.85419	1.00002
811.92562	1.00383
809.99706	1.00768
808.06850	1.01014
806.13993	1.01099
804.21137	1.01104
802.28280	1.01057
800.35424	1.00942
798.42567	1.00701
796.49711	1.00355
794.56854	0.99997
792.63998	0.99620
790.71142	0.99220
788.78285	0.98848
786.85429	0.98563
784.92572	0.98363
782.99716	0.98172
781.06859	0.98029
779.14003	0.98012
777.21147	0.98092
775.28290	0.98201
773.35434	0.98343
771.42577	0.98587
769.49721	0.98871
767.56864	0.99125
765.64008	0.99476
763.71151	1.00034
761.78295	1.00769
759.85439	1.01619
757.92582	1.02515
755.99726	1.03397
754.06869	1.04312
752.14013	1.05375
750.21156	1.06514
748.28300	1.07580
746.35443	1.08636
744.42587	1.09758
742.49731	1.10826
740.56874	1.11757
738.64018	1.12614
736.71161	1.13505
734.78305	1.14379
732.85448	1.15020
730.92592	1.15417
728.99735	1.15748
727.06879	1.16048
725.14023	1.16275
723.21166	1.16356
721.28310	1.16252
719.35453	1.16190
717.42597	1.16322
715.49740	1.16438
713.56884	1.16396
711.64027	1.16244
709.71171	1.16095
707.78315	1.16046
705.85458	1.16098
703.92602	1.16141
701.99745	1.16074
700.06889	1.15866
698.14032	1.15522
696.21176	1.15173
694.28319	1.14842
692.35463	1.14502
690.42607	1.14388
688.49750	1.14434
686.56894	1.14249
684.64037	1.13974
682.71181	1.13870
680.78324	1.13764
678.85468	1.13549
676.92611	1.13311
674.99755	1.13080
673.06899	1.12870
671.14042	1.12616
669.21186	1.12321
667.28329	1.12380
665.35473	1.12604
663.42616	1.12633
661.49760	1.12621
659.56903	1.12718
657.64047	1.12833
655.71191	1.12869
653.78334	1.12852
651.85478	1.12927
649.92621	1.13225
647.99765	1.13601
646.06908	1.13893
644.14052	1.14154
642.21195	1.14432
640.28339	1.14584
638.35483	1.14552
636.42626	1.14679
634.49770	1.15036
632.56913	1.15250
630.64057	1.15317
628.71200	1.15296
626.78344	1.15078
624.85488	1.15000
622.92631	1.15368
620.99775	1.15824
619.06918	1.16022
617.14062	1.16041
615.21205	1.16123
613.28349	1.16275
611.35492	1.16294
609.42636	1.16401
607.49780	1.16902
605.56923	1.17509
603.64067	1.17991
601.71210	1.18471
599.78354	1.18779
