3997.91406	1.13319
3995.98550	1.13110
3994.05693	1.12970
3992.12837	1.12901
3990.19980	1.12691
3988.27124	1.12420
3986.34268	1.12274
3984.41411	1.12216
3982.48555	1.12134
3980.55698	1.12116
3978.62842	1.12311
3976.69985	1.12496
3974.77129	1.12363
3972.84272	1.12102
3970.91416	1.11969
3968.98560	1.11844
3967.05703	1.11659
3965.12847	1.11507
3963.19990	1.11408
3961.27134	1.11404
3959.34277	1.11488
3957.41421	1.11492
3955.48564	1.11332
3953.55708	1.11117
3951.62852	1.10956
3949.69995	1.10857
3947.77139	1.10829
3945.84282	1.10803
3943.91426	1.10599
3941.98569	1.10254
3940.05713	1.10041
3938.12856	1.10074
3936.20000	1.10249
3934.27144	1.10310
3932.34287	1.10163
3930.41431	1.09924
3928.48574	1.09639
3926.55718	1.09485
3924.62861	1.09648
3922.70005	1.09758
3920.77148	1.09437
3918.84292	1.09048
3916.91436	1.09003
3914.98579	1.08996
3913.05723	1.08835
3911.12866	1.08685
3909.20010	1.08590
3907.27153	1.08602
3905.34297	1.08839
3903.41440	1.09124
3901.48584	1.09096
3899.55728	1.08898
3897.62871	1.08691
3895.70015	1.08477
3893.77158	1.08349
3891.84302	1.08256
3889.91445	1.08059
3887.98589	1.07944
3886.05733	1.07861
3884.12876	1.07508
3882.20020	1.07220
3880.27163	1.07293
3878.34307	1.07320
3876.41450	1.07190
3874.48594	1.07102
3872.55737	1.07049
3870.62881	1.07040
3868.70025	1.07105
3866.77168	1.07118
3864.84312	1.07020
3862.91455	1.06789
3860.98599	1.06490
3859.05742	1.06266
3857.12886	1.06294
3855.20029	1.06714
3853.27173	1.07158
3851.34317	1.06916
3849.41460	1.06449
3847.48604	1.05975
3845.55747	1.05759
3843.62891	1.06042
3841.70034	1.06426
3839.77178	1.06439
3837.84321	1.06129
3835.91465	1.05850
3833.98609	1.05816
3832.05752	1.05773
3830.12896	1.05558
3828.20039	1.05355
3826.27183	1.05220
3824.34326	1.05183
3822.41470	1.05411
3820.48613	1.05727
3818.55757	1.05727
3816.62901	1.05410
3814.70044	1.04842
3812.77188	1.04508
3810.84331	1.04498
3808.91475	1.04538
3806.98618	1.04424
3805.05762	1.04303
3803.12905	1.04451
3801.20049	1.04748
3799.27193	1.04626
3797.34336	1.04335
3795.41480	1.04261
3793.48623	1.04264
3791.55767	1.04098
3789.62910	1.03741
3787.70054	1.03410
3785.77197	1.03369
3783.84341	1.03543
3781.91485	1.03611
3779.98628	1.03502
3778.05772	1.03422
3776.12915	1.03439
3774.20059	1.03454
3772.27202	1.03629
3770.34346	1.04004
3768.41489	1.04062
3766.48633	1.03818
3764.55777	1.03592
3762.62920	1.03303
3760.70064	1.02989
3758.77207	1.02851
3756.84351	1.02865
3754.91494	1.02919
3752.98638	1.03025
3751.05781	1.03225
3749.12925	1.03351
3747.20069	1.03279
3745.27212	1.03207
3743.34356	1.03182
3741.41499	1.02994
3739.48643	1.02798
3737.55786	1.02922
3735.62930	1.03464
3733.70074	1.03608
3731.77217	1.03000
3729.84361	1.02382
3727.91504	1.02124
3725.98648	1.02131
3724.05791	1.02239
3722.12935	1.02453
3720.20078	1.02560
3718.27222	1.02384
3716.34366	1.02139
3714.41509	1.01988
3712.48653	1.01965
3710.55796	1.02057
3708.62940	1.02098
3706.70083	1.02126
3704.77227	1.02210
3702.84370	1.02368
3700.91514	1.02491
3698.98658	1.02358
3697.05801	1.02082
3695.12945	1.01908
3693.20088	1.01947
3691.27232	1.02303
3689.34375	1.02797
3687.41519	1.02784
3685.48662	1.02578
3683.55806	1.02593
3681.62950	1.02888
3679.70093	1.03320
3677.77237	1.03676
3675.84380	1.03832
3673.91524	1.03754
3671.98667	1.03778
3670.05811	1.04196
3668.12954	1.04482
3666.20098	1.04443
3664.27242	1.04560
3662.34385	1.04924
3660.41529	1.05276
3658.48672	1.05555
3656.55816	1.06036
3654.62959	1.06679
3652.70103	1.07296
3650.77246	1.08150
3648.84390	1.09066
3646.91534	1.09296
3644.98677	1.09346
3643.05821	1.09378
3641.12964	1.09312
3639.20108	1.09314
3637.27251	1.09604
3635.34395	1.10094
3633.41538	1.10513
3631.48682	1.10888
3629.55826	1.11792
3627.62969	1.12836
3625.70113	1.13101
3623.77256	1.13199
3621.84400	1.13497
3619.91543	1.13983
3617.98687	1.14426
3616.05830	1.14854
3614.12974	1.15482
3612.20118	1.16227
3610.27261	1.16953
3608.34405	1.17624
3606.41548	1.17992
3604.48692	1.18147
3602.55835	1.18478
3600.62979	1.19031
3598.70123	1.19522
3596.77266	1.19950
3594.84410	1.20438
3592.91553	1.20829
3590.98697	1.21144
3589.05840	1.21799
3587.12984	1.22680
3585.20127	1.22906
3583.27271	1.22996
3581.34415	1.23639
3579.41558	1.24588
3577.48702	1.25266
3575.55845	1.25621
3573.62989	1.25933
3571.70132	1.26366
3569.77276	1.26880
3567.84419	1.27433
3565.91563	1.27984
3563.98707	1.28398
3562.05850	1.28792
3560.12994	1.29394
3558.20137	1.30074
3556.27281	1.30459
3554.34424	1.30603
3552.41568	1.30927
3550.48711	1.31592
3548.55855	1.32338
3546.62999	1.33009
3544.70142	1.33610
3542.77286	1.34031
3540.84429	1.34405
3538.91573	1.34974
3536.98716	1.35703
3535.05860	1.36425
3533.13003	1.36962
3531.20147	1.37281
3529.27291	1.37695
3527.34434	1.38574
3525.41578	1.39688
3523.48721	1.40404
3521.55865	1.40647
3519.63008	1.40916
3517.70152	1.41383
3515.77295	1.41957
3513.84439	1.42664
3511.91583	1.43543
3509.98726	1.44599
3508.05870	1.45580
3506.13013	1.46437
3504.20157	1.47358
3502.27300	1.47743
3500.34444	1.47535
3498.41587	1.47684
3496.48731	1.48286
3494.55875	1.48956
3492.63018	1.49898
3490.70162	1.51166
3488.77305	1.52139
3486.84449	1.52593
3484.91592	1.52664
3482.98736	1.52392
3481.05879	1.52396
3479.13023	1.53027
3477.20167	1.53608
3475.27310	1.53693
3473.34454	1.53738
3471.41597	1.54088
3469.48741	1.54409
3467.55884	1.54497
3465.63028	1.54410
3463.70171	1.54291
3461.77315	1.54637
3459.84459	1.55504
3457.91602	1.56185
3455.98746	1.56609
3454.05889	1.57038
3452.13033	1.57067
3450.20176	1.56646
3448.27320	1.56497
3446.34464	1.56862
3444.41607	1.56928
3442.48751	1.56582
3440.55894	1.56774
3438.63038	1.57466
3436.70181	1.57717
3434.77325	1.57576
3432.84468	1.57911
3430.91612	1.58717
3428.98756	1.58995
3427.05899	1.58283
3425.13043	1.57201
3423.20186	1.56563
3421.27330	1.56633
3419.34473	1.57200
3417.41617	1.57948
3415.48760	1.58526
3413.55904	1.58729
3411.63048	1.58647
3409.70191	1.58459
3407.77335	1.58393
3405.84478	1.58560
3403.91622	1.58823
3401.98765	1.58997
3400.05909	1.58931
3398.13052	1.58772
3396.20196	1.58839
3394.27340	1.58889
3392.34483	1.58587
3390.41627	1.58336
3388.48770	1.58525
3386.55914	1.58855
3384.63057	1.58989
3382.70201	1.59176
3380.77344	1.59582
3378.84488	1.59937
3376.91632	1.60156
3374.98775	1.60211
3373.05919	1.60116
3371.13062	1.59921
3369.20206	1.59623
3367.27349	1.59696
3365.34493	1.60158
3363.41636	1.60293
3361.48780	1.60084
3359.55924	1.59746
3357.63067	1.59376
3355.70211	1.59548
3353.77354	1.60465
3351.84498	1.61395
3349.91641	1.61793
3347.98785	1.62075
3346.05928	1.62331
3344.13072	1.61923
3342.20216	1.61238
3340.27359	1.61291
3338.34503	1.61946
3336.41646	1.62494
3334.48790	1.62965
3332.55933	1.63533
3330.63077	1.63734
3328.70220	1.63404
3326.77364	1.63337
3324.84508	1.63989
3322.91651	1.64699
3320.98795	1.64998
3319.05938	1.65093
3317.13082	1.64907
3315.20225	1.64519
3313.27369	1.64558
3311.34513	1.65254
3309.41656	1.66110
3307.48800	1.66487
3305.55943	1.66446
3303.63087	1.66486
3301.70230	1.66728
3299.77374	1.66935
3297.84517	1.66958
3295.91661	1.66941
3293.98805	1.66799
3292.05948	1.66591
3290.13092	1.66752
3288.20235	1.66926
3286.27379	1.66655
3284.34522	1.66379
3282.41666	1.66465
3280.48809	1.66627
3278.55953	1.66449
3276.63097	1.66023
3274.70240	1.65582
3272.77384	1.65136
3270.84527	1.64692
3268.91671	1.64228
3266.98814	1.63838
3265.05958	1.63494
3263.13101	1.63050
3261.20245	1.62672
3259.27389	1.62352
3257.34532	1.61733
3255.41676	1.60689
3253.48819	1.59612
3251.55963	1.58906
3249.63106	1.58495
3247.70250	1.58125
3245.77393	1.57538
3243.84537	1.56702
3241.91681	1.55976
3239.98824	1.55438
3238.05968	1.54772
3236.13111	1.54003
3234.20255	1.53506
3232.27398	1.53349
3230.34542	1.53207
3228.41685	1.52800
3226.48829	1.52238
3224.55973	1.51837
3222.63116	1.51546
3220.70260	1.51042
3218.77403	1.50334
3216.84547	1.49820
3214.91690	1.49642
3212.98834	1.49455
3211.05977	1.48989
3209.13121	1.48321
3207.20265	1.47534
3205.27408	1.46746
3203.34552	1.46214
3201.41695	1.45795
3199.48839	1.45215
3197.55982	1.44734
3195.63126	1.44523
3193.70269	1.44311
3191.77413	1.43929
3189.84557	1.43546
3187.91700	1.43369
3185.98844	1.43292
3184.05987	1.43013
3182.13131	1.42448
3180.20274	1.41958
3178.27418	1.41745
3176.34562	1.41352
3174.41705	1.40541
3172.48849	1.39716
3170.55992	1.39211
3168.63136	1.39053
3166.70279	1.39065
3164.77423	1.38888
3162.84566	1.38450
3160.91710	1.38112
3158.98854	1.37936
3157.05997	1.37609
3155.13141	1.37062
3153.20284	1.36555
3151.27428	1.36300
3149.34571	1.36271
3147.41715	1.36266
3145.48858	1.36119
3143.56002	1.35913
3141.63146	1.35650
3139.70289	1.35278
3137.77433	1.35056
3135.84576	1.34972
3133.91720	1.34789
3131.98863	1.34707
3130.06007	1.34926
3128.13150	1.35141
3126.20294	1.35087
3124.27438	1.35041
3122.34581	1.35086
3120.41725	1.34938
3118.48868	1.34826
3116.56012	1.35078
3114.63155	1.35438
3112.70299	1.35580
3110.77442	1.35632
3108.84586	1.35819
3106.91730	1.35890
3104.98873	1.35559
3103.06017	1.35081
3101.13160	1.34764
3099.20304	1.34677
3097.27447	1.34759
3095.34591	1.34853
3093.41734	1.34867
3091.48878	1.34836
3089.56022	1.34772
3087.63165	1.34563
3085.70309	1.34185
3083.77452	1.33829
3081.84596	1.33548
3079.91739	1.33247
3077.98883	1.32903
3076.06026	1.32637
3074.13170	1.32542
3072.20314	1.32287
3070.27457	1.31624
3068.34601	1.31016
3066.41744	1.30891
3064.48888	1.30898
3062.56031	1.30502
3060.63175	1.29874
3058.70318	1.29444
3056.77462	1.29153
3054.84606	1.28764
3052.91749	1.28297
3050.98893	1.27791
3049.06036	1.27176
3047.13180	1.26574
3045.20323	1.26249
3043.27467	1.26188
3041.34610	1.26105
3039.41754	1.25829
3037.48898	1.25457
3035.56041	1.25045
3033.63185	1.24538
3031.70328	1.24135
3029.77472	1.24047
3027.84615	1.24056
3025.91759	1.23870
3023.98903	1.23535
3022.06046	1.23287
3020.13190	1.23090
3018.20333	1.22801
3016.27477	1.22635
3014.34620	1.22695
3012.41764	1.22687
3010.48907	1.22515
3008.56051	1.22285
3006.63195	1.22028
3004.70338	1.21831
3002.77482	1.21693
3000.84625	1.21524
2998.91769	1.21403
2996.98912	1.21453
2995.06056	1.21687
2993.13199	1.22059
2991.20343	1.22486
2989.27487	1.22912
2987.34630	1.23372
2985.41774	1.23886
2983.48917	1.24386
2981.56061	1.24862
2979.63204	1.25413
2977.70348	1.26106
2975.77491	1.26917
2973.84635	1.27713
2971.91779	1.28310
2969.98922	1.28759
2968.06066	1.29298
2966.13209	1.29902
2964.20353	1.30363
2962.27496	1.30632
2960.34640	1.30696
2958.41783	1.30534
2956.48927	1.30156
2954.56071	1.29490
2952.63214	1.28557
2950.70358	1.27665
2948.77501	1.27233
2946.84645	1.27461
2944.91788	1.28175
2942.98932	1.29050
2941.06075	1.29918
2939.13219	1.30739
2937.20363	1.31596
2935.27506	1.32634
2933.34650	1.33698
2931.41793	1.34472
2929.48937	1.35019
2927.56080	1.35547
2925.63224	1.35940
2923.70367	1.36003
2921.77511	1.35841
2919.84655	1.35628
2917.91798	1.35110
2915.98942	1.33766
2914.06085	1.31634
2912.13229	1.29358
2910.20372	1.27470
2908.27516	1.26129
2906.34659	1.25266
2904.41803	1.24701
2902.48947	1.24212
2900.56090	1.23710
2898.63234	1.23339
2896.70377	1.23090
2894.77521	1.22774
2892.84664	1.22487
2890.91808	1.22304
2888.98952	1.22057
2887.06095	1.21683
2885.13239	1.21259
2883.20382	1.20939
2881.27526	1.20826
2879.34669	1.20833
2877.41813	1.20814
2875.48956	1.20714
2873.56100	1.20480
2871.63244	1.20033
2869.70387	1.19454
2867.77531	1.18818
2865.84674	1.18074
2863.91818	1.17446
2861.98961	1.17276
2860.06105	1.17510
2858.13248	1.17890
2856.20392	1.18341
2854.27536	1.18892
2852.34679	1.19437
2850.41823	1.19487
2848.48966	1.18339
2846.56110	1.16055
2844.63253	1.13563
2842.70397	1.11571
2840.77540	1.10204
2838.84684	1.09251
2836.91828	1.08458
2834.98971	1.07756
2833.06115	1.07127
2831.13258	1.06548
2829.20402	1.06036
2827.27545	1.05570
2825.34689	1.05178
2823.41832	1.04903
2821.48976	1.04693
2819.56120	1.04442
2817.63263	1.04095
2815.70407	1.03702
2813.77550	1.03337
2811.84694	1.03026
2809.91837	1.02701
2807.98981	1.02304
2806.06124	1.01921
2804.13268	1.01598
2802.20412	1.01260
2800.27555	1.00889
2798.34699	1.00542
2796.41842	1.00257
2794.48986	0.99997
2792.56129	0.99721
2790.63273	0.99453
2788.70416	0.99215
2786.77560	0.98975
2784.84704	0.98706
2782.91847	0.98472
2780.98991	0.98312
2779.06134	0.98154
2777.13278	0.97953
2775.20421	0.97734
2773.27565	0.97545
2771.34708	0.97394
2769.41852	0.97212
2767.48996	0.96959
2765.56139	0.96694
2763.63283	0.96457
2761.70426	0.96218
2759.77570	0.95949
2757.84713	0.95688
2755.91857	0.95489
2753.99001	0.95331
2752.06144	0.95149
2750.13288	0.94919
2748.20431	0.94654
2746.27575	0.94424
2744.34718	0.94304
2742.41862	0.94240
2740.49005	0.94135
2738.56149	0.94017
2736.63293	0.93901
2734.70436	0.93701
2732.77580	0.93418
2730.84723	0.93180
2728.91867	0.93051
2726.99010	0.92940
2725.06154	0.92760
2723.13297	0.92551
2721.20441	0.92339
2719.27585	0.92099
2717.34728	0.91845
2715.41872	0.91598
2713.49015	0.91373
2711.56159	0.91154
2709.63302	0.90934
2707.70446	0.90752
2705.77589	0.90584
2703.84733	0.90404
2701.91877	0.90253
2699.99020	0.90126
2698.06164	0.89977
2696.13307	0.89806
2694.20451	0.89622
2692.27594	0.89434
2690.34738	0.89273
2688.41881	0.89125
2686.49025	0.88939
2684.56169	0.88709
2682.63312	0.88468
2680.70456	0.88261
2678.77599	0.88109
2676.84743	0.87984
2674.91886	0.87835
2672.99030	0.87643
2671.06173	0.87444
2669.13317	0.87299
2667.20461	0.87211
2665.27604	0.87129
2663.34748	0.87032
2661.41891	0.86931
2659.49035	0.86819
2657.56178	0.86682
2655.63322	0.86534
2653.70465	0.86382
2651.77609	0.86211
2649.84753	0.86033
2647.91896	0.85913
2645.99040	0.85850
2644.06183	0.85745
2642.13327	0.85544
2640.20470	0.85312
2638.27614	0.85141
2636.34757	0.85024
2634.41901	0.84894
2632.49045	0.84742
2630.56188	0.84612
2628.63332	0.84502
2626.70475	0.84369
2624.77619	0.84201
2622.84762	0.84055
2620.91906	0.83976
2618.99049	0.83916
2617.06193	0.83812
2615.13337	0.83671
2613.20480	0.83528
2611.27624	0.83423
2609.34767	0.83345
2607.41911	0.83225
2605.49054	0.83031
2603.56198	0.82806
2601.63342	0.82604
2599.70485	0.82417
2597.77629	0.82227
2595.84772	0.82028
2593.91916	0.81805
2591.99059	0.81584
2590.06203	0.81410
2588.13346	0.81271
2586.20490	0.81132
2584.27634	0.80993
2582.34777	0.80870
2580.41921	0.80754
2578.49064	0.80625
2576.56208	0.80503
2574.63351	0.80422
2572.70495	0.80362
2570.77638	0.80244
2568.84782	0.80049
2566.91926	0.79858
2564.99069	0.79717
2563.06213	0.79581
2561.13356	0.79422
2559.20500	0.79272
2557.27643	0.79129
2555.34787	0.78958
2553.41930	0.78772
2551.49074	0.78601
2549.56218	0.78442
2547.63361	0.78296
2545.70505	0.78148
2543.77648	0.78003
2541.84792	0.77896
2539.91935	0.77819
2537.99079	0.77726
2536.06222	0.77588
2534.13366	0.77426
2532.20510	0.77293
2530.27653	0.77213
2528.34797	0.77149
2526.41940	0.77063
2524.49084	0.76956
2522.56227	0.76819
2520.63371	0.76673
2518.70514	0.76558
2516.77658	0.76434
2514.84802	0.76280
2512.91945	0.76144
2510.99089	0.76026
2509.06232	0.75910
2507.13376	0.75821
2505.20519	0.75765
2503.27663	0.75678
2501.34806	0.75526
2499.41950	0.75369
2497.49094	0.75272
2495.56237	0.75213
2493.63381	0.75134
2491.70524	0.75033
2489.77668	0.74929
2487.84811	0.74815
2485.91955	0.74703
2483.99098	0.74598
2482.06242	0.74484
2480.13386	0.74353
2478.20529	0.74204
2476.27673	0.74053
2474.34816	0.73921
2472.41960	0.73804
2470.49103	0.73695
2468.56247	0.73591
2466.63391	0.73467
2464.70534	0.73315
2462.77678	0.73166
2460.84821	0.73054
2458.91965	0.72944
2456.99108	0.72796
2455.06252	0.72654
2453.13395	0.72553
2451.20539	0.72464
2449.27683	0.72369
2447.34826	0.72273
2445.41970	0.72160
2443.49113	0.72036
2441.56257	0.71933
2439.63400	0.71853
2437.70544	0.71759
2435.77687	0.71644
2433.84831	0.71536
2431.91975	0.71433
2429.99118	0.71317
2428.06262	0.71193
2426.13405	0.71077
2424.20549	0.70987
2422.27692	0.70912
2420.34836	0.70823
2418.41979	0.70727
2416.49123	0.70643
2414.56267	0.70578
2412.63410	0.70522
2410.70554	0.70446
2408.77697	0.70351
2406.84841	0.70274
2404.91984	0.70206
2402.99128	0.70098
2401.06271	0.69970
2399.13415	0.69888
2397.20559	0.69841
2395.27702	0.69782
2393.34846	0.69718
2391.41989	0.69686
2389.49133	0.69680
2387.56276	0.69654
2385.63420	0.69588
2383.70563	0.69489
2381.77707	0.69364
2379.84851	0.69225
2377.91994	0.69062
2375.99138	0.68840
2374.06281	0.68585
2372.13425	0.68366
2370.20568	0.68162
2368.27712	0.67879
2366.34855	0.67501
2364.41999	0.67165
2362.49143	0.66947
2360.56286	0.66818
2358.63430	0.66801
2356.70573	0.66882
2354.77717	0.67032
2352.84860	0.67254
2350.92004	0.67428
2348.99147	0.67445
2347.06291	0.67322
2345.13435	0.67143
2343.20578	0.67014
2341.27722	0.66980
2339.34865	0.67047
2337.42009	0.67156
2335.49152	0.67227
2333.56296	0.67213
2331.63440	0.67121
2329.70583	0.67055
2327.77727	0.67040
2325.84870	0.67006
2323.92014	0.66996
2321.99157	0.67084
2320.06301	0.67196
2318.13444	0.67243
2316.20588	0.67241
2314.27732	0.67240
2312.34875	0.67253
2310.42019	0.67273
2308.49162	0.67293
2306.56306	0.67299
2304.63449	0.67284
2302.70593	0.67283
2300.77736	0.67306
2298.84880	0.67325
2296.92024	0.67320
2294.99167	0.67291
2293.06311	0.67254
2291.13454	0.67224
2289.20598	0.67198
2287.27741	0.67169
2285.34885	0.67136
2283.42028	0.67104
2281.49172	0.67092
2279.56316	0.67113
2277.63459	0.67136
2275.70603	0.67131
2273.77746	0.67108
2271.84890	0.67086
2269.92033	0.67088
2267.99177	0.67122
2266.06320	0.67166
2264.13464	0.67179
2262.20608	0.67149
2260.27751	0.67100
2258.34895	0.67049
2256.42038	0.66996
2254.49182	0.66926
2252.56325	0.66842
2250.63469	0.66768
2248.70612	0.66704
2246.77756	0.66627
2244.84900	0.66541
2242.92043	0.66485
2240.99187	0.66472
2239.06330	0.66470
2237.13474	0.66458
2235.20617	0.66447
2233.27761	0.66449
2231.34904	0.66476
2229.42048	0.66527
2227.49192	0.66575
2225.56335	0.66601
2223.63479	0.66614
2221.70622	0.66614
2219.77766	0.66596
2217.84909	0.66569
2215.92053	0.66553
2213.99196	0.66545
2212.06340	0.66512
2210.13484	0.66460
2208.20627	0.66422
2206.27771	0.66397
2204.34914	0.66364
2202.42058	0.66335
2200.49201	0.66316
2198.56345	0.66310
2196.63488	0.66331
2194.70632	0.66368
2192.77776	0.66391
2190.84919	0.66399
2188.92063	0.66406
2186.99206	0.66416
2185.06350	0.66441
2183.13493	0.66496
2181.20637	0.66547
2179.27781	0.66575
2177.34924	0.66590
2175.42068	0.66591
2173.49211	0.66580
2171.56355	0.66567
2169.63498	0.66550
2167.70642	0.66528
2165.77785	0.66504
2163.84929	0.66484
2161.92073	0.66485
2159.99216	0.66495
2158.06360	0.66504
2156.13503	0.66510
2154.20647	0.66508
2152.27790	0.66507
2150.34934	0.66524
2148.42077	0.66559
2146.49221	0.66584
2144.56365	0.66577
2142.63508	0.66557
2140.70652	0.66547
2138.77795	0.66556
2136.84939	0.66567
2134.92082	0.66568
2132.99226	0.66569
2131.06369	0.66570
2129.13513	0.66548
2127.20657	0.66508
2125.27800	0.66482
2123.34944	0.66456
2121.42087	0.66401
2119.49231	0.66341
2117.56374	0.66306
2115.63518	0.66282
2113.70661	0.66261
2111.77805	0.66261
2109.84949	0.66273
2107.92092	0.66274
2105.99236	0.66252
2104.06379	0.66211
2102.13523	0.66178
2100.20666	0.66169
2098.27810	0.66173
2096.34953	0.66179
2094.42097	0.66182
2092.49241	0.66172
2090.56384	0.66137
2088.63528	0.66094
2086.70671	0.66060
2084.77815	0.66032
2082.84958	0.65988
2080.92102	0.65926
2078.99245	0.65861
2077.06389	0.65798
2075.13533	0.65746
2073.20676	0.65712
2071.27820	0.65684
2069.34963	0.65661
2067.42107	0.65646
2065.49250	0.65634
2063.56394	0.65623
2061.63537	0.65609
2059.70681	0.65590
2057.77825	0.65576
2055.84968	0.65571
2053.92112	0.65575
2051.99255	0.65603
2050.06399	0.65633
2048.13542	0.65623
2046.20686	0.65578
2044.27830	0.65543
2042.34973	0.65537
2040.42117	0.65524
2038.49260	0.65478
2036.56404	0.65423
2034.63547	0.65383
2032.70691	0.65348
2030.77834	0.65293
2028.84978	0.65226
2026.92122	0.65167
2024.99265	0.65104
2023.06409	0.65037
2021.13552	0.64992
2019.20696	0.64974
2017.27839	0.64949
2015.34983	0.64877
2013.42126	0.64797
2011.49270	0.64745
2009.56414	0.64702
2007.63557	0.64655
2005.70701	0.64615
2003.77844	0.64589
2001.84988	0.64580
1999.92131	0.64581
1997.99275	0.64569
1996.06418	0.64533
1994.13562	0.64509
1992.20706	0.64505
1990.27849	0.64452
1988.34993	0.64341
1986.42136	0.64234
1984.49280	0.64159
1982.56423	0.64100
1980.63567	0.64039
1978.70710	0.63973
1976.77854	0.63902
1974.84998	0.63821
1972.92141	0.63747
1970.99285	0.63693
1969.06428	0.63657
1967.13572	0.63628
1965.20715	0.63590
1963.27859	0.63543
1961.35002	0.63504
1959.42146	0.63475
1957.49290	0.63442
1955.56433	0.63389
1953.63577	0.63315
1951.70720	0.63233
1949.77864	0.63155
1947.85007	0.63086
1945.92151	0.63017
1943.99294	0.62947
1942.06438	0.62858
1940.13582	0.62736
1938.20725	0.62623
1936.27869	0.62548
1934.35012	0.62507
1932.42156	0.62481
1930.49299	0.62457
1928.56443	0.62449
1926.63586	0.62469
1924.70730	0.62532
1922.77874	0.62613
1920.85017	0.62630
1918.92161	0.62603
1916.99304	0.62588
1915.06448	0.62548
1913.13591	0.62479
1911.20735	0.62418
1909.27878	0.62347
1907.35022	0.62240
1905.42166	0.62101
1903.49309	0.61943
1901.56453	0.61797
1899.63596	0.61691
1897.70740	0.61611
1895.77883	0.61541
1893.85027	0.61467
1891.92171	0.61408
1889.99314	0.61391
1888.06458	0.61371
1886.13601	0.61335
1884.20745	0.61329
1882.27888	0.61343
1880.35032	0.61348
1878.42175	0.61341
1876.49319	0.61329
1874.56463	0.61307
1872.63606	0.61274
1870.70750	0.61255
1868.77893	0.61221
1866.85037	0.61065
1864.92180	0.60829
1862.99324	0.60615
1861.06467	0.60431
1859.13611	0.60253
1857.20755	0.60082
1855.27898	0.59941
1853.35042	0.59829
1851.42185	0.59727
1849.49329	0.59661
1847.56472	0.59647
1845.63616	0.59675
1843.70759	0.59692
1841.77903	0.59607
1839.85047	0.59497
1837.92190	0.59441
1835.99334	0.59404
1834.06477	0.59328
1832.13621	0.59253
1830.20764	0.59202
1828.27908	0.59097
1826.35051	0.58939
1824.42195	0.58769
1822.49339	0.58579
1820.56482	0.58395
1818.63626	0.58254
1816.70769	0.58134
1814.77913	0.58019
1812.85056	0.57954
1810.92200	0.57945
1808.99343	0.57912
1807.06487	0.57842
1805.13631	0.57790
1803.20774	0.57762
1801.27918	0.57750
1799.35061	0.57724
1797.42205	0.57660
1795.49348	0.57590
1793.56492	0.57552
1791.63635	0.57507
1789.70779	0.57350
1787.77923	0.57163
1785.85066	0.57021
1783.92210	0.56920
1781.99353	0.56848
1780.06497	0.56771
1778.13640	0.56664
1776.20784	0.56566
1774.27927	0.56570
1772.35071	0.56688
1770.42215	0.56731
1768.49358	0.56681
1766.56502	0.56632
1764.63645	0.56634
1762.70789	0.56750
1760.77932	0.56927
1758.85076	0.57052
1756.92220	0.57211
1754.99363	0.57392
1753.06507	0.57592
1751.13650	0.58012
1749.20794	0.58597
1747.27937	0.59026
1745.35081	0.59342
1743.42224	0.59658
1741.49368	0.59996
1739.56512	0.60323
1737.63655	0.60524
1735.70799	0.60722
1733.77942	0.61222
1731.85086	0.61614
1729.92229	0.61754
1727.99373	0.61939
1726.06516	0.62221
1724.13660	0.62649
1722.20804	0.63110
1720.27947	0.63566
1718.35091	0.64422
1716.42234	0.65871
1714.49378	0.66995
1712.56521	0.67885
1710.63665	0.68982
1708.70808	0.70393
1706.77952	0.72519
1704.85096	0.75336
1702.92239	0.77927
1700.99383	0.81655
1699.06526	0.87536
1697.13670	0.92820
1695.20813	0.97708
1693.27957	1.01355
1691.35100	1.04397
1689.42244	1.08235
1687.49388	1.11924
1685.56531	1.15764
1683.63675	1.21599
1681.70818	1.25769
1679.77962	1.28180
1677.85105	1.30548
1675.92249	1.33453
1673.99392	1.36467
1672.06536	1.38582
1670.13680	1.40630
1668.20823	1.42866
1666.27967	1.44173
1664.35110	1.45243
1662.42254	1.46658
1660.49397	1.47799
1658.56541	1.48390
1656.63684	1.48676
1654.70828	1.48985
1652.77972	1.49312
1650.85115	1.49213
1648.92259	1.48961
1646.99402	1.48750
1645.06546	1.48588
1643.13689	1.48242
1641.20833	1.47882
1639.27976	1.47572
1637.35120	1.47412
1635.42264	1.47185
1633.49407	1.46525
1631.56551	1.45814
1629.63694	1.45114
1627.70838	1.44448
1625.77981	1.43656
1623.85125	1.42402
1621.92269	1.40750
1619.99412	1.39272
1618.06556	1.37479
1616.13699	1.34509
1614.20843	1.31699
1612.27986	1.29370
1610.35130	1.26912
1608.42273	1.24347
1606.49417	1.22078
1604.56561	1.20261
1602.63704	1.18708
1600.70848	1.17372
1598.77991	1.16334
1596.85135	1.15606
1594.92278	1.15091
1592.99422	1.14713
1591.06565	1.14486
1589.13709	1.14488
1587.20853	1.14860
1585.27996	1.15593
1583.35140	1.16584
1581.42283	1.17701
1579.49427	1.18812
1577.56570	1.20257
1575.63714	1.22358
1573.70857	1.23775
1571.78001	1.24669
1569.85145	1.26184
1567.92288	1.27975
1565.99432	1.29289
1564.06575	1.30468
1562.13719	1.31350
1560.20862	1.32267
1558.28006	1.34430
1556.35149	1.35787
1554.42293	1.36407
1552.49437	1.36892
1550.56580	1.37188
1548.63724	1.37311
1546.70867	1.37365
1544.78011	1.37425
1542.85154	1.37426
1540.92298	1.37233
1538.99441	1.36664
1537.06585	1.36110
1535.13729	1.35567
1533.20872	1.34918
1531.28016	1.34263
1529.35159	1.33730
1527.42303	1.33260
1525.49446	1.32827
1523.56590	1.32519
1521.63733	1.32441
1519.70877	1.32602
1517.78021	1.32462
1515.85164	1.31635
1513.92308	1.30305
1511.99451	1.28805
1510.06595	1.27418
1508.13738	1.25458
1506.20882	1.21635
1504.28025	1.19152
1502.35169	1.17575
1500.42313	1.15873
1498.49456	1.13704
1496.56600	1.11036
1494.63743	1.08810
1492.70887	1.07234
1490.78030	1.05521
1488.85174	1.03332
1486.92317	1.01522
1484.99461	1.00252
1483.06605	0.99285
1481.13748	0.98548
1479.20892	0.98107
1477.28035	0.98048
1475.35179	0.98455
1473.42322	0.99594
1471.49466	1.01032
1469.56610	1.01857
1467.63753	1.02431
1465.70897	1.03223
1463.78040	1.04116
1461.85184	1.04665
1459.92327	1.05114
1457.99471	1.06194
1456.06614	1.07495
1454.13758	1.07743
1452.20902	1.07729
1450.28045	1.07787
1448.35189	1.07835
1446.42332	1.07726
1444.49476	1.07446
1442.56619	1.07040
1440.63763	1.06580
1438.70906	1.06086
1436.78050	1.05359
1434.85194	1.04381
1432.92337	1.03455
1430.99481	1.02524
1429.06624	1.01562
1427.13768	1.00772
1425.20911	1.00194
1423.28055	0.99805
1421.35198	0.99619
1419.42342	0.99640
1417.49486	0.99689
1415.56629	0.99560
1413.63773	0.99346
1411.70916	0.99097
1409.78060	0.98848
1407.85203	0.98687
1405.92347	0.98707
1403.99490	0.98853
1402.06634	0.98944
1400.13778	0.99003
1398.20921	0.99129
1396.28065	0.99333
1394.35208	0.99573
1392.42352	0.99785
1390.49495	1.00094
1388.56639	1.00880
1386.63782	1.02360
1384.70926	1.03992
1382.78070	1.05449
1380.85213	1.06707
1378.92357	1.07497
1376.99500	1.07611
1375.06644	1.06978
1373.13787	1.05694
1371.20931	1.04123
1369.28074	1.02244
1367.35218	1.00087
1365.42362	0.98037
1363.49505	0.96064
1361.56649	0.94186
1359.63792	0.92762
1357.70936	0.91734
1355.78079	0.90909
1353.85223	0.90250
1351.92366	0.89780
1349.99510	0.89422
1348.06654	0.89085
1346.13797	0.88779
1344.20941	0.88569
1342.28084	0.88522
1340.35228	0.88703
1338.42371	0.89034
1336.49515	0.89442
1334.56659	0.90065
1332.63802	0.90990
1330.70946	0.92097
1328.78089	0.93109
1326.85233	0.93833
1324.92376	0.94283
1322.99520	0.94572
1321.06663	0.94827
1319.13807	0.95099
1317.20951	0.95321
1315.28094	0.95462
1313.35238	0.95576
1311.42381	0.95641
1309.49525	0.95603
1307.56668	0.95448
1305.63812	0.95180
1303.70955	0.94826
1301.78099	0.94376
1299.85243	0.93855
1297.92386	0.93290
1295.99530	0.92662
1294.06673	0.92052
1292.13817	0.91623
1290.20960	0.91423
1288.28104	0.91366
1286.35247	0.91343
1284.42391	0.91285
1282.49535	0.91208
1280.56678	0.91172
1278.63822	0.91204
1276.70965	0.91344
1274.78109	0.91631
1272.85252	0.92075
1270.92396	0.92649
1268.99539	0.93296
1267.06683	0.93932
1265.13827	0.94457
1263.20970	0.94800
1261.28114	0.94940
1259.35257	0.94923
1257.42401	0.94850
1255.49544	0.94811
1253.56688	0.94823
1251.63831	0.94852
1249.70975	0.94871
1247.78119	0.94887
1245.85262	0.94899
1243.92406	0.94871
1241.99549	0.94799
1240.06693	0.94720
1238.13836	0.94591
1236.20980	0.94329
1234.28123	0.93911
1232.35267	0.93345
1230.42411	0.92657
1228.49554	0.91871
1226.56698	0.90996
1224.63841	0.90077
1222.70985	0.89151
1220.78128	0.88226
1218.85272	0.87383
1216.92415	0.86722
1214.99559	0.86308
1213.06703	0.86184
1211.13846	0.86352
1209.20990	0.86696
1207.28133	0.86968
1205.35277	0.86917
1203.42420	0.86443
1201.49564	0.85646
1199.56708	0.84702
1197.63851	0.83681
1195.70995	0.82624
1193.78138	0.81683
1191.85282	0.80994
1189.92425	0.80568
1187.99569	0.80363
1186.06712	0.80350
1184.13856	0.80505
1182.21000	0.80818
1180.28143	0.81335
1178.35287	0.82125
1176.42430	0.83178
1174.49574	0.84383
1172.56717	0.85647
1170.63861	0.87017
1168.71004	0.88591
1166.78148	0.90373
1164.85292	0.92223
1162.92435	0.93864
1160.99579	0.94986
1159.06722	0.95413
1157.13866	0.95156
1155.21009	0.94312
1153.28153	0.92996
1151.35296	0.91342
1149.42440	0.89552
1147.49584	0.87873
1145.56727	0.86446
1143.63871	0.85334
1141.71014	0.84628
1139.78158	0.84367
1137.85301	0.84515
1135.92445	0.85032
1133.99588	0.85900
1132.06732	0.87137
1130.13876	0.88745
1128.21019	0.90624
1126.28163	0.92567
1124.35306	0.94352
1122.42450	0.95867
1120.49593	0.97103
1118.56737	0.98003
1116.63880	0.98472
1114.71024	0.98463
1112.78168	0.98025
1110.85311	0.97335
1108.92455	0.96624
1106.99598	0.96040
1105.06742	0.95588
1103.13885	0.95204
1101.21029	0.94947
1099.28172	0.94989
1097.35316	0.95465
1095.42460	0.96402
1093.49603	0.97718
1091.56747	0.99282
1089.63890	1.01073
1087.71034	1.03143
1085.78177	1.05404
1083.85321	1.07662
1081.92464	1.09700
1079.99608	1.11252
1078.06752	1.12100
1076.13895	1.12208
1074.21039	1.11794
1072.28182	1.11079
1070.35326	1.10119
1068.42469	1.09081
1066.49613	1.08077
1064.56756	1.06910
1062.63900	1.05495
1060.71044	1.04039
1058.78187	1.02681
1056.85331	1.01425
1054.92474	1.00301
1052.99618	0.99356
1051.06761	0.98650
1049.13905	0.98276
1047.21049	0.98259
1045.28192	0.98637
1043.35336	0.99458
1041.42479	1.00546
1039.49623	1.01606
1037.56766	1.02476
1035.63910	1.03040
1033.71053	1.03238
1031.78197	1.03154
1029.85341	1.02823
1027.92484	1.02180
1025.99628	1.01237
1024.06771	1.00135
1022.13915	0.99067
1020.21058	0.98161
1018.28202	0.97362
1016.35345	0.96453
1014.42489	0.95202
1012.49633	0.93492
1010.56776	0.91336
1008.63920	0.88845
1006.71063	0.86269
1004.78207	0.83851
1002.85350	0.81704
1000.92494	0.79888
998.99637	0.78453
997.06781	0.77381
995.13925	0.76567
993.21068	0.75868
991.28212	0.75207
989.35355	0.74570
987.42499	0.73965
985.49642	0.73450
983.56786	0.73092
981.63929	0.72878
979.71073	0.72737
977.78217	0.72604
975.85360	0.72376
973.92504	0.71922
971.99647	0.71191
970.06791	0.70266
968.13934	0.69309
966.21078	0.68493
964.28221	0.67980
962.35365	0.67928
960.42509	0.68497
958.49652	0.69673
956.56796	0.71038
954.63939	0.71970
952.71083	0.72152
950.78226	0.71715
948.85370	0.70985
946.92513	0.70219
944.99657	0.69573
943.06801	0.69126
941.13944	0.68791
939.21088	0.68435
937.28231	0.68031
935.35375	0.67597
933.42518	0.67167
931.49662	0.66808
929.56805	0.66550
927.63949	0.66377
925.71093	0.66315
923.78236	0.66392
921.85380	0.66551
919.92523	0.66694
917.99667	0.66810
916.06810	0.66986
914.13954	0.67277
912.21098	0.67681
910.28241	0.68217
908.35385	0.68905
906.42528	0.69689
904.49672	0.70460
902.56815	0.71095
900.63959	0.71489
898.71102	0.71634
896.78246	0.71590
894.85390	0.71368
892.92533	0.70953
890.99677	0.70371
889.06820	0.69706
887.13964	0.69107
885.21107	0.68659
883.28251	0.68329
881.35394	0.68115
879.42538	0.68080
877.49682	0.68233
875.56825	0.68519
873.63969	0.68876
871.71112	0.69268
869.78256	0.69721
867.85399	0.70248
865.92543	0.70784
863.99686	0.71298
862.06830	0.71800
860.13974	0.72256
858.21117	0.72620
856.28261	0.72907
854.35404	0.73128
852.42548	0.73255
850.49691	0.73300
848.56835	0.73328
846.63978	0.73376
844.71122	0.73449
842.78266	0.73562
840.85409	0.73765
838.92553	0.74108
836.99696	0.74578
835.06840	0.75127
833.13983	0.75730
831.21127	0.76390
829.28270	0.77063
827.35414	0.77669
825.42558	0.78181
823.49701	0.78636
821.56845	0.79041
819.63988	0.79315
817.71132	0.79397
815.78275	0.79340
813.85419	0.79245
811.92562	0.79162
809.99706	0.79040
808.06850	0.78831
806.13993	0.78588
804.21137	0.78361
802.28280	0.78217
800.35424	0.78239
798.42567	0.78423
796.49711	0.78739
794.56854	0.79185
792.63998	0.79730
790.71142	0.80340
788.78285	0.81017
786.85429	0.81759
784.92572	0.82508
782.99716	0.83200
781.06859	0.83799
779.14003	0.84280
777.21147	0.84645
775.28290	0.84924
773.35434	0.85102
771.42577	0.85160
769.49721	0.85125
767.56864	0.85024
765.64008	0.84905
763.71151	0.84848
761.78295	0.84896
759.85439	0.85043
757.92582	0.85278
755.99726	0.85619
754.06869	0.86064
752.14013	0.86559
750.21156	0.87079
748.28300	0.87601
746.35443	0.88122
744.42587	0.88675
742.49731	0.89178
740.56874	0.89514
738.64018	0.89732
736.71161	0.89890
734.78305	0.89937
732.85448	0.89919
730.92592	0.89936
728.99735	0.89933
727.06879	0.89883
725.14023	0.89853
723.21166	0.89862
721.28310	0.89957
719.35453	0.90154
717.42597	0.90362
715.49740	0.90606
713.56884	0.91007
711.64027	0.91576
709.71171	0.92256
707.78315	0.92960
705.85458	0.93595
703.92602	0.94197
701.99745	0.94760
700.06889	0.95143
698.14032	0.95320
696.21176	0.95428
694.28319	0.95494
692.35463	0.95448
690.42607	0.95327
688.49750	0.95161
686.56894	0.94947
684.64037	0.94751
682.71181	0.94674
680.78324	0.94733
678.85468	0.94824
676.92611	0.94875
674.99755	0.94939
673.06899	0.95047
671.14042	0.95098
669.21186	0.95189
667.28329	0.95702
665.35473	0.96106
663.42616	0.96117
661.49760	0.95971
659.56903	0.95827
657.64047	0.95673
655.71191	0.95502
653.78334	0.95285
651.85478	0.94967
649.92621	0.94612
647.99765	0.94309
646.06908	0.94120
644.14052	0.94156
642.21195	0.94406
640.28339	0.94698
638.35483	0.94977
636.42626	0.95258
634.49770	0.95444
632.56913	0.95499
630.64057	0.95519
628.71200	0.95522
626.78344	0.95444
624.85488	0.95312
622.92631	0.95236
620.99775	0.95164
619.06918	0.94921
617.14062	0.94524
615.21205	0.94183
613.28349	0.93945
611.35492	0.93686
609.42636	0.93425
607.49780	0.93345
605.56923	0.93489
603.64067	0.93821
601.71210	0.94437
599.78354	0.95278
