3997.91406	1.12533
3995.98550	1.12692
3994.05693	1.12954
3992.12837	1.13136
3990.19980	1.13206
3988.27124	1.13244
3986.34268	1.13196
3984.41411	1.12950
3982.48555	1.12529
3980.55698	1.12059
3978.62842	1.11729
3976.69985	1.11668
3974.77129	1.11752
3972.84272	1.11729
3970.91416	1.11608
3968.98560	1.11589
3967.05703	1.11689
3965.12847	1.11736
3963.19990	1.11606
3961.27134	1.11306
3959.34277	1.10972
3957.41421	1.10786
3955.48564	1.10733
3953.55708	1.10676
3951.62852	1.10653
3949.69995	1.10699
3947.77139	1.10633
3945.84282	1.10391
3943.91426	1.10173
3941.98569	1.10075
3940.05713	1.10044
3938.12856	1.10071
3936.20000	1.10134
3934.27144	1.10188
3932.34287	1.10160
3930.41431	1.09997
3928.48574	1.09858
3926.55718	1.09734
3924.62861	1.09372
3922.70005	1.08995
3920.77148	1.09125
3918.84292	1.09527
3916.91436	1.09455
3914.98579	1.09025
3913.05723	1.08801
3911.12866	1.08735
3909.20010	1.08650
3907.27153	1.08594
3905.34297	1.08656
3903.41440	1.08837
3901.48584	1.09014
3899.55728	1.08939
3897.62871	1.08546
3895.70015	1.08194
3893.77158	1.08208
3891.84302	1.08482
3889.91445	1.08364
3887.98589	1.07986
3886.05733	1.07927
3884.12876	1.08011
3882.20020	1.07823
3880.27163	1.07550
3878.34307	1.07232
3876.41450	1.06909
3874.48594	1.06832
3872.55737	1.07149
3870.62881	1.07697
3868.70025	1.07884
3866.77168	1.07650
3864.84312	1.07343
3862.91455	1.06879
3860.98599	1.06459
3859.05742	1.06355
3857.12886	1.06462
3855.20029	1.06594
3853.27173	1.06564
3851.34317	1.06304
3849.41460	1.05895
3847.48604	1.05465
3845.55747	1.05291
3843.62891	1.05465
3841.70034	1.05817
3839.77178	1.06290
3837.84321	1.06445
3835.91465	1.05878
3833.98609	1.05228
3832.05752	1.04948
3830.12896	1.04905
3828.20039	1.04810
3826.27183	1.04652
3824.34326	1.04650
3822.41470	1.04989
3820.48613	1.05152
3818.55757	1.04707
3816.62901	1.04417
3814.70044	1.04418
3812.77188	1.04289
3810.84331	1.04079
3808.91475	1.04019
3806.98618	1.04050
3805.05762	1.03944
3803.12905	1.03934
3801.20049	1.04064
3799.27193	1.03896
3797.34336	1.03609
3795.41480	1.03416
3793.48623	1.03248
3791.55767	1.03130
3789.62910	1.03135
3787.70054	1.03236
3785.77197	1.03314
3783.84341	1.03208
3781.91485	1.03037
3779.98628	1.02943
3778.05772	1.02825
3776.12915	1.02738
3774.20059	1.02722
3772.27202	1.02713
3770.34346	1.02800
3768.41489	1.02872
3766.48633	1.02670
3764.55777	1.02396
3762.62920	1.02247
3760.70064	1.02244
3758.77207	1.02442
3756.84351	1.02606
3754.91494	1.02600
3752.98638	1.02675
3751.05781	1.02948
3749.12925	1.02761
3747.20069	1.02256
3745.27212	1.02031
3743.34356	1.01914
3741.41499	1.01500
3739.48643	1.01180
3737.55786	1.01426
3735.62930	1.02105
3733.70074	1.02177
3731.77217	1.01682
3729.84361	1.01234
3727.91504	1.01070
3725.98648	1.01187
3724.05791	1.01248
3722.12935	1.01118
3720.20078	1.01003
3718.27222	1.00933
3716.34366	1.00881
3714.41509	1.01019
3712.48653	1.01436
3710.55796	1.01472
3708.62940	1.00908
3706.70083	1.00380
3704.77227	1.00055
3702.84370	1.00076
3700.91514	1.00389
3698.98658	1.00561
3697.05801	1.00598
3695.12945	1.00612
3693.20088	1.00572
3691.27232	1.00572
3689.34375	1.00786
3687.41519	1.01085
3685.48662	1.01296
3683.55806	1.01426
3681.62950	1.01539
3679.70093	1.01762
3677.77237	1.02092
3675.84380	1.02389
3673.91524	1.02586
3671.98667	1.02832
3670.05811	1.03184
3668.12954	1.03331
3666.20098	1.03362
3664.27242	1.03517
3662.34385	1.03775
3660.41529	1.04105
3658.48672	1.04657
3656.55816	1.05395
3654.62959	1.05693
3652.70103	1.05688
3650.77246	1.06200
3648.84390	1.07270
3646.91534	1.07722
3644.98677	1.07875
3643.05821	1.08040
3641.12964	1.08311
3639.20108	1.08739
3637.27251	1.09294
3635.34395	1.09877
3633.41538	1.10174
3631.48682	1.10241
3629.55826	1.10901
3627.62969	1.11979
3625.70113	1.12444
3623.77256	1.12768
3621.84400	1.13248
3619.91543	1.13870
3617.98687	1.14365
3616.05830	1.14780
3614.12974	1.15414
3612.20118	1.16023
3610.27261	1.16374
3608.34405	1.16849
3606.41548	1.17368
3604.48692	1.17533
3602.55835	1.17658
3600.62979	1.18149
3598.70123	1.18848
3596.77266	1.19443
3594.84410	1.20046
3592.91553	1.20733
3590.98697	1.21398
3589.05840	1.22216
3587.12984	1.22963
3585.20127	1.23130
3583.27271	1.23211
3581.34415	1.23495
3579.41558	1.23897
3577.48702	1.24358
3575.55845	1.24821
3573.62989	1.25198
3571.70132	1.25564
3569.77276	1.26155
3567.84419	1.27228
3565.91563	1.28230
3563.98707	1.28567
3562.05850	1.28820
3560.12994	1.29131
3558.20137	1.29385
3556.27281	1.29789
3554.34424	1.30529
3552.41568	1.31352
3550.48711	1.31908
3548.55855	1.32396
3546.62999	1.33043
3544.70142	1.33762
3542.77286	1.34394
3540.84429	1.34857
3538.91573	1.35261
3536.98716	1.35715
3535.05860	1.36047
3533.13003	1.36207
3531.20147	1.36483
3529.27291	1.37063
3527.34434	1.37924
3525.41578	1.38719
3523.48721	1.39067
3521.55865	1.39319
3519.63008	1.39790
3517.70152	1.40162
3515.77295	1.40354
3513.84439	1.40767
3511.91583	1.41636
3509.98726	1.42790
3508.05870	1.43784
3506.13013	1.44630
3504.20157	1.45698
3502.27300	1.46446
3500.34444	1.46493
3498.41587	1.46444
3496.48731	1.46455
3494.55875	1.46665
3492.63018	1.47304
3490.70162	1.48057
3488.77305	1.48681
3486.84449	1.49360
3484.91592	1.50185
3482.98736	1.50850
3481.05879	1.50927
3479.13023	1.50569
3477.20167	1.50409
3475.27310	1.50786
3473.34454	1.51536
3471.41597	1.52170
3469.48741	1.52420
3467.55884	1.52503
3465.63028	1.52655
3463.70171	1.52869
3461.77315	1.53082
3459.84459	1.53233
3457.91602	1.53390
3455.98746	1.53574
3454.05889	1.53620
3452.13033	1.53804
3450.20176	1.54357
3448.27320	1.54772
3446.34464	1.54748
3444.41607	1.54514
3442.48751	1.54321
3440.55894	1.54432
3438.63038	1.54804
3436.70181	1.55236
3434.77325	1.55863
3432.84468	1.56604
3430.91612	1.56720
3428.98756	1.56058
3427.05899	1.55492
3425.13043	1.55642
3423.20186	1.56200
3421.27330	1.56340
3419.34473	1.55919
3417.41617	1.55611
3415.48760	1.55762
3413.55904	1.56093
3411.63048	1.56114
3409.70191	1.55723
3407.77335	1.55358
3405.84478	1.55623
3403.91622	1.56427
3401.98765	1.57025
3400.05909	1.57197
3398.13052	1.57027
3396.20196	1.56452
3394.27340	1.55872
3392.34483	1.55761
3390.41627	1.56171
3388.48770	1.56842
3386.55914	1.57078
3384.63057	1.56646
3382.70201	1.56393
3380.77344	1.56544
3378.84488	1.56710
3376.91632	1.57065
3374.98775	1.57439
3373.05919	1.57324
3371.13062	1.57041
3369.20206	1.57176
3367.27349	1.57587
3365.34493	1.57712
3363.41636	1.57613
3361.48780	1.57800
3359.55924	1.58014
3357.63067	1.57918
3355.70211	1.58194
3353.77354	1.59011
3351.84498	1.59487
3349.91641	1.59535
3347.98785	1.59599
3346.05928	1.59567
3344.13072	1.59569
3342.20216	1.59916
3340.27359	1.60388
3338.34503	1.60680
3336.41646	1.60852
3334.48790	1.61232
3332.55933	1.61808
3330.63077	1.62051
3328.70220	1.61959
3326.77364	1.62203
3324.84508	1.62786
3322.91651	1.63166
3320.98795	1.63532
3319.05938	1.64098
3317.13082	1.64459
3315.20225	1.64635
3313.27369	1.64937
3311.34513	1.65310
3309.41656	1.65608
3307.48800	1.65897
3305.55943	1.66340
3303.63087	1.66742
3301.70230	1.66768
3299.77374	1.66649
3297.84517	1.66817
3295.91661	1.67028
3293.98805	1.66881
3292.05948	1.66615
3290.13092	1.66581
3288.20235	1.66910
3286.27379	1.67425
3284.34522	1.67761
3282.41666	1.67970
3280.48809	1.68304
3278.55953	1.68498
3276.63097	1.67993
3274.70240	1.67028
3272.77384	1.66437
3270.84527	1.66228
3268.91671	1.65919
3266.98814	1.65532
3265.05958	1.65016
3263.13101	1.64083
3261.20245	1.63106
3259.27389	1.62686
3257.34532	1.62681
3255.41676	1.62390
3253.48819	1.61424
3251.55963	1.60266
3249.63106	1.59436
3247.70250	1.58643
3245.77393	1.57761
3243.84537	1.57263
3241.91681	1.57119
3239.98824	1.56957
3238.05968	1.56437
3236.13111	1.55428
3234.20255	1.54556
3232.27398	1.54087
3230.34542	1.53555
3228.41685	1.52955
3226.48829	1.52478
3224.55973	1.51957
3222.63116	1.51253
3220.70260	1.50558
3218.77403	1.50208
3216.84547	1.50200
3214.91690	1.49953
3212.98834	1.49058
3211.05977	1.48134
3209.13121	1.47797
3207.20265	1.47699
3205.27408	1.47470
3203.34552	1.47147
3201.41695	1.46496
3199.48839	1.45545
3197.55982	1.44888
3195.63126	1.44662
3193.70269	1.44542
3191.77413	1.44269
3189.84557	1.43676
3187.91700	1.42952
3185.98844	1.42421
3184.05987	1.42037
3182.13131	1.41586
3180.20274	1.41074
3178.27418	1.40515
3176.34562	1.39907
3174.41705	1.39366
3172.48849	1.38851
3170.55992	1.38407
3168.63136	1.38197
3166.70279	1.37969
3164.77423	1.37496
3162.84566	1.36979
3160.91710	1.36578
3158.98854	1.36330
3157.05997	1.36227
3155.13141	1.36047
3153.20284	1.35692
3151.27428	1.35399
3149.34571	1.35259
3147.41715	1.35156
3145.48858	1.35014
3143.56002	1.34669
3141.63146	1.34139
3139.70289	1.33886
3137.77433	1.34095
3135.84576	1.34274
3133.91720	1.34069
3131.98863	1.33678
3130.06007	1.33386
3128.13150	1.33381
3126.20294	1.33591
3124.27438	1.33767
3122.34581	1.33863
3120.41725	1.33802
3118.48868	1.33566
3116.56012	1.33494
3114.63155	1.33735
3112.70299	1.34002
3110.77442	1.33974
3108.84586	1.33730
3106.91730	1.33654
3104.98873	1.33769
3103.06017	1.33809
3101.13160	1.33653
3099.20304	1.33308
3097.27447	1.32901
3095.34591	1.32567
3093.41734	1.32395
3091.48878	1.32374
3089.56022	1.32325
3087.63165	1.32176
3085.70309	1.31972
3083.77452	1.31669
3081.84596	1.31244
3079.91739	1.30836
3077.98883	1.30582
3076.06026	1.30399
3074.13170	1.30138
3072.20314	1.29813
3070.27457	1.29537
3068.34601	1.29300
3066.41744	1.28997
3064.48888	1.28647
3062.56031	1.28316
3060.63175	1.27963
3058.70318	1.27540
3056.77462	1.27099
3054.84606	1.26715
3052.91749	1.26464
3050.98893	1.26310
3049.06036	1.26000
3047.13180	1.25452
3045.20323	1.24845
3043.27467	1.24336
3041.34610	1.24029
3039.41754	1.23857
3037.48898	1.23666
3035.56041	1.23483
3033.63185	1.23339
3031.70328	1.23102
3029.77472	1.22750
3027.84615	1.22359
3025.91759	1.21925
3023.98903	1.21542
3022.06046	1.21321
3020.13190	1.21206
3018.20333	1.21110
3016.27477	1.20989
3014.34620	1.20847
3012.41764	1.20719
3010.48907	1.20577
3008.56051	1.20394
3006.63195	1.20167
3004.70338	1.19929
3002.77482	1.19826
3000.84625	1.19908
2998.91769	1.20020
2996.98912	1.20025
2995.06056	1.19974
2993.13199	1.20116
2991.20343	1.20553
2989.27487	1.21076
2987.34630	1.21545
2985.41774	1.22022
2983.48917	1.22553
2981.56061	1.23119
2979.63204	1.23686
2977.70348	1.24295
2975.77491	1.25033
2973.84635	1.25857
2971.91779	1.26639
2969.98922	1.27247
2968.06066	1.27658
2966.13209	1.28086
2964.20353	1.28609
2962.27496	1.28977
2960.34640	1.29012
2958.41783	1.28756
2956.48927	1.28270
2954.56071	1.27595
2952.63214	1.26899
2950.70358	1.26468
2948.77501	1.26462
2946.84645	1.26736
2944.91788	1.27067
2942.98932	1.27453
2941.06075	1.28011
2939.13219	1.28717
2937.20363	1.29453
2935.27506	1.30277
2933.34650	1.31177
2931.41793	1.31932
2929.48937	1.32491
2927.56080	1.32878
2925.63224	1.33089
2923.70367	1.33242
2921.77511	1.33497
2919.84655	1.33714
2917.91798	1.33333
2915.98942	1.32034
2914.06085	1.30124
2912.13229	1.28177
2910.20372	1.26562
2908.27516	1.25288
2906.34659	1.24293
2904.41803	1.23541
2902.48947	1.23022
2900.56090	1.22744
2898.63234	1.22590
2896.70377	1.22420
2894.77521	1.22113
2892.84664	1.21656
2890.91808	1.21243
2888.98952	1.20955
2887.06095	1.20734
2885.13239	1.20648
2883.20382	1.20681
2881.27526	1.20690
2879.34669	1.20642
2877.41813	1.20553
2875.48956	1.20485
2873.56100	1.20416
2871.63244	1.20128
2869.70387	1.19495
2867.77531	1.18686
2865.84674	1.18003
2863.91818	1.17571
2861.98961	1.17363
2860.06105	1.17390
2858.13248	1.17657
2856.20392	1.18131
2854.27536	1.18731
2852.34679	1.19312
2850.41823	1.19480
2848.48966	1.18557
2846.56110	1.16517
2844.63253	1.14319
2842.70397	1.12628
2840.77540	1.11328
2838.84684	1.10282
2836.91828	1.09527
2834.98971	1.08969
2833.06115	1.08520
2831.13258	1.08141
2829.20402	1.07752
2827.27545	1.07339
2825.34689	1.06934
2823.41832	1.06568
2821.48976	1.06303
2819.56120	1.06084
2817.63263	1.05789
2815.70407	1.05463
2813.77550	1.05179
2811.84694	1.04922
2809.91837	1.04717
2807.98981	1.04564
2806.06124	1.04408
2804.13268	1.04218
2802.20412	1.03983
2800.27555	1.03743
2798.34699	1.03508
2796.41842	1.03217
2794.48986	1.02849
2792.56129	1.02465
2790.63273	1.02134
2788.70416	1.01892
2786.77560	1.01754
2784.84704	1.01664
2782.91847	1.01486
2780.98991	1.01208
2779.06134	1.00962
2777.13278	1.00780
2775.20421	1.00599
2773.27565	1.00417
2771.34708	1.00275
2769.41852	1.00198
2767.48996	1.00171
2765.56139	1.00129
2763.63283	0.99993
2761.70426	0.99773
2759.77570	0.99524
2757.84713	0.99249
2755.91857	0.99009
2753.99001	0.98839
2752.06144	0.98656
2750.13288	0.98442
2748.20431	0.98230
2746.27575	0.98035
2744.34718	0.97910
2742.41862	0.97864
2740.49005	0.97831
2738.56149	0.97745
2736.63293	0.97587
2734.70436	0.97358
2732.77580	0.97091
2730.84723	0.96892
2728.91867	0.96831
2726.99010	0.96792
2725.06154	0.96687
2723.13297	0.96559
2721.20441	0.96391
2719.27585	0.96165
2717.34728	0.95976
2715.41872	0.95863
2713.49015	0.95722
2711.56159	0.95498
2709.63302	0.95273
2707.70446	0.95108
2705.77589	0.94986
2703.84733	0.94875
2701.91877	0.94735
2699.99020	0.94571
2698.06164	0.94403
2696.13307	0.94249
2694.20451	0.94149
2692.27594	0.94095
2690.34738	0.94035
2688.41881	0.93957
2686.49025	0.93846
2684.56169	0.93686
2682.63312	0.93555
2680.70456	0.93464
2678.77599	0.93311
2676.84743	0.93142
2674.91886	0.93071
2672.99030	0.93039
2671.06173	0.92943
2669.13317	0.92784
2667.20461	0.92599
2665.27604	0.92409
2663.34748	0.92210
2661.41891	0.92033
2659.49035	0.91932
2657.56178	0.91856
2655.63322	0.91730
2653.70465	0.91609
2651.77609	0.91535
2649.84753	0.91437
2647.91896	0.91283
2645.99040	0.91131
2644.06183	0.91024
2642.13327	0.90934
2640.20470	0.90802
2638.27614	0.90660
2636.34757	0.90570
2634.41901	0.90509
2632.49045	0.90426
2630.56188	0.90293
2628.63332	0.90142
2626.70475	0.90022
2624.77619	0.89932
2622.84762	0.89856
2620.91906	0.89751
2618.99049	0.89612
2617.06193	0.89480
2615.13337	0.89360
2613.20480	0.89238
2611.27624	0.89138
2609.34767	0.89076
2607.41911	0.88995
2605.49054	0.88855
2603.56198	0.88705
2601.63342	0.88577
2599.70485	0.88447
2597.77629	0.88281
2595.84772	0.88097
2593.91916	0.87942
2591.99059	0.87828
2590.06203	0.87748
2588.13346	0.87668
2586.20490	0.87544
2584.27634	0.87419
2582.34777	0.87337
2580.41921	0.87243
2578.49064	0.87106
2576.56208	0.86981
2574.63351	0.86872
2572.70495	0.86725
2570.77638	0.86569
2568.84782	0.86453
2566.91926	0.86360
2564.99069	0.86262
2563.06213	0.86146
2561.13356	0.85991
2559.20500	0.85840
2557.27643	0.85731
2555.34787	0.85628
2553.41930	0.85511
2551.49074	0.85376
2549.56218	0.85213
2547.63361	0.85060
2545.70505	0.84931
2543.77648	0.84813
2541.84792	0.84734
2539.91935	0.84687
2537.99079	0.84619
2536.06222	0.84518
2534.13366	0.84393
2532.20510	0.84243
2530.27653	0.84076
2528.34797	0.83932
2526.41940	0.83802
2524.49084	0.83620
2522.56227	0.83434
2520.63371	0.83329
2518.70514	0.83264
2516.77658	0.83179
2514.84802	0.83080
2512.91945	0.83002
2510.99089	0.82951
2509.06232	0.82882
2507.13376	0.82771
2505.20519	0.82656
2503.27663	0.82552
2501.34806	0.82443
2499.41950	0.82335
2497.49094	0.82207
2495.56237	0.82032
2493.63381	0.81828
2491.70524	0.81650
2489.77668	0.81533
2487.84811	0.81429
2485.91955	0.81300
2483.99098	0.81183
2482.06242	0.81073
2480.13386	0.80922
2478.20529	0.80756
2476.27673	0.80618
2474.34816	0.80529
2472.41960	0.80464
2470.49103	0.80368
2468.56247	0.80253
2466.63391	0.80155
2464.70534	0.80034
2462.77678	0.79868
2460.84821	0.79710
2458.91965	0.79599
2456.99108	0.79528
2455.06252	0.79460
2453.13395	0.79337
2451.20539	0.79155
2449.27683	0.78999
2447.34826	0.78913
2445.41970	0.78826
2443.49113	0.78687
2441.56257	0.78529
2439.63400	0.78389
2437.70544	0.78261
2435.77687	0.78124
2433.84831	0.77979
2431.91975	0.77845
2429.99118	0.77715
2428.06262	0.77559
2426.13405	0.77383
2424.20549	0.77218
2422.27692	0.77047
2420.34836	0.76854
2418.41979	0.76674
2416.49123	0.76535
2414.56267	0.76445
2412.63410	0.76374
2410.70554	0.76262
2408.77697	0.76118
2406.84841	0.75984
2404.91984	0.75843
2402.99128	0.75689
2401.06271	0.75546
2399.13415	0.75427
2397.20559	0.75351
2395.27702	0.75297
2393.34846	0.75216
2391.41989	0.75098
2389.49133	0.74971
2387.56276	0.74850
2385.63420	0.74733
2383.70563	0.74620
2381.77707	0.74508
2379.84851	0.74369
2377.91994	0.74186
2375.99138	0.73999
2374.06281	0.73839
2372.13425	0.73700
2370.20568	0.73569
2368.27712	0.73503
2366.34855	0.73478
2364.41999	0.73291
2362.49143	0.72985
2360.56286	0.72769
2358.63430	0.72714
2356.70573	0.72784
2354.77717	0.72783
2352.84860	0.72666
2350.92004	0.72491
2348.99147	0.72255
2347.06291	0.72011
2345.13435	0.71857
2343.20578	0.71780
2341.27722	0.71702
2339.34865	0.71692
2337.42009	0.71752
2335.49152	0.71778
2333.56296	0.71784
2331.63440	0.71840
2329.70583	0.71895
2327.77727	0.71863
2325.84870	0.71707
2323.92014	0.71475
2321.99157	0.71274
2320.06301	0.71132
2318.13444	0.71028
2316.20588	0.70947
2314.27732	0.70854
2312.34875	0.70706
2310.42019	0.70549
2308.49162	0.70434
2306.56306	0.70323
2304.63449	0.70194
2302.70593	0.70078
2300.77736	0.69977
2298.84880	0.69862
2296.92024	0.69746
2294.99167	0.69656
2293.06311	0.69563
2291.13454	0.69443
2289.20598	0.69336
2287.27741	0.69258
2285.34885	0.69187
2283.42028	0.69103
2281.49172	0.69020
2279.56316	0.68963
2277.63459	0.68928
2275.70603	0.68889
2273.77746	0.68837
2271.84890	0.68791
2269.92033	0.68749
2267.99177	0.68693
2266.06320	0.68610
2264.13464	0.68514
2262.20608	0.68434
2260.27751	0.68359
2258.34895	0.68248
2256.42038	0.68104
2254.49182	0.67970
2252.56325	0.67849
2250.63469	0.67731
2248.70612	0.67615
2246.77756	0.67503
2244.84900	0.67415
2242.92043	0.67360
2240.99187	0.67316
2239.06330	0.67260
2237.13474	0.67195
2235.20617	0.67121
2233.27761	0.67029
2231.34904	0.66928
2229.42048	0.66828
2227.49192	0.66738
2225.56335	0.66651
2223.63479	0.66566
2221.70622	0.66505
2219.77766	0.66457
2217.84909	0.66391
2215.92053	0.66327
2213.99196	0.66288
2212.06340	0.66248
2210.13484	0.66186
2208.20627	0.66119
2206.27771	0.66071
2204.34914	0.66039
2202.42058	0.65988
2200.49201	0.65917
2198.56345	0.65868
2196.63488	0.65847
2194.70632	0.65811
2192.77776	0.65752
2190.84919	0.65696
2188.92063	0.65631
2186.99206	0.65528
2185.06350	0.65401
2183.13493	0.65286
2181.20637	0.65188
2179.27781	0.65106
2177.34924	0.65033
2175.42068	0.64941
2173.49211	0.64827
2171.56355	0.64721
2169.63498	0.64643
2167.70642	0.64583
2165.77785	0.64533
2163.84929	0.64487
2161.92073	0.64416
2159.99216	0.64327
2158.06360	0.64256
2156.13503	0.64194
2154.20647	0.64123
2152.27790	0.64046
2150.34934	0.63967
2148.42077	0.63894
2146.49221	0.63832
2144.56365	0.63766
2142.63508	0.63682
2140.70652	0.63594
2138.77795	0.63518
2136.84939	0.63452
2134.92082	0.63394
2132.99226	0.63336
2131.06369	0.63260
2129.13513	0.63175
2127.20657	0.63097
2125.27800	0.63008
2123.34944	0.62906
2121.42087	0.62815
2119.49231	0.62740
2117.56374	0.62663
2115.63518	0.62570
2113.70661	0.62461
2111.77805	0.62348
2109.84949	0.62240
2107.92092	0.62145
2105.99236	0.62054
2104.06379	0.61944
2102.13523	0.61819
2100.20666	0.61708
2098.27810	0.61617
2096.34953	0.61517
2094.42097	0.61408
2092.49241	0.61313
2090.56384	0.61218
2088.63528	0.61098
2086.70671	0.60965
2084.77815	0.60843
2082.84958	0.60737
2080.92102	0.60636
2078.99245	0.60529
2077.06389	0.60425
2075.13533	0.60329
2073.20676	0.60235
2071.27820	0.60144
2069.34963	0.60055
2067.42107	0.59962
2065.49250	0.59865
2063.56394	0.59749
2061.63537	0.59617
2059.70681	0.59498
2057.77825	0.59378
2055.84968	0.59232
2053.92112	0.59072
2051.99255	0.58917
2050.06399	0.58774
2048.13542	0.58642
2046.20686	0.58516
2044.27830	0.58401
2042.34973	0.58294
2040.42117	0.58172
2038.49260	0.58032
2036.56404	0.57907
2034.63547	0.57803
2032.70691	0.57704
2030.77834	0.57605
2028.84978	0.57504
2026.92122	0.57390
2024.99265	0.57256
2023.06409	0.57115
2021.13552	0.56985
2019.20696	0.56869
2017.27839	0.56743
2015.34983	0.56578
2013.42126	0.56398
2011.49270	0.56234
2009.56414	0.56077
2007.63557	0.55933
2005.70701	0.55811
2003.77844	0.55707
2001.84988	0.55615
1999.92131	0.55529
1997.99275	0.55440
1996.06418	0.55345
1994.13562	0.55256
1992.20706	0.55170
1990.27849	0.55060
1988.34993	0.54932
1986.42136	0.54793
1984.49280	0.54637
1982.56423	0.54490
1980.63567	0.54364
1978.70710	0.54239
1976.77854	0.54113
1974.84998	0.53996
1972.92141	0.53879
1970.99285	0.53758
1969.06428	0.53659
1967.13572	0.53592
1965.20715	0.53507
1963.27859	0.53393
1961.35002	0.53292
1959.42146	0.53214
1957.49290	0.53137
1955.56433	0.53043
1953.63577	0.52920
1951.70720	0.52776
1949.77864	0.52636
1947.85007	0.52505
1945.92151	0.52367
1943.99294	0.52234
1942.06438	0.52111
1940.13582	0.51956
1938.20725	0.51776
1936.27869	0.51612
1934.35012	0.51473
1932.42156	0.51351
1930.49299	0.51254
1928.56443	0.51194
1926.63586	0.51146
1924.70730	0.51097
1922.77874	0.51055
1920.85017	0.50991
1918.92161	0.50934
1916.99304	0.50895
1915.06448	0.50796
1913.13591	0.50667
1911.20735	0.50575
1909.27878	0.50507
1907.35022	0.50415
1905.42166	0.50297
1903.49309	0.50174
1901.56453	0.50058
1899.63596	0.49951
1897.70740	0.49864
1895.77883	0.49802
1893.85027	0.49731
1891.92171	0.49648
1889.99314	0.49601
1888.06458	0.49534
1886.13601	0.49412
1884.20745	0.49292
1882.27888	0.49181
1880.35032	0.49063
1878.42175	0.48948
1876.49319	0.48837
1874.56463	0.48706
1872.63606	0.48565
1870.70750	0.48499
1868.77893	0.48544
1866.85037	0.48512
1864.92180	0.48349
1862.99324	0.48205
1861.06467	0.48132
1859.13611	0.48109
1857.20755	0.48100
1855.27898	0.48073
1853.35042	0.48033
1851.42185	0.48001
1849.49329	0.47984
1847.56472	0.47971
1845.63616	0.47998
1843.70759	0.48057
1841.77903	0.47981
1839.85047	0.47823
1837.92190	0.47717
1835.99334	0.47656
1834.06477	0.47563
1832.13621	0.47498
1830.20764	0.47549
1828.27908	0.47570
1826.35051	0.47504
1824.42195	0.47487
1822.49339	0.47475
1820.56482	0.47426
1818.63626	0.47401
1816.70769	0.47400
1814.77913	0.47392
1812.85056	0.47404
1810.92200	0.47461
1808.99343	0.47499
1807.06487	0.47472
1805.13631	0.47425
1803.20774	0.47422
1801.27918	0.47501
1799.35061	0.47571
1797.42205	0.47548
1795.49348	0.47504
1793.56492	0.47582
1791.63635	0.47799
1789.70779	0.47850
1787.77923	0.47776
1785.85066	0.47786
1783.92210	0.47881
1781.99353	0.48006
1780.06497	0.48159
1778.13640	0.48270
1776.20784	0.48330
1774.27927	0.48494
1772.35071	0.48855
1770.42215	0.49107
1768.49358	0.49173
1766.56502	0.49222
1764.63645	0.49309
1762.70789	0.49565
1760.77932	0.49954
1758.85076	0.50279
1756.92220	0.50676
1754.99363	0.51075
1753.06507	0.51431
1751.13650	0.52101
1749.20794	0.53104
1747.27937	0.53868
1745.35081	0.54377
1743.42224	0.54877
1741.49368	0.55443
1739.56512	0.56002
1737.63655	0.56337
1735.70799	0.56631
1733.77942	0.57369
1731.85086	0.58012
1729.92229	0.58315
1727.99373	0.58652
1726.06516	0.59099
1724.13660	0.59750
1722.20804	0.60443
1720.27947	0.61085
1718.35091	0.62243
1716.42234	0.64222
1714.49378	0.65691
1712.56521	0.66757
1710.63665	0.68038
1708.70808	0.69679
1706.77952	0.72133
1704.85096	0.75377
1702.92239	0.78314
1700.99383	0.82379
1699.06526	0.88835
1697.13670	0.94770
1695.20813	1.00337
1693.27957	1.04428
1691.35100	1.07701
1689.42244	1.11813
1687.49388	1.15773
1685.56531	1.19940
1683.63675	1.26417
1681.70818	1.31028
1679.77962	1.33428
1677.85105	1.35518
1675.92249	1.38095
1673.99392	1.41029
1672.06536	1.43310
1670.13680	1.45509
1668.20823	1.47642
1666.27967	1.48671
1664.35110	1.49584
1662.42254	1.50994
1660.49397	1.52019
1658.56541	1.52381
1656.63684	1.52446
1654.70828	1.52746
1652.77972	1.53363
1650.85115	1.53289
1648.92259	1.52997
1646.99402	1.52669
1645.06546	1.52141
1643.13689	1.51545
1641.20833	1.51279
1639.27976	1.51221
1637.35120	1.51201
1635.42264	1.50991
1633.49407	1.50368
1631.56551	1.49760
1629.63694	1.49018
1627.70838	1.47975
1625.77981	1.46726
1623.85125	1.45153
1621.92269	1.43067
1619.99412	1.40941
1618.06556	1.38147
1616.13699	1.33776
1614.20843	1.29939
1612.27986	1.26910
1610.35130	1.23830
1608.42273	1.20748
1606.49417	1.18089
1604.56561	1.16019
1602.63704	1.14430
1600.70848	1.13275
1598.77991	1.12497
1596.85135	1.12045
1594.92278	1.11834
1592.99422	1.11769
1591.06565	1.11937
1589.13709	1.12404
1587.20853	1.13098
1585.27996	1.14033
1583.35140	1.15314
1581.42283	1.16762
1579.49427	1.18111
1577.56570	1.19815
1575.63714	1.22309
1573.70857	1.24029
1571.78001	1.25201
1569.85145	1.27114
1567.92288	1.29158
1565.99432	1.30495
1564.06575	1.31678
1562.13719	1.32590
1560.20862	1.33773
1558.28006	1.36635
1556.35149	1.38037
1554.42293	1.38338
1552.49437	1.38450
1550.56580	1.38519
1548.63724	1.38614
1546.70867	1.38618
1544.78011	1.38525
1542.85154	1.38520
1540.92298	1.38382
1538.99441	1.37221
1537.06585	1.36282
1535.13729	1.35702
1533.20872	1.35035
1531.28016	1.34100
1529.35159	1.33168
1527.42303	1.32375
1525.49446	1.31802
1523.56590	1.31480
1521.63733	1.31358
1519.70877	1.31285
1517.78021	1.30717
1515.85164	1.29355
1513.92308	1.27532
1511.99451	1.25560
1510.06595	1.23574
1508.13738	1.20663
1506.20882	1.15901
1504.28025	1.13072
1502.35169	1.11210
1500.42313	1.09249
1498.49456	1.06927
1496.56600	1.04086
1494.63743	1.01639
1492.70887	0.99953
1490.78030	0.98305
1488.85174	0.96279
1486.92317	0.94604
1484.99461	0.93480
1483.06605	0.92725
1481.13748	0.92329
1479.20892	0.92303
1477.28035	0.92679
1475.35179	0.93604
1473.42322	0.95358
1471.49466	0.97261
1469.56610	0.98235
1467.63753	0.98880
1465.70897	0.99837
1463.78040	1.00899
1461.85184	1.01452
1459.92327	1.01837
1457.99471	1.02952
1456.06614	1.04404
1454.13758	1.04625
1452.20902	1.04433
1450.28045	1.04262
1448.35189	1.04091
1446.42332	1.03754
1444.49476	1.03263
1442.56619	1.02709
1440.63763	1.02119
1438.70906	1.01468
1436.78050	1.00617
1434.85194	0.99632
1432.92337	0.98750
1430.99481	0.97934
1429.06624	0.97164
1427.13768	0.96544
1425.20911	0.96202
1423.28055	0.96166
1421.35198	0.96304
1419.42342	0.96617
1417.49486	0.96875
1415.56629	0.96795
1413.63773	0.96667
1411.70916	0.96652
1409.78060	0.96688
1407.85203	0.96741
1405.92347	0.96945
1403.99490	0.97283
1402.06634	0.97543
1400.13778	0.97772
1398.20921	0.98042
1396.28065	0.98319
1394.35208	0.98595
1392.42352	0.98841
1390.49495	0.99177
1388.56639	0.99921
1386.63782	1.01133
1384.70926	1.02258
1382.78070	1.03157
1380.85213	1.03877
1378.92357	1.04128
1376.99500	1.03738
1375.06644	1.02732
1373.13787	1.01258
1371.20931	0.99652
1369.28074	0.97905
1367.35218	0.96075
1365.42362	0.94466
1363.49505	0.93023
1361.56649	0.91718
1359.63792	0.90779
1357.70936	0.90173
1355.78079	0.89755
1353.85223	0.89439
1351.92366	0.89195
1349.99510	0.89019
1348.06654	0.88903
1346.13797	0.88836
1344.20941	0.88836
1342.28084	0.88941
1340.35228	0.89240
1338.42371	0.89700
1336.49515	0.90196
1334.56659	0.90832
1332.63802	0.91704
1330.70946	0.92706
1328.78089	0.93594
1326.85233	0.94198
1324.92376	0.94549
1322.99520	0.94782
1321.06663	0.95022
1319.13807	0.95295
1317.20951	0.95500
1315.28094	0.95572
1313.35238	0.95537
1311.42381	0.95433
1309.49525	0.95279
1307.56668	0.95086
1305.63812	0.94857
1303.70955	0.94590
1301.78099	0.94279
1299.85243	0.93923
1297.92386	0.93532
1295.99530	0.93157
1294.06673	0.92861
1292.13817	0.92688
1290.20960	0.92634
1288.28104	0.92639
1286.35247	0.92639
1284.42391	0.92588
1282.49535	0.92492
1280.56678	0.92399
1278.63822	0.92350
1276.70965	0.92386
1274.78109	0.92564
1272.85252	0.92899
1270.92396	0.93355
1268.99539	0.93910
1267.06683	0.94537
1265.13827	0.95145
1263.20970	0.95639
1261.28114	0.95991
1259.35257	0.96261
1257.42401	0.96514
1255.49544	0.96748
1253.56688	0.96951
1251.63831	0.97100
1249.70975	0.97170
1247.78119	0.97174
1245.85262	0.97126
1243.92406	0.97016
1241.99549	0.96887
1240.06693	0.96758
1238.13836	0.96542
1236.20980	0.96196
1234.28123	0.95781
1232.35267	0.95325
1230.42411	0.94817
1228.49554	0.94258
1226.56698	0.93668
1224.63841	0.93057
1222.70985	0.92412
1220.78128	0.91751
1218.85272	0.91129
1216.92415	0.90602
1214.99559	0.90219
1213.06703	0.90003
1211.13846	0.89932
1209.20990	0.89906
1207.28133	0.89761
1205.35277	0.89363
1203.42420	0.88680
1201.49564	0.87784
1199.56708	0.86827
1197.63851	0.85926
1195.70995	0.85101
1193.78138	0.84403
1191.85282	0.83933
1189.92425	0.83695
1187.99569	0.83599
1186.06712	0.83594
1184.13856	0.83690
1182.21000	0.83915
1180.28143	0.84284
1178.35287	0.84845
1176.42430	0.85622
1174.49574	0.86506
1172.56717	0.87396
1170.63861	0.88329
1168.71004	0.89416
1166.78148	0.90734
1164.85292	0.92186
1162.92435	0.93477
1160.99579	0.94344
1159.06722	0.94665
1157.13866	0.94439
1155.21009	0.93782
1153.28153	0.92812
1151.35296	0.91599
1149.42440	0.90238
1147.49584	0.88915
1145.56727	0.87818
1143.63871	0.87015
1141.71014	0.86525
1139.78158	0.86348
1137.85301	0.86469
1135.92445	0.86909
1133.99588	0.87690
1132.06732	0.88801
1130.13876	0.90222
1128.21019	0.91868
1126.28163	0.93585
1124.35306	0.95246
1122.42450	0.96748
1120.49593	0.97983
1118.56737	0.98897
1116.63880	0.99452
1114.71024	0.99533
1112.78168	0.99118
1110.85311	0.98445
1108.92455	0.97798
1106.99598	0.97251
1105.06742	0.96734
1103.13885	0.96252
1101.21029	0.95902
1099.28172	0.95826
1097.35316	0.96138
1095.42460	0.96846
1093.49603	0.97949
1091.56747	0.99475
1089.63890	1.01377
1087.71034	1.03571
1085.78177	1.05936
1083.85321	1.08220
1081.92464	1.10135
1079.99608	1.11431
1078.06752	1.11865
1076.13895	1.11448
1074.21039	1.10546
1072.28182	1.09427
1070.35326	1.08087
1068.42469	1.06611
1066.49613	1.05170
1064.56756	1.03814
1062.63900	1.02513
1060.71044	1.01277
1058.78187	1.00180
1056.85331	0.99227
1054.92474	0.98377
1052.99618	0.97693
1051.06761	0.97255
1049.13905	0.97113
1047.21049	0.97314
1045.28192	0.97852
1043.35336	0.98700
1041.42479	0.99735
1039.49623	1.00680
1037.56766	1.01342
1035.63910	1.01704
1033.71053	1.01780
1031.78197	1.01566
1029.85341	1.01046
1027.92484	1.00227
1025.99628	0.99186
1024.06771	0.98040
1022.13915	0.96966
1020.21058	0.96169
1018.28202	0.95574
1016.35345	0.94879
1014.42489	0.93890
1012.49633	0.92494
1010.56776	0.90666
1008.63920	0.88579
1006.71063	0.86495
1004.78207	0.84584
1002.85350	0.82878
1000.92494	0.81386
998.99637	0.80183
997.06781	0.79316
995.13925	0.78686
993.21068	0.78126
991.28212	0.77530
989.35355	0.76846
987.42499	0.76097
985.49642	0.75427
983.56786	0.74953
981.63929	0.74647
979.71073	0.74428
977.78217	0.74209
975.85360	0.73910
973.92504	0.73469
971.99647	0.72838
970.06791	0.72039
968.13934	0.71185
966.21078	0.70425
964.28221	0.69886
962.35365	0.69709
960.42509	0.70048
958.49652	0.70888
956.56796	0.71889
954.63939	0.72544
952.71083	0.72555
950.78226	0.71993
948.85370	0.71124
946.92513	0.70232
944.99657	0.69527
943.06801	0.69050
941.13944	0.68712
939.21088	0.68435
937.28231	0.68223
935.35375	0.68091
933.42518	0.68010
931.49662	0.67956
929.56805	0.67966
927.63949	0.68104
925.71093	0.68392
923.78236	0.68779
921.85380	0.69150
919.92523	0.69407
917.99667	0.69540
916.06810	0.69612
914.13954	0.69691
912.21098	0.69787
910.28241	0.69907
908.35385	0.70121
906.42528	0.70461
904.49672	0.70834
902.56815	0.71133
900.63959	0.71289
898.71102	0.71321
896.78246	0.71293
894.85390	0.71194
892.92533	0.71007
890.99677	0.70806
889.06820	0.70664
887.13964	0.70591
885.21107	0.70587
883.28251	0.70657
881.35394	0.70785
879.42538	0.70948
877.49682	0.71123
875.56825	0.71272
873.63969	0.71346
871.71112	0.71341
869.78256	0.71304
867.85399	0.71272
865.92543	0.71276
863.99686	0.71346
862.06830	0.71508
860.13974	0.71770
858.21117	0.72103
856.28261	0.72500
854.35404	0.72964
852.42548	0.73481
850.49691	0.74021
848.56835	0.74545
846.63978	0.75041
844.71122	0.75519
842.78266	0.75984
840.85409	0.76417
838.92553	0.76768
836.99696	0.77027
835.06840	0.77226
833.13983	0.77352
831.21127	0.77397
829.28270	0.77349
827.35414	0.77226
825.42558	0.77135
823.49701	0.77121
821.56845	0.77147
819.63988	0.77244
817.71132	0.77469
815.78275	0.77819
813.85419	0.78254
811.92562	0.78730
809.99706	0.79248
808.06850	0.79789
806.13993	0.80273
804.21137	0.80650
802.28280	0.80937
800.35424	0.81166
798.42567	0.81343
796.49711	0.81446
794.56854	0.81493
792.63998	0.81522
790.71142	0.81542
788.78285	0.81585
786.85429	0.81698
784.92572	0.81926
782.99716	0.82299
781.06859	0.82757
779.14003	0.83230
777.21147	0.83740
775.28290	0.84318
773.35434	0.84990
771.42577	0.85728
769.49721	0.86434
767.56864	0.87064
765.64008	0.87576
763.71151	0.87933
761.78295	0.88171
759.85439	0.88329
757.92582	0.88428
755.99726	0.88499
754.06869	0.88585
752.14013	0.88714
750.21156	0.88926
748.28300	0.89275
746.35443	0.89670
744.42587	0.89980
742.49731	0.90305
740.56874	0.90759
738.64018	0.91276
736.71161	0.91808
734.78305	0.92361
732.85448	0.92925
730.92592	0.93496
728.99735	0.94000
727.06879	0.94326
725.14023	0.94454
723.21166	0.94453
721.28310	0.94409
719.35453	0.94366
717.42597	0.94315
715.49740	0.94306
713.56884	0.94433
711.64027	0.94675
709.71171	0.94999
707.78315	0.95454
705.85458	0.96005
703.92602	0.96550
701.99745	0.97120
700.06889	0.97762
698.14032	0.98324
696.21176	0.98670
694.28319	0.98852
692.35463	0.98919
690.42607	0.98883
688.49750	0.98777
686.56894	0.98536
684.64037	0.98099
682.71181	0.97642
680.78324	0.97332
678.85468	0.97104
676.92611	0.96977
674.99755	0.97062
673.06899	0.97274
671.14042	0.97474
669.21186	0.97773
667.28329	0.98377
665.35473	0.98994
663.42616	0.99542
661.49760	1.00044
659.56903	1.00468
657.64047	1.00778
655.71191	1.00873
653.78334	1.00864
651.85478	1.00943
649.92621	1.01047
647.99765	1.01101
646.06908	1.01152
644.14052	1.01155
642.21195	1.01158
640.28339	1.01323
638.35483	1.01594
636.42626	1.01862
634.49770	1.02112
632.56913	1.02244
630.64057	1.02205
628.71200	1.02105
626.78344	1.01989
624.85488	1.01922
622.92631	1.02047
620.99775	1.02183
619.06918	1.02088
617.14062	1.01904
615.21205	1.01721
613.28349	1.01397
611.35492	1.01068
609.42636	1.00913
607.49780	1.00781
605.56923	1.00740
603.64067	1.01002
601.71210	1.01340
599.78354	1.01526
