3997.91406	0.96860
3995.98550	0.96843
3994.05693	0.96741
3992.12837	0.96634
3990.19980	0.96581
3988.27124	0.96570
3986.34268	0.96532
3984.41411	0.96360
3982.48555	0.96068
3980.55698	0.95875
3978.62842	0.95912
3976.69985	0.96060
3974.77129	0.96132
3972.84272	0.96049
3970.91416	0.95869
3968.98560	0.95697
3967.05703	0.95623
3965.12847	0.95600
3963.19990	0.95532
3961.27134	0.95531
3959.34277	0.95648
3957.41421	0.95670
3955.48564	0.95483
3953.55708	0.95291
3951.62852	0.95317
3949.69995	0.95429
3947.77139	0.95430
3945.84282	0.95433
3943.91426	0.95452
3941.98569	0.95339
3940.05713	0.95165
3938.12856	0.95053
3936.20000	0.95062
3934.27144	0.95202
3932.34287	0.95234
3930.41431	0.94973
3928.48574	0.94716
3926.55718	0.94646
3924.62861	0.94642
3922.70005	0.94504
3920.77148	0.94227
3918.84292	0.93994
3916.91436	0.93920
3914.98579	0.93914
3913.05723	0.93887
3911.12866	0.93872
3909.20010	0.93866
3907.27153	0.93804
3905.34297	0.93737
3903.41440	0.93757
3901.48584	0.93650
3899.55728	0.93238
3897.62871	0.92843
3895.70015	0.92768
3893.77158	0.92955
3891.84302	0.93131
3889.91445	0.93026
3887.98589	0.92792
3886.05733	0.92544
3884.12876	0.92363
3882.20020	0.92390
3880.27163	0.92552
3878.34307	0.92658
3876.41450	0.92700
3874.48594	0.92660
3872.55737	0.92521
3870.62881	0.92345
3868.70025	0.92191
3866.77168	0.92156
3864.84312	0.92138
3862.91455	0.91954
3860.98599	0.91761
3859.05742	0.91698
3857.12886	0.91767
3855.20029	0.92100
3853.27173	0.92520
3851.34317	0.92281
3849.41460	0.91934
3847.48604	0.91749
3845.55747	0.91646
3843.62891	0.91615
3841.70034	0.91754
3839.77178	0.91982
3837.84321	0.91985
3835.91465	0.91777
3833.98609	0.91525
3832.05752	0.91273
3830.12896	0.91163
3828.20039	0.91099
3826.27183	0.90833
3824.34326	0.90496
3822.41470	0.90307
3820.48613	0.90273
3818.55757	0.90289
3816.62901	0.90359
3814.70044	0.90527
3812.77188	0.90643
3810.84331	0.90635
3808.91475	0.90587
3806.98618	0.90605
3805.05762	0.90702
3803.12905	0.90841
3801.20049	0.90812
3799.27193	0.90532
3797.34336	0.90289
3795.41480	0.90133
3793.48623	0.90013
3791.55767	0.89917
3789.62910	0.89854
3787.70054	0.89869
3785.77197	0.89916
3783.84341	0.89854
3781.91485	0.89767
3779.98628	0.89733
3778.05772	0.89659
3776.12915	0.89631
3774.20059	0.89742
3772.27202	0.89875
3770.34346	0.89844
3768.41489	0.89683
3766.48633	0.89639
3764.55777	0.89682
3762.62920	0.89660
3760.70064	0.89566
3758.77207	0.89450
3756.84351	0.89443
3754.91494	0.89617
3752.98638	0.89835
3751.05781	0.89795
3749.12925	0.89534
3747.20069	0.89379
3745.27212	0.89216
3743.34356	0.89084
3741.41499	0.89151
3739.48643	0.89314
3737.55786	0.89475
3735.62930	0.89566
3733.70074	0.89498
3731.77217	0.89268
3729.84361	0.89041
3727.91504	0.88963
3725.98648	0.88922
3724.05791	0.88750
3722.12935	0.88728
3720.20078	0.89003
3718.27222	0.89200
3716.34366	0.89195
3714.41509	0.89286
3712.48653	0.89570
3710.55796	0.89523
3708.62940	0.89192
3706.70083	0.89115
3704.77227	0.89263
3702.84370	0.89404
3700.91514	0.89405
3698.98658	0.89452
3697.05801	0.89644
3695.12945	0.89860
3693.20088	0.90106
3691.27232	0.90488
3689.34375	0.90758
3687.41519	0.90706
3685.48662	0.90700
3683.55806	0.90837
3681.62950	0.91045
3679.70093	0.91299
3677.77237	0.91666
3675.84380	0.92285
3673.91524	0.92733
3671.98667	0.92855
3670.05811	0.93132
3668.12954	0.93534
3666.20098	0.93880
3664.27242	0.94335
3662.34385	0.94873
3660.41529	0.95352
3658.48672	0.95765
3656.55816	0.96243
3654.62959	0.96748
3652.70103	0.97236
3650.77246	0.97925
3648.84390	0.98873
3646.91534	0.99674
3644.98677	1.00301
3643.05821	1.00834
3641.12964	1.01381
3639.20108	1.02071
3637.27251	1.02802
3635.34395	1.03418
3633.41538	1.03994
3631.48682	1.04683
3629.55826	1.05674
3627.62969	1.06653
3625.70113	1.07241
3623.77256	1.07706
3621.84400	1.08200
3619.91543	1.08992
3617.98687	1.10079
3616.05830	1.11048
3614.12974	1.11785
3612.20118	1.12163
3610.27261	1.12351
3608.34405	1.12938
3606.41548	1.13990
3604.48692	1.14876
3602.55835	1.15559
3600.62979	1.16255
3598.70123	1.16920
3596.77266	1.17599
3594.84410	1.18536
3592.91553	1.19633
3590.98697	1.20597
3589.05840	1.21542
3587.12984	1.22408
3585.20127	1.22968
3583.27271	1.23563
3581.34415	1.24419
3579.41558	1.25404
3577.48702	1.26255
3575.55845	1.26987
3573.62989	1.27811
3571.70132	1.28891
3569.77276	1.30168
3567.84419	1.31403
3565.91563	1.32228
3563.98707	1.32790
3562.05850	1.33451
3560.12994	1.34062
3558.20137	1.34636
3556.27281	1.35390
3554.34424	1.36161
3552.41568	1.36802
3550.48711	1.37343
3548.55855	1.37963
3546.62999	1.38881
3544.70142	1.39721
3542.77286	1.40176
3540.84429	1.40653
3538.91573	1.41290
3536.98716	1.42050
3535.05860	1.43041
3533.13003	1.44121
3531.20147	1.45099
3529.27291	1.45919
3527.34434	1.46542
3525.41578	1.47036
3523.48721	1.47570
3521.55865	1.48367
3519.63008	1.49389
3517.70152	1.50393
3515.77295	1.51280
3513.84439	1.52080
3511.91583	1.52847
3509.98726	1.53682
3508.05870	1.54463
3506.13013	1.55179
3504.20157	1.56124
3502.27300	1.57130
3500.34444	1.57958
3498.41587	1.58786
3496.48731	1.59514
3494.55875	1.59949
3492.63018	1.60202
3490.70162	1.60439
3488.77305	1.60637
3486.84449	1.60621
3484.91592	1.60686
3482.98736	1.61526
3481.05879	1.62705
3479.13023	1.63375
3477.20167	1.64041
3475.27310	1.64734
3473.34454	1.64924
3471.41597	1.65073
3469.48741	1.65538
3467.55884	1.66000
3465.63028	1.66451
3463.70171	1.67004
3461.77315	1.67234
3459.84459	1.66963
3457.91602	1.66771
3455.98746	1.67142
3454.05889	1.67660
3452.13033	1.67899
3450.20176	1.68413
3448.27320	1.69215
3446.34464	1.69395
3444.41607	1.69099
3442.48751	1.69299
3440.55894	1.70223
3438.63038	1.71255
3436.70181	1.71810
3434.77325	1.71929
3432.84468	1.72129
3430.91612	1.72444
3428.98756	1.72062
3427.05899	1.70967
3425.13043	1.70277
3423.20186	1.70372
3421.27330	1.70608
3419.34473	1.70562
3417.41617	1.70745
3415.48760	1.71561
3413.55904	1.72368
3411.63048	1.72500
3409.70191	1.72227
3407.77335	1.72092
3405.84478	1.72112
3403.91622	1.72154
3401.98765	1.72544
3400.05909	1.73107
3398.13052	1.73141
3396.20196	1.72909
3394.27340	1.72895
3392.34483	1.72741
3390.41627	1.72609
3388.48770	1.73150
3386.55914	1.73882
3384.63057	1.73825
3382.70201	1.73042
3380.77344	1.72596
3378.84488	1.73226
3376.91632	1.74148
3374.98775	1.74257
3373.05919	1.74395
3371.13062	1.75568
3369.20206	1.76671
3367.27349	1.76816
3365.34493	1.76774
3363.41636	1.76847
3361.48780	1.76670
3359.55924	1.76237
3357.63067	1.75998
3355.70211	1.76423
3353.77354	1.77284
3351.84498	1.77660
3349.91641	1.77023
3347.98785	1.76001
3346.05928	1.75518
3344.13072	1.75730
3342.20216	1.76289
3340.27359	1.77010
3338.34503	1.77509
3336.41646	1.77408
3334.48790	1.77265
3332.55933	1.77393
3330.63077	1.77429
3328.70220	1.77813
3326.77364	1.78557
3324.84508	1.78661
3322.91651	1.78750
3320.98795	1.79569
3319.05938	1.79815
3317.13082	1.79120
3315.20225	1.78605
3313.27369	1.78421
3311.34513	1.78349
3309.41656	1.78647
3307.48800	1.79012
3305.55943	1.78788
3303.63087	1.78212
3301.70230	1.77957
3299.77374	1.78223
3297.84517	1.78788
3295.91661	1.79555
3293.98805	1.80093
3292.05948	1.79516
3290.13092	1.78520
3288.20235	1.78459
3286.27379	1.78871
3284.34522	1.78681
3282.41666	1.77732
3280.48809	1.76864
3278.55953	1.76978
3276.63097	1.77548
3274.70240	1.77527
3272.77384	1.77262
3270.84527	1.77464
3268.91671	1.77649
3266.98814	1.77073
3265.05958	1.76001
3263.13101	1.75180
3261.20245	1.74906
3259.27389	1.74923
3257.34532	1.74873
3255.41676	1.74611
3253.48819	1.74259
3251.55963	1.74155
3249.63106	1.74282
3247.70250	1.74129
3245.77393	1.73439
3243.84537	1.72797
3241.91681	1.72855
3239.98824	1.73146
3238.05968	1.72754
3236.13111	1.71951
3234.20255	1.71786
3232.27398	1.72123
3230.34542	1.71905
3228.41685	1.71120
3226.48829	1.70474
3224.55973	1.70061
3222.63116	1.69591
3220.70260	1.69164
3218.77403	1.69061
3216.84547	1.69092
3214.91690	1.68964
3212.98834	1.68595
3211.05977	1.67930
3209.13121	1.67145
3207.20265	1.66683
3205.27408	1.66635
3203.34552	1.66557
3201.41695	1.66173
3199.48839	1.65717
3197.55982	1.65488
3195.63126	1.65399
3193.70269	1.65220
3191.77413	1.64926
3189.84557	1.64500
3187.91700	1.63945
3185.98844	1.63584
3184.05987	1.63667
3182.13131	1.63715
3180.20274	1.63368
3178.27418	1.62987
3176.34562	1.62711
3174.41705	1.62380
3172.48849	1.61860
3170.55992	1.61095
3168.63136	1.60335
3166.70279	1.59885
3164.77423	1.59625
3162.84566	1.59319
3160.91710	1.59147
3158.98854	1.59159
3157.05997	1.59202
3155.13141	1.59231
3153.20284	1.58899
3151.27428	1.58114
3149.34571	1.57385
3147.41715	1.57080
3145.48858	1.57138
3143.56002	1.57253
3141.63146	1.57191
3139.70289	1.56953
3137.77433	1.56692
3135.84576	1.56452
3133.91720	1.56142
3131.98863	1.55806
3130.06007	1.55565
3128.13150	1.55491
3126.20294	1.55590
3124.27438	1.55759
3122.34581	1.55873
3120.41725	1.55903
3118.48868	1.55839
3116.56012	1.55718
3114.63155	1.55649
3112.70299	1.55670
3110.77442	1.55785
3108.84586	1.55932
3106.91730	1.55888
3104.98873	1.55505
3103.06017	1.55087
3101.13160	1.55026
3099.20304	1.55121
3097.27447	1.55206
3095.34591	1.55578
3093.41734	1.56183
3091.48878	1.56450
3089.56022	1.56012
3087.63165	1.55089
3085.70309	1.54209
3083.77452	1.53861
3081.84596	1.53954
3079.91739	1.53856
3077.98883	1.53462
3076.06026	1.53222
3074.13170	1.53151
3072.20314	1.52967
3070.27457	1.52754
3068.34601	1.52708
3066.41744	1.52659
3064.48888	1.52262
3062.56031	1.51592
3060.63175	1.51130
3058.70318	1.50840
3056.77462	1.50400
3054.84606	1.50015
3052.91749	1.49709
3050.98893	1.49307
3049.06036	1.49145
3047.13180	1.49186
3045.20323	1.48755
3043.27467	1.47787
3041.34610	1.46832
3039.41754	1.46247
3037.48898	1.45972
3035.56041	1.45706
3033.63185	1.45374
3031.70328	1.45055
3029.77472	1.44664
3027.84615	1.44225
3025.91759	1.43874
3023.98903	1.43707
3022.06046	1.43677
3020.13190	1.43507
3018.20333	1.43154
3016.27477	1.42873
3014.34620	1.42574
3012.41764	1.42105
3010.48907	1.41721
3008.56051	1.41467
3006.63195	1.41220
3004.70338	1.41006
3002.77482	1.40719
3000.84625	1.40462
2998.91769	1.40452
2996.98912	1.40645
2995.06056	1.41036
2993.13199	1.41533
2991.20343	1.42012
2989.27487	1.42546
2987.34630	1.43171
2985.41774	1.43963
2983.48917	1.44859
2981.56061	1.45504
2979.63204	1.45994
2977.70348	1.46812
2975.77491	1.47952
2973.84635	1.48956
2971.91779	1.49702
2969.98922	1.50553
2968.06066	1.51566
2966.13209	1.52407
2964.20353	1.53062
2962.27496	1.53598
2960.34640	1.53778
2958.41783	1.53489
2956.48927	1.52892
2954.56071	1.52237
2952.63214	1.51639
2950.70358	1.51051
2948.77501	1.50718
2946.84645	1.50933
2944.91788	1.51385
2942.98932	1.51692
2941.06075	1.51973
2939.13219	1.52467
2937.20363	1.53351
2935.27506	1.54530
2933.34650	1.55518
2931.41793	1.56164
2929.48937	1.56845
2927.56080	1.57577
2925.63224	1.57903
2923.70367	1.57867
2921.77511	1.57955
2919.84655	1.58009
2917.91798	1.57375
2915.98942	1.55830
2914.06085	1.53712
2912.13229	1.51570
2910.20372	1.49685
2908.27516	1.48007
2906.34659	1.46639
2904.41803	1.45622
2902.48947	1.44655
2900.56090	1.43761
2898.63234	1.43257
2896.70377	1.43002
2894.77521	1.42649
2892.84664	1.42179
2890.91808	1.41656
2888.98952	1.41159
2887.06095	1.40820
2885.13239	1.40590
2883.20382	1.40517
2881.27526	1.40743
2879.34669	1.41063
2877.41813	1.41225
2875.48956	1.41247
2873.56100	1.41163
2871.63244	1.40788
2869.70387	1.39971
2867.77531	1.38983
2865.84674	1.38133
2863.91818	1.37523
2861.98961	1.37280
2860.06105	1.37409
2858.13248	1.37739
2856.20392	1.38222
2854.27536	1.38898
2852.34679	1.39657
2850.41823	1.39910
2848.48966	1.38665
2846.56110	1.35811
2844.63253	1.32576
2842.70397	1.30005
2840.77540	1.28235
2838.84684	1.26970
2836.91828	1.25941
2834.98971	1.25075
2833.06115	1.24394
2831.13258	1.23920
2829.20402	1.23516
2827.27545	1.22942
2825.34689	1.22214
2823.41832	1.21542
2821.48976	1.20984
2819.56120	1.20503
2817.63263	1.20144
2815.70407	1.19868
2813.77550	1.19533
2811.84694	1.19153
2809.91837	1.18789
2807.98981	1.18385
2806.06124	1.17945
2804.13268	1.17562
2802.20412	1.17248
2800.27555	1.16958
2798.34699	1.16615
2796.41842	1.16178
2794.48986	1.15781
2792.56129	1.15525
2790.63273	1.15231
2788.70416	1.14765
2786.77560	1.14308
2784.84704	1.13993
2782.91847	1.13719
2780.98991	1.13435
2779.06134	1.13123
2777.13278	1.12738
2775.20421	1.12390
2773.27565	1.12218
2771.34708	1.12106
2769.41852	1.11834
2767.48996	1.11465
2765.56139	1.11225
2763.63283	1.11074
2761.70426	1.10893
2759.77570	1.10719
2757.84713	1.10528
2755.91857	1.10331
2753.99001	1.10217
2752.06144	1.10067
2750.13288	1.09753
2748.20431	1.09388
2746.27575	1.09102
2744.34718	1.08929
2742.41862	1.08840
2740.49005	1.08743
2738.56149	1.08551
2736.63293	1.08284
2734.70436	1.08031
2732.77580	1.07815
2730.84723	1.07539
2728.91867	1.07201
2726.99010	1.06932
2725.06154	1.06758
2723.13297	1.06593
2721.20441	1.06391
2719.27585	1.06149
2717.34728	1.05864
2715.41872	1.05545
2713.49015	1.05270
2711.56159	1.05109
2709.63302	1.05023
2707.70446	1.04952
2705.77589	1.04878
2703.84733	1.04782
2701.91877	1.04657
2699.99020	1.04511
2698.06164	1.04368
2696.13307	1.04254
2694.20451	1.04127
2692.27594	1.03951
2690.34738	1.03791
2688.41881	1.03688
2686.49025	1.03570
2684.56169	1.03409
2682.63312	1.03298
2680.70456	1.03237
2678.77599	1.03134
2676.84743	1.02964
2674.91886	1.02746
2672.99030	1.02518
2671.06173	1.02311
2669.13317	1.02111
2667.20461	1.01899
2665.27604	1.01661
2663.34748	1.01389
2661.41891	1.01128
2659.49035	1.00919
2657.56178	1.00714
2655.63322	1.00483
2653.70465	1.00294
2651.77609	1.00195
2649.84753	1.00109
2647.91896	0.99957
2645.99040	0.99804
2644.06183	0.99720
2642.13327	0.99606
2640.20470	0.99375
2638.27614	0.99122
2636.34757	0.98956
2634.41901	0.98877
2632.49045	0.98831
2630.56188	0.98768
2628.63332	0.98685
2626.70475	0.98598
2624.77619	0.98523
2622.84762	0.98479
2620.91906	0.98471
2618.99049	0.98438
2617.06193	0.98324
2615.13337	0.98184
2613.20480	0.98099
2611.27624	0.98076
2609.34767	0.98061
2607.41911	0.97967
2605.49054	0.97779
2603.56198	0.97583
2601.63342	0.97410
2599.70485	0.97207
2597.77629	0.96965
2595.84772	0.96727
2593.91916	0.96528
2591.99059	0.96359
2590.06203	0.96152
2588.13346	0.95869
2586.20490	0.95563
2584.27634	0.95273
2582.34777	0.95002
2580.41921	0.94784
2578.49064	0.94619
2576.56208	0.94443
2574.63351	0.94216
2572.70495	0.93974
2570.77638	0.93761
2568.84782	0.93597
2566.91926	0.93460
2564.99069	0.93305
2563.06213	0.93119
2561.13356	0.92948
2559.20500	0.92843
2557.27643	0.92808
2555.34787	0.92792
2553.41930	0.92761
2551.49074	0.92704
2549.56218	0.92611
2547.63361	0.92512
2545.70505	0.92430
2543.77648	0.92356
2541.84792	0.92331
2539.91935	0.92337
2537.99079	0.92300
2536.06222	0.92246
2534.13366	0.92175
2532.20510	0.92039
2530.27653	0.91851
2528.34797	0.91647
2526.41940	0.91481
2524.49084	0.91359
2522.56227	0.91235
2520.63371	0.91083
2518.70514	0.90884
2516.77658	0.90631
2514.84802	0.90385
2512.91945	0.90208
2510.99089	0.90050
2509.06232	0.89842
2507.13376	0.89647
2505.20519	0.89491
2503.27663	0.89305
2501.34806	0.89100
2499.41950	0.88931
2497.49094	0.88790
2495.56237	0.88658
2493.63381	0.88555
2491.70524	0.88487
2489.77668	0.88395
2487.84811	0.88245
2485.91955	0.88114
2483.99098	0.88067
2482.06242	0.88063
2480.13386	0.88026
2478.20529	0.87930
2476.27673	0.87840
2474.34816	0.87790
2472.41960	0.87715
2470.49103	0.87606
2468.56247	0.87496
2466.63391	0.87381
2464.70534	0.87252
2462.77678	0.87130
2460.84821	0.87025
2458.91965	0.86894
2456.99108	0.86735
2455.06252	0.86595
2453.13395	0.86454
2451.20539	0.86291
2449.27683	0.86139
2447.34826	0.85994
2445.41970	0.85806
2443.49113	0.85566
2441.56257	0.85333
2439.63400	0.85145
2437.70544	0.84959
2435.77687	0.84738
2433.84831	0.84516
2431.91975	0.84332
2429.99118	0.84182
2428.06262	0.84010
2426.13405	0.83814
2424.20549	0.83660
2422.27692	0.83520
2420.34836	0.83331
2418.41979	0.83150
2416.49123	0.83041
2414.56267	0.82975
2412.63410	0.82891
2410.70554	0.82783
2408.77697	0.82691
2406.84841	0.82636
2404.91984	0.82592
2402.99128	0.82502
2401.06271	0.82351
2399.13415	0.82216
2397.20559	0.82127
2395.27702	0.82044
2393.34846	0.81962
2391.41989	0.81861
2389.49133	0.81722
2387.56276	0.81588
2385.63420	0.81485
2383.70563	0.81377
2381.77707	0.81223
2379.84851	0.80995
2377.91994	0.80712
2375.99138	0.80450
2374.06281	0.80234
2372.13425	0.79969
2370.20568	0.79579
2368.27712	0.79169
2366.34855	0.78862
2364.41999	0.78549
2362.49143	0.78204
2360.56286	0.78013
2358.63430	0.78005
2356.70573	0.78112
2354.77717	0.78249
2352.84860	0.78283
2350.92004	0.78171
2348.99147	0.77984
2347.06291	0.77773
2345.13435	0.77539
2343.20578	0.77286
2341.27722	0.77060
2339.34865	0.77009
2337.42009	0.77206
2335.49152	0.77390
2333.56296	0.77312
2331.63440	0.77142
2329.70583	0.77096
2327.77727	0.77056
2325.84870	0.76922
2323.92014	0.76794
2321.99157	0.76752
2320.06301	0.76733
2318.13444	0.76678
2316.20588	0.76609
2314.27732	0.76501
2312.34875	0.76345
2310.42019	0.76199
2308.49162	0.76060
2306.56306	0.75910
2304.63449	0.75767
2302.70593	0.75631
2300.77736	0.75511
2298.84880	0.75404
2296.92024	0.75275
2294.99167	0.75115
2293.06311	0.74959
2291.13454	0.74848
2289.20598	0.74786
2287.27741	0.74725
2285.34885	0.74638
2283.42028	0.74540
2281.49172	0.74472
2279.56316	0.74464
2277.63459	0.74472
2275.70603	0.74451
2273.77746	0.74413
2271.84890	0.74383
2269.92033	0.74370
2267.99177	0.74367
2266.06320	0.74368
2264.13464	0.74402
2262.20608	0.74470
2260.27751	0.74509
2258.34895	0.74484
2256.42038	0.74441
2254.49182	0.74419
2252.56325	0.74407
2250.63469	0.74386
2248.70612	0.74332
2246.77756	0.74228
2244.84900	0.74105
2242.92043	0.74007
2240.99187	0.73922
2239.06330	0.73827
2237.13474	0.73726
2235.20617	0.73622
2233.27761	0.73512
2231.34904	0.73412
2229.42048	0.73330
2227.49192	0.73246
2225.56335	0.73154
2223.63479	0.73071
2221.70622	0.73000
2219.77766	0.72940
2217.84909	0.72899
2215.92053	0.72881
2213.99196	0.72875
2212.06340	0.72863
2210.13484	0.72858
2208.20627	0.72879
2206.27771	0.72918
2204.34914	0.72952
2202.42058	0.72978
2200.49201	0.72981
2198.56345	0.72962
2196.63488	0.72946
2194.70632	0.72950
2192.77776	0.72968
2190.84919	0.72980
2188.92063	0.72966
2186.99206	0.72931
2185.06350	0.72889
2183.13493	0.72845
2181.20637	0.72796
2179.27781	0.72731
2177.34924	0.72636
2175.42068	0.72524
2173.49211	0.72434
2171.56355	0.72363
2169.63498	0.72273
2167.70642	0.72174
2165.77785	0.72113
2163.84929	0.72075
2161.92073	0.72014
2159.99216	0.71923
2158.06360	0.71838
2156.13503	0.71795
2154.20647	0.71768
2152.27790	0.71716
2150.34934	0.71667
2148.42077	0.71661
2146.49221	0.71662
2144.56365	0.71630
2142.63508	0.71585
2140.70652	0.71567
2138.77795	0.71580
2136.84939	0.71604
2134.92082	0.71624
2132.99226	0.71630
2131.06369	0.71623
2129.13513	0.71618
2127.20657	0.71622
2125.27800	0.71628
2123.34944	0.71622
2121.42087	0.71592
2119.49231	0.71527
2117.56374	0.71431
2115.63518	0.71320
2113.70661	0.71203
2111.77805	0.71088
2109.84949	0.70986
2107.92092	0.70878
2105.99236	0.70743
2104.06379	0.70606
2102.13523	0.70489
2100.20666	0.70374
2098.27810	0.70256
2096.34953	0.70143
2094.42097	0.70040
2092.49241	0.69949
2090.56384	0.69861
2088.63528	0.69781
2086.70671	0.69744
2084.77815	0.69742
2082.84958	0.69723
2080.92102	0.69687
2078.99245	0.69662
2077.06389	0.69656
2075.13533	0.69656
2073.20676	0.69654
2071.27820	0.69664
2069.34963	0.69695
2067.42107	0.69736
2065.49250	0.69768
2063.56394	0.69769
2061.63537	0.69731
2059.70681	0.69684
2057.77825	0.69659
2055.84968	0.69628
2053.92112	0.69565
2051.99255	0.69491
2050.06399	0.69410
2048.13542	0.69310
2046.20686	0.69190
2044.27830	0.69054
2042.34973	0.68908
2040.42117	0.68749
2038.49260	0.68590
2036.56404	0.68442
2034.63547	0.68292
2032.70691	0.68155
2030.77834	0.68047
2028.84978	0.67956
2026.92122	0.67858
2024.99265	0.67733
2023.06409	0.67585
2021.13552	0.67450
2019.20696	0.67347
2017.27839	0.67264
2015.34983	0.67178
2013.42126	0.67086
2011.49270	0.67003
2009.56414	0.66935
2007.63557	0.66873
2005.70701	0.66823
2003.77844	0.66795
2001.84988	0.66785
1999.92131	0.66779
1997.99275	0.66765
1996.06418	0.66755
1994.13562	0.66766
1992.20706	0.66791
1990.27849	0.66804
1988.34993	0.66814
1986.42136	0.66829
1984.49280	0.66839
1982.56423	0.66869
1980.63567	0.66921
1978.70710	0.66959
1976.77854	0.66978
1974.84998	0.66993
1972.92141	0.67002
1970.99285	0.67008
1969.06428	0.67024
1967.13572	0.67036
1965.20715	0.67023
1963.27859	0.67000
1961.35002	0.66976
1959.42146	0.66938
1957.49290	0.66894
1955.56433	0.66859
1953.63577	0.66798
1951.70720	0.66687
1949.77864	0.66566
1947.85007	0.66461
1945.92151	0.66354
1943.99294	0.66215
1942.06438	0.66022
1940.13582	0.65805
1938.20725	0.65604
1936.27869	0.65416
1934.35012	0.65246
1932.42156	0.65112
1930.49299	0.65002
1928.56443	0.64907
1926.63586	0.64852
1924.70730	0.64837
1922.77874	0.64818
1920.85017	0.64805
1918.92161	0.64848
1916.99304	0.64915
1915.06448	0.64952
1913.13591	0.64999
1911.20735	0.65072
1909.27878	0.65154
1907.35022	0.65246
1905.42166	0.65343
1903.49309	0.65429
1901.56453	0.65508
1899.63596	0.65610
1897.70740	0.65737
1895.77883	0.65849
1893.85027	0.65901
1891.92171	0.65916
1889.99314	0.65923
1888.06458	0.65875
1886.13601	0.65769
1884.20745	0.65650
1882.27888	0.65512
1880.35032	0.65335
1878.42175	0.65128
1876.49319	0.64914
1874.56463	0.64696
1872.63606	0.64505
1870.70750	0.64376
1868.77893	0.64233
1866.85037	0.63987
1864.92180	0.63746
1862.99324	0.63589
1861.06467	0.63485
1859.13611	0.63400
1857.20755	0.63329
1855.27898	0.63278
1853.35042	0.63250
1851.42185	0.63244
1849.49329	0.63252
1847.56472	0.63296
1845.63616	0.63404
1843.70759	0.63505
1841.77903	0.63494
1839.85047	0.63457
1837.92190	0.63477
1835.99334	0.63541
1834.06477	0.63606
1832.13621	0.63686
1830.20764	0.63779
1828.27908	0.63813
1826.35051	0.63798
1824.42195	0.63781
1822.49339	0.63739
1820.56482	0.63673
1818.63626	0.63602
1816.70769	0.63525
1814.77913	0.63452
1812.85056	0.63398
1810.92200	0.63363
1808.99343	0.63310
1807.06487	0.63230
1805.13631	0.63169
1803.20774	0.63183
1801.27918	0.63277
1799.35061	0.63369
1797.42205	0.63443
1795.49348	0.63559
1793.56492	0.63748
1791.63635	0.63960
1789.70779	0.64066
1787.77923	0.64164
1785.85066	0.64377
1783.92210	0.64666
1781.99353	0.64944
1780.06497	0.65199
1778.13640	0.65425
1776.20784	0.65651
1774.27927	0.65953
1772.35071	0.66308
1770.42215	0.66518
1768.49358	0.66645
1766.56502	0.66808
1764.63645	0.67001
1762.70789	0.67279
1760.77932	0.67628
1758.85076	0.67979
1756.92220	0.68433
1754.99363	0.68923
1753.06507	0.69455
1751.13650	0.70310
1749.20794	0.71444
1747.27937	0.72407
1745.35081	0.73227
1743.42224	0.74054
1741.49368	0.74941
1739.56512	0.75893
1737.63655	0.76654
1735.70799	0.77340
1733.77942	0.78431
1731.85086	0.79388
1729.92229	0.80021
1727.99373	0.80696
1726.06516	0.81445
1724.13660	0.82359
1722.20804	0.83335
1720.27947	0.84306
1718.35091	0.85774
1716.42234	0.87955
1714.49378	0.89645
1712.56521	0.91048
1710.63665	0.92758
1708.70808	0.94943
1706.77952	0.98140
1704.85096	1.02358
1702.92239	1.06254
1700.99383	1.11329
1699.06526	1.18940
1697.13670	1.25604
1695.20813	1.31657
1693.27957	1.36045
1691.35100	1.39173
1689.42244	1.42502
1687.49388	1.45395
1685.56531	1.48283
1683.63675	1.51763
1681.70818	1.53373
1679.77962	1.53897
1677.85105	1.54328
1675.92249	1.54961
1673.99392	1.55792
1672.06536	1.56528
1670.13680	1.57073
1668.20823	1.57467
1666.27967	1.57642
1664.35110	1.57731
1662.42254	1.57633
1660.49397	1.57295
1658.56541	1.56954
1656.63684	1.56582
1654.70828	1.56224
1652.77972	1.55705
1650.85115	1.55363
1648.92259	1.55238
1646.99402	1.54985
1645.06546	1.54652
1643.13689	1.54303
1641.20833	1.53946
1639.27976	1.53622
1637.35120	1.53414
1635.42264	1.53063
1633.49407	1.52458
1631.56551	1.51971
1629.63694	1.51506
1627.70838	1.50935
1625.77981	1.50303
1623.85125	1.49764
1621.92269	1.49168
1619.99412	1.48551
1618.06556	1.47999
1616.13699	1.47069
1614.20843	1.45910
1612.27986	1.44866
1610.35130	1.43851
1608.42273	1.42823
1606.49417	1.41860
1604.56561	1.40997
1602.63704	1.40182
1600.70848	1.39577
1598.77991	1.39232
1596.85135	1.39055
1594.92278	1.38991
1592.99422	1.38992
1591.06565	1.39032
1589.13709	1.39186
1587.20853	1.39660
1585.27996	1.40477
1583.35140	1.41433
1581.42283	1.42313
1579.49427	1.43084
1577.56570	1.44042
1575.63714	1.45254
1573.70857	1.45968
1571.78001	1.46393
1569.85145	1.47089
1567.92288	1.47825
1565.99432	1.48254
1564.06575	1.48665
1562.13719	1.49072
1560.20862	1.49567
1558.28006	1.50287
1556.35149	1.50369
1554.42293	1.50238
1552.49437	1.50154
1550.56580	1.50021
1548.63724	1.49835
1546.70867	1.49748
1544.78011	1.49616
1542.85154	1.49211
1540.92298	1.48859
1538.99441	1.48745
1537.06585	1.48489
1535.13729	1.48110
1533.20872	1.47673
1531.28016	1.47254
1529.35159	1.46898
1527.42303	1.46576
1525.49446	1.46288
1523.56590	1.46089
1521.63733	1.45765
1519.70877	1.45247
1517.78021	1.44573
1515.85164	1.43559
1513.92308	1.42489
1511.99451	1.41567
1510.06595	1.40745
1508.13738	1.39517
1506.20882	1.37124
1504.28025	1.35467
1502.35169	1.34353
1500.42313	1.33165
1498.49456	1.31721
1496.56600	1.29968
1494.63743	1.28411
1492.70887	1.27266
1490.78030	1.26072
1488.85174	1.24423
1486.92317	1.22843
1484.99461	1.21750
1483.06605	1.21064
1481.13748	1.20685
1479.20892	1.20655
1477.28035	1.21066
1475.35179	1.21921
1473.42322	1.23189
1471.49466	1.24404
1469.56610	1.25067
1467.63753	1.25588
1465.70897	1.26305
1463.78040	1.26984
1461.85184	1.27285
1459.92327	1.27504
1457.99471	1.28106
1456.06614	1.28742
1454.13758	1.28713
1452.20902	1.28518
1450.28045	1.28324
1448.35189	1.28043
1446.42332	1.27636
1444.49476	1.27223
1442.56619	1.26827
1440.63763	1.26430
1438.70906	1.25941
1436.78050	1.25127
1434.85194	1.24222
1432.92337	1.23566
1430.99481	1.22953
1429.06624	1.22343
1427.13768	1.21957
1425.20911	1.21834
1423.28055	1.21874
1421.35198	1.22039
1419.42342	1.22422
1417.49486	1.22782
1415.56629	1.22844
1413.63773	1.22834
1411.70916	1.22887
1409.78060	1.23040
1407.85203	1.23248
1405.92347	1.23461
1403.99490	1.23622
1402.06634	1.23717
1400.13778	1.23825
1398.20921	1.23888
1396.28065	1.23809
1394.35208	1.23651
1392.42352	1.23495
1390.49495	1.23444
1388.56639	1.23642
1386.63782	1.24067
1384.70926	1.24455
1382.78070	1.24713
1380.85213	1.24787
1378.92357	1.24596
1376.99500	1.24127
1375.06644	1.23265
1373.13787	1.22083
1371.20931	1.20956
1369.28074	1.19777
1367.35218	1.18411
1365.42362	1.17067
1363.49505	1.15775
1361.56649	1.14646
1359.63792	1.13898
1357.70936	1.13404
1355.78079	1.13010
1353.85223	1.12716
1351.92366	1.12545
1349.99510	1.12431
1348.06654	1.12335
1346.13797	1.12286
1344.20941	1.12286
1342.28084	1.12334
1340.35228	1.12480
1338.42371	1.12674
1336.49515	1.12876
1334.56659	1.13199
1332.63802	1.13701
1330.70946	1.14335
1328.78089	1.14969
1326.85233	1.15467
1324.92376	1.15824
1322.99520	1.16139
1321.06663	1.16484
1319.13807	1.16844
1317.20951	1.17159
1315.28094	1.17382
1313.35238	1.17490
1311.42381	1.17504
1309.49525	1.17506
1307.56668	1.17523
1305.63812	1.17473
1303.70955	1.17306
1301.78099	1.17071
1299.85243	1.16790
1297.92386	1.16409
1295.99530	1.15963
1294.06673	1.15586
1292.13817	1.15323
1290.20960	1.15133
1288.28104	1.14991
1286.35247	1.14885
1284.42391	1.14825
1282.49535	1.14850
1280.56678	1.14949
1278.63822	1.15099
1276.70965	1.15309
1274.78109	1.15580
1272.85252	1.15941
1270.92396	1.16422
1268.99539	1.16961
1267.06683	1.17483
1265.13827	1.17953
1263.20970	1.18282
1261.28114	1.18399
1259.35257	1.18381
1257.42401	1.18362
1255.49544	1.18430
1253.56688	1.18542
1251.63831	1.18598
1249.70975	1.18590
1247.78119	1.18544
1245.85262	1.18463
1243.92406	1.18318
1241.99549	1.18069
1240.06693	1.17724
1238.13836	1.17296
1236.20980	1.16765
1234.28123	1.16164
1232.35267	1.15570
1230.42411	1.14952
1228.49554	1.14232
1226.56698	1.13405
1224.63841	1.12536
1222.70985	1.11706
1220.78128	1.10910
1218.85272	1.10124
1216.92415	1.09450
1214.99559	1.09043
1213.06703	1.08947
1211.13846	1.09061
1209.20990	1.09213
1207.28133	1.09231
1205.35277	1.09002
1203.42420	1.08487
1201.49564	1.07772
1199.56708	1.07009
1197.63851	1.06272
1195.70995	1.05548
1193.78138	1.04883
1191.85282	1.04383
1189.92425	1.04053
1187.99569	1.03843
1186.06712	1.03745
1184.13856	1.03750
1182.21000	1.03864
1180.28143	1.04149
1178.35287	1.04697
1176.42430	1.05504
1174.49574	1.06439
1172.56717	1.07357
1170.63861	1.08258
1168.71004	1.09286
1166.78148	1.10461
1164.85292	1.11583
1162.92435	1.12430
1160.99579	1.12879
1159.06722	1.12856
1157.13866	1.12338
1155.21009	1.11426
1153.28153	1.10229
1151.35296	1.08840
1149.42440	1.07445
1147.49584	1.06211
1145.56727	1.05168
1143.63871	1.04386
1141.71014	1.04028
1139.78158	1.04124
1137.85301	1.04588
1135.92445	1.05355
1133.99588	1.06373
1132.06732	1.07653
1130.13876	1.09238
1128.21019	1.11021
1126.28163	1.12753
1124.35306	1.14268
1122.42450	1.15545
1120.49593	1.16554
1118.56737	1.17307
1116.63880	1.17817
1114.71024	1.17961
1112.78168	1.17769
1110.85311	1.17411
1108.92455	1.16971
1106.99598	1.16609
1105.06742	1.16393
1103.13885	1.16204
1101.21029	1.16087
1099.28172	1.16191
1097.35316	1.16589
1095.42460	1.17332
1093.49603	1.18361
1091.56747	1.19561
1089.63890	1.20939
1087.71034	1.22550
1085.78177	1.24247
1083.85321	1.25722
1081.92464	1.26853
1079.99608	1.27610
1078.06752	1.27821
1076.13895	1.27515
1074.21039	1.26910
1072.28182	1.25981
1070.35326	1.24782
1068.42469	1.23665
1066.49613	1.22752
1064.56756	1.21922
1062.63900	1.21137
1060.71044	1.20283
1058.78187	1.19252
1056.85331	1.18256
1054.92474	1.17504
1052.99618	1.16924
1051.06761	1.16441
1049.13905	1.16102
1047.21049	1.15961
1045.28192	1.16057
1043.35336	1.16370
1041.42479	1.16771
1039.49623	1.17139
1037.56766	1.17472
1035.63910	1.17723
1033.71053	1.17798
1031.78197	1.17671
1029.85341	1.17273
1027.92484	1.16619
1025.99628	1.15849
1024.06771	1.15004
1022.13915	1.14155
1020.21058	1.13479
1018.28202	1.12991
1016.35345	1.12502
1014.42489	1.11823
1012.49633	1.10822
1010.56776	1.09463
1008.63920	1.07839
1006.71063	1.06099
1004.78207	1.04388
1002.85350	1.02790
1000.92494	1.01358
998.99637	1.00181
997.06781	0.99282
995.13925	0.98522
993.21068	0.97728
991.28212	0.96765
989.35355	0.95609
987.42499	0.94397
985.49642	0.93219
983.56786	0.92094
981.63929	0.91123
979.71073	0.90339
977.78217	0.89628
975.85360	0.88902
973.92504	0.88098
971.99647	0.87110
970.06791	0.85916
968.13934	0.84656
966.21078	0.83497
964.28221	0.82557
962.35365	0.81970
960.42509	0.81905
958.49652	0.82370
956.56796	0.83069
954.63939	0.83555
952.71083	0.83532
950.78226	0.83017
948.85370	0.82268
946.92513	0.81570
944.99657	0.81073
943.06801	0.80796
941.13944	0.80692
939.21088	0.80673
937.28231	0.80687
935.35375	0.80740
933.42518	0.80783
931.49662	0.80745
929.56805	0.80669
927.63949	0.80633
925.71093	0.80638
923.78236	0.80641
921.85380	0.80583
919.92523	0.80389
917.99667	0.80023
916.06810	0.79565
914.13954	0.79111
912.21098	0.78715
910.28241	0.78431
908.35385	0.78263
906.42528	0.78186
904.49672	0.78231
902.56815	0.78380
900.63959	0.78482
898.71102	0.78430
896.78246	0.78271
894.85390	0.78083
892.92533	0.77879
890.99677	0.77647
889.06820	0.77417
887.13964	0.77246
885.21107	0.77189
883.28251	0.77282
881.35394	0.77497
879.42538	0.77808
877.49682	0.78189
875.56825	0.78584
873.63969	0.78990
871.71112	0.79425
869.78256	0.79877
867.85399	0.80356
865.92543	0.80880
863.99686	0.81432
862.06830	0.81974
860.13974	0.82483
858.21117	0.82957
856.28261	0.83419
854.35404	0.83891
852.42548	0.84313
850.49691	0.84561
848.56835	0.84617
846.63978	0.84615
844.71122	0.84679
842.78266	0.84799
840.85409	0.84927
838.92553	0.85067
836.99696	0.85247
835.06840	0.85479
833.13983	0.85741
831.21127	0.86010
829.28270	0.86322
827.35414	0.86695
825.42558	0.87087
823.49701	0.87532
821.56845	0.88117
819.63988	0.88853
817.71132	0.89705
815.78275	0.90634
813.85419	0.91613
811.92562	0.92650
809.99706	0.93676
808.06850	0.94582
806.13993	0.95374
804.21137	0.96143
802.28280	0.96883
800.35424	0.97533
798.42567	0.98062
796.49711	0.98417
794.56854	0.98627
792.63998	0.98821
790.71142	0.99016
788.78285	0.99146
786.85429	0.99172
784.92572	0.99121
782.99716	0.99071
781.06859	0.99090
779.14003	0.99116
777.21147	0.99036
775.28290	0.98962
773.35434	0.99017
771.42577	0.99134
769.49721	0.99270
767.56864	0.99431
765.64008	0.99655
763.71151	1.00000
761.78295	1.00402
759.85439	1.00805
757.92582	1.01309
755.99726	1.01988
754.06869	1.02713
752.14013	1.03368
750.21156	1.04062
748.28300	1.04835
746.35443	1.05512
744.42587	1.06026
742.49731	1.06474
740.56874	1.06902
738.64018	1.07231
736.71161	1.07440
734.78305	1.07674
732.85448	1.07997
730.92592	1.08307
728.99735	1.08565
727.06879	1.08823
725.14023	1.09096
723.21166	1.09410
721.28310	1.09741
719.35453	1.09906
717.42597	1.09877
715.49740	1.09870
713.56884	1.10007
711.64027	1.10281
709.71171	1.10655
707.78315	1.11107
705.85458	1.11595
703.92602	1.12019
701.99745	1.12379
700.06889	1.12781
698.14032	1.13184
696.21176	1.13436
694.28319	1.13537
692.35463	1.13719
690.42607	1.14081
688.49750	1.14403
686.56894	1.14573
684.64037	1.14706
682.71181	1.14918
680.78324	1.15264
678.85468	1.15599
676.92611	1.15665
674.99755	1.15460
673.06899	1.15248
671.14042	1.15149
669.21186	1.15203
667.28329	1.15545
665.35473	1.15792
663.42616	1.15879
661.49760	1.15927
659.56903	1.15903
657.64047	1.15892
655.71191	1.15989
653.78334	1.16194
651.85478	1.16528
649.92621	1.16862
647.99765	1.17047
646.06908	1.17342
644.14052	1.18024
642.21195	1.18836
640.28339	1.19374
638.35483	1.19594
636.42626	1.19813
634.49770	1.20214
632.56913	1.20554
630.64057	1.20750
628.71200	1.21029
626.78344	1.21386
624.85488	1.21568
622.92631	1.21558
620.99775	1.21609
619.06918	1.21796
617.14062	1.21947
615.21205	1.22007
613.28349	1.22038
611.35492	1.21892
609.42636	1.21514
607.49780	1.21181
605.56923	1.21010
603.64067	1.21081
601.71210	1.21561
599.78354	1.21967
