3997.91406	0.91990
3995.98550	0.91943
3994.05693	0.91829
3992.12837	0.91838
3990.19980	0.91952
3988.27124	0.92098
3986.34268	0.92256
3984.41411	0.92366
3982.48555	0.92269
3980.55698	0.91925
3978.62842	0.91602
3976.69985	0.91511
3974.77129	0.91536
3972.84272	0.91557
3970.91416	0.91591
3968.98560	0.91580
3967.05703	0.91533
3965.12847	0.91485
3963.19990	0.91394
3961.27134	0.91295
3959.34277	0.91206
3957.41421	0.91085
3955.48564	0.90954
3953.55708	0.90917
3951.62852	0.90962
3949.69995	0.90860
3947.77139	0.90631
3945.84282	0.90531
3943.91426	0.90544
3941.98569	0.90590
3940.05713	0.90576
3938.12856	0.90410
3936.20000	0.90259
3934.27144	0.90322
3932.34287	0.90499
3930.41431	0.90531
3928.48574	0.90408
3926.55718	0.90310
3924.62861	0.90180
3922.70005	0.89873
3920.77148	0.89614
3918.84292	0.89611
3916.91436	0.89726
3914.98579	0.89727
3913.05723	0.89636
3911.12866	0.89561
3909.20010	0.89515
3907.27153	0.89504
3905.34297	0.89572
3903.41440	0.89744
3901.48584	0.89866
3899.55728	0.89719
3897.62871	0.89488
3895.70015	0.89432
3893.77158	0.89501
3891.84302	0.89435
3889.91445	0.89171
3887.98589	0.89073
3886.05733	0.89170
3884.12876	0.89041
3882.20020	0.88713
3880.27163	0.88566
3878.34307	0.88602
3876.41450	0.88721
3874.48594	0.88900
3872.55737	0.88974
3870.62881	0.88906
3868.70025	0.88823
3866.77168	0.88788
3864.84312	0.88665
3862.91455	0.88396
3860.98599	0.88291
3859.05742	0.88371
3857.12886	0.88384
3855.20029	0.88185
3853.27173	0.88056
3851.34317	0.88116
3849.41460	0.88018
3847.48604	0.87908
3845.55747	0.87944
3843.62891	0.88151
3841.70034	0.88505
3839.77178	0.88923
3837.84321	0.88939
3835.91465	0.88413
3833.98609	0.87946
3832.05752	0.87855
3830.12896	0.88026
3828.20039	0.88126
3826.27183	0.88027
3824.34326	0.87896
3822.41470	0.87842
3820.48613	0.87799
3818.55757	0.87745
3816.62901	0.87667
3814.70044	0.87512
3812.77188	0.87402
3810.84331	0.87416
3808.91475	0.87474
3806.98618	0.87478
3805.05762	0.87570
3803.12905	0.87785
3801.20049	0.87855
3799.27193	0.87785
3797.34336	0.87741
3795.41480	0.87592
3793.48623	0.87343
3791.55767	0.87123
3789.62910	0.87052
3787.70054	0.87152
3785.77197	0.87214
3783.84341	0.87065
3781.91485	0.86913
3779.98628	0.86895
3778.05772	0.86914
3776.12915	0.86930
3774.20059	0.86929
3772.27202	0.86921
3770.34346	0.86941
3768.41489	0.86939
3766.48633	0.86890
3764.55777	0.86842
3762.62920	0.86849
3760.70064	0.86879
3758.77207	0.86844
3756.84351	0.86772
3754.91494	0.86798
3752.98638	0.86984
3751.05781	0.87020
3749.12925	0.86698
3747.20069	0.86642
3745.27212	0.86755
3743.34356	0.86518
3741.41499	0.86210
3739.48643	0.86090
3737.55786	0.86031
3735.62930	0.85939
3733.70074	0.85915
3731.77217	0.85883
3729.84361	0.85795
3727.91504	0.85766
3725.98648	0.85774
3724.05791	0.85722
3722.12935	0.85574
3720.20078	0.85296
3718.27222	0.85080
3716.34366	0.85131
3714.41509	0.85396
3712.48653	0.85645
3710.55796	0.85515
3708.62940	0.85171
3706.70083	0.85001
3704.77227	0.85030
3702.84370	0.85137
3700.91514	0.85206
3698.98658	0.85219
3697.05801	0.85277
3695.12945	0.85456
3693.20088	0.85670
3691.27232	0.85813
3689.34375	0.85958
3687.41519	0.86177
3685.48662	0.86387
3683.55806	0.86621
3681.62950	0.86954
3679.70093	0.87369
3677.77237	0.87782
3675.84380	0.88178
3673.91524	0.88426
3671.98667	0.88602
3670.05811	0.88980
3668.12954	0.89336
3666.20098	0.89520
3664.27242	0.89794
3662.34385	0.90243
3660.41529	0.90708
3658.48672	0.91108
3656.55816	0.91610
3654.62959	0.92128
3652.70103	0.92530
3650.77246	0.93151
3648.84390	0.94153
3646.91534	0.94681
3644.98677	0.94897
3643.05821	0.95207
3641.12964	0.95648
3639.20108	0.96147
3637.27251	0.96727
3635.34395	0.97446
3633.41538	0.98158
3631.48682	0.98743
3629.55826	0.99453
3627.62969	1.00207
3625.70113	1.00724
3623.77256	1.01189
3621.84400	1.01736
3619.91543	1.02607
3617.98687	1.03640
3616.05830	1.04427
3614.12974	1.05123
3612.20118	1.05702
3610.27261	1.06114
3608.34405	1.06711
3606.41548	1.07565
3604.48692	1.08333
3602.55835	1.09057
3600.62979	1.09903
3598.70123	1.10736
3596.77266	1.11337
3594.84410	1.11840
3592.91553	1.12439
3590.98697	1.12957
3589.05840	1.13345
3587.12984	1.13901
3585.20127	1.14781
3583.27271	1.15639
3581.34415	1.16306
3579.41558	1.16902
3577.48702	1.17517
3575.55845	1.18145
3573.62989	1.18741
3571.70132	1.19300
3569.77276	1.19945
3567.84419	1.20782
3565.91563	1.21548
3563.98707	1.22234
3562.05850	1.23220
3560.12994	1.24270
3558.20137	1.24955
3556.27281	1.25479
3554.34424	1.26291
3552.41568	1.27176
3550.48711	1.27619
3548.55855	1.28047
3546.62999	1.28997
3544.70142	1.30149
3542.77286	1.30935
3540.84429	1.31462
3538.91573	1.32056
3536.98716	1.32735
3535.05860	1.33444
3533.13003	1.34226
3531.20147	1.35026
3529.27291	1.35815
3527.34434	1.36678
3525.41578	1.37572
3523.48721	1.38445
3521.55865	1.39390
3519.63008	1.40344
3517.70152	1.41223
3515.77295	1.42076
3513.84439	1.42884
3511.91583	1.43583
3509.98726	1.44325
3508.05870	1.45216
3506.13013	1.46241
3504.20157	1.47435
3502.27300	1.48533
3500.34444	1.49636
3498.41587	1.51029
3496.48731	1.52290
3494.55875	1.53175
3492.63018	1.53912
3490.70162	1.54647
3488.77305	1.55561
3486.84449	1.56680
3484.91592	1.57444
3482.98736	1.57387
3481.05879	1.57010
3479.13023	1.57079
3477.20167	1.57568
3475.27310	1.58096
3473.34454	1.58639
3471.41597	1.59334
3469.48741	1.59881
3467.55884	1.59918
3465.63028	1.59779
3463.70171	1.59942
3461.77315	1.60201
3459.84459	1.60240
3457.91602	1.60423
3455.98746	1.61196
3454.05889	1.62144
3452.13033	1.62824
3450.20176	1.63388
3448.27320	1.63438
3446.34464	1.62900
3444.41607	1.62725
3442.48751	1.63057
3440.55894	1.63687
3438.63038	1.64530
3436.70181	1.64966
3434.77325	1.64988
3432.84468	1.65228
3430.91612	1.65312
3428.98756	1.64835
3427.05899	1.64345
3425.13043	1.64170
3423.20186	1.64233
3421.27330	1.64559
3419.34473	1.64993
3417.41617	1.64953
3415.48760	1.64272
3413.55904	1.63600
3411.63048	1.63490
3409.70191	1.63864
3407.77335	1.64102
3405.84478	1.63774
3403.91622	1.63663
3401.98765	1.64507
3400.05909	1.65557
3398.13052	1.65915
3396.20196	1.65650
3394.27340	1.65399
3392.34483	1.65754
3390.41627	1.66402
3388.48770	1.66648
3386.55914	1.66490
3384.63057	1.66157
3382.70201	1.65773
3380.77344	1.65583
3378.84488	1.65711
3376.91632	1.65920
3374.98775	1.65988
3373.05919	1.66104
3371.13062	1.66286
3369.20206	1.66200
3367.27349	1.65948
3365.34493	1.65804
3363.41636	1.65737
3361.48780	1.65800
3359.55924	1.66045
3357.63067	1.66382
3355.70211	1.66576
3353.77354	1.66422
3351.84498	1.66366
3349.91641	1.66997
3347.98785	1.67741
3346.05928	1.67407
3344.13072	1.66240
3342.20216	1.65744
3340.27359	1.66372
3338.34503	1.67077
3336.41646	1.67453
3334.48790	1.68120
3332.55933	1.68903
3330.63077	1.69284
3328.70220	1.69380
3326.77364	1.69364
3324.84508	1.69604
3322.91651	1.70439
3320.98795	1.71272
3319.05938	1.71547
3317.13082	1.71561
3315.20225	1.71613
3313.27369	1.71702
3311.34513	1.71749
3309.41656	1.71968
3307.48800	1.72589
3305.55943	1.73321
3303.63087	1.73970
3301.70230	1.74514
3299.77374	1.74724
3297.84517	1.74246
3295.91661	1.73251
3293.98805	1.72731
3292.05948	1.72982
3290.13092	1.73345
3288.20235	1.73640
3286.27379	1.74018
3284.34522	1.74216
3282.41666	1.74007
3280.48809	1.73553
3278.55953	1.73085
3276.63097	1.72877
3274.70240	1.72965
3272.77384	1.72932
3270.84527	1.72778
3268.91671	1.72723
3266.98814	1.72528
3265.05958	1.71942
3263.13101	1.71198
3261.20245	1.70606
3259.27389	1.69833
3257.34532	1.68915
3255.41676	1.68469
3253.48819	1.68141
3251.55963	1.67203
3249.63106	1.65885
3247.70250	1.65008
3245.77393	1.64649
3243.84537	1.64072
3241.91681	1.63421
3239.98824	1.63162
3238.05968	1.62917
3236.13111	1.62296
3234.20255	1.61447
3232.27398	1.60890
3230.34542	1.60596
3228.41685	1.59818
3226.48829	1.58711
3224.55973	1.58090
3222.63116	1.58025
3220.70260	1.58182
3218.77403	1.58066
3216.84547	1.57269
3214.91690	1.56305
3212.98834	1.55973
3211.05977	1.56044
3209.13121	1.55674
3207.20265	1.54887
3205.27408	1.54295
3203.34552	1.53925
3201.41695	1.53572
3199.48839	1.53253
3197.55982	1.52884
3195.63126	1.52210
3193.70269	1.51404
3191.77413	1.51027
3189.84557	1.50932
3187.91700	1.50471
3185.98844	1.49646
3184.05987	1.48811
3182.13131	1.48095
3180.20274	1.47444
3178.27418	1.46795
3176.34562	1.46238
3174.41705	1.45698
3172.48849	1.45028
3170.55992	1.44441
3168.63136	1.44077
3166.70279	1.43761
3164.77423	1.43327
3162.84566	1.42653
3160.91710	1.41923
3158.98854	1.41648
3157.05997	1.41768
3155.13141	1.41558
3153.20284	1.40763
3151.27428	1.39915
3149.34571	1.39451
3147.41715	1.39270
3145.48858	1.39123
3143.56002	1.38981
3141.63146	1.38869
3139.70289	1.38679
3137.77433	1.38514
3135.84576	1.38473
3133.91720	1.38303
3131.98863	1.37932
3130.06007	1.37544
3128.13150	1.37344
3126.20294	1.37562
3124.27438	1.38060
3122.34581	1.38311
3120.41725	1.38156
3118.48868	1.38043
3116.56012	1.38254
3114.63155	1.38569
3112.70299	1.38798
3110.77442	1.39018
3108.84586	1.39265
3106.91730	1.39345
3104.98873	1.39157
3103.06017	1.38926
3101.13160	1.38851
3099.20304	1.38725
3097.27447	1.38284
3095.34591	1.37764
3093.41734	1.37550
3091.48878	1.37555
3089.56022	1.37445
3087.63165	1.37199
3085.70309	1.36983
3083.77452	1.36720
3081.84596	1.36266
3079.91739	1.35752
3077.98883	1.35354
3076.06026	1.35016
3074.13170	1.34710
3072.20314	1.34464
3070.27457	1.34121
3068.34601	1.33593
3066.41744	1.33071
3064.48888	1.32685
3062.56031	1.32350
3060.63175	1.31878
3058.70318	1.31213
3056.77462	1.30635
3054.84606	1.30292
3052.91749	1.29984
3050.98893	1.29604
3049.06036	1.29131
3047.13180	1.28589
3045.20323	1.27991
3043.27467	1.27342
3041.34610	1.26815
3039.41754	1.26470
3037.48898	1.26151
3035.56041	1.25760
3033.63185	1.25263
3031.70328	1.24726
3029.77472	1.24324
3027.84615	1.24064
3025.91759	1.23767
3023.98903	1.23361
3022.06046	1.22890
3020.13190	1.22488
3018.20333	1.22268
3016.27477	1.22071
3014.34620	1.21749
3012.41764	1.21382
3010.48907	1.21092
3008.56051	1.20900
3006.63195	1.20720
3004.70338	1.20511
3002.77482	1.20321
3000.84625	1.20197
2998.91769	1.20214
2996.98912	1.20444
2995.06056	1.20826
2993.13199	1.21190
2991.20343	1.21476
2989.27487	1.21804
2987.34630	1.22303
2985.41774	1.22936
2983.48917	1.23611
2981.56061	1.24307
2979.63204	1.24992
2977.70348	1.25664
2975.77491	1.26398
2973.84635	1.27244
2971.91779	1.28121
2969.98922	1.28898
2968.06066	1.29592
2966.13209	1.30251
2964.20353	1.30842
2962.27496	1.31255
2960.34640	1.31268
2958.41783	1.30793
2956.48927	1.30046
2954.56071	1.29356
2952.63214	1.28804
2950.70358	1.28217
2948.77501	1.27681
2946.84645	1.27541
2944.91788	1.27926
2942.98932	1.28660
2941.06075	1.29589
2939.13219	1.30680
2937.20363	1.31764
2935.27506	1.32627
2933.34650	1.33304
2931.41793	1.33927
2929.48937	1.34523
2927.56080	1.35084
2925.63224	1.35471
2923.70367	1.35545
2921.77511	1.35498
2919.84655	1.35448
2917.91798	1.35039
2915.98942	1.33845
2914.06085	1.31932
2912.13229	1.29868
2910.20372	1.28084
2908.27516	1.26703
2906.34659	1.25723
2904.41803	1.25045
2902.48947	1.24558
2900.56090	1.24171
2898.63234	1.23894
2896.70377	1.23719
2894.77521	1.23508
2892.84664	1.23249
2890.91808	1.22923
2888.98952	1.22514
2887.06095	1.22187
2885.13239	1.21927
2883.20382	1.21651
2881.27526	1.21539
2879.34669	1.21700
2877.41813	1.21943
2875.48956	1.21924
2873.56100	1.21447
2871.63244	1.20708
2869.70387	1.19886
2867.77531	1.18901
2865.84674	1.17906
2863.91818	1.17197
2861.98961	1.16754
2860.06105	1.16489
2858.13248	1.16506
2856.20392	1.16809
2854.27536	1.17204
2852.34679	1.17545
2850.41823	1.17542
2848.48966	1.16585
2846.56110	1.14525
2844.63253	1.12128
2842.70397	1.10225
2840.77540	1.08951
2838.84684	1.07985
2836.91828	1.07108
2834.98971	1.06338
2833.06115	1.05752
2831.13258	1.05309
2829.20402	1.04892
2827.27545	1.04485
2825.34689	1.04129
2823.41832	1.03778
2821.48976	1.03428
2819.56120	1.03122
2817.63263	1.02772
2815.70407	1.02335
2813.77550	1.01907
2811.84694	1.01544
2809.91837	1.01253
2807.98981	1.00991
2806.06124	1.00654
2804.13268	1.00238
2802.20412	0.99844
2800.27555	0.99502
2798.34699	0.99165
2796.41842	0.98801
2794.48986	0.98394
2792.56129	0.97963
2790.63273	0.97532
2788.70416	0.97138
2786.77560	0.96855
2784.84704	0.96674
2782.91847	0.96485
2780.98991	0.96214
2779.06134	0.95918
2777.13278	0.95679
2775.20421	0.95479
2773.27565	0.95308
2771.34708	0.95173
2769.41852	0.95019
2767.48996	0.94825
2765.56139	0.94603
2763.63283	0.94346
2761.70426	0.94085
2759.77570	0.93889
2757.84713	0.93779
2755.91857	0.93659
2753.99001	0.93440
2752.06144	0.93196
2750.13288	0.93034
2748.20431	0.92873
2746.27575	0.92605
2744.34718	0.92306
2742.41862	0.92104
2740.49005	0.91987
2738.56149	0.91869
2736.63293	0.91696
2734.70436	0.91459
2732.77580	0.91197
2730.84723	0.90962
2728.91867	0.90742
2726.99010	0.90491
2725.06154	0.90226
2723.13297	0.89980
2721.20441	0.89728
2719.27585	0.89484
2717.34728	0.89302
2715.41872	0.89163
2713.49015	0.88989
2711.56159	0.88766
2709.63302	0.88560
2707.70446	0.88398
2705.77589	0.88253
2703.84733	0.88108
2701.91877	0.87968
2699.99020	0.87831
2698.06164	0.87694
2696.13307	0.87597
2694.20451	0.87538
2692.27594	0.87463
2690.34738	0.87386
2688.41881	0.87305
2686.49025	0.87203
2684.56169	0.87099
2682.63312	0.87012
2680.70456	0.86933
2678.77599	0.86808
2676.84743	0.86612
2674.91886	0.86423
2672.99030	0.86296
2671.06173	0.86158
2669.13317	0.85962
2667.20461	0.85759
2665.27604	0.85567
2663.34748	0.85371
2661.41891	0.85182
2659.49035	0.85005
2657.56178	0.84814
2655.63322	0.84585
2653.70465	0.84358
2651.77609	0.84204
2649.84753	0.84120
2647.91896	0.84036
2645.99040	0.83910
2644.06183	0.83750
2642.13327	0.83610
2640.20470	0.83522
2638.27614	0.83462
2636.34757	0.83423
2634.41901	0.83385
2632.49045	0.83287
2630.56188	0.83167
2628.63332	0.83108
2626.70475	0.83110
2624.77619	0.83138
2622.84762	0.83184
2620.91906	0.83210
2618.99049	0.83174
2617.06193	0.83122
2615.13337	0.83104
2613.20480	0.83093
2611.27624	0.83079
2609.34767	0.83074
2607.41911	0.83039
2605.49054	0.82955
2603.56198	0.82874
2601.63342	0.82814
2599.70485	0.82765
2597.77629	0.82736
2595.84772	0.82710
2593.91916	0.82642
2591.99059	0.82559
2590.06203	0.82507
2588.13346	0.82448
2586.20490	0.82348
2584.27634	0.82243
2582.34777	0.82156
2580.41921	0.82056
2578.49064	0.81919
2576.56208	0.81784
2574.63351	0.81673
2572.70495	0.81549
2570.77638	0.81404
2568.84782	0.81266
2566.91926	0.81122
2564.99069	0.80961
2563.06213	0.80809
2561.13356	0.80668
2559.20500	0.80529
2557.27643	0.80402
2555.34787	0.80290
2553.41930	0.80186
2551.49074	0.80100
2549.56218	0.80030
2547.63361	0.79953
2545.70505	0.79866
2543.77648	0.79790
2541.84792	0.79719
2539.91935	0.79639
2537.99079	0.79568
2536.06222	0.79514
2534.13366	0.79443
2532.20510	0.79343
2530.27653	0.79257
2528.34797	0.79211
2526.41940	0.79176
2524.49084	0.79121
2522.56227	0.79043
2520.63371	0.78967
2518.70514	0.78918
2516.77658	0.78891
2514.84802	0.78858
2512.91945	0.78823
2510.99089	0.78779
2509.06232	0.78703
2507.13376	0.78617
2505.20519	0.78532
2503.27663	0.78454
2501.34806	0.78405
2499.41950	0.78363
2497.49094	0.78298
2495.56237	0.78213
2493.63381	0.78118
2491.70524	0.78033
2489.77668	0.77960
2487.84811	0.77870
2485.91955	0.77764
2483.99098	0.77678
2482.06242	0.77644
2480.13386	0.77632
2478.20529	0.77568
2476.27673	0.77459
2474.34816	0.77375
2472.41960	0.77318
2470.49103	0.77252
2468.56247	0.77190
2466.63391	0.77159
2464.70534	0.77158
2462.77678	0.77155
2460.84821	0.77133
2458.91965	0.77124
2456.99108	0.77155
2455.06252	0.77172
2453.13395	0.77151
2451.20539	0.77161
2449.27683	0.77206
2447.34826	0.77213
2445.41970	0.77197
2443.49113	0.77229
2441.56257	0.77303
2439.63400	0.77368
2437.70544	0.77410
2435.77687	0.77442
2433.84831	0.77483
2431.91975	0.77539
2429.99118	0.77591
2428.06262	0.77619
2426.13405	0.77621
2424.20549	0.77626
2422.27692	0.77658
2420.34836	0.77690
2418.41979	0.77692
2416.49123	0.77674
2414.56267	0.77643
2412.63410	0.77606
2410.70554	0.77565
2408.77697	0.77524
2406.84841	0.77478
2404.91984	0.77417
2402.99128	0.77344
2401.06271	0.77280
2399.13415	0.77231
2397.20559	0.77182
2395.27702	0.77112
2393.34846	0.77010
2391.41989	0.76898
2389.49133	0.76821
2387.56276	0.76759
2385.63420	0.76673
2383.70563	0.76570
2381.77707	0.76474
2379.84851	0.76363
2377.91994	0.76191
2375.99138	0.75978
2374.06281	0.75745
2372.13425	0.75450
2370.20568	0.75109
2368.27712	0.74807
2366.34855	0.74603
2364.41999	0.74446
2362.49143	0.74247
2360.56286	0.74031
2358.63430	0.73871
2356.70573	0.73845
2354.77717	0.73956
2352.84860	0.74166
2350.92004	0.74348
2348.99147	0.74375
2347.06291	0.74251
2345.13435	0.74034
2343.20578	0.73780
2341.27722	0.73535
2339.34865	0.73367
2337.42009	0.73298
2335.49152	0.73308
2333.56296	0.73364
2331.63440	0.73456
2329.70583	0.73579
2327.77727	0.73626
2325.84870	0.73591
2323.92014	0.73530
2321.99157	0.73403
2320.06301	0.73270
2318.13444	0.73224
2316.20588	0.73241
2314.27732	0.73272
2312.34875	0.73274
2310.42019	0.73217
2308.49162	0.73137
2306.56306	0.73080
2304.63449	0.73041
2302.70593	0.72995
2300.77736	0.72933
2298.84880	0.72878
2296.92024	0.72838
2294.99167	0.72791
2293.06311	0.72761
2291.13454	0.72754
2289.20598	0.72731
2287.27741	0.72696
2285.34885	0.72695
2283.42028	0.72713
2281.49172	0.72680
2279.56316	0.72598
2277.63459	0.72526
2275.70603	0.72494
2273.77746	0.72490
2271.84890	0.72478
2269.92033	0.72448
2267.99177	0.72440
2266.06320	0.72456
2264.13464	0.72444
2262.20608	0.72390
2260.27751	0.72335
2258.34895	0.72308
2256.42038	0.72305
2254.49182	0.72302
2252.56325	0.72290
2250.63469	0.72290
2248.70612	0.72306
2246.77756	0.72314
2244.84900	0.72305
2242.92043	0.72296
2240.99187	0.72311
2239.06330	0.72338
2237.13474	0.72352
2235.20617	0.72347
2233.27761	0.72331
2231.34904	0.72326
2229.42048	0.72341
2227.49192	0.72363
2225.56335	0.72370
2223.63479	0.72357
2221.70622	0.72339
2219.77766	0.72318
2217.84909	0.72273
2215.92053	0.72196
2213.99196	0.72118
2212.06340	0.72063
2210.13484	0.72022
2208.20627	0.71963
2206.27771	0.71871
2204.34914	0.71770
2202.42058	0.71673
2200.49201	0.71556
2198.56345	0.71423
2196.63488	0.71317
2194.70632	0.71233
2192.77776	0.71128
2190.84919	0.70998
2188.92063	0.70868
2186.99206	0.70723
2185.06350	0.70554
2183.13493	0.70400
2181.20637	0.70292
2179.27781	0.70192
2177.34924	0.70052
2175.42068	0.69888
2173.49211	0.69726
2171.56355	0.69561
2169.63498	0.69414
2167.70642	0.69298
2165.77785	0.69187
2163.84929	0.69077
2161.92073	0.68962
2159.99216	0.68829
2158.06360	0.68708
2156.13503	0.68618
2154.20647	0.68527
2152.27790	0.68420
2150.34934	0.68318
2148.42077	0.68229
2146.49221	0.68138
2144.56365	0.68034
2142.63508	0.67925
2140.70652	0.67823
2138.77795	0.67731
2136.84939	0.67657
2134.92082	0.67593
2132.99226	0.67511
2131.06369	0.67422
2129.13513	0.67350
2127.20657	0.67274
2125.27800	0.67179
2123.34944	0.67099
2121.42087	0.67062
2119.49231	0.67049
2117.56374	0.67023
2115.63518	0.66961
2113.70661	0.66871
2111.77805	0.66803
2109.84949	0.66761
2107.92092	0.66716
2105.99236	0.66663
2104.06379	0.66611
2102.13523	0.66559
2100.20666	0.66520
2098.27810	0.66500
2096.34953	0.66473
2094.42097	0.66433
2092.49241	0.66396
2090.56384	0.66364
2088.63528	0.66338
2086.70671	0.66319
2084.77815	0.66286
2082.84958	0.66221
2080.92102	0.66158
2078.99245	0.66134
2077.06389	0.66137
2075.13533	0.66142
2073.20676	0.66141
2071.27820	0.66126
2069.34963	0.66100
2067.42107	0.66061
2065.49250	0.66010
2063.56394	0.65957
2061.63537	0.65895
2059.70681	0.65817
2057.77825	0.65735
2055.84968	0.65638
2053.92112	0.65526
2051.99255	0.65425
2050.06399	0.65337
2048.13542	0.65238
2046.20686	0.65127
2044.27830	0.65026
2042.34973	0.64931
2040.42117	0.64822
2038.49260	0.64724
2036.56404	0.64671
2034.63547	0.64640
2032.70691	0.64607
2030.77834	0.64586
2028.84978	0.64575
2026.92122	0.64562
2024.99265	0.64569
2023.06409	0.64609
2021.13552	0.64652
2019.20696	0.64683
2017.27839	0.64712
2015.34983	0.64742
2013.42126	0.64765
2011.49270	0.64772
2009.56414	0.64771
2007.63557	0.64772
2005.70701	0.64774
2003.77844	0.64769
2001.84988	0.64748
1999.92131	0.64693
1997.99275	0.64607
1996.06418	0.64517
1994.13562	0.64431
1992.20706	0.64326
1990.27849	0.64199
1988.34993	0.64061
1986.42136	0.63901
1984.49280	0.63716
1982.56423	0.63526
1980.63567	0.63336
1978.70710	0.63141
1976.77854	0.62952
1974.84998	0.62780
1972.92141	0.62606
1970.99285	0.62430
1969.06428	0.62279
1967.13572	0.62122
1965.20715	0.61927
1963.27859	0.61727
1961.35002	0.61539
1959.42146	0.61355
1957.49290	0.61185
1955.56433	0.61026
1953.63577	0.60866
1951.70720	0.60714
1949.77864	0.60581
1947.85007	0.60462
1945.92151	0.60359
1943.99294	0.60266
1942.06438	0.60130
1940.13582	0.59955
1938.20725	0.59809
1936.27869	0.59687
1934.35012	0.59563
1932.42156	0.59445
1930.49299	0.59341
1928.56443	0.59253
1926.63586	0.59192
1924.70730	0.59160
1922.77874	0.59123
1920.85017	0.59048
1918.92161	0.58952
1916.99304	0.58857
1915.06448	0.58784
1913.13591	0.58746
1911.20735	0.58739
1909.27878	0.58727
1907.35022	0.58686
1905.42166	0.58654
1903.49309	0.58659
1901.56453	0.58683
1899.63596	0.58714
1897.70740	0.58770
1895.77883	0.58850
1893.85027	0.58917
1891.92171	0.58975
1889.99314	0.59051
1888.06458	0.59107
1886.13601	0.59127
1884.20745	0.59142
1882.27888	0.59169
1880.35032	0.59212
1878.42175	0.59258
1876.49319	0.59303
1874.56463	0.59349
1872.63606	0.59409
1870.70750	0.59521
1868.77893	0.59668
1866.85037	0.59721
1864.92180	0.59702
1862.99324	0.59722
1861.06467	0.59772
1859.13611	0.59801
1857.20755	0.59791
1855.27898	0.59767
1853.35042	0.59752
1851.42185	0.59746
1849.49329	0.59748
1847.56472	0.59746
1845.63616	0.59720
1843.70759	0.59601
1841.77903	0.59401
1839.85047	0.59223
1837.92190	0.59071
1835.99334	0.58910
1834.06477	0.58764
1832.13621	0.58673
1830.20764	0.58573
1828.27908	0.58389
1826.35051	0.58203
1824.42195	0.58039
1822.49339	0.57856
1820.56482	0.57670
1818.63626	0.57526
1816.70769	0.57417
1814.77913	0.57335
1812.85056	0.57298
1810.92200	0.57278
1808.99343	0.57226
1807.06487	0.57158
1805.13631	0.57108
1803.20774	0.57098
1801.27918	0.57125
1799.35061	0.57126
1797.42205	0.57100
1795.49348	0.57103
1793.56492	0.57139
1791.63635	0.57128
1789.70779	0.57019
1787.77923	0.56931
1785.85066	0.56899
1783.92210	0.56878
1781.99353	0.56868
1780.06497	0.56858
1778.13640	0.56825
1776.20784	0.56809
1774.27927	0.56863
1772.35071	0.56921
1770.42215	0.56838
1768.49358	0.56688
1766.56502	0.56569
1764.63645	0.56541
1762.70789	0.56617
1760.77932	0.56733
1758.85076	0.56840
1756.92220	0.56974
1754.99363	0.57115
1753.06507	0.57330
1751.13650	0.57805
1749.20794	0.58448
1747.27937	0.58918
1745.35081	0.59282
1743.42224	0.59679
1741.49368	0.60111
1739.56512	0.60510
1737.63655	0.60777
1735.70799	0.61025
1733.77942	0.61442
1731.85086	0.61728
1729.92229	0.61881
1727.99373	0.62097
1726.06516	0.62406
1724.13660	0.62887
1722.20804	0.63456
1720.27947	0.64076
1718.35091	0.65156
1716.42234	0.66852
1714.49378	0.68186
1712.56521	0.69314
1710.63665	0.70728
1708.70808	0.72568
1706.77952	0.75307
1704.85096	0.78892
1702.92239	0.82157
1700.99383	0.86553
1699.06526	0.93217
1697.13670	0.98958
1695.20813	1.04049
1693.27957	1.07801
1691.35100	1.10805
1689.42244	1.14323
1687.49388	1.17375
1685.56531	1.20340
1683.63675	1.25066
1681.70818	1.28382
1679.77962	1.29946
1677.85105	1.31272
1675.92249	1.32874
1673.99392	1.34571
1672.06536	1.35813
1670.13680	1.36879
1668.20823	1.37801
1666.27967	1.38244
1664.35110	1.38752
1662.42254	1.39488
1660.49397	1.39928
1658.56541	1.40096
1656.63684	1.40164
1654.70828	1.40335
1652.77972	1.40504
1650.85115	1.40240
1648.92259	1.39936
1646.99402	1.39638
1645.06546	1.39358
1643.13689	1.39035
1641.20833	1.38799
1639.27976	1.38736
1637.35120	1.38875
1635.42264	1.38892
1633.49407	1.38529
1631.56551	1.38164
1629.63694	1.37750
1627.70838	1.37301
1625.77981	1.36864
1623.85125	1.36327
1621.92269	1.35569
1619.99412	1.34755
1618.06556	1.33722
1616.13699	1.31977
1614.20843	1.30139
1612.27986	1.28423
1610.35130	1.26465
1608.42273	1.24191
1606.49417	1.21924
1604.56561	1.19904
1602.63704	1.18042
1600.70848	1.16434
1598.77991	1.15224
1596.85135	1.14355
1594.92278	1.13690
1592.99422	1.13178
1591.06565	1.12871
1589.13709	1.12806
1587.20853	1.13040
1585.27996	1.13580
1583.35140	1.14366
1581.42283	1.15293
1579.49427	1.16278
1577.56570	1.17564
1575.63714	1.19285
1573.70857	1.20486
1571.78001	1.21400
1569.85145	1.22749
1567.92288	1.24098
1565.99432	1.25096
1564.06575	1.26123
1562.13719	1.27067
1560.20862	1.28288
1558.28006	1.30000
1556.35149	1.30374
1554.42293	1.30517
1552.49437	1.30721
1550.56580	1.30869
1548.63724	1.30930
1546.70867	1.30956
1544.78011	1.31093
1542.85154	1.31386
1540.92298	1.31349
1538.99441	1.30461
1537.06585	1.29856
1535.13729	1.29526
1533.20872	1.29200
1531.28016	1.28823
1529.35159	1.28553
1527.42303	1.28371
1525.49446	1.28089
1523.56590	1.27834
1521.63733	1.27813
1519.70877	1.27828
1517.78021	1.27619
1515.85164	1.27124
1513.92308	1.26353
1511.99451	1.25383
1510.06595	1.24366
1508.13738	1.22774
1506.20882	1.19545
1504.28025	1.17282
1502.35169	1.15711
1500.42313	1.13940
1498.49456	1.11635
1496.56600	1.08819
1494.63743	1.06554
1492.70887	1.05031
1490.78030	1.03391
1488.85174	1.01184
1486.92317	0.99335
1484.99461	0.98145
1483.06605	0.97347
1481.13748	0.96818
1479.20892	0.96593
1477.28035	0.96768
1475.35179	0.97443
1473.42322	0.98760
1471.49466	1.00135
1469.56610	1.00875
1467.63753	1.01453
1465.70897	1.02272
1463.78040	1.03155
1461.85184	1.03702
1459.92327	1.04190
1457.99471	1.05205
1456.06614	1.06236
1454.13758	1.06336
1452.20902	1.06198
1450.28045	1.06078
1448.35189	1.05932
1446.42332	1.05666
1444.49476	1.05295
1442.56619	1.04814
1440.63763	1.04275
1438.70906	1.03725
1436.78050	1.02936
1434.85194	1.01922
1432.92337	1.01053
1430.99481	1.00190
1429.06624	0.99223
1427.13768	0.98406
1425.20911	0.97835
1423.28055	0.97479
1421.35198	0.97337
1419.42342	0.97361
1417.49486	0.97367
1415.56629	0.97253
1413.63773	0.97106
1411.70916	0.96941
1409.78060	0.96778
1407.85203	0.96702
1405.92347	0.96782
1403.99490	0.96965
1402.06634	0.97146
1400.13778	0.97352
1398.20921	0.97588
1396.28065	0.97848
1394.35208	0.98163
1392.42352	0.98519
1390.49495	0.99038
1388.56639	1.00050
1386.63782	1.01681
1384.70926	1.03344
1382.78070	1.04754
1380.85213	1.05859
1378.92357	1.06396
1376.99500	1.06289
1375.06644	1.05493
1373.13787	1.04036
1371.20931	1.02331
1369.28074	1.00351
1367.35218	0.98076
1365.42362	0.95893
1363.49505	0.93728
1361.56649	0.91613
1359.63792	0.90016
1357.70936	0.88873
1355.78079	0.87986
1353.85223	0.87332
1351.92366	0.86880
1349.99510	0.86569
1348.06654	0.86386
1346.13797	0.86351
1344.20941	0.86476
1342.28084	0.86768
1340.35228	0.87291
1338.42371	0.88016
1336.49515	0.88840
1334.56659	0.89850
1332.63802	0.91090
1330.70946	0.92407
1328.78089	0.93552
1326.85233	0.94371
1324.92376	0.94894
1322.99520	0.95275
1321.06663	0.95651
1319.13807	0.96030
1317.20951	0.96353
1315.28094	0.96581
1313.35238	0.96709
1311.42381	0.96728
1309.49525	0.96620
1307.56668	0.96348
1305.63812	0.95887
1303.70955	0.95288
1301.78099	0.94643
1299.85243	0.93952
1297.92386	0.93125
1295.99530	0.92202
1294.06673	0.91372
1292.13817	0.90750
1290.20960	0.90338
1288.28104	0.90060
1286.35247	0.89808
1284.42391	0.89554
1282.49535	0.89356
1280.56678	0.89264
1278.63822	0.89270
1276.70965	0.89392
1274.78109	0.89700
1272.85252	0.90238
1270.92396	0.90956
1268.99539	0.91764
1267.06683	0.92562
1265.13827	0.93236
1263.20970	0.93666
1261.28114	0.93838
1259.35257	0.93897
1257.42401	0.93987
1255.49544	0.94114
1253.56688	0.94233
1251.63831	0.94357
1249.70975	0.94503
1247.78119	0.94646
1245.85262	0.94791
1243.92406	0.94952
1241.99549	0.95099
1240.06693	0.95178
1238.13836	0.95141
1236.20980	0.94972
1234.28123	0.94661
1232.35267	0.94185
1230.42411	0.93561
1228.49554	0.92851
1226.56698	0.92058
1224.63841	0.91167
1222.70985	0.90211
1220.78128	0.89227
1218.85272	0.88273
1216.92415	0.87474
1214.99559	0.86941
1213.06703	0.86701
1211.13846	0.86701
1209.20990	0.86795
1207.28133	0.86771
1205.35277	0.86455
1203.42420	0.85799
1201.49564	0.84903
1199.56708	0.83916
1197.63851	0.82957
1195.70995	0.82146
1193.78138	0.81589
1191.85282	0.81343
1189.92425	0.81412
1187.99569	0.81748
1186.06712	0.82301
1184.13856	0.83081
1182.21000	0.84139
1180.28143	0.85480
1178.35287	0.87025
1176.42430	0.88697
1174.49574	0.90516
1172.56717	0.92470
1170.63861	0.94475
1168.71004	0.96528
1166.78148	0.98597
1164.85292	1.00479
1162.92435	1.01942
1160.99579	1.02853
1159.06722	1.03192
1157.13866	1.03030
1155.21009	1.02431
1153.28153	1.01444
1151.35296	1.00214
1149.42440	0.98916
1147.49584	0.97672
1145.56727	0.96643
1143.63871	0.95939
1141.71014	0.95599
1139.78158	0.95672
1137.85301	0.96138
1135.92445	0.96951
1133.99588	0.98108
1132.06732	0.99555
1130.13876	1.01238
1128.21019	1.03078
1126.28163	1.04865
1124.35306	1.06414
1122.42450	1.07680
1120.49593	1.08626
1118.56737	1.09165
1116.63880	1.09241
1114.71024	1.08888
1112.78168	1.08287
1110.85311	1.07681
1108.92455	1.07173
1106.99598	1.06718
1105.06742	1.06310
1103.13885	1.06091
1101.21029	1.06182
1099.28172	1.06565
1097.35316	1.07181
1095.42460	1.08067
1093.49603	1.09249
1091.56747	1.10560
1089.63890	1.11822
1087.71034	1.13072
1085.78177	1.14396
1083.85321	1.15624
1081.92464	1.16320
1079.99608	1.16268
1078.06752	1.15763
1076.13895	1.15141
1074.21039	1.14414
1072.28182	1.13503
1070.35326	1.12389
1068.42469	1.11147
1066.49613	1.09885
1064.56756	1.08611
1062.63900	1.07358
1060.71044	1.06150
1058.78187	1.05006
1056.85331	1.04085
1054.92474	1.03456
1052.99618	1.03035
1051.06761	1.02834
1049.13905	1.02953
1047.21049	1.03398
1045.28192	1.04148
1043.35336	1.05136
1041.42479	1.06119
1039.49623	1.06841
1037.56766	1.07212
1035.63910	1.07292
1033.71053	1.07209
1031.78197	1.07026
1029.85341	1.06685
1027.92484	1.06063
1025.99628	1.05175
1024.06771	1.04244
1022.13915	1.03467
1020.21058	1.02889
1018.28202	1.02422
1016.35345	1.01842
1014.42489	1.00950
1012.49633	0.99683
1010.56776	0.98074
1008.63920	0.96277
1006.71063	0.94452
1004.78207	0.92674
1002.85350	0.91092
1000.92494	0.89877
998.99637	0.89012
997.06781	0.88390
995.13925	0.87904
993.21068	0.87372
991.28212	0.86663
989.35355	0.85858
987.42499	0.85100
985.49642	0.84444
983.56786	0.83941
981.63929	0.83683
979.71073	0.83664
977.78217	0.83745
975.85360	0.83798
973.92504	0.83730
971.99647	0.83461
970.06791	0.83038
968.13934	0.82621
966.21078	0.82367
964.28221	0.82404
962.35365	0.82876
960.42509	0.83914
958.49652	0.85415
956.56796	0.86849
954.63939	0.87538
952.71083	0.87264
950.78226	0.86285
948.85370	0.84985
946.92513	0.83714
944.99657	0.82665
943.06801	0.81843
941.13944	0.81167
939.21088	0.80562
937.28231	0.80027
935.35375	0.79600
933.42518	0.79265
931.49662	0.78996
929.56805	0.78803
927.63949	0.78722
925.71093	0.78783
923.78236	0.78947
921.85380	0.79127
919.92523	0.79225
917.99667	0.79234
916.06810	0.79273
914.13954	0.79397
912.21098	0.79620
910.28241	0.80033
908.35385	0.80647
906.42528	0.81354
904.49672	0.82101
902.56815	0.82848
900.63959	0.83434
898.71102	0.83740
896.78246	0.83801
894.85390	0.83681
892.92533	0.83408
890.99677	0.83005
889.06820	0.82497
887.13964	0.81927
885.21107	0.81367
883.28251	0.80893
881.35394	0.80539
879.42538	0.80267
877.49682	0.80031
875.56825	0.79829
873.63969	0.79638
871.71112	0.79429
869.78256	0.79251
867.85399	0.79173
865.92543	0.79218
863.99686	0.79334
862.06830	0.79463
860.13974	0.79655
858.21117	0.80007
856.28261	0.80536
854.35404	0.81129
852.42548	0.81632
850.49691	0.82068
848.56835	0.82594
846.63978	0.83223
844.71122	0.83880
842.78266	0.84568
840.85409	0.85321
838.92553	0.86106
836.99696	0.86898
835.06840	0.87768
833.13983	0.88713
831.21127	0.89601
829.28270	0.90364
827.35414	0.91064
825.42558	0.91798
823.49701	0.92586
821.56845	0.93346
819.63988	0.94036
817.71132	0.94733
815.78275	0.95509
813.85419	0.96351
811.92562	0.97223
809.99706	0.98081
808.06850	0.98869
806.13993	0.99583
804.21137	1.00282
802.28280	1.00952
800.35424	1.01546
798.42567	1.02141
796.49711	1.02800
794.56854	1.03536
792.63998	1.04377
790.71142	1.05248
788.78285	1.06048
786.85429	1.06775
784.92572	1.07439
782.99716	1.08060
781.06859	1.08660
779.14003	1.09189
777.21147	1.09623
775.28290	1.09997
773.35434	1.10278
771.42577	1.10421
769.49721	1.10438
767.56864	1.10385
765.64008	1.10244
763.71151	1.09870
761.78295	1.09300
759.85439	1.08766
757.92582	1.08321
755.99726	1.07821
754.06869	1.07200
752.14013	1.06527
750.21156	1.05858
748.28300	1.05200
746.35443	1.04499
744.42587	1.03699
742.49731	1.02909
740.56874	1.02267
738.64018	1.01741
736.71161	1.01322
734.78305	1.01054
732.85448	1.00873
730.92592	1.00733
728.99735	1.00682
727.06879	1.00772
725.14023	1.01070
723.21166	1.01569
721.28310	1.02185
719.35453	1.02877
717.42597	1.03621
715.49740	1.04403
713.56884	1.05308
711.64027	1.06388
709.71171	1.07523
707.78315	1.08590
705.85458	1.09600
703.92602	1.10607
701.99745	1.11627
700.06889	1.12573
698.14032	1.13315
696.21176	1.13902
694.28319	1.14454
692.35463	1.14973
690.42607	1.15433
688.49750	1.15717
686.56894	1.15693
684.64037	1.15535
682.71181	1.15508
680.78324	1.15495
678.85468	1.15284
676.92611	1.15067
674.99755	1.14854
673.06899	1.14364
671.14042	1.13654
669.21186	1.12736
667.28329	1.11827
665.35473	1.11366
663.42616	1.11020
661.49760	1.10647
659.56903	1.10255
657.64047	1.09852
655.71191	1.09564
653.78334	1.09498
651.85478	1.09582
649.92621	1.09784
647.99765	1.10280
646.06908	1.11126
644.14052	1.12137
642.21195	1.13142
640.28339	1.14128
638.35483	1.15100
636.42626	1.15880
634.49770	1.16326
632.56913	1.16699
630.64057	1.17237
628.71200	1.17810
626.78344	1.18315
624.85488	1.18749
622.92631	1.19074
620.99775	1.19186
619.06918	1.19001
617.14062	1.18641
615.21205	1.18344
613.28349	1.18083
611.35492	1.17722
609.42636	1.17364
607.49780	1.16934
605.56923	1.16175
603.64067	1.15101
601.71210	1.14046
599.78354	1.13388
