3997.91406	1.29138
3995.98550	1.29239
3994.05693	1.29591
3992.12837	1.29520
3990.19980	1.29144
3988.27124	1.29113
3986.34268	1.29286
3984.41411	1.29328
3982.48555	1.29380
3980.55698	1.29279
3978.62842	1.28859
3976.69985	1.28567
3974.77129	1.28797
3972.84272	1.29185
3970.91416	1.29129
3968.98560	1.28801
3967.05703	1.28659
3965.12847	1.28663
3963.19990	1.28731
3961.27134	1.28749
3959.34277	1.28491
3957.41421	1.28262
3955.48564	1.28381
3953.55708	1.28669
3951.62852	1.28910
3949.69995	1.28946
3947.77139	1.28860
3945.84282	1.28787
3943.91426	1.28413
3941.98569	1.27741
3940.05713	1.27366
3938.12856	1.27454
3936.20000	1.27855
3934.27144	1.28336
3932.34287	1.28484
3930.41431	1.28158
3928.48574	1.27717
3926.55718	1.27364
3924.62861	1.27204
3922.70005	1.27383
3920.77148	1.27719
3918.84292	1.27799
3916.91436	1.27552
3914.98579	1.27282
3913.05723	1.27056
3911.12866	1.26831
3909.20010	1.26807
3907.27153	1.27170
3905.34297	1.27470
3903.41440	1.27162
3901.48584	1.27079
3899.55728	1.27296
3897.62871	1.26903
3895.70015	1.26184
3893.77158	1.25811
3891.84302	1.26160
3889.91445	1.26756
3887.98589	1.26942
3886.05733	1.26779
3884.12876	1.26713
3882.20020	1.26769
3880.27163	1.26352
3878.34307	1.25784
3876.41450	1.25634
3874.48594	1.25703
3872.55737	1.25773
3870.62881	1.25874
3868.70025	1.25883
3866.77168	1.25881
3864.84312	1.25910
3862.91455	1.25572
3860.98599	1.25107
3859.05742	1.25023
3857.12886	1.25241
3855.20029	1.25258
3853.27173	1.24584
3851.34317	1.24316
3849.41460	1.24507
3847.48604	1.24638
3845.55747	1.24734
3843.62891	1.24984
3841.70034	1.25333
3839.77178	1.25419
3837.84321	1.25132
3835.91465	1.24850
3833.98609	1.24594
3832.05752	1.24283
3830.12896	1.24189
3828.20039	1.24398
3826.27183	1.24625
3824.34326	1.24694
3822.41470	1.24613
3820.48613	1.24264
3818.55757	1.23863
3816.62901	1.23844
3814.70044	1.24218
3812.77188	1.24372
3810.84331	1.24420
3808.91475	1.24828
3806.98618	1.25194
3805.05762	1.24797
3803.12905	1.24305
3801.20049	1.24393
3799.27193	1.24447
3797.34336	1.24083
3795.41480	1.23824
3793.48623	1.23766
3791.55767	1.23706
3789.62910	1.23684
3787.70054	1.23683
3785.77197	1.23604
3783.84341	1.23406
3781.91485	1.23221
3779.98628	1.23196
3778.05772	1.23245
3776.12915	1.23252
3774.20059	1.23268
3772.27202	1.23372
3770.34346	1.23543
3768.41489	1.23578
3766.48633	1.23436
3764.55777	1.23314
3762.62920	1.23364
3760.70064	1.23562
3758.77207	1.23547
3756.84351	1.23294
3754.91494	1.23332
3752.98638	1.23615
3751.05781	1.23666
3749.12925	1.23470
3747.20069	1.23296
3745.27212	1.23190
3743.34356	1.23305
3741.41499	1.23583
3739.48643	1.23984
3737.55786	1.24557
3735.62930	1.24853
3733.70074	1.24004
3731.77217	1.23037
3729.84361	1.22833
3727.91504	1.23192
3725.98648	1.23713
3724.05791	1.23865
3722.12935	1.23581
3720.20078	1.23248
3718.27222	1.23043
3716.34366	1.23089
3714.41509	1.23468
3712.48653	1.23777
3710.55796	1.23328
3708.62940	1.22828
3706.70083	1.22790
3704.77227	1.22899
3702.84370	1.22991
3700.91514	1.23048
3698.98658	1.22996
3697.05801	1.22911
3695.12945	1.22890
3693.20088	1.23068
3691.27232	1.23610
3689.34375	1.24123
3687.41519	1.24213
3685.48662	1.24197
3683.55806	1.24171
3681.62950	1.24361
3679.70093	1.24814
3677.77237	1.25139
3675.84380	1.25257
3673.91524	1.25475
3671.98667	1.25673
3670.05811	1.25906
3668.12954	1.26174
3666.20098	1.26329
3664.27242	1.26582
3662.34385	1.27181
3660.41529	1.27904
3658.48672	1.28275
3656.55816	1.28331
3654.62959	1.28565
3652.70103	1.29069
3650.77246	1.29600
3648.84390	1.30358
3646.91534	1.31434
3644.98677	1.31827
3643.05821	1.31699
3641.12964	1.31837
3639.20108	1.32572
3637.27251	1.33547
3635.34395	1.34356
3633.41538	1.34721
3631.48682	1.34568
3629.55826	1.34424
3627.62969	1.35166
3625.70113	1.36088
3623.77256	1.36603
3621.84400	1.36791
3619.91543	1.37242
3617.98687	1.38325
3616.05830	1.39159
3614.12974	1.39545
3612.20118	1.39933
3610.27261	1.40350
3608.34405	1.40772
3606.41548	1.41455
3604.48692	1.42302
3602.55835	1.43165
3600.62979	1.43760
3598.70123	1.43760
3596.77266	1.43712
3594.84410	1.44322
3592.91553	1.45266
3590.98697	1.45828
3589.05840	1.45971
3587.12984	1.46155
3585.20127	1.46629
3583.27271	1.47165
3581.34415	1.47784
3579.41558	1.48588
3577.48702	1.49556
3575.55845	1.50431
3573.62989	1.50888
3571.70132	1.51194
3569.77276	1.51924
3567.84419	1.52982
3565.91563	1.53244
3563.98707	1.53061
3562.05850	1.53302
3560.12994	1.53665
3558.20137	1.53964
3556.27281	1.54497
3554.34424	1.55278
3552.41568	1.55914
3550.48711	1.56264
3548.55855	1.56755
3546.62999	1.57446
3544.70142	1.57874
3542.77286	1.58357
3540.84429	1.59198
3538.91573	1.59869
3536.98716	1.60203
3535.05860	1.60464
3533.13003	1.60830
3531.20147	1.61298
3529.27291	1.61720
3527.34434	1.62528
3525.41578	1.63629
3523.48721	1.63967
3521.55865	1.63702
3519.63008	1.63919
3517.70152	1.65015
3515.77295	1.66421
3513.84439	1.67247
3511.91583	1.67465
3509.98726	1.67784
3508.05870	1.68558
3506.13013	1.69658
3504.20157	1.70766
3502.27300	1.71326
3500.34444	1.71528
3498.41587	1.72074
3496.48731	1.73043
3494.55875	1.73668
3492.63018	1.73746
3490.70162	1.74250
3488.77305	1.75206
3486.84449	1.75781
3484.91592	1.75934
3482.98736	1.76207
3481.05879	1.76759
3479.13023	1.77054
3477.20167	1.77063
3475.27310	1.77028
3473.34454	1.76823
3471.41597	1.76818
3469.48741	1.77458
3467.55884	1.78243
3465.63028	1.78353
3463.70171	1.77919
3461.77315	1.77870
3459.84459	1.78535
3457.91602	1.79095
3455.98746	1.79345
3454.05889	1.79574
3452.13033	1.79195
3450.20176	1.78665
3448.27320	1.79067
3446.34464	1.79587
3444.41607	1.79652
3442.48751	1.80264
3440.55894	1.81171
3438.63038	1.81492
3436.70181	1.81431
3434.77325	1.81352
3432.84468	1.81467
3430.91612	1.81792
3428.98756	1.81610
3427.05899	1.80528
3425.13043	1.79831
3423.20186	1.80365
3421.27330	1.81138
3419.34473	1.81346
3417.41617	1.81135
3415.48760	1.81232
3413.55904	1.81980
3411.63048	1.82468
3409.70191	1.82212
3407.77335	1.81665
3405.84478	1.81688
3403.91622	1.82266
3401.98765	1.82243
3400.05909	1.81883
3398.13052	1.82134
3396.20196	1.82978
3394.27340	1.83605
3392.34483	1.83050
3390.41627	1.82320
3388.48770	1.82834
3386.55914	1.83541
3384.63057	1.83165
3382.70201	1.82557
3380.77344	1.82734
3378.84488	1.83507
3376.91632	1.84049
3374.98775	1.83733
3373.05919	1.83014
3371.13062	1.83010
3369.20206	1.83984
3367.27349	1.84914
3365.34493	1.85067
3363.41636	1.84754
3361.48780	1.84202
3359.55924	1.83608
3357.63067	1.83336
3355.70211	1.83515
3353.77354	1.84163
3351.84498	1.84940
3349.91641	1.85196
3347.98785	1.84939
3346.05928	1.84678
3344.13072	1.84544
3342.20216	1.84632
3340.27359	1.85128
3338.34503	1.85524
3336.41646	1.85490
3334.48790	1.85803
3332.55933	1.86608
3330.63077	1.87233
3328.70220	1.87529
3326.77364	1.87468
3324.84508	1.87178
3322.91651	1.87411
3320.98795	1.88655
3319.05938	1.89802
3317.13082	1.89347
3315.20225	1.88311
3313.27369	1.88168
3311.34513	1.88471
3309.41656	1.88802
3307.48800	1.89210
3305.55943	1.89240
3303.63087	1.88903
3301.70230	1.88954
3299.77374	1.89648
3297.84517	1.90170
3295.91661	1.89809
3293.98805	1.88958
3292.05948	1.88622
3290.13092	1.89562
3288.20235	1.90909
3286.27379	1.90876
3284.34522	1.89664
3282.41666	1.88895
3280.48809	1.89325
3278.55953	1.90235
3276.63097	1.90105
3274.70240	1.88543
3272.77384	1.86912
3270.84527	1.86297
3268.91671	1.86236
3266.98814	1.86137
3265.05958	1.86018
3263.13101	1.85868
3261.20245	1.85693
3259.27389	1.85417
3257.34532	1.85219
3255.41676	1.85039
3253.48819	1.84471
3251.55963	1.84191
3249.63106	1.84409
3247.70250	1.84250
3245.77393	1.83740
3243.84537	1.83170
3241.91681	1.82219
3239.98824	1.81145
3238.05968	1.80552
3236.13111	1.80282
3234.20255	1.80214
3232.27398	1.80570
3230.34542	1.80897
3228.41685	1.80545
3226.48829	1.79381
3224.55973	1.78032
3222.63116	1.77422
3220.70260	1.77352
3218.77403	1.77188
3216.84547	1.77102
3214.91690	1.76990
3212.98834	1.76506
3211.05977	1.76195
3209.13121	1.76341
3207.20265	1.76185
3205.27408	1.75584
3203.34552	1.75110
3201.41695	1.74593
3199.48839	1.73897
3197.55982	1.73454
3195.63126	1.73262
3193.70269	1.73008
3191.77413	1.72429
3189.84557	1.71565
3187.91700	1.71048
3185.98844	1.70989
3184.05987	1.70557
3182.13131	1.69583
3180.20274	1.68804
3178.27418	1.68460
3176.34562	1.68342
3174.41705	1.68410
3172.48849	1.68306
3170.55992	1.67563
3168.63136	1.66749
3166.70279	1.66404
3164.77423	1.65798
3162.84566	1.64913
3160.91710	1.64768
3158.98854	1.65128
3157.05997	1.65126
3155.13141	1.64763
3153.20284	1.64278
3151.27428	1.63770
3149.34571	1.63334
3147.41715	1.62919
3145.48858	1.62630
3143.56002	1.62717
3141.63146	1.62732
3139.70289	1.62227
3137.77433	1.61940
3135.84576	1.62198
3133.91720	1.62353
3131.98863	1.62431
3130.06007	1.62580
3128.13150	1.62309
3126.20294	1.61747
3124.27438	1.61584
3122.34581	1.61960
3120.41725	1.62296
3118.48868	1.62216
3116.56012	1.62199
3114.63155	1.62530
3112.70299	1.62862
3110.77442	1.62956
3108.84586	1.62805
3106.91730	1.62667
3104.98873	1.62719
3103.06017	1.62666
3101.13160	1.62370
3099.20304	1.61945
3097.27447	1.61471
3095.34591	1.61313
3093.41734	1.61556
3091.48878	1.61610
3089.56022	1.61220
3087.63165	1.60717
3085.70309	1.60459
3083.77452	1.60464
3081.84596	1.60337
3079.91739	1.59979
3077.98883	1.59738
3076.06026	1.59603
3074.13170	1.59365
3072.20314	1.59187
3070.27457	1.59161
3068.34601	1.59019
3066.41744	1.58710
3064.48888	1.58372
3062.56031	1.57893
3060.63175	1.57275
3058.70318	1.56724
3056.77462	1.56314
3054.84606	1.55979
3052.91749	1.55632
3050.98893	1.55129
3049.06036	1.54440
3047.13180	1.53814
3045.20323	1.53354
3043.27467	1.53047
3041.34610	1.52842
3039.41754	1.52512
3037.48898	1.52092
3035.56041	1.51686
3033.63185	1.51187
3031.70328	1.50686
3029.77472	1.50256
3027.84615	1.49906
3025.91759	1.49750
3023.98903	1.49717
3022.06046	1.49544
3020.13190	1.49216
3018.20333	1.48992
3016.27477	1.48833
3014.34620	1.48616
3012.41764	1.48405
3010.48907	1.48037
3008.56051	1.47588
3006.63195	1.47333
3004.70338	1.47176
3002.77482	1.47091
3000.84625	1.47243
2998.91769	1.47632
2996.98912	1.48052
2995.06056	1.48287
2993.13199	1.48437
2991.20343	1.48734
2989.27487	1.49054
2987.34630	1.49268
2985.41774	1.49769
2983.48917	1.50773
2981.56061	1.51716
2979.63204	1.52180
2977.70348	1.52547
2975.77491	1.53179
2973.84635	1.53954
2971.91779	1.54659
2969.98922	1.55196
2968.06066	1.55674
2966.13209	1.56222
2964.20353	1.56629
2962.27496	1.56766
2960.34640	1.56783
2958.41783	1.56671
2956.48927	1.56412
2954.56071	1.56020
2952.63214	1.55422
2950.70358	1.54772
2948.77501	1.54466
2946.84645	1.54775
2944.91788	1.55528
2942.98932	1.56336
2941.06075	1.56945
2939.13219	1.57465
2937.20363	1.58466
2935.27506	1.60040
2933.34650	1.61379
2931.41793	1.62150
2929.48937	1.62847
2927.56080	1.63595
2925.63224	1.64237
2923.70367	1.65050
2921.77511	1.65974
2919.84655	1.66291
2917.91798	1.65647
2915.98942	1.64140
2914.06085	1.62074
2912.13229	1.59834
2910.20372	1.57585
2908.27516	1.55633
2906.34659	1.54318
2904.41803	1.53486
2902.48947	1.52889
2900.56090	1.52442
2898.63234	1.52055
2896.70377	1.51825
2894.77521	1.51702
2892.84664	1.51302
2890.91808	1.50603
2888.98952	1.49862
2887.06095	1.49195
2885.13239	1.48752
2883.20382	1.48578
2881.27526	1.48528
2879.34669	1.48603
2877.41813	1.48798
2875.48956	1.48885
2873.56100	1.48670
2871.63244	1.48167
2869.70387	1.47501
2867.77531	1.46736
2865.84674	1.46001
2863.91818	1.45529
2861.98961	1.45388
2860.06105	1.45627
2858.13248	1.46337
2856.20392	1.47361
2854.27536	1.48415
2852.34679	1.49239
2850.41823	1.49365
2848.48966	1.48181
2846.56110	1.45750
2844.63253	1.42995
2842.70397	1.40690
2840.77540	1.39017
2838.84684	1.37883
2836.91828	1.36988
2834.98971	1.36140
2833.06115	1.35468
2831.13258	1.34978
2829.20402	1.34529
2827.27545	1.34066
2825.34689	1.33543
2823.41832	1.33021
2821.48976	1.32635
2819.56120	1.32387
2817.63263	1.32139
2815.70407	1.31808
2813.77550	1.31423
2811.84694	1.30989
2809.91837	1.30597
2807.98981	1.30344
2806.06124	1.30077
2804.13268	1.29698
2802.20412	1.29371
2800.27555	1.29145
2798.34699	1.28848
2796.41842	1.28479
2794.48986	1.28168
2792.56129	1.27861
2790.63273	1.27509
2788.70416	1.27191
2786.77560	1.26940
2784.84704	1.26739
2782.91847	1.26605
2780.98991	1.26473
2779.06134	1.26179
2777.13278	1.25798
2775.20421	1.25592
2773.27565	1.25570
2771.34708	1.25511
2769.41852	1.25336
2767.48996	1.25136
2765.56139	1.24950
2763.63283	1.24748
2761.70426	1.24567
2759.77570	1.24417
2757.84713	1.24218
2755.91857	1.23982
2753.99001	1.23797
2752.06144	1.23668
2750.13288	1.23557
2748.20431	1.23415
2746.27575	1.23265
2744.34718	1.23182
2742.41862	1.23089
2740.49005	1.22866
2738.56149	1.22613
2736.63293	1.22521
2734.70436	1.22549
2732.77580	1.22494
2730.84723	1.22285
2728.91867	1.22004
2726.99010	1.21803
2725.06154	1.21752
2723.13297	1.21727
2721.20441	1.21596
2719.27585	1.21368
2717.34728	1.21112
2715.41872	1.20873
2713.49015	1.20645
2711.56159	1.20395
2709.63302	1.20144
2707.70446	1.19935
2705.77589	1.19775
2703.84733	1.19697
2701.91877	1.19670
2699.99020	1.19554
2698.06164	1.19283
2696.13307	1.18930
2694.20451	1.18664
2692.27594	1.18588
2690.34738	1.18643
2688.41881	1.18690
2686.49025	1.18613
2684.56169	1.18408
2682.63312	1.18184
2680.70456	1.18041
2678.77599	1.18013
2676.84743	1.18046
2674.91886	1.17998
2672.99030	1.17849
2671.06173	1.17685
2669.13317	1.17494
2667.20461	1.17309
2665.27604	1.17181
2663.34748	1.17004
2661.41891	1.16803
2659.49035	1.16735
2657.56178	1.16739
2655.63322	1.16690
2653.70465	1.16640
2651.77609	1.16614
2649.84753	1.16513
2647.91896	1.16353
2645.99040	1.16221
2644.06183	1.16100
2642.13327	1.15962
2640.20470	1.15819
2638.27614	1.15694
2636.34757	1.15597
2634.41901	1.15449
2632.49045	1.15194
2630.56188	1.14989
2628.63332	1.14954
2626.70475	1.14940
2624.77619	1.14882
2622.84762	1.14876
2620.91906	1.14876
2618.99049	1.14764
2617.06193	1.14596
2615.13337	1.14497
2613.20480	1.14465
2611.27624	1.14423
2609.34767	1.14309
2607.41911	1.14195
2605.49054	1.14195
2603.56198	1.14240
2601.63342	1.14188
2599.70485	1.14045
2597.77629	1.13906
2595.84772	1.13790
2593.91916	1.13659
2591.99059	1.13548
2590.06203	1.13489
2588.13346	1.13429
2586.20490	1.13343
2584.27634	1.13239
2582.34777	1.13073
2580.41921	1.12812
2578.49064	1.12524
2576.56208	1.12325
2574.63351	1.12222
2572.70495	1.12123
2570.77638	1.12017
2568.84782	1.11946
2566.91926	1.11880
2564.99069	1.11721
2563.06213	1.11465
2561.13356	1.11235
2559.20500	1.11111
2557.27643	1.11076
2555.34787	1.11054
2553.41930	1.10967
2551.49074	1.10854
2549.56218	1.10791
2547.63361	1.10755
2545.70505	1.10699
2543.77648	1.10630
2541.84792	1.10574
2539.91935	1.10545
2537.99079	1.10510
2536.06222	1.10428
2534.13366	1.10318
2532.20510	1.10212
2530.27653	1.10118
2528.34797	1.10047
2526.41940	1.09955
2524.49084	1.09832
2522.56227	1.09739
2520.63371	1.09654
2518.70514	1.09544
2516.77658	1.09420
2514.84802	1.09255
2512.91945	1.09086
2510.99089	1.08967
2509.06232	1.08848
2507.13376	1.08701
2505.20519	1.08540
2503.27663	1.08405
2501.34806	1.08351
2499.41950	1.08312
2497.49094	1.08202
2495.56237	1.08064
2493.63381	1.07935
2491.70524	1.07835
2489.77668	1.07780
2487.84811	1.07722
2485.91955	1.07646
2483.99098	1.07574
2482.06242	1.07522
2480.13386	1.07492
2478.20529	1.07403
2476.27673	1.07174
2474.34816	1.06886
2472.41960	1.06677
2470.49103	1.06548
2468.56247	1.06454
2466.63391	1.06390
2464.70534	1.06335
2462.77678	1.06272
2460.84821	1.06219
2458.91965	1.06161
2456.99108	1.06040
2455.06252	1.05873
2453.13395	1.05716
2451.20539	1.05588
2449.27683	1.05497
2447.34826	1.05422
2445.41970	1.05309
2443.49113	1.05145
2441.56257	1.04987
2439.63400	1.04904
2437.70544	1.04869
2435.77687	1.04799
2433.84831	1.04679
2431.91975	1.04568
2429.99118	1.04525
2428.06262	1.04550
2426.13405	1.04580
2424.20549	1.04545
2422.27692	1.04436
2420.34836	1.04314
2418.41979	1.04238
2416.49123	1.04222
2414.56267	1.04213
2412.63410	1.04117
2410.70554	1.03945
2408.77697	1.03807
2406.84841	1.03714
2404.91984	1.03600
2402.99128	1.03460
2401.06271	1.03349
2399.13415	1.03301
2397.20559	1.03258
2395.27702	1.03160
2393.34846	1.03015
2391.41989	1.02828
2389.49133	1.02643
2387.56276	1.02508
2385.63420	1.02372
2383.70563	1.02201
2381.77707	1.02044
2379.84851	1.01908
2377.91994	1.01776
2375.99138	1.01671
2374.06281	1.01595
2372.13425	1.01454
2370.20568	1.01172
2368.27712	1.00814
2366.34855	1.00667
2364.41999	1.01047
2362.49143	1.01421
2360.56286	1.01130
2358.63430	1.00719
2356.70573	1.00440
2354.77717	1.00204
2352.84860	1.00259
2350.92004	1.00417
2348.99147	1.00425
2347.06291	1.00335
2345.13435	1.00319
2343.20578	1.00407
2341.27722	1.00376
2339.34865	1.00274
2337.42009	1.00254
2335.49152	1.00323
2333.56296	1.00397
2331.63440	1.00374
2329.70583	1.00346
2327.77727	1.00408
2325.84870	1.00408
2323.92014	1.00270
2321.99157	1.00091
2320.06301	0.99903
2318.13444	0.99738
2316.20588	0.99618
2314.27732	0.99434
2312.34875	0.99190
2310.42019	0.99070
2308.49162	0.99094
2306.56306	0.99084
2304.63449	0.98972
2302.70593	0.98853
2300.77736	0.98760
2298.84880	0.98681
2296.92024	0.98646
2294.99167	0.98621
2293.06311	0.98568
2291.13454	0.98541
2289.20598	0.98557
2287.27741	0.98551
2285.34885	0.98532
2283.42028	0.98543
2281.49172	0.98539
2279.56316	0.98494
2277.63459	0.98474
2275.70603	0.98487
2273.77746	0.98462
2271.84890	0.98384
2269.92033	0.98258
2267.99177	0.98113
2266.06320	0.98030
2264.13464	0.97988
2262.20608	0.97903
2260.27751	0.97800
2258.34895	0.97711
2256.42038	0.97597
2254.49182	0.97432
2252.56325	0.97255
2250.63469	0.97138
2248.70612	0.97050
2246.77756	0.96903
2244.84900	0.96741
2242.92043	0.96667
2240.99187	0.96645
2239.06330	0.96581
2237.13474	0.96468
2235.20617	0.96368
2233.27761	0.96312
2231.34904	0.96282
2229.42048	0.96275
2227.49192	0.96315
2225.56335	0.96348
2223.63479	0.96313
2221.70622	0.96256
2219.77766	0.96216
2217.84909	0.96199
2215.92053	0.96214
2213.99196	0.96243
2212.06340	0.96248
2210.13484	0.96225
2208.20627	0.96204
2206.27771	0.96195
2204.34914	0.96180
2202.42058	0.96145
2200.49201	0.96074
2198.56345	0.95973
2196.63488	0.95900
2194.70632	0.95889
2192.77776	0.95885
2190.84919	0.95859
2188.92063	0.95826
2186.99206	0.95790
2185.06350	0.95743
2183.13493	0.95689
2181.20637	0.95653
2179.27781	0.95638
2177.34924	0.95597
2175.42068	0.95519
2173.49211	0.95445
2171.56355	0.95403
2169.63498	0.95400
2167.70642	0.95403
2165.77785	0.95370
2163.84929	0.95298
2161.92073	0.95215
2159.99216	0.95118
2158.06360	0.95005
2156.13503	0.94943
2154.20647	0.94954
2152.27790	0.94946
2150.34934	0.94855
2148.42077	0.94727
2146.49221	0.94634
2144.56365	0.94584
2142.63508	0.94542
2140.70652	0.94496
2138.77795	0.94433
2136.84939	0.94340
2134.92082	0.94228
2132.99226	0.94125
2131.06369	0.94055
2129.13513	0.94020
2127.20657	0.94008
2125.27800	0.93980
2123.34944	0.93901
2121.42087	0.93796
2119.49231	0.93716
2117.56374	0.93693
2115.63518	0.93675
2113.70661	0.93601
2111.77805	0.93512
2109.84949	0.93462
2107.92092	0.93409
2105.99236	0.93306
2104.06379	0.93203
2102.13523	0.93148
2100.20666	0.93133
2098.27810	0.93141
2096.34953	0.93140
2094.42097	0.93099
2092.49241	0.93028
2090.56384	0.92960
2088.63528	0.92938
2086.70671	0.92948
2084.77815	0.92928
2082.84958	0.92885
2080.92102	0.92861
2078.99245	0.92855
2077.06389	0.92845
2075.13533	0.92807
2073.20676	0.92745
2071.27820	0.92680
2069.34963	0.92620
2067.42107	0.92598
2065.49250	0.92618
2063.56394	0.92614
2061.63537	0.92576
2059.70681	0.92526
2057.77825	0.92445
2055.84968	0.92359
2053.92112	0.92301
2051.99255	0.92243
2050.06399	0.92170
2048.13542	0.92087
2046.20686	0.91990
2044.27830	0.91881
2042.34973	0.91760
2040.42117	0.91626
2038.49260	0.91478
2036.56404	0.91323
2034.63547	0.91181
2032.70691	0.91078
2030.77834	0.90991
2028.84978	0.90904
2026.92122	0.90827
2024.99265	0.90726
2023.06409	0.90595
2021.13552	0.90487
2019.20696	0.90406
2017.27839	0.90310
2015.34983	0.90208
2013.42126	0.90132
2011.49270	0.90059
2009.56414	0.89967
2007.63557	0.89890
2005.70701	0.89838
2003.77844	0.89776
2001.84988	0.89702
1999.92131	0.89627
1997.99275	0.89537
1996.06418	0.89454
1994.13562	0.89395
1992.20706	0.89341
1990.27849	0.89258
1988.34993	0.89136
1986.42136	0.88994
1984.49280	0.88861
1982.56423	0.88772
1980.63567	0.88734
1978.70710	0.88709
1976.77854	0.88660
1974.84998	0.88579
1972.92141	0.88487
1970.99285	0.88410
1969.06428	0.88384
1967.13572	0.88399
1965.20715	0.88397
1963.27859	0.88378
1961.35002	0.88360
1959.42146	0.88337
1957.49290	0.88303
1955.56433	0.88256
1953.63577	0.88202
1951.70720	0.88164
1949.77864	0.88156
1947.85007	0.88157
1945.92151	0.88155
1943.99294	0.88174
1942.06438	0.88189
1940.13582	0.88158
1938.20725	0.88120
1936.27869	0.88085
1934.35012	0.88028
1932.42156	0.87968
1930.49299	0.87916
1928.56443	0.87843
1926.63586	0.87745
1924.70730	0.87647
1922.77874	0.87541
1920.85017	0.87415
1918.92161	0.87277
1916.99304	0.87108
1915.06448	0.86898
1913.13591	0.86685
1911.20735	0.86513
1909.27878	0.86371
1907.35022	0.86222
1905.42166	0.86075
1903.49309	0.85940
1901.56453	0.85816
1899.63596	0.85716
1897.70740	0.85632
1895.77883	0.85547
1893.85027	0.85472
1891.92171	0.85434
1889.99314	0.85436
1888.06458	0.85407
1886.13601	0.85332
1884.20745	0.85279
1882.27888	0.85262
1880.35032	0.85241
1878.42175	0.85206
1876.49319	0.85160
1874.56463	0.85110
1872.63606	0.85112
1870.70750	0.85189
1868.77893	0.85241
1866.85037	0.85142
1864.92180	0.84992
1862.99324	0.84895
1861.06467	0.84830
1859.13611	0.84758
1857.20755	0.84695
1855.27898	0.84653
1853.35042	0.84598
1851.42185	0.84540
1849.49329	0.84544
1847.56472	0.84612
1845.63616	0.84678
1843.70759	0.84652
1841.77903	0.84531
1839.85047	0.84421
1837.92190	0.84368
1835.99334	0.84356
1834.06477	0.84356
1832.13621	0.84395
1830.20764	0.84450
1828.27908	0.84402
1826.35051	0.84308
1824.42195	0.84241
1822.49339	0.84175
1820.56482	0.84123
1818.63626	0.84106
1816.70769	0.84089
1814.77913	0.84069
1812.85056	0.84083
1810.92200	0.84122
1808.99343	0.84134
1807.06487	0.84122
1805.13631	0.84142
1803.20774	0.84215
1801.27918	0.84310
1799.35061	0.84381
1797.42205	0.84433
1795.49348	0.84500
1793.56492	0.84627
1791.63635	0.84757
1789.70779	0.84733
1787.77923	0.84695
1785.85066	0.84756
1783.92210	0.84850
1781.99353	0.84913
1780.06497	0.84939
1778.13640	0.84955
1776.20784	0.85018
1774.27927	0.85192
1772.35071	0.85444
1770.42215	0.85549
1768.49358	0.85519
1766.56502	0.85503
1764.63645	0.85577
1762.70789	0.85807
1760.77932	0.86145
1758.85076	0.86471
1756.92220	0.86850
1754.99363	0.87242
1753.06507	0.87679
1751.13650	0.88415
1749.20794	0.89391
1747.27937	0.90174
1745.35081	0.90764
1743.42224	0.91288
1741.49368	0.91765
1739.56512	0.92205
1737.63655	0.92542
1735.70799	0.92907
1733.77942	0.93549
1731.85086	0.94021
1729.92229	0.94241
1727.99373	0.94536
1726.06516	0.94981
1724.13660	0.95634
1722.20804	0.96370
1720.27947	0.97130
1718.35091	0.98353
1716.42234	1.00184
1714.49378	1.01577
1712.56521	1.02737
1710.63665	1.04147
1708.70808	1.05908
1706.77952	1.08429
1704.85096	1.11669
1702.92239	1.14666
1700.99383	1.18808
1699.06526	1.24957
1697.13670	1.30123
1695.20813	1.34697
1693.27957	1.37965
1691.35100	1.40535
1689.42244	1.43791
1687.49388	1.46983
1685.56531	1.50196
1683.63675	1.54470
1681.70818	1.57117
1679.77962	1.58486
1677.85105	1.59754
1675.92249	1.61180
1673.99392	1.62760
1672.06536	1.64348
1670.13680	1.65970
1668.20823	1.67059
1666.27967	1.67450
1664.35110	1.67939
1662.42254	1.68677
1660.49397	1.69156
1658.56541	1.69445
1656.63684	1.69686
1654.70828	1.69884
1652.77972	1.69756
1650.85115	1.69387
1648.92259	1.69087
1646.99402	1.68829
1645.06546	1.68754
1643.13689	1.68676
1641.20833	1.68591
1639.27976	1.68511
1637.35120	1.68473
1635.42264	1.68281
1633.49407	1.67847
1631.56551	1.67535
1629.63694	1.67176
1627.70838	1.66491
1625.77981	1.65565
1623.85125	1.64624
1621.92269	1.63680
1619.99412	1.62805
1618.06556	1.61666
1616.13699	1.59818
1614.20843	1.58119
1612.27986	1.56691
1610.35130	1.55094
1608.42273	1.53303
1606.49417	1.51663
1604.56561	1.50454
1602.63704	1.49570
1600.70848	1.48809
1598.77991	1.48154
1596.85135	1.47783
1594.92278	1.47784
1592.99422	1.48006
1591.06565	1.48343
1589.13709	1.48832
1587.20853	1.49451
1585.27996	1.50238
1583.35140	1.51300
1581.42283	1.52469
1579.49427	1.53585
1577.56570	1.54959
1575.63714	1.56577
1573.70857	1.57546
1571.78001	1.58334
1569.85145	1.59556
1567.92288	1.60652
1565.99432	1.61287
1564.06575	1.61836
1562.13719	1.62314
1560.20862	1.63117
1558.28006	1.64406
1556.35149	1.64591
1554.42293	1.64460
1552.49437	1.64231
1550.56580	1.64004
1548.63724	1.64009
1546.70867	1.64219
1544.78011	1.64369
1542.85154	1.64116
1540.92298	1.63197
1538.99441	1.62210
1537.06585	1.61849
1535.13729	1.61613
1533.20872	1.61324
1531.28016	1.61041
1529.35159	1.60811
1527.42303	1.60494
1525.49446	1.59916
1523.56590	1.59290
1521.63733	1.59046
1519.70877	1.59361
1517.78021	1.59486
1515.85164	1.59008
1513.92308	1.58269
1511.99451	1.57413
1510.06595	1.56395
1508.13738	1.55067
1506.20882	1.53260
1504.28025	1.51929
1502.35169	1.50713
1500.42313	1.49210
1498.49456	1.47426
1496.56600	1.45542
1494.63743	1.43985
1492.70887	1.42788
1490.78030	1.41435
1488.85174	1.39565
1486.92317	1.37831
1484.99461	1.36569
1483.06605	1.35640
1481.13748	1.35001
1479.20892	1.34729
1477.28035	1.34823
1475.35179	1.35243
1473.42322	1.36183
1471.49466	1.37368
1469.56610	1.38106
1467.63753	1.38697
1465.70897	1.39467
1463.78040	1.40208
1461.85184	1.40635
1459.92327	1.41045
1457.99471	1.42027
1456.06614	1.43320
1454.13758	1.43748
1452.20902	1.43828
1450.28045	1.43884
1448.35189	1.43915
1446.42332	1.43825
1444.49476	1.43607
1442.56619	1.43338
1440.63763	1.43093
1438.70906	1.42818
1436.78050	1.42301
1434.85194	1.41509
1432.92337	1.40677
1430.99481	1.39766
1429.06624	1.38786
1427.13768	1.37950
1425.20911	1.37221
1423.28055	1.36549
1421.35198	1.36098
1419.42342	1.35823
1417.49486	1.35499
1415.56629	1.35206
1413.63773	1.34991
1411.70916	1.34718
1409.78060	1.34371
1407.85203	1.34115
1405.92347	1.34095
1403.99490	1.34255
1402.06634	1.34410
1400.13778	1.34629
1398.20921	1.34979
1396.28065	1.35286
1394.35208	1.35487
1392.42352	1.35701
1390.49495	1.36135
1388.56639	1.37132
1386.63782	1.38739
1384.70926	1.40309
1382.78070	1.41654
1380.85213	1.42838
1378.92357	1.43634
1376.99500	1.43874
1375.06644	1.43389
1373.13787	1.42183
1371.20931	1.40801
1369.28074	1.39281
1367.35218	1.37479
1365.42362	1.35663
1363.49505	1.33832
1361.56649	1.32061
1359.63792	1.30717
1357.70936	1.29657
1355.78079	1.28678
1353.85223	1.27851
1351.92366	1.27252
1349.99510	1.26784
1348.06654	1.26340
1346.13797	1.25917
1344.20941	1.25588
1342.28084	1.25430
1340.35228	1.25493
1338.42371	1.25692
1336.49515	1.25933
1334.56659	1.26368
1332.63802	1.27139
1330.70946	1.28182
1328.78089	1.29193
1326.85233	1.29872
1324.92376	1.30225
1322.99520	1.30460
1321.06663	1.30739
1319.13807	1.31081
1317.20951	1.31442
1315.28094	1.31775
1313.35238	1.31998
1311.42381	1.32088
1309.49525	1.32110
1307.56668	1.32025
1305.63812	1.31805
1303.70955	1.31507
1301.78099	1.31166
1299.85243	1.30810
1297.92386	1.30389
1295.99530	1.29904
1294.06673	1.29521
1292.13817	1.29355
1290.20960	1.29353
1288.28104	1.29347
1286.35247	1.29221
1284.42391	1.29043
1282.49535	1.28903
1280.56678	1.28776
1278.63822	1.28648
1276.70965	1.28635
1274.78109	1.28845
1272.85252	1.29239
1270.92396	1.29730
1268.99539	1.30316
1267.06683	1.30926
1265.13827	1.31368
1263.20970	1.31614
1261.28114	1.31791
1259.35257	1.31873
1257.42401	1.31779
1255.49544	1.31643
1253.56688	1.31557
1251.63831	1.31437
1249.70975	1.31297
1247.78119	1.31237
1245.85262	1.31260
1243.92406	1.31300
1241.99549	1.31270
1240.06693	1.31133
1238.13836	1.30914
1236.20980	1.30609
1234.28123	1.30193
1232.35267	1.29663
1230.42411	1.28988
1228.49554	1.28210
1226.56698	1.27411
1224.63841	1.26514
1222.70985	1.25472
1220.78128	1.24374
1218.85272	1.23271
1216.92415	1.22227
1214.99559	1.21389
1213.06703	1.20908
1211.13846	1.20793
1209.20990	1.20809
1207.28133	1.20703
1205.35277	1.20346
1203.42420	1.19634
1201.49564	1.18621
1199.56708	1.17476
1197.63851	1.16262
1195.70995	1.15064
1193.78138	1.14046
1191.85282	1.13242
1189.92425	1.12577
1187.99569	1.12106
1186.06712	1.11939
1184.13856	1.12050
1182.21000	1.12354
1180.28143	1.12830
1178.35287	1.13494
1176.42430	1.14300
1174.49574	1.15147
1172.56717	1.16018
1170.63861	1.16946
1168.71004	1.17888
1166.78148	1.18799
1164.85292	1.19629
1162.92435	1.20262
1160.99579	1.20627
1159.06722	1.20642
1157.13866	1.20222
1155.21009	1.19415
1153.28153	1.18305
1151.35296	1.16929
1149.42440	1.15400
1147.49584	1.13892
1145.56727	1.12503
1143.63871	1.11324
1141.71014	1.10532
1139.78158	1.10262
1137.85301	1.10503
1135.92445	1.11165
1133.99588	1.12239
1132.06732	1.13810
1130.13876	1.15872
1128.21019	1.18240
1126.28163	1.20637
1124.35306	1.22727
1122.42450	1.24290
1120.49593	1.25398
1118.56737	1.26154
1116.63880	1.26557
1114.71024	1.26681
1112.78168	1.26536
1110.85311	1.26009
1108.92455	1.25209
1106.99598	1.24533
1105.06742	1.24065
1103.13885	1.23549
1101.21029	1.23071
1099.28172	1.22873
1097.35316	1.22982
1095.42460	1.23375
1093.49603	1.24000
1091.56747	1.24911
1089.63890	1.26156
1087.71034	1.27447
1085.78177	1.28505
1083.85321	1.29445
1081.92464	1.30434
1079.99608	1.31252
1078.06752	1.31494
1076.13895	1.31104
1074.21039	1.30466
1072.28182	1.29898
1070.35326	1.29382
1068.42469	1.28924
1066.49613	1.28590
1064.56756	1.28264
1062.63900	1.27715
1060.71044	1.26752
1058.78187	1.25502
1056.85331	1.24368
1054.92474	1.23522
1052.99618	1.22916
1051.06761	1.22508
1049.13905	1.22244
1047.21049	1.22220
1045.28192	1.22597
1043.35336	1.23348
1041.42479	1.24372
1039.49623	1.25516
1037.56766	1.26573
1035.63910	1.27307
1033.71053	1.27510
1031.78197	1.27207
1029.85341	1.26502
1027.92484	1.25416
1025.99628	1.24080
1024.06771	1.22738
1022.13915	1.21638
1020.21058	1.20950
1018.28202	1.20634
1016.35345	1.20352
1014.42489	1.19653
1012.49633	1.18247
1010.56776	1.16146
1008.63920	1.13559
1006.71063	1.10721
1004.78207	1.07927
1002.85350	1.05469
1000.92494	1.03492
998.99637	1.02037
997.06781	1.01051
995.13925	1.00329
993.21068	0.99667
991.28212	0.99014
989.35355	0.98371
987.42499	0.97763
985.49642	0.97265
983.56786	0.96964
981.63929	0.96900
979.71073	0.96983
977.78217	0.97039
975.85360	0.96910
973.92504	0.96454
971.99647	0.95612
970.06791	0.94460
968.13934	0.93115
966.21078	0.91690
964.28221	0.90414
962.35365	0.89662
960.42509	0.89719
958.49652	0.90507
956.56796	0.91508
954.63939	0.91989
952.71083	0.91455
950.78226	0.90002
948.85370	0.88185
946.92513	0.86531
944.99657	0.85285
943.06801	0.84451
941.13944	0.83939
939.21088	0.83679
937.28231	0.83629
935.35375	0.83735
933.42518	0.83936
931.49662	0.84234
929.56805	0.84661
927.63949	0.85199
925.71093	0.85818
923.78236	0.86460
921.85380	0.86994
919.92523	0.87304
917.99667	0.87388
916.06810	0.87337
914.13954	0.87274
912.21098	0.87319
910.28241	0.87539
908.35385	0.87929
906.42528	0.88409
904.49672	0.88878
902.56815	0.89298
900.63959	0.89625
898.71102	0.89723
896.78246	0.89513
894.85390	0.89104
892.92533	0.88649
890.99677	0.88169
889.06820	0.87637
887.13964	0.87103
885.21107	0.86656
883.28251	0.86366
881.35394	0.86295
879.42538	0.86409
877.49682	0.86584
875.56825	0.86748
873.63969	0.86917
871.71112	0.87140
869.78256	0.87465
867.85399	0.87849
865.92543	0.88227
863.99686	0.88608
862.06830	0.89030
860.13974	0.89530
858.21117	0.90106
856.28261	0.90731
854.35404	0.91362
852.42548	0.91915
850.49691	0.92336
848.56835	0.92660
846.63978	0.92979
844.71122	0.93337
842.78266	0.93710
840.85409	0.94117
838.92553	0.94588
836.99696	0.95061
835.06840	0.95485
833.13983	0.95891
831.21127	0.96306
829.28270	0.96715
827.35414	0.97070
825.42558	0.97351
823.49701	0.97576
821.56845	0.97731
819.63988	0.97886
817.71132	0.98164
815.78275	0.98557
813.85419	0.99010
811.92562	0.99457
809.99706	0.99805
808.06850	1.00028
806.13993	1.00213
804.21137	1.00485
802.28280	1.00902
800.35424	1.01378
798.42567	1.01826
796.49711	1.02327
794.56854	1.02946
792.63998	1.03582
790.71142	1.04224
788.78285	1.04989
786.85429	1.05838
784.92572	1.06625
782.99716	1.07316
781.06859	1.07972
779.14003	1.08635
777.21147	1.09302
775.28290	1.09991
773.35434	1.10663
771.42577	1.11165
769.49721	1.11513
767.56864	1.11964
765.64008	1.12549
763.71151	1.12992
761.78295	1.13235
759.85439	1.13500
757.92582	1.13834
755.99726	1.14152
754.06869	1.14479
752.14013	1.14761
750.21156	1.14856
748.28300	1.14857
746.35443	1.14955
744.42587	1.15089
742.49731	1.15056
740.56874	1.14861
738.64018	1.14748
736.71161	1.14779
734.78305	1.14748
732.85448	1.14642
730.92592	1.14648
728.99735	1.14798
727.06879	1.15014
725.14023	1.15189
723.21166	1.15262
721.28310	1.15343
719.35453	1.15551
717.42597	1.15882
715.49740	1.16302
713.56884	1.16765
711.64027	1.17234
709.71171	1.17694
707.78315	1.18159
705.85458	1.18692
703.92602	1.19327
701.99745	1.20044
700.06889	1.20738
698.14032	1.21281
696.21176	1.21840
694.28319	1.22677
692.35463	1.23537
690.42607	1.24061
688.49750	1.24425
686.56894	1.24924
684.64037	1.25484
682.71181	1.25834
680.78324	1.25987
678.85468	1.26196
676.92611	1.26335
674.99755	1.26186
673.06899	1.25965
671.14042	1.25728
669.21186	1.25188
667.28329	1.24752
665.35473	1.24803
663.42616	1.24702
661.49760	1.24340
659.56903	1.23912
657.64047	1.23442
655.71191	1.22969
653.78334	1.22551
651.85478	1.22150
649.92621	1.21842
647.99765	1.21676
646.06908	1.21753
644.14052	1.22140
642.21195	1.22510
640.28339	1.22782
638.35483	1.23264
636.42626	1.23915
634.49770	1.24585
632.56913	1.25227
630.64057	1.25794
628.71200	1.26281
626.78344	1.26558
624.85488	1.26746
622.92631	1.27221
620.99775	1.27885
619.06918	1.28485
617.14062	1.28965
615.21205	1.29268
613.28349	1.29387
611.35492	1.29318
609.42636	1.29227
607.49780	1.29191
605.56923	1.28899
603.64067	1.28307
601.71210	1.27789
599.78354	1.27488
