3997.91406	0.98504
3995.98550	0.98468
3994.05693	0.98507
3992.12837	0.98575
3990.19980	0.98615
3988.27124	0.98621
3986.34268	0.98622
3984.41411	0.98590
3982.48555	0.98490
3980.55698	0.98410
3978.62842	0.98379
3976.69985	0.98273
3974.77129	0.98028
3972.84272	0.97795
3970.91416	0.97749
3968.98560	0.97849
3967.05703	0.97896
3965.12847	0.97736
3963.19990	0.97462
3961.27134	0.97345
3959.34277	0.97404
3957.41421	0.97460
3955.48564	0.97507
3953.55708	0.97556
3951.62852	0.97598
3949.69995	0.97688
3947.77139	0.97691
3945.84282	0.97552
3943.91426	0.97452
3941.98569	0.97368
3940.05713	0.97248
3938.12856	0.97220
3936.20000	0.97264
3934.27144	0.97283
3932.34287	0.97288
3930.41431	0.97288
3928.48574	0.97207
3926.55718	0.97018
3924.62861	0.96764
3922.70005	0.96558
3920.77148	0.96453
3918.84292	0.96351
3916.91436	0.96183
3914.98579	0.95948
3913.05723	0.95636
3911.12866	0.95351
3909.20010	0.95196
3907.27153	0.95189
3905.34297	0.95425
3903.41440	0.95883
3901.48584	0.96220
3899.55728	0.96310
3897.62871	0.96157
3895.70015	0.95857
3893.77158	0.95638
3891.84302	0.95692
3889.91445	0.95761
3887.98589	0.95706
3886.05733	0.95746
3884.12876	0.95570
3882.20020	0.95139
3880.27163	0.95085
3878.34307	0.95198
3876.41450	0.95122
3874.48594	0.95013
3872.55737	0.94925
3870.62881	0.94900
3868.70025	0.94705
3866.77168	0.94333
3864.84312	0.94331
3862.91455	0.94626
3860.98599	0.94543
3859.05742	0.94235
3857.12886	0.94054
3855.20029	0.94252
3853.27173	0.95042
3851.34317	0.95257
3849.41460	0.94821
3847.48604	0.94315
3845.55747	0.93978
3843.62891	0.93999
3841.70034	0.94331
3839.77178	0.94770
3837.84321	0.94962
3835.91465	0.94623
3833.98609	0.94265
3832.05752	0.94163
3830.12896	0.94050
3828.20039	0.93799
3826.27183	0.93564
3824.34326	0.93419
3822.41470	0.93514
3820.48613	0.93829
3818.55757	0.93847
3816.62901	0.93683
3814.70044	0.93317
3812.77188	0.92868
3810.84331	0.92605
3808.91475	0.92586
3806.98618	0.92774
3805.05762	0.92866
3803.12905	0.92979
3801.20049	0.93243
3799.27193	0.93073
3797.34336	0.92863
3795.41480	0.92908
3793.48623	0.92818
3791.55767	0.92630
3789.62910	0.92519
3787.70054	0.92371
3785.77197	0.92203
3783.84341	0.92154
3781.91485	0.92188
3779.98628	0.92267
3778.05772	0.92253
3776.12915	0.92104
3774.20059	0.91976
3772.27202	0.92004
3770.34346	0.92214
3768.41489	0.92332
3766.48633	0.92367
3764.55777	0.92408
3762.62920	0.92317
3760.70064	0.92277
3758.77207	0.92304
3756.84351	0.92141
3754.91494	0.92027
3752.98638	0.92342
3751.05781	0.93132
3749.12925	0.93362
3747.20069	0.93095
3745.27212	0.93020
3743.34356	0.92935
3741.41499	0.92574
3739.48643	0.92193
3737.55786	0.92013
3735.62930	0.92233
3733.70074	0.92567
3731.77217	0.92366
3729.84361	0.91854
3727.91504	0.91528
3725.98648	0.91582
3724.05791	0.91704
3722.12935	0.91578
3720.20078	0.91431
3718.27222	0.91396
3716.34366	0.91265
3714.41509	0.91091
3712.48653	0.91311
3710.55796	0.91834
3708.62940	0.91797
3706.70083	0.91438
3704.77227	0.91207
3702.84370	0.91306
3700.91514	0.91559
3698.98658	0.91612
3697.05801	0.91569
3695.12945	0.91591
3693.20088	0.91698
3691.27232	0.91964
3689.34375	0.92454
3687.41519	0.92678
3685.48662	0.92522
3683.55806	0.92324
3681.62950	0.92276
3679.70093	0.92386
3677.77237	0.92714
3675.84380	0.93575
3673.91524	0.94151
3671.98667	0.94218
3670.05811	0.94651
3668.12954	0.95046
3666.20098	0.95126
3664.27242	0.95319
3662.34385	0.95640
3660.41529	0.95918
3658.48672	0.96276
3656.55816	0.97041
3654.62959	0.97693
3652.70103	0.97893
3650.77246	0.98420
3648.84390	0.99832
3646.91534	1.00667
3644.98677	1.00782
3643.05821	1.00906
3641.12964	1.01322
3639.20108	1.01889
3637.27251	1.02348
3635.34395	1.02752
3633.41538	1.03186
3631.48682	1.03616
3629.55826	1.04520
3627.62969	1.05733
3625.70113	1.06308
3623.77256	1.06734
3621.84400	1.07438
3619.91543	1.08632
3617.98687	1.09649
3616.05830	1.09971
3614.12974	1.10258
3612.20118	1.10701
3610.27261	1.11219
3608.34405	1.12042
3606.41548	1.12935
3604.48692	1.13510
3602.55835	1.14035
3600.62979	1.14661
3598.70123	1.15187
3596.77266	1.15755
3594.84410	1.16575
3592.91553	1.17314
3590.98697	1.17756
3589.05840	1.18368
3587.12984	1.19534
3585.20127	1.20459
3583.27271	1.20833
3581.34415	1.21195
3579.41558	1.21818
3577.48702	1.22490
3575.55845	1.22986
3573.62989	1.23326
3571.70132	1.23787
3569.77276	1.24728
3567.84419	1.26208
3565.91563	1.27280
3563.98707	1.27567
3562.05850	1.27920
3560.12994	1.28598
3558.20137	1.29395
3556.27281	1.30045
3554.34424	1.30703
3552.41568	1.31660
3550.48711	1.32441
3548.55855	1.32889
3546.62999	1.33666
3544.70142	1.34715
3542.77286	1.35452
3540.84429	1.36116
3538.91573	1.36872
3536.98716	1.37519
3535.05860	1.38137
3533.13003	1.38814
3531.20147	1.39455
3529.27291	1.40172
3527.34434	1.41137
3525.41578	1.42055
3523.48721	1.42684
3521.55865	1.43323
3519.63008	1.43990
3517.70152	1.44529
3515.77295	1.45059
3513.84439	1.45693
3511.91583	1.46631
3509.98726	1.47997
3508.05870	1.49296
3506.13013	1.50123
3504.20157	1.50935
3502.27300	1.52154
3500.34444	1.53272
3498.41587	1.53983
3496.48731	1.54700
3494.55875	1.55540
3492.63018	1.56280
3490.70162	1.56819
3488.77305	1.57094
3486.84449	1.57408
3484.91592	1.58100
3482.98736	1.59006
3481.05879	1.59650
3479.13023	1.59765
3477.20167	1.59681
3475.27310	1.59683
3473.34454	1.59883
3471.41597	1.60660
3469.48741	1.61913
3467.55884	1.62632
3465.63028	1.62703
3463.70171	1.62906
3461.77315	1.63112
3459.84459	1.63221
3457.91602	1.63523
3455.98746	1.63916
3454.05889	1.64421
3452.13033	1.65070
3450.20176	1.65659
3448.27320	1.66176
3446.34464	1.66585
3444.41607	1.66436
3442.48751	1.65853
3440.55894	1.65747
3438.63038	1.66271
3436.70181	1.66661
3434.77325	1.66652
3432.84468	1.66644
3430.91612	1.66881
3428.98756	1.67293
3427.05899	1.67483
3425.13043	1.67202
3423.20186	1.66940
3421.27330	1.67060
3419.34473	1.67267
3417.41617	1.67453
3415.48760	1.67610
3413.55904	1.67166
3411.63048	1.66350
3409.70191	1.66413
3407.77335	1.67360
3405.84478	1.68123
3403.91622	1.68319
3401.98765	1.68318
3400.05909	1.68540
3398.13052	1.68880
3396.20196	1.69128
3394.27340	1.69676
3392.34483	1.70639
3390.41627	1.71100
3388.48770	1.70504
3386.55914	1.69671
3384.63057	1.69388
3382.70201	1.69557
3380.77344	1.69838
3378.84488	1.70081
3376.91632	1.70234
3374.98775	1.70270
3373.05919	1.70393
3371.13062	1.70541
3369.20206	1.70468
3367.27349	1.70462
3365.34493	1.70467
3363.41636	1.70526
3361.48780	1.71315
3359.55924	1.72607
3357.63067	1.73341
3355.70211	1.72881
3353.77354	1.71873
3351.84498	1.71616
3349.91641	1.72087
3347.98785	1.72386
3346.05928	1.72662
3344.13072	1.73248
3342.20216	1.73645
3340.27359	1.73991
3338.34503	1.74812
3336.41646	1.75588
3334.48790	1.75592
3332.55933	1.75146
3330.63077	1.74941
3328.70220	1.75071
3326.77364	1.75423
3324.84508	1.75969
3322.91651	1.76622
3320.98795	1.77280
3319.05938	1.77707
3317.13082	1.77942
3315.20225	1.78361
3313.27369	1.78592
3311.34513	1.78122
3309.41656	1.77410
3307.48800	1.76711
3305.55943	1.76307
3303.63087	1.76830
3301.70230	1.77865
3299.77374	1.78477
3297.84517	1.78445
3295.91661	1.78299
3293.98805	1.78354
3292.05948	1.78363
3290.13092	1.78495
3288.20235	1.78820
3286.27379	1.78934
3284.34522	1.78803
3282.41666	1.78773
3280.48809	1.78775
3278.55953	1.78307
3276.63097	1.77629
3274.70240	1.77237
3272.77384	1.76801
3270.84527	1.76119
3268.91671	1.75502
3266.98814	1.75080
3265.05958	1.74870
3263.13101	1.74679
3261.20245	1.73922
3259.27389	1.72699
3257.34532	1.71819
3255.41676	1.71548
3253.48819	1.71418
3251.55963	1.70756
3249.63106	1.69603
3247.70250	1.68650
3245.77393	1.67957
3243.84537	1.67194
3241.91681	1.66689
3239.98824	1.66507
3238.05968	1.65942
3236.13111	1.64910
3234.20255	1.63923
3232.27398	1.63107
3230.34542	1.62522
3228.41685	1.62240
3226.48829	1.62087
3224.55973	1.61981
3222.63116	1.61765
3220.70260	1.61170
3218.77403	1.60519
3216.84547	1.60304
3214.91690	1.60418
3212.98834	1.60509
3211.05977	1.60300
3209.13121	1.59646
3207.20265	1.58955
3205.27408	1.58603
3203.34552	1.58127
3201.41695	1.57375
3199.48839	1.56918
3197.55982	1.56805
3195.63126	1.56487
3193.70269	1.55705
3191.77413	1.54919
3189.84557	1.54516
3187.91700	1.54228
3185.98844	1.53957
3184.05987	1.53778
3182.13131	1.53510
3180.20274	1.53112
3178.27418	1.52469
3176.34562	1.51505
3174.41705	1.50655
3172.48849	1.50133
3170.55992	1.49641
3168.63136	1.49101
3166.70279	1.48832
3164.77423	1.48869
3162.84566	1.48872
3160.91710	1.48820
3158.98854	1.48770
3157.05997	1.48398
3155.13141	1.47705
3153.20284	1.47085
3151.27428	1.46667
3149.34571	1.46355
3147.41715	1.46099
3145.48858	1.45931
3143.56002	1.45853
3141.63146	1.45707
3139.70289	1.45417
3137.77433	1.45214
3135.84576	1.45118
3133.91720	1.44802
3131.98863	1.44417
3130.06007	1.44364
3128.13150	1.44538
3126.20294	1.44684
3124.27438	1.44673
3122.34581	1.44629
3120.41725	1.44848
3118.48868	1.45144
3116.56012	1.45215
3114.63155	1.45226
3112.70299	1.45207
3110.77442	1.45102
3108.84586	1.45154
3106.91730	1.45317
3104.98873	1.45173
3103.06017	1.44747
3101.13160	1.44435
3099.20304	1.44303
3097.27447	1.44188
3095.34591	1.44032
3093.41734	1.43787
3091.48878	1.43577
3089.56022	1.43601
3087.63165	1.43664
3085.70309	1.43530
3083.77452	1.43265
3081.84596	1.42948
3079.91739	1.42675
3077.98883	1.42515
3076.06026	1.42317
3074.13170	1.41969
3072.20314	1.41626
3070.27457	1.41305
3068.34601	1.40851
3066.41744	1.40415
3064.48888	1.40094
3062.56031	1.39665
3060.63175	1.39075
3058.70318	1.38435
3056.77462	1.37831
3054.84606	1.37329
3052.91749	1.36865
3050.98893	1.36353
3049.06036	1.35927
3047.13180	1.35672
3045.20323	1.35403
3043.27467	1.35018
3041.34610	1.34685
3039.41754	1.34573
3037.48898	1.34619
3035.56041	1.34601
3033.63185	1.34389
3031.70328	1.34019
3029.77472	1.33498
3027.84615	1.32870
3025.91759	1.32370
3023.98903	1.32048
3022.06046	1.31696
3020.13190	1.31285
3018.20333	1.30920
3016.27477	1.30653
3014.34620	1.30533
3012.41764	1.30401
3010.48907	1.29967
3008.56051	1.29436
3006.63195	1.29267
3004.70338	1.29353
3002.77482	1.29309
3000.84625	1.29151
2998.91769	1.29091
2996.98912	1.29181
2995.06056	1.29460
2993.13199	1.29940
2991.20343	1.30428
2989.27487	1.30791
2987.34630	1.31185
2985.41774	1.31761
2983.48917	1.32484
2981.56061	1.33221
2979.63204	1.33901
2977.70348	1.34623
2975.77491	1.35422
2973.84635	1.36174
2971.91779	1.36906
2969.98922	1.37702
2968.06066	1.38504
2966.13209	1.39241
2964.20353	1.39822
2962.27496	1.40190
2960.34640	1.40309
2958.41783	1.40135
2956.48927	1.39739
2954.56071	1.39161
2952.63214	1.38455
2950.70358	1.37812
2948.77501	1.37402
2946.84645	1.37415
2944.91788	1.37957
2942.98932	1.38852
2941.06075	1.39846
2939.13219	1.40843
2937.20363	1.41911
2935.27506	1.43131
2933.34650	1.44369
2931.41793	1.45304
2929.48937	1.45841
2927.56080	1.46314
2925.63224	1.47012
2923.70367	1.47857
2921.77511	1.48582
2919.84655	1.48776
2917.91798	1.48030
2915.98942	1.46203
2914.06085	1.43575
2912.13229	1.40880
2910.20372	1.38739
2908.27516	1.37148
2906.34659	1.35804
2904.41803	1.34637
2902.48947	1.33825
2900.56090	1.33366
2898.63234	1.32903
2896.70377	1.32236
2894.77521	1.31603
2892.84664	1.31149
2890.91808	1.30765
2888.98952	1.30440
2887.06095	1.30190
2885.13239	1.29912
2883.20382	1.29611
2881.27526	1.29449
2879.34669	1.29462
2877.41813	1.29448
2875.48956	1.29219
2873.56100	1.28857
2871.63244	1.28459
2869.70387	1.27925
2867.77531	1.27170
2865.84674	1.26358
2863.91818	1.25858
2861.98961	1.25847
2860.06105	1.26147
2858.13248	1.26599
2856.20392	1.27254
2854.27536	1.28170
2852.34679	1.29207
2850.41823	1.29735
2848.48966	1.28688
2846.56110	1.25947
2844.63253	1.22818
2842.70397	1.20355
2840.77540	1.18618
2838.84684	1.17314
2836.91828	1.16283
2834.98971	1.15461
2833.06115	1.14783
2831.13258	1.14228
2829.20402	1.13736
2827.27545	1.13256
2825.34689	1.12800
2823.41832	1.12302
2821.48976	1.11727
2819.56120	1.11193
2817.63263	1.10742
2815.70407	1.10251
2813.77550	1.09749
2811.84694	1.09353
2809.91837	1.08991
2807.98981	1.08630
2806.06124	1.08255
2804.13268	1.07789
2802.20412	1.07341
2800.27555	1.07036
2798.34699	1.06763
2796.41842	1.06440
2794.48986	1.06160
2792.56129	1.05915
2790.63273	1.05624
2788.70416	1.05379
2786.77560	1.05264
2784.84704	1.05200
2782.91847	1.05043
2780.98991	1.04729
2779.06134	1.04374
2777.13278	1.04092
2775.20421	1.03848
2773.27565	1.03612
2771.34708	1.03385
2769.41852	1.03155
2767.48996	1.02918
2765.56139	1.02700
2763.63283	1.02477
2761.70426	1.02155
2759.77570	1.01792
2757.84713	1.01541
2755.91857	1.01387
2753.99001	1.01222
2752.06144	1.01009
2750.13288	1.00777
2748.20431	1.00576
2746.27575	1.00413
2744.34718	1.00242
2742.41862	1.00052
2740.49005	0.99876
2738.56149	0.99704
2736.63293	0.99553
2734.70436	0.99456
2732.77580	0.99339
2730.84723	0.99120
2728.91867	0.98822
2726.99010	0.98502
2725.06154	0.98202
2723.13297	0.97935
2721.20441	0.97648
2719.27585	0.97314
2717.34728	0.96995
2715.41872	0.96722
2713.49015	0.96452
2711.56159	0.96206
2709.63302	0.96002
2707.70446	0.95772
2705.77589	0.95555
2703.84733	0.95440
2701.91877	0.95357
2699.99020	0.95234
2698.06164	0.95125
2696.13307	0.95059
2694.20451	0.95008
2692.27594	0.94980
2690.34738	0.94972
2688.41881	0.94941
2686.49025	0.94850
2684.56169	0.94716
2682.63312	0.94577
2680.70456	0.94421
2678.77599	0.94227
2676.84743	0.94005
2674.91886	0.93781
2672.99030	0.93562
2671.06173	0.93331
2669.13317	0.93097
2667.20461	0.92899
2665.27604	0.92709
2663.34748	0.92475
2661.41891	0.92237
2659.49035	0.92048
2657.56178	0.91910
2655.63322	0.91834
2653.70465	0.91787
2651.77609	0.91701
2649.84753	0.91582
2647.91896	0.91486
2645.99040	0.91412
2644.06183	0.91338
2642.13327	0.91270
2640.20470	0.91162
2638.27614	0.90986
2636.34757	0.90776
2634.41901	0.90569
2632.49045	0.90356
2630.56188	0.90102
2628.63332	0.89835
2626.70475	0.89614
2624.77619	0.89422
2622.84762	0.89212
2620.91906	0.88993
2618.99049	0.88839
2617.06193	0.88755
2615.13337	0.88663
2613.20480	0.88547
2611.27624	0.88434
2609.34767	0.88347
2607.41911	0.88324
2605.49054	0.88337
2603.56198	0.88322
2601.63342	0.88297
2599.70485	0.88283
2597.77629	0.88276
2595.84772	0.88299
2593.91916	0.88300
2591.99059	0.88188
2590.06203	0.87983
2588.13346	0.87787
2586.20490	0.87641
2584.27634	0.87485
2582.34777	0.87252
2580.41921	0.86972
2578.49064	0.86749
2576.56208	0.86589
2574.63351	0.86399
2572.70495	0.86178
2570.77638	0.85972
2568.84782	0.85766
2566.91926	0.85574
2564.99069	0.85420
2563.06213	0.85286
2561.13356	0.85189
2559.20500	0.85134
2557.27643	0.85077
2555.34787	0.85018
2553.41930	0.84943
2551.49074	0.84826
2549.56218	0.84702
2547.63361	0.84592
2545.70505	0.84509
2543.77648	0.84440
2541.84792	0.84314
2539.91935	0.84128
2537.99079	0.83958
2536.06222	0.83832
2534.13366	0.83703
2532.20510	0.83533
2530.27653	0.83348
2528.34797	0.83186
2526.41940	0.83040
2524.49084	0.82878
2522.56227	0.82747
2520.63371	0.82710
2518.70514	0.82709
2516.77658	0.82650
2514.84802	0.82529
2512.91945	0.82418
2510.99089	0.82372
2509.06232	0.82361
2507.13376	0.82336
2505.20519	0.82278
2503.27663	0.82156
2501.34806	0.81982
2499.41950	0.81815
2497.49094	0.81681
2495.56237	0.81569
2493.63381	0.81451
2491.70524	0.81284
2489.77668	0.81075
2487.84811	0.80860
2485.91955	0.80669
2483.99098	0.80517
2482.06242	0.80372
2480.13386	0.80202
2478.20529	0.80038
2476.27673	0.79911
2474.34816	0.79812
2472.41960	0.79724
2470.49103	0.79636
2468.56247	0.79521
2466.63391	0.79404
2464.70534	0.79325
2462.77678	0.79263
2460.84821	0.79201
2458.91965	0.79124
2456.99108	0.79006
2455.06252	0.78869
2453.13395	0.78749
2451.20539	0.78633
2449.27683	0.78500
2447.34826	0.78350
2445.41970	0.78212
2443.49113	0.78101
2441.56257	0.77986
2439.63400	0.77859
2437.70544	0.77737
2435.77687	0.77612
2433.84831	0.77486
2431.91975	0.77375
2429.99118	0.77302
2428.06262	0.77275
2426.13405	0.77254
2424.20549	0.77197
2422.27692	0.77090
2420.34836	0.76949
2418.41979	0.76821
2416.49123	0.76714
2414.56267	0.76589
2412.63410	0.76440
2410.70554	0.76291
2408.77697	0.76139
2406.84841	0.75949
2404.91984	0.75716
2402.99128	0.75468
2401.06271	0.75212
2399.13415	0.74979
2397.20559	0.74806
2395.27702	0.74677
2393.34846	0.74567
2391.41989	0.74457
2389.49133	0.74350
2387.56276	0.74263
2385.63420	0.74174
2383.70563	0.74060
2381.77707	0.73920
2379.84851	0.73762
2377.91994	0.73595
2375.99138	0.73405
2374.06281	0.73193
2372.13425	0.72973
2370.20568	0.72723
2368.27712	0.72467
2366.34855	0.72248
2364.41999	0.71978
2362.49143	0.71797
2360.56286	0.71863
2358.63430	0.71972
2356.70573	0.72096
2354.77717	0.72222
2352.84860	0.72270
2350.92004	0.72212
2348.99147	0.72015
2347.06291	0.71737
2345.13435	0.71546
2343.20578	0.71586
2341.27722	0.71717
2339.34865	0.71794
2337.42009	0.71860
2335.49152	0.71915
2333.56296	0.71939
2331.63440	0.72014
2329.70583	0.72101
2327.77727	0.72073
2325.84870	0.71994
2323.92014	0.71930
2321.99157	0.71829
2320.06301	0.71708
2318.13444	0.71589
2316.20588	0.71422
2314.27732	0.71201
2312.34875	0.70971
2310.42019	0.70782
2308.49162	0.70640
2306.56306	0.70533
2304.63449	0.70446
2302.70593	0.70359
2300.77736	0.70281
2298.84880	0.70253
2296.92024	0.70264
2294.99167	0.70278
2293.06311	0.70289
2291.13454	0.70308
2289.20598	0.70355
2287.27741	0.70415
2285.34885	0.70440
2283.42028	0.70410
2281.49172	0.70350
2279.56316	0.70289
2277.63459	0.70224
2275.70603	0.70123
2273.77746	0.69987
2271.84890	0.69855
2269.92033	0.69734
2267.99177	0.69602
2266.06320	0.69463
2264.13464	0.69326
2262.20608	0.69199
2260.27751	0.69114
2258.34895	0.69094
2256.42038	0.69127
2254.49182	0.69171
2252.56325	0.69200
2250.63469	0.69224
2248.70612	0.69263
2246.77756	0.69315
2244.84900	0.69361
2242.92043	0.69392
2240.99187	0.69398
2239.06330	0.69356
2237.13474	0.69277
2235.20617	0.69181
2233.27761	0.69048
2231.34904	0.68879
2229.42048	0.68706
2227.49192	0.68530
2225.56335	0.68339
2223.63479	0.68146
2221.70622	0.67966
2219.77766	0.67806
2217.84909	0.67678
2215.92053	0.67593
2213.99196	0.67534
2212.06340	0.67485
2210.13484	0.67459
2208.20627	0.67461
2206.27771	0.67484
2204.34914	0.67537
2202.42058	0.67621
2200.49201	0.67717
2198.56345	0.67803
2196.63488	0.67853
2194.70632	0.67879
2192.77776	0.67912
2190.84919	0.67937
2188.92063	0.67917
2186.99206	0.67855
2185.06350	0.67780
2183.13493	0.67709
2181.20637	0.67622
2179.27781	0.67491
2177.34924	0.67347
2175.42068	0.67259
2173.49211	0.67218
2171.56355	0.67166
2169.63498	0.67096
2167.70642	0.67043
2165.77785	0.67033
2163.84929	0.67071
2161.92073	0.67131
2159.99216	0.67182
2158.06360	0.67236
2156.13503	0.67315
2154.20647	0.67402
2152.27790	0.67446
2150.34934	0.67432
2148.42077	0.67397
2146.49221	0.67359
2144.56365	0.67298
2142.63508	0.67200
2140.70652	0.67078
2138.77795	0.66944
2136.84939	0.66789
2134.92082	0.66613
2132.99226	0.66433
2131.06369	0.66250
2129.13513	0.66077
2127.20657	0.65935
2125.27800	0.65828
2123.34944	0.65749
2121.42087	0.65703
2119.49231	0.65689
2117.56374	0.65705
2115.63518	0.65753
2113.70661	0.65823
2111.77805	0.65912
2109.84949	0.66014
2107.92092	0.66124
2105.99236	0.66235
2104.06379	0.66348
2102.13523	0.66439
2100.20666	0.66486
2098.27810	0.66484
2096.34953	0.66421
2094.42097	0.66310
2092.49241	0.66197
2090.56384	0.66094
2088.63528	0.65970
2086.70671	0.65815
2084.77815	0.65643
2082.84958	0.65474
2080.92102	0.65336
2078.99245	0.65227
2077.06389	0.65137
2075.13533	0.65071
2073.20676	0.65027
2071.27820	0.64987
2069.34963	0.64957
2067.42107	0.64952
2065.49250	0.64962
2063.56394	0.64974
2061.63537	0.64973
2059.70681	0.64950
2057.77825	0.64907
2055.84968	0.64835
2053.92112	0.64741
2051.99255	0.64633
2050.06399	0.64496
2048.13542	0.64329
2046.20686	0.64146
2044.27830	0.63951
2042.34973	0.63761
2040.42117	0.63592
2038.49260	0.63430
2036.56404	0.63289
2034.63547	0.63190
2032.70691	0.63108
2030.77834	0.63044
2028.84978	0.63040
2026.92122	0.63110
2024.99265	0.63218
2023.06409	0.63324
2021.13552	0.63421
2019.20696	0.63545
2017.27839	0.63700
2015.34983	0.63818
2013.42126	0.63879
2011.49270	0.63927
2009.56414	0.63958
2007.63557	0.63950
2005.70701	0.63898
2003.77844	0.63805
2001.84988	0.63675
1999.92131	0.63511
1997.99275	0.63324
1996.06418	0.63154
1994.13562	0.63035
1992.20706	0.62945
1990.27849	0.62816
1988.34993	0.62638
1986.42136	0.62454
1984.49280	0.62308
1982.56423	0.62211
1980.63567	0.62150
1978.70710	0.62103
1976.77854	0.62063
1974.84998	0.62038
1972.92141	0.62027
1970.99285	0.62012
1969.06428	0.62010
1967.13572	0.62019
1965.20715	0.61960
1963.27859	0.61840
1961.35002	0.61727
1959.42146	0.61626
1957.49290	0.61522
1955.56433	0.61401
1953.63577	0.61233
1951.70720	0.61033
1949.77864	0.60865
1947.85007	0.60751
1945.92151	0.60656
1943.99294	0.60583
1942.06438	0.60512
1940.13582	0.60391
1938.20725	0.60291
1936.27869	0.60270
1934.35012	0.60286
1932.42156	0.60318
1930.49299	0.60370
1928.56443	0.60429
1926.63586	0.60489
1924.70730	0.60578
1922.77874	0.60670
1920.85017	0.60681
1918.92161	0.60674
1916.99304	0.60684
1915.06448	0.60609
1913.13591	0.60478
1911.20735	0.60359
1909.27878	0.60237
1907.35022	0.60081
1905.42166	0.59898
1903.49309	0.59717
1901.56453	0.59559
1899.63596	0.59426
1897.70740	0.59319
1895.77883	0.59254
1893.85027	0.59200
1891.92171	0.59163
1889.99314	0.59186
1888.06458	0.59165
1886.13601	0.59073
1884.20745	0.59026
1882.27888	0.59015
1880.35032	0.58996
1878.42175	0.58975
1876.49319	0.58953
1874.56463	0.58915
1872.63606	0.58876
1870.70750	0.58922
1868.77893	0.59043
1866.85037	0.58962
1864.92180	0.58691
1862.99324	0.58462
1861.06467	0.58319
1859.13611	0.58203
1857.20755	0.58075
1855.27898	0.57941
1853.35042	0.57824
1851.42185	0.57739
1849.49329	0.57707
1847.56472	0.57727
1845.63616	0.57834
1843.70759	0.57987
1841.77903	0.57955
1839.85047	0.57831
1837.92190	0.57794
1835.99334	0.57801
1834.06477	0.57754
1832.13621	0.57730
1830.20764	0.57821
1828.27908	0.57846
1826.35051	0.57731
1824.42195	0.57589
1822.49339	0.57394
1820.56482	0.57172
1818.63626	0.56990
1816.70769	0.56826
1814.77913	0.56662
1812.85056	0.56556
1810.92200	0.56531
1808.99343	0.56489
1807.06487	0.56375
1805.13631	0.56286
1803.20774	0.56327
1801.27918	0.56510
1799.35061	0.56670
1797.42205	0.56720
1795.49348	0.56777
1793.56492	0.56994
1791.63635	0.57330
1789.70779	0.57397
1787.77923	0.57312
1785.85066	0.57344
1783.92210	0.57469
1781.99353	0.57602
1780.06497	0.57736
1778.13640	0.57813
1776.20784	0.57856
1774.27927	0.58028
1772.35071	0.58391
1770.42215	0.58586
1768.49358	0.58550
1766.56502	0.58504
1764.63645	0.58542
1762.70789	0.58823
1760.77932	0.59257
1758.85076	0.59594
1756.92220	0.60024
1754.99363	0.60488
1753.06507	0.60951
1751.13650	0.61847
1749.20794	0.63128
1747.27937	0.64078
1745.35081	0.64746
1743.42224	0.65407
1741.49368	0.66128
1739.56512	0.66826
1737.63655	0.67228
1735.70799	0.67577
1733.77942	0.68428
1731.85086	0.69072
1729.92229	0.69285
1727.99373	0.69548
1726.06516	0.69959
1724.13660	0.70625
1722.20804	0.71352
1720.27947	0.72030
1718.35091	0.73325
1716.42234	0.75634
1714.49378	0.77323
1712.56521	0.78433
1710.63665	0.79702
1708.70808	0.81361
1706.77952	0.83932
1704.85096	0.87344
1702.92239	0.90409
1700.99383	0.94705
1699.06526	1.01507
1697.13670	1.07605
1695.20813	1.13259
1693.27957	1.17409
1691.35100	1.20743
1689.42244	1.24924
1687.49388	1.28784
1685.56531	1.32595
1683.63675	1.38428
1681.70818	1.42399
1679.77962	1.44355
1677.85105	1.46128
1675.92249	1.48219
1673.99392	1.50285
1672.06536	1.51767
1670.13680	1.53518
1668.20823	1.55638
1666.27967	1.56731
1664.35110	1.57465
1662.42254	1.58463
1660.49397	1.59012
1658.56541	1.58989
1656.63684	1.58835
1654.70828	1.59162
1652.77972	1.59603
1650.85115	1.58954
1648.92259	1.58404
1646.99402	1.58061
1645.06546	1.57459
1643.13689	1.56625
1641.20833	1.55897
1639.27976	1.55313
1637.35120	1.55047
1635.42264	1.54932
1633.49407	1.54201
1631.56551	1.53311
1629.63694	1.52432
1627.70838	1.51546
1625.77981	1.50638
1623.85125	1.49625
1621.92269	1.48413
1619.99412	1.47158
1618.06556	1.45609
1616.13699	1.43279
1614.20843	1.41122
1612.27986	1.39388
1610.35130	1.37696
1608.42273	1.35957
1606.49417	1.34297
1604.56561	1.32978
1602.63704	1.32053
1600.70848	1.31360
1598.77991	1.30745
1596.85135	1.30259
1594.92278	1.29951
1592.99422	1.29792
1591.06565	1.29787
1589.13709	1.29957
1587.20853	1.30398
1585.27996	1.31136
1583.35140	1.31990
1581.42283	1.32772
1579.49427	1.33540
1577.56570	1.34779
1575.63714	1.36666
1573.70857	1.37776
1571.78001	1.38386
1569.85145	1.39606
1567.92288	1.41064
1565.99432	1.41993
1564.06575	1.42764
1562.13719	1.43459
1560.20862	1.44695
1558.28006	1.47097
1556.35149	1.47626
1554.42293	1.47389
1552.49437	1.47207
1550.56580	1.47170
1548.63724	1.47151
1546.70867	1.46962
1544.78011	1.46733
1542.85154	1.46793
1540.92298	1.46998
1538.99441	1.45979
1537.06585	1.44738
1535.13729	1.43862
1533.20872	1.43257
1531.28016	1.42733
1529.35159	1.42261
1527.42303	1.41972
1525.49446	1.41690
1523.56590	1.41348
1521.63733	1.41209
1519.70877	1.41087
1517.78021	1.40582
1515.85164	1.39646
1513.92308	1.38393
1511.99451	1.36970
1510.06595	1.35576
1508.13738	1.33834
1506.20882	1.30885
1504.28025	1.28783
1502.35169	1.27288
1500.42313	1.25697
1498.49456	1.23775
1496.56600	1.21426
1494.63743	1.19321
1492.70887	1.17767
1490.78030	1.16255
1488.85174	1.14419
1486.92317	1.12719
1484.99461	1.11468
1483.06605	1.10642
1481.13748	1.10143
1479.20892	1.09924
1477.28035	1.10137
1475.35179	1.11028
1473.42322	1.12766
1471.49466	1.14429
1469.56610	1.15152
1467.63753	1.15686
1465.70897	1.16558
1463.78040	1.17438
1461.85184	1.17820
1459.92327	1.18120
1457.99471	1.19010
1456.06614	1.19849
1454.13758	1.19718
1452.20902	1.19457
1450.28045	1.19290
1448.35189	1.19142
1446.42332	1.18861
1444.49476	1.18411
1442.56619	1.17902
1440.63763	1.17423
1438.70906	1.16979
1436.78050	1.16371
1434.85194	1.15472
1432.92337	1.14586
1430.99481	1.13793
1429.06624	1.13086
1427.13768	1.12543
1425.20911	1.12203
1423.28055	1.12053
1421.35198	1.12069
1419.42342	1.12359
1417.49486	1.12642
1415.56629	1.12533
1413.63773	1.12323
1411.70916	1.12155
1409.78060	1.11991
1407.85203	1.11886
1405.92347	1.11967
1403.99490	1.12127
1402.06634	1.12203
1400.13778	1.12333
1398.20921	1.12508
1396.28065	1.12573
1394.35208	1.12608
1392.42352	1.12648
1390.49495	1.12776
1388.56639	1.13272
1386.63782	1.14227
1384.70926	1.15236
1382.78070	1.16167
1380.85213	1.16983
1378.92357	1.17400
1376.99500	1.17283
1375.06644	1.16614
1373.13787	1.15408
1371.20931	1.13966
1369.28074	1.12342
1367.35218	1.10570
1365.42362	1.08949
1363.49505	1.07435
1361.56649	1.05995
1359.63792	1.04927
1357.70936	1.04275
1355.78079	1.03913
1353.85223	1.03731
1351.92366	1.03678
1349.99510	1.03728
1348.06654	1.03805
1346.13797	1.03862
1344.20941	1.03954
1342.28084	1.04175
1340.35228	1.04609
1338.42371	1.05099
1336.49515	1.05495
1334.56659	1.05977
1332.63802	1.06672
1330.70946	1.07513
1328.78089	1.08271
1326.85233	1.08734
1324.92376	1.08926
1322.99520	1.09029
1321.06663	1.09171
1319.13807	1.09346
1317.20951	1.09466
1315.28094	1.09528
1313.35238	1.09591
1311.42381	1.09602
1309.49525	1.09504
1307.56668	1.09337
1305.63812	1.09114
1303.70955	1.08842
1301.78099	1.08529
1299.85243	1.08117
1297.92386	1.07554
1295.99530	1.06938
1294.06673	1.06425
1292.13817	1.06040
1290.20960	1.05762
1288.28104	1.05580
1286.35247	1.05429
1284.42391	1.05262
1282.49535	1.05124
1280.56678	1.05069
1278.63822	1.05119
1276.70965	1.05289
1274.78109	1.05565
1272.85252	1.05951
1270.92396	1.06478
1268.99539	1.07075
1267.06683	1.07637
1265.13827	1.08143
1263.20970	1.08554
1261.28114	1.08848
1259.35257	1.09064
1257.42401	1.09238
1255.49544	1.09454
1253.56688	1.09748
1251.63831	1.09999
1249.70975	1.10148
1247.78119	1.10278
1245.85262	1.10425
1243.92406	1.10562
1241.99549	1.10650
1240.06693	1.10662
1238.13836	1.10607
1236.20980	1.10465
1234.28123	1.10189
1232.35267	1.09787
1230.42411	1.09273
1228.49554	1.08652
1226.56698	1.07915
1224.63841	1.07076
1222.70985	1.06209
1220.78128	1.05382
1218.85272	1.04616
1216.92415	1.03940
1214.99559	1.03448
1213.06703	1.03168
1211.13846	1.03007
1209.20990	1.02877
1207.28133	1.02650
1205.35277	1.02153
1203.42420	1.01348
1201.49564	1.00323
1199.56708	0.99183
1197.63851	0.98027
1195.70995	0.96953
1193.78138	0.96039
1191.85282	0.95302
1189.92425	0.94746
1187.99569	0.94415
1186.06712	0.94307
1184.13856	0.94377
1182.21000	0.94645
1180.28143	0.95145
1178.35287	0.95859
1176.42430	0.96756
1174.49574	0.97816
1172.56717	0.98964
1170.63861	1.00084
1168.71004	1.01197
1166.78148	1.02449
1164.85292	1.03772
1162.92435	1.04865
1160.99579	1.05541
1159.06722	1.05743
1157.13866	1.05412
1155.21009	1.04546
1153.28153	1.03279
1151.35296	1.01826
1149.42440	1.00370
1147.49584	0.99031
1145.56727	0.97940
1143.63871	0.97252
1141.71014	0.97042
1139.78158	0.97232
1137.85301	0.97695
1135.92445	0.98337
1133.99588	0.99139
1132.06732	1.00197
1130.13876	1.01515
1128.21019	1.02903
1126.28163	1.04195
1124.35306	1.05307
1122.42450	1.06186
1120.49593	1.06839
1118.56737	1.07200
1116.63880	1.07155
1114.71024	1.06772
1112.78168	1.06228
1110.85311	1.05622
1108.92455	1.05013
1106.99598	1.04476
1105.06742	1.04026
1103.13885	1.03689
1101.21029	1.03625
1099.28172	1.03994
1097.35316	1.04779
1095.42460	1.05843
1093.49603	1.07134
1091.56747	1.08662
1089.63890	1.10334
1087.71034	1.12012
1085.78177	1.13659
1083.85321	1.15220
1081.92464	1.16466
1079.99608	1.17161
1078.06752	1.17280
1076.13895	1.16905
1074.21039	1.16120
1072.28182	1.15032
1070.35326	1.13767
1068.42469	1.12429
1066.49613	1.11088
1064.56756	1.09792
1062.63900	1.08580
1060.71044	1.07427
1058.78187	1.06330
1056.85331	1.05406
1054.92474	1.04721
1052.99618	1.04221
1051.06761	1.03915
1049.13905	1.03866
1047.21049	1.04145
1045.28192	1.04827
1043.35336	1.05761
1041.42479	1.06665
1039.49623	1.07459
1037.56766	1.08129
1035.63910	1.08499
1033.71053	1.08426
1031.78197	1.08001
1029.85341	1.07370
1027.92484	1.06523
1025.99628	1.05431
1024.06771	1.04166
1022.13915	1.02851
1020.21058	1.01591
1018.28202	1.00408
1016.35345	0.99252
1014.42489	0.98044
1012.49633	0.96651
1010.56776	0.95017
1008.63920	0.93255
1006.71063	0.91486
1004.78207	0.89780
1002.85350	0.88282
1000.92494	0.87118
998.99637	0.86326
997.06781	0.85897
995.13925	0.85700
993.21068	0.85530
991.28212	0.85290
989.35355	0.84978
987.42499	0.84599
985.49642	0.84171
983.56786	0.83709
981.63929	0.83224
979.71073	0.82713
977.78217	0.82118
975.85360	0.81360
973.92504	0.80367
971.99647	0.79132
970.06791	0.77755
968.13934	0.76379
966.21078	0.75145
964.28221	0.74229
962.35365	0.73822
960.42509	0.74047
958.49652	0.74870
956.56796	0.75976
954.63939	0.76864
952.71083	0.77240
950.78226	0.77152
948.85370	0.76828
946.92513	0.76498
944.99657	0.76286
943.06801	0.76175
941.13944	0.76056
939.21088	0.75838
937.28231	0.75494
935.35375	0.74996
933.42518	0.74326
931.49662	0.73519
929.56805	0.72624
927.63949	0.71727
925.71093	0.70915
923.78236	0.70203
921.85380	0.69591
919.92523	0.69101
917.99667	0.68751
916.06810	0.68588
914.13954	0.68693
912.21098	0.69120
910.28241	0.69874
908.35385	0.70934
906.42528	0.72242
904.49672	0.73686
902.56815	0.75157
900.63959	0.76563
898.71102	0.77762
896.78246	0.78610
894.85390	0.79088
892.92533	0.79240
890.99677	0.79056
889.06820	0.78550
887.13964	0.77797
885.21107	0.76877
883.28251	0.75868
881.35394	0.74838
879.42538	0.73891
877.49682	0.73118
875.56825	0.72513
873.63969	0.72075
871.71112	0.71874
869.78256	0.71972
867.85399	0.72387
865.92543	0.73105
863.99686	0.74077
862.06830	0.75253
860.13974	0.76576
858.21117	0.77965
856.28261	0.79352
854.35404	0.80666
852.42548	0.81801
850.49691	0.82655
848.56835	0.83128
846.63978	0.83205
844.71122	0.82960
842.78266	0.82458
840.85409	0.81759
838.92553	0.80942
836.99696	0.80078
835.06840	0.79201
833.13983	0.78339
831.21127	0.77577
829.28270	0.77018
827.35414	0.76698
825.42558	0.76598
823.49701	0.76688
821.56845	0.76957
819.63988	0.77454
817.71132	0.78235
815.78275	0.79275
813.85419	0.80475
811.92562	0.81717
809.99706	0.82938
808.06850	0.84132
806.13993	0.85216
804.21137	0.86047
802.28280	0.86599
800.35424	0.86907
798.42567	0.86879
796.49711	0.86432
794.56854	0.85683
792.63998	0.84796
790.71142	0.83906
788.78285	0.83145
786.85429	0.82539
784.92572	0.82111
782.99716	0.81949
781.06859	0.82066
779.14003	0.82455
777.21147	0.83187
775.28290	0.84293
773.35434	0.85703
771.42577	0.87288
769.49721	0.88907
767.56864	0.90515
765.64008	0.92131
763.71151	0.93674
761.78295	0.95031
759.85439	0.96156
757.92582	0.96962
755.99726	0.97357
754.06869	0.97393
752.14013	0.97183
750.21156	0.96738
748.28300	0.96040
746.35443	0.95176
744.42587	0.94281
742.49731	0.93437
740.56874	0.92695
738.64018	0.92123
736.71161	0.91790
734.78305	0.91741
732.85448	0.92006
730.92592	0.92556
728.99735	0.93326
727.06879	0.94305
725.14023	0.95440
723.21166	0.96637
721.28310	0.97929
719.35453	0.99288
717.42597	1.00495
715.49740	1.01420
713.56884	1.02083
711.64027	1.02536
709.71171	1.02815
707.78315	1.02861
705.85458	1.02585
703.92602	1.01969
701.99745	1.01053
700.06889	0.99984
698.14032	0.98954
696.21176	0.98054
694.28319	0.97322
692.35463	0.96778
690.42607	0.96451
688.49750	0.96422
686.56894	0.96754
684.64037	0.97370
682.71181	0.98166
680.78324	0.99121
678.85468	1.00244
676.92611	1.01554
674.99755	1.02945
673.06899	1.04101
671.14042	1.04975
669.21186	1.06145
667.28329	1.07533
665.35473	1.07976
663.42616	1.07864
661.49760	1.07541
659.56903	1.07005
657.64047	1.06233
655.71191	1.05473
653.78334	1.04880
651.85478	1.04272
649.92621	1.03645
647.99765	1.03201
646.06908	1.03075
644.14052	1.03304
642.21195	1.03770
640.28339	1.04269
638.35483	1.04786
636.42626	1.05357
634.49770	1.05871
632.56913	1.06420
630.64057	1.07141
628.71200	1.07837
626.78344	1.08293
624.85488	1.08482
622.92631	1.08529
620.99775	1.08421
619.06918	1.07970
617.14062	1.07316
615.21205	1.06690
613.28349	1.05959
611.35492	1.05083
609.42636	1.04286
607.49780	1.03660
605.56923	1.03161
603.64067	1.02937
601.71210	1.03079
599.78354	1.03339
