3997.91406	1.20196
3995.98550	1.19860
3994.05693	1.19427
3992.12837	1.19263
3990.19980	1.19394
3988.27124	1.19216
3986.34268	1.18736
3984.41411	1.18576
3982.48555	1.18615
3980.55698	1.18399
3978.62842	1.18116
3976.69985	1.18141
3974.77129	1.18377
3972.84272	1.18449
3970.91416	1.18272
3968.98560	1.17973
3967.05703	1.17696
3965.12847	1.17638
3963.19990	1.17716
3961.27134	1.17666
3959.34277	1.17595
3957.41421	1.17639
3955.48564	1.17635
3953.55708	1.17540
3951.62852	1.17424
3949.69995	1.17331
3947.77139	1.17342
3945.84282	1.17281
3943.91426	1.16910
3941.98569	1.16439
3940.05713	1.16265
3938.12856	1.16340
3936.20000	1.16340
3934.27144	1.16178
3932.34287	1.16100
3930.41431	1.16065
3928.48574	1.15877
3926.55718	1.15803
3924.62861	1.15960
3922.70005	1.15960
3920.77148	1.15632
3918.84292	1.15242
3916.91436	1.15074
3914.98579	1.14944
3913.05723	1.14713
3911.12866	1.14565
3909.20010	1.14480
3907.27153	1.14425
3905.34297	1.14572
3903.41440	1.14640
3901.48584	1.14325
3899.55728	1.14146
3897.62871	1.14099
3895.70015	1.13962
3893.77158	1.13940
3891.84302	1.14090
3889.91445	1.14040
3887.98589	1.13857
3886.05733	1.13718
3884.12876	1.13368
3882.20020	1.12975
3880.27163	1.12865
3878.34307	1.12801
3876.41450	1.12778
3874.48594	1.12770
3872.55737	1.12593
3870.62881	1.12559
3868.70025	1.12423
3866.77168	1.12132
3864.84312	1.12277
3862.91455	1.12501
3860.98599	1.12329
3859.05742	1.12109
3857.12886	1.11890
3855.20029	1.11688
3853.27173	1.11895
3851.34317	1.11816
3849.41460	1.11296
3847.48604	1.10892
3845.55747	1.10602
3843.62891	1.10337
3841.70034	1.10398
3839.77178	1.10805
3837.84321	1.11035
3835.91465	1.10932
3833.98609	1.10573
3832.05752	1.10026
3830.12896	1.09688
3828.20039	1.09787
3826.27183	1.10002
3824.34326	1.09938
3822.41470	1.09926
3820.48613	1.10163
3818.55757	1.10110
3816.62901	1.10067
3814.70044	1.09940
3812.77188	1.09505
3810.84331	1.09136
3808.91475	1.09042
3806.98618	1.09078
3805.05762	1.08847
3803.12905	1.08653
3801.20049	1.08888
3799.27193	1.08880
3797.34336	1.08731
3795.41480	1.08797
3793.48623	1.08699
3791.55767	1.08399
3789.62910	1.08222
3787.70054	1.08262
3785.77197	1.08355
3783.84341	1.08284
3781.91485	1.08042
3779.98628	1.07855
3778.05772	1.07698
3776.12915	1.07476
3774.20059	1.07343
3772.27202	1.07258
3770.34346	1.07081
3768.41489	1.06870
3766.48633	1.06696
3764.55777	1.06486
3762.62920	1.06313
3760.70064	1.06462
3758.77207	1.06867
3756.84351	1.06929
3754.91494	1.06641
3752.98638	1.06507
3751.05781	1.07023
3749.12925	1.07429
3747.20069	1.07360
3745.27212	1.07312
3743.34356	1.07027
3741.41499	1.06479
3739.48643	1.06166
3737.55786	1.06521
3735.62930	1.07291
3733.70074	1.07144
3731.77217	1.06269
3729.84361	1.05418
3727.91504	1.04819
3725.98648	1.04628
3724.05791	1.04685
3722.12935	1.04703
3720.20078	1.04727
3718.27222	1.04729
3716.34366	1.04643
3714.41509	1.04684
3712.48653	1.05235
3710.55796	1.05850
3708.62940	1.05543
3706.70083	1.04853
3704.77227	1.04364
3702.84370	1.04394
3700.91514	1.04670
3698.98658	1.04560
3697.05801	1.04282
3695.12945	1.04093
3693.20088	1.04038
3691.27232	1.04491
3689.34375	1.05464
3687.41519	1.05673
3685.48662	1.05337
3683.55806	1.05130
3681.62950	1.05052
3679.70093	1.04853
3677.77237	1.04634
3675.84380	1.05452
3673.91524	1.06644
3671.98667	1.06890
3670.05811	1.07415
3668.12954	1.08116
3666.20098	1.08186
3664.27242	1.08046
3662.34385	1.08033
3660.41529	1.08201
3658.48672	1.08509
3656.55816	1.09054
3654.62959	1.09414
3652.70103	1.09399
3650.77246	1.10033
3648.84390	1.11988
3646.91534	1.12825
3644.98677	1.12778
3643.05821	1.12868
3641.12964	1.13170
3639.20108	1.13612
3637.27251	1.14032
3635.34395	1.14349
3633.41538	1.14595
3631.48682	1.14814
3629.55826	1.15822
3627.62969	1.17290
3625.70113	1.17496
3623.77256	1.17336
3621.84400	1.17569
3619.91543	1.18516
3617.98687	1.19653
3616.05830	1.20365
3614.12974	1.21087
3612.20118	1.21465
3610.27261	1.21493
3608.34405	1.22288
3606.41548	1.23400
3604.48692	1.23783
3602.55835	1.24035
3600.62979	1.24638
3598.70123	1.25141
3596.77266	1.25455
3594.84410	1.26093
3592.91553	1.26712
3590.98697	1.26715
3589.05840	1.26879
3587.12984	1.28050
3585.20127	1.28891
3583.27271	1.28943
3581.34415	1.29260
3579.41558	1.30124
3577.48702	1.30739
3575.55845	1.30887
3573.62989	1.31254
3571.70132	1.31852
3569.77276	1.32456
3567.84419	1.33654
3565.91563	1.35047
3563.98707	1.35448
3562.05850	1.35730
3560.12994	1.36256
3558.20137	1.36732
3556.27281	1.37321
3554.34424	1.38215
3552.41568	1.38979
3550.48711	1.39060
3548.55855	1.39013
3546.62999	1.39661
3544.70142	1.40767
3542.77286	1.41578
3540.84429	1.41983
3538.91573	1.42236
3536.98716	1.42705
3535.05860	1.43440
3533.13003	1.44030
3531.20147	1.44518
3529.27291	1.45332
3527.34434	1.46421
3525.41578	1.47410
3523.48721	1.48196
3521.55865	1.48688
3519.63008	1.48910
3517.70152	1.49374
3515.77295	1.50270
3513.84439	1.51061
3511.91583	1.51675
3509.98726	1.52611
3508.05870	1.53730
3506.13013	1.54481
3504.20157	1.55157
3502.27300	1.56067
3500.34444	1.56901
3498.41587	1.58066
3496.48731	1.59791
3494.55875	1.61093
3492.63018	1.61726
3490.70162	1.62636
3488.77305	1.63972
3486.84449	1.64922
3484.91592	1.65275
3482.98736	1.65557
3481.05879	1.66000
3479.13023	1.66545
3477.20167	1.67131
3475.27310	1.67542
3473.34454	1.67674
3471.41597	1.67642
3469.48741	1.67727
3467.55884	1.68219
3465.63028	1.68882
3463.70171	1.69342
3461.77315	1.69573
3459.84459	1.69912
3457.91602	1.70799
3455.98746	1.72037
3454.05889	1.72973
3452.13033	1.73374
3450.20176	1.73401
3448.27320	1.73196
3446.34464	1.73313
3444.41607	1.74124
3442.48751	1.74808
3440.55894	1.74890
3438.63038	1.75048
3436.70181	1.75366
3434.77325	1.75307
3432.84468	1.75200
3430.91612	1.75459
3428.98756	1.75611
3427.05899	1.75226
3425.13043	1.74611
3423.20186	1.74449
3421.27330	1.74829
3419.34473	1.75251
3417.41617	1.75667
3415.48760	1.75954
3413.55904	1.75648
3411.63048	1.75000
3409.70191	1.74783
3407.77335	1.75226
3405.84478	1.76000
3403.91622	1.76616
3401.98765	1.76508
3400.05909	1.76016
3398.13052	1.76008
3396.20196	1.76253
3394.27340	1.76113
3392.34483	1.75839
3390.41627	1.76002
3388.48770	1.76321
3386.55914	1.76404
3384.63057	1.76552
3382.70201	1.76648
3380.77344	1.76672
3378.84488	1.77108
3376.91632	1.77820
3374.98775	1.78482
3373.05919	1.78916
3371.13062	1.79034
3369.20206	1.78997
3367.27349	1.78965
3365.34493	1.79192
3363.41636	1.79520
3361.48780	1.79076
3359.55924	1.77945
3357.63067	1.77460
3355.70211	1.77950
3353.77354	1.78628
3351.84498	1.79154
3349.91641	1.79513
3347.98785	1.79809
3346.05928	1.80443
3344.13072	1.81484
3342.20216	1.82391
3340.27359	1.82776
3338.34503	1.82949
3336.41646	1.83165
3334.48790	1.83212
3332.55933	1.83001
3330.63077	1.83061
3328.70220	1.83954
3326.77364	1.85176
3324.84508	1.85665
3322.91651	1.85188
3320.98795	1.84411
3319.05938	1.84074
3317.13082	1.84467
3315.20225	1.85252
3313.27369	1.85866
3311.34513	1.86199
3309.41656	1.86366
3307.48800	1.86531
3305.55943	1.86719
3303.63087	1.86545
3301.70230	1.86188
3299.77374	1.86231
3297.84517	1.86529
3295.91661	1.86946
3293.98805	1.87531
3292.05948	1.87925
3290.13092	1.88080
3288.20235	1.88402
3286.27379	1.88774
3284.34522	1.89012
3282.41666	1.89041
3280.48809	1.88247
3278.55953	1.86534
3276.63097	1.85047
3274.70240	1.84797
3272.77384	1.85397
3270.84527	1.85678
3268.91671	1.85587
3266.98814	1.85727
3265.05958	1.85777
3263.13101	1.85111
3261.20245	1.84123
3259.27389	1.83573
3257.34532	1.83533
3255.41676	1.83309
3253.48819	1.82356
3251.55963	1.80884
3249.63106	1.79265
3247.70250	1.77855
3245.77393	1.76997
3243.84537	1.76616
3241.91681	1.76310
3239.98824	1.75901
3238.05968	1.75505
3236.13111	1.75122
3234.20255	1.74628
3232.27398	1.74046
3230.34542	1.73489
3228.41685	1.72962
3226.48829	1.72490
3224.55973	1.72090
3222.63116	1.71440
3220.70260	1.70503
3218.77403	1.69946
3216.84547	1.70018
3214.91690	1.70380
3212.98834	1.70432
3211.05977	1.69575
3209.13121	1.68434
3207.20265	1.67959
3205.27408	1.67905
3203.34552	1.67775
3201.41695	1.67503
3199.48839	1.67089
3197.55982	1.66557
3195.63126	1.66031
3193.70269	1.65679
3191.77413	1.65474
3189.84557	1.65134
3187.91700	1.64445
3185.98844	1.63517
3184.05987	1.62697
3182.13131	1.62346
3180.20274	1.62404
3178.27418	1.62305
3176.34562	1.61831
3174.41705	1.61339
3172.48849	1.60848
3170.55992	1.60214
3168.63136	1.59577
3166.70279	1.58981
3164.77423	1.58554
3162.84566	1.58340
3160.91710	1.57967
3158.98854	1.57442
3157.05997	1.56919
3155.13141	1.56264
3153.20284	1.55723
3151.27428	1.55679
3149.34571	1.55903
3147.41715	1.55846
3145.48858	1.55464
3143.56002	1.55100
3141.63146	1.54842
3139.70289	1.54636
3137.77433	1.54539
3135.84576	1.54592
3133.91720	1.54709
3131.98863	1.54714
3130.06007	1.54546
3128.13150	1.54331
3126.20294	1.54039
3124.27438	1.53628
3122.34581	1.53397
3120.41725	1.53463
3118.48868	1.53500
3116.56012	1.53315
3114.63155	1.53174
3112.70299	1.53353
3110.77442	1.53689
3108.84586	1.53946
3106.91730	1.54013
3104.98873	1.53824
3103.06017	1.53528
3101.13160	1.53338
3099.20304	1.53350
3097.27447	1.53507
3095.34591	1.53573
3093.41734	1.53480
3091.48878	1.53335
3089.56022	1.53037
3087.63165	1.52652
3085.70309	1.52518
3083.77452	1.52500
3081.84596	1.52231
3079.91739	1.51913
3077.98883	1.51773
3076.06026	1.51478
3074.13170	1.50899
3072.20314	1.50437
3070.27457	1.50219
3068.34601	1.50004
3066.41744	1.49781
3064.48888	1.49567
3062.56031	1.49200
3060.63175	1.48706
3058.70318	1.48262
3056.77462	1.47801
3054.84606	1.47186
3052.91749	1.46596
3050.98893	1.46254
3049.06036	1.46063
3047.13180	1.45726
3045.20323	1.45153
3043.27467	1.44546
3041.34610	1.43966
3039.41754	1.43364
3037.48898	1.42863
3035.56041	1.42575
3033.63185	1.42458
3031.70328	1.42347
3029.77472	1.41998
3027.84615	1.41324
3025.91759	1.40593
3023.98903	1.40124
3022.06046	1.39957
3020.13190	1.39894
3018.20333	1.39630
3016.27477	1.39219
3014.34620	1.39069
3012.41764	1.39109
3010.48907	1.38892
3008.56051	1.38439
3006.63195	1.38063
3004.70338	1.37847
3002.77482	1.37742
3000.84625	1.37683
2998.91769	1.37573
2996.98912	1.37387
2995.06056	1.37299
2993.13199	1.37517
2991.20343	1.38047
2989.27487	1.38730
2987.34630	1.39367
2985.41774	1.40003
2983.48917	1.40783
2981.56061	1.41596
2979.63204	1.42367
2977.70348	1.43139
2975.77491	1.43959
2973.84635	1.44850
2971.91779	1.45765
2969.98922	1.46680
2968.06066	1.47555
2966.13209	1.48436
2964.20353	1.49320
2962.27496	1.49967
2960.34640	1.50162
2958.41783	1.49895
2956.48927	1.49449
2954.56071	1.48917
2952.63214	1.48091
2950.70358	1.47197
2948.77501	1.46695
2946.84645	1.46717
2944.91788	1.47166
2942.98932	1.48024
2941.06075	1.49249
2939.13219	1.50504
2937.20363	1.51602
2935.27506	1.52733
2933.34650	1.53966
2931.41793	1.55179
2929.48937	1.56265
2927.56080	1.57155
2925.63224	1.57679
2923.70367	1.57712
2921.77511	1.57512
2919.84655	1.57219
2917.91798	1.56450
2915.98942	1.54743
2914.06085	1.52223
2912.13229	1.49699
2910.20372	1.47538
2908.27516	1.45557
2906.34659	1.43948
2904.41803	1.42889
2902.48947	1.42131
2900.56090	1.41499
2898.63234	1.41073
2896.70377	1.40845
2894.77521	1.40552
2892.84664	1.40083
2890.91808	1.39652
2888.98952	1.39307
2887.06095	1.38862
2885.13239	1.38367
2883.20382	1.38207
2881.27526	1.38489
2879.34669	1.38748
2877.41813	1.38740
2875.48956	1.38694
2873.56100	1.38610
2871.63244	1.38204
2869.70387	1.37346
2867.77531	1.36363
2865.84674	1.35752
2863.91818	1.35555
2861.98961	1.35533
2860.06105	1.35622
2858.13248	1.35900
2856.20392	1.36405
2854.27536	1.37046
2852.34679	1.37683
2850.41823	1.37855
2848.48966	1.36710
2846.56110	1.34141
2844.63253	1.31179
2842.70397	1.28694
2840.77540	1.26858
2838.84684	1.25582
2836.91828	1.24667
2834.98971	1.23895
2833.06115	1.23243
2831.13258	1.22722
2829.20402	1.22178
2827.27545	1.21581
2825.34689	1.21029
2823.41832	1.20435
2821.48976	1.19816
2819.56120	1.19380
2817.63263	1.19125
2815.70407	1.18868
2813.77550	1.18526
2811.84694	1.18119
2809.91837	1.17668
2807.98981	1.17204
2806.06124	1.16753
2804.13268	1.16317
2802.20412	1.15923
2800.27555	1.15582
2798.34699	1.15274
2796.41842	1.15005
2794.48986	1.14729
2792.56129	1.14346
2790.63273	1.13937
2788.70416	1.13631
2786.77560	1.13360
2784.84704	1.13059
2782.91847	1.12760
2780.98991	1.12489
2779.06134	1.12252
2777.13278	1.12010
2775.20421	1.11767
2773.27565	1.11613
2771.34708	1.11521
2769.41852	1.11315
2767.48996	1.10999
2765.56139	1.10757
2763.63283	1.10589
2761.70426	1.10390
2759.77570	1.10180
2757.84713	1.09964
2755.91857	1.09686
2753.99001	1.09383
2752.06144	1.09139
2750.13288	1.08880
2748.20431	1.08519
2746.27575	1.08236
2744.34718	1.08153
2742.41862	1.08080
2740.49005	1.07915
2738.56149	1.07787
2736.63293	1.07695
2734.70436	1.07556
2732.77580	1.07388
2730.84723	1.07200
2728.91867	1.06971
2726.99010	1.06735
2725.06154	1.06502
2723.13297	1.06267
2721.20441	1.06032
2719.27585	1.05770
2717.34728	1.05476
2715.41872	1.05153
2713.49015	1.04780
2711.56159	1.04400
2709.63302	1.04092
2707.70446	1.03869
2705.77589	1.03679
2703.84733	1.03496
2701.91877	1.03349
2699.99020	1.03228
2698.06164	1.03093
2696.13307	1.02955
2694.20451	1.02847
2692.27594	1.02731
2690.34738	1.02540
2688.41881	1.02304
2686.49025	1.02100
2684.56169	1.01906
2682.63312	1.01669
2680.70456	1.01404
2678.77599	1.01145
2676.84743	1.00904
2674.91886	1.00672
2672.99030	1.00434
2671.06173	1.00207
2669.13317	1.00042
2667.20461	0.99939
2665.27604	0.99840
2663.34748	0.99749
2661.41891	0.99673
2659.49035	0.99584
2657.56178	0.99526
2655.63322	0.99537
2653.70465	0.99541
2651.77609	0.99431
2649.84753	0.99197
2647.91896	0.98946
2645.99040	0.98720
2644.06183	0.98486
2642.13327	0.98238
2640.20470	0.97983
2638.27614	0.97737
2636.34757	0.97478
2634.41901	0.97205
2632.49045	0.97005
2630.56188	0.96866
2628.63332	0.96722
2626.70475	0.96607
2624.77619	0.96558
2622.84762	0.96547
2620.91906	0.96509
2618.99049	0.96422
2617.06193	0.96340
2615.13337	0.96253
2613.20480	0.96113
2611.27624	0.95942
2609.34767	0.95765
2607.41911	0.95545
2605.49054	0.95290
2603.56198	0.95074
2601.63342	0.94883
2599.70485	0.94678
2597.77629	0.94473
2595.84772	0.94273
2593.91916	0.94110
2591.99059	0.94023
2590.06203	0.93970
2588.13346	0.93858
2586.20490	0.93697
2584.27634	0.93570
2582.34777	0.93458
2580.41921	0.93319
2578.49064	0.93192
2576.56208	0.93042
2574.63351	0.92803
2572.70495	0.92540
2570.77638	0.92331
2568.84782	0.92167
2566.91926	0.91993
2564.99069	0.91774
2563.06213	0.91548
2561.13356	0.91337
2559.20500	0.91148
2557.27643	0.91007
2555.34787	0.90912
2553.41930	0.90838
2551.49074	0.90767
2549.56218	0.90709
2547.63361	0.90684
2545.70505	0.90646
2543.77648	0.90536
2541.84792	0.90390
2539.91935	0.90279
2537.99079	0.90214
2536.06222	0.90141
2534.13366	0.90003
2532.20510	0.89829
2530.27653	0.89678
2528.34797	0.89540
2526.41940	0.89386
2524.49084	0.89224
2522.56227	0.89075
2520.63371	0.88945
2518.70514	0.88826
2516.77658	0.88690
2514.84802	0.88521
2512.91945	0.88349
2510.99089	0.88207
2509.06232	0.88099
2507.13376	0.88010
2505.20519	0.87916
2503.27663	0.87800
2501.34806	0.87680
2499.41950	0.87591
2497.49094	0.87517
2495.56237	0.87417
2493.63381	0.87288
2491.70524	0.87157
2489.77668	0.87034
2487.84811	0.86909
2485.91955	0.86782
2483.99098	0.86670
2482.06242	0.86566
2480.13386	0.86436
2478.20529	0.86248
2476.27673	0.86024
2474.34816	0.85800
2472.41960	0.85586
2470.49103	0.85384
2468.56247	0.85187
2466.63391	0.84998
2464.70534	0.84823
2462.77678	0.84642
2460.84821	0.84460
2458.91965	0.84290
2456.99108	0.84114
2455.06252	0.83914
2453.13395	0.83692
2451.20539	0.83455
2449.27683	0.83214
2447.34826	0.83012
2445.41970	0.82874
2443.49113	0.82751
2441.56257	0.82614
2439.63400	0.82484
2437.70544	0.82352
2435.77687	0.82187
2433.84831	0.82019
2431.91975	0.81896
2429.99118	0.81804
2428.06262	0.81705
2426.13405	0.81620
2424.20549	0.81566
2422.27692	0.81507
2420.34836	0.81432
2418.41979	0.81346
2416.49123	0.81259
2414.56267	0.81185
2412.63410	0.81112
2410.70554	0.81023
2408.77697	0.80896
2406.84841	0.80718
2404.91984	0.80531
2402.99128	0.80374
2401.06271	0.80265
2399.13415	0.80195
2397.20559	0.80115
2395.27702	0.79990
2393.34846	0.79868
2391.41989	0.79779
2389.49133	0.79684
2387.56276	0.79558
2385.63420	0.79410
2383.70563	0.79256
2381.77707	0.79098
2379.84851	0.78917
2377.91994	0.78704
2375.99138	0.78451
2374.06281	0.78152
2372.13425	0.77852
2370.20568	0.77580
2368.27712	0.77350
2366.34855	0.77194
2364.41999	0.77006
2362.49143	0.76755
2360.56286	0.76600
2358.63430	0.76533
2356.70573	0.76605
2354.77717	0.76833
2352.84860	0.76960
2350.92004	0.76853
2348.99147	0.76626
2347.06291	0.76410
2345.13435	0.76278
2343.20578	0.76164
2341.27722	0.76001
2339.34865	0.75931
2337.42009	0.75975
2335.49152	0.75986
2333.56296	0.75945
2331.63440	0.75916
2329.70583	0.75909
2327.77727	0.75925
2325.84870	0.75940
2323.92014	0.75929
2321.99157	0.75936
2320.06301	0.75938
2318.13444	0.75881
2316.20588	0.75791
2314.27732	0.75704
2312.34875	0.75656
2310.42019	0.75639
2308.49162	0.75572
2306.56306	0.75448
2304.63449	0.75302
2302.70593	0.75157
2300.77736	0.75045
2298.84880	0.74953
2296.92024	0.74825
2294.99167	0.74699
2293.06311	0.74642
2291.13454	0.74614
2289.20598	0.74567
2287.27741	0.74517
2285.34885	0.74486
2283.42028	0.74442
2281.49172	0.74366
2279.56316	0.74303
2277.63459	0.74269
2275.70603	0.74233
2273.77746	0.74201
2271.84890	0.74187
2269.92033	0.74156
2267.99177	0.74091
2266.06320	0.74042
2264.13464	0.74012
2262.20608	0.73945
2260.27751	0.73839
2258.34895	0.73745
2256.42038	0.73689
2254.49182	0.73647
2252.56325	0.73584
2250.63469	0.73493
2248.70612	0.73384
2246.77756	0.73266
2244.84900	0.73143
2242.92043	0.73033
2240.99187	0.72935
2239.06330	0.72803
2237.13474	0.72625
2235.20617	0.72435
2233.27761	0.72257
2231.34904	0.72117
2229.42048	0.72009
2227.49192	0.71902
2225.56335	0.71813
2223.63479	0.71767
2221.70622	0.71744
2219.77766	0.71722
2217.84909	0.71704
2215.92053	0.71693
2213.99196	0.71689
2212.06340	0.71704
2210.13484	0.71734
2208.20627	0.71727
2206.27771	0.71661
2204.34914	0.71571
2202.42058	0.71479
2200.49201	0.71377
2198.56345	0.71267
2196.63488	0.71172
2194.70632	0.71108
2192.77776	0.71063
2190.84919	0.71012
2188.92063	0.70931
2186.99206	0.70832
2185.06350	0.70757
2183.13493	0.70729
2181.20637	0.70742
2179.27781	0.70770
2177.34924	0.70784
2175.42068	0.70776
2173.49211	0.70758
2171.56355	0.70744
2169.63498	0.70723
2167.70642	0.70677
2165.77785	0.70606
2163.84929	0.70522
2161.92073	0.70433
2159.99216	0.70338
2158.06360	0.70253
2156.13503	0.70197
2154.20647	0.70155
2152.27790	0.70111
2150.34934	0.70086
2148.42077	0.70075
2146.49221	0.70061
2144.56365	0.70061
2142.63508	0.70079
2140.70652	0.70100
2138.77795	0.70116
2136.84939	0.70123
2134.92082	0.70114
2132.99226	0.70055
2131.06369	0.69936
2129.13513	0.69781
2127.20657	0.69611
2125.27800	0.69409
2123.34944	0.69161
2121.42087	0.68909
2119.49231	0.68712
2117.56374	0.68574
2115.63518	0.68458
2113.70661	0.68346
2111.77805	0.68255
2109.84949	0.68193
2107.92092	0.68145
2105.99236	0.68109
2104.06379	0.68107
2102.13523	0.68150
2100.20666	0.68208
2098.27810	0.68246
2096.34953	0.68242
2094.42097	0.68187
2092.49241	0.68091
2090.56384	0.67990
2088.63528	0.67913
2086.70671	0.67846
2084.77815	0.67762
2082.84958	0.67657
2080.92102	0.67551
2078.99245	0.67463
2077.06389	0.67405
2075.13533	0.67353
2073.20676	0.67275
2071.27820	0.67197
2069.34963	0.67168
2067.42107	0.67184
2065.49250	0.67206
2063.56394	0.67196
2061.63537	0.67160
2059.70681	0.67127
2057.77825	0.67079
2055.84968	0.66996
2053.92112	0.66895
2051.99255	0.66775
2050.06399	0.66621
2048.13542	0.66459
2046.20686	0.66328
2044.27830	0.66240
2042.34973	0.66172
2040.42117	0.66087
2038.49260	0.65983
2036.56404	0.65899
2034.63547	0.65844
2032.70691	0.65798
2030.77834	0.65744
2028.84978	0.65678
2026.92122	0.65605
2024.99265	0.65514
2023.06409	0.65390
2021.13552	0.65248
2019.20696	0.65128
2017.27839	0.65006
2015.34983	0.64823
2013.42126	0.64598
2011.49270	0.64398
2009.56414	0.64230
2007.63557	0.64066
2005.70701	0.63899
2003.77844	0.63731
2001.84988	0.63579
1999.92131	0.63457
1997.99275	0.63333
1996.06418	0.63197
1994.13562	0.63117
1992.20706	0.63108
1990.27849	0.63061
1988.34993	0.62961
1986.42136	0.62867
1984.49280	0.62779
1982.56423	0.62689
1980.63567	0.62596
1978.70710	0.62496
1976.77854	0.62399
1974.84998	0.62322
1972.92141	0.62282
1970.99285	0.62266
1969.06428	0.62264
1967.13572	0.62268
1965.20715	0.62224
1963.27859	0.62129
1961.35002	0.62048
1959.42146	0.62001
1957.49290	0.61957
1955.56433	0.61907
1953.63577	0.61850
1951.70720	0.61775
1949.77864	0.61681
1947.85007	0.61584
1945.92151	0.61501
1943.99294	0.61476
1942.06438	0.61464
1940.13582	0.61321
1938.20725	0.61111
1936.27869	0.60963
1934.35012	0.60871
1932.42156	0.60793
1930.49299	0.60713
1928.56443	0.60630
1926.63586	0.60560
1924.70730	0.60537
1922.77874	0.60544
1920.85017	0.60484
1918.92161	0.60417
1916.99304	0.60373
1915.06448	0.60252
1913.13591	0.60109
1911.20735	0.60048
1909.27878	0.60033
1907.35022	0.59962
1905.42166	0.59831
1903.49309	0.59701
1901.56453	0.59594
1899.63596	0.59501
1897.70740	0.59437
1895.77883	0.59419
1893.85027	0.59388
1891.92171	0.59331
1889.99314	0.59334
1888.06458	0.59319
1886.13601	0.59229
1884.20745	0.59157
1882.27888	0.59110
1880.35032	0.59068
1878.42175	0.59047
1876.49319	0.59034
1874.56463	0.58994
1872.63606	0.58928
1870.70750	0.58970
1868.77893	0.59207
1866.85037	0.59310
1864.92180	0.59151
1862.99324	0.58984
1861.06467	0.58904
1859.13611	0.58868
1857.20755	0.58842
1855.27898	0.58811
1853.35042	0.58766
1851.42185	0.58719
1849.49329	0.58700
1847.56472	0.58706
1845.63616	0.58793
1843.70759	0.58927
1841.77903	0.58850
1839.85047	0.58667
1837.92190	0.58575
1835.99334	0.58531
1834.06477	0.58436
1832.13621	0.58387
1830.20764	0.58497
1828.27908	0.58547
1826.35051	0.58450
1824.42195	0.58358
1822.49339	0.58203
1820.56482	0.58006
1818.63626	0.57903
1816.70769	0.57870
1814.77913	0.57831
1812.85056	0.57829
1810.92200	0.57901
1808.99343	0.57933
1807.06487	0.57892
1805.13631	0.57869
1803.20774	0.57930
1801.27918	0.58112
1799.35061	0.58272
1797.42205	0.58282
1795.49348	0.58258
1793.56492	0.58395
1791.63635	0.58641
1789.70779	0.58577
1787.77923	0.58348
1785.85066	0.58256
1783.92210	0.58280
1781.99353	0.58339
1780.06497	0.58424
1778.13640	0.58433
1776.20784	0.58386
1774.27927	0.58533
1772.35071	0.59010
1770.42215	0.59331
1768.49358	0.59332
1766.56502	0.59277
1764.63645	0.59282
1762.70789	0.59547
1760.77932	0.60001
1758.85076	0.60319
1756.92220	0.60643
1754.99363	0.60948
1753.06507	0.61256
1751.13650	0.61986
1749.20794	0.63082
1747.27937	0.63828
1745.35081	0.64273
1743.42224	0.64743
1741.49368	0.65369
1739.56512	0.66090
1737.63655	0.66546
1735.70799	0.66966
1733.77942	0.68046
1731.85086	0.68985
1729.92229	0.69440
1727.99373	0.69940
1726.06516	0.70551
1724.13660	0.71393
1722.20804	0.72260
1720.27947	0.73041
1718.35091	0.74520
1716.42234	0.77106
1714.49378	0.78890
1712.56521	0.80033
1710.63665	0.81401
1708.70808	0.83172
1706.77952	0.85812
1704.85096	0.89210
1702.92239	0.92164
1700.99383	0.96312
1699.06526	1.03043
1697.13670	1.09295
1695.20813	1.15387
1693.27957	1.19932
1691.35100	1.23491
1689.42244	1.27981
1687.49388	1.32365
1685.56531	1.37090
1683.63675	1.44676
1681.70818	1.50161
1679.77962	1.53263
1677.85105	1.56416
1675.92249	1.60344
1673.99392	1.64354
1672.06536	1.67238
1670.13680	1.70177
1668.20823	1.73195
1666.27967	1.74548
1664.35110	1.75387
1662.42254	1.76589
1660.49397	1.77504
1658.56541	1.77905
1656.63684	1.77949
1654.70828	1.77964
1652.77972	1.77757
1650.85115	1.77510
1648.92259	1.77399
1646.99402	1.77023
1645.06546	1.76678
1643.13689	1.76303
1641.20833	1.75888
1639.27976	1.75393
1637.35120	1.74656
1635.42264	1.73546
1633.49407	1.72691
1631.56551	1.72039
1629.63694	1.71038
1627.70838	1.69688
1625.77981	1.68173
1623.85125	1.66227
1621.92269	1.63756
1619.99412	1.61581
1618.06556	1.59284
1616.13699	1.55933
1614.20843	1.52966
1612.27986	1.50596
1610.35130	1.48175
1608.42273	1.45668
1606.49417	1.43415
1604.56561	1.41714
1602.63704	1.40416
1600.70848	1.39314
1598.77991	1.38428
1596.85135	1.37840
1594.92278	1.37440
1592.99422	1.37151
1591.06565	1.37076
1589.13709	1.37254
1587.20853	1.37672
1585.27996	1.38308
1583.35140	1.39217
1581.42283	1.40341
1579.49427	1.41472
1577.56570	1.42925
1575.63714	1.45078
1573.70857	1.46577
1571.78001	1.47567
1569.85145	1.49274
1567.92288	1.51148
1565.99432	1.52396
1564.06575	1.53658
1562.13719	1.54808
1560.20862	1.56322
1558.28006	1.59176
1556.35149	1.60146
1554.42293	1.60131
1552.49437	1.60042
1550.56580	1.60018
1548.63724	1.59961
1546.70867	1.59859
1544.78011	1.59904
1542.85154	1.60009
1540.92298	1.59544
1538.99441	1.58232
1537.06585	1.57408
1535.13729	1.56972
1533.20872	1.56511
1531.28016	1.55700
1529.35159	1.54808
1527.42303	1.54052
1525.49446	1.53551
1523.56590	1.53343
1521.63733	1.53102
1519.70877	1.52540
1517.78021	1.51544
1515.85164	1.50100
1513.92308	1.48441
1511.99451	1.46661
1510.06595	1.44999
1508.13738	1.42559
1506.20882	1.37548
1504.28025	1.34323
1502.35169	1.32358
1500.42313	1.30331
1498.49456	1.27897
1496.56600	1.24947
1494.63743	1.22414
1492.70887	1.20596
1490.78030	1.18767
1488.85174	1.16618
1486.92317	1.14820
1484.99461	1.13531
1483.06605	1.12698
1481.13748	1.12312
1479.20892	1.12321
1477.28035	1.12806
1475.35179	1.13992
1473.42322	1.16137
1471.49466	1.18284
1469.56610	1.19293
1467.63753	1.19995
1465.70897	1.21094
1463.78040	1.22331
1461.85184	1.22973
1459.92327	1.23360
1457.99471	1.24493
1456.06614	1.25980
1454.13758	1.26081
1452.20902	1.25721
1450.28045	1.25481
1448.35189	1.25367
1446.42332	1.25069
1444.49476	1.24490
1442.56619	1.23792
1440.63763	1.23110
1438.70906	1.22465
1436.78050	1.21653
1434.85194	1.20545
1432.92337	1.19478
1430.99481	1.18614
1429.06624	1.17974
1427.13768	1.17578
1425.20911	1.17502
1423.28055	1.17711
1421.35198	1.18034
1419.42342	1.18702
1417.49486	1.19486
1415.56629	1.19719
1413.63773	1.19756
1411.70916	1.19834
1409.78060	1.19894
1407.85203	1.19954
1405.92347	1.20141
1403.99490	1.20364
1402.06634	1.20450
1400.13778	1.20559
1398.20921	1.20762
1396.28065	1.20940
1394.35208	1.21077
1392.42352	1.21153
1390.49495	1.21318
1388.56639	1.21949
1386.63782	1.23122
1384.70926	1.24266
1382.78070	1.25219
1380.85213	1.25976
1378.92357	1.26265
1376.99500	1.25963
1375.06644	1.25104
1373.13787	1.23729
1371.20931	1.22011
1369.28074	1.19988
1367.35218	1.17876
1365.42362	1.16058
1363.49505	1.14446
1361.56649	1.12979
1359.63792	1.11899
1357.70936	1.11249
1355.78079	1.10940
1353.85223	1.10820
1351.92366	1.10718
1349.99510	1.10564
1348.06654	1.10384
1346.13797	1.10226
1344.20941	1.10088
1342.28084	1.09976
1340.35228	1.09973
1338.42371	1.10071
1336.49515	1.10231
1334.56659	1.10573
1332.63802	1.11157
1330.70946	1.11872
1328.78089	1.12517
1326.85233	1.12971
1324.92376	1.13274
1322.99520	1.13504
1321.06663	1.13771
1319.13807	1.14187
1317.20951	1.14652
1315.28094	1.14995
1313.35238	1.15212
1311.42381	1.15356
1309.49525	1.15481
1307.56668	1.15573
1305.63812	1.15568
1303.70955	1.15445
1301.78099	1.15205
1299.85243	1.14852
1297.92386	1.14349
1295.99530	1.13710
1294.06673	1.13107
1292.13817	1.12675
1290.20960	1.12402
1288.28104	1.12271
1286.35247	1.12238
1284.42391	1.12209
1282.49535	1.12202
1280.56678	1.12275
1278.63822	1.12402
1276.70965	1.12589
1274.78109	1.12919
1272.85252	1.13395
1270.92396	1.13914
1268.99539	1.14448
1267.06683	1.15039
1265.13827	1.15595
1263.20970	1.15928
1261.28114	1.15998
1259.35257	1.15934
1257.42401	1.15853
1255.49544	1.15800
1253.56688	1.15769
1251.63831	1.15788
1249.70975	1.15914
1247.78119	1.16129
1245.85262	1.16368
1243.92406	1.16543
1241.99549	1.16649
1240.06693	1.16757
1238.13836	1.16854
1236.20980	1.16841
1234.28123	1.16627
1232.35267	1.16240
1230.42411	1.15775
1228.49554	1.15256
1226.56698	1.14594
1224.63841	1.13697
1222.70985	1.12639
1220.78128	1.11591
1218.85272	1.10638
1216.92415	1.09822
1214.99559	1.09236
1213.06703	1.08951
1211.13846	1.08924
1209.20990	1.09028
1207.28133	1.09053
1205.35277	1.08743
1203.42420	1.07990
1201.49564	1.06933
1199.56708	1.05786
1197.63851	1.04616
1195.70995	1.03405
1193.78138	1.02249
1191.85282	1.01275
1189.92425	1.00531
1187.99569	1.00014
1186.06712	0.99661
1184.13856	0.99416
1182.21000	0.99366
1180.28143	0.99631
1178.35287	1.00228
1176.42430	1.01108
1174.49574	1.02227
1172.56717	1.03553
1170.63861	1.05070
1168.71004	1.06804
1166.78148	1.08755
1164.85292	1.10794
1162.92435	1.12668
1160.99579	1.14105
1159.06722	1.14905
1157.13866	1.14997
1155.21009	1.14433
1153.28153	1.13299
1151.35296	1.11756
1149.42440	1.10040
1147.49584	1.08363
1145.56727	1.06909
1143.63871	1.05838
1141.71014	1.05215
1139.78158	1.05066
1137.85301	1.05390
1135.92445	1.06081
1133.99588	1.07067
1132.06732	1.08414
1130.13876	1.10163
1128.21019	1.12198
1126.28163	1.14280
1124.35306	1.16236
1122.42450	1.18002
1120.49593	1.19475
1118.56737	1.20527
1116.63880	1.21105
1114.71024	1.21252
1112.78168	1.21017
1110.85311	1.20406
1108.92455	1.19600
1106.99598	1.18896
1105.06742	1.18323
1103.13885	1.17804
1101.21029	1.17502
1099.28172	1.17534
1097.35316	1.17803
1095.42460	1.18316
1093.49603	1.19246
1091.56747	1.20628
1089.63890	1.22293
1087.71034	1.24195
1085.78177	1.26476
1083.85321	1.28932
1081.92464	1.30925
1079.99608	1.32164
1078.06752	1.32758
1076.13895	1.32551
1074.21039	1.31519
1072.28182	1.30018
1070.35326	1.28247
1068.42469	1.26340
1066.49613	1.24531
1064.56756	1.22962
1062.63900	1.21701
1060.71044	1.20711
1058.78187	1.19864
1056.85331	1.19143
1054.92474	1.18582
1052.99618	1.18091
1051.06761	1.17700
1049.13905	1.17708
1047.21049	1.18225
1045.28192	1.19059
1043.35336	1.20011
1041.42479	1.20960
1039.49623	1.21902
1037.56766	1.22801
1035.63910	1.23476
1033.71053	1.23840
1031.78197	1.23914
1029.85341	1.23706
1027.92484	1.23225
1025.99628	1.22473
1024.06771	1.21547
1022.13915	1.20618
1020.21058	1.19710
1018.28202	1.18766
1016.35345	1.17696
1014.42489	1.16317
1012.49633	1.14470
1010.56776	1.12177
1008.63920	1.09588
1006.71063	1.06896
1004.78207	1.04297
1002.85350	1.01892
1000.92494	0.99702
998.99637	0.97838
997.06781	0.96383
995.13925	0.95185
993.21068	0.94016
991.28212	0.92728
989.35355	0.91275
987.42499	0.89740
985.49642	0.88244
983.56786	0.86856
981.63929	0.85648
979.71073	0.84679
977.78217	0.83881
975.85360	0.83107
973.92504	0.82236
971.99647	0.81202
970.06791	0.80061
968.13934	0.78924
966.21078	0.77933
964.28221	0.77265
962.35365	0.77088
960.42509	0.77524
958.49652	0.78482
956.56796	0.79506
954.63939	0.80006
952.71083	0.79738
950.78226	0.78924
948.85370	0.77934
946.92513	0.77044
944.99657	0.76401
943.06801	0.76004
941.13944	0.75730
939.21088	0.75507
937.28231	0.75381
935.35375	0.75380
933.42518	0.75451
931.49662	0.75563
929.56805	0.75738
927.63949	0.75998
925.71093	0.76340
923.78236	0.76701
921.85380	0.76967
919.92523	0.77099
917.99667	0.77130
916.06810	0.77088
914.13954	0.77008
912.21098	0.76959
910.28241	0.77006
908.35385	0.77182
906.42528	0.77466
904.49672	0.77800
902.56815	0.78112
900.63959	0.78341
898.71102	0.78468
896.78246	0.78470
894.85390	0.78291
892.92533	0.77967
890.99677	0.77596
889.06820	0.77208
887.13964	0.76825
885.21107	0.76523
883.28251	0.76353
881.35394	0.76277
879.42538	0.76251
877.49682	0.76265
875.56825	0.76281
873.63969	0.76299
871.71112	0.76367
869.78256	0.76481
867.85399	0.76641
865.92543	0.76875
863.99686	0.77166
862.06830	0.77504
860.13974	0.77930
858.21117	0.78442
856.28261	0.79013
854.35404	0.79609
852.42548	0.80133
850.49691	0.80530
848.56835	0.80867
846.63978	0.81183
844.71122	0.81444
842.78266	0.81630
840.85409	0.81763
838.92553	0.81884
836.99696	0.82033
835.06840	0.82212
833.13983	0.82387
831.21127	0.82541
829.28270	0.82674
827.35414	0.82761
825.42558	0.82785
823.49701	0.82747
821.56845	0.82678
819.63988	0.82618
817.71132	0.82583
815.78275	0.82552
813.85419	0.82504
811.92562	0.82435
809.99706	0.82334
808.06850	0.82194
806.13993	0.82036
804.21137	0.81922
802.28280	0.81895
800.35424	0.81911
798.42567	0.81923
796.49711	0.81979
794.56854	0.82156
792.63998	0.82450
790.71142	0.82809
788.78285	0.83219
786.85429	0.83692
784.92572	0.84200
782.99716	0.84693
781.06859	0.85185
779.14003	0.85673
777.21147	0.86089
775.28290	0.86458
773.35434	0.86812
771.42577	0.87065
769.49721	0.87185
767.56864	0.87251
765.64008	0.87342
763.71151	0.87481
761.78295	0.87654
759.85439	0.87867
757.92582	0.88159
755.99726	0.88587
754.06869	0.89159
752.14013	0.89751
750.21156	0.90284
748.28300	0.90822
746.35443	0.91372
744.42587	0.91855
742.49731	0.92190
740.56874	0.92339
738.64018	0.92347
736.71161	0.92287
734.78305	0.92185
732.85448	0.92071
730.92592	0.91973
728.99735	0.91857
727.06879	0.91788
725.14023	0.91914
723.21166	0.92233
721.28310	0.92623
719.35453	0.92971
717.42597	0.93241
715.49740	0.93595
713.56884	0.94195
711.64027	0.94938
709.71171	0.95690
707.78315	0.96374
705.85458	0.96832
703.92602	0.97018
701.99745	0.97056
700.06889	0.97055
698.14032	0.97024
696.21176	0.96862
694.28319	0.96536
692.35463	0.96194
690.42607	0.95959
688.49750	0.95727
686.56894	0.95430
684.64037	0.95283
682.71181	0.95441
680.78324	0.95807
678.85468	0.96245
676.92611	0.96673
674.99755	0.97104
673.06899	0.97521
671.14042	0.97767
669.21186	0.98118
667.28329	0.99076
665.35473	0.99738
663.42616	0.99923
661.49760	0.99951
659.56903	0.99904
657.64047	0.99711
655.71191	0.99226
653.78334	0.98613
651.85478	0.98251
649.92621	0.98111
647.99765	0.97950
646.06908	0.97855
644.14052	0.98002
642.21195	0.98358
640.28339	0.98844
638.35483	0.99408
636.42626	1.00012
634.49770	1.00557
632.56913	1.00862
630.64057	1.00986
628.71200	1.01201
626.78344	1.01494
624.85488	1.01627
622.92631	1.01586
620.99775	1.01362
619.06918	1.00930
617.14062	1.00625
615.21205	1.00624
613.28349	1.00589
611.35492	1.00412
609.42636	1.00315
607.49780	1.00267
605.56923	1.00096
603.64067	1.00023
601.71210	1.00362
599.78354	1.00994
