3997.91406	0.77123
3995.98550	0.77164
3994.05693	0.77143
3992.12837	0.77041
3990.19980	0.77009
3988.27124	0.77037
3986.34268	0.77000
3984.41411	0.76909
3982.48555	0.76847
3980.55698	0.76854
3978.62842	0.76866
3976.69985	0.76816
3974.77129	0.76737
3972.84272	0.76677
3970.91416	0.76683
3968.98560	0.76774
3967.05703	0.76844
3965.12847	0.76851
3963.19990	0.76891
3961.27134	0.76920
3959.34277	0.76855
3957.41421	0.76783
3955.48564	0.76717
3953.55708	0.76633
3951.62852	0.76632
3949.69995	0.76774
3947.77139	0.76852
3945.84282	0.76729
3943.91426	0.76636
3941.98569	0.76621
3940.05713	0.76511
3938.12856	0.76351
3936.20000	0.76217
3934.27144	0.76183
3932.34287	0.76392
3930.41431	0.76625
3928.48574	0.76528
3926.55718	0.76338
3924.62861	0.76367
3922.70005	0.76403
3920.77148	0.76311
3918.84292	0.76312
3916.91436	0.76332
3914.98579	0.76099
3913.05723	0.75801
3911.12866	0.75681
3909.20010	0.75623
3907.27153	0.75559
3905.34297	0.75764
3903.41440	0.76293
3901.48584	0.76727
3899.55728	0.76851
3897.62871	0.76527
3895.70015	0.76022
3893.77158	0.75851
3891.84302	0.76151
3889.91445	0.76231
3887.98589	0.75983
3886.05733	0.75936
3884.12876	0.75975
3882.20020	0.75933
3880.27163	0.75972
3878.34307	0.75656
3876.41450	0.75197
3874.48594	0.75119
3872.55737	0.75354
3870.62881	0.75790
3868.70025	0.76026
3866.77168	0.75782
3864.84312	0.75719
3862.91455	0.75947
3860.98599	0.75829
3859.05742	0.75445
3857.12886	0.75176
3855.20029	0.75501
3853.27173	0.76685
3851.34317	0.76733
3849.41460	0.75890
3847.48604	0.75177
3845.55747	0.74888
3843.62891	0.75088
3841.70034	0.75459
3839.77178	0.75736
3837.84321	0.75934
3835.91465	0.75795
3833.98609	0.75453
3832.05752	0.75199
3830.12896	0.75018
3828.20039	0.74930
3826.27183	0.74902
3824.34326	0.74749
3822.41470	0.74820
3820.48613	0.75193
3818.55757	0.75114
3816.62901	0.75095
3814.70044	0.75144
3812.77188	0.74798
3810.84331	0.74388
3808.91475	0.74315
3806.98618	0.74620
3805.05762	0.74681
3803.12905	0.74751
3801.20049	0.75230
3799.27193	0.75139
3797.34336	0.74689
3795.41480	0.74393
3793.48623	0.74135
3791.55767	0.73942
3789.62910	0.73849
3787.70054	0.73828
3785.77197	0.73949
3783.84341	0.74000
3781.91485	0.73832
3779.98628	0.73802
3778.05772	0.73880
3776.12915	0.73676
3774.20059	0.73350
3772.27202	0.73227
3770.34346	0.73432
3768.41489	0.73616
3766.48633	0.73590
3764.55777	0.73468
3762.62920	0.73236
3760.70064	0.73192
3758.77207	0.73476
3756.84351	0.73528
3754.91494	0.73330
3752.98638	0.73480
3751.05781	0.74406
3749.12925	0.74781
3747.20069	0.74326
3745.27212	0.74184
3743.34356	0.74276
3741.41499	0.73967
3739.48643	0.73551
3737.55786	0.73446
3735.62930	0.73952
3733.70074	0.74366
3731.77217	0.74017
3729.84361	0.73483
3727.91504	0.73212
3725.98648	0.73267
3724.05791	0.73318
3722.12935	0.73168
3720.20078	0.73022
3718.27222	0.72915
3716.34366	0.72738
3714.41509	0.72644
3712.48653	0.73090
3710.55796	0.73757
3708.62940	0.73649
3706.70083	0.73201
3704.77227	0.72859
3702.84370	0.72859
3700.91514	0.73032
3698.98658	0.72978
3697.05801	0.72873
3695.12945	0.72832
3693.20088	0.72859
3691.27232	0.73231
3689.34375	0.74000
3687.41519	0.74245
3685.48662	0.73991
3683.55806	0.73767
3681.62950	0.73729
3679.70093	0.73842
3677.77237	0.74227
3675.84380	0.75268
3673.91524	0.75838
3671.98667	0.75722
3670.05811	0.76085
3668.12954	0.76354
3666.20098	0.76122
3664.27242	0.76027
3662.34385	0.76183
3660.41529	0.76385
3658.48672	0.76693
3656.55816	0.77330
3654.62959	0.77716
3652.70103	0.77688
3650.77246	0.78298
3648.84390	0.79994
3646.91534	0.80514
3644.98677	0.80228
3643.05821	0.80185
3641.12964	0.80512
3639.20108	0.80912
3637.27251	0.81201
3635.34395	0.81589
3633.41538	0.82126
3631.48682	0.82665
3629.55826	0.83715
3627.62969	0.84799
3625.70113	0.84930
3623.77256	0.84964
3621.84400	0.85277
3619.91543	0.85969
3617.98687	0.86709
3616.05830	0.87109
3614.12974	0.87525
3612.20118	0.87998
3610.27261	0.88426
3608.34405	0.88972
3606.41548	0.89393
3604.48692	0.89517
3602.55835	0.89745
3600.62979	0.90341
3598.70123	0.91053
3596.77266	0.91689
3594.84410	0.92305
3592.91553	0.92639
3590.98697	0.92643
3589.05840	0.93016
3587.12984	0.94212
3585.20127	0.95118
3583.27271	0.95428
3581.34415	0.95784
3579.41558	0.96378
3577.48702	0.96983
3575.55845	0.97508
3573.62989	0.97985
3571.70132	0.98370
3569.77276	0.98779
3567.84419	0.99655
3565.91563	1.00882
3563.98707	1.01469
3562.05850	1.01639
3560.12994	1.01946
3558.20137	1.02486
3556.27281	1.03098
3554.34424	1.03748
3552.41568	1.04396
3550.48711	1.04829
3548.55855	1.05231
3546.62999	1.05946
3544.70142	1.06672
3542.77286	1.06969
3540.84429	1.07161
3538.91573	1.07660
3536.98716	1.08455
3535.05860	1.09271
3533.13003	1.09899
3531.20147	1.10399
3529.27291	1.10914
3527.34434	1.11469
3525.41578	1.12116
3523.48721	1.12888
3521.55865	1.13542
3519.63008	1.13934
3517.70152	1.14284
3515.77295	1.14768
3513.84439	1.15415
3511.91583	1.16253
3509.98726	1.17193
3508.05870	1.17957
3506.13013	1.18596
3504.20157	1.19481
3502.27300	1.20401
3500.34444	1.20934
3498.41587	1.21246
3496.48731	1.21604
3494.55875	1.22142
3492.63018	1.22819
3490.70162	1.23537
3488.77305	1.24148
3486.84449	1.24513
3484.91592	1.24679
3482.98736	1.24882
3481.05879	1.25243
3479.13023	1.25569
3477.20167	1.25827
3475.27310	1.26135
3473.34454	1.26538
3471.41597	1.27015
3469.48741	1.27483
3467.55884	1.27941
3465.63028	1.28373
3463.70171	1.28783
3461.77315	1.29187
3459.84459	1.29477
3457.91602	1.29699
3455.98746	1.30039
3454.05889	1.30520
3452.13033	1.31041
3450.20176	1.31498
3448.27320	1.31737
3446.34464	1.31777
3444.41607	1.31932
3442.48751	1.32300
3440.55894	1.32537
3438.63038	1.32587
3436.70181	1.32918
3434.77325	1.33367
3432.84468	1.33426
3430.91612	1.33392
3428.98756	1.33617
3427.05899	1.33853
3425.13043	1.33903
3423.20186	1.33970
3421.27330	1.34133
3419.34473	1.34183
3417.41617	1.34148
3415.48760	1.34195
3413.55904	1.34253
3411.63048	1.34245
3409.70191	1.34387
3407.77335	1.34738
3405.84478	1.34902
3403.91622	1.34856
3401.98765	1.35021
3400.05909	1.35336
3398.13052	1.35568
3396.20196	1.35835
3394.27340	1.36172
3392.34483	1.36323
3390.41627	1.36082
3388.48770	1.35806
3386.55914	1.35984
3384.63057	1.36446
3382.70201	1.36826
3380.77344	1.37165
3378.84488	1.37546
3376.91632	1.37818
3374.98775	1.37788
3373.05919	1.37611
3371.13062	1.37637
3369.20206	1.37909
3367.27349	1.38327
3365.34493	1.38718
3363.41636	1.38871
3361.48780	1.38979
3359.55924	1.39267
3357.63067	1.39569
3355.70211	1.39905
3353.77354	1.40383
3351.84498	1.40732
3349.91641	1.40850
3347.98785	1.41054
3346.05928	1.41358
3344.13072	1.41482
3342.20216	1.41484
3340.27359	1.41550
3338.34503	1.41839
3336.41646	1.42435
3334.48790	1.42968
3332.55933	1.43320
3330.63077	1.43788
3328.70220	1.44110
3326.77364	1.43942
3324.84508	1.43664
3322.91651	1.43900
3320.98795	1.44644
3319.05938	1.45190
3317.13082	1.45304
3315.20225	1.45449
3313.27369	1.45776
3311.34513	1.46202
3309.41656	1.46648
3307.48800	1.46895
3305.55943	1.47038
3303.63087	1.47222
3301.70230	1.47140
3299.77374	1.46787
3297.84517	1.46622
3295.91661	1.46841
3293.98805	1.47303
3292.05948	1.47722
3290.13092	1.47804
3288.20235	1.47485
3286.27379	1.47066
3284.34522	1.46920
3282.41666	1.46980
3280.48809	1.46964
3278.55953	1.46897
3276.63097	1.46918
3274.70240	1.46887
3272.77384	1.46641
3270.84527	1.46336
3268.91671	1.45987
3266.98814	1.45587
3265.05958	1.45224
3263.13101	1.44691
3261.20245	1.44170
3259.27389	1.43899
3257.34532	1.43389
3255.41676	1.42551
3253.48819	1.41939
3251.55963	1.41635
3249.63106	1.41249
3247.70250	1.40747
3245.77393	1.40240
3243.84537	1.39511
3241.91681	1.38643
3239.98824	1.37964
3238.05968	1.37480
3236.13111	1.37053
3234.20255	1.36617
3232.27398	1.36238
3230.34542	1.35995
3228.41685	1.35802
3226.48829	1.35578
3224.55973	1.35319
3222.63116	1.34959
3220.70260	1.34527
3218.77403	1.34139
3216.84547	1.33807
3214.91690	1.33526
3212.98834	1.33273
3211.05977	1.33074
3209.13121	1.32973
3207.20265	1.32775
3205.27408	1.32315
3203.34552	1.31757
3201.41695	1.31283
3199.48839	1.30982
3197.55982	1.30885
3195.63126	1.30744
3193.70269	1.30308
3191.77413	1.29762
3189.84557	1.29402
3187.91700	1.29268
3185.98844	1.29114
3184.05987	1.28657
3182.13131	1.27998
3180.20274	1.27449
3178.27418	1.27090
3176.34562	1.26805
3174.41705	1.26555
3172.48849	1.26373
3170.55992	1.26141
3168.63136	1.25723
3166.70279	1.25200
3164.77423	1.24697
3162.84566	1.24295
3160.91710	1.24005
3158.98854	1.23705
3157.05997	1.23285
3155.13141	1.22828
3153.20284	1.22586
3151.27428	1.22623
3149.34571	1.22593
3147.41715	1.22197
3145.48858	1.21646
3143.56002	1.21340
3141.63146	1.21266
3139.70289	1.21096
3137.77433	1.20902
3135.84576	1.20981
3133.91720	1.21174
3131.98863	1.21272
3130.06007	1.21356
3128.13150	1.21389
3126.20294	1.21304
3124.27438	1.21187
3122.34581	1.21094
3120.41725	1.21046
3118.48868	1.21087
3116.56012	1.21244
3114.63155	1.21445
3112.70299	1.21541
3110.77442	1.21540
3108.84586	1.21544
3106.91730	1.21454
3104.98873	1.21226
3103.06017	1.21049
3101.13160	1.21032
3099.20304	1.21102
3097.27447	1.21140
3095.34591	1.21095
3093.41734	1.21011
3091.48878	1.20958
3089.56022	1.20916
3087.63165	1.20728
3085.70309	1.20415
3083.77452	1.20248
3081.84596	1.20292
3079.91739	1.20309
3077.98883	1.20175
3076.06026	1.19973
3074.13170	1.19772
3072.20314	1.19576
3070.27457	1.19356
3068.34601	1.19147
3066.41744	1.19018
3064.48888	1.18934
3062.56031	1.18766
3060.63175	1.18518
3058.70318	1.18297
3056.77462	1.18046
3054.84606	1.17668
3052.91749	1.17226
3050.98893	1.16845
3049.06036	1.16629
3047.13180	1.16502
3045.20323	1.16211
3043.27467	1.15720
3041.34610	1.15289
3039.41754	1.14937
3037.48898	1.14505
3035.56041	1.14118
3033.63185	1.13856
3031.70328	1.13594
3029.77472	1.13296
3027.84615	1.12966
3025.91759	1.12628
3023.98903	1.12332
3022.06046	1.12103
3020.13190	1.11939
3018.20333	1.11810
3016.27477	1.11679
3014.34620	1.11522
3012.41764	1.11403
3010.48907	1.11367
3008.56051	1.11315
3006.63195	1.11183
3004.70338	1.11042
3002.77482	1.10954
3000.84625	1.10915
2998.91769	1.10938
2996.98912	1.11127
2995.06056	1.11483
2993.13199	1.11823
2991.20343	1.12103
2989.27487	1.12447
2987.34630	1.12882
2985.41774	1.13389
2983.48917	1.13946
2981.56061	1.14556
2979.63204	1.15213
2977.70348	1.15810
2975.77491	1.16404
2973.84635	1.17183
2971.91779	1.17994
2969.98922	1.18651
2968.06066	1.19342
2966.13209	1.20214
2964.20353	1.21002
2962.27496	1.21386
2960.34640	1.21434
2958.41783	1.21316
2956.48927	1.21022
2954.56071	1.20581
2952.63214	1.20052
2950.70358	1.19538
2948.77501	1.19201
2946.84645	1.19119
2944.91788	1.19362
2942.98932	1.20008
2941.06075	1.20996
2939.13219	1.22081
2937.20363	1.22991
2935.27506	1.23727
2933.34650	1.24406
2931.41793	1.25048
2929.48937	1.25758
2927.56080	1.26509
2925.63224	1.27132
2923.70367	1.27596
2921.77511	1.27895
2919.84655	1.27950
2917.91798	1.27472
2915.98942	1.26184
2914.06085	1.24269
2912.13229	1.22162
2910.20372	1.20207
2908.27516	1.18609
2906.34659	1.17402
2904.41803	1.16487
2902.48947	1.15802
2900.56090	1.15337
2898.63234	1.15014
2896.70377	1.14702
2894.77521	1.14304
2892.84664	1.13840
2890.91808	1.13438
2888.98952	1.13177
2887.06095	1.12963
2885.13239	1.12755
2883.20382	1.12679
2881.27526	1.12726
2879.34669	1.12837
2877.41813	1.12966
2875.48956	1.12942
2873.56100	1.12718
2871.63244	1.12405
2869.70387	1.11997
2867.77531	1.11462
2865.84674	1.10906
2863.91818	1.10545
2861.98961	1.10555
2860.06105	1.10838
2858.13248	1.11212
2856.20392	1.11759
2854.27536	1.12596
2852.34679	1.13518
2850.41823	1.13843
2848.48966	1.12788
2846.56110	1.10435
2844.63253	1.07770
2842.70397	1.05566
2840.77540	1.03935
2838.84684	1.02729
2836.91828	1.01820
2834.98971	1.01110
2833.06115	1.00508
2831.13258	0.99956
2829.20402	0.99500
2827.27545	0.99181
2825.34689	0.98925
2823.41832	0.98598
2821.48976	0.98198
2819.56120	0.97858
2817.63263	0.97579
2815.70407	0.97279
2813.77550	0.96960
2811.84694	0.96662
2809.91837	0.96413
2807.98981	0.96177
2806.06124	0.95891
2804.13268	0.95573
2802.20412	0.95323
2800.27555	0.95154
2798.34699	0.94940
2796.41842	0.94617
2794.48986	0.94276
2792.56129	0.93977
2790.63273	0.93674
2788.70416	0.93362
2786.77560	0.93070
2784.84704	0.92792
2782.91847	0.92530
2780.98991	0.92319
2779.06134	0.92116
2777.13278	0.91844
2775.20421	0.91550
2773.27565	0.91301
2771.34708	0.91073
2769.41852	0.90859
2767.48996	0.90701
2765.56139	0.90586
2763.63283	0.90439
2761.70426	0.90245
2759.77570	0.90051
2757.84713	0.89890
2755.91857	0.89776
2753.99001	0.89673
2752.06144	0.89521
2750.13288	0.89331
2748.20431	0.89171
2746.27575	0.89038
2744.34718	0.88879
2742.41862	0.88709
2740.49005	0.88595
2738.56149	0.88510
2736.63293	0.88384
2734.70436	0.88224
2732.77580	0.88056
2730.84723	0.87856
2728.91867	0.87614
2726.99010	0.87380
2725.06154	0.87210
2723.13297	0.87090
2721.20441	0.86959
2719.27585	0.86766
2717.34728	0.86541
2715.41872	0.86343
2713.49015	0.86167
2711.56159	0.86003
2709.63302	0.85869
2707.70446	0.85761
2705.77589	0.85676
2703.84733	0.85594
2701.91877	0.85483
2699.99020	0.85360
2698.06164	0.85268
2696.13307	0.85190
2694.20451	0.85101
2692.27594	0.85031
2690.34738	0.85004
2688.41881	0.84975
2686.49025	0.84864
2684.56169	0.84672
2682.63312	0.84472
2680.70456	0.84299
2678.77599	0.84133
2676.84743	0.83944
2674.91886	0.83736
2672.99030	0.83518
2671.06173	0.83297
2669.13317	0.83108
2667.20461	0.82964
2665.27604	0.82796
2663.34748	0.82561
2661.41891	0.82333
2659.49035	0.82172
2657.56178	0.82045
2655.63322	0.81915
2653.70465	0.81764
2651.77609	0.81599
2649.84753	0.81445
2647.91896	0.81307
2645.99040	0.81205
2644.06183	0.81151
2642.13327	0.81107
2640.20470	0.81035
2638.27614	0.80956
2636.34757	0.80902
2634.41901	0.80863
2632.49045	0.80789
2630.56188	0.80676
2628.63332	0.80550
2626.70475	0.80413
2624.77619	0.80280
2622.84762	0.80165
2620.91906	0.80043
2618.99049	0.79917
2617.06193	0.79769
2615.13337	0.79543
2613.20480	0.79282
2611.27624	0.79084
2609.34767	0.78946
2607.41911	0.78792
2605.49054	0.78611
2603.56198	0.78436
2601.63342	0.78262
2599.70485	0.78080
2597.77629	0.77892
2595.84772	0.77726
2593.91916	0.77613
2591.99059	0.77520
2590.06203	0.77385
2588.13346	0.77222
2586.20490	0.77109
2584.27634	0.77041
2582.34777	0.76918
2580.41921	0.76748
2578.49064	0.76629
2576.56208	0.76537
2574.63351	0.76401
2572.70495	0.76249
2570.77638	0.76122
2568.84782	0.76013
2566.91926	0.75907
2564.99069	0.75797
2563.06213	0.75676
2561.13356	0.75544
2559.20500	0.75403
2557.27643	0.75271
2555.34787	0.75161
2553.41930	0.75068
2551.49074	0.74974
2549.56218	0.74855
2547.63361	0.74724
2545.70505	0.74619
2543.77648	0.74541
2541.84792	0.74472
2539.91935	0.74394
2537.99079	0.74269
2536.06222	0.74099
2534.13366	0.73940
2532.20510	0.73835
2530.27653	0.73757
2528.34797	0.73664
2526.41940	0.73563
2524.49084	0.73465
2522.56227	0.73370
2520.63371	0.73274
2518.70514	0.73178
2516.77658	0.73090
2514.84802	0.73001
2512.91945	0.72894
2510.99089	0.72784
2509.06232	0.72704
2507.13376	0.72657
2505.20519	0.72608
2503.27663	0.72531
2501.34806	0.72430
2499.41950	0.72330
2497.49094	0.72258
2495.56237	0.72188
2493.63381	0.72084
2491.70524	0.71957
2489.77668	0.71814
2487.84811	0.71646
2485.91955	0.71456
2483.99098	0.71255
2482.06242	0.71045
2480.13386	0.70836
2478.20529	0.70628
2476.27673	0.70402
2474.34816	0.70155
2472.41960	0.69914
2470.49103	0.69720
2468.56247	0.69571
2466.63391	0.69410
2464.70534	0.69227
2462.77678	0.69045
2460.84821	0.68866
2458.91965	0.68722
2456.99108	0.68645
2455.06252	0.68596
2453.13395	0.68552
2451.20539	0.68526
2449.27683	0.68501
2447.34826	0.68450
2445.41970	0.68374
2443.49113	0.68293
2441.56257	0.68210
2439.63400	0.68099
2437.70544	0.67968
2435.77687	0.67849
2433.84831	0.67732
2431.91975	0.67591
2429.99118	0.67429
2428.06262	0.67268
2426.13405	0.67128
2424.20549	0.67001
2422.27692	0.66861
2420.34836	0.66714
2418.41979	0.66595
2416.49123	0.66510
2414.56267	0.66430
2412.63410	0.66348
2410.70554	0.66266
2408.77697	0.66194
2406.84841	0.66141
2404.91984	0.66071
2402.99128	0.65972
2401.06271	0.65914
2399.13415	0.65920
2397.20559	0.65925
2395.27702	0.65900
2393.34846	0.65858
2391.41989	0.65808
2389.49133	0.65758
2387.56276	0.65707
2385.63420	0.65621
2383.70563	0.65488
2381.77707	0.65348
2379.84851	0.65226
2377.91994	0.65122
2375.99138	0.65024
2374.06281	0.64922
2372.13425	0.64816
2370.20568	0.64662
2368.27712	0.64358
2366.34855	0.64017
2364.41999	0.63937
2362.49143	0.64042
2360.56286	0.64140
2358.63430	0.64322
2356.70573	0.64552
2354.77717	0.64756
2352.84860	0.64889
2350.92004	0.64794
2348.99147	0.64502
2347.06291	0.64206
2345.13435	0.64075
2343.20578	0.64077
2341.27722	0.64100
2339.34865	0.64127
2337.42009	0.64088
2335.49152	0.64001
2333.56296	0.63943
2331.63440	0.63892
2329.70583	0.63818
2327.77727	0.63790
2325.84870	0.63813
2323.92014	0.63816
2321.99157	0.63783
2320.06301	0.63723
2318.13444	0.63671
2316.20588	0.63653
2314.27732	0.63649
2312.34875	0.63629
2310.42019	0.63570
2308.49162	0.63515
2306.56306	0.63517
2304.63449	0.63527
2302.70593	0.63508
2300.77736	0.63501
2298.84880	0.63508
2296.92024	0.63497
2294.99167	0.63461
2293.06311	0.63402
2291.13454	0.63321
2289.20598	0.63241
2287.27741	0.63161
2285.34885	0.63075
2283.42028	0.62990
2281.49172	0.62907
2279.56316	0.62815
2277.63459	0.62723
2275.70603	0.62652
2273.77746	0.62576
2271.84890	0.62472
2269.92033	0.62373
2267.99177	0.62296
2266.06320	0.62230
2264.13464	0.62170
2262.20608	0.62113
2260.27751	0.62064
2258.34895	0.62020
2256.42038	0.61973
2254.49182	0.61921
2252.56325	0.61873
2250.63469	0.61840
2248.70612	0.61833
2246.77756	0.61831
2244.84900	0.61827
2242.92043	0.61838
2240.99187	0.61875
2239.06330	0.61934
2237.13474	0.61988
2235.20617	0.62003
2233.27761	0.61986
2231.34904	0.61970
2229.42048	0.61957
2227.49192	0.61937
2225.56335	0.61911
2223.63479	0.61882
2221.70622	0.61839
2219.77766	0.61780
2217.84909	0.61707
2215.92053	0.61620
2213.99196	0.61531
2212.06340	0.61454
2210.13484	0.61388
2208.20627	0.61327
2206.27771	0.61270
2204.34914	0.61219
2202.42058	0.61194
2200.49201	0.61193
2198.56345	0.61195
2196.63488	0.61202
2194.70632	0.61211
2192.77776	0.61229
2190.84919	0.61276
2188.92063	0.61346
2186.99206	0.61423
2185.06350	0.61507
2183.13493	0.61579
2181.20637	0.61628
2179.27781	0.61672
2177.34924	0.61726
2175.42068	0.61782
2173.49211	0.61844
2171.56355	0.61915
2169.63498	0.61971
2167.70642	0.62005
2165.77785	0.62021
2163.84929	0.61997
2161.92073	0.61939
2159.99216	0.61890
2158.06360	0.61859
2156.13503	0.61827
2154.20647	0.61792
2152.27790	0.61760
2150.34934	0.61733
2148.42077	0.61717
2146.49221	0.61699
2144.56365	0.61657
2142.63508	0.61598
2140.70652	0.61544
2138.77795	0.61500
2136.84939	0.61480
2134.92082	0.61482
2132.99226	0.61466
2131.06369	0.61432
2129.13513	0.61410
2127.20657	0.61397
2125.27800	0.61372
2123.34944	0.61353
2121.42087	0.61363
2119.49231	0.61373
2117.56374	0.61367
2115.63518	0.61359
2113.70661	0.61361
2111.77805	0.61374
2109.84949	0.61385
2107.92092	0.61387
2105.99236	0.61404
2104.06379	0.61449
2102.13523	0.61481
2100.20666	0.61483
2098.27810	0.61469
2096.34953	0.61437
2094.42097	0.61394
2092.49241	0.61363
2090.56384	0.61339
2088.63528	0.61288
2086.70671	0.61220
2084.77815	0.61152
2082.84958	0.61090
2080.92102	0.61035
2078.99245	0.60965
2077.06389	0.60868
2075.13533	0.60769
2073.20676	0.60676
2071.27820	0.60582
2069.34963	0.60484
2067.42107	0.60389
2065.49250	0.60298
2063.56394	0.60213
2061.63537	0.60134
2059.70681	0.60059
2057.77825	0.59994
2055.84968	0.59938
2053.92112	0.59882
2051.99255	0.59842
2050.06399	0.59840
2048.13542	0.59866
2046.20686	0.59894
2044.27830	0.59916
2042.34973	0.59947
2040.42117	0.59981
2038.49260	0.59989
2036.56404	0.59988
2034.63547	0.60015
2032.70691	0.60056
2030.77834	0.60059
2028.84978	0.60022
2026.92122	0.59991
2024.99265	0.59952
2023.06409	0.59867
2021.13552	0.59756
2019.20696	0.59658
2017.27839	0.59561
2015.34983	0.59426
2013.42126	0.59270
2011.49270	0.59128
2009.56414	0.58999
2007.63557	0.58874
2005.70701	0.58755
2003.77844	0.58645
2001.84988	0.58557
1999.92131	0.58501
1997.99275	0.58461
1996.06418	0.58435
1994.13562	0.58462
1992.20706	0.58546
1990.27849	0.58595
1988.34993	0.58586
1986.42136	0.58567
1984.49280	0.58561
1982.56423	0.58588
1980.63567	0.58640
1978.70710	0.58687
1976.77854	0.58714
1974.84998	0.58709
1972.92141	0.58667
1970.99285	0.58605
1969.06428	0.58576
1967.13572	0.58572
1965.20715	0.58506
1963.27859	0.58380
1961.35002	0.58267
1959.42146	0.58167
1957.49290	0.58077
1955.56433	0.58016
1953.63577	0.57962
1951.70720	0.57902
1949.77864	0.57865
1947.85007	0.57860
1945.92151	0.57873
1943.99294	0.57928
1942.06438	0.57999
1940.13582	0.57978
1938.20725	0.57907
1936.27869	0.57866
1934.35012	0.57847
1932.42156	0.57835
1930.49299	0.57825
1928.56443	0.57804
1926.63586	0.57773
1924.70730	0.57788
1922.77874	0.57828
1920.85017	0.57786
1918.92161	0.57743
1916.99304	0.57743
1915.06448	0.57660
1913.13591	0.57546
1911.20735	0.57510
1909.27878	0.57528
1907.35022	0.57499
1905.42166	0.57419
1903.49309	0.57344
1901.56453	0.57288
1899.63596	0.57236
1897.70740	0.57217
1895.77883	0.57265
1893.85027	0.57305
1891.92171	0.57330
1889.99314	0.57443
1888.06458	0.57531
1886.13601	0.57501
1884.20745	0.57477
1882.27888	0.57482
1880.35032	0.57481
1878.42175	0.57475
1876.49319	0.57454
1874.56463	0.57404
1872.63606	0.57351
1870.70750	0.57392
1868.77893	0.57519
1866.85037	0.57437
1864.92180	0.57153
1862.99324	0.56915
1861.06467	0.56781
1859.13611	0.56695
1857.20755	0.56612
1855.27898	0.56534
1853.35042	0.56475
1851.42185	0.56439
1849.49329	0.56443
1847.56472	0.56485
1845.63616	0.56619
1843.70759	0.56800
1841.77903	0.56762
1839.85047	0.56631
1837.92190	0.56632
1835.99334	0.56705
1834.06477	0.56719
1832.13621	0.56774
1830.20764	0.57014
1828.27908	0.57187
1826.35051	0.57180
1824.42195	0.57195
1822.49339	0.57166
1820.56482	0.57070
1818.63626	0.57025
1816.70769	0.57032
1814.77913	0.57039
1812.85056	0.57089
1810.92200	0.57198
1808.99343	0.57225
1807.06487	0.57141
1805.13631	0.57069
1803.20774	0.57100
1801.27918	0.57268
1799.35061	0.57430
1797.42205	0.57470
1795.49348	0.57492
1793.56492	0.57698
1791.63635	0.58067
1789.70779	0.58148
1787.77923	0.58069
1785.85066	0.58147
1783.92210	0.58347
1781.99353	0.58561
1780.06497	0.58788
1778.13640	0.58928
1776.20784	0.58986
1774.27927	0.59193
1772.35071	0.59641
1770.42215	0.59850
1768.49358	0.59746
1766.56502	0.59625
1764.63645	0.59590
1762.70789	0.59779
1760.77932	0.60098
1758.85076	0.60299
1756.92220	0.60554
1754.99363	0.60835
1753.06507	0.61157
1751.13650	0.61913
1749.20794	0.63033
1747.27937	0.63840
1745.35081	0.64386
1743.42224	0.64948
1741.49368	0.65599
1739.56512	0.66267
1737.63655	0.66648
1735.70799	0.66969
1733.77942	0.67816
1731.85086	0.68407
1729.92229	0.68480
1727.99373	0.68541
1726.06516	0.68676
1724.13660	0.68948
1722.20804	0.69211
1720.27947	0.69437
1718.35091	0.70115
1716.42234	0.71318
1714.49378	0.71874
1712.56521	0.72124
1710.63665	0.72664
1708.70808	0.73614
1706.77952	0.75342
1704.85096	0.77771
1702.92239	0.79979
1700.99383	0.83228
1699.06526	0.88438
1697.13670	0.93084
1695.20813	0.97312
1693.27957	1.00243
1691.35100	1.02480
1689.42244	1.05243
1687.49388	1.07720
1685.56531	1.10220
1683.63675	1.14155
1681.70818	1.16526
1679.77962	1.17403
1677.85105	1.18244
1675.92249	1.19567
1673.99392	1.21164
1672.06536	1.22401
1670.13680	1.23790
1668.20823	1.25125
1666.27967	1.25607
1664.35110	1.26029
1662.42254	1.26838
1660.49397	1.27528
1658.56541	1.27929
1656.63684	1.28189
1654.70828	1.28613
1652.77972	1.29405
1650.85115	1.29463
1648.92259	1.29360
1646.99402	1.29640
1645.06546	1.29654
1643.13689	1.29255
1641.20833	1.28945
1639.27976	1.28795
1637.35120	1.28931
1635.42264	1.29228
1633.49407	1.28991
1631.56551	1.28585
1629.63694	1.28287
1627.70838	1.28067
1625.77981	1.27740
1623.85125	1.27249
1621.92269	1.26496
1619.99412	1.25615
1618.06556	1.24680
1616.13699	1.23341
1614.20843	1.21801
1612.27986	1.20334
1610.35130	1.18903
1608.42273	1.17607
1606.49417	1.16518
1604.56561	1.15572
1602.63704	1.14754
1600.70848	1.14139
1598.77991	1.13711
1596.85135	1.13425
1594.92278	1.13243
1592.99422	1.13125
1591.06565	1.13094
1589.13709	1.13209
1587.20853	1.13513
1585.27996	1.14019
1583.35140	1.14704
1581.42283	1.15396
1579.49427	1.16014
1577.56570	1.17003
1575.63714	1.18500
1573.70857	1.19253
1571.78001	1.19621
1569.85145	1.20411
1567.92288	1.21217
1565.99432	1.21738
1564.06575	1.22277
1562.13719	1.22653
1560.20862	1.23303
1558.28006	1.25097
1556.35149	1.25610
1554.42293	1.25418
1552.49437	1.25338
1550.56580	1.25458
1548.63724	1.25570
1546.70867	1.25509
1544.78011	1.25479
1542.85154	1.25574
1540.92298	1.25536
1538.99441	1.25093
1537.06585	1.24628
1535.13729	1.24333
1533.20872	1.24084
1531.28016	1.23583
1529.35159	1.23064
1527.42303	1.22852
1525.49446	1.22899
1523.56590	1.23024
1521.63733	1.23207
1519.70877	1.23113
1517.78021	1.22661
1515.85164	1.21985
1513.92308	1.21184
1511.99451	1.20327
1510.06595	1.19452
1508.13738	1.18384
1506.20882	1.16560
1504.28025	1.14897
1502.35169	1.13587
1500.42313	1.12372
1498.49456	1.11095
1496.56600	1.09487
1494.63743	1.07889
1492.70887	1.06681
1490.78030	1.05620
1488.85174	1.04364
1486.92317	1.03076
1484.99461	1.02054
1483.06605	1.01362
1481.13748	1.00960
1479.20892	1.00789
1477.28035	1.00945
1475.35179	1.01666
1473.42322	1.03096
1471.49466	1.04364
1469.56610	1.04762
1467.63753	1.04988
1465.70897	1.05536
1463.78040	1.06242
1461.85184	1.06646
1459.92327	1.07013
1457.99471	1.08020
1456.06614	1.09037
1454.13758	1.08921
1452.20902	1.08596
1450.28045	1.08411
1448.35189	1.08298
1446.42332	1.08042
1444.49476	1.07666
1442.56619	1.07318
1440.63763	1.06977
1438.70906	1.06625
1436.78050	1.06201
1434.85194	1.05521
1432.92337	1.04791
1430.99481	1.04188
1429.06624	1.03678
1427.13768	1.03246
1425.20911	1.02970
1423.28055	1.02850
1421.35198	1.02862
1419.42342	1.03128
1417.49486	1.03371
1415.56629	1.03273
1413.63773	1.03146
1411.70916	1.03148
1409.78060	1.03216
1407.85203	1.03306
1405.92347	1.03501
1403.99490	1.03724
1402.06634	1.03820
1400.13778	1.03944
1398.20921	1.04170
1396.28065	1.04332
1394.35208	1.04290
1392.42352	1.04065
1390.49495	1.03909
1388.56639	1.04059
1386.63782	1.04506
1384.70926	1.04929
1382.78070	1.05282
1380.85213	1.05619
1378.92357	1.05782
1376.99500	1.05673
1375.06644	1.05307
1373.13787	1.04675
1371.20931	1.03934
1369.28074	1.03111
1367.35218	1.02111
1365.42362	1.01092
1363.49505	1.00178
1361.56649	0.99356
1359.63792	0.98701
1357.70936	0.98260
1355.78079	0.97992
1353.85223	0.97826
1351.92366	0.97729
1349.99510	0.97720
1348.06654	0.97769
1346.13797	0.97817
1344.20941	0.97872
1342.28084	0.98014
1340.35228	0.98306
1338.42371	0.98618
1336.49515	0.98823
1334.56659	0.99079
1332.63802	0.99503
1330.70946	1.00025
1328.78089	1.00476
1326.85233	1.00760
1324.92376	1.00906
1322.99520	1.01011
1321.06663	1.01185
1319.13807	1.01422
1317.20951	1.01611
1315.28094	1.01732
1313.35238	1.01832
1311.42381	1.01929
1309.49525	1.02041
1307.56668	1.02142
1305.63812	1.02203
1303.70955	1.02261
1301.78099	1.02314
1299.85243	1.02309
1297.92386	1.02220
1295.99530	1.02105
1294.06673	1.02051
1292.13817	1.02058
1290.20960	1.02080
1288.28104	1.02090
1286.35247	1.02090
1284.42391	1.02066
1282.49535	1.02006
1280.56678	1.01931
1278.63822	1.01832
1276.70965	1.01702
1274.78109	1.01598
1272.85252	1.01552
1270.92396	1.01553
1268.99539	1.01583
1267.06683	1.01614
1265.13827	1.01618
1263.20970	1.01579
1261.28114	1.01458
1259.35257	1.01280
1257.42401	1.01137
1255.49544	1.01048
1253.56688	1.00985
1251.63831	1.00982
1249.70975	1.01069
1247.78119	1.01211
1245.85262	1.01363
1243.92406	1.01489
1241.99549	1.01576
1240.06693	1.01637
1238.13836	1.01644
1236.20980	1.01582
1234.28123	1.01470
1232.35267	1.01281
1230.42411	1.00967
1228.49554	1.00538
1226.56698	1.00019
1224.63841	0.99421
1222.70985	0.98754
1220.78128	0.98028
1218.85272	0.97252
1216.92415	0.96485
1214.99559	0.95803
1213.06703	0.95231
1211.13846	0.94804
1209.20990	0.94510
1207.28133	0.94174
1205.35277	0.93645
1203.42420	0.92921
1201.49564	0.92078
1199.56708	0.91227
1197.63851	0.90407
1195.70995	0.89599
1193.78138	0.88867
1191.85282	0.88313
1189.92425	0.87942
1187.99569	0.87723
1186.06712	0.87680
1184.13856	0.87818
1182.21000	0.88090
1180.28143	0.88504
1178.35287	0.89108
1176.42430	0.89865
1174.49574	0.90664
1172.56717	0.91470
1170.63861	0.92268
1168.71004	0.93050
1166.78148	0.93862
1164.85292	0.94705
1162.92435	0.95449
1160.99579	0.95897
1159.06722	0.95885
1157.13866	0.95379
1155.21009	0.94492
1153.28153	0.93358
1151.35296	0.92063
1149.42440	0.90701
1147.49584	0.89406
1145.56727	0.88308
1143.63871	0.87501
1141.71014	0.87061
1139.78158	0.87011
1137.85301	0.87298
1135.92445	0.87880
1133.99588	0.88743
1132.06732	0.89879
1130.13876	0.91269
1128.21019	0.92794
1126.28163	0.94272
1124.35306	0.95640
1122.42450	0.96836
1120.49593	0.97736
1118.56737	0.98370
1116.63880	0.98790
1114.71024	0.98946
1112.78168	0.98868
1110.85311	0.98626
1108.92455	0.98244
1106.99598	0.97767
1105.06742	0.97265
1103.13885	0.96780
1101.21029	0.96346
1099.28172	0.96032
1097.35316	0.95900
1095.42460	0.95974
1093.49603	0.96255
1091.56747	0.96744
1089.63890	0.97448
1087.71034	0.98355
1085.78177	0.99428
1083.85321	1.00569
1081.92464	1.01625
1079.99608	1.02496
1078.06752	1.03107
1076.13895	1.03398
1074.21039	1.03432
1072.28182	1.03260
1070.35326	1.02862
1068.42469	1.02362
1066.49613	1.01889
1064.56756	1.01413
1062.63900	1.00895
1060.71044	1.00326
1058.78187	0.99724
1056.85331	0.99116
1054.92474	0.98496
1052.99618	0.97893
1051.06761	0.97342
1049.13905	0.96831
1047.21049	0.96409
1045.28192	0.96125
1043.35336	0.95959
1041.42479	0.95899
1039.49623	0.95930
1037.56766	0.95982
1035.63910	0.95986
1033.71053	0.95896
1031.78197	0.95668
1029.85341	0.95306
1027.92484	0.94889
1025.99628	0.94427
1024.06771	0.93852
1022.13915	0.93223
1020.21058	0.92758
1018.28202	0.92569
1016.35345	0.92542
1014.42489	0.92440
1012.49633	0.92048
1010.56776	0.91318
1008.63920	0.90376
1006.71063	0.89354
1004.78207	0.88302
1002.85350	0.87259
1000.92494	0.86297
998.99637	0.85484
997.06781	0.84795
995.13925	0.84120
993.21068	0.83371
991.28212	0.82484
989.35355	0.81427
987.42499	0.80271
985.49642	0.79134
983.56786	0.78112
981.63929	0.77264
979.71073	0.76614
977.78217	0.76131
975.85360	0.75720
973.92504	0.75296
971.99647	0.74825
970.06791	0.74312
968.13934	0.73822
966.21078	0.73461
964.28221	0.73319
962.35365	0.73481
960.42509	0.74046
958.49652	0.74997
956.56796	0.76071
954.63939	0.76867
952.71083	0.77124
950.78226	0.76851
948.85370	0.76247
946.92513	0.75529
944.99657	0.74825
943.06801	0.74162
941.13944	0.73496
939.21088	0.72793
937.28231	0.72071
935.35375	0.71361
933.42518	0.70700
931.49662	0.70106
929.56805	0.69587
927.63949	0.69167
925.71093	0.68875
923.78236	0.68709
921.85380	0.68647
919.92523	0.68653
917.99667	0.68711
916.06810	0.68858
914.13954	0.69128
912.21098	0.69526
910.28241	0.70060
908.35385	0.70718
906.42528	0.71439
904.49672	0.72137
902.56815	0.72750
900.63959	0.73252
898.71102	0.73591
896.78246	0.73694
894.85390	0.73527
892.92533	0.73129
890.99677	0.72563
889.06820	0.71868
887.13964	0.71071
885.21107	0.70254
883.28251	0.69518
881.35394	0.68894
879.42538	0.68359
877.49682	0.67892
875.56825	0.67495
873.63969	0.67210
871.71112	0.67059
869.78256	0.67022
867.85399	0.67106
865.92543	0.67364
863.99686	0.67808
862.06830	0.68387
860.13974	0.69068
858.21117	0.69852
856.28261	0.70700
854.35404	0.71562
852.42548	0.72413
850.49691	0.73202
848.56835	0.73855
846.63978	0.74353
844.71122	0.74736
842.78266	0.75033
840.85409	0.75216
838.92553	0.75248
836.99696	0.75163
835.06840	0.75045
833.13983	0.74922
831.21127	0.74758
829.28270	0.74545
827.35414	0.74332
825.42558	0.74193
823.49701	0.74148
821.56845	0.74178
819.63988	0.74328
817.71132	0.74669
815.78275	0.75189
813.85419	0.75826
811.92562	0.76586
809.99706	0.77515
808.06850	0.78569
806.13993	0.79647
804.21137	0.80711
802.28280	0.81774
800.35424	0.82809
798.42567	0.83779
796.49711	0.84644
794.56854	0.85330
792.63998	0.85813
790.71142	0.86144
788.78285	0.86352
786.85429	0.86432
784.92572	0.86362
782.99716	0.86137
781.06859	0.85830
779.14003	0.85539
777.21147	0.85270
775.28290	0.84985
773.35434	0.84702
771.42577	0.84432
769.49721	0.84171
767.56864	0.84016
765.64008	0.84031
763.71151	0.84138
761.78295	0.84362
759.85439	0.84762
757.92582	0.85258
755.99726	0.85824
754.06869	0.86522
752.14013	0.87318
750.21156	0.88106
748.28300	0.88850
746.35443	0.89588
744.42587	0.90340
742.49731	0.91059
740.56874	0.91672
738.64018	0.92196
736.71161	0.92686
734.78305	0.93091
732.85448	0.93326
730.92592	0.93434
728.99735	0.93547
727.06879	0.93706
725.14023	0.93841
723.21166	0.93881
721.28310	0.93761
719.35453	0.93487
717.42597	0.93208
715.49740	0.93008
713.56884	0.92793
711.64027	0.92508
709.71171	0.92295
707.78315	0.92258
705.85458	0.92308
703.92602	0.92363
701.99745	0.92453
700.06889	0.92626
698.14032	0.92910
696.21176	0.93269
694.28319	0.93627
692.35463	0.93991
690.42607	0.94429
688.49750	0.94939
686.56894	0.95424
684.64037	0.95853
682.71181	0.96305
680.78324	0.96769
678.85468	0.97183
676.92611	0.97489
674.99755	0.97606
673.06899	0.97538
671.14042	0.97375
669.21186	0.97212
667.28329	0.97028
665.35473	0.96797
663.42616	0.96545
661.49760	0.96215
659.56903	0.95778
657.64047	0.95221
655.71191	0.94659
653.78334	0.94364
651.85478	0.94320
649.92621	0.94289
647.99765	0.94212
646.06908	0.94118
644.14052	0.94097
642.21195	0.94303
640.28339	0.94713
638.35483	0.95228
636.42626	0.95875
634.49770	0.96557
632.56913	0.97097
630.64057	0.97601
628.71200	0.98214
626.78344	0.98852
624.85488	0.99414
622.92631	0.99928
620.99775	1.00408
619.06918	1.00740
617.14062	1.00841
615.21205	1.00872
613.28349	1.00934
611.35492	1.00805
609.42636	1.00356
607.49780	0.99745
605.56923	0.99093
603.64067	0.98489
601.71210	0.98066
599.78354	0.97769
