3997.91406	1.04118
3995.98550	1.04123
3994.05693	1.04134
3992.12837	1.04094
3990.19980	1.04002
3988.27124	1.03879
3986.34268	1.03824
3984.41411	1.03828
3982.48555	1.03762
3980.55698	1.03701
3978.62842	1.03731
3976.69985	1.03775
3974.77129	1.03742
3972.84272	1.03515
3970.91416	1.03203
3968.98560	1.03115
3967.05703	1.03248
3965.12847	1.03376
3963.19990	1.03492
3961.27134	1.03661
3959.34277	1.03700
3957.41421	1.03523
3955.48564	1.03347
3953.55708	1.03263
3951.62852	1.03200
3949.69995	1.03203
3947.77139	1.03137
3945.84282	1.02846
3943.91426	1.02656
3941.98569	1.02734
3940.05713	1.02752
3938.12856	1.02583
3936.20000	1.02351
3934.27144	1.02316
3932.34287	1.02638
3930.41431	1.02885
3928.48574	1.02792
3926.55718	1.02683
3924.62861	1.02665
3922.70005	1.02569
3920.77148	1.02384
3918.84292	1.02195
3916.91436	1.02045
3914.98579	1.02008
3913.05723	1.02106
3911.12866	1.02195
3909.20010	1.02100
3907.27153	1.01957
3905.34297	1.02166
3903.41440	1.02663
3901.48584	1.02730
3899.55728	1.02470
3897.62871	1.02257
3895.70015	1.02014
3893.77158	1.01772
3891.84302	1.01653
3889.91445	1.01531
3887.98589	1.01480
3886.05733	1.01686
3884.12876	1.01736
3882.20020	1.01545
3880.27163	1.01469
3878.34307	1.01297
3876.41450	1.01142
3874.48594	1.01184
3872.55737	1.01189
3870.62881	1.01290
3868.70025	1.01486
3866.77168	1.01494
3864.84312	1.01513
3862.91455	1.01388
3860.98599	1.01108
3859.05742	1.01040
3857.12886	1.01214
3855.20029	1.01590
3853.27173	1.01993
3851.34317	1.01799
3849.41460	1.01391
3847.48604	1.01157
3845.55747	1.01238
3843.62891	1.01471
3841.70034	1.01651
3839.77178	1.02011
3837.84321	1.02270
3835.91465	1.01861
3833.98609	1.01389
3832.05752	1.01255
3830.12896	1.01169
3828.20039	1.00949
3826.27183	1.00615
3824.34326	1.00204
3822.41470	1.00146
3820.48613	1.00664
3818.55757	1.00959
3816.62901	1.00982
3814.70044	1.00738
3812.77188	1.00325
3810.84331	1.00024
3808.91475	0.99992
3806.98618	1.00187
3805.05762	1.00159
3803.12905	1.00158
3801.20049	1.00457
3799.27193	1.00283
3797.34336	0.99895
3795.41480	0.99798
3793.48623	0.99758
3791.55767	0.99605
3789.62910	0.99397
3787.70054	0.99235
3785.77197	0.99247
3783.84341	0.99334
3781.91485	0.99369
3779.98628	0.99492
3778.05772	0.99623
3776.12915	0.99580
3774.20059	0.99493
3772.27202	0.99470
3770.34346	0.99444
3768.41489	0.99313
3766.48633	0.99212
3764.55777	0.99139
3762.62920	0.98985
3760.70064	0.98985
3758.77207	0.99269
3756.84351	0.99390
3754.91494	0.99302
3752.98638	0.99432
3751.05781	0.99973
3749.12925	1.00099
3747.20069	0.99771
3745.27212	0.99559
3743.34356	0.99422
3741.41499	0.99135
3739.48643	0.98877
3737.55786	0.99010
3735.62930	0.99691
3733.70074	0.99961
3731.77217	0.99557
3729.84361	0.99199
3727.91504	0.99044
3725.98648	0.98973
3724.05791	0.98873
3722.12935	0.98717
3720.20078	0.98607
3718.27222	0.98608
3716.34366	0.98589
3714.41509	0.98656
3712.48653	0.99254
3710.55796	0.99900
3708.62940	0.99611
3706.70083	0.99116
3704.77227	0.98916
3702.84370	0.98980
3700.91514	0.99004
3698.98658	0.98883
3697.05801	0.98789
3695.12945	0.98737
3693.20088	0.98721
3691.27232	0.99004
3689.34375	0.99771
3687.41519	1.00070
3685.48662	0.99761
3683.55806	0.99440
3681.62950	0.99315
3679.70093	0.99350
3677.77237	0.99575
3675.84380	1.00263
3673.91524	1.00774
3671.98667	1.00868
3670.05811	1.01154
3668.12954	1.01234
3666.20098	1.01053
3664.27242	1.01085
3662.34385	1.01342
3660.41529	1.01571
3658.48672	1.01826
3656.55816	1.02415
3654.62959	1.02904
3652.70103	1.03009
3650.77246	1.03483
3648.84390	1.04710
3646.91534	1.05097
3644.98677	1.04944
3643.05821	1.04966
3641.12964	1.05149
3639.20108	1.05396
3637.27251	1.05834
3635.34395	1.06395
3633.41538	1.06709
3631.48682	1.06858
3629.55826	1.07738
3627.62969	1.08997
3625.70113	1.09208
3623.77256	1.09138
3621.84400	1.09392
3619.91543	1.09991
3617.98687	1.10499
3616.05830	1.10797
3614.12974	1.11170
3612.20118	1.11517
3610.27261	1.11836
3608.34405	1.12516
3606.41548	1.13211
3604.48692	1.13481
3602.55835	1.13749
3600.62979	1.14163
3598.70123	1.14541
3596.77266	1.15195
3594.84410	1.16135
3592.91553	1.16693
3590.98697	1.16921
3589.05840	1.17500
3587.12984	1.18506
3585.20127	1.19117
3583.27271	1.19348
3581.34415	1.19596
3579.41558	1.19996
3577.48702	1.20544
3575.55845	1.21172
3573.62989	1.21700
3571.70132	1.22009
3569.77276	1.22300
3567.84419	1.23093
3565.91563	1.24318
3563.98707	1.25001
3562.05850	1.25218
3560.12994	1.25363
3558.20137	1.25635
3556.27281	1.26072
3554.34424	1.26653
3552.41568	1.27456
3550.48711	1.28396
3548.55855	1.29136
3546.62999	1.29672
3544.70142	1.30257
3542.77286	1.30663
3540.84429	1.30828
3538.91573	1.31190
3536.98716	1.31895
3535.05860	1.32574
3533.13003	1.33053
3531.20147	1.33594
3529.27291	1.34278
3527.34434	1.35062
3525.41578	1.35930
3523.48721	1.36698
3521.55865	1.37276
3519.63008	1.37816
3517.70152	1.38531
3515.77295	1.39365
3513.84439	1.40038
3511.91583	1.40616
3509.98726	1.41413
3508.05870	1.42322
3506.13013	1.43176
3504.20157	1.44156
3502.27300	1.44978
3500.34444	1.45549
3498.41587	1.46497
3496.48731	1.47937
3494.55875	1.49308
3492.63018	1.50147
3490.70162	1.50500
3488.77305	1.50719
3486.84449	1.51305
3484.91592	1.52150
3482.98736	1.52691
3481.05879	1.53145
3479.13023	1.53629
3477.20167	1.53665
3475.27310	1.53475
3473.34454	1.53738
3471.41597	1.54481
3469.48741	1.55131
3467.55884	1.55541
3465.63028	1.55963
3463.70171	1.56231
3461.77315	1.56314
3459.84459	1.56454
3457.91602	1.56653
3455.98746	1.57090
3454.05889	1.57644
3452.13033	1.57839
3450.20176	1.57940
3448.27320	1.58336
3446.34464	1.58800
3444.41607	1.59131
3442.48751	1.59466
3440.55894	1.59960
3438.63038	1.60379
3436.70181	1.60356
3434.77325	1.60250
3432.84468	1.60510
3430.91612	1.60675
3428.98756	1.60291
3427.05899	1.59899
3425.13043	1.60114
3423.20186	1.60661
3421.27330	1.61164
3419.34473	1.61573
3417.41617	1.61538
3415.48760	1.61003
3413.55904	1.60490
3411.63048	1.60130
3409.70191	1.59690
3407.77335	1.59499
3405.84478	1.59837
3403.91622	1.60406
3401.98765	1.61036
3400.05909	1.61274
3398.13052	1.60831
3396.20196	1.60552
3394.27340	1.60839
3392.34483	1.61092
3390.41627	1.61024
3388.48770	1.60807
3386.55914	1.60643
3384.63057	1.60725
3382.70201	1.60884
3380.77344	1.60864
3378.84488	1.60951
3376.91632	1.61440
3374.98775	1.61890
3373.05919	1.61816
3371.13062	1.61634
3369.20206	1.61741
3367.27349	1.61971
3365.34493	1.62122
3363.41636	1.62063
3361.48780	1.62070
3359.55924	1.62261
3357.63067	1.62273
3355.70211	1.62215
3353.77354	1.62451
3351.84498	1.62956
3349.91641	1.63377
3347.98785	1.63602
3346.05928	1.64011
3344.13072	1.64625
3342.20216	1.64939
3340.27359	1.64866
3338.34503	1.64946
3336.41646	1.65514
3334.48790	1.66150
3332.55933	1.66249
3330.63077	1.65931
3328.70220	1.65853
3326.77364	1.66246
3324.84508	1.66703
3322.91651	1.66975
3320.98795	1.67400
3319.05938	1.68110
3317.13082	1.68465
3315.20225	1.68385
3313.27369	1.68728
3311.34513	1.69370
3309.41656	1.69471
3307.48800	1.69269
3305.55943	1.69471
3303.63087	1.70174
3301.70230	1.71014
3299.77374	1.71642
3297.84517	1.72013
3295.91661	1.72242
3293.98805	1.72487
3292.05948	1.72808
3290.13092	1.73103
3288.20235	1.73246
3286.27379	1.73153
3284.34522	1.72973
3282.41666	1.72847
3280.48809	1.72607
3278.55953	1.72294
3276.63097	1.72146
3274.70240	1.72067
3272.77384	1.71812
3270.84527	1.71417
3268.91671	1.71331
3266.98814	1.71447
3265.05958	1.70883
3263.13101	1.69790
3261.20245	1.69026
3259.27389	1.68425
3257.34532	1.67516
3255.41676	1.66593
3253.48819	1.66118
3251.55963	1.65813
3249.63106	1.64963
3247.70250	1.63679
3245.77393	1.62777
3243.84537	1.62435
3241.91681	1.62067
3239.98824	1.61250
3238.05968	1.60251
3236.13111	1.59511
3234.20255	1.58858
3232.27398	1.58044
3230.34542	1.57271
3228.41685	1.56763
3226.48829	1.56481
3224.55973	1.56010
3222.63116	1.55191
3220.70260	1.54494
3218.77403	1.54178
3216.84547	1.54020
3214.91690	1.53612
3212.98834	1.52919
3211.05977	1.52477
3209.13121	1.52308
3207.20265	1.51846
3205.27408	1.51162
3203.34552	1.50671
3201.41695	1.50227
3199.48839	1.49604
3197.55982	1.48875
3195.63126	1.48165
3193.70269	1.47734
3191.77413	1.47578
3189.84557	1.47195
3187.91700	1.46421
3185.98844	1.45689
3184.05987	1.45345
3182.13131	1.45339
3180.20274	1.45246
3178.27418	1.44649
3176.34562	1.43818
3174.41705	1.43218
3172.48849	1.42860
3170.55992	1.42588
3168.63136	1.42216
3166.70279	1.41750
3164.77423	1.41310
3162.84566	1.40770
3160.91710	1.40170
3158.98854	1.39860
3157.05997	1.39758
3155.13141	1.39370
3153.20284	1.38703
3151.27428	1.38148
3149.34571	1.37893
3147.41715	1.37925
3145.48858	1.38007
3143.56002	1.37820
3141.63146	1.37312
3139.70289	1.36772
3137.77433	1.36467
3135.84576	1.36328
3133.91720	1.36219
3131.98863	1.36161
3130.06007	1.36203
3128.13150	1.36287
3126.20294	1.36298
3124.27438	1.36209
3122.34581	1.36101
3120.41725	1.36088
3118.48868	1.36143
3116.56012	1.36210
3114.63155	1.36292
3112.70299	1.36223
3110.77442	1.35933
3108.84586	1.35678
3106.91730	1.35584
3104.98873	1.35579
3103.06017	1.35707
3101.13160	1.35909
3099.20304	1.35900
3097.27447	1.35653
3095.34591	1.35344
3093.41734	1.34969
3091.48878	1.34580
3089.56022	1.34339
3087.63165	1.34218
3085.70309	1.34052
3083.77452	1.33787
3081.84596	1.33389
3079.91739	1.32829
3077.98883	1.32360
3076.06026	1.32241
3074.13170	1.32217
3072.20314	1.31939
3070.27457	1.31562
3068.34601	1.31297
3066.41744	1.31076
3064.48888	1.30844
3062.56031	1.30536
3060.63175	1.30110
3058.70318	1.29645
3056.77462	1.29178
3054.84606	1.28757
3052.91749	1.28380
3050.98893	1.27933
3049.06036	1.27380
3047.13180	1.26781
3045.20323	1.26314
3043.27467	1.26101
3041.34610	1.25967
3039.41754	1.25740
3037.48898	1.25433
3035.56041	1.25100
3033.63185	1.24917
3031.70328	1.24845
3029.77472	1.24580
3027.84615	1.24177
3025.91759	1.23802
3023.98903	1.23486
3022.06046	1.23313
3020.13190	1.23232
3018.20333	1.23142
3016.27477	1.23041
3014.34620	1.22918
3012.41764	1.22766
3010.48907	1.22597
3008.56051	1.22398
3006.63195	1.22101
3004.70338	1.21789
3002.77482	1.21674
3000.84625	1.21725
2998.91769	1.21819
2996.98912	1.21937
2995.06056	1.22062
2993.13199	1.22287
2991.20343	1.22690
2989.27487	1.23145
2987.34630	1.23573
2985.41774	1.23980
2983.48917	1.24328
2981.56061	1.24686
2979.63204	1.25212
2977.70348	1.25880
2975.77491	1.26585
2973.84635	1.27347
2971.91779	1.28066
2969.98922	1.28539
2968.06066	1.28937
2966.13209	1.29497
2964.20353	1.29981
2962.27496	1.30217
2960.34640	1.30330
2958.41783	1.30220
2956.48927	1.29777
2954.56071	1.29139
2952.63214	1.28376
2950.70358	1.27602
2948.77501	1.27188
2946.84645	1.27313
2944.91788	1.27734
2942.98932	1.28299
2941.06075	1.29091
2939.13219	1.29998
2937.20363	1.30811
2935.27506	1.31584
2933.34650	1.32496
2931.41793	1.33514
2929.48937	1.34395
2927.56080	1.35048
2925.63224	1.35606
2923.70367	1.36069
2921.77511	1.36389
2919.84655	1.36498
2917.91798	1.36037
2915.98942	1.34787
2914.06085	1.33000
2912.13229	1.31062
2910.20372	1.29297
2908.27516	1.27873
2906.34659	1.26860
2904.41803	1.26254
2902.48947	1.25878
2900.56090	1.25537
2898.63234	1.25211
2896.70377	1.24982
2894.77521	1.24857
2892.84664	1.24706
2890.91808	1.24395
2888.98952	1.24019
2887.06095	1.23781
2885.13239	1.23666
2883.20382	1.23595
2881.27526	1.23594
2879.34669	1.23619
2877.41813	1.23601
2875.48956	1.23507
2873.56100	1.23245
2871.63244	1.22752
2869.70387	1.22101
2867.77531	1.21429
2865.84674	1.20848
2863.91818	1.20422
2861.98961	1.20228
2860.06105	1.20312
2858.13248	1.20651
2856.20392	1.21192
2854.27536	1.21858
2852.34679	1.22481
2850.41823	1.22604
2848.48966	1.21579
2846.56110	1.19454
2844.63253	1.17140
2842.70397	1.15271
2840.77540	1.13843
2838.84684	1.12733
2836.91828	1.11868
2834.98971	1.11184
2833.06115	1.10621
2831.13258	1.10134
2829.20402	1.09702
2827.27545	1.09277
2825.34689	1.08860
2823.41832	1.08495
2821.48976	1.08162
2819.56120	1.07861
2817.63263	1.07593
2815.70407	1.07300
2813.77550	1.07012
2811.84694	1.06744
2809.91837	1.06394
2807.98981	1.05992
2806.06124	1.05729
2804.13268	1.05617
2802.20412	1.05450
2800.27555	1.05183
2798.34699	1.04971
2796.41842	1.04807
2794.48986	1.04584
2792.56129	1.04316
2790.63273	1.04084
2788.70416	1.03930
2786.77560	1.03805
2784.84704	1.03644
2782.91847	1.03444
2780.98991	1.03246
2779.06134	1.03137
2777.13278	1.03125
2775.20421	1.03100
2773.27565	1.02984
2771.34708	1.02783
2769.41852	1.02565
2767.48996	1.02418
2765.56139	1.02315
2763.63283	1.02181
2761.70426	1.02036
2759.77570	1.01915
2757.84713	1.01829
2755.91857	1.01752
2753.99001	1.01592
2752.06144	1.01372
2750.13288	1.01245
2748.20431	1.01213
2746.27575	1.01157
2744.34718	1.01069
2742.41862	1.01009
2740.49005	1.00975
2738.56149	1.00914
2736.63293	1.00821
2734.70436	1.00710
2732.77580	1.00557
2730.84723	1.00393
2728.91867	1.00288
2726.99010	1.00213
2725.06154	1.00132
2723.13297	1.00080
2721.20441	1.00061
2719.27585	1.00041
2717.34728	0.99954
2715.41872	0.99769
2713.49015	0.99557
2711.56159	0.99355
2709.63302	0.99157
2707.70446	0.98995
2705.77589	0.98828
2703.84733	0.98614
2701.91877	0.98462
2699.99020	0.98403
2698.06164	0.98302
2696.13307	0.98142
2694.20451	0.97977
2692.27594	0.97797
2690.34738	0.97628
2688.41881	0.97487
2686.49025	0.97357
2684.56169	0.97236
2682.63312	0.97092
2680.70456	0.96951
2678.77599	0.96863
2676.84743	0.96776
2674.91886	0.96664
2672.99030	0.96535
2671.06173	0.96380
2669.13317	0.96244
2667.20461	0.96152
2665.27604	0.96073
2663.34748	0.96004
2661.41891	0.95963
2659.49035	0.95966
2657.56178	0.96020
2655.63322	0.96087
2653.70465	0.96094
2651.77609	0.96030
2649.84753	0.95938
2647.91896	0.95839
2645.99040	0.95783
2644.06183	0.95809
2642.13327	0.95813
2640.20470	0.95712
2638.27614	0.95619
2636.34757	0.95598
2634.41901	0.95525
2632.49045	0.95364
2630.56188	0.95218
2628.63332	0.95142
2626.70475	0.95120
2624.77619	0.95106
2622.84762	0.95033
2620.91906	0.94902
2618.99049	0.94803
2617.06193	0.94743
2615.13337	0.94684
2613.20480	0.94671
2611.27624	0.94685
2609.34767	0.94623
2607.41911	0.94513
2605.49054	0.94441
2603.56198	0.94395
2601.63342	0.94336
2599.70485	0.94272
2597.77629	0.94185
2595.84772	0.94075
2593.91916	0.94000
2591.99059	0.94006
2590.06203	0.94066
2588.13346	0.94092
2586.20490	0.94042
2584.27634	0.93980
2582.34777	0.93939
2580.41921	0.93881
2578.49064	0.93803
2576.56208	0.93754
2574.63351	0.93750
2572.70495	0.93724
2570.77638	0.93645
2568.84782	0.93556
2566.91926	0.93466
2564.99069	0.93392
2563.06213	0.93327
2561.13356	0.93197
2559.20500	0.93002
2557.27643	0.92830
2555.34787	0.92708
2553.41930	0.92579
2551.49074	0.92432
2549.56218	0.92287
2547.63361	0.92170
2545.70505	0.92122
2543.77648	0.92092
2541.84792	0.92013
2539.91935	0.91937
2537.99079	0.91913
2536.06222	0.91909
2534.13366	0.91901
2532.20510	0.91884
2530.27653	0.91849
2528.34797	0.91793
2526.41940	0.91734
2524.49084	0.91698
2522.56227	0.91700
2520.63371	0.91719
2518.70514	0.91729
2516.77658	0.91748
2514.84802	0.91782
2512.91945	0.91792
2510.99089	0.91784
2509.06232	0.91816
2507.13376	0.91856
2505.20519	0.91837
2503.27663	0.91790
2501.34806	0.91738
2499.41950	0.91651
2497.49094	0.91532
2495.56237	0.91417
2493.63381	0.91311
2491.70524	0.91194
2489.77668	0.91081
2487.84811	0.90974
2485.91955	0.90847
2483.99098	0.90713
2482.06242	0.90596
2480.13386	0.90508
2478.20529	0.90451
2476.27673	0.90376
2474.34816	0.90257
2472.41960	0.90150
2470.49103	0.90086
2468.56247	0.90013
2466.63391	0.89908
2464.70534	0.89822
2462.77678	0.89762
2460.84821	0.89722
2458.91965	0.89727
2456.99108	0.89734
2455.06252	0.89693
2453.13395	0.89651
2451.20539	0.89632
2449.27683	0.89611
2447.34826	0.89594
2445.41970	0.89584
2443.49113	0.89571
2441.56257	0.89544
2439.63400	0.89512
2437.70544	0.89500
2435.77687	0.89493
2433.84831	0.89450
2431.91975	0.89384
2429.99118	0.89337
2428.06262	0.89331
2426.13405	0.89331
2424.20549	0.89274
2422.27692	0.89153
2420.34836	0.89026
2418.41979	0.88931
2416.49123	0.88849
2414.56267	0.88779
2412.63410	0.88730
2410.70554	0.88663
2408.77697	0.88558
2406.84841	0.88458
2404.91984	0.88389
2402.99128	0.88348
2401.06271	0.88323
2399.13415	0.88280
2397.20559	0.88228
2395.27702	0.88203
2393.34846	0.88181
2391.41989	0.88140
2389.49133	0.88086
2387.56276	0.88027
2385.63420	0.87944
2383.70563	0.87840
2381.77707	0.87769
2379.84851	0.87721
2377.91994	0.87640
2375.99138	0.87537
2374.06281	0.87418
2372.13425	0.87241
2370.20568	0.87036
2368.27712	0.86840
2366.34855	0.86628
2364.41999	0.86502
2362.49143	0.86524
2360.56286	0.86636
2358.63430	0.86812
2356.70573	0.86809
2354.77717	0.86702
2352.84860	0.86775
2350.92004	0.86883
2348.99147	0.86868
2347.06291	0.86718
2345.13435	0.86437
2343.20578	0.86185
2341.27722	0.86158
2339.34865	0.86312
2337.42009	0.86521
2335.49152	0.86677
2333.56296	0.86732
2331.63440	0.86658
2329.70583	0.86483
2327.77727	0.86343
2325.84870	0.86329
2323.92014	0.86409
2321.99157	0.86456
2320.06301	0.86424
2318.13444	0.86405
2316.20588	0.86429
2314.27732	0.86448
2312.34875	0.86446
2310.42019	0.86417
2308.49162	0.86358
2306.56306	0.86308
2304.63449	0.86324
2302.70593	0.86395
2300.77736	0.86441
2298.84880	0.86409
2296.92024	0.86334
2294.99167	0.86291
2293.06311	0.86297
2291.13454	0.86318
2289.20598	0.86319
2287.27741	0.86297
2285.34885	0.86271
2283.42028	0.86242
2281.49172	0.86231
2279.56316	0.86246
2277.63459	0.86252
2275.70603	0.86237
2273.77746	0.86196
2271.84890	0.86128
2269.92033	0.86082
2267.99177	0.86098
2266.06320	0.86125
2264.13464	0.86106
2262.20608	0.86059
2260.27751	0.86014
2258.34895	0.85956
2256.42038	0.85884
2254.49182	0.85832
2252.56325	0.85777
2250.63469	0.85704
2248.70612	0.85646
2246.77756	0.85609
2244.84900	0.85569
2242.92043	0.85535
2240.99187	0.85532
2239.06330	0.85526
2237.13474	0.85460
2235.20617	0.85348
2233.27761	0.85261
2231.34904	0.85238
2229.42048	0.85266
2227.49192	0.85312
2225.56335	0.85338
2223.63479	0.85320
2221.70622	0.85253
2219.77766	0.85188
2217.84909	0.85185
2215.92053	0.85227
2213.99196	0.85258
2212.06340	0.85258
2210.13484	0.85257
2208.20627	0.85262
2206.27771	0.85253
2204.34914	0.85224
2202.42058	0.85189
2200.49201	0.85179
2198.56345	0.85200
2196.63488	0.85215
2194.70632	0.85218
2192.77776	0.85216
2190.84919	0.85173
2188.92063	0.85067
2186.99206	0.84976
2185.06350	0.84958
2183.13493	0.84962
2181.20637	0.84948
2179.27781	0.84912
2177.34924	0.84846
2175.42068	0.84781
2173.49211	0.84758
2171.56355	0.84745
2169.63498	0.84720
2167.70642	0.84701
2165.77785	0.84675
2163.84929	0.84625
2161.92073	0.84560
2159.99216	0.84490
2158.06360	0.84472
2156.13503	0.84539
2154.20647	0.84581
2152.27790	0.84534
2150.34934	0.84487
2148.42077	0.84503
2146.49221	0.84545
2144.56365	0.84560
2142.63508	0.84560
2140.70652	0.84603
2138.77795	0.84649
2136.84939	0.84643
2134.92082	0.84637
2132.99226	0.84674
2131.06369	0.84701
2129.13513	0.84677
2127.20657	0.84647
2125.27800	0.84660
2123.34944	0.84697
2121.42087	0.84726
2119.49231	0.84755
2117.56374	0.84779
2115.63518	0.84760
2113.70661	0.84682
2111.77805	0.84597
2109.84949	0.84555
2107.92092	0.84533
2105.99236	0.84481
2104.06379	0.84418
2102.13523	0.84363
2100.20666	0.84287
2098.27810	0.84193
2096.34953	0.84101
2094.42097	0.84015
2092.49241	0.83960
2090.56384	0.83920
2088.63528	0.83842
2086.70671	0.83727
2084.77815	0.83623
2082.84958	0.83565
2080.92102	0.83553
2078.99245	0.83544
2077.06389	0.83507
2075.13533	0.83451
2073.20676	0.83387
2071.27820	0.83313
2069.34963	0.83251
2067.42107	0.83232
2065.49250	0.83243
2063.56394	0.83223
2061.63537	0.83155
2059.70681	0.83083
2057.77825	0.83015
2055.84968	0.82928
2053.92112	0.82854
2051.99255	0.82828
2050.06399	0.82809
2048.13542	0.82740
2046.20686	0.82649
2044.27830	0.82590
2042.34973	0.82555
2040.42117	0.82510
2038.49260	0.82459
2036.56404	0.82415
2034.63547	0.82367
2032.70691	0.82299
2030.77834	0.82222
2028.84978	0.82180
2026.92122	0.82186
2024.99265	0.82188
2023.06409	0.82146
2021.13552	0.82088
2019.20696	0.82060
2017.27839	0.82046
2015.34983	0.81999
2013.42126	0.81922
2011.49270	0.81856
2009.56414	0.81841
2007.63557	0.81850
2005.70701	0.81829
2003.77844	0.81800
2001.84988	0.81816
1999.92131	0.81869
1997.99275	0.81914
1996.06418	0.81924
1994.13562	0.81928
1992.20706	0.81952
1990.27849	0.81945
1988.34993	0.81901
1986.42136	0.81864
1984.49280	0.81828
1982.56423	0.81780
1980.63567	0.81736
1978.70710	0.81714
1976.77854	0.81708
1974.84998	0.81680
1972.92141	0.81625
1970.99285	0.81593
1969.06428	0.81593
1967.13572	0.81534
1965.20715	0.81394
1963.27859	0.81267
1961.35002	0.81171
1959.42146	0.81069
1957.49290	0.80968
1955.56433	0.80889
1953.63577	0.80817
1951.70720	0.80729
1949.77864	0.80651
1947.85007	0.80612
1945.92151	0.80575
1943.99294	0.80522
1942.06438	0.80455
1940.13582	0.80343
1938.20725	0.80213
1936.27869	0.80123
1934.35012	0.80088
1932.42156	0.80063
1930.49299	0.80014
1928.56443	0.79957
1926.63586	0.79929
1924.70730	0.79969
1922.77874	0.80011
1920.85017	0.79964
1918.92161	0.79895
1916.99304	0.79819
1915.06448	0.79685
1913.13591	0.79565
1911.20735	0.79513
1909.27878	0.79463
1907.35022	0.79354
1905.42166	0.79213
1903.49309	0.79075
1901.56453	0.78951
1899.63596	0.78851
1897.70740	0.78784
1895.77883	0.78745
1893.85027	0.78692
1891.92171	0.78627
1889.99314	0.78563
1888.06458	0.78448
1886.13601	0.78304
1884.20745	0.78195
1882.27888	0.78126
1880.35032	0.78090
1878.42175	0.78053
1876.49319	0.77979
1874.56463	0.77892
1872.63606	0.77886
1870.70750	0.78043
1868.77893	0.78239
1866.85037	0.78179
1864.92180	0.77985
1862.99324	0.77885
1861.06467	0.77867
1859.13611	0.77858
1857.20755	0.77845
1855.27898	0.77821
1853.35042	0.77780
1851.42185	0.77744
1849.49329	0.77748
1847.56472	0.77805
1845.63616	0.77901
1843.70759	0.77891
1841.77903	0.77684
1839.85047	0.77471
1837.92190	0.77345
1835.99334	0.77260
1834.06477	0.77181
1832.13621	0.77165
1830.20764	0.77212
1828.27908	0.77183
1826.35051	0.77083
1824.42195	0.76972
1822.49339	0.76842
1820.56482	0.76745
1818.63626	0.76718
1816.70769	0.76721
1814.77913	0.76736
1812.85056	0.76810
1810.92200	0.76927
1808.99343	0.76982
1807.06487	0.76968
1805.13631	0.76979
1803.20774	0.77067
1801.27918	0.77178
1799.35061	0.77190
1797.42205	0.77147
1795.49348	0.77161
1793.56492	0.77226
1791.63635	0.77168
1789.70779	0.76889
1787.77923	0.76633
1785.85066	0.76507
1783.92210	0.76443
1781.99353	0.76377
1780.06497	0.76296
1778.13640	0.76205
1776.20784	0.76157
1774.27927	0.76245
1772.35071	0.76399
1770.42215	0.76330
1768.49358	0.76126
1766.56502	0.75979
1764.63645	0.75968
1762.70789	0.76150
1760.77932	0.76421
1758.85076	0.76632
1756.92220	0.76878
1754.99363	0.77141
1753.06507	0.77483
1751.13650	0.78178
1749.20794	0.79085
1747.27937	0.79712
1745.35081	0.80163
1743.42224	0.80626
1741.49368	0.81122
1739.56512	0.81608
1737.63655	0.81957
1735.70799	0.82332
1733.77942	0.83031
1731.85086	0.83465
1729.92229	0.83572
1727.99373	0.83747
1726.06516	0.84075
1724.13660	0.84597
1722.20804	0.85161
1720.27947	0.85736
1718.35091	0.86773
1716.42234	0.88345
1714.49378	0.89335
1712.56521	0.90019
1710.63665	0.90984
1708.70808	0.92397
1706.77952	0.94626
1704.85096	0.97534
1702.92239	1.00216
1700.99383	1.04028
1699.06526	1.09743
1697.13670	1.14620
1695.20813	1.19106
1693.27957	1.22461
1691.35100	1.25266
1689.42244	1.28808
1687.49388	1.32155
1685.56531	1.35529
1683.63675	1.40659
1681.70818	1.44325
1679.77962	1.46316
1677.85105	1.48161
1675.92249	1.50365
1673.99392	1.52705
1672.06536	1.54670
1670.13680	1.56733
1668.20823	1.58360
1666.27967	1.59027
1664.35110	1.59813
1662.42254	1.60801
1660.49397	1.61233
1658.56541	1.61311
1656.63684	1.61296
1654.70828	1.61521
1652.77972	1.62116
1650.85115	1.62061
1648.92259	1.61791
1646.99402	1.61448
1645.06546	1.60868
1643.13689	1.60386
1641.20833	1.60208
1639.27976	1.60056
1637.35120	1.59818
1635.42264	1.59572
1633.49407	1.59125
1631.56551	1.58709
1629.63694	1.58285
1627.70838	1.57580
1625.77981	1.56506
1623.85125	1.55146
1621.92269	1.53622
1619.99412	1.52284
1618.06556	1.50657
1616.13699	1.47861
1614.20843	1.45127
1612.27986	1.42891
1610.35130	1.40555
1608.42273	1.38091
1606.49417	1.35884
1604.56561	1.34134
1602.63704	1.32731
1600.70848	1.31577
1598.77991	1.30731
1596.85135	1.30268
1594.92278	1.30005
1592.99422	1.29768
1591.06565	1.29712
1589.13709	1.29970
1587.20853	1.30534
1585.27996	1.31339
1583.35140	1.32300
1581.42283	1.33309
1579.49427	1.34300
1577.56570	1.35646
1575.63714	1.37521
1573.70857	1.38655
1571.78001	1.39429
1569.85145	1.40838
1567.92288	1.42295
1565.99432	1.43232
1564.06575	1.44203
1562.13719	1.45155
1560.20862	1.46449
1558.28006	1.48635
1556.35149	1.49272
1554.42293	1.49275
1552.49437	1.49364
1550.56580	1.49532
1548.63724	1.49611
1546.70867	1.49592
1544.78011	1.49707
1542.85154	1.50062
1540.92298	1.50118
1538.99441	1.49406
1537.06585	1.49017
1535.13729	1.48943
1533.20872	1.48737
1531.28016	1.48158
1529.35159	1.47677
1527.42303	1.47449
1525.49446	1.47333
1523.56590	1.47368
1521.63733	1.47533
1519.70877	1.47426
1517.78021	1.46757
1515.85164	1.45629
1513.92308	1.44424
1511.99451	1.43266
1510.06595	1.42227
1508.13738	1.40516
1506.20882	1.36723
1504.28025	1.34278
1502.35169	1.32905
1500.42313	1.31580
1498.49456	1.29782
1496.56600	1.27181
1494.63743	1.24883
1492.70887	1.23326
1490.78030	1.21731
1488.85174	1.19560
1486.92317	1.17562
1484.99461	1.16190
1483.06605	1.15248
1481.13748	1.14565
1479.20892	1.14217
1477.28035	1.14365
1475.35179	1.15089
1473.42322	1.16555
1471.49466	1.18132
1469.56610	1.18923
1467.63753	1.19512
1465.70897	1.20443
1463.78040	1.21472
1461.85184	1.22076
1459.92327	1.22595
1457.99471	1.23757
1456.06614	1.25028
1454.13758	1.25218
1452.20902	1.25166
1450.28045	1.25192
1448.35189	1.25148
1446.42332	1.24768
1444.49476	1.24166
1442.56619	1.23580
1440.63763	1.23107
1438.70906	1.22697
1436.78050	1.22065
1434.85194	1.21137
1432.92337	1.20216
1430.99481	1.19215
1429.06624	1.18141
1427.13768	1.17315
1425.20911	1.16756
1423.28055	1.16350
1421.35198	1.16118
1419.42342	1.16060
1417.49486	1.15917
1415.56629	1.15546
1413.63773	1.15116
1411.70916	1.14706
1409.78060	1.14415
1407.85203	1.14361
1405.92347	1.14540
1403.99490	1.14773
1402.06634	1.14963
1400.13778	1.15289
1398.20921	1.15791
1396.28065	1.16334
1394.35208	1.16892
1392.42352	1.17399
1390.49495	1.18023
1388.56639	1.19232
1386.63782	1.21109
1384.70926	1.22863
1382.78070	1.24311
1380.85213	1.25573
1378.92357	1.26274
1376.99500	1.26216
1375.06644	1.25405
1373.13787	1.23886
1371.20931	1.22134
1369.28074	1.20250
1367.35218	1.18236
1365.42362	1.16374
1363.49505	1.14546
1361.56649	1.12715
1359.63792	1.11277
1357.70936	1.10263
1355.78079	1.09494
1353.85223	1.08859
1351.92366	1.08337
1349.99510	1.07972
1348.06654	1.07759
1346.13797	1.07614
1344.20941	1.07538
1342.28084	1.07644
1340.35228	1.08034
1338.42371	1.08573
1336.49515	1.09138
1334.56659	1.09926
1332.63802	1.11014
1330.70946	1.12241
1328.78089	1.13357
1326.85233	1.14178
1324.92376	1.14690
1322.99520	1.15041
1321.06663	1.15419
1319.13807	1.15831
1317.20951	1.16130
1315.28094	1.16334
1313.35238	1.16489
1311.42381	1.16478
1309.49525	1.16296
1307.56668	1.16008
1305.63812	1.15596
1303.70955	1.15095
1301.78099	1.14530
1299.85243	1.13846
1297.92386	1.13014
1295.99530	1.12123
1294.06673	1.11315
1292.13817	1.10672
1290.20960	1.10211
1288.28104	1.09888
1286.35247	1.09643
1284.42391	1.09442
1282.49535	1.09262
1280.56678	1.09151
1278.63822	1.09202
1276.70965	1.09440
1274.78109	1.09853
1272.85252	1.10489
1270.92396	1.11348
1268.99539	1.12332
1267.06683	1.13348
1265.13827	1.14288
1263.20970	1.15034
1261.28114	1.15613
1259.35257	1.16135
1257.42401	1.16648
1255.49544	1.17161
1253.56688	1.17679
1251.63831	1.18220
1249.70975	1.18769
1247.78119	1.19267
1245.85262	1.19731
1243.92406	1.20119
1241.99549	1.20286
1240.06693	1.20279
1238.13836	1.20260
1236.20980	1.20241
1234.28123	1.20090
1232.35267	1.19662
1230.42411	1.18986
1228.49554	1.18187
1226.56698	1.17290
1224.63841	1.16280
1222.70985	1.15196
1220.78128	1.14134
1218.85272	1.13179
1216.92415	1.12361
1214.99559	1.11740
1213.06703	1.11401
1211.13846	1.11406
1209.20990	1.11664
1207.28133	1.11817
1205.35277	1.11543
1203.42420	1.10874
1201.49564	1.10028
1199.56708	1.09146
1197.63851	1.08326
1195.70995	1.07650
1193.78138	1.07169
1191.85282	1.06895
1189.92425	1.06822
1187.99569	1.06989
1186.06712	1.07415
1184.13856	1.08066
1182.21000	1.08915
1180.28143	1.09948
1178.35287	1.11174
1176.42430	1.12575
1174.49574	1.14103
1172.56717	1.15712
1170.63861	1.17311
1168.71004	1.18895
1166.78148	1.20581
1164.85292	1.22245
1162.92435	1.23544
1160.99579	1.24300
1159.06722	1.24524
1157.13866	1.24273
1155.21009	1.23523
1153.28153	1.22307
1151.35296	1.20837
1149.42440	1.19257
1147.49584	1.17689
1145.56727	1.16398
1143.63871	1.15603
1141.71014	1.15308
1139.78158	1.15391
1137.85301	1.15782
1135.92445	1.16547
1133.99588	1.17733
1132.06732	1.19315
1130.13876	1.21290
1128.21019	1.23557
1126.28163	1.25839
1124.35306	1.27835
1122.42450	1.29464
1120.49593	1.30841
1118.56737	1.31983
1116.63880	1.32769
1114.71024	1.33029
1112.78168	1.32748
1110.85311	1.32258
1108.92455	1.31961
1106.99598	1.31939
1105.06742	1.31947
1103.13885	1.31825
1101.21029	1.31765
1099.28172	1.31979
1097.35316	1.32397
1095.42460	1.32946
1093.49603	1.33814
1091.56747	1.35004
1089.63890	1.36159
1087.71034	1.37148
1085.78177	1.38045
1083.85321	1.38866
1081.92464	1.39631
1079.99608	1.40158
1078.06752	1.40227
1076.13895	1.39883
1074.21039	1.39260
1072.28182	1.38327
1070.35326	1.37092
1068.42469	1.35894
1066.49613	1.34905
1064.56756	1.34033
1062.63900	1.33265
1060.71044	1.32479
1058.78187	1.31662
1056.85331	1.31031
1054.92474	1.30610
1052.99618	1.30346
1051.06761	1.30298
1049.13905	1.30548
1047.21049	1.31212
1045.28192	1.32222
1043.35336	1.33278
1041.42479	1.34277
1039.49623	1.35186
1037.56766	1.35835
1035.63910	1.36251
1033.71053	1.36488
1031.78197	1.36369
1029.85341	1.35808
1027.92484	1.34978
1025.99628	1.34012
1024.06771	1.32898
1022.13915	1.31757
1020.21058	1.30817
1018.28202	1.30010
1016.35345	1.28975
1014.42489	1.27500
1012.49633	1.25700
1010.56776	1.23690
1008.63920	1.21449
1006.71063	1.19090
1004.78207	1.16859
1002.85350	1.14889
1000.92494	1.13209
998.99637	1.11872
997.06781	1.10915
995.13925	1.10257
993.21068	1.09751
991.28212	1.09255
989.35355	1.08699
987.42499	1.08235
985.49642	1.08056
983.56786	1.08116
981.63929	1.08321
979.71073	1.08672
977.78217	1.09109
975.85360	1.09434
973.92504	1.09481
971.99647	1.09270
970.06791	1.08888
968.13934	1.08406
966.21078	1.08022
964.28221	1.07931
962.35365	1.08135
960.42509	1.08655
958.49652	1.09527
956.56796	1.10434
954.63939	1.10780
952.71083	1.10312
950.78226	1.09310
948.85370	1.08085
946.92513	1.06812
944.99657	1.05711
943.06801	1.04874
941.13944	1.04239
939.21088	1.03748
937.28231	1.03333
935.35375	1.03033
933.42518	1.02941
931.49662	1.03019
929.56805	1.03197
927.63949	1.03510
925.71093	1.04034
923.78236	1.04741
921.85380	1.05486
919.92523	1.06162
917.99667	1.06757
916.06810	1.07354
914.13954	1.08054
912.21098	1.08850
910.28241	1.09663
908.35385	1.10499
906.42528	1.11426
904.49672	1.12402
902.56815	1.13265
900.63959	1.13908
898.71102	1.14333
896.78246	1.14572
894.85390	1.14630
892.92533	1.14491
890.99677	1.14175
889.06820	1.13775
887.13964	1.13357
885.21107	1.12894
883.28251	1.12422
881.35394	1.12031
879.42538	1.11741
877.49682	1.11535
875.56825	1.11347
873.63969	1.11116
871.71112	1.10924
869.78256	1.10857
867.85399	1.10852
865.92543	1.10872
863.99686	1.11009
862.06830	1.11321
860.13974	1.11752
858.21117	1.12181
856.28261	1.12566
854.35404	1.12974
852.42548	1.13420
850.49691	1.13863
848.56835	1.14262
846.63978	1.14569
844.71122	1.14815
842.78266	1.15063
840.85409	1.15250
838.92553	1.15289
836.99696	1.15272
835.06840	1.15311
833.13983	1.15309
831.21127	1.15128
829.28270	1.14794
827.35414	1.14435
825.42558	1.14104
823.49701	1.13720
821.56845	1.13164
819.63988	1.12480
817.71132	1.11878
815.78275	1.11437
813.85419	1.11057
811.92562	1.10616
809.99706	1.10101
808.06850	1.09647
806.13993	1.09284
804.21137	1.08912
802.28280	1.08519
800.35424	1.08151
798.42567	1.07836
796.49711	1.07560
794.56854	1.07308
792.63998	1.07115
790.71142	1.06993
788.78285	1.06993
786.85429	1.07110
784.92572	1.07179
782.99716	1.07181
781.06859	1.07266
779.14003	1.07428
777.21147	1.07585
775.28290	1.07803
773.35434	1.08156
771.42577	1.08612
769.49721	1.09115
767.56864	1.09567
765.64008	1.09959
763.71151	1.10460
761.78295	1.11103
759.85439	1.11696
757.92582	1.12178
755.99726	1.12712
754.06869	1.13418
752.14013	1.14279
750.21156	1.15093
748.28300	1.15619
746.35443	1.15933
744.42587	1.16246
742.49731	1.16590
740.56874	1.16891
738.64018	1.17120
736.71161	1.17300
734.78305	1.17387
732.85448	1.17322
730.92592	1.17158
728.99735	1.16949
727.06879	1.16666
725.14023	1.16333
723.21166	1.16011
721.28310	1.15678
719.35453	1.15353
717.42597	1.14981
715.49740	1.14427
713.56884	1.13863
711.64027	1.13526
709.71171	1.13277
707.78315	1.13008
705.85458	1.12820
703.92602	1.12664
701.99745	1.12440
700.06889	1.12171
698.14032	1.11861
696.21176	1.11567
694.28319	1.11409
692.35463	1.11338
690.42607	1.11236
688.49750	1.11116
686.56894	1.10982
684.64037	1.10807
682.71181	1.10656
680.78324	1.10579
678.85468	1.10530
676.92611	1.10537
674.99755	1.10665
673.06899	1.10729
671.14042	1.10446
669.21186	1.09759
667.28329	1.09392
665.35473	1.09677
663.42616	1.09900
661.49760	1.09808
659.56903	1.09451
657.64047	1.09031
655.71191	1.08638
653.78334	1.08189
651.85478	1.07610
649.92621	1.07030
647.99765	1.06549
646.06908	1.06079
644.14052	1.05692
642.21195	1.05590
640.28339	1.05775
638.35483	1.06064
636.42626	1.06244
634.49770	1.06235
632.56913	1.06136
630.64057	1.06028
628.71200	1.05931
626.78344	1.05975
624.85488	1.06200
622.92631	1.06525
620.99775	1.06998
619.06918	1.07571
617.14062	1.08196
615.21205	1.08932
613.28349	1.09580
611.35492	1.09957
609.42636	1.10275
607.49780	1.10832
605.56923	1.11557
603.64067	1.12143
601.71210	1.12627
599.78354	1.13331
