3997.91406	0.89133
3995.98550	0.88977
3994.05693	0.88809
3992.12837	0.88771
3990.19980	0.88819
3988.27124	0.88811
3986.34268	0.88720
3984.41411	0.88666
3982.48555	0.88774
3980.55698	0.88886
3978.62842	0.88756
3976.69985	0.88500
3974.77129	0.88406
3972.84272	0.88590
3970.91416	0.88884
3968.98560	0.89021
3967.05703	0.88951
3965.12847	0.88766
3963.19990	0.88569
3961.27134	0.88551
3959.34277	0.88736
3957.41421	0.88841
3955.48564	0.88681
3953.55708	0.88392
3951.62852	0.88135
3949.69995	0.87989
3947.77139	0.88032
3945.84282	0.88200
3943.91426	0.88348
3941.98569	0.88349
3940.05713	0.88239
3938.12856	0.88191
3936.20000	0.88220
3934.27144	0.88303
3932.34287	0.88491
3930.41431	0.88647
3928.48574	0.88571
3926.55718	0.88384
3924.62861	0.88293
3922.70005	0.88271
3920.77148	0.88262
3918.84292	0.88325
3916.91436	0.88355
3914.98579	0.88241
3913.05723	0.88179
3911.12866	0.88268
3909.20010	0.88252
3907.27153	0.88041
3905.34297	0.87906
3903.41440	0.87941
3901.48584	0.88066
3899.55728	0.88287
3897.62871	0.88337
3895.70015	0.88151
3893.77158	0.87981
3891.84302	0.87991
3889.91445	0.87835
3887.98589	0.87442
3886.05733	0.87177
3884.12876	0.86976
3882.20020	0.86728
3880.27163	0.86771
3878.34307	0.86867
3876.41450	0.86748
3874.48594	0.86493
3872.55737	0.86126
3870.62881	0.85971
3868.70025	0.86043
3866.77168	0.86067
3864.84312	0.86541
3862.91455	0.87335
3860.98599	0.87430
3859.05742	0.86973
3857.12886	0.86400
3855.20029	0.86170
3853.27173	0.86938
3851.34317	0.87291
3849.41460	0.86907
3847.48604	0.86464
3845.55747	0.86166
3843.62891	0.86107
3841.70034	0.86165
3839.77178	0.86287
3837.84321	0.86504
3835.91465	0.86484
3833.98609	0.86357
3832.05752	0.86246
3830.12896	0.85884
3828.20039	0.85468
3826.27183	0.85414
3824.34326	0.85440
3822.41470	0.85435
3820.48613	0.85697
3818.55757	0.85749
3816.62901	0.85766
3814.70044	0.85886
3812.77188	0.85773
3810.84331	0.85557
3808.91475	0.85463
3806.98618	0.85665
3805.05762	0.85815
3803.12905	0.85738
3801.20049	0.85829
3799.27193	0.85966
3797.34336	0.86030
3795.41480	0.86077
3793.48623	0.86005
3791.55767	0.85845
3789.62910	0.85606
3787.70054	0.85406
3785.77197	0.85483
3783.84341	0.85622
3781.91485	0.85532
3779.98628	0.85462
3778.05772	0.85452
3776.12915	0.85288
3774.20059	0.85038
3772.27202	0.84888
3770.34346	0.85031
3768.41489	0.85183
3766.48633	0.85096
3764.55777	0.85048
3762.62920	0.85062
3760.70064	0.85108
3758.77207	0.85079
3756.84351	0.84740
3754.91494	0.84313
3752.98638	0.84294
3751.05781	0.85281
3749.12925	0.86026
3747.20069	0.85883
3745.27212	0.85791
3743.34356	0.85654
3741.41499	0.85253
3739.48643	0.84891
3737.55786	0.84863
3735.62930	0.85413
3733.70074	0.85894
3731.77217	0.85861
3729.84361	0.85712
3727.91504	0.85625
3725.98648	0.85575
3724.05791	0.85377
3722.12935	0.85093
3720.20078	0.85022
3718.27222	0.85160
3716.34366	0.85230
3714.41509	0.85128
3712.48653	0.85188
3710.55796	0.85599
3708.62940	0.85744
3706.70083	0.85645
3704.77227	0.85513
3702.84370	0.85484
3700.91514	0.85536
3698.98658	0.85461
3697.05801	0.85417
3695.12945	0.85512
3693.20088	0.85620
3691.27232	0.85939
3689.34375	0.86770
3687.41519	0.87209
3685.48662	0.87087
3683.55806	0.86946
3681.62950	0.86976
3679.70093	0.87095
3677.77237	0.87196
3675.84380	0.87689
3673.91524	0.88354
3671.98667	0.88602
3670.05811	0.89037
3668.12954	0.89541
3666.20098	0.89686
3664.27242	0.89743
3662.34385	0.89912
3660.41529	0.90181
3658.48672	0.90552
3656.55816	0.91152
3654.62959	0.91600
3652.70103	0.91816
3650.77246	0.92412
3648.84390	0.93393
3646.91534	0.93939
3644.98677	0.94356
3643.05821	0.94743
3641.12964	0.95192
3639.20108	0.95833
3637.27251	0.96555
3635.34395	0.97303
3633.41538	0.98007
3631.48682	0.98488
3629.55826	0.99312
3627.62969	1.00470
3625.70113	1.00902
3623.77256	1.01054
3621.84400	1.01235
3619.91543	1.01776
3617.98687	1.02696
3616.05830	1.03263
3614.12974	1.03577
3612.20118	1.04031
3610.27261	1.04717
3608.34405	1.05745
3606.41548	1.06757
3604.48692	1.07200
3602.55835	1.07216
3600.62979	1.07338
3598.70123	1.07983
3596.77266	1.08860
3594.84410	1.09650
3592.91553	1.10383
3590.98697	1.11058
3589.05840	1.11824
3587.12984	1.12610
3585.20127	1.12999
3583.27271	1.13334
3581.34415	1.13929
3579.41558	1.14707
3577.48702	1.15431
3575.55845	1.16139
3573.62989	1.17010
3571.70132	1.17774
3569.77276	1.17993
3567.84419	1.17939
3565.91563	1.18511
3563.98707	1.19288
3562.05850	1.19866
3560.12994	1.20457
3558.20137	1.21109
3556.27281	1.21751
3554.34424	1.22282
3552.41568	1.22632
3550.48711	1.22960
3548.55855	1.23614
3546.62999	1.24607
3544.70142	1.25387
3542.77286	1.25879
3540.84429	1.26457
3538.91573	1.27032
3536.98716	1.27526
3535.05860	1.28038
3533.13003	1.28458
3531.20147	1.28753
3529.27291	1.29070
3527.34434	1.29555
3525.41578	1.30248
3523.48721	1.30959
3521.55865	1.31499
3519.63008	1.31931
3517.70152	1.32382
3515.77295	1.32903
3513.84439	1.33572
3511.91583	1.34464
3509.98726	1.35433
3508.05870	1.36224
3506.13013	1.36917
3504.20157	1.37465
3502.27300	1.37622
3500.34444	1.37744
3498.41587	1.37985
3496.48731	1.38110
3494.55875	1.38464
3492.63018	1.39387
3490.70162	1.40329
3488.77305	1.40622
3486.84449	1.40462
3484.91592	1.40431
3482.98736	1.40760
3481.05879	1.41276
3479.13023	1.41623
3477.20167	1.41721
3475.27310	1.41791
3473.34454	1.42190
3471.41597	1.42803
3469.48741	1.43242
3467.55884	1.43633
3465.63028	1.43900
3463.70171	1.43624
3461.77315	1.43273
3459.84459	1.43536
3457.91602	1.44040
3455.98746	1.44353
3454.05889	1.44543
3452.13033	1.44754
3450.20176	1.45246
3448.27320	1.45990
3446.34464	1.46665
3444.41607	1.46961
3442.48751	1.46741
3440.55894	1.46301
3438.63038	1.45804
3436.70181	1.45266
3434.77325	1.45034
3432.84468	1.45343
3430.91612	1.46064
3428.98756	1.46645
3427.05899	1.46659
3425.13043	1.46447
3423.20186	1.46373
3421.27330	1.46459
3419.34473	1.46550
3417.41617	1.46359
3415.48760	1.46048
3413.55904	1.46168
3411.63048	1.46808
3409.70191	1.47477
3407.77335	1.47769
3405.84478	1.47667
3403.91622	1.47206
3401.98765	1.46492
3400.05909	1.46055
3398.13052	1.46306
3396.20196	1.46809
3394.27340	1.46981
3392.34483	1.46903
3390.41627	1.46807
3388.48770	1.46771
3386.55914	1.46789
3384.63057	1.46825
3382.70201	1.47065
3380.77344	1.47466
3378.84488	1.47579
3376.91632	1.47517
3374.98775	1.47696
3373.05919	1.47836
3371.13062	1.47869
3369.20206	1.48264
3367.27349	1.48856
3365.34493	1.49124
3363.41636	1.48966
3361.48780	1.48472
3359.55924	1.47949
3357.63067	1.47939
3355.70211	1.48491
3353.77354	1.48871
3351.84498	1.48814
3349.91641	1.48712
3347.98785	1.48577
3346.05928	1.48409
3344.13072	1.48264
3342.20216	1.47999
3340.27359	1.47810
3338.34503	1.47979
3336.41646	1.48396
3334.48790	1.48780
3332.55933	1.49114
3330.63077	1.49518
3328.70220	1.49689
3326.77364	1.49389
3324.84508	1.49142
3322.91651	1.49328
3320.98795	1.49447
3319.05938	1.49225
3317.13082	1.49042
3315.20225	1.49035
3313.27369	1.49147
3311.34513	1.49276
3309.41656	1.49085
3307.48800	1.48590
3305.55943	1.48397
3303.63087	1.48910
3301.70230	1.49862
3299.77374	1.50712
3297.84517	1.50902
3295.91661	1.50002
3293.98805	1.48599
3292.05948	1.47843
3290.13092	1.47936
3288.20235	1.48196
3286.27379	1.48195
3284.34522	1.48065
3282.41666	1.48045
3280.48809	1.48229
3278.55953	1.48330
3276.63097	1.47928
3274.70240	1.47297
3272.77384	1.46942
3270.84527	1.46771
3268.91671	1.46494
3266.98814	1.46096
3265.05958	1.45683
3263.13101	1.45312
3261.20245	1.45036
3259.27389	1.44742
3257.34532	1.44438
3255.41676	1.44318
3253.48819	1.44147
3251.55963	1.43856
3249.63106	1.43896
3247.70250	1.44082
3245.77393	1.43575
3243.84537	1.42581
3241.91681	1.42133
3239.98824	1.42150
3238.05968	1.42048
3236.13111	1.41710
3234.20255	1.40903
3232.27398	1.39790
3230.34542	1.39002
3228.41685	1.38642
3226.48829	1.38610
3224.55973	1.38948
3222.63116	1.39363
3220.70260	1.39408
3218.77403	1.38990
3216.84547	1.38443
3214.91690	1.38087
3212.98834	1.37773
3211.05977	1.37388
3209.13121	1.37265
3207.20265	1.37544
3205.27408	1.37810
3203.34552	1.37597
3201.41695	1.37060
3199.48839	1.36747
3197.55982	1.36639
3195.63126	1.36445
3193.70269	1.36367
3191.77413	1.36386
3189.84557	1.36112
3187.91700	1.35623
3185.98844	1.35216
3184.05987	1.35063
3182.13131	1.35019
3180.20274	1.34574
3178.27418	1.33833
3176.34562	1.33383
3174.41705	1.33137
3172.48849	1.32788
3170.55992	1.32516
3168.63136	1.32514
3166.70279	1.32500
3164.77423	1.32264
3162.84566	1.32096
3160.91710	1.31964
3158.98854	1.31499
3157.05997	1.30941
3155.13141	1.30712
3153.20284	1.30684
3151.27428	1.30497
3149.34571	1.30242
3147.41715	1.30249
3145.48858	1.30354
3143.56002	1.30282
3141.63146	1.30057
3139.70289	1.29791
3137.77433	1.29692
3135.84576	1.29758
3133.91720	1.29709
3131.98863	1.29484
3130.06007	1.29280
3128.13150	1.29272
3126.20294	1.29436
3124.27438	1.29525
3122.34581	1.29417
3120.41725	1.29326
3118.48868	1.29342
3116.56012	1.29267
3114.63155	1.29147
3112.70299	1.29176
3110.77442	1.29159
3108.84586	1.28898
3106.91730	1.28469
3104.98873	1.27993
3103.06017	1.27777
3101.13160	1.27932
3099.20304	1.28076
3097.27447	1.28081
3095.34591	1.28153
3093.41734	1.28267
3091.48878	1.28229
3089.56022	1.28030
3087.63165	1.27762
3085.70309	1.27390
3083.77452	1.26984
3081.84596	1.26737
3079.91739	1.26671
3077.98883	1.26669
3076.06026	1.26602
3074.13170	1.26493
3072.20314	1.26510
3070.27457	1.26559
3068.34601	1.26375
3066.41744	1.26076
3064.48888	1.25880
3062.56031	1.25646
3060.63175	1.25210
3058.70318	1.24806
3056.77462	1.24723
3054.84606	1.24725
3052.91749	1.24571
3050.98893	1.24397
3049.06036	1.24187
3047.13180	1.23884
3045.20323	1.23556
3043.27467	1.23306
3041.34610	1.23285
3039.41754	1.23419
3037.48898	1.23369
3035.56041	1.23001
3033.63185	1.22548
3031.70328	1.22240
3029.77472	1.22152
3027.84615	1.22164
3025.91759	1.22040
3023.98903	1.21718
3022.06046	1.21306
3020.13190	1.21070
3018.20333	1.21085
3016.27477	1.20996
3014.34620	1.20780
3012.41764	1.20737
3010.48907	1.20775
3008.56051	1.20704
3006.63195	1.20545
3004.70338	1.20418
3002.77482	1.20440
3000.84625	1.20545
2998.91769	1.20583
2996.98912	1.20571
2995.06056	1.20598
2993.13199	1.20711
2991.20343	1.20926
2989.27487	1.21267
2987.34630	1.21740
2985.41774	1.22251
2983.48917	1.22707
2981.56061	1.23104
2979.63204	1.23450
2977.70348	1.23784
2975.77491	1.24184
2973.84635	1.24676
2971.91779	1.25209
2969.98922	1.25729
2968.06066	1.26141
2966.13209	1.26394
2964.20353	1.26599
2962.27496	1.26762
2960.34640	1.26753
2958.41783	1.26625
2956.48927	1.26440
2954.56071	1.26056
2952.63214	1.25574
2950.70358	1.25364
2948.77501	1.25414
2946.84645	1.25550
2944.91788	1.25972
2942.98932	1.26775
2941.06075	1.27682
2939.13219	1.28524
2937.20363	1.29394
2935.27506	1.30349
2933.34650	1.31212
2931.41793	1.31859
2929.48937	1.32415
2927.56080	1.32967
2925.63224	1.33485
2923.70367	1.33898
2921.77511	1.34171
2919.84655	1.34057
2917.91798	1.33024
2915.98942	1.31143
2914.06085	1.29122
2912.13229	1.27368
2910.20372	1.25932
2908.27516	1.24782
2906.34659	1.23799
2904.41803	1.22935
2902.48947	1.22361
2900.56090	1.22111
2898.63234	1.21888
2896.70377	1.21566
2894.77521	1.21284
2892.84664	1.21046
2890.91808	1.20754
2888.98952	1.20376
2887.06095	1.19927
2885.13239	1.19519
2883.20382	1.19384
2881.27526	1.19542
2879.34669	1.19754
2877.41813	1.19931
2875.48956	1.20093
2873.56100	1.20175
2871.63244	1.20081
2869.70387	1.19751
2867.77531	1.19372
2865.84674	1.19200
2863.91818	1.19228
2861.98961	1.19421
2860.06105	1.19843
2858.13248	1.20522
2856.20392	1.21361
2854.27536	1.22210
2852.34679	1.22969
2850.41823	1.23095
2848.48966	1.21795
2846.56110	1.19356
2844.63253	1.16900
2842.70397	1.15023
2840.77540	1.13732
2838.84684	1.12854
2836.91828	1.12133
2834.98971	1.11487
2833.06115	1.10998
2831.13258	1.10602
2829.20402	1.10180
2827.27545	1.09762
2825.34689	1.09447
2823.41832	1.09228
2821.48976	1.09045
2819.56120	1.08862
2817.63263	1.08654
2815.70407	1.08440
2813.77550	1.08251
2811.84694	1.08080
2809.91837	1.07881
2807.98981	1.07602
2806.06124	1.07238
2804.13268	1.06833
2802.20412	1.06506
2800.27555	1.06362
2798.34699	1.06253
2796.41842	1.05996
2794.48986	1.05699
2792.56129	1.05447
2790.63273	1.05184
2788.70416	1.04921
2786.77560	1.04691
2784.84704	1.04502
2782.91847	1.04304
2780.98991	1.04044
2779.06134	1.03785
2777.13278	1.03562
2775.20421	1.03352
2773.27565	1.03172
2771.34708	1.03008
2769.41852	1.02786
2767.48996	1.02529
2765.56139	1.02318
2763.63283	1.02147
2761.70426	1.01993
2759.77570	1.01881
2757.84713	1.01753
2755.91857	1.01513
2753.99001	1.01259
2752.06144	1.01152
2750.13288	1.01138
2748.20431	1.01085
2746.27575	1.00977
2744.34718	1.00860
2742.41862	1.00803
2740.49005	1.00822
2738.56149	1.00830
2736.63293	1.00774
2734.70436	1.00687
2732.77580	1.00590
2730.84723	1.00481
2728.91867	1.00393
2726.99010	1.00319
2725.06154	1.00214
2723.13297	1.00106
2721.20441	1.00011
2719.27585	0.99893
2717.34728	0.99730
2715.41872	0.99494
2713.49015	0.99243
2711.56159	0.99106
2709.63302	0.99062
2707.70446	0.98976
2705.77589	0.98865
2703.84733	0.98749
2701.91877	0.98510
2699.99020	0.98180
2698.06164	0.97940
2696.13307	0.97836
2694.20451	0.97758
2692.27594	0.97619
2690.34738	0.97461
2688.41881	0.97261
2686.49025	0.96997
2684.56169	0.96809
2682.63312	0.96749
2680.70456	0.96707
2678.77599	0.96630
2676.84743	0.96551
2674.91886	0.96485
2672.99030	0.96423
2671.06173	0.96362
2669.13317	0.96254
2667.20461	0.96097
2665.27604	0.95999
2663.34748	0.95996
2661.41891	0.96032
2659.49035	0.96054
2657.56178	0.96012
2655.63322	0.95874
2653.70465	0.95694
2651.77609	0.95575
2649.84753	0.95502
2647.91896	0.95367
2645.99040	0.95149
2644.06183	0.94896
2642.13327	0.94671
2640.20470	0.94519
2638.27614	0.94427
2636.34757	0.94322
2634.41901	0.94144
2632.49045	0.93914
2630.56188	0.93676
2628.63332	0.93498
2626.70475	0.93420
2624.77619	0.93350
2622.84762	0.93213
2620.91906	0.93009
2618.99049	0.92802
2617.06193	0.92719
2615.13337	0.92755
2613.20480	0.92770
2611.27624	0.92743
2609.34767	0.92726
2607.41911	0.92697
2605.49054	0.92609
2603.56198	0.92488
2601.63342	0.92423
2599.70485	0.92399
2597.77629	0.92331
2595.84772	0.92221
2593.91916	0.92073
2591.99059	0.91923
2590.06203	0.91772
2588.13346	0.91550
2586.20490	0.91298
2584.27634	0.91067
2582.34777	0.90839
2580.41921	0.90642
2578.49064	0.90441
2576.56208	0.90165
2574.63351	0.89881
2572.70495	0.89693
2570.77638	0.89593
2568.84782	0.89518
2566.91926	0.89398
2564.99069	0.89207
2563.06213	0.89042
2561.13356	0.88960
2559.20500	0.88896
2557.27643	0.88869
2555.34787	0.88961
2553.41930	0.89073
2551.49074	0.89053
2549.56218	0.88955
2547.63361	0.88898
2545.70505	0.88838
2543.77648	0.88711
2541.84792	0.88568
2539.91935	0.88444
2537.99079	0.88320
2536.06222	0.88216
2534.13366	0.88131
2532.20510	0.87996
2530.27653	0.87811
2528.34797	0.87639
2526.41940	0.87470
2524.49084	0.87276
2522.56227	0.87095
2520.63371	0.86942
2518.70514	0.86780
2516.77658	0.86623
2514.84802	0.86497
2512.91945	0.86382
2510.99089	0.86272
2509.06232	0.86161
2507.13376	0.86039
2505.20519	0.85910
2503.27663	0.85780
2501.34806	0.85677
2499.41950	0.85611
2497.49094	0.85533
2495.56237	0.85394
2493.63381	0.85227
2491.70524	0.85097
2489.77668	0.84995
2487.84811	0.84876
2485.91955	0.84738
2483.99098	0.84571
2482.06242	0.84349
2480.13386	0.84136
2478.20529	0.84008
2476.27673	0.83920
2474.34816	0.83819
2472.41960	0.83710
2470.49103	0.83584
2468.56247	0.83434
2466.63391	0.83265
2464.70534	0.83089
2462.77678	0.82929
2460.84821	0.82782
2458.91965	0.82646
2456.99108	0.82547
2455.06252	0.82475
2453.13395	0.82406
2451.20539	0.82346
2449.27683	0.82261
2447.34826	0.82090
2445.41970	0.81891
2443.49113	0.81786
2441.56257	0.81748
2439.63400	0.81692
2437.70544	0.81609
2435.77687	0.81498
2433.84831	0.81369
2431.91975	0.81249
2429.99118	0.81118
2428.06262	0.80982
2426.13405	0.80865
2424.20549	0.80761
2422.27692	0.80640
2420.34836	0.80504
2418.41979	0.80394
2416.49123	0.80288
2414.56267	0.80124
2412.63410	0.79915
2410.70554	0.79743
2408.77697	0.79625
2406.84841	0.79494
2404.91984	0.79366
2402.99128	0.79311
2401.06271	0.79297
2399.13415	0.79255
2397.20559	0.79156
2395.27702	0.79002
2393.34846	0.78870
2391.41989	0.78819
2389.49133	0.78801
2387.56276	0.78760
2385.63420	0.78684
2383.70563	0.78598
2381.77707	0.78531
2379.84851	0.78425
2377.91994	0.78222
2375.99138	0.78009
2374.06281	0.77890
2372.13425	0.77865
2370.20568	0.77831
2368.27712	0.77578
2366.34855	0.77111
2364.41999	0.76928
2362.49143	0.77203
2360.56286	0.77465
2358.63430	0.77392
2356.70573	0.77075
2354.77717	0.76794
2352.84860	0.76621
2350.92004	0.76476
2348.99147	0.76303
2347.06291	0.76060
2345.13435	0.75800
2343.20578	0.75723
2341.27722	0.75886
2339.34865	0.76108
2337.42009	0.76107
2335.49152	0.75770
2333.56296	0.75404
2331.63440	0.75384
2329.70583	0.75597
2327.77727	0.75645
2325.84870	0.75534
2323.92014	0.75459
2321.99157	0.75395
2320.06301	0.75299
2318.13444	0.75208
2316.20588	0.75148
2314.27732	0.75120
2312.34875	0.75105
2310.42019	0.75090
2308.49162	0.75063
2306.56306	0.75013
2304.63449	0.74984
2302.70593	0.75011
2300.77736	0.75025
2298.84880	0.74974
2296.92024	0.74929
2294.99167	0.74924
2293.06311	0.74908
2291.13454	0.74894
2289.20598	0.74890
2287.27741	0.74836
2285.34885	0.74726
2283.42028	0.74628
2281.49172	0.74571
2279.56316	0.74542
2277.63459	0.74505
2275.70603	0.74438
2273.77746	0.74369
2271.84890	0.74312
2269.92033	0.74252
2267.99177	0.74168
2266.06320	0.74063
2264.13464	0.73974
2262.20608	0.73919
2260.27751	0.73891
2258.34895	0.73848
2256.42038	0.73755
2254.49182	0.73667
2252.56325	0.73598
2250.63469	0.73483
2248.70612	0.73358
2246.77756	0.73283
2244.84900	0.73216
2242.92043	0.73110
2240.99187	0.73000
2239.06330	0.72958
2237.13474	0.72955
2235.20617	0.72902
2233.27761	0.72815
2231.34904	0.72781
2229.42048	0.72787
2227.49192	0.72775
2225.56335	0.72749
2223.63479	0.72740
2221.70622	0.72742
2219.77766	0.72726
2217.84909	0.72694
2215.92053	0.72659
2213.99196	0.72618
2212.06340	0.72573
2210.13484	0.72492
2208.20627	0.72361
2206.27771	0.72251
2204.34914	0.72194
2202.42058	0.72130
2200.49201	0.72018
2198.56345	0.71887
2196.63488	0.71755
2194.70632	0.71628
2192.77776	0.71526
2190.84919	0.71424
2188.92063	0.71298
2186.99206	0.71198
2185.06350	0.71126
2183.13493	0.71053
2181.20637	0.71020
2179.27781	0.71024
2177.34924	0.71028
2175.42068	0.71068
2173.49211	0.71138
2171.56355	0.71183
2169.63498	0.71207
2167.70642	0.71235
2165.77785	0.71266
2163.84929	0.71281
2161.92073	0.71294
2159.99216	0.71311
2158.06360	0.71315
2156.13503	0.71288
2154.20647	0.71222
2152.27790	0.71137
2150.34934	0.71067
2148.42077	0.71015
2146.49221	0.70968
2144.56365	0.70920
2142.63508	0.70853
2140.70652	0.70751
2138.77795	0.70656
2136.84939	0.70606
2134.92082	0.70566
2132.99226	0.70508
2131.06369	0.70446
2129.13513	0.70385
2127.20657	0.70312
2125.27800	0.70238
2123.34944	0.70180
2121.42087	0.70143
2119.49231	0.70128
2117.56374	0.70122
2115.63518	0.70112
2113.70661	0.70112
2111.77805	0.70141
2109.84949	0.70176
2107.92092	0.70197
2105.99236	0.70220
2104.06379	0.70275
2102.13523	0.70358
2100.20666	0.70424
2098.27810	0.70456
2096.34953	0.70466
2094.42097	0.70452
2092.49241	0.70418
2090.56384	0.70383
2088.63528	0.70355
2086.70671	0.70319
2084.77815	0.70276
2082.84958	0.70228
2080.92102	0.70165
2078.99245	0.70106
2077.06389	0.70056
2075.13533	0.69984
2073.20676	0.69873
2071.27820	0.69723
2069.34963	0.69589
2067.42107	0.69496
2065.49250	0.69403
2063.56394	0.69297
2061.63537	0.69196
2059.70681	0.69096
2057.77825	0.68998
2055.84968	0.68914
2053.92112	0.68868
2051.99255	0.68842
2050.06399	0.68800
2048.13542	0.68767
2046.20686	0.68774
2044.27830	0.68795
2042.34973	0.68811
2040.42117	0.68829
2038.49260	0.68838
2036.56404	0.68828
2034.63547	0.68817
2032.70691	0.68804
2030.77834	0.68765
2028.84978	0.68711
2026.92122	0.68669
2024.99265	0.68610
2023.06409	0.68504
2021.13552	0.68364
2019.20696	0.68210
2017.27839	0.68050
2015.34983	0.67883
2013.42126	0.67709
2011.49270	0.67521
2009.56414	0.67333
2007.63557	0.67174
2005.70701	0.67024
2003.77844	0.66855
2001.84988	0.66701
1999.92131	0.66595
1997.99275	0.66524
1996.06418	0.66453
1994.13562	0.66379
1992.20706	0.66346
1990.27849	0.66355
1988.34993	0.66368
1986.42136	0.66386
1984.49280	0.66412
1982.56423	0.66452
1980.63567	0.66515
1978.70710	0.66583
1976.77854	0.66637
1974.84998	0.66680
1972.92141	0.66708
1970.99285	0.66695
1969.06428	0.66668
1967.13572	0.66657
1965.20715	0.66616
1963.27859	0.66517
1961.35002	0.66410
1959.42146	0.66326
1957.49290	0.66235
1955.56433	0.66118
1953.63577	0.66000
1951.70720	0.65893
1949.77864	0.65768
1947.85007	0.65622
1945.92151	0.65488
1943.99294	0.65385
1942.06438	0.65314
1940.13582	0.65251
1938.20725	0.65176
1936.27869	0.65099
1934.35012	0.65046
1932.42156	0.65040
1930.49299	0.65058
1928.56443	0.65054
1926.63586	0.65010
1924.70730	0.64995
1922.77874	0.65065
1920.85017	0.65131
1918.92161	0.65158
1916.99304	0.65187
1915.06448	0.65186
1913.13591	0.65170
1911.20735	0.65180
1909.27878	0.65196
1907.35022	0.65165
1905.42166	0.65079
1903.49309	0.64994
1901.56453	0.64921
1899.63596	0.64827
1897.70740	0.64724
1895.77883	0.64638
1893.85027	0.64530
1891.92171	0.64373
1889.99314	0.64267
1888.06458	0.64239
1886.13601	0.64195
1884.20745	0.64123
1882.27888	0.64058
1880.35032	0.64015
1878.42175	0.63970
1876.49319	0.63905
1874.56463	0.63839
1872.63606	0.63779
1870.70750	0.63744
1868.77893	0.63797
1866.85037	0.63882
1864.92180	0.63890
1862.99324	0.63859
1861.06467	0.63827
1859.13611	0.63804
1857.20755	0.63767
1855.27898	0.63704
1853.35042	0.63633
1851.42185	0.63554
1849.49329	0.63463
1847.56472	0.63349
1845.63616	0.63255
1843.70759	0.63218
1841.77903	0.63114
1839.85047	0.62940
1837.92190	0.62802
1835.99334	0.62687
1834.06477	0.62517
1832.13621	0.62326
1830.20764	0.62193
1828.27908	0.62073
1826.35051	0.61909
1824.42195	0.61746
1822.49339	0.61596
1820.56482	0.61457
1818.63626	0.61352
1816.70769	0.61259
1814.77913	0.61163
1812.85056	0.61126
1810.92200	0.61196
1808.99343	0.61281
1807.06487	0.61306
1805.13631	0.61313
1803.20774	0.61342
1801.27918	0.61423
1799.35061	0.61516
1797.42205	0.61551
1795.49348	0.61550
1793.56492	0.61619
1791.63635	0.61805
1789.70779	0.61856
1787.77923	0.61768
1785.85066	0.61693
1783.92210	0.61651
1781.99353	0.61614
1780.06497	0.61581
1778.13640	0.61509
1776.20784	0.61375
1774.27927	0.61276
1772.35071	0.61375
1770.42215	0.61529
1768.49358	0.61556
1766.56502	0.61551
1764.63645	0.61573
1762.70789	0.61759
1760.77932	0.62145
1758.85076	0.62555
1756.92220	0.63140
1754.99363	0.63816
1753.06507	0.64452
1751.13650	0.65461
1749.20794	0.67047
1747.27937	0.68508
1745.35081	0.69604
1743.42224	0.70582
1741.49368	0.71563
1739.56512	0.72493
1737.63655	0.73076
1735.70799	0.73494
1733.77942	0.74359
1731.85086	0.75151
1729.92229	0.75590
1727.99373	0.76058
1726.06516	0.76613
1724.13660	0.77379
1722.20804	0.78187
1720.27947	0.78859
1718.35091	0.80002
1716.42234	0.82314
1714.49378	0.84307
1712.56521	0.85694
1710.63665	0.87107
1708.70808	0.88734
1706.77952	0.91091
1704.85096	0.94279
1702.92239	0.97115
1700.99383	1.00649
1699.06526	1.06009
1697.13670	1.10946
1695.20813	1.15762
1693.27957	1.19191
1691.35100	1.21679
1689.42244	1.24647
1687.49388	1.27342
1685.56531	1.29989
1683.63675	1.34101
1681.70818	1.36924
1679.77962	1.38421
1677.85105	1.39794
1675.92249	1.41438
1673.99392	1.43339
1672.06536	1.44958
1670.13680	1.46381
1668.20823	1.47372
1666.27967	1.47536
1664.35110	1.47535
1662.42254	1.47739
1660.49397	1.47799
1658.56541	1.47570
1656.63684	1.47107
1654.70828	1.46395
1652.77972	1.45648
1650.85115	1.45464
1648.92259	1.45274
1646.99402	1.44818
1645.06546	1.44087
1643.13689	1.43245
1641.20833	1.42541
1639.27976	1.42046
1637.35120	1.41770
1635.42264	1.41584
1633.49407	1.41179
1631.56551	1.40715
1629.63694	1.40151
1627.70838	1.39397
1625.77981	1.38528
1623.85125	1.37646
1621.92269	1.36753
1619.99412	1.35947
1618.06556	1.35073
1616.13699	1.33830
1614.20843	1.32681
1612.27986	1.31671
1610.35130	1.30601
1608.42273	1.29555
1606.49417	1.28666
1604.56561	1.27960
1602.63704	1.27410
1600.70848	1.27056
1598.77991	1.26793
1596.85135	1.26542
1594.92278	1.26438
1592.99422	1.26551
1591.06565	1.26768
1589.13709	1.27035
1587.20853	1.27445
1585.27996	1.27999
1583.35140	1.28626
1581.42283	1.29210
1579.49427	1.29696
1577.56570	1.30516
1575.63714	1.32078
1573.70857	1.33159
1571.78001	1.33720
1569.85145	1.34605
1567.92288	1.35725
1565.99432	1.36557
1564.06575	1.37067
1562.13719	1.37076
1560.20862	1.37142
1558.28006	1.38892
1556.35149	1.39999
1554.42293	1.40071
1552.49437	1.39894
1550.56580	1.39629
1548.63724	1.39474
1546.70867	1.39387
1544.78011	1.39130
1542.85154	1.38542
1540.92298	1.37699
1538.99441	1.37099
1537.06585	1.36754
1535.13729	1.36280
1533.20872	1.35708
1531.28016	1.35256
1529.35159	1.34839
1527.42303	1.34240
1525.49446	1.33486
1523.56590	1.33058
1521.63733	1.33095
1519.70877	1.32778
1517.78021	1.31813
1515.85164	1.30891
1513.92308	1.30227
1511.99451	1.29424
1510.06595	1.28493
1508.13738	1.27497
1506.20882	1.25964
1504.28025	1.24660
1502.35169	1.23575
1500.42313	1.22428
1498.49456	1.21199
1496.56600	1.19816
1494.63743	1.18514
1492.70887	1.17420
1490.78030	1.16232
1488.85174	1.14923
1486.92317	1.13873
1484.99461	1.13057
1483.06605	1.12449
1481.13748	1.12063
1479.20892	1.11914
1477.28035	1.12022
1475.35179	1.12462
1473.42322	1.13566
1471.49466	1.14991
1469.56610	1.15773
1467.63753	1.16248
1465.70897	1.16830
1463.78040	1.17352
1461.85184	1.17479
1459.92327	1.17457
1457.99471	1.17794
1456.06614	1.18499
1454.13758	1.18716
1452.20902	1.18654
1450.28045	1.18482
1448.35189	1.18281
1446.42332	1.18080
1444.49476	1.17807
1442.56619	1.17467
1440.63763	1.17094
1438.70906	1.16656
1436.78050	1.16133
1434.85194	1.15563
1432.92337	1.14991
1430.99481	1.14462
1429.06624	1.14121
1427.13768	1.14028
1425.20911	1.14101
1423.28055	1.14253
1421.35198	1.14439
1419.42342	1.14896
1417.49486	1.15580
1415.56629	1.15923
1413.63773	1.16014
1411.70916	1.16063
1409.78060	1.16179
1407.85203	1.16308
1405.92347	1.16412
1403.99490	1.16550
1402.06634	1.16646
1400.13778	1.16670
1398.20921	1.16688
1396.28065	1.16793
1394.35208	1.16985
1392.42352	1.17124
1390.49495	1.17289
1388.56639	1.17729
1386.63782	1.18507
1384.70926	1.19384
1382.78070	1.20275
1380.85213	1.21010
1378.92357	1.21281
1376.99500	1.21113
1375.06644	1.20638
1373.13787	1.19848
1371.20931	1.18891
1369.28074	1.17750
1367.35218	1.16432
1365.42362	1.15192
1363.49505	1.14053
1361.56649	1.13060
1359.63792	1.12337
1357.70936	1.11795
1355.78079	1.11395
1353.85223	1.11106
1351.92366	1.10870
1349.99510	1.10667
1348.06654	1.10464
1346.13797	1.10263
1344.20941	1.10078
1342.28084	1.09874
1340.35228	1.09749
1338.42371	1.09892
1336.49515	1.10200
1334.56659	1.10577
1332.63802	1.11140
1330.70946	1.11880
1328.78089	1.12591
1326.85233	1.13146
1324.92376	1.13557
1322.99520	1.13887
1321.06663	1.14248
1319.13807	1.14676
1317.20951	1.15079
1315.28094	1.15416
1313.35238	1.15705
1311.42381	1.15904
1309.49525	1.16027
1307.56668	1.16136
1305.63812	1.16201
1303.70955	1.16184
1301.78099	1.16097
1299.85243	1.15916
1297.92386	1.15589
1295.99530	1.15126
1294.06673	1.14653
1292.13817	1.14304
1290.20960	1.14076
1288.28104	1.13875
1286.35247	1.13669
1284.42391	1.13481
1282.49535	1.13322
1280.56678	1.13219
1278.63822	1.13232
1276.70965	1.13367
1274.78109	1.13612
1272.85252	1.13977
1270.92396	1.14460
1268.99539	1.15039
1267.06683	1.15667
1265.13827	1.16229
1263.20970	1.16657
1261.28114	1.17013
1259.35257	1.17339
1257.42401	1.17636
1255.49544	1.17980
1253.56688	1.18370
1251.63831	1.18696
1249.70975	1.18944
1247.78119	1.19145
1245.85262	1.19275
1243.92406	1.19355
1241.99549	1.19408
1240.06693	1.19352
1238.13836	1.19129
1236.20980	1.18744
1234.28123	1.18215
1232.35267	1.17544
1230.42411	1.16748
1228.49554	1.15878
1226.56698	1.14949
1224.63841	1.14050
1222.70985	1.13254
1220.78128	1.12420
1218.85272	1.11495
1216.92415	1.10703
1214.99559	1.10208
1213.06703	1.09970
1211.13846	1.09927
1209.20990	1.09993
1207.28133	1.09987
1205.35277	1.09812
1203.42420	1.09505
1201.49564	1.09086
1199.56708	1.08581
1197.63851	1.08104
1195.70995	1.07724
1193.78138	1.07442
1191.85282	1.07245
1189.92425	1.07116
1187.99569	1.07063
1186.06712	1.07092
1184.13856	1.07175
1182.21000	1.07285
1180.28143	1.07481
1178.35287	1.07883
1176.42430	1.08457
1174.49574	1.09033
1172.56717	1.09580
1170.63861	1.10197
1168.71004	1.10908
1166.78148	1.11693
1164.85292	1.12504
1162.92435	1.13164
1160.99579	1.13485
1159.06722	1.13397
1157.13866	1.12881
1155.21009	1.11964
1153.28153	1.10823
1151.35296	1.09678
1149.42440	1.08653
1147.49584	1.07843
1145.56727	1.07309
1143.63871	1.07128
1141.71014	1.07453
1139.78158	1.08313
1137.85301	1.09528
1135.92445	1.10898
1133.99588	1.12320
1132.06732	1.13750
1130.13876	1.15283
1128.21019	1.16968
1126.28163	1.18613
1124.35306	1.20032
1122.42450	1.21162
1120.49593	1.21971
1118.56737	1.22408
1116.63880	1.22335
1114.71024	1.21794
1112.78168	1.21130
1110.85311	1.20570
1108.92455	1.20061
1106.99598	1.19556
1105.06742	1.19033
1103.13885	1.18568
1101.21029	1.18391
1099.28172	1.18578
1097.35316	1.19027
1095.42460	1.19679
1093.49603	1.20523
1091.56747	1.21639
1089.63890	1.23039
1087.71034	1.24472
1085.78177	1.25808
1083.85321	1.27107
1081.92464	1.28029
1079.99608	1.28310
1078.06752	1.28304
1076.13895	1.28182
1074.21039	1.27804
1072.28182	1.27294
1070.35326	1.26815
1068.42469	1.26353
1066.49613	1.25898
1064.56756	1.25347
1062.63900	1.24643
1060.71044	1.23949
1058.78187	1.23228
1056.85331	1.22356
1054.92474	1.21490
1052.99618	1.20688
1051.06761	1.19909
1049.13905	1.19252
1047.21049	1.18679
1045.28192	1.18119
1043.35336	1.17747
1041.42479	1.17681
1039.49623	1.17684
1037.56766	1.17508
1035.63910	1.17139
1033.71053	1.16576
1031.78197	1.15797
1029.85341	1.14880
1027.92484	1.13880
1025.99628	1.12759
1024.06771	1.11596
1022.13915	1.10567
1020.21058	1.09696
1018.28202	1.08953
1016.35345	1.08365
1014.42489	1.07858
1012.49633	1.07197
1010.56776	1.06252
1008.63920	1.05198
1006.71063	1.04199
1004.78207	1.03238
1002.85350	1.02372
1000.92494	1.01703
998.99637	1.01232
997.06781	1.00923
995.13925	1.00720
993.21068	1.00473
991.28212	1.00086
989.35355	0.99574
987.42499	0.98876
985.49642	0.98011
983.56786	0.97214
981.63929	0.96632
979.71073	0.96219
977.78217	0.95831
975.85360	0.95306
973.92504	0.94612
971.99647	0.93858
970.06791	0.93134
968.13934	0.92480
966.21078	0.92001
964.28221	0.91818
962.35365	0.92007
960.42509	0.92638
958.49652	0.93649
956.56796	0.94685
954.63939	0.95359
952.71083	0.95534
950.78226	0.95306
948.85370	0.94949
946.92513	0.94680
944.99657	0.94510
943.06801	0.94385
941.13944	0.94280
939.21088	0.94200
937.28231	0.94166
935.35375	0.94130
933.42518	0.94012
931.49662	0.93818
929.56805	0.93560
927.63949	0.93279
925.71093	0.93143
923.78236	0.93179
921.85380	0.93176
919.92523	0.93027
917.99667	0.92834
916.06810	0.92684
914.13954	0.92571
912.21098	0.92496
910.28241	0.92506
908.35385	0.92658
906.42528	0.92963
904.49672	0.93328
902.56815	0.93658
900.63959	0.93957
898.71102	0.94185
896.78246	0.94262
894.85390	0.94230
892.92533	0.94119
890.99677	0.93881
889.06820	0.93542
887.13964	0.93213
885.21107	0.92959
883.28251	0.92746
881.35394	0.92567
879.42538	0.92522
877.49682	0.92661
875.56825	0.92835
873.63969	0.92877
871.71112	0.92856
869.78256	0.92894
867.85399	0.93048
865.92543	0.93346
863.99686	0.93730
862.06830	0.94162
860.13974	0.94648
858.21117	0.95144
856.28261	0.95690
854.35404	0.96383
852.42548	0.97125
850.49691	0.97746
848.56835	0.98202
846.63978	0.98453
844.71122	0.98544
842.78266	0.98622
840.85409	0.98711
838.92553	0.98713
836.99696	0.98536
835.06840	0.98189
833.13983	0.97801
831.21127	0.97487
829.28270	0.97245
827.35414	0.96977
825.42558	0.96605
823.49701	0.96202
821.56845	0.95839
819.63988	0.95486
817.71132	0.95209
815.78275	0.95121
813.85419	0.95222
811.92562	0.95430
809.99706	0.95699
808.06850	0.96038
806.13993	0.96379
804.21137	0.96657
802.28280	0.96960
800.35424	0.97418
798.42567	0.98047
796.49711	0.98693
794.56854	0.99174
792.63998	0.99479
790.71142	0.99743
788.78285	1.00026
786.85429	1.00162
784.92572	1.00027
782.99716	0.99758
781.06859	0.99495
779.14003	0.99165
777.21147	0.98640
775.28290	0.98016
773.35434	0.97456
771.42577	0.96897
769.49721	0.96248
767.56864	0.95622
765.64008	0.95128
763.71151	0.94735
761.78295	0.94505
759.85439	0.94579
757.92582	0.94879
755.99726	0.95191
754.06869	0.95524
752.14013	0.96060
750.21156	0.96840
748.28300	0.97754
746.35443	0.98721
744.42587	0.99667
742.49731	1.00532
740.56874	1.01354
738.64018	1.02126
736.71161	1.02791
734.78305	1.03420
732.85448	1.04113
730.92592	1.04756
728.99735	1.05177
727.06879	1.05439
725.14023	1.05577
723.21166	1.05502
721.28310	1.05284
719.35453	1.04970
717.42597	1.04427
715.49740	1.03738
713.56884	1.03108
711.64027	1.02447
709.71171	1.01727
707.78315	1.01157
705.85458	1.00803
703.92602	1.00534
701.99745	1.00168
700.06889	0.99793
698.14032	0.99636
696.21176	0.99620
694.28319	0.99565
692.35463	0.99517
690.42607	0.99671
688.49750	1.00146
686.56894	1.00835
684.64037	1.01513
682.71181	1.02106
680.78324	1.02773
678.85468	1.03670
676.92611	1.04694
674.99755	1.05626
673.06899	1.06408
671.14042	1.07150
669.21186	1.08459
667.28329	1.10181
665.35473	1.10581
663.42616	1.10389
661.49760	1.10312
659.56903	1.10164
657.64047	1.09676
655.71191	1.08974
653.78334	1.08113
651.85478	1.07055
649.92621	1.06003
647.99765	1.05128
646.06908	1.04312
644.14052	1.03472
642.21195	1.02715
640.28339	1.02150
638.35483	1.01778
636.42626	1.01580
634.49770	1.01452
632.56913	1.01146
630.64057	1.00682
628.71200	1.00435
626.78344	1.00596
624.85488	1.00909
622.92631	1.01109
620.99775	1.01357
619.06918	1.01839
617.14062	1.02292
615.21205	1.02310
613.28349	1.02217
611.35492	1.02516
609.42636	1.02993
607.49780	1.03282
605.56923	1.03158
603.64067	1.02531
601.71210	1.01753
599.78354	1.01052
