3997.91406	0.73807
3995.98550	0.73681
3994.05693	0.73624
3992.12837	0.73727
3990.19980	0.73814
3988.27124	0.73734
3986.34268	0.73579
3984.41411	0.73467
3982.48555	0.73394
3980.55698	0.73332
3978.62842	0.73334
3976.69985	0.73411
3974.77129	0.73472
3972.84272	0.73444
3970.91416	0.73305
3968.98560	0.73144
3967.05703	0.73087
3965.12847	0.73058
3963.19990	0.72977
3961.27134	0.72945
3959.34277	0.72915
3957.41421	0.72790
3955.48564	0.72683
3953.55708	0.72615
3951.62852	0.72494
3949.69995	0.72440
3947.77139	0.72497
3945.84282	0.72434
3943.91426	0.72296
3941.98569	0.72236
3940.05713	0.72184
3938.12856	0.72096
3936.20000	0.71912
3934.27144	0.71747
3932.34287	0.71941
3930.41431	0.72217
3928.48574	0.72048
3926.55718	0.71696
3924.62861	0.71596
3922.70005	0.71631
3920.77148	0.71597
3918.84292	0.71677
3916.91436	0.71826
3914.98579	0.71719
3913.05723	0.71444
3911.12866	0.71287
3909.20010	0.71220
3907.27153	0.71116
3905.34297	0.71142
3903.41440	0.71265
3901.48584	0.71282
3899.55728	0.71512
3897.62871	0.71592
3895.70015	0.71080
3893.77158	0.70592
3891.84302	0.70973
3889.91445	0.71265
3887.98589	0.70765
3886.05733	0.70541
3884.12876	0.70739
3882.20020	0.70784
3880.27163	0.70966
3878.34307	0.70704
3876.41450	0.70031
3874.48594	0.69722
3872.55737	0.69780
3870.62881	0.69996
3868.70025	0.70115
3866.77168	0.69829
3864.84312	0.69827
3862.91455	0.70258
3860.98599	0.70274
3859.05742	0.69778
3857.12886	0.68978
3855.20029	0.68509
3853.27173	0.69696
3851.34317	0.70535
3849.41460	0.70160
3847.48604	0.69552
3845.55747	0.69003
3843.62891	0.68706
3841.70034	0.68576
3839.77178	0.68611
3837.84321	0.69150
3835.91465	0.69597
3833.98609	0.69553
3832.05752	0.69362
3830.12896	0.69117
3828.20039	0.68842
3826.27183	0.68645
3824.34326	0.68377
3822.41470	0.68523
3820.48613	0.69398
3818.55757	0.69415
3816.62901	0.69280
3814.70044	0.69502
3812.77188	0.69153
3810.84331	0.68401
3808.91475	0.67917
3806.98618	0.68257
3805.05762	0.68541
3803.12905	0.68396
3801.20049	0.68693
3799.27193	0.68756
3797.34336	0.68587
3795.41480	0.68660
3793.48623	0.68541
3791.55767	0.68294
3789.62910	0.68187
3787.70054	0.68196
3785.77197	0.68329
3783.84341	0.68326
3781.91485	0.68010
3779.98628	0.67978
3778.05772	0.68280
3776.12915	0.68182
3774.20059	0.67759
3772.27202	0.67434
3770.34346	0.67504
3768.41489	0.67632
3766.48633	0.67579
3764.55777	0.67496
3762.62920	0.67103
3760.70064	0.66822
3758.77207	0.67267
3756.84351	0.67491
3754.91494	0.67041
3752.98638	0.66753
3751.05781	0.67502
3749.12925	0.67971
3747.20069	0.67561
3745.27212	0.67779
3743.34356	0.68308
3741.41499	0.67761
3739.48643	0.66724
3737.55786	0.66056
3735.62930	0.66550
3733.70074	0.67580
3731.77217	0.67667
3729.84361	0.67129
3727.91504	0.66677
3725.98648	0.66665
3724.05791	0.66875
3722.12935	0.67032
3720.20078	0.67037
3718.27222	0.66797
3716.34366	0.66368
3714.41509	0.65859
3712.48653	0.65843
3710.55796	0.66772
3708.62940	0.67231
3706.70083	0.66989
3704.77227	0.66650
3702.84370	0.66689
3700.91514	0.67069
3698.98658	0.67135
3697.05801	0.66893
3695.12945	0.66564
3693.20088	0.66208
3691.27232	0.66231
3689.34375	0.67223
3687.41519	0.67939
3685.48662	0.67772
3683.55806	0.67409
3681.62950	0.67140
3679.70093	0.66906
3677.77237	0.66813
3675.84380	0.67663
3673.91524	0.68341
3671.98667	0.68136
3670.05811	0.68819
3668.12954	0.69781
3666.20098	0.69749
3664.27242	0.69477
3662.34385	0.69392
3660.41529	0.69401
3658.48672	0.69554
3656.55816	0.70221
3654.62959	0.70688
3652.70103	0.70398
3650.77246	0.70554
3648.84390	0.72594
3646.91534	0.73834
3644.98677	0.73719
3643.05821	0.73654
3641.12964	0.74013
3639.20108	0.74518
3637.27251	0.74892
3635.34395	0.75231
3633.41538	0.75523
3631.48682	0.75755
3629.55826	0.76967
3627.62969	0.78659
3625.70113	0.78727
3623.77256	0.78261
3621.84400	0.78067
3619.91543	0.78627
3617.98687	0.79585
3616.05830	0.79931
3614.12974	0.80241
3612.20118	0.80893
3610.27261	0.81420
3608.34405	0.82038
3606.41548	0.82773
3604.48692	0.83114
3602.55835	0.83293
3600.62979	0.83676
3598.70123	0.84203
3596.77266	0.84811
3594.84410	0.85523
3592.91553	0.86002
3590.98697	0.86073
3589.05840	0.86394
3587.12984	0.87633
3585.20127	0.88573
3583.27271	0.88690
3581.34415	0.88696
3579.41558	0.88893
3577.48702	0.89280
3575.55845	0.89859
3573.62989	0.90474
3571.70132	0.90867
3569.77276	0.91104
3567.84419	0.91850
3565.91563	0.93310
3563.98707	0.94272
3562.05850	0.94698
3560.12994	0.94971
3558.20137	0.95237
3556.27281	0.95570
3554.34424	0.96107
3552.41568	0.96851
3550.48711	0.97371
3548.55855	0.97697
3546.62999	0.98376
3544.70142	0.99329
3542.77286	0.99991
3540.84429	1.00450
3538.91573	1.01043
3536.98716	1.01828
3535.05860	1.02528
3533.13003	1.02943
3531.20147	1.03255
3529.27291	1.03721
3527.34434	1.04339
3525.41578	1.04908
3523.48721	1.05544
3521.55865	1.06329
3519.63008	1.06979
3517.70152	1.07505
3515.77295	1.08172
3513.84439	1.09068
3511.91583	1.10113
3509.98726	1.11253
3508.05870	1.12239
3506.13013	1.12878
3504.20157	1.13539
3502.27300	1.14295
3500.34444	1.14934
3498.41587	1.15729
3496.48731	1.16725
3494.55875	1.17534
3492.63018	1.18057
3490.70162	1.18579
3488.77305	1.19180
3486.84449	1.19746
3484.91592	1.20246
3482.98736	1.20641
3481.05879	1.20949
3479.13023	1.21274
3477.20167	1.21667
3475.27310	1.22117
3473.34454	1.22643
3471.41597	1.23144
3469.48741	1.23436
3467.55884	1.23597
3465.63028	1.23831
3463.70171	1.24110
3461.77315	1.24419
3459.84459	1.25103
3457.91602	1.26062
3455.98746	1.26542
3454.05889	1.26519
3452.13033	1.26804
3450.20176	1.27591
3448.27320	1.28378
3446.34464	1.28894
3444.41607	1.29235
3442.48751	1.29501
3440.55894	1.29771
3438.63038	1.30120
3436.70181	1.30423
3434.77325	1.30458
3432.84468	1.30338
3430.91612	1.30296
3428.98756	1.30243
3427.05899	1.29988
3425.13043	1.29730
3423.20186	1.29808
3421.27330	1.30194
3419.34473	1.30609
3417.41617	1.30839
3415.48760	1.31054
3413.55904	1.31442
3411.63048	1.31736
3409.70191	1.31812
3407.77335	1.31795
3405.84478	1.31607
3403.91622	1.31394
3401.98765	1.31539
3400.05909	1.31946
3398.13052	1.32291
3396.20196	1.32623
3394.27340	1.33034
3392.34483	1.33322
3390.41627	1.33385
3388.48770	1.33399
3386.55914	1.33294
3384.63057	1.33020
3382.70201	1.32957
3380.77344	1.33281
3378.84488	1.33776
3376.91632	1.34205
3374.98775	1.34365
3373.05919	1.34185
3371.13062	1.34108
3369.20206	1.34624
3367.27349	1.35357
3365.34493	1.35777
3363.41636	1.36147
3361.48780	1.36726
3359.55924	1.37252
3357.63067	1.37657
3355.70211	1.38162
3353.77354	1.38559
3351.84498	1.38527
3349.91641	1.38531
3347.98785	1.39039
3346.05928	1.39462
3344.13072	1.39385
3342.20216	1.39362
3340.27359	1.39633
3338.34503	1.40191
3336.41646	1.40961
3334.48790	1.41449
3332.55933	1.41835
3330.63077	1.42557
3328.70220	1.43264
3326.77364	1.43611
3324.84508	1.43824
3322.91651	1.44359
3320.98795	1.45288
3319.05938	1.46259
3317.13082	1.46916
3315.20225	1.47040
3313.27369	1.46804
3311.34513	1.46694
3309.41656	1.47145
3307.48800	1.47959
3305.55943	1.48414
3303.63087	1.48587
3301.70230	1.49118
3299.77374	1.49790
3297.84517	1.50102
3295.91661	1.50470
3293.98805	1.50971
3292.05948	1.51024
3290.13092	1.50841
3288.20235	1.50815
3286.27379	1.50910
3284.34522	1.50790
3282.41666	1.50012
3280.48809	1.49047
3278.55953	1.48742
3276.63097	1.48999
3274.70240	1.49036
3272.77384	1.48698
3270.84527	1.48403
3268.91671	1.47920
3266.98814	1.46788
3265.05958	1.45444
3263.13101	1.44606
3261.20245	1.44276
3259.27389	1.44191
3257.34532	1.43970
3255.41676	1.43053
3253.48819	1.41780
3251.55963	1.41007
3249.63106	1.40645
3247.70250	1.39929
3245.77393	1.38618
3243.84537	1.37367
3241.91681	1.36730
3239.98824	1.36399
3238.05968	1.35796
3236.13111	1.34937
3234.20255	1.34195
3232.27398	1.33573
3230.34542	1.32916
3228.41685	1.32277
3226.48829	1.31797
3224.55973	1.31622
3222.63116	1.31515
3220.70260	1.31062
3218.77403	1.30663
3216.84547	1.30693
3214.91690	1.30516
3212.98834	1.29847
3211.05977	1.29232
3209.13121	1.28742
3207.20265	1.28002
3205.27408	1.27195
3203.34552	1.26722
3201.41695	1.26320
3199.48839	1.25681
3197.55982	1.25037
3195.63126	1.24582
3193.70269	1.24305
3191.77413	1.24107
3189.84557	1.23812
3187.91700	1.23375
3185.98844	1.22868
3184.05987	1.22368
3182.13131	1.21961
3180.20274	1.21620
3178.27418	1.21174
3176.34562	1.20607
3174.41705	1.20147
3172.48849	1.19881
3170.55992	1.19613
3168.63136	1.19102
3166.70279	1.18451
3164.77423	1.17930
3162.84566	1.17472
3160.91710	1.16968
3158.98854	1.16470
3157.05997	1.15983
3155.13141	1.15568
3153.20284	1.15233
3151.27428	1.14966
3149.34571	1.14815
3147.41715	1.14591
3145.48858	1.14144
3143.56002	1.13767
3141.63146	1.13736
3139.70289	1.13818
3137.77433	1.13649
3135.84576	1.13291
3133.91720	1.13052
3131.98863	1.13067
3130.06007	1.13198
3128.13150	1.13173
3126.20294	1.12921
3124.27438	1.12690
3122.34581	1.12573
3120.41725	1.12496
3118.48868	1.12586
3116.56012	1.12804
3114.63155	1.12863
3112.70299	1.12742
3110.77442	1.12568
3108.84586	1.12406
3106.91730	1.12402
3104.98873	1.12479
3103.06017	1.12352
3101.13160	1.12129
3099.20304	1.12101
3097.27447	1.12168
3095.34591	1.12100
3093.41734	1.11916
3091.48878	1.11762
3089.56022	1.11666
3087.63165	1.11579
3085.70309	1.11453
3083.77452	1.11251
3081.84596	1.11006
3079.91739	1.10820
3077.98883	1.10720
3076.06026	1.10609
3074.13170	1.10400
3072.20314	1.10098
3070.27457	1.09756
3068.34601	1.09389
3066.41744	1.09053
3064.48888	1.08810
3062.56031	1.08526
3060.63175	1.08080
3058.70318	1.07583
3056.77462	1.07178
3054.84606	1.06800
3052.91749	1.06392
3050.98893	1.06093
3049.06036	1.05903
3047.13180	1.05674
3045.20323	1.05346
3043.27467	1.04962
3041.34610	1.04629
3039.41754	1.04329
3037.48898	1.03911
3035.56041	1.03351
3033.63185	1.02834
3031.70328	1.02469
3029.77472	1.02161
3027.84615	1.01873
3025.91759	1.01593
3023.98903	1.01253
3022.06046	1.00943
3020.13190	1.00752
3018.20333	1.00500
3016.27477	1.00049
3014.34620	0.99606
3012.41764	0.99374
3010.48907	0.99259
3008.56051	0.99155
3006.63195	0.99073
3004.70338	0.98942
3002.77482	0.98725
3000.84625	0.98562
2998.91769	0.98539
2996.98912	0.98623
2995.06056	0.98772
2993.13199	0.99031
2991.20343	0.99480
2989.27487	1.00020
2987.34630	1.00512
2985.41774	1.01017
2983.48917	1.01576
2981.56061	1.02124
2979.63204	1.02681
2977.70348	1.03347
2975.77491	1.04146
2973.84635	1.05032
2971.91779	1.05966
2969.98922	1.06846
2968.06066	1.07620
2966.13209	1.08315
2964.20353	1.08905
2962.27496	1.09435
2960.34640	1.09797
2958.41783	1.09707
2956.48927	1.09200
2954.56071	1.08511
2952.63214	1.07838
2950.70358	1.07339
2948.77501	1.07004
2946.84645	1.06862
2944.91788	1.07109
2942.98932	1.07805
2941.06075	1.08773
2939.13219	1.09915
2937.20363	1.11241
2935.27506	1.12626
2933.34650	1.13937
2931.41793	1.15239
2929.48937	1.16629
2927.56080	1.18008
2925.63224	1.19157
2923.70367	1.20004
2921.77511	1.20604
2919.84655	1.20829
2917.91798	1.20206
2915.98942	1.18273
2914.06085	1.15245
2912.13229	1.12071
2910.20372	1.09526
2908.27516	1.07640
2906.34659	1.06117
2904.41803	1.04861
2902.48947	1.03920
2900.56090	1.03261
2898.63234	1.02762
2896.70377	1.02275
2894.77521	1.01782
2892.84664	1.01385
2890.91808	1.00999
2888.98952	1.00419
2887.06095	0.99719
2885.13239	0.99192
2883.20382	0.98954
2881.27526	0.98874
2879.34669	0.98822
2877.41813	0.98723
2875.48956	0.98513
2873.56100	0.98230
2871.63244	0.97928
2869.70387	0.97510
2867.77531	0.96950
2865.84674	0.96454
2863.91818	0.96176
2861.98961	0.96162
2860.06105	0.96565
2858.13248	0.97456
2856.20392	0.98660
2854.27536	1.00055
2852.34679	1.01525
2850.41823	1.02302
2848.48966	1.01208
2846.56110	0.98257
2844.63253	0.94820
2842.70397	0.92001
2840.77540	0.90030
2838.84684	0.88713
2836.91828	0.87821
2834.98971	0.87151
2833.06115	0.86489
2831.13258	0.85791
2829.20402	0.85204
2827.27545	0.84730
2825.34689	0.84184
2823.41832	0.83574
2821.48976	0.83082
2819.56120	0.82714
2817.63263	0.82365
2815.70407	0.82046
2813.77550	0.81772
2811.84694	0.81474
2809.91837	0.81167
2807.98981	0.80930
2806.06124	0.80756
2804.13268	0.80597
2802.20412	0.80398
2800.27555	0.80137
2798.34699	0.79855
2796.41842	0.79578
2794.48986	0.79296
2792.56129	0.79028
2790.63273	0.78828
2788.70416	0.78658
2786.77560	0.78448
2784.84704	0.78207
2782.91847	0.77940
2780.98991	0.77642
2779.06134	0.77355
2777.13278	0.77094
2775.20421	0.76825
2773.27565	0.76568
2771.34708	0.76367
2769.41852	0.76191
2767.48996	0.75995
2765.56139	0.75803
2763.63283	0.75656
2761.70426	0.75558
2759.77570	0.75482
2757.84713	0.75388
2755.91857	0.75237
2753.99001	0.75051
2752.06144	0.74875
2750.13288	0.74729
2748.20431	0.74604
2746.27575	0.74489
2744.34718	0.74369
2742.41862	0.74258
2740.49005	0.74178
2738.56149	0.74039
2736.63293	0.73764
2734.70436	0.73470
2732.77580	0.73242
2730.84723	0.73008
2728.91867	0.72776
2726.99010	0.72602
2725.06154	0.72458
2723.13297	0.72301
2721.20441	0.72127
2719.27585	0.71935
2717.34728	0.71742
2715.41872	0.71565
2713.49015	0.71397
2711.56159	0.71258
2709.63302	0.71176
2707.70446	0.71111
2705.77589	0.71038
2703.84733	0.70990
2701.91877	0.70932
2699.99020	0.70805
2698.06164	0.70651
2696.13307	0.70537
2694.20451	0.70431
2692.27594	0.70284
2690.34738	0.70127
2688.41881	0.69998
2686.49025	0.69891
2684.56169	0.69781
2682.63312	0.69647
2680.70456	0.69481
2678.77599	0.69301
2676.84743	0.69125
2674.91886	0.68952
2672.99030	0.68794
2671.06173	0.68657
2669.13317	0.68555
2667.20461	0.68500
2665.27604	0.68453
2663.34748	0.68370
2661.41891	0.68260
2659.49035	0.68172
2657.56178	0.68126
2655.63322	0.68092
2653.70465	0.68044
2651.77609	0.67972
2649.84753	0.67858
2647.91896	0.67743
2645.99040	0.67704
2644.06183	0.67697
2642.13327	0.67613
2640.20470	0.67474
2638.27614	0.67346
2636.34757	0.67214
2634.41901	0.67073
2632.49045	0.66950
2630.56188	0.66842
2628.63332	0.66746
2626.70475	0.66637
2624.77619	0.66478
2622.84762	0.66324
2620.91906	0.66210
2618.99049	0.66083
2617.06193	0.65966
2615.13337	0.65912
2613.20480	0.65886
2611.27624	0.65853
2609.34767	0.65819
2607.41911	0.65787
2605.49054	0.65755
2603.56198	0.65731
2601.63342	0.65696
2599.70485	0.65611
2597.77629	0.65497
2595.84772	0.65411
2593.91916	0.65359
2591.99059	0.65295
2590.06203	0.65175
2588.13346	0.65035
2586.20490	0.64926
2584.27634	0.64812
2582.34777	0.64660
2580.41921	0.64516
2578.49064	0.64418
2576.56208	0.64328
2574.63351	0.64225
2572.70495	0.64137
2570.77638	0.64042
2568.84782	0.63910
2566.91926	0.63786
2564.99069	0.63713
2563.06213	0.63682
2561.13356	0.63666
2559.20500	0.63620
2557.27643	0.63515
2555.34787	0.63397
2553.41930	0.63327
2551.49074	0.63282
2549.56218	0.63188
2547.63361	0.63041
2545.70505	0.62918
2543.77648	0.62831
2541.84792	0.62731
2539.91935	0.62644
2537.99079	0.62587
2536.06222	0.62479
2534.13366	0.62301
2532.20510	0.62131
2530.27653	0.62018
2528.34797	0.61953
2526.41940	0.61881
2524.49084	0.61770
2522.56227	0.61655
2520.63371	0.61565
2518.70514	0.61503
2516.77658	0.61464
2514.84802	0.61430
2512.91945	0.61388
2510.99089	0.61365
2509.06232	0.61356
2507.13376	0.61313
2505.20519	0.61228
2503.27663	0.61137
2501.34806	0.61034
2499.41950	0.60910
2497.49094	0.60803
2495.56237	0.60740
2493.63381	0.60677
2491.70524	0.60551
2489.77668	0.60377
2487.84811	0.60228
2485.91955	0.60116
2483.99098	0.60011
2482.06242	0.59939
2480.13386	0.59916
2478.20529	0.59877
2476.27673	0.59781
2474.34816	0.59680
2472.41960	0.59607
2470.49103	0.59551
2468.56247	0.59507
2466.63391	0.59467
2464.70534	0.59409
2462.77678	0.59324
2460.84821	0.59234
2458.91965	0.59161
2456.99108	0.59113
2455.06252	0.59093
2453.13395	0.59070
2451.20539	0.58983
2449.27683	0.58829
2447.34826	0.58660
2445.41970	0.58509
2443.49113	0.58407
2441.56257	0.58351
2439.63400	0.58279
2437.70544	0.58170
2435.77687	0.58044
2433.84831	0.57912
2431.91975	0.57796
2429.99118	0.57706
2428.06262	0.57630
2426.13405	0.57552
2424.20549	0.57452
2422.27692	0.57333
2420.34836	0.57229
2418.41979	0.57146
2416.49123	0.57064
2414.56267	0.56972
2412.63410	0.56879
2410.70554	0.56794
2408.77697	0.56697
2406.84841	0.56589
2404.91984	0.56500
2402.99128	0.56421
2401.06271	0.56326
2399.13415	0.56220
2397.20559	0.56129
2395.27702	0.56041
2393.34846	0.55930
2391.41989	0.55804
2389.49133	0.55705
2387.56276	0.55646
2385.63420	0.55572
2383.70563	0.55447
2381.77707	0.55312
2379.84851	0.55200
2377.91994	0.55103
2375.99138	0.55015
2374.06281	0.54936
2372.13425	0.54881
2370.20568	0.54881
2368.27712	0.54883
2366.34855	0.54757
2364.41999	0.54579
2362.49143	0.54520
2360.56286	0.54594
2358.63430	0.54746
2356.70573	0.54820
2354.77717	0.54803
2352.84860	0.54742
2350.92004	0.54510
2348.99147	0.54160
2347.06291	0.53939
2345.13435	0.54079
2343.20578	0.54357
2341.27722	0.54320
2339.34865	0.54132
2337.42009	0.54053
2335.49152	0.54020
2333.56296	0.53908
2331.63440	0.53791
2329.70583	0.53738
2327.77727	0.53660
2325.84870	0.53550
2323.92014	0.53484
2321.99157	0.53441
2320.06301	0.53412
2318.13444	0.53409
2316.20588	0.53385
2314.27732	0.53327
2312.34875	0.53252
2310.42019	0.53184
2308.49162	0.53137
2306.56306	0.53091
2304.63449	0.53061
2302.70593	0.53061
2300.77736	0.53031
2298.84880	0.52963
2296.92024	0.52913
2294.99167	0.52869
2293.06311	0.52816
2291.13454	0.52770
2289.20598	0.52707
2287.27741	0.52608
2285.34885	0.52500
2283.42028	0.52391
2281.49172	0.52277
2279.56316	0.52188
2277.63459	0.52131
2275.70603	0.52060
2273.77746	0.51959
2271.84890	0.51861
2269.92033	0.51771
2267.99177	0.51665
2266.06320	0.51551
2264.13464	0.51468
2262.20608	0.51436
2260.27751	0.51419
2258.34895	0.51369
2256.42038	0.51305
2254.49182	0.51259
2252.56325	0.51219
2250.63469	0.51187
2248.70612	0.51170
2246.77756	0.51144
2244.84900	0.51105
2242.92043	0.51062
2240.99187	0.51005
2239.06330	0.50947
2237.13474	0.50910
2235.20617	0.50886
2233.27761	0.50856
2231.34904	0.50817
2229.42048	0.50783
2227.49192	0.50755
2225.56335	0.50718
2223.63479	0.50681
2221.70622	0.50657
2219.77766	0.50642
2217.84909	0.50638
2215.92053	0.50653
2213.99196	0.50684
2212.06340	0.50721
2210.13484	0.50749
2208.20627	0.50770
2206.27771	0.50790
2204.34914	0.50793
2202.42058	0.50780
2200.49201	0.50760
2198.56345	0.50731
2196.63488	0.50688
2194.70632	0.50621
2192.77776	0.50539
2190.84919	0.50459
2188.92063	0.50379
2186.99206	0.50303
2185.06350	0.50224
2183.13493	0.50124
2181.20637	0.50019
2179.27781	0.49932
2177.34924	0.49848
2175.42068	0.49755
2173.49211	0.49688
2171.56355	0.49657
2169.63498	0.49612
2167.70642	0.49545
2165.77785	0.49490
2163.84929	0.49451
2161.92073	0.49403
2159.99216	0.49346
2158.06360	0.49312
2156.13503	0.49304
2154.20647	0.49284
2152.27790	0.49224
2150.34934	0.49144
2148.42077	0.49084
2146.49221	0.49046
2144.56365	0.49014
2142.63508	0.48990
2140.70652	0.48961
2138.77795	0.48934
2136.84939	0.48920
2134.92082	0.48913
2132.99226	0.48910
2131.06369	0.48926
2129.13513	0.48966
2127.20657	0.49016
2125.27800	0.49074
2123.34944	0.49137
2121.42087	0.49196
2119.49231	0.49257
2117.56374	0.49332
2115.63518	0.49406
2113.70661	0.49448
2111.77805	0.49465
2109.84949	0.49475
2107.92092	0.49467
2105.99236	0.49433
2104.06379	0.49375
2102.13523	0.49293
2100.20666	0.49199
2098.27810	0.49114
2096.34953	0.49021
2094.42097	0.48887
2092.49241	0.48729
2090.56384	0.48592
2088.63528	0.48474
2086.70671	0.48343
2084.77815	0.48199
2082.84958	0.48066
2080.92102	0.47955
2078.99245	0.47861
2077.06389	0.47786
2075.13533	0.47722
2073.20676	0.47639
2071.27820	0.47534
2069.34963	0.47425
2067.42107	0.47332
2065.49250	0.47278
2063.56394	0.47224
2061.63537	0.47136
2059.70681	0.47048
2057.77825	0.46970
2055.84968	0.46887
2053.92112	0.46822
2051.99255	0.46775
2050.06399	0.46721
2048.13542	0.46656
2046.20686	0.46608
2044.27830	0.46595
2042.34973	0.46596
2040.42117	0.46583
2038.49260	0.46555
2036.56404	0.46542
2034.63547	0.46555
2032.70691	0.46582
2030.77834	0.46625
2028.84978	0.46674
2026.92122	0.46713
2024.99265	0.46738
2023.06409	0.46759
2021.13552	0.46764
2019.20696	0.46780
2017.27839	0.46831
2015.34983	0.46838
2013.42126	0.46761
2011.49270	0.46664
2009.56414	0.46584
2007.63557	0.46508
2005.70701	0.46406
2003.77844	0.46259
2001.84988	0.46090
1999.92131	0.45931
1997.99275	0.45781
1996.06418	0.45600
1994.13562	0.45404
1992.20706	0.45270
1990.27849	0.45173
1988.34993	0.45039
1986.42136	0.44885
1984.49280	0.44752
1982.56423	0.44654
1980.63567	0.44580
1978.70710	0.44517
1976.77854	0.44471
1974.84998	0.44430
1972.92141	0.44377
1970.99285	0.44306
1969.06428	0.44256
1967.13572	0.44264
1965.20715	0.44251
1963.27859	0.44170
1961.35002	0.44106
1959.42146	0.44082
1957.49290	0.44062
1955.56433	0.44049
1953.63577	0.44041
1951.70720	0.44021
1949.77864	0.43998
1947.85007	0.43975
1945.92151	0.43938
1943.99294	0.43939
1942.06438	0.44030
1940.13582	0.44080
1938.20725	0.44041
1936.27869	0.44011
1934.35012	0.44013
1932.42156	0.44015
1930.49299	0.44002
1928.56443	0.43975
1926.63586	0.43931
1924.70730	0.43911
1922.77874	0.43942
1920.85017	0.43916
1918.92161	0.43890
1916.99304	0.43937
1915.06448	0.43886
1913.13591	0.43719
1911.20735	0.43566
1909.27878	0.43476
1907.35022	0.43384
1905.42166	0.43233
1903.49309	0.43059
1901.56453	0.42897
1899.63596	0.42739
1897.70740	0.42592
1895.77883	0.42498
1893.85027	0.42411
1891.92171	0.42296
1889.99314	0.42279
1888.06458	0.42320
1886.13601	0.42278
1884.20745	0.42226
1882.27888	0.42204
1880.35032	0.42178
1878.42175	0.42146
1876.49319	0.42113
1874.56463	0.42062
1872.63606	0.41956
1870.70750	0.41882
1868.77893	0.42022
1866.85037	0.42171
1864.92180	0.42083
1862.99324	0.41937
1861.06467	0.41858
1859.13611	0.41836
1857.20755	0.41834
1855.27898	0.41833
1853.35042	0.41823
1851.42185	0.41790
1849.49329	0.41746
1847.56472	0.41698
1845.63616	0.41749
1843.70759	0.41977
1841.77903	0.42034
1839.85047	0.41884
1837.92190	0.41791
1835.99334	0.41789
1834.06477	0.41715
1832.13621	0.41599
1830.20764	0.41648
1828.27908	0.41744
1826.35051	0.41714
1824.42195	0.41709
1822.49339	0.41675
1820.56482	0.41555
1818.63626	0.41462
1816.70769	0.41387
1814.77913	0.41273
1812.85056	0.41183
1810.92200	0.41185
1808.99343	0.41180
1807.06487	0.41087
1805.13631	0.40957
1803.20774	0.40865
1801.27918	0.40909
1799.35061	0.40998
1797.42205	0.40963
1795.49348	0.40870
1793.56492	0.40941
1791.63635	0.41256
1789.70779	0.41327
1787.77923	0.41154
1785.85066	0.41065
1783.92210	0.41094
1781.99353	0.41156
1780.06497	0.41259
1778.13640	0.41283
1776.20784	0.41156
1774.27927	0.41109
1772.35071	0.41443
1770.42215	0.41819
1768.49358	0.41922
1766.56502	0.41925
1764.63645	0.41907
1762.70789	0.42098
1760.77932	0.42514
1758.85076	0.42844
1756.92220	0.43290
1754.99363	0.43780
1753.06507	0.44176
1751.13650	0.44954
1749.20794	0.46258
1747.27937	0.47344
1745.35081	0.48070
1743.42224	0.48681
1741.49368	0.49289
1739.56512	0.49873
1737.63655	0.50110
1735.70799	0.50121
1733.77942	0.50530
1731.85086	0.50902
1729.92229	0.50904
1727.99373	0.50898
1726.06516	0.50960
1724.13660	0.51205
1722.20804	0.51486
1720.27947	0.51674
1718.35091	0.52309
1716.42234	0.53888
1714.49378	0.55076
1712.56521	0.55766
1710.63665	0.56552
1708.70808	0.57597
1706.77952	0.59397
1704.85096	0.61987
1702.92239	0.64235
1700.99383	0.67430
1699.06526	0.72985
1697.13670	0.78446
1695.20813	0.83675
1693.27957	0.87326
1691.35100	0.90145
1689.42244	0.93812
1687.49388	0.97352
1685.56531	1.01002
1683.63675	1.07111
1681.70818	1.11614
1679.77962	1.14053
1677.85105	1.16448
1675.92249	1.19664
1673.99392	1.23178
1672.06536	1.25485
1670.13680	1.28069
1668.20823	1.31500
1666.27967	1.33446
1664.35110	1.34902
1662.42254	1.37032
1660.49397	1.38854
1658.56541	1.39702
1656.63684	1.39852
1654.70828	1.39919
1652.77972	1.40918
1650.85115	1.41450
1648.92259	1.41318
1646.99402	1.41391
1645.06546	1.41493
1643.13689	1.41173
1641.20833	1.40802
1639.27976	1.40412
1637.35120	1.40105
1635.42264	1.40027
1633.49407	1.39678
1631.56551	1.39006
1629.63694	1.38063
1627.70838	1.36941
1625.77981	1.35725
1623.85125	1.34417
1621.92269	1.32974
1619.99412	1.31447
1618.06556	1.29359
1616.13699	1.26262
1614.20843	1.23574
1612.27986	1.21300
1610.35130	1.18871
1608.42273	1.16439
1606.49417	1.14371
1604.56561	1.12718
1602.63704	1.11273
1600.70848	1.10011
1598.77991	1.09056
1596.85135	1.08450
1594.92278	1.08081
1592.99422	1.07866
1591.06565	1.07863
1589.13709	1.08111
1587.20853	1.08551
1585.27996	1.09127
1583.35140	1.09948
1581.42283	1.10947
1579.49427	1.11846
1577.56570	1.13005
1575.63714	1.14927
1573.70857	1.16172
1571.78001	1.16856
1569.85145	1.18219
1567.92288	1.19889
1565.99432	1.21024
1564.06575	1.21964
1562.13719	1.22557
1560.20862	1.23447
1558.28006	1.26346
1556.35149	1.27724
1554.42293	1.28003
1552.49437	1.28292
1550.56580	1.28654
1548.63724	1.29022
1546.70867	1.29179
1544.78011	1.29216
1542.85154	1.29333
1540.92298	1.29435
1538.99441	1.28948
1537.06585	1.28344
1535.13729	1.27896
1533.20872	1.27590
1531.28016	1.27141
1529.35159	1.26495
1527.42303	1.25846
1525.49446	1.25355
1523.56590	1.25056
1521.63733	1.24865
1519.70877	1.24770
1517.78021	1.24420
1515.85164	1.23385
1513.92308	1.21865
1511.99451	1.20289
1510.06595	1.18849
1508.13738	1.16866
1506.20882	1.13489
1504.28025	1.11281
1502.35169	1.09549
1500.42313	1.07558
1498.49456	1.05213
1496.56600	1.02591
1494.63743	1.00372
1492.70887	0.98672
1490.78030	0.96896
1488.85174	0.94827
1486.92317	0.93159
1484.99461	0.91964
1483.06605	0.91045
1481.13748	0.90362
1479.20892	0.89971
1477.28035	0.89909
1475.35179	0.90321
1473.42322	0.91664
1471.49466	0.93350
1469.56610	0.94088
1467.63753	0.94457
1465.70897	0.95138
1463.78040	0.95921
1461.85184	0.96112
1459.92327	0.96022
1457.99471	0.96544
1456.06614	0.97645
1454.13758	0.97849
1452.20902	0.97696
1450.28045	0.97532
1448.35189	0.97410
1446.42332	0.97232
1444.49476	0.96902
1442.56619	0.96476
1440.63763	0.95979
1438.70906	0.95412
1436.78050	0.94704
1434.85194	0.93794
1432.92337	0.92821
1430.99481	0.91804
1429.06624	0.90845
1427.13768	0.90122
1425.20911	0.89622
1423.28055	0.89272
1421.35198	0.89059
1419.42342	0.89157
1417.49486	0.89382
1415.56629	0.89241
1413.63773	0.88944
1411.70916	0.88713
1409.78060	0.88598
1407.85203	0.88574
1405.92347	0.88709
1403.99490	0.88982
1402.06634	0.89164
1400.13778	0.89345
1398.20921	0.89675
1396.28065	0.90061
1394.35208	0.90441
1392.42352	0.90704
1390.49495	0.90905
1388.56639	0.91414
1386.63782	0.92429
1384.70926	0.93462
1382.78070	0.94267
1380.85213	0.94846
1378.92357	0.94975
1376.99500	0.94593
1375.06644	0.93784
1373.13787	0.92604
1371.20931	0.91251
1369.28074	0.89736
1367.35218	0.88113
1365.42362	0.86612
1363.49505	0.85239
1361.56649	0.84083
1359.63792	0.83285
1357.70936	0.82735
1355.78079	0.82353
1353.85223	0.82143
1351.92366	0.82068
1349.99510	0.82075
1348.06654	0.82141
1346.13797	0.82236
1344.20941	0.82323
1342.28084	0.82394
1340.35228	0.82567
1338.42371	0.82902
1336.49515	0.83222
1334.56659	0.83509
1332.63802	0.83881
1330.70946	0.84353
1328.78089	0.84791
1326.85233	0.85047
1324.92376	0.85102
1322.99520	0.85071
1321.06663	0.85078
1319.13807	0.85136
1317.20951	0.85167
1315.28094	0.85156
1313.35238	0.85159
1311.42381	0.85154
1309.49525	0.85101
1307.56668	0.85016
1305.63812	0.84907
1303.70955	0.84806
1301.78099	0.84725
1299.85243	0.84602
1297.92386	0.84414
1295.99530	0.84222
1294.06673	0.84086
1292.13817	0.84073
1290.20960	0.84226
1288.28104	0.84490
1286.35247	0.84754
1284.42391	0.84941
1282.49535	0.85079
1280.56678	0.85249
1278.63822	0.85497
1276.70965	0.85805
1274.78109	0.86142
1272.85252	0.86550
1270.92396	0.87073
1268.99539	0.87646
1267.06683	0.88197
1265.13827	0.88652
1263.20970	0.88956
1261.28114	0.89155
1259.35257	0.89267
1257.42401	0.89261
1255.49544	0.89227
1253.56688	0.89262
1251.63831	0.89319
1249.70975	0.89353
1247.78119	0.89371
1245.85262	0.89361
1243.92406	0.89346
1241.99549	0.89320
1240.06693	0.89200
1238.13836	0.88946
1236.20980	0.88564
1234.28123	0.88074
1232.35267	0.87526
1230.42411	0.86937
1228.49554	0.86247
1226.56698	0.85411
1224.63841	0.84476
1222.70985	0.83496
1220.78128	0.82479
1218.85272	0.81459
1216.92415	0.80539
1214.99559	0.79800
1213.06703	0.79244
1211.13846	0.78866
1209.20990	0.78620
1207.28133	0.78344
1205.35277	0.77912
1203.42420	0.77323
1201.49564	0.76631
1199.56708	0.75883
1197.63851	0.75153
1195.70995	0.74534
1193.78138	0.74073
1191.85282	0.73805
1189.92425	0.73739
1187.99569	0.73804
1186.06712	0.73973
1184.13856	0.74274
1182.21000	0.74668
1180.28143	0.75152
1178.35287	0.75815
1176.42430	0.76664
1174.49574	0.77615
1172.56717	0.78591
1170.63861	0.79548
1168.71004	0.80499
1166.78148	0.81490
1164.85292	0.82482
1162.92435	0.83273
1160.99579	0.83698
1159.06722	0.83714
1157.13866	0.83258
1155.21009	0.82331
1153.28153	0.81101
1151.35296	0.79765
1149.42440	0.78403
1147.49584	0.77049
1145.56727	0.75809
1143.63871	0.74822
1141.71014	0.74149
1139.78158	0.73730
1137.85301	0.73460
1135.92445	0.73322
1133.99588	0.73385
1132.06732	0.73695
1130.13876	0.74250
1128.21019	0.74989
1126.28163	0.75791
1124.35306	0.76555
1122.42450	0.77228
1120.49593	0.77761
1118.56737	0.78100
1116.63880	0.78161
1114.71024	0.77845
1112.78168	0.77177
1110.85311	0.76386
1108.92455	0.75729
1106.99598	0.75290
1105.06742	0.74994
1103.13885	0.74797
1101.21029	0.74806
1099.28172	0.75147
1097.35316	0.75818
1095.42460	0.76762
1093.49603	0.77950
1091.56747	0.79332
1089.63890	0.80807
1087.71034	0.82323
1085.78177	0.83884
1083.85321	0.85427
1081.92464	0.86753
1079.99608	0.87682
1078.06752	0.88219
1076.13895	0.88338
1074.21039	0.87975
1072.28182	0.87279
1070.35326	0.86456
1068.42469	0.85544
1066.49613	0.84542
1064.56756	0.83559
1062.63900	0.82646
1060.71044	0.81717
1058.78187	0.80792
1056.85331	0.79994
1054.92474	0.79333
1052.99618	0.78748
1051.06761	0.78266
1049.13905	0.77941
1047.21049	0.77819
1045.28192	0.77949
1043.35336	0.78277
1041.42479	0.78661
1039.49623	0.78969
1037.56766	0.79117
1035.63910	0.79050
1033.71053	0.78757
1031.78197	0.78300
1029.85341	0.77674
1027.92484	0.76801
1025.99628	0.75694
1024.06771	0.74436
1022.13915	0.73103
1020.21058	0.71809
1018.28202	0.70629
1016.35345	0.69504
1014.42489	0.68320
1012.49633	0.67009
1010.56776	0.65563
1008.63920	0.64041
1006.71063	0.62556
1004.78207	0.61223
1002.85350	0.60138
1000.92494	0.59352
998.99637	0.58869
997.06781	0.58645
995.13925	0.58587
993.21068	0.58613
991.28212	0.58688
989.35355	0.58789
987.42499	0.58907
985.49642	0.59057
983.56786	0.59248
981.63929	0.59459
979.71073	0.59645
977.78217	0.59758
975.85360	0.59713
973.92504	0.59415
971.99647	0.58850
970.06791	0.58100
968.13934	0.57286
966.21078	0.56555
964.28221	0.56029
962.35365	0.55806
960.42509	0.55976
958.49652	0.56529
956.56796	0.57248
954.63939	0.57798
952.71083	0.57970
950.78226	0.57798
948.85370	0.57472
946.92513	0.57176
944.99657	0.57008
943.06801	0.56966
941.13944	0.56981
939.21088	0.56978
937.28231	0.56909
935.35375	0.56732
933.42518	0.56426
931.49662	0.56028
929.56805	0.55604
927.63949	0.55148
925.71093	0.54634
923.78236	0.54103
921.85380	0.53599
919.92523	0.53116
917.99667	0.52647
916.06810	0.52226
914.13954	0.51897
912.21098	0.51719
910.28241	0.51745
908.35385	0.51983
906.42528	0.52392
904.49672	0.52927
902.56815	0.53542
900.63959	0.54183
898.71102	0.54792
896.78246	0.55322
894.85390	0.55740
892.92533	0.56043
890.99677	0.56227
889.06820	0.56293
887.13964	0.56250
885.21107	0.56094
883.28251	0.55828
881.35394	0.55470
879.42538	0.55047
877.49682	0.54602
875.56825	0.54184
873.63969	0.53819
871.71112	0.53516
869.78256	0.53301
867.85399	0.53201
865.92543	0.53250
863.99686	0.53479
862.06830	0.53881
860.13974	0.54452
858.21117	0.55187
856.28261	0.56042
854.35404	0.56980
852.42548	0.57978
850.49691	0.58978
848.56835	0.59931
846.63978	0.60815
844.71122	0.61602
842.78266	0.62286
840.85409	0.62883
838.92553	0.63378
836.99696	0.63719
835.06840	0.63869
833.13983	0.63878
831.21127	0.63854
829.28270	0.63842
827.35414	0.63785
825.42558	0.63655
823.49701	0.63505
821.56845	0.63412
819.63988	0.63450
817.71132	0.63593
815.78275	0.63744
813.85419	0.63893
811.92562	0.64083
809.99706	0.64324
808.06850	0.64584
806.13993	0.64806
804.21137	0.64963
802.28280	0.65058
800.35424	0.65110
798.42567	0.65133
796.49711	0.65080
794.56854	0.64891
792.63998	0.64602
790.71142	0.64263
788.78285	0.63881
786.85429	0.63456
784.92572	0.62993
782.99716	0.62509
781.06859	0.62050
779.14003	0.61633
777.21147	0.61241
775.28290	0.60941
773.35434	0.60844
771.42577	0.60915
769.49721	0.61084
767.56864	0.61425
765.64008	0.61989
763.71151	0.62716
761.78295	0.63608
759.85439	0.64743
757.92582	0.66080
755.99726	0.67489
754.06869	0.68925
752.14013	0.70395
750.21156	0.71859
748.28300	0.73258
746.35443	0.74524
744.42587	0.75594
742.49731	0.76453
740.56874	0.77130
738.64018	0.77621
736.71161	0.77895
734.78305	0.78056
732.85448	0.78273
730.92592	0.78506
728.99735	0.78609
727.06879	0.78629
725.14023	0.78764
723.21166	0.79070
721.28310	0.79405
719.35453	0.79607
717.42597	0.79697
715.49740	0.79839
713.56884	0.80043
711.64027	0.80182
709.71171	0.80201
707.78315	0.80137
705.85458	0.80001
703.92602	0.79716
701.99745	0.79244
700.06889	0.78620
698.14032	0.77867
696.21176	0.77041
694.28319	0.76173
692.35463	0.75196
690.42607	0.74133
688.49750	0.73141
686.56894	0.72262
684.64037	0.71454
682.71181	0.70726
680.78324	0.70124
678.85468	0.69656
676.92611	0.69297
674.99755	0.69095
673.06899	0.69094
671.14042	0.69312
669.21186	0.70135
667.28329	0.71394
665.35473	0.71957
663.42616	0.72486
661.49760	0.73525
659.56903	0.74932
657.64047	0.76380
655.71191	0.77746
653.78334	0.79054
651.85478	0.80265
649.92621	0.81403
647.99765	0.82410
646.06908	0.83102
644.14052	0.83591
642.21195	0.83982
640.28339	0.84133
638.35483	0.84088
636.42626	0.84030
634.49770	0.83906
632.56913	0.83710
630.64057	0.83594
628.71200	0.83617
626.78344	0.83734
624.85488	0.83881
622.92631	0.84138
620.99775	0.84644
619.06918	0.85304
617.14062	0.85914
615.21205	0.86473
613.28349	0.86993
611.35492	0.87278
609.42636	0.87276
607.49780	0.87140
605.56923	0.86921
603.64067	0.86555
601.71210	0.85967
599.78354	0.85142
