3997.91406	0.87272
3995.98550	0.87407
3994.05693	0.87504
3992.12837	0.87388
3990.19980	0.87209
3988.27124	0.87112
3986.34268	0.87142
3984.41411	0.87171
3982.48555	0.87077
3980.55698	0.86975
3978.62842	0.86950
3976.69985	0.86958
3974.77129	0.87002
3972.84272	0.87119
3970.91416	0.87230
3968.98560	0.87233
3967.05703	0.87211
3965.12847	0.87250
3963.19990	0.87203
3961.27134	0.87045
3959.34277	0.87016
3957.41421	0.87125
3955.48564	0.87209
3953.55708	0.87249
3951.62852	0.87322
3949.69995	0.87508
3947.77139	0.87662
3945.84282	0.87539
3943.91426	0.87325
3941.98569	0.87302
3940.05713	0.87333
3938.12856	0.87319
3936.20000	0.87310
3934.27144	0.87225
3932.34287	0.87058
3930.41431	0.86936
3928.48574	0.86861
3926.55718	0.86776
3924.62861	0.86666
3922.70005	0.86596
3920.77148	0.86681
3918.84292	0.86874
3916.91436	0.86858
3914.98579	0.86590
3913.05723	0.86362
3911.12866	0.86180
3909.20010	0.85898
3907.27153	0.85538
3905.34297	0.85382
3903.41440	0.85729
3901.48584	0.86184
3899.55728	0.86333
3897.62871	0.86259
3895.70015	0.85986
3893.77158	0.85614
3891.84302	0.85585
3889.91445	0.85859
3887.98589	0.85963
3886.05733	0.86040
3884.12876	0.86126
3882.20020	0.86099
3880.27163	0.86040
3878.34307	0.85853
3876.41450	0.85604
3874.48594	0.85474
3872.55737	0.85494
3870.62881	0.85640
3868.70025	0.85732
3866.77168	0.85671
3864.84312	0.85661
3862.91455	0.85598
3860.98599	0.85375
3859.05742	0.85279
3857.12886	0.85313
3855.20029	0.85362
3853.27173	0.85784
3851.34317	0.85959
3849.41460	0.85650
3847.48604	0.85412
3845.55747	0.85297
3843.62891	0.85143
3841.70034	0.84927
3839.77178	0.84744
3837.84321	0.84769
3835.91465	0.84962
3833.98609	0.85043
3832.05752	0.84994
3830.12896	0.84946
3828.20039	0.84988
3826.27183	0.85110
3824.34326	0.85136
3822.41470	0.85072
3820.48613	0.85121
3818.55757	0.85149
3816.62901	0.85118
3814.70044	0.85013
3812.77188	0.84830
3810.84331	0.84672
3808.91475	0.84563
3806.98618	0.84558
3805.05762	0.84574
3803.12905	0.84477
3801.20049	0.84470
3799.27193	0.84529
3797.34336	0.84486
3795.41480	0.84551
3793.48623	0.84740
3791.55767	0.84841
3789.62910	0.84816
3787.70054	0.84855
3785.77197	0.85070
3783.84341	0.85263
3781.91485	0.85308
3779.98628	0.85325
3778.05772	0.85286
3776.12915	0.85184
3774.20059	0.85158
3772.27202	0.85206
3770.34346	0.85251
3768.41489	0.85310
3766.48633	0.85372
3764.55777	0.85274
3762.62920	0.85009
3760.70064	0.84910
3758.77207	0.85197
3756.84351	0.85411
3754.91494	0.85352
3752.98638	0.85261
3751.05781	0.85228
3749.12925	0.85275
3747.20069	0.85470
3745.27212	0.85643
3743.34356	0.85291
3741.41499	0.84699
3739.48643	0.84290
3737.55786	0.84185
3735.62930	0.84481
3733.70074	0.84767
3731.77217	0.84646
3729.84361	0.84375
3727.91504	0.84223
3725.98648	0.84275
3724.05791	0.84352
3722.12935	0.84282
3720.20078	0.84107
3718.27222	0.83904
3716.34366	0.83659
3714.41509	0.83394
3712.48653	0.83342
3710.55796	0.83573
3708.62940	0.83633
3706.70083	0.83624
3704.77227	0.83704
3702.84370	0.83759
3700.91514	0.83565
3698.98658	0.83292
3697.05801	0.83249
3695.12945	0.83357
3693.20088	0.83419
3691.27232	0.83466
3689.34375	0.83713
3687.41519	0.84067
3685.48662	0.84243
3683.55806	0.84246
3681.62950	0.84155
3679.70093	0.84076
3677.77237	0.84120
3675.84380	0.84590
3673.91524	0.85185
3671.98667	0.85369
3670.05811	0.85502
3668.12954	0.85764
3666.20098	0.85995
3664.27242	0.86168
3662.34385	0.86365
3660.41529	0.86739
3658.48672	0.87235
3656.55816	0.87655
3654.62959	0.87841
3652.70103	0.87911
3650.77246	0.88182
3648.84390	0.88867
3646.91534	0.89177
3644.98677	0.89025
3643.05821	0.88851
3641.12964	0.88916
3639.20108	0.89219
3637.27251	0.89548
3635.34395	0.89789
3633.41538	0.89847
3631.48682	0.89654
3629.55826	0.89821
3627.62969	0.90754
3625.70113	0.91284
3623.77256	0.91535
3621.84400	0.91775
3619.91543	0.92034
3617.98687	0.92482
3616.05830	0.92855
3614.12974	0.93025
3612.20118	0.93293
3610.27261	0.93730
3608.34405	0.94143
3606.41548	0.94367
3604.48692	0.94553
3602.55835	0.94952
3600.62979	0.95430
3598.70123	0.95634
3596.77266	0.95673
3594.84410	0.95794
3592.91553	0.95978
3590.98697	0.96162
3589.05840	0.96454
3587.12984	0.96909
3585.20127	0.97301
3583.27271	0.97603
3581.34415	0.97823
3579.41558	0.97952
3577.48702	0.98205
3575.55845	0.98696
3573.62989	0.99230
3571.70132	0.99584
3569.77276	0.99629
3567.84419	0.99536
3565.91563	0.99929
3563.98707	1.00726
3562.05850	1.01437
3560.12994	1.01885
3558.20137	1.02165
3556.27281	1.02448
3554.34424	1.02774
3552.41568	1.03134
3550.48711	1.03429
3548.55855	1.03715
3546.62999	1.04158
3544.70142	1.04559
3542.77286	1.04691
3540.84429	1.04767
3538.91573	1.04976
3536.98716	1.05286
3535.05860	1.05492
3533.13003	1.05574
3531.20147	1.05830
3529.27291	1.06302
3527.34434	1.06594
3525.41578	1.06762
3523.48721	1.07221
3521.55865	1.07727
3519.63008	1.07999
3517.70152	1.08252
3515.77295	1.08565
3513.84439	1.08906
3511.91583	1.09160
3509.98726	1.09273
3508.05870	1.09588
3506.13013	1.10224
3504.20157	1.10948
3502.27300	1.11547
3500.34444	1.12054
3498.41587	1.12520
3496.48731	1.12754
3494.55875	1.12862
3492.63018	1.13091
3490.70162	1.13320
3488.77305	1.13618
3486.84449	1.14181
3484.91592	1.14704
3482.98736	1.14889
3481.05879	1.14881
3479.13023	1.15011
3477.20167	1.15347
3475.27310	1.15637
3473.34454	1.15875
3471.41597	1.16018
3469.48741	1.15817
3467.55884	1.15669
3465.63028	1.16030
3463.70171	1.16634
3461.77315	1.17136
3459.84459	1.17437
3457.91602	1.17588
3455.98746	1.17726
3454.05889	1.17756
3452.13033	1.17606
3450.20176	1.17629
3448.27320	1.17965
3446.34464	1.18198
3444.41607	1.18249
3442.48751	1.18475
3440.55894	1.18879
3438.63038	1.19171
3436.70181	1.19168
3434.77325	1.18921
3432.84468	1.18760
3430.91612	1.18890
3428.98756	1.19136
3427.05899	1.19326
3425.13043	1.19394
3423.20186	1.19311
3421.27330	1.19251
3419.34473	1.19358
3417.41617	1.19452
3415.48760	1.19425
3413.55904	1.19449
3411.63048	1.19598
3409.70191	1.19721
3407.77335	1.19720
3405.84478	1.19667
3403.91622	1.19707
3401.98765	1.19780
3400.05909	1.19664
3398.13052	1.19593
3396.20196	1.19856
3394.27340	1.20034
3392.34483	1.19886
3390.41627	1.19899
3388.48770	1.20206
3386.55914	1.20413
3384.63057	1.20426
3382.70201	1.20400
3380.77344	1.20239
3378.84488	1.19982
3376.91632	1.20024
3374.98775	1.20340
3373.05919	1.20455
3371.13062	1.20426
3369.20206	1.20665
3367.27349	1.20982
3365.34493	1.20939
3363.41636	1.20721
3361.48780	1.20705
3359.55924	1.20906
3357.63067	1.21255
3355.70211	1.21592
3353.77354	1.21771
3351.84498	1.21963
3349.91641	1.22219
3347.98785	1.22324
3346.05928	1.22296
3344.13072	1.22504
3342.20216	1.22945
3340.27359	1.23080
3338.34503	1.22908
3336.41646	1.22923
3334.48790	1.23204
3332.55933	1.23603
3330.63077	1.24016
3328.70220	1.24221
3326.77364	1.24145
3324.84508	1.24141
3322.91651	1.24519
3320.98795	1.25063
3319.05938	1.25439
3317.13082	1.25672
3315.20225	1.25963
3313.27369	1.26349
3311.34513	1.26634
3309.41656	1.26624
3307.48800	1.26515
3305.55943	1.26632
3303.63087	1.26912
3301.70230	1.27088
3299.77374	1.27165
3297.84517	1.27361
3295.91661	1.27560
3293.98805	1.27506
3292.05948	1.27407
3290.13092	1.27557
3288.20235	1.27884
3286.27379	1.28006
3284.34522	1.27617
3282.41666	1.27011
3280.48809	1.26548
3278.55953	1.26161
3276.63097	1.25983
3274.70240	1.26166
3272.77384	1.26346
3270.84527	1.26238
3268.91671	1.25830
3266.98814	1.25326
3265.05958	1.25067
3263.13101	1.24863
3261.20245	1.24316
3259.27389	1.23552
3257.34532	1.22943
3255.41676	1.22644
3253.48819	1.22500
3251.55963	1.22326
3249.63106	1.22094
3247.70250	1.21803
3245.77393	1.21389
3243.84537	1.20772
3241.91681	1.20045
3239.98824	1.19514
3238.05968	1.19380
3236.13111	1.19418
3234.20255	1.19232
3232.27398	1.18751
3230.34542	1.18307
3228.41685	1.18081
3226.48829	1.17844
3224.55973	1.17578
3222.63116	1.17597
3220.70260	1.17802
3218.77403	1.17681
3216.84547	1.17250
3214.91690	1.16910
3212.98834	1.16620
3211.05977	1.16277
3209.13121	1.15987
3207.20265	1.15708
3205.27408	1.15575
3203.34552	1.15669
3201.41695	1.15580
3199.48839	1.15223
3197.55982	1.14937
3195.63126	1.14702
3193.70269	1.14430
3191.77413	1.14279
3189.84557	1.14208
3187.91700	1.14021
3185.98844	1.13790
3184.05987	1.13561
3182.13131	1.13224
3180.20274	1.12902
3178.27418	1.12717
3176.34562	1.12597
3174.41705	1.12474
3172.48849	1.12242
3170.55992	1.11891
3168.63136	1.11577
3166.70279	1.11263
3164.77423	1.10880
3162.84566	1.10676
3160.91710	1.10700
3158.98854	1.10651
3157.05997	1.10436
3155.13141	1.10155
3153.20284	1.09864
3151.27428	1.09606
3149.34571	1.09394
3147.41715	1.09223
3145.48858	1.09102
3143.56002	1.08987
3141.63146	1.08854
3139.70289	1.08734
3137.77433	1.08651
3135.84576	1.08728
3133.91720	1.08944
3131.98863	1.09025
3130.06007	1.08861
3128.13150	1.08637
3126.20294	1.08575
3124.27438	1.08658
3122.34581	1.08747
3120.41725	1.08839
3118.48868	1.08959
3116.56012	1.09092
3114.63155	1.09184
3112.70299	1.09129
3110.77442	1.08876
3108.84586	1.08601
3106.91730	1.08575
3104.98873	1.08757
3103.06017	1.08902
3101.13160	1.08894
3099.20304	1.08761
3097.27447	1.08637
3095.34591	1.08591
3093.41734	1.08538
3091.48878	1.08462
3089.56022	1.08389
3087.63165	1.08255
3085.70309	1.08027
3083.77452	1.07794
3081.84596	1.07677
3079.91739	1.07647
3077.98883	1.07526
3076.06026	1.07331
3074.13170	1.07139
3072.20314	1.06827
3070.27457	1.06477
3068.34601	1.06361
3066.41744	1.06428
3064.48888	1.06366
3062.56031	1.06048
3060.63175	1.05626
3058.70318	1.05239
3056.77462	1.04920
3054.84606	1.04781
3052.91749	1.04795
3050.98893	1.04759
3049.06036	1.04624
3047.13180	1.04400
3045.20323	1.04085
3043.27467	1.03791
3041.34610	1.03629
3039.41754	1.03573
3037.48898	1.03518
3035.56041	1.03432
3033.63185	1.03339
3031.70328	1.03218
3029.77472	1.03040
3027.84615	1.02892
3025.91759	1.02827
3023.98903	1.02707
3022.06046	1.02421
3020.13190	1.02090
3018.20333	1.01932
3016.27477	1.01908
3014.34620	1.01808
3012.41764	1.01706
3010.48907	1.01686
3008.56051	1.01567
3006.63195	1.01372
3004.70338	1.01340
3002.77482	1.01409
3000.84625	1.01333
2998.91769	1.01140
2996.98912	1.01022
2995.06056	1.01043
2993.13199	1.01180
2991.20343	1.01453
2989.27487	1.01799
2987.34630	1.02044
2985.41774	1.02202
2983.48917	1.02406
2981.56061	1.02670
2979.63204	1.03013
2977.70348	1.03388
2975.77491	1.03704
2973.84635	1.04099
2971.91779	1.04635
2969.98922	1.05135
2968.06066	1.05588
2966.13209	1.06022
2964.20353	1.06326
2962.27496	1.06468
2960.34640	1.06500
2958.41783	1.06417
2956.48927	1.06151
2954.56071	1.05745
2952.63214	1.05314
2950.70358	1.04958
2948.77501	1.04818
2946.84645	1.04925
2944.91788	1.05200
2942.98932	1.05591
2941.06075	1.06153
2939.13219	1.06992
2937.20363	1.07945
2935.27506	1.08794
2933.34650	1.09653
2931.41793	1.10673
2929.48937	1.11793
2927.56080	1.12798
2925.63224	1.13621
2923.70367	1.14389
2921.77511	1.15074
2919.84655	1.15500
2917.91798	1.15304
2915.98942	1.14136
2914.06085	1.12238
2912.13229	1.10192
2910.20372	1.08477
2908.27516	1.07339
2906.34659	1.06601
2904.41803	1.05900
2902.48947	1.05232
2900.56090	1.04814
2898.63234	1.04563
2896.70377	1.04280
2894.77521	1.04009
2892.84664	1.03801
2890.91808	1.03545
2888.98952	1.03236
2887.06095	1.03039
2885.13239	1.02931
2883.20382	1.02740
2881.27526	1.02551
2879.34669	1.02558
2877.41813	1.02667
2875.48956	1.02646
2873.56100	1.02445
2871.63244	1.02135
2869.70387	1.01796
2867.77531	1.01557
2865.84674	1.01477
2863.91818	1.01483
2861.98961	1.01604
2860.06105	1.02006
2858.13248	1.02716
2856.20392	1.03645
2854.27536	1.04762
2852.34679	1.05876
2850.41823	1.06299
2848.48966	1.05299
2846.56110	1.03123
2844.63253	1.00783
2842.70397	0.98890
2840.77540	0.97470
2838.84684	0.96440
2836.91828	0.95728
2834.98971	0.95207
2833.06115	0.94763
2831.13258	0.94371
2829.20402	0.94005
2827.27545	0.93648
2825.34689	0.93348
2823.41832	0.93141
2821.48976	0.93014
2819.56120	0.92900
2817.63263	0.92692
2815.70407	0.92387
2813.77550	0.92068
2811.84694	0.91787
2809.91837	0.91602
2807.98981	0.91496
2806.06124	0.91332
2804.13268	0.91114
2802.20412	0.90910
2800.27555	0.90648
2798.34699	0.90359
2796.41842	0.90189
2794.48986	0.90122
2792.56129	0.90000
2790.63273	0.89758
2788.70416	0.89497
2786.77560	0.89291
2784.84704	0.89141
2782.91847	0.89036
2780.98991	0.88878
2779.06134	0.88602
2777.13278	0.88329
2775.20421	0.88156
2773.27565	0.88050
2771.34708	0.87934
2769.41852	0.87783
2767.48996	0.87638
2765.56139	0.87489
2763.63283	0.87311
2761.70426	0.87101
2759.77570	0.86878
2757.84713	0.86715
2755.91857	0.86627
2753.99001	0.86542
2752.06144	0.86420
2750.13288	0.86266
2748.20431	0.86096
2746.27575	0.85934
2744.34718	0.85792
2742.41862	0.85679
2740.49005	0.85611
2738.56149	0.85567
2736.63293	0.85500
2734.70436	0.85398
2732.77580	0.85293
2730.84723	0.85218
2728.91867	0.85139
2726.99010	0.85008
2725.06154	0.84848
2723.13297	0.84709
2721.20441	0.84648
2719.27585	0.84614
2717.34728	0.84504
2715.41872	0.84391
2713.49015	0.84349
2711.56159	0.84266
2709.63302	0.84098
2707.70446	0.83948
2705.77589	0.83839
2703.84733	0.83717
2701.91877	0.83571
2699.99020	0.83444
2698.06164	0.83376
2696.13307	0.83330
2694.20451	0.83213
2692.27594	0.83048
2690.34738	0.82953
2688.41881	0.82931
2686.49025	0.82904
2684.56169	0.82836
2682.63312	0.82707
2680.70456	0.82551
2678.77599	0.82430
2676.84743	0.82324
2674.91886	0.82198
2672.99030	0.82071
2671.06173	0.81947
2669.13317	0.81830
2667.20461	0.81715
2665.27604	0.81588
2663.34748	0.81497
2661.41891	0.81454
2659.49035	0.81382
2657.56178	0.81248
2655.63322	0.81134
2653.70465	0.81082
2651.77609	0.81030
2649.84753	0.80952
2647.91896	0.80896
2645.99040	0.80878
2644.06183	0.80866
2642.13327	0.80837
2640.20470	0.80792
2638.27614	0.80735
2636.34757	0.80664
2634.41901	0.80581
2632.49045	0.80507
2630.56188	0.80433
2628.63332	0.80362
2626.70475	0.80310
2624.77619	0.80258
2622.84762	0.80213
2620.91906	0.80152
2618.99049	0.80017
2617.06193	0.79873
2615.13337	0.79786
2613.20480	0.79725
2611.27624	0.79661
2609.34767	0.79585
2607.41911	0.79477
2605.49054	0.79321
2603.56198	0.79182
2601.63342	0.79157
2599.70485	0.79174
2597.77629	0.79081
2595.84772	0.78885
2593.91916	0.78693
2591.99059	0.78563
2590.06203	0.78500
2588.13346	0.78455
2586.20490	0.78376
2584.27634	0.78286
2582.34777	0.78198
2580.41921	0.78085
2578.49064	0.77972
2576.56208	0.77882
2574.63351	0.77802
2572.70495	0.77741
2570.77638	0.77696
2568.84782	0.77647
2566.91926	0.77587
2564.99069	0.77498
2563.06213	0.77382
2561.13356	0.77294
2559.20500	0.77267
2557.27643	0.77238
2555.34787	0.77171
2553.41930	0.77137
2551.49074	0.77134
2549.56218	0.77053
2547.63361	0.76907
2545.70505	0.76809
2543.77648	0.76805
2541.84792	0.76812
2539.91935	0.76744
2537.99079	0.76668
2536.06222	0.76641
2534.13366	0.76615
2532.20510	0.76555
2530.27653	0.76452
2528.34797	0.76313
2526.41940	0.76191
2524.49084	0.76137
2522.56227	0.76107
2520.63371	0.76036
2518.70514	0.75902
2516.77658	0.75710
2514.84802	0.75542
2512.91945	0.75442
2510.99089	0.75322
2509.06232	0.75142
2507.13376	0.74968
2505.20519	0.74813
2503.27663	0.74621
2501.34806	0.74405
2499.41950	0.74212
2497.49094	0.74030
2495.56237	0.73830
2493.63381	0.73628
2491.70524	0.73458
2489.77668	0.73298
2487.84811	0.73110
2485.91955	0.72925
2483.99098	0.72788
2482.06242	0.72672
2480.13386	0.72521
2478.20529	0.72359
2476.27673	0.72248
2474.34816	0.72171
2472.41960	0.72076
2470.49103	0.71963
2468.56247	0.71854
2466.63391	0.71749
2464.70534	0.71649
2462.77678	0.71560
2460.84821	0.71481
2458.91965	0.71405
2456.99108	0.71342
2455.06252	0.71298
2453.13395	0.71236
2451.20539	0.71155
2449.27683	0.71080
2447.34826	0.70993
2445.41970	0.70893
2443.49113	0.70813
2441.56257	0.70780
2439.63400	0.70788
2437.70544	0.70794
2435.77687	0.70767
2433.84831	0.70715
2431.91975	0.70654
2429.99118	0.70619
2428.06262	0.70626
2426.13405	0.70625
2424.20549	0.70587
2422.27692	0.70529
2420.34836	0.70481
2418.41979	0.70446
2416.49123	0.70421
2414.56267	0.70390
2412.63410	0.70325
2410.70554	0.70240
2408.77697	0.70170
2406.84841	0.70127
2404.91984	0.70107
2402.99128	0.70082
2401.06271	0.70012
2399.13415	0.69911
2397.20559	0.69862
2395.27702	0.69885
2393.34846	0.69887
2391.41989	0.69824
2389.49133	0.69742
2387.56276	0.69651
2385.63420	0.69538
2383.70563	0.69456
2381.77707	0.69457
2379.84851	0.69494
2377.91994	0.69496
2375.99138	0.69452
2374.06281	0.69315
2372.13425	0.69031
2370.20568	0.68789
2368.27712	0.68794
2366.34855	0.68840
2364.41999	0.68746
2362.49143	0.68722
2360.56286	0.68843
2358.63430	0.68814
2356.70573	0.68463
2354.77717	0.68052
2352.84860	0.67898
2350.92004	0.67914
2348.99147	0.67907
2347.06291	0.67824
2345.13435	0.67710
2343.20578	0.67646
2341.27722	0.67467
2339.34865	0.67156
2337.42009	0.67066
2335.49152	0.67188
2333.56296	0.67252
2331.63440	0.67205
2329.70583	0.67120
2327.77727	0.67076
2325.84870	0.67126
2323.92014	0.67198
2321.99157	0.67165
2320.06301	0.67025
2318.13444	0.66910
2316.20588	0.66853
2314.27732	0.66788
2312.34875	0.66742
2310.42019	0.66728
2308.49162	0.66667
2306.56306	0.66558
2304.63449	0.66455
2302.70593	0.66377
2300.77736	0.66308
2298.84880	0.66238
2296.92024	0.66194
2294.99167	0.66174
2293.06311	0.66117
2291.13454	0.66006
2289.20598	0.65909
2287.27741	0.65894
2285.34885	0.65932
2283.42028	0.65906
2281.49172	0.65782
2279.56316	0.65669
2277.63459	0.65604
2275.70603	0.65519
2273.77746	0.65394
2271.84890	0.65260
2269.92033	0.65121
2267.99177	0.64977
2266.06320	0.64842
2264.13464	0.64723
2262.20608	0.64609
2260.27751	0.64498
2258.34895	0.64387
2256.42038	0.64248
2254.49182	0.64092
2252.56325	0.63970
2250.63469	0.63890
2248.70612	0.63815
2246.77756	0.63725
2244.84900	0.63654
2242.92043	0.63618
2240.99187	0.63558
2239.06330	0.63465
2237.13474	0.63403
2235.20617	0.63359
2233.27761	0.63297
2231.34904	0.63263
2229.42048	0.63282
2227.49192	0.63313
2225.56335	0.63325
2223.63479	0.63323
2221.70622	0.63341
2219.77766	0.63373
2217.84909	0.63393
2215.92053	0.63436
2213.99196	0.63521
2212.06340	0.63613
2210.13484	0.63691
2208.20627	0.63758
2206.27771	0.63833
2204.34914	0.63918
2202.42058	0.63991
2200.49201	0.64051
2198.56345	0.64138
2196.63488	0.64244
2194.70632	0.64318
2192.77776	0.64355
2190.84919	0.64393
2188.92063	0.64430
2186.99206	0.64430
2185.06350	0.64390
2183.13493	0.64361
2181.20637	0.64369
2179.27781	0.64368
2177.34924	0.64333
2175.42068	0.64287
2173.49211	0.64232
2171.56355	0.64173
2169.63498	0.64113
2167.70642	0.64058
2165.77785	0.64021
2163.84929	0.63967
2161.92073	0.63876
2159.99216	0.63786
2158.06360	0.63700
2156.13503	0.63602
2154.20647	0.63523
2152.27790	0.63458
2150.34934	0.63355
2148.42077	0.63215
2146.49221	0.63062
2144.56365	0.62911
2142.63508	0.62801
2140.70652	0.62717
2138.77795	0.62619
2136.84939	0.62528
2134.92082	0.62447
2132.99226	0.62338
2131.06369	0.62215
2129.13513	0.62107
2127.20657	0.62021
2125.27800	0.61942
2123.34944	0.61863
2121.42087	0.61813
2119.49231	0.61809
2117.56374	0.61820
2115.63518	0.61827
2113.70661	0.61835
2111.77805	0.61828
2109.84949	0.61803
2107.92092	0.61790
2105.99236	0.61815
2104.06379	0.61866
2102.13523	0.61916
2100.20666	0.61957
2098.27810	0.61996
2096.34953	0.62043
2094.42097	0.62106
2092.49241	0.62172
2090.56384	0.62216
2088.63528	0.62220
2086.70671	0.62205
2084.77815	0.62210
2082.84958	0.62228
2080.92102	0.62226
2078.99245	0.62213
2077.06389	0.62211
2075.13533	0.62200
2073.20676	0.62148
2071.27820	0.62054
2069.34963	0.61948
2067.42107	0.61860
2065.49250	0.61771
2063.56394	0.61640
2061.63537	0.61459
2059.70681	0.61261
2057.77825	0.61091
2055.84968	0.60970
2053.92112	0.60862
2051.99255	0.60708
2050.06399	0.60512
2048.13542	0.60340
2046.20686	0.60205
2044.27830	0.60060
2042.34973	0.59892
2040.42117	0.59744
2038.49260	0.59629
2036.56404	0.59514
2034.63547	0.59381
2032.70691	0.59252
2030.77834	0.59142
2028.84978	0.59042
2026.92122	0.58950
2024.99265	0.58869
2023.06409	0.58790
2021.13552	0.58718
2019.20696	0.58665
2017.27839	0.58620
2015.34983	0.58594
2013.42126	0.58604
2011.49270	0.58616
2009.56414	0.58600
2007.63557	0.58575
2005.70701	0.58560
2003.77844	0.58555
2001.84988	0.58548
1999.92131	0.58542
1997.99275	0.58548
1996.06418	0.58564
1994.13562	0.58586
1992.20706	0.58611
1990.27849	0.58624
1988.34993	0.58624
1986.42136	0.58636
1984.49280	0.58663
1982.56423	0.58690
1980.63567	0.58710
1978.70710	0.58735
1976.77854	0.58762
1974.84998	0.58776
1972.92141	0.58788
1970.99285	0.58814
1969.06428	0.58868
1967.13572	0.58949
1965.20715	0.59013
1963.27859	0.59062
1961.35002	0.59146
1959.42146	0.59248
1957.49290	0.59325
1955.56433	0.59392
1953.63577	0.59470
1951.70720	0.59525
1949.77864	0.59545
1947.85007	0.59566
1945.92151	0.59599
1943.99294	0.59629
1942.06438	0.59642
1940.13582	0.59619
1938.20725	0.59568
1936.27869	0.59521
1934.35012	0.59483
1932.42156	0.59410
1930.49299	0.59286
1928.56443	0.59160
1926.63586	0.59051
1924.70730	0.58936
1922.77874	0.58793
1920.85017	0.58627
1918.92161	0.58459
1916.99304	0.58303
1915.06448	0.58167
1913.13591	0.58043
1911.20735	0.57924
1909.27878	0.57812
1907.35022	0.57706
1905.42166	0.57605
1903.49309	0.57522
1901.56453	0.57468
1899.63596	0.57432
1897.70740	0.57417
1895.77883	0.57422
1893.85027	0.57413
1891.92171	0.57396
1889.99314	0.57410
1888.06458	0.57450
1886.13601	0.57493
1884.20745	0.57553
1882.27888	0.57645
1880.35032	0.57761
1878.42175	0.57888
1876.49319	0.58017
1874.56463	0.58147
1872.63606	0.58277
1870.70750	0.58439
1868.77893	0.58690
1866.85037	0.58944
1864.92180	0.59107
1862.99324	0.59236
1861.06467	0.59380
1859.13611	0.59532
1857.20755	0.59657
1855.27898	0.59759
1853.35042	0.59843
1851.42185	0.59902
1849.49329	0.59946
1847.56472	0.59984
1845.63616	0.60007
1843.70759	0.59982
1841.77903	0.59891
1839.85047	0.59786
1837.92190	0.59690
1835.99334	0.59583
1834.06477	0.59460
1832.13621	0.59352
1830.20764	0.59246
1828.27908	0.59122
1826.35051	0.59009
1824.42195	0.58930
1822.49339	0.58869
1820.56482	0.58797
1818.63626	0.58725
1816.70769	0.58664
1814.77913	0.58637
1812.85056	0.58651
1810.92200	0.58695
1808.99343	0.58749
1807.06487	0.58797
1805.13631	0.58849
1803.20774	0.58926
1801.27918	0.59067
1799.35061	0.59248
1797.42205	0.59409
1795.49348	0.59544
1793.56492	0.59711
1791.63635	0.59958
1789.70779	0.60161
1787.77923	0.60327
1785.85066	0.60521
1783.92210	0.60718
1781.99353	0.60926
1780.06497	0.61190
1778.13640	0.61450
1776.20784	0.61656
1774.27927	0.61906
1772.35071	0.62287
1770.42215	0.62626
1768.49358	0.62849
1766.56502	0.63077
1764.63645	0.63333
1762.70789	0.63698
1760.77932	0.64163
1758.85076	0.64597
1756.92220	0.65150
1754.99363	0.65749
1753.06507	0.66268
1751.13650	0.66968
1749.20794	0.67960
1747.27937	0.68851
1745.35081	0.69544
1743.42224	0.70155
1741.49368	0.70706
1739.56512	0.71209
1737.63655	0.71566
1735.70799	0.71824
1733.77942	0.72197
1731.85086	0.72454
1729.92229	0.72526
1727.99373	0.72608
1726.06516	0.72770
1724.13660	0.73031
1722.20804	0.73303
1720.27947	0.73587
1718.35091	0.74111
1716.42234	0.74981
1714.49378	0.75684
1712.56521	0.76302
1710.63665	0.77106
1708.70808	0.78146
1706.77952	0.79658
1704.85096	0.81599
1702.92239	0.83372
1700.99383	0.85890
1699.06526	0.89761
1697.13670	0.93261
1695.20813	0.96642
1693.27957	0.99143
1691.35100	1.01083
1689.42244	1.03319
1687.49388	1.05326
1685.56531	1.07362
1683.63675	1.10712
1681.70818	1.13315
1679.77962	1.14808
1677.85105	1.16016
1675.92249	1.17367
1673.99392	1.18954
1672.06536	1.20280
1670.13680	1.21747
1668.20823	1.23398
1666.27967	1.24381
1664.35110	1.25228
1662.42254	1.26419
1660.49397	1.27480
1658.56541	1.28064
1656.63684	1.28258
1654.70828	1.28301
1652.77972	1.28523
1650.85115	1.28657
1648.92259	1.28662
1646.99402	1.28609
1645.06546	1.28397
1643.13689	1.28135
1641.20833	1.27957
1639.27976	1.27818
1637.35120	1.27684
1635.42264	1.27505
1633.49407	1.27297
1631.56551	1.27085
1629.63694	1.26658
1627.70838	1.25951
1625.77981	1.25122
1623.85125	1.23928
1621.92269	1.22255
1619.99412	1.20719
1618.06556	1.18872
1616.13699	1.16131
1614.20843	1.13875
1612.27986	1.12111
1610.35130	1.10208
1608.42273	1.08310
1606.49417	1.06840
1604.56561	1.05800
1602.63704	1.04950
1600.70848	1.04293
1598.77991	1.03901
1596.85135	1.03716
1594.92278	1.03680
1592.99422	1.03796
1591.06565	1.04071
1589.13709	1.04514
1587.20853	1.05135
1585.27996	1.05927
1583.35140	1.06881
1581.42283	1.07902
1579.49427	1.08847
1577.56570	1.10024
1575.63714	1.11833
1573.70857	1.13138
1571.78001	1.13992
1569.85145	1.15284
1567.92288	1.16689
1565.99432	1.17670
1564.06575	1.18517
1562.13719	1.19082
1560.20862	1.19540
1558.28006	1.20832
1556.35149	1.21757
1554.42293	1.22126
1552.49437	1.22323
1550.56580	1.22428
1548.63724	1.22529
1546.70867	1.22621
1544.78011	1.22690
1542.85154	1.22819
1540.92298	1.22764
1538.99441	1.21953
1537.06585	1.21328
1535.13729	1.20861
1533.20872	1.20353
1531.28016	1.19904
1529.35159	1.19603
1527.42303	1.19401
1525.49446	1.19147
1523.56590	1.18836
1521.63733	1.18593
1519.70877	1.18413
1517.78021	1.17941
1515.85164	1.17056
1513.92308	1.16050
1511.99451	1.14966
1510.06595	1.13797
1508.13738	1.12023
1506.20882	1.09096
1504.28025	1.07433
1502.35169	1.06296
1500.42313	1.04988
1498.49456	1.03367
1496.56600	1.01438
1494.63743	0.99863
1492.70887	0.98777
1490.78030	0.97568
1488.85174	0.95914
1486.92317	0.94562
1484.99461	0.93690
1483.06605	0.93058
1481.13748	0.92611
1479.20892	0.92441
1477.28035	0.92626
1475.35179	0.93214
1473.42322	0.94336
1471.49466	0.95511
1469.56610	0.96129
1467.63753	0.96577
1465.70897	0.97233
1463.78040	0.97966
1461.85184	0.98342
1459.92327	0.98552
1457.99471	0.99129
1456.06614	0.99940
1454.13758	1.00139
1452.20902	1.00128
1450.28045	1.00136
1448.35189	1.00190
1446.42332	1.00212
1444.49476	1.00113
1442.56619	0.99910
1440.63763	0.99659
1438.70906	0.99348
1436.78050	0.98847
1434.85194	0.98271
1432.92337	0.97822
1430.99481	0.97388
1429.06624	0.96977
1427.13768	0.96719
1425.20911	0.96605
1423.28055	0.96585
1421.35198	0.96633
1419.42342	0.96818
1417.49486	0.97043
1415.56629	0.97131
1413.63773	0.97170
1411.70916	0.97196
1409.78060	0.97235
1407.85203	0.97334
1405.92347	0.97507
1403.99490	0.97673
1402.06634	0.97785
1400.13778	0.97941
1398.20921	0.98142
1396.28065	0.98342
1394.35208	0.98583
1392.42352	0.98806
1390.49495	0.99056
1388.56639	0.99579
1386.63782	1.00460
1384.70926	1.01346
1382.78070	1.02072
1380.85213	1.02583
1378.92357	1.02735
1376.99500	1.02485
1375.06644	1.01770
1373.13787	1.00721
1371.20931	0.99726
1369.28074	0.98739
1367.35218	0.97717
1365.42362	0.96853
1363.49505	0.96153
1361.56649	0.95608
1359.63792	0.95307
1357.70936	0.95216
1355.78079	0.95239
1353.85223	0.95319
1351.92366	0.95476
1349.99510	0.95716
1348.06654	0.95958
1346.13797	0.96136
1344.20941	0.96287
1342.28084	0.96485
1340.35228	0.96791
1338.42371	0.97178
1336.49515	0.97564
1334.56659	0.97970
1332.63802	0.98420
1330.70946	0.98910
1328.78089	0.99327
1326.85233	0.99526
1324.92376	0.99563
1322.99520	0.99594
1321.06663	0.99668
1319.13807	0.99738
1317.20951	0.99761
1315.28094	0.99745
1313.35238	0.99695
1311.42381	0.99593
1309.49525	0.99438
1307.56668	0.99267
1305.63812	0.99096
1303.70955	0.98884
1301.78099	0.98621
1299.85243	0.98338
1297.92386	0.98047
1295.99530	0.97790
1294.06673	0.97637
1292.13817	0.97608
1290.20960	0.97660
1288.28104	0.97745
1286.35247	0.97821
1284.42391	0.97860
1282.49535	0.97862
1280.56678	0.97862
1278.63822	0.97917
1276.70965	0.98011
1274.78109	0.98120
1272.85252	0.98300
1270.92396	0.98571
1268.99539	0.98870
1267.06683	0.99154
1265.13827	0.99365
1263.20970	0.99449
1261.28114	0.99450
1259.35257	0.99443
1257.42401	0.99460
1255.49544	0.99488
1253.56688	0.99503
1251.63831	0.99533
1249.70975	0.99621
1247.78119	0.99751
1245.85262	0.99856
1243.92406	0.99904
1241.99549	0.99939
1240.06693	0.99994
1238.13836	1.00018
1236.20980	0.99981
1234.28123	0.99905
1232.35267	0.99792
1230.42411	0.99637
1228.49554	0.99460
1226.56698	0.99284
1224.63841	0.99122
1222.70985	0.98973
1220.78128	0.98844
1218.85272	0.98794
1216.92415	0.98891
1214.99559	0.99122
1213.06703	0.99454
1211.13846	0.99844
1209.20990	1.00183
1207.28133	1.00398
1205.35277	1.00502
1203.42420	1.00493
1201.49564	1.00365
1199.56708	1.00202
1197.63851	1.00045
1195.70995	0.99852
1193.78138	0.99677
1191.85282	0.99603
1189.92425	0.99611
1187.99569	0.99694
1186.06712	0.99858
1184.13856	1.00048
1182.21000	1.00213
1180.28143	1.00434
1178.35287	1.00816
1176.42430	1.01294
1174.49574	1.01801
1172.56717	1.02349
1170.63861	1.02905
1168.71004	1.03476
1166.78148	1.04102
1164.85292	1.04722
1162.92435	1.05210
1160.99579	1.05401
1159.06722	1.05170
1157.13866	1.04545
1155.21009	1.03620
1153.28153	1.02489
1151.35296	1.01282
1149.42440	1.00180
1147.49584	0.99284
1145.56727	0.98555
1143.63871	0.97997
1141.71014	0.97665
1139.78158	0.97531
1137.85301	0.97531
1135.92445	0.97708
1133.99588	0.98148
1132.06732	0.98808
1130.13876	0.99612
1128.21019	1.00522
1126.28163	1.01389
1124.35306	1.02104
1122.42450	1.02674
1120.49593	1.03042
1118.56737	1.03151
1116.63880	1.03002
1114.71024	1.02563
1112.78168	1.01949
1110.85311	1.01408
1108.92455	1.00905
1106.99598	1.00265
1105.06742	0.99600
1103.13885	0.99073
1101.21029	0.98660
1099.28172	0.98426
1097.35316	0.98544
1095.42460	0.98969
1093.49603	0.99520
1091.56747	1.00141
1089.63890	1.00833
1087.71034	1.01643
1085.78177	1.02623
1083.85321	1.03654
1081.92464	1.04512
1079.99608	1.05023
1078.06752	1.05090
1076.13895	1.04750
1074.21039	1.04079
1072.28182	1.03190
1070.35326	1.02271
1068.42469	1.01376
1066.49613	1.00491
1064.56756	0.99723
1062.63900	0.99060
1060.71044	0.98321
1058.78187	0.97467
1056.85331	0.96663
1054.92474	0.96056
1052.99618	0.95609
1051.06761	0.95304
1049.13905	0.95209
1047.21049	0.95321
1045.28192	0.95611
1043.35336	0.96042
1041.42479	0.96522
1039.49623	0.96930
1037.56766	0.97193
1035.63910	0.97349
1033.71053	0.97402
1031.78197	0.97246
1029.85341	0.96858
1027.92484	0.96334
1025.99628	0.95753
1024.06771	0.95207
1022.13915	0.94791
1020.21058	0.94528
1018.28202	0.94399
1016.35345	0.94323
1014.42489	0.94164
1012.49633	0.93823
1010.56776	0.93265
1008.63920	0.92555
1006.71063	0.91813
1004.78207	0.91146
1002.85350	0.90649
1000.92494	0.90308
998.99637	0.90049
997.06781	0.89894
995.13925	0.89882
993.21068	0.89928
991.28212	0.89924
989.35355	0.89893
987.42499	0.89918
985.49642	0.90016
983.56786	0.90199
981.63929	0.90514
979.71073	0.90905
977.78217	0.91265
975.85360	0.91547
973.92504	0.91717
971.99647	0.91762
970.06791	0.91716
968.13934	0.91636
966.21078	0.91556
964.28221	0.91528
962.35365	0.91706
960.42509	0.92197
958.49652	0.92897
956.56796	0.93623
954.63939	0.94207
952.71083	0.94449
950.78226	0.94233
948.85370	0.93666
946.92513	0.92998
944.99657	0.92412
943.06801	0.91951
941.13944	0.91593
939.21088	0.91266
937.28231	0.90878
935.35375	0.90438
933.42518	0.90046
931.49662	0.89686
929.56805	0.89269
927.63949	0.88858
925.71093	0.88562
923.78236	0.88340
921.85380	0.88112
919.92523	0.87850
917.99667	0.87534
916.06810	0.87158
914.13954	0.86765
912.21098	0.86425
910.28241	0.86169
908.35385	0.85990
906.42528	0.85882
904.49672	0.85848
902.56815	0.85822
900.63959	0.85742
898.71102	0.85611
896.78246	0.85400
894.85390	0.85075
892.92533	0.84642
890.99677	0.84112
889.06820	0.83526
887.13964	0.82930
885.21107	0.82322
883.28251	0.81705
881.35394	0.81115
879.42538	0.80521
877.49682	0.79877
875.56825	0.79227
873.63969	0.78616
871.71112	0.78029
869.78256	0.77453
867.85399	0.76884
865.92543	0.76358
863.99686	0.75939
862.06830	0.75608
860.13974	0.75342
858.21117	0.75162
856.28261	0.75044
854.35404	0.75001
852.42548	0.75069
850.49691	0.75185
848.56835	0.75291
846.63978	0.75416
844.71122	0.75610
842.78266	0.75901
840.85409	0.76318
838.92553	0.76841
836.99696	0.77382
835.06840	0.77895
833.13983	0.78383
831.21127	0.78863
829.28270	0.79353
827.35414	0.79859
825.42558	0.80333
823.49701	0.80686
821.56845	0.80886
819.63988	0.80988
817.71132	0.81062
815.78275	0.81111
813.85419	0.81102
811.92562	0.81068
809.99706	0.81071
808.06850	0.81078
806.13993	0.80959
804.21137	0.80685
802.28280	0.80402
800.35424	0.80135
798.42567	0.79774
796.49711	0.79352
794.56854	0.78984
792.63998	0.78721
790.71142	0.78573
788.78285	0.78500
786.85429	0.78448
784.92572	0.78428
782.99716	0.78477
781.06859	0.78567
779.14003	0.78653
777.21147	0.78776
775.28290	0.78928
773.35434	0.79058
771.42577	0.79221
769.49721	0.79494
767.56864	0.79867
765.64008	0.80245
763.71151	0.80614
761.78295	0.81057
759.85439	0.81516
757.92582	0.81912
755.99726	0.82356
754.06869	0.82910
752.14013	0.83488
750.21156	0.84069
748.28300	0.84672
746.35443	0.85230
744.42587	0.85699
742.49731	0.86146
740.56874	0.86657
738.64018	0.87190
736.71161	0.87651
734.78305	0.88130
732.85448	0.88761
730.92592	0.89489
728.99735	0.90194
727.06879	0.90825
725.14023	0.91397
723.21166	0.92011
721.28310	0.92753
719.35453	0.93437
717.42597	0.93850
715.49740	0.94139
713.56884	0.94480
711.64027	0.94913
709.71171	0.95396
707.78315	0.95767
705.85458	0.95931
703.92602	0.95914
701.99745	0.95782
700.06889	0.95607
698.14032	0.95432
696.21176	0.95241
694.28319	0.94910
692.35463	0.94344
690.42607	0.93618
688.49750	0.92986
686.56894	0.92602
684.64037	0.92229
682.71181	0.91596
680.78324	0.90792
678.85468	0.90052
676.92611	0.89463
674.99755	0.88941
673.06899	0.88414
671.14042	0.87935
669.21186	0.87489
667.28329	0.87103
665.35473	0.86837
663.42616	0.86505
661.49760	0.86117
659.56903	0.85832
657.64047	0.85590
655.71191	0.85332
653.78334	0.85201
651.85478	0.85210
649.92621	0.85152
647.99765	0.85023
646.06908	0.85067
644.14052	0.85414
642.21195	0.86046
640.28339	0.86739
638.35483	0.87253
636.42626	0.87522
634.49770	0.87487
632.56913	0.87383
630.64057	0.87572
628.71200	0.87891
626.78344	0.88011
624.85488	0.88052
622.92631	0.88254
620.99775	0.88481
619.06918	0.88569
617.14062	0.88500
615.21205	0.88268
613.28349	0.87947
611.35492	0.87566
609.42636	0.87082
607.49780	0.86473
605.56923	0.85750
603.64067	0.84911
601.71210	0.83947
599.78354	0.82973
