3997.91406	0.77246
3995.98550	0.77117
3994.05693	0.77114
3992.12837	0.77189
3990.19980	0.77163
3988.27124	0.77094
3986.34268	0.77134
3984.41411	0.77257
3982.48555	0.77293
3980.55698	0.77096
3978.62842	0.76799
3976.69985	0.76670
3974.77129	0.76754
3972.84272	0.76840
3970.91416	0.76797
3968.98560	0.76791
3967.05703	0.76913
3965.12847	0.76972
3963.19990	0.76848
3961.27134	0.76657
3959.34277	0.76578
3957.41421	0.76683
3955.48564	0.76857
3953.55708	0.76906
3951.62852	0.76796
3949.69995	0.76616
3947.77139	0.76457
3945.84282	0.76416
3943.91426	0.76482
3941.98569	0.76539
3940.05713	0.76480
3938.12856	0.76372
3936.20000	0.76412
3934.27144	0.76619
3932.34287	0.76725
3930.41431	0.76635
3928.48574	0.76556
3926.55718	0.76404
3924.62861	0.76050
3922.70005	0.75769
3920.77148	0.75708
3918.84292	0.75729
3916.91436	0.75785
3914.98579	0.75862
3913.05723	0.75894
3911.12866	0.75859
3909.20010	0.75827
3907.27153	0.75864
3905.34297	0.75894
3903.41440	0.75799
3901.48584	0.75719
3899.55728	0.75722
3897.62871	0.75758
3895.70015	0.75812
3893.77158	0.75757
3891.84302	0.75582
3889.91445	0.75604
3887.98589	0.75799
3886.05733	0.75884
3884.12876	0.75751
3882.20020	0.75464
3880.27163	0.75107
3878.34307	0.75045
3876.41450	0.75238
3874.48594	0.75425
3872.55737	0.75468
3870.62881	0.75228
3868.70025	0.74914
3866.77168	0.74897
3864.84312	0.74968
3862.91455	0.74878
3860.98599	0.74828
3859.05742	0.75010
3857.12886	0.75351
3855.20029	0.75447
3853.27173	0.74706
3851.34317	0.74284
3849.41460	0.74447
3847.48604	0.74642
3845.55747	0.74677
3843.62891	0.74584
3841.70034	0.74532
3839.77178	0.74439
3837.84321	0.74217
3835.91465	0.74111
3833.98609	0.74106
3832.05752	0.74076
3830.12896	0.74092
3828.20039	0.74187
3826.27183	0.74195
3824.34326	0.74071
3822.41470	0.73921
3820.48613	0.73938
3818.55757	0.74117
3816.62901	0.74067
3814.70044	0.73817
3812.77188	0.73680
3810.84331	0.73647
3808.91475	0.73601
3806.98618	0.73512
3805.05762	0.73573
3803.12905	0.73642
3801.20049	0.73455
3799.27193	0.73319
3797.34336	0.73297
3795.41480	0.73295
3793.48623	0.73339
3791.55767	0.73316
3789.62910	0.73173
3787.70054	0.73063
3785.77197	0.73014
3783.84341	0.72925
3781.91485	0.72865
3779.98628	0.72805
3778.05772	0.72699
3776.12915	0.72678
3774.20059	0.72719
3772.27202	0.72725
3770.34346	0.72682
3768.41489	0.72640
3766.48633	0.72529
3764.55777	0.72392
3762.62920	0.72429
3760.70064	0.72548
3758.77207	0.72552
3756.84351	0.72505
3754.91494	0.72500
3752.98638	0.72544
3751.05781	0.72558
3749.12925	0.72447
3747.20069	0.72466
3745.27212	0.72589
3743.34356	0.72495
3741.41499	0.72352
3739.48643	0.72349
3737.55786	0.72372
3735.62930	0.72310
3733.70074	0.72228
3731.77217	0.72179
3729.84361	0.72198
3727.91504	0.72236
3725.98648	0.72222
3724.05791	0.72223
3722.12935	0.72149
3720.20078	0.71883
3718.27222	0.71641
3716.34366	0.71567
3714.41509	0.71617
3712.48653	0.71631
3710.55796	0.71525
3708.62940	0.71531
3706.70083	0.71616
3704.77227	0.71699
3702.84370	0.71737
3700.91514	0.71699
3698.98658	0.71654
3697.05801	0.71634
3695.12945	0.71728
3693.20088	0.72002
3691.27232	0.72230
3689.34375	0.72005
3687.41519	0.71746
3685.48662	0.71809
3683.55806	0.71939
3681.62950	0.72015
3679.70093	0.72084
3677.77237	0.72139
3675.84380	0.72236
3673.91524	0.72595
3671.98667	0.72965
3670.05811	0.73094
3668.12954	0.73025
3666.20098	0.73045
3664.27242	0.73192
3662.34385	0.73423
3660.41529	0.73754
3658.48672	0.74226
3656.55816	0.74729
3654.62959	0.75156
3652.70103	0.75679
3650.77246	0.76308
3648.84390	0.76537
3646.91534	0.76584
3644.98677	0.76892
3643.05821	0.77270
3641.12964	0.77610
3639.20108	0.77934
3637.27251	0.78275
3635.34395	0.78631
3633.41538	0.78974
3631.48682	0.79305
3629.55826	0.79721
3627.62969	0.80188
3625.70113	0.80622
3623.77256	0.81045
3621.84400	0.81395
3619.91543	0.81579
3617.98687	0.81739
3616.05830	0.82194
3614.12974	0.82862
3612.20118	0.83493
3610.27261	0.83963
3608.34405	0.84341
3606.41548	0.84735
3604.48692	0.85107
3602.55835	0.85384
3600.62979	0.85644
3598.70123	0.86075
3596.77266	0.86586
3594.84410	0.86989
3592.91553	0.87285
3590.98697	0.87490
3589.05840	0.87696
3587.12984	0.88256
3585.20127	0.89048
3583.27271	0.89577
3581.34415	0.89861
3579.41558	0.90097
3577.48702	0.90378
3575.55845	0.90737
3573.62989	0.91193
3571.70132	0.91602
3569.77276	0.91712
3567.84419	0.91704
3565.91563	0.92445
3563.98707	0.93550
3562.05850	0.94221
3560.12994	0.94522
3558.20137	0.94868
3556.27281	0.95368
3554.34424	0.95828
3552.41568	0.96198
3550.48711	0.96675
3548.55855	0.97374
3546.62999	0.98029
3544.70142	0.98341
3542.77286	0.98589
3540.84429	0.99033
3538.91573	0.99511
3536.98716	0.99868
3535.05860	1.00239
3533.13003	1.00794
3531.20147	1.01512
3529.27291	1.02175
3527.34434	1.02597
3525.41578	1.02886
3523.48721	1.03228
3521.55865	1.03671
3519.63008	1.04210
3517.70152	1.04887
3515.77295	1.05620
3513.84439	1.06196
3511.91583	1.06502
3509.98726	1.06820
3508.05870	1.07541
3506.13013	1.08455
3504.20157	1.09239
3502.27300	1.09793
3500.34444	1.10129
3498.41587	1.10472
3496.48731	1.11099
3494.55875	1.11945
3492.63018	1.12593
3490.70162	1.13025
3488.77305	1.13573
3486.84449	1.14033
3484.91592	1.14026
3482.98736	1.14029
3481.05879	1.14511
3479.13023	1.15053
3477.20167	1.15399
3475.27310	1.15714
3473.34454	1.16075
3471.41597	1.16458
3469.48741	1.16705
3467.55884	1.16806
3465.63028	1.17035
3463.70171	1.17455
3461.77315	1.17937
3459.84459	1.18514
3457.91602	1.19012
3455.98746	1.19087
3454.05889	1.19001
3452.13033	1.19220
3450.20176	1.19523
3448.27320	1.19511
3446.34464	1.19381
3444.41607	1.19498
3442.48751	1.19766
3440.55894	1.19948
3438.63038	1.20132
3436.70181	1.20495
3434.77325	1.20996
3432.84468	1.21363
3430.91612	1.21365
3428.98756	1.21335
3427.05899	1.21520
3425.13043	1.21681
3423.20186	1.21742
3421.27330	1.21699
3419.34473	1.21620
3417.41617	1.21816
3415.48760	1.22218
3413.55904	1.22405
3411.63048	1.22424
3409.70191	1.22623
3407.77335	1.22945
3405.84478	1.23169
3403.91622	1.23093
3401.98765	1.22734
3400.05909	1.22477
3398.13052	1.22605
3396.20196	1.23058
3394.27340	1.23453
3392.34483	1.23608
3390.41627	1.23768
3388.48770	1.23937
3386.55914	1.23891
3384.63057	1.23712
3382.70201	1.23704
3380.77344	1.23969
3378.84488	1.24340
3376.91632	1.24555
3374.98775	1.24498
3373.05919	1.24470
3371.13062	1.24835
3369.20206	1.25396
3367.27349	1.25666
3365.34493	1.25673
3363.41636	1.25901
3361.48780	1.26431
3359.55924	1.26830
3357.63067	1.26914
3355.70211	1.26976
3353.77354	1.27244
3351.84498	1.27552
3349.91641	1.27636
3347.98785	1.27613
3346.05928	1.27759
3344.13072	1.28004
3342.20216	1.28045
3340.27359	1.27682
3338.34503	1.27243
3336.41646	1.27433
3334.48790	1.28088
3332.55933	1.28469
3330.63077	1.28840
3328.70220	1.29547
3326.77364	1.30117
3324.84508	1.30431
3322.91651	1.30771
3320.98795	1.31199
3319.05938	1.31760
3317.13082	1.32352
3315.20225	1.32650
3313.27369	1.32564
3311.34513	1.32508
3309.41656	1.32789
3307.48800	1.33202
3305.55943	1.33556
3303.63087	1.33946
3301.70230	1.34429
3299.77374	1.34584
3297.84517	1.34196
3295.91661	1.33941
3293.98805	1.34146
3292.05948	1.34387
3290.13092	1.34485
3288.20235	1.34627
3286.27379	1.34836
3284.34522	1.34784
3282.41666	1.34255
3280.48809	1.33576
3278.55953	1.33283
3276.63097	1.33469
3274.70240	1.33643
3272.77384	1.33424
3270.84527	1.33166
3268.91671	1.33218
3266.98814	1.33156
3265.05958	1.32782
3263.13101	1.32410
3261.20245	1.31833
3259.27389	1.30944
3257.34532	1.30228
3255.41676	1.29892
3253.48819	1.29700
3251.55963	1.29285
3249.63106	1.28538
3247.70250	1.27757
3245.77393	1.27070
3243.84537	1.26292
3241.91681	1.25427
3239.98824	1.24728
3238.05968	1.24473
3236.13111	1.24545
3234.20255	1.24332
3232.27398	1.23591
3230.34542	1.22787
3228.41685	1.22383
3226.48829	1.22353
3224.55973	1.22388
3222.63116	1.22282
3220.70260	1.21933
3218.77403	1.21409
3216.84547	1.20901
3214.91690	1.20481
3212.98834	1.20270
3211.05977	1.20292
3209.13121	1.20210
3207.20265	1.19669
3205.27408	1.18749
3203.34552	1.17959
3201.41695	1.17580
3199.48839	1.17416
3197.55982	1.17222
3195.63126	1.16829
3193.70269	1.16209
3191.77413	1.15538
3189.84557	1.15053
3187.91700	1.14867
3185.98844	1.14849
3184.05987	1.14653
3182.13131	1.14144
3180.20274	1.13587
3178.27418	1.13169
3176.34562	1.12782
3174.41705	1.12352
3172.48849	1.12041
3170.55992	1.11941
3168.63136	1.11793
3166.70279	1.11421
3164.77423	1.11119
3162.84566	1.11027
3160.91710	1.10791
3158.98854	1.10311
3157.05997	1.09876
3155.13141	1.09506
3153.20284	1.09065
3151.27428	1.08646
3149.34571	1.08373
3147.41715	1.08206
3145.48858	1.08155
3143.56002	1.08166
3141.63146	1.08066
3139.70289	1.07976
3137.77433	1.07982
3135.84576	1.07874
3133.91720	1.07663
3131.98863	1.07500
3130.06007	1.07395
3128.13150	1.07359
3126.20294	1.07396
3124.27438	1.07415
3122.34581	1.07326
3120.41725	1.07175
3118.48868	1.07062
3116.56012	1.07002
3114.63155	1.06983
3112.70299	1.07019
3110.77442	1.07104
3108.84586	1.07159
3106.91730	1.07105
3104.98873	1.07060
3103.06017	1.07153
3101.13160	1.07224
3099.20304	1.07178
3097.27447	1.07116
3095.34591	1.06954
3093.41734	1.06657
3091.48878	1.06489
3089.56022	1.06533
3087.63165	1.06544
3085.70309	1.06430
3083.77452	1.06266
3081.84596	1.06007
3079.91739	1.05621
3077.98883	1.05246
3076.06026	1.05074
3074.13170	1.05002
3072.20314	1.04729
3070.27457	1.04292
3068.34601	1.03982
3066.41744	1.03824
3064.48888	1.03633
3062.56031	1.03396
3060.63175	1.03096
3058.70318	1.02658
3056.77462	1.02200
3054.84606	1.01828
3052.91749	1.01572
3050.98893	1.01465
3049.06036	1.01417
3047.13180	1.01257
3045.20323	1.00925
3043.27467	1.00519
3041.34610	1.00122
3039.41754	0.99782
3037.48898	0.99559
3035.56041	0.99366
3033.63185	0.99045
3031.70328	0.98644
3029.77472	0.98306
3027.84615	0.98019
3025.91759	0.97693
3023.98903	0.97378
3022.06046	0.97154
3020.13190	0.96888
3018.20333	0.96543
3016.27477	0.96340
3014.34620	0.96282
3012.41764	0.96205
3010.48907	0.96170
3008.56051	0.96169
3006.63195	0.96007
3004.70338	0.95775
3002.77482	0.95719
3000.84625	0.95785
2998.91769	0.95801
2996.98912	0.95776
2995.06056	0.95810
2993.13199	0.95884
2991.20343	0.95985
2989.27487	0.96214
2987.34630	0.96571
2985.41774	0.96986
2983.48917	0.97507
2981.56061	0.98129
2979.63204	0.98740
2977.70348	0.99354
2975.77491	1.00056
2973.84635	1.00835
2971.91779	1.01562
2969.98922	1.02108
2968.06066	1.02620
2966.13209	1.03211
2964.20353	1.03698
2962.27496	1.04037
2960.34640	1.04197
2958.41783	1.03997
2956.48927	1.03573
2954.56071	1.03164
2952.63214	1.02699
2950.70358	1.02153
2948.77501	1.01729
2946.84645	1.01639
2944.91788	1.01943
2942.98932	1.02507
2941.06075	1.03212
2939.13219	1.04034
2937.20363	1.04933
2935.27506	1.05875
2933.34650	1.06813
2931.41793	1.07697
2929.48937	1.08479
2927.56080	1.09113
2925.63224	1.09688
2923.70367	1.10314
2921.77511	1.10839
2919.84655	1.11006
2917.91798	1.10587
2915.98942	1.09338
2914.06085	1.07389
2912.13229	1.05286
2910.20372	1.03453
2908.27516	1.01952
2906.34659	1.00770
2904.41803	0.99976
2902.48947	0.99476
2900.56090	0.99085
2898.63234	0.98783
2896.70377	0.98537
2894.77521	0.98223
2892.84664	0.97830
2890.91808	0.97433
2888.98952	0.97000
2887.06095	0.96537
2885.13239	0.96234
2883.20382	0.96156
2881.27526	0.96139
2879.34669	0.96125
2877.41813	0.96153
2875.48956	0.96098
2873.56100	0.95845
2871.63244	0.95401
2869.70387	0.94771
2867.77531	0.94064
2865.84674	0.93514
2863.91818	0.93239
2861.98961	0.93235
2860.06105	0.93536
2858.13248	0.94110
2856.20392	0.94854
2854.27536	0.95753
2852.34679	0.96678
2850.41823	0.97017
2848.48966	0.96042
2846.56110	0.93901
2844.63253	0.91497
2842.70397	0.89447
2840.77540	0.87861
2838.84684	0.86732
2836.91828	0.86020
2834.98971	0.85498
2833.06115	0.84976
2831.13258	0.84473
2829.20402	0.84002
2827.27545	0.83613
2825.34689	0.83354
2823.41832	0.83113
2821.48976	0.82785
2819.56120	0.82385
2817.63263	0.81992
2815.70407	0.81703
2813.77550	0.81512
2811.84694	0.81315
2809.91837	0.81082
2807.98981	0.80829
2806.06124	0.80532
2804.13268	0.80206
2802.20412	0.79877
2800.27555	0.79586
2798.34699	0.79401
2796.41842	0.79272
2794.48986	0.79058
2792.56129	0.78769
2790.63273	0.78536
2788.70416	0.78374
2786.77560	0.78186
2784.84704	0.77972
2782.91847	0.77786
2780.98991	0.77619
2779.06134	0.77442
2777.13278	0.77260
2775.20421	0.77119
2773.27565	0.77025
2771.34708	0.76901
2769.41852	0.76733
2767.48996	0.76575
2765.56139	0.76430
2763.63283	0.76253
2761.70426	0.76008
2759.77570	0.75737
2757.84713	0.75499
2755.91857	0.75324
2753.99001	0.75211
2752.06144	0.75092
2750.13288	0.74920
2748.20431	0.74763
2746.27575	0.74654
2744.34718	0.74540
2742.41862	0.74420
2740.49005	0.74316
2738.56149	0.74218
2736.63293	0.74144
2734.70436	0.74097
2732.77580	0.74044
2730.84723	0.73956
2728.91867	0.73828
2726.99010	0.73696
2725.06154	0.73563
2723.13297	0.73442
2721.20441	0.73378
2719.27585	0.73334
2717.34728	0.73232
2715.41872	0.73067
2713.49015	0.72887
2711.56159	0.72729
2709.63302	0.72600
2707.70446	0.72507
2705.77589	0.72406
2703.84733	0.72225
2701.91877	0.72020
2699.99020	0.71856
2698.06164	0.71687
2696.13307	0.71515
2694.20451	0.71395
2692.27594	0.71276
2690.34738	0.71086
2688.41881	0.70879
2686.49025	0.70750
2684.56169	0.70689
2682.63312	0.70594
2680.70456	0.70443
2678.77599	0.70338
2676.84743	0.70319
2674.91886	0.70318
2672.99030	0.70284
2671.06173	0.70239
2669.13317	0.70194
2667.20461	0.70110
2665.27604	0.69974
2663.34748	0.69826
2661.41891	0.69713
2659.49035	0.69634
2657.56178	0.69537
2655.63322	0.69369
2653.70465	0.69145
2651.77609	0.68923
2649.84753	0.68737
2647.91896	0.68612
2645.99040	0.68537
2644.06183	0.68454
2642.13327	0.68351
2640.20470	0.68265
2638.27614	0.68204
2636.34757	0.68133
2634.41901	0.68043
2632.49045	0.67971
2630.56188	0.67924
2628.63332	0.67888
2626.70475	0.67853
2624.77619	0.67800
2622.84762	0.67710
2620.91906	0.67604
2618.99049	0.67492
2617.06193	0.67356
2615.13337	0.67234
2613.20480	0.67177
2611.27624	0.67128
2609.34767	0.66990
2607.41911	0.66810
2605.49054	0.66705
2603.56198	0.66651
2601.63342	0.66546
2599.70485	0.66388
2597.77629	0.66259
2595.84772	0.66191
2593.91916	0.66130
2591.99059	0.66042
2590.06203	0.65937
2588.13346	0.65791
2586.20490	0.65619
2584.27634	0.65491
2582.34777	0.65388
2580.41921	0.65257
2578.49064	0.65104
2576.56208	0.64966
2574.63351	0.64845
2572.70495	0.64707
2570.77638	0.64558
2568.84782	0.64434
2566.91926	0.64336
2564.99069	0.64244
2563.06213	0.64133
2561.13356	0.64004
2559.20500	0.63893
2557.27643	0.63800
2555.34787	0.63672
2553.41930	0.63490
2551.49074	0.63297
2549.56218	0.63136
2547.63361	0.63008
2545.70505	0.62876
2543.77648	0.62734
2541.84792	0.62581
2539.91935	0.62409
2537.99079	0.62259
2536.06222	0.62183
2534.13366	0.62160
2532.20510	0.62126
2530.27653	0.62037
2528.34797	0.61925
2526.41940	0.61847
2524.49084	0.61801
2522.56227	0.61734
2520.63371	0.61651
2518.70514	0.61582
2516.77658	0.61488
2514.84802	0.61341
2512.91945	0.61187
2510.99089	0.61051
2509.06232	0.60917
2507.13376	0.60786
2505.20519	0.60667
2503.27663	0.60551
2501.34806	0.60425
2499.41950	0.60277
2497.49094	0.60127
2495.56237	0.60002
2493.63381	0.59891
2491.70524	0.59781
2489.77668	0.59667
2487.84811	0.59534
2485.91955	0.59387
2483.99098	0.59243
2482.06242	0.59109
2480.13386	0.58979
2478.20529	0.58839
2476.27673	0.58692
2474.34816	0.58567
2472.41960	0.58451
2470.49103	0.58317
2468.56247	0.58189
2466.63391	0.58093
2464.70534	0.58009
2462.77678	0.57914
2460.84821	0.57826
2458.91965	0.57732
2456.99108	0.57622
2455.06252	0.57510
2453.13395	0.57374
2451.20539	0.57220
2449.27683	0.57077
2447.34826	0.56962
2445.41970	0.56869
2443.49113	0.56756
2441.56257	0.56597
2439.63400	0.56425
2437.70544	0.56270
2435.77687	0.56122
2433.84831	0.55984
2431.91975	0.55857
2429.99118	0.55724
2428.06262	0.55589
2426.13405	0.55465
2424.20549	0.55358
2422.27692	0.55240
2420.34836	0.55085
2418.41979	0.54939
2416.49123	0.54840
2414.56267	0.54746
2412.63410	0.54627
2410.70554	0.54517
2408.77697	0.54411
2406.84841	0.54295
2404.91984	0.54201
2402.99128	0.54117
2401.06271	0.53998
2399.13415	0.53871
2397.20559	0.53785
2395.27702	0.53696
2393.34846	0.53567
2391.41989	0.53440
2389.49133	0.53338
2387.56276	0.53271
2385.63420	0.53263
2383.70563	0.53311
2381.77707	0.53413
2379.84851	0.53577
2377.91994	0.53765
2375.99138	0.53968
2374.06281	0.54231
2372.13425	0.54573
2370.20568	0.54941
2368.27712	0.55230
2366.34855	0.55500
2364.41999	0.55890
2362.49143	0.56242
2360.56286	0.56367
2358.63430	0.56131
2356.70573	0.55400
2354.77717	0.54523
2352.84860	0.53864
2350.92004	0.53393
2348.99147	0.53137
2347.06291	0.53208
2345.13435	0.53618
2343.20578	0.53963
2341.27722	0.53763
2339.34865	0.53345
2337.42009	0.53238
2335.49152	0.53302
2333.56296	0.53155
2331.63440	0.52870
2329.70583	0.52710
2327.77727	0.52588
2325.84870	0.52334
2323.92014	0.52028
2321.99157	0.51755
2320.06301	0.51502
2318.13444	0.51283
2316.20588	0.51086
2314.27732	0.50875
2312.34875	0.50650
2310.42019	0.50415
2308.49162	0.50157
2306.56306	0.49899
2304.63449	0.49665
2302.70593	0.49448
2300.77736	0.49237
2298.84880	0.49046
2296.92024	0.48891
2294.99167	0.48744
2293.06311	0.48564
2291.13454	0.48352
2289.20598	0.48155
2287.27741	0.47997
2285.34885	0.47857
2283.42028	0.47736
2281.49172	0.47649
2279.56316	0.47568
2277.63459	0.47476
2275.70603	0.47382
2273.77746	0.47288
2271.84890	0.47220
2269.92033	0.47181
2267.99177	0.47113
2266.06320	0.47007
2264.13464	0.46922
2262.20608	0.46872
2260.27751	0.46822
2258.34895	0.46768
2256.42038	0.46711
2254.49182	0.46644
2252.56325	0.46570
2250.63469	0.46488
2248.70612	0.46403
2246.77756	0.46319
2244.84900	0.46227
2242.92043	0.46103
2240.99187	0.45940
2239.06330	0.45775
2237.13474	0.45643
2235.20617	0.45526
2233.27761	0.45398
2231.34904	0.45270
2229.42048	0.45171
2227.49192	0.45093
2225.56335	0.45024
2223.63479	0.44978
2221.70622	0.44949
2219.77766	0.44898
2217.84909	0.44820
2215.92053	0.44765
2213.99196	0.44756
2212.06340	0.44761
2210.13484	0.44744
2208.20627	0.44699
2206.27771	0.44635
2204.34914	0.44569
2202.42058	0.44514
2200.49201	0.44453
2198.56345	0.44366
2196.63488	0.44272
2194.70632	0.44192
2192.77776	0.44105
2190.84919	0.44012
2188.92063	0.43936
2186.99206	0.43872
2185.06350	0.43794
2183.13493	0.43705
2181.20637	0.43627
2179.27781	0.43566
2177.34924	0.43520
2175.42068	0.43493
2173.49211	0.43479
2171.56355	0.43439
2169.63498	0.43363
2167.70642	0.43296
2165.77785	0.43266
2163.84929	0.43234
2161.92073	0.43168
2159.99216	0.43105
2158.06360	0.43075
2156.13503	0.43047
2154.20647	0.42989
2152.27790	0.42913
2150.34934	0.42845
2148.42077	0.42785
2146.49221	0.42719
2144.56365	0.42662
2142.63508	0.42615
2140.70652	0.42558
2138.77795	0.42501
2136.84939	0.42457
2134.92082	0.42408
2132.99226	0.42346
2131.06369	0.42283
2129.13513	0.42221
2127.20657	0.42153
2125.27800	0.42083
2123.34944	0.42016
2121.42087	0.41946
2119.49231	0.41878
2117.56374	0.41835
2115.63518	0.41805
2113.70661	0.41767
2111.77805	0.41729
2109.84949	0.41695
2107.92092	0.41653
2105.99236	0.41605
2104.06379	0.41568
2102.13523	0.41550
2100.20666	0.41542
2098.27810	0.41530
2096.34953	0.41513
2094.42097	0.41484
2092.49241	0.41431
2090.56384	0.41360
2088.63528	0.41285
2086.70671	0.41215
2084.77815	0.41144
2082.84958	0.41049
2080.92102	0.40948
2078.99245	0.40866
2077.06389	0.40799
2075.13533	0.40720
2073.20676	0.40615
2071.27820	0.40514
2069.34963	0.40445
2067.42107	0.40385
2065.49250	0.40301
2063.56394	0.40214
2061.63537	0.40174
2059.70681	0.40176
2057.77825	0.40171
2055.84968	0.40141
2053.92112	0.40103
2051.99255	0.40073
2050.06399	0.40052
2048.13542	0.40029
2046.20686	0.39987
2044.27830	0.39923
2042.34973	0.39858
2040.42117	0.39803
2038.49260	0.39749
2036.56404	0.39679
2034.63547	0.39588
2032.70691	0.39485
2030.77834	0.39382
2028.84978	0.39293
2026.92122	0.39222
2024.99265	0.39147
2023.06409	0.39061
2021.13552	0.38988
2019.20696	0.38930
2017.27839	0.38867
2015.34983	0.38803
2013.42126	0.38755
2011.49270	0.38708
2009.56414	0.38639
2007.63557	0.38558
2005.70701	0.38487
2003.77844	0.38433
2001.84988	0.38390
1999.92131	0.38349
1997.99275	0.38310
1996.06418	0.38282
1994.13562	0.38266
1992.20706	0.38251
1990.27849	0.38227
1988.34993	0.38199
1986.42136	0.38169
1984.49280	0.38143
1982.56423	0.38121
1980.63567	0.38092
1978.70710	0.38045
1976.77854	0.37983
1974.84998	0.37920
1972.92141	0.37868
1970.99285	0.37808
1969.06428	0.37732
1967.13572	0.37646
1965.20715	0.37556
1963.27859	0.37480
1961.35002	0.37420
1959.42146	0.37369
1957.49290	0.37325
1955.56433	0.37288
1953.63577	0.37252
1951.70720	0.37220
1949.77864	0.37187
1947.85007	0.37152
1945.92151	0.37119
1943.99294	0.37089
1942.06438	0.37050
1940.13582	0.37001
1938.20725	0.36958
1936.27869	0.36927
1934.35012	0.36898
1932.42156	0.36866
1930.49299	0.36837
1928.56443	0.36814
1926.63586	0.36785
1924.70730	0.36770
1922.77874	0.36782
1920.85017	0.36783
1918.92161	0.36763
1916.99304	0.36736
1915.06448	0.36692
1913.13591	0.36636
1911.20735	0.36589
1909.27878	0.36555
1907.35022	0.36509
1905.42166	0.36449
1903.49309	0.36410
1901.56453	0.36400
1899.63596	0.36389
1897.70740	0.36374
1895.77883	0.36370
1893.85027	0.36357
1891.92171	0.36335
1889.99314	0.36324
1888.06458	0.36309
1886.13601	0.36288
1884.20745	0.36266
1882.27888	0.36235
1880.35032	0.36189
1878.42175	0.36119
1876.49319	0.36044
1874.56463	0.35998
1872.63606	0.35987
1870.70750	0.36000
1868.77893	0.36017
1866.85037	0.36001
1864.92180	0.35970
1862.99324	0.35954
1861.06467	0.35952
1859.13611	0.35959
1857.20755	0.35969
1855.27898	0.35978
1853.35042	0.35978
1851.42185	0.35967
1849.49329	0.35946
1847.56472	0.35911
1845.63616	0.35872
1843.70759	0.35805
1841.77903	0.35708
1839.85047	0.35622
1837.92190	0.35568
1835.99334	0.35544
1834.06477	0.35528
1832.13621	0.35520
1830.20764	0.35519
1828.27908	0.35506
1826.35051	0.35485
1824.42195	0.35471
1822.49339	0.35455
1820.56482	0.35437
1818.63626	0.35432
1816.70769	0.35422
1814.77913	0.35411
1812.85056	0.35416
1810.92200	0.35423
1808.99343	0.35413
1807.06487	0.35395
1805.13631	0.35389
1803.20774	0.35412
1801.27918	0.35473
1799.35061	0.35531
1797.42205	0.35568
1795.49348	0.35611
1793.56492	0.35663
1791.63635	0.35699
1789.70779	0.35667
1787.77923	0.35614
1785.85066	0.35576
1783.92210	0.35556
1781.99353	0.35550
1780.06497	0.35534
1778.13640	0.35505
1776.20784	0.35481
1774.27927	0.35496
1772.35071	0.35531
1770.42215	0.35528
1768.49358	0.35536
1766.56502	0.35602
1764.63645	0.35729
1762.70789	0.35941
1760.77932	0.36226
1758.85076	0.36528
1756.92220	0.36932
1754.99363	0.37393
1753.06507	0.37878
1751.13650	0.38612
1749.20794	0.39593
1747.27937	0.40439
1745.35081	0.41099
1743.42224	0.41670
1741.49368	0.42170
1739.56512	0.42582
1737.63655	0.42846
1735.70799	0.43015
1733.77942	0.43194
1731.85086	0.43249
1729.92229	0.43240
1727.99373	0.43300
1726.06516	0.43465
1724.13660	0.43772
1722.20804	0.44144
1720.27947	0.44564
1718.35091	0.45325
1716.42234	0.46594
1714.49378	0.47645
1712.56521	0.48541
1710.63665	0.49638
1708.70808	0.51044
1706.77952	0.53195
1704.85096	0.56126
1702.92239	0.58845
1700.99383	0.62554
1699.06526	0.68299
1697.13670	0.73595
1695.20813	0.78611
1693.27957	0.82286
1691.35100	0.85192
1689.42244	0.88636
1687.49388	0.91798
1685.56531	0.95024
1683.63675	1.00163
1681.70818	1.03983
1679.77962	1.06163
1677.85105	1.08169
1675.92249	1.10557
1673.99392	1.13169
1672.06536	1.15284
1670.13680	1.17604
1668.20823	1.20121
1666.27967	1.21603
1664.35110	1.22891
1662.42254	1.24618
1660.49397	1.26054
1658.56541	1.26871
1656.63684	1.27335
1654.70828	1.27706
1652.77972	1.27880
1650.85115	1.27810
1648.92259	1.27766
1646.99402	1.27814
1645.06546	1.27783
1643.13689	1.27464
1641.20833	1.27173
1639.27976	1.27002
1637.35120	1.26985
1635.42264	1.26803
1633.49407	1.26229
1631.56551	1.25733
1629.63694	1.25216
1627.70838	1.24535
1625.77981	1.23584
1623.85125	1.22180
1621.92269	1.20455
1619.99412	1.18926
1618.06556	1.16977
1616.13699	1.13922
1614.20843	1.11361
1612.27986	1.09349
1610.35130	1.07200
1608.42273	1.05005
1606.49417	1.03103
1604.56561	1.01525
1602.63704	1.00150
1600.70848	0.99075
1598.77991	0.98335
1596.85135	0.97787
1594.92278	0.97362
1592.99422	0.97095
1591.06565	0.97002
1589.13709	0.97152
1587.20853	0.97609
1585.27996	0.98292
1583.35140	0.99169
1581.42283	1.00201
1579.49427	1.01290
1577.56570	1.02757
1575.63714	1.04792
1573.70857	1.06087
1571.78001	1.06988
1569.85145	1.08550
1567.92288	1.10312
1565.99432	1.11575
1564.06575	1.12727
1562.13719	1.13667
1560.20862	1.14885
1558.28006	1.17373
1556.35149	1.18445
1554.42293	1.18841
1552.49437	1.19245
1550.56580	1.19607
1548.63724	1.19921
1546.70867	1.20123
1544.78011	1.20189
1542.85154	1.20253
1540.92298	1.20492
1538.99441	1.20268
1537.06585	1.19866
1535.13729	1.19428
1533.20872	1.18757
1531.28016	1.18028
1529.35159	1.17467
1527.42303	1.16933
1525.49446	1.16292
1523.56590	1.15695
1521.63733	1.15285
1519.70877	1.15042
1517.78021	1.14317
1515.85164	1.12907
1513.92308	1.11438
1511.99451	1.10061
1510.06595	1.08708
1508.13738	1.06535
1506.20882	1.02751
1504.28025	1.00695
1502.35169	0.99356
1500.42313	0.97839
1498.49456	0.95960
1496.56600	0.93591
1494.63743	0.91509
1492.70887	0.89979
1490.78030	0.88227
1488.85174	0.85931
1486.92317	0.84148
1484.99461	0.82970
1483.06605	0.82059
1481.13748	0.81391
1479.20892	0.81092
1477.28035	0.81220
1475.35179	0.81823
1473.42322	0.83166
1471.49466	0.84792
1469.56610	0.85724
1467.63753	0.86355
1465.70897	0.87186
1463.78040	0.88105
1461.85184	0.88630
1459.92327	0.88981
1457.99471	0.89644
1456.06614	0.90175
1454.13758	0.90012
1452.20902	0.89723
1450.28045	0.89439
1448.35189	0.89083
1446.42332	0.88610
1444.49476	0.88131
1442.56619	0.87668
1440.63763	0.87205
1438.70906	0.86704
1436.78050	0.86008
1434.85194	0.85213
1432.92337	0.84535
1430.99481	0.83860
1429.06624	0.83222
1427.13768	0.82814
1425.20911	0.82642
1423.28055	0.82643
1421.35198	0.82744
1419.42342	0.82912
1417.49486	0.82983
1415.56629	0.82864
1413.63773	0.82673
1411.70916	0.82455
1409.78060	0.82281
1407.85203	0.82209
1405.92347	0.82263
1403.99490	0.82397
1402.06634	0.82529
1400.13778	0.82733
1398.20921	0.83004
1396.28065	0.83228
1394.35208	0.83446
1392.42352	0.83659
1390.49495	0.83905
1388.56639	0.84447
1386.63782	0.85442
1384.70926	0.86491
1382.78070	0.87380
1380.85213	0.88053
1378.92357	0.88298
1376.99500	0.88031
1375.06644	0.87192
1373.13787	0.85899
1371.20931	0.84566
1369.28074	0.83114
1367.35218	0.81513
1365.42362	0.80048
1363.49505	0.78693
1361.56649	0.77500
1359.63792	0.76681
1357.70936	0.76139
1355.78079	0.75756
1353.85223	0.75441
1351.92366	0.75110
1349.99510	0.74757
1348.06654	0.74410
1346.13797	0.74099
1344.20941	0.73857
1342.28084	0.73685
1340.35228	0.73586
1338.42371	0.73578
1336.49515	0.73736
1334.56659	0.74156
1332.63802	0.74836
1330.70946	0.75644
1328.78089	0.76387
1326.85233	0.76944
1324.92376	0.77336
1322.99520	0.77660
1321.06663	0.77988
1319.13807	0.78303
1317.20951	0.78532
1315.28094	0.78668
1313.35238	0.78773
1311.42381	0.78822
1309.49525	0.78755
1307.56668	0.78587
1305.63812	0.78343
1303.70955	0.78053
1301.78099	0.77750
1299.85243	0.77436
1297.92386	0.77112
1295.99530	0.76818
1294.06673	0.76597
1292.13817	0.76465
1290.20960	0.76445
1288.28104	0.76489
1286.35247	0.76476
1284.42391	0.76359
1282.49535	0.76176
1280.56678	0.75966
1278.63822	0.75768
1276.70965	0.75622
1274.78109	0.75560
1272.85252	0.75623
1270.92396	0.75856
1268.99539	0.76264
1267.06683	0.76789
1265.13827	0.77308
1263.20970	0.77728
1261.28114	0.78057
1259.35257	0.78366
1257.42401	0.78696
1255.49544	0.79024
1253.56688	0.79331
1251.63831	0.79628
1249.70975	0.79880
1247.78119	0.80047
1245.85262	0.80116
1243.92406	0.80066
1241.99549	0.79907
1240.06693	0.79665
1238.13836	0.79330
1236.20980	0.78910
1234.28123	0.78422
1232.35267	0.77865
1230.42411	0.77258
1228.49554	0.76629
1226.56698	0.75968
1224.63841	0.75272
1222.70985	0.74590
1220.78128	0.73945
1218.85272	0.73311
1216.92415	0.72707
1214.99559	0.72218
1213.06703	0.71908
1211.13846	0.71729
1209.20990	0.71562
1207.28133	0.71291
1205.35277	0.70788
1203.42420	0.69979
1201.49564	0.68939
1199.56708	0.67822
1197.63851	0.66762
1195.70995	0.65843
1193.78138	0.65117
1191.85282	0.64608
1189.92425	0.64305
1187.99569	0.64178
1186.06712	0.64213
1184.13856	0.64386
1182.21000	0.64641
1180.28143	0.64960
1178.35287	0.65400
1176.42430	0.66000
1174.49574	0.66698
1172.56717	0.67419
1170.63861	0.68192
1168.71004	0.69146
1166.78148	0.70340
1164.85292	0.71650
1162.92435	0.72871
1160.99579	0.73827
1159.06722	0.74347
1157.13866	0.74325
1155.21009	0.73786
1153.28153	0.72857
1151.35296	0.71710
1149.42440	0.70482
1147.49584	0.69248
1145.56727	0.68126
1143.63871	0.67265
1141.71014	0.66716
1139.78158	0.66418
1137.85301	0.66301
1135.92445	0.66359
1133.99588	0.66668
1132.06732	0.67321
1130.13876	0.68319
1128.21019	0.69556
1126.28163	0.70888
1124.35306	0.72233
1122.42450	0.73594
1120.49593	0.74910
1118.56737	0.76010
1116.63880	0.76769
1114.71024	0.77168
1112.78168	0.77227
1110.85311	0.77004
1108.92455	0.76603
1106.99598	0.76115
1105.06742	0.75618
1103.13885	0.75175
1101.21029	0.74785
1099.28172	0.74497
1097.35316	0.74477
1095.42460	0.74810
1093.49603	0.75405
1091.56747	0.76208
1089.63890	0.77315
1087.71034	0.78762
1085.78177	0.80461
1083.85321	0.82287
1081.92464	0.84075
1079.99608	0.85597
1078.06752	0.86661
1076.13895	0.87176
1074.21039	0.87139
1072.28182	0.86684
1070.35326	0.85951
1068.42469	0.84955
1066.49613	0.83730
1064.56756	0.82338
1062.63900	0.80812
1060.71044	0.79168
1058.78187	0.77432
1056.85331	0.75733
1054.92474	0.74237
1052.99618	0.73023
1051.06761	0.72143
1049.13905	0.71673
1047.21049	0.71680
1045.28192	0.72147
1043.35336	0.72970
1041.42479	0.73986
1039.49623	0.75001
1037.56766	0.75897
1035.63910	0.76594
1033.71053	0.76972
1031.78197	0.76981
1029.85341	0.76627
1027.92484	0.75893
1025.99628	0.74820
1024.06771	0.73566
1022.13915	0.72330
1020.21058	0.71262
1018.28202	0.70397
1016.35345	0.69604
1014.42489	0.68691
1012.49633	0.67544
1010.56776	0.66187
1008.63920	0.64728
1006.71063	0.63267
1004.78207	0.61874
1002.85350	0.60621
1000.92494	0.59535
998.99637	0.58602
997.06781	0.57793
995.13925	0.57034
993.21068	0.56224
991.28212	0.55307
989.35355	0.54294
987.42499	0.53264
985.49642	0.52325
983.56786	0.51567
981.63929	0.51041
979.71073	0.50716
977.78217	0.50511
975.85360	0.50344
973.92504	0.50130
971.99647	0.49813
970.06791	0.49374
968.13934	0.48857
966.21078	0.48373
964.28221	0.48005
962.35365	0.47820
960.42509	0.47954
958.49652	0.48470
956.56796	0.49120
954.63939	0.49447
952.71083	0.49186
950.78226	0.48396
948.85370	0.47305
946.92513	0.46179
944.99657	0.45234
943.06801	0.44559
941.13944	0.44111
939.21088	0.43814
937.28231	0.43638
935.35375	0.43552
933.42518	0.43518
931.49662	0.43540
929.56805	0.43600
927.63949	0.43660
925.71093	0.43726
923.78236	0.43788
921.85380	0.43760
919.92523	0.43583
917.99667	0.43285
916.06810	0.42929
914.13954	0.42588
912.21098	0.42335
910.28241	0.42205
908.35385	0.42214
906.42528	0.42375
904.49672	0.42654
902.56815	0.42993
900.63959	0.43365
898.71102	0.43728
896.78246	0.44032
894.85390	0.44252
892.92533	0.44391
890.99677	0.44456
889.06820	0.44469
887.13964	0.44451
885.21107	0.44396
883.28251	0.44320
881.35394	0.44271
879.42538	0.44246
877.49682	0.44195
875.56825	0.44094
873.63969	0.43979
871.71112	0.43890
869.78256	0.43810
867.85399	0.43737
865.92543	0.43708
863.99686	0.43731
862.06830	0.43802
860.13974	0.43954
858.21117	0.44195
856.28261	0.44482
854.35404	0.44777
852.42548	0.45074
850.49691	0.45380
848.56835	0.45655
846.63978	0.45865
844.71122	0.46060
842.78266	0.46277
840.85409	0.46499
838.92553	0.46739
836.99696	0.47000
835.06840	0.47256
833.13983	0.47517
831.21127	0.47760
829.28270	0.47950
827.35414	0.48140
825.42558	0.48352
823.49701	0.48545
821.56845	0.48739
819.63988	0.48970
817.71132	0.49222
815.78275	0.49472
813.85419	0.49687
811.92562	0.49839
809.99706	0.49952
808.06850	0.50043
806.13993	0.50094
804.21137	0.50142
802.28280	0.50218
800.35424	0.50279
798.42567	0.50296
796.49711	0.50298
794.56854	0.50364
792.63998	0.50546
790.71142	0.50798
788.78285	0.51080
786.85429	0.51434
784.92572	0.51899
782.99716	0.52450
781.06859	0.53043
779.14003	0.53622
777.21147	0.54164
775.28290	0.54718
773.35434	0.55263
771.42577	0.55745
769.49721	0.56186
767.56864	0.56571
765.64008	0.56853
763.71151	0.57031
761.78295	0.57102
759.85439	0.57084
757.92582	0.57058
755.99726	0.57057
754.06869	0.57047
752.14013	0.57034
750.21156	0.57048
748.28300	0.57097
746.35443	0.57180
744.42587	0.57277
742.49731	0.57376
740.56874	0.57499
738.64018	0.57666
736.71161	0.57893
734.78305	0.58206
732.85448	0.58585
730.92592	0.58961
728.99735	0.59266
727.06879	0.59504
725.14023	0.59766
723.21166	0.60149
721.28310	0.60639
719.35453	0.61063
717.42597	0.61351
715.49740	0.61656
713.56884	0.62076
711.64027	0.62587
709.71171	0.63115
707.78315	0.63591
705.85458	0.64023
703.92602	0.64433
701.99745	0.64768
700.06889	0.64967
698.14032	0.64985
696.21176	0.64824
694.28319	0.64645
692.35463	0.64578
690.42607	0.64491
688.49750	0.64247
686.56894	0.63935
684.64037	0.63653
682.71181	0.63366
680.78324	0.63085
678.85468	0.62895
676.92611	0.62778
674.99755	0.62678
673.06899	0.62682
671.14042	0.62903
669.21186	0.63375
667.28329	0.63685
665.35473	0.63637
663.42616	0.63673
661.49760	0.63895
659.56903	0.64220
657.64047	0.64574
655.71191	0.64857
653.78334	0.64993
651.85478	0.65112
649.92621	0.65381
647.99765	0.65697
646.06908	0.65887
644.14052	0.66056
642.21195	0.66303
640.28339	0.66441
638.35483	0.66333
636.42626	0.66091
634.49770	0.65806
632.56913	0.65460
630.64057	0.65079
628.71200	0.64753
626.78344	0.64526
624.85488	0.64422
622.92631	0.64440
620.99775	0.64491
619.06918	0.64552
617.14062	0.64649
615.21205	0.64843
613.28349	0.65208
611.35492	0.65612
609.42636	0.65924
607.49780	0.66215
605.56923	0.66546
603.64067	0.66782
601.71210	0.66791
599.78354	0.66606
