3997.91406	0.90929
3995.98550	0.90748
3994.05693	0.90751
3992.12837	0.90886
3990.19980	0.91037
3988.27124	0.91109
3986.34268	0.91224
3984.41411	0.91297
3982.48555	0.91070
3980.55698	0.90693
3978.62842	0.90427
3976.69985	0.90297
3974.77129	0.90281
3972.84272	0.90272
3970.91416	0.90216
3968.98560	0.90205
3967.05703	0.90151
3965.12847	0.89900
3963.19990	0.89719
3961.27134	0.89909
3959.34277	0.90102
3957.41421	0.89946
3955.48564	0.89741
3953.55708	0.89763
3951.62852	0.89872
3949.69995	0.89941
3947.77139	0.89911
3945.84282	0.89677
3943.91426	0.89435
3941.98569	0.89399
3940.05713	0.89347
3938.12856	0.89098
3936.20000	0.88758
3934.27144	0.88690
3932.34287	0.89069
3930.41431	0.89187
3928.48574	0.88726
3926.55718	0.88346
3924.62861	0.88344
3922.70005	0.88307
3920.77148	0.88087
3918.84292	0.88066
3916.91436	0.88248
3914.98579	0.88128
3913.05723	0.87785
3911.12866	0.87499
3909.20010	0.87152
3907.27153	0.86821
3905.34297	0.86929
3903.41440	0.87454
3901.48584	0.87920
3899.55728	0.88144
3897.62871	0.87841
3895.70015	0.87183
3893.77158	0.86764
3891.84302	0.87067
3889.91445	0.87314
3887.98589	0.86899
3886.05733	0.86488
3884.12876	0.86347
3882.20020	0.86359
3880.27163	0.86651
3878.34307	0.86460
3876.41450	0.85865
3874.48594	0.85608
3872.55737	0.85634
3870.62881	0.85845
3868.70025	0.86090
3866.77168	0.85927
3864.84312	0.85941
3862.91455	0.86320
3860.98599	0.86255
3859.05742	0.85633
3857.12886	0.84732
3855.20029	0.84323
3853.27173	0.85721
3851.34317	0.86506
3849.41460	0.86022
3847.48604	0.85477
3845.55747	0.85147
3843.62891	0.84997
3841.70034	0.84787
3839.77178	0.84789
3837.84321	0.85314
3835.91465	0.85472
3833.98609	0.85188
3832.05752	0.85005
3830.12896	0.84897
3828.20039	0.84658
3826.27183	0.84278
3824.34326	0.83820
3822.41470	0.83891
3820.48613	0.84766
3818.55757	0.84972
3816.62901	0.84977
3814.70044	0.85056
3812.77188	0.84504
3810.84331	0.83687
3808.91475	0.83203
3806.98618	0.83283
3805.05762	0.83243
3803.12905	0.83093
3801.20049	0.83464
3799.27193	0.83513
3797.34336	0.83257
3795.41480	0.83178
3793.48623	0.83004
3791.55767	0.82798
3789.62910	0.82754
3787.70054	0.82832
3785.77197	0.82967
3783.84341	0.82950
3781.91485	0.82757
3779.98628	0.82787
3778.05772	0.82962
3776.12915	0.82824
3774.20059	0.82462
3772.27202	0.82126
3770.34346	0.82032
3768.41489	0.82091
3766.48633	0.82099
3764.55777	0.81999
3762.62920	0.81733
3760.70064	0.81601
3758.77207	0.81809
3756.84351	0.81871
3754.91494	0.81562
3752.98638	0.81160
3751.05781	0.81340
3749.12925	0.81695
3747.20069	0.81553
3745.27212	0.81933
3743.34356	0.82511
3741.41499	0.82009
3739.48643	0.81107
3737.55786	0.80615
3735.62930	0.80986
3733.70074	0.81769
3731.77217	0.82097
3729.84361	0.81881
3727.91504	0.81440
3725.98648	0.81178
3724.05791	0.81146
3722.12935	0.81101
3720.20078	0.80960
3718.27222	0.80690
3716.34366	0.80287
3714.41509	0.79891
3712.48653	0.80048
3710.55796	0.80779
3708.62940	0.80898
3706.70083	0.80546
3704.77227	0.80137
3702.84370	0.80107
3700.91514	0.80390
3698.98658	0.80284
3697.05801	0.79961
3695.12945	0.79713
3693.20088	0.79556
3691.27232	0.79695
3689.34375	0.80282
3687.41519	0.80592
3685.48662	0.80444
3683.55806	0.80196
3681.62950	0.80030
3679.70093	0.79948
3677.77237	0.80041
3675.84380	0.80849
3673.91524	0.81252
3671.98667	0.80838
3670.05811	0.81180
3668.12954	0.81926
3666.20098	0.81944
3664.27242	0.81650
3662.34385	0.81458
3660.41529	0.81517
3658.48672	0.81802
3656.55816	0.82314
3654.62959	0.82467
3652.70103	0.82132
3650.77246	0.82309
3648.84390	0.83848
3646.91534	0.84797
3644.98677	0.84800
3643.05821	0.84682
3641.12964	0.84764
3639.20108	0.85015
3637.27251	0.85311
3635.34395	0.85710
3633.41538	0.85997
3631.48682	0.85968
3629.55826	0.86597
3627.62969	0.87807
3625.70113	0.87948
3623.77256	0.87677
3621.84400	0.87455
3619.91543	0.87760
3617.98687	0.88621
3616.05830	0.89177
3614.12974	0.89756
3612.20118	0.90455
3610.27261	0.90952
3608.34405	0.91512
3606.41548	0.91834
3604.48692	0.91703
3602.55835	0.91699
3600.62979	0.92199
3598.70123	0.92814
3596.77266	0.93130
3594.84410	0.93442
3592.91553	0.93839
3590.98697	0.94036
3589.05840	0.94464
3587.12984	0.95546
3585.20127	0.96224
3583.27271	0.96348
3581.34415	0.96531
3579.41558	0.96911
3577.48702	0.97397
3575.55845	0.97920
3573.62989	0.98331
3571.70132	0.98468
3569.77276	0.98536
3567.84419	0.99218
3565.91563	1.00390
3563.98707	1.00922
3562.05850	1.01119
3560.12994	1.01420
3558.20137	1.01866
3556.27281	1.02308
3554.34424	1.02775
3552.41568	1.03368
3550.48711	1.03813
3548.55855	1.04248
3546.62999	1.05135
3544.70142	1.06147
3542.77286	1.06548
3540.84429	1.06437
3538.91573	1.06466
3536.98716	1.07056
3535.05860	1.07752
3533.13003	1.07991
3531.20147	1.08156
3529.27291	1.08821
3527.34434	1.09821
3525.41578	1.10640
3523.48721	1.11214
3521.55865	1.11678
3519.63008	1.12181
3517.70152	1.12864
3515.77295	1.13482
3513.84439	1.13890
3511.91583	1.14542
3509.98726	1.15617
3508.05870	1.16529
3506.13013	1.17208
3504.20157	1.18229
3502.27300	1.19188
3500.34444	1.19514
3498.41587	1.19860
3496.48731	1.20579
3494.55875	1.21373
3492.63018	1.22021
3490.70162	1.22527
3488.77305	1.23051
3486.84449	1.23678
3484.91592	1.24137
3482.98736	1.24398
3481.05879	1.24796
3479.13023	1.25228
3477.20167	1.25678
3475.27310	1.26380
3473.34454	1.27115
3471.41597	1.27604
3469.48741	1.27857
3467.55884	1.28041
3465.63028	1.28365
3463.70171	1.28862
3461.77315	1.29286
3459.84459	1.29401
3457.91602	1.29502
3455.98746	1.29875
3454.05889	1.30333
3452.13033	1.30819
3450.20176	1.31347
3448.27320	1.31868
3446.34464	1.32357
3444.41607	1.32521
3442.48751	1.32594
3440.55894	1.33100
3438.63038	1.33654
3436.70181	1.33810
3434.77325	1.33798
3432.84468	1.33991
3430.91612	1.34474
3428.98756	1.34884
3427.05899	1.34934
3425.13043	1.34787
3423.20186	1.34543
3421.27330	1.34217
3419.34473	1.34046
3417.41617	1.34087
3415.48760	1.34140
3413.55904	1.34073
3411.63048	1.33816
3409.70191	1.33574
3407.77335	1.33666
3405.84478	1.34041
3403.91622	1.34544
3401.98765	1.34973
3400.05909	1.35049
3398.13052	1.34842
3396.20196	1.34657
3394.27340	1.34837
3392.34483	1.35526
3390.41627	1.36249
3388.48770	1.36538
3386.55914	1.36532
3384.63057	1.36461
3382.70201	1.36277
3380.77344	1.35952
3378.84488	1.35825
3376.91632	1.36118
3374.98775	1.36520
3373.05919	1.36707
3371.13062	1.36798
3369.20206	1.37030
3367.27349	1.37333
3365.34493	1.37641
3363.41636	1.38002
3361.48780	1.38249
3359.55924	1.38418
3357.63067	1.38782
3355.70211	1.39267
3353.77354	1.39583
3351.84498	1.39696
3349.91641	1.39823
3347.98785	1.40191
3346.05928	1.40825
3344.13072	1.41474
3342.20216	1.42014
3340.27359	1.42506
3338.34503	1.42853
3336.41646	1.43085
3334.48790	1.43147
3332.55933	1.42927
3330.63077	1.42990
3328.70220	1.43817
3326.77364	1.44980
3324.84508	1.45915
3322.91651	1.46506
3320.98795	1.46668
3319.05938	1.46587
3317.13082	1.46943
3315.20225	1.47879
3313.27369	1.48794
3311.34513	1.49309
3309.41656	1.49416
3307.48800	1.49265
3305.55943	1.49422
3303.63087	1.50041
3301.70230	1.50303
3299.77374	1.50100
3297.84517	1.50183
3295.91661	1.50528
3293.98805	1.50855
3292.05948	1.51139
3290.13092	1.51236
3288.20235	1.51189
3286.27379	1.51061
3284.34522	1.50788
3282.41666	1.50521
3280.48809	1.50661
3278.55953	1.51265
3276.63097	1.51544
3274.70240	1.50900
3272.77384	1.49909
3270.84527	1.49339
3268.91671	1.49243
3266.98814	1.49232
3265.05958	1.48939
3263.13101	1.48290
3261.20245	1.47610
3259.27389	1.46989
3257.34532	1.46114
3255.41676	1.44990
3253.48819	1.43717
3251.55963	1.42373
3249.63106	1.41299
3247.70250	1.40612
3245.77393	1.40042
3243.84537	1.39281
3241.91681	1.38244
3239.98824	1.37164
3238.05968	1.36418
3236.13111	1.36135
3234.20255	1.35850
3232.27398	1.35161
3230.34542	1.34311
3228.41685	1.33499
3226.48829	1.32902
3224.55973	1.32740
3222.63116	1.32703
3220.70260	1.32400
3218.77403	1.31861
3216.84547	1.31255
3214.91690	1.30650
3212.98834	1.30177
3211.05977	1.29905
3209.13121	1.29568
3207.20265	1.29051
3205.27408	1.28419
3203.34552	1.27599
3201.41695	1.26795
3199.48839	1.26307
3197.55982	1.26039
3195.63126	1.25818
3193.70269	1.25517
3191.77413	1.24915
3189.84557	1.24087
3187.91700	1.23357
3185.98844	1.22726
3184.05987	1.21995
3182.13131	1.21317
3180.20274	1.21032
3178.27418	1.21036
3176.34562	1.20833
3174.41705	1.20236
3172.48849	1.19499
3170.55992	1.18893
3168.63136	1.18539
3166.70279	1.18393
3164.77423	1.18265
3162.84566	1.17996
3160.91710	1.17537
3158.98854	1.16907
3157.05997	1.16212
3155.13141	1.15613
3153.20284	1.15246
3151.27428	1.15060
3149.34571	1.14864
3147.41715	1.14638
3145.48858	1.14401
3143.56002	1.14077
3141.63146	1.13730
3139.70289	1.13471
3137.77433	1.13339
3135.84576	1.13315
3133.91720	1.13181
3131.98863	1.12840
3130.06007	1.12593
3128.13150	1.12554
3126.20294	1.12471
3124.27438	1.12263
3122.34581	1.12077
3120.41725	1.12022
3118.48868	1.12141
3116.56012	1.12352
3114.63155	1.12547
3112.70299	1.12651
3110.77442	1.12578
3108.84586	1.12378
3106.91730	1.12206
3104.98873	1.12130
3103.06017	1.12066
3101.13160	1.11926
3099.20304	1.11699
3097.27447	1.11443
3095.34591	1.11299
3093.41734	1.11180
3091.48878	1.10885
3089.56022	1.10576
3087.63165	1.10456
3085.70309	1.10394
3083.77452	1.10252
3081.84596	1.10103
3079.91739	1.09887
3077.98883	1.09545
3076.06026	1.09306
3074.13170	1.09166
3072.20314	1.08975
3070.27457	1.08854
3068.34601	1.08693
3066.41744	1.08282
3064.48888	1.07803
3062.56031	1.07417
3060.63175	1.07083
3058.70318	1.06709
3056.77462	1.06221
3054.84606	1.05701
3052.91749	1.05253
3050.98893	1.04895
3049.06036	1.04623
3047.13180	1.04364
3045.20323	1.04071
3043.27467	1.03798
3041.34610	1.03541
3039.41754	1.03235
3037.48898	1.02876
3035.56041	1.02491
3033.63185	1.02047
3031.70328	1.01551
3029.77472	1.01161
3027.84615	1.00915
3025.91759	1.00629
3023.98903	1.00256
3022.06046	0.99945
3020.13190	0.99685
3018.20333	0.99382
3016.27477	0.99141
3014.34620	0.99054
3012.41764	0.99006
3010.48907	0.98897
3008.56051	0.98702
3006.63195	0.98462
3004.70338	0.98301
3002.77482	0.98199
3000.84625	0.98009
2998.91769	0.97820
2996.98912	0.97750
2995.06056	0.97712
2993.13199	0.97774
2991.20343	0.98085
2989.27487	0.98491
2987.34630	0.98835
2985.41774	0.99242
2983.48917	0.99820
2981.56061	1.00549
2979.63204	1.01398
2977.70348	1.02233
2975.77491	1.02901
2973.84635	1.03518
2971.91779	1.04275
2969.98922	1.05052
2968.06066	1.05707
2966.13209	1.06391
2964.20353	1.07075
2962.27496	1.07515
2960.34640	1.07640
2958.41783	1.07386
2956.48927	1.06795
2954.56071	1.06102
2952.63214	1.05428
2950.70358	1.04892
2948.77501	1.04655
2946.84645	1.04714
2944.91788	1.05011
2942.98932	1.05575
2941.06075	1.06462
2939.13219	1.07620
2937.20363	1.08811
2935.27506	1.09954
2933.34650	1.11163
2931.41793	1.12335
2929.48937	1.13355
2927.56080	1.14250
2925.63224	1.14980
2923.70367	1.15537
2921.77511	1.15969
2919.84655	1.16185
2917.91798	1.15761
2915.98942	1.14178
2914.06085	1.11645
2912.13229	1.09029
2910.20372	1.06829
2908.27516	1.05058
2906.34659	1.03732
2904.41803	1.02787
2902.48947	1.02025
2900.56090	1.01423
2898.63234	1.00996
2896.70377	1.00573
2894.77521	1.00091
2892.84664	0.99654
2890.91808	0.99218
2888.98952	0.98728
2887.06095	0.98264
2885.13239	0.97901
2883.20382	0.97685
2881.27526	0.97606
2879.34669	0.97636
2877.41813	0.97750
2875.48956	0.97743
2873.56100	0.97438
2871.63244	0.97013
2869.70387	0.96607
2867.77531	0.96146
2865.84674	0.95683
2863.91818	0.95349
2861.98961	0.95264
2860.06105	0.95530
2858.13248	0.96113
2856.20392	0.96913
2854.27536	0.97857
2852.34679	0.98790
2850.41823	0.99127
2848.48966	0.98006
2846.56110	0.95476
2844.63253	0.92660
2842.70397	0.90429
2840.77540	0.88865
2838.84684	0.87709
2836.91828	0.86810
2834.98971	0.86164
2833.06115	0.85706
2831.13258	0.85255
2829.20402	0.84693
2827.27545	0.84127
2825.34689	0.83729
2823.41832	0.83459
2821.48976	0.83169
2819.56120	0.82830
2817.63263	0.82484
2815.70407	0.82107
2813.77550	0.81669
2811.84694	0.81268
2809.91837	0.80993
2807.98981	0.80778
2806.06124	0.80530
2804.13268	0.80289
2802.20412	0.80101
2800.27555	0.79890
2798.34699	0.79601
2796.41842	0.79300
2794.48986	0.79044
2792.56129	0.78786
2790.63273	0.78455
2788.70416	0.78082
2786.77560	0.77779
2784.84704	0.77566
2782.91847	0.77341
2780.98991	0.77058
2779.06134	0.76787
2777.13278	0.76579
2775.20421	0.76443
2773.27565	0.76351
2771.34708	0.76214
2769.41852	0.76006
2767.48996	0.75818
2765.56139	0.75690
2763.63283	0.75521
2761.70426	0.75258
2759.77570	0.75006
2757.84713	0.74787
2755.91857	0.74516
2753.99001	0.74180
2752.06144	0.73863
2750.13288	0.73666
2748.20431	0.73571
2746.27575	0.73481
2744.34718	0.73361
2742.41862	0.73237
2740.49005	0.73137
2738.56149	0.73055
2736.63293	0.72958
2734.70436	0.72821
2732.77580	0.72663
2730.84723	0.72502
2728.91867	0.72265
2726.99010	0.71918
2725.06154	0.71588
2723.13297	0.71379
2721.20441	0.71193
2719.27585	0.70963
2717.34728	0.70795
2715.41872	0.70679
2713.49015	0.70501
2711.56159	0.70318
2709.63302	0.70239
2707.70446	0.70202
2705.77589	0.70096
2703.84733	0.69932
2701.91877	0.69785
2699.99020	0.69682
2698.06164	0.69558
2696.13307	0.69346
2694.20451	0.69080
2692.27594	0.68818
2690.34738	0.68616
2688.41881	0.68496
2686.49025	0.68367
2684.56169	0.68172
2682.63312	0.67970
2680.70456	0.67815
2678.77599	0.67701
2676.84743	0.67610
2674.91886	0.67527
2672.99030	0.67426
2671.06173	0.67295
2669.13317	0.67121
2667.20461	0.66913
2665.27604	0.66710
2663.34748	0.66509
2661.41891	0.66300
2659.49035	0.66105
2657.56178	0.65940
2655.63322	0.65811
2653.70465	0.65694
2651.77609	0.65580
2649.84753	0.65476
2647.91896	0.65369
2645.99040	0.65285
2644.06183	0.65238
2642.13327	0.65181
2640.20470	0.65086
2638.27614	0.64934
2636.34757	0.64744
2634.41901	0.64600
2632.49045	0.64524
2630.56188	0.64426
2628.63332	0.64247
2626.70475	0.64057
2624.77619	0.63897
2622.84762	0.63729
2620.91906	0.63605
2618.99049	0.63567
2617.06193	0.63534
2615.13337	0.63447
2613.20480	0.63331
2611.27624	0.63221
2609.34767	0.63123
2607.41911	0.63023
2605.49054	0.62897
2603.56198	0.62739
2601.63342	0.62574
2599.70485	0.62410
2597.77629	0.62248
2595.84772	0.62101
2593.91916	0.61989
2591.99059	0.61918
2590.06203	0.61815
2588.13346	0.61653
2586.20490	0.61501
2584.27634	0.61365
2582.34777	0.61218
2580.41921	0.61089
2578.49064	0.60970
2576.56208	0.60818
2574.63351	0.60643
2572.70495	0.60478
2570.77638	0.60327
2568.84782	0.60190
2566.91926	0.60085
2564.99069	0.59993
2563.06213	0.59867
2561.13356	0.59707
2559.20500	0.59560
2557.27643	0.59454
2555.34787	0.59380
2553.41930	0.59314
2551.49074	0.59218
2549.56218	0.59102
2547.63361	0.58992
2545.70505	0.58863
2543.77648	0.58710
2541.84792	0.58558
2539.91935	0.58417
2537.99079	0.58282
2536.06222	0.58146
2534.13366	0.58039
2532.20510	0.57965
2530.27653	0.57874
2528.34797	0.57762
2526.41940	0.57659
2524.49084	0.57573
2522.56227	0.57488
2520.63371	0.57385
2518.70514	0.57270
2516.77658	0.57161
2514.84802	0.57066
2512.91945	0.56960
2510.99089	0.56830
2509.06232	0.56697
2507.13376	0.56585
2505.20519	0.56498
2503.27663	0.56418
2501.34806	0.56320
2499.41950	0.56200
2497.49094	0.56101
2495.56237	0.56037
2493.63381	0.55973
2491.70524	0.55888
2489.77668	0.55783
2487.84811	0.55674
2485.91955	0.55559
2483.99098	0.55405
2482.06242	0.55220
2480.13386	0.55049
2478.20529	0.54905
2476.27673	0.54780
2474.34816	0.54670
2472.41960	0.54561
2470.49103	0.54439
2468.56247	0.54303
2466.63391	0.54168
2464.70534	0.54052
2462.77678	0.53933
2460.84821	0.53783
2458.91965	0.53640
2456.99108	0.53554
2455.06252	0.53495
2453.13395	0.53416
2451.20539	0.53320
2449.27683	0.53215
2447.34826	0.53103
2445.41970	0.52987
2443.49113	0.52878
2441.56257	0.52772
2439.63400	0.52634
2437.70544	0.52468
2435.77687	0.52322
2433.84831	0.52206
2431.91975	0.52100
2429.99118	0.51980
2428.06262	0.51831
2426.13405	0.51682
2424.20549	0.51569
2422.27692	0.51478
2420.34836	0.51374
2418.41979	0.51256
2416.49123	0.51166
2414.56267	0.51122
2412.63410	0.51062
2410.70554	0.50947
2408.77697	0.50824
2406.84841	0.50727
2404.91984	0.50634
2402.99128	0.50547
2401.06271	0.50466
2399.13415	0.50367
2397.20559	0.50262
2395.27702	0.50164
2393.34846	0.50059
2391.41989	0.49953
2389.49133	0.49887
2387.56276	0.49866
2385.63420	0.49852
2383.70563	0.49854
2381.77707	0.49912
2379.84851	0.50021
2377.91994	0.50185
2375.99138	0.50456
2374.06281	0.50792
2372.13425	0.51078
2370.20568	0.51392
2368.27712	0.51873
2366.34855	0.52336
2364.41999	0.52485
2362.49143	0.52411
2360.56286	0.52432
2358.63430	0.52469
2356.70573	0.52186
2354.77717	0.51665
2352.84860	0.51155
2350.92004	0.50636
2348.99147	0.50165
2347.06291	0.49952
2345.13435	0.50154
2343.20578	0.50541
2341.27722	0.50691
2339.34865	0.50578
2337.42009	0.50412
2335.49152	0.50279
2333.56296	0.50122
2331.63440	0.49999
2329.70583	0.49934
2327.77727	0.49776
2325.84870	0.49502
2323.92014	0.49258
2321.99157	0.49071
2320.06301	0.48847
2318.13444	0.48591
2316.20588	0.48358
2314.27732	0.48181
2312.34875	0.48041
2310.42019	0.47872
2308.49162	0.47666
2306.56306	0.47452
2304.63449	0.47232
2302.70593	0.47019
2300.77736	0.46813
2298.84880	0.46622
2296.92024	0.46464
2294.99167	0.46333
2293.06311	0.46211
2291.13454	0.46099
2289.20598	0.45999
2287.27741	0.45906
2285.34885	0.45817
2283.42028	0.45731
2281.49172	0.45660
2279.56316	0.45634
2277.63459	0.45640
2275.70603	0.45627
2273.77746	0.45580
2271.84890	0.45524
2269.92033	0.45466
2267.99177	0.45385
2266.06320	0.45276
2264.13464	0.45179
2262.20608	0.45096
2260.27751	0.44997
2258.34895	0.44900
2256.42038	0.44841
2254.49182	0.44795
2252.56325	0.44734
2250.63469	0.44669
2248.70612	0.44632
2246.77756	0.44608
2244.84900	0.44559
2242.92043	0.44487
2240.99187	0.44407
2239.06330	0.44329
2237.13474	0.44262
2235.20617	0.44192
2233.27761	0.44117
2231.34904	0.44055
2229.42048	0.44003
2227.49192	0.43932
2225.56335	0.43843
2223.63479	0.43783
2221.70622	0.43754
2219.77766	0.43714
2217.84909	0.43664
2215.92053	0.43642
2213.99196	0.43654
2212.06340	0.43661
2210.13484	0.43628
2208.20627	0.43581
2206.27771	0.43530
2204.34914	0.43451
2202.42058	0.43356
2200.49201	0.43272
2198.56345	0.43195
2196.63488	0.43128
2194.70632	0.43076
2192.77776	0.43029
2190.84919	0.42978
2188.92063	0.42938
2186.99206	0.42921
2185.06350	0.42911
2183.13493	0.42887
2181.20637	0.42866
2179.27781	0.42864
2177.34924	0.42861
2175.42068	0.42847
2173.49211	0.42820
2171.56355	0.42774
2169.63498	0.42707
2167.70642	0.42627
2165.77785	0.42562
2163.84929	0.42521
2161.92073	0.42482
2159.99216	0.42433
2158.06360	0.42385
2156.13503	0.42354
2154.20647	0.42335
2152.27790	0.42306
2150.34934	0.42261
2148.42077	0.42218
2146.49221	0.42182
2144.56365	0.42153
2142.63508	0.42126
2140.70652	0.42077
2138.77795	0.42018
2136.84939	0.41977
2134.92082	0.41944
2132.99226	0.41902
2131.06369	0.41851
2129.13513	0.41804
2127.20657	0.41767
2125.27800	0.41738
2123.34944	0.41714
2121.42087	0.41690
2119.49231	0.41654
2117.56374	0.41601
2115.63518	0.41537
2113.70661	0.41465
2111.77805	0.41384
2109.84949	0.41295
2107.92092	0.41209
2105.99236	0.41150
2104.06379	0.41118
2102.13523	0.41080
2100.20666	0.41023
2098.27810	0.40962
2096.34953	0.40902
2094.42097	0.40848
2092.49241	0.40802
2090.56384	0.40758
2088.63528	0.40709
2086.70671	0.40668
2084.77815	0.40637
2082.84958	0.40599
2080.92102	0.40550
2078.99245	0.40503
2077.06389	0.40458
2075.13533	0.40417
2073.20676	0.40375
2071.27820	0.40309
2069.34963	0.40218
2067.42107	0.40141
2065.49250	0.40108
2063.56394	0.40082
2061.63537	0.40023
2059.70681	0.39959
2057.77825	0.39910
2055.84968	0.39856
2053.92112	0.39798
2051.99255	0.39739
2050.06399	0.39665
2048.13542	0.39587
2046.20686	0.39519
2044.27830	0.39457
2042.34973	0.39414
2040.42117	0.39381
2038.49260	0.39328
2036.56404	0.39275
2034.63547	0.39239
2032.70691	0.39179
2030.77834	0.39075
2028.84978	0.38967
2026.92122	0.38884
2024.99265	0.38809
2023.06409	0.38722
2021.13552	0.38616
2019.20696	0.38538
2017.27839	0.38522
2015.34983	0.38497
2013.42126	0.38419
2011.49270	0.38353
2009.56414	0.38328
2007.63557	0.38309
2005.70701	0.38262
2003.77844	0.38193
2001.84988	0.38117
1999.92131	0.38039
1997.99275	0.37951
1996.06418	0.37845
1994.13562	0.37768
1992.20706	0.37754
1990.27849	0.37721
1988.34993	0.37648
1986.42136	0.37597
1984.49280	0.37569
1982.56423	0.37549
1980.63567	0.37533
1978.70710	0.37520
1976.77854	0.37509
1974.84998	0.37480
1972.92141	0.37423
1970.99285	0.37337
1969.06428	0.37252
1967.13572	0.37206
1965.20715	0.37143
1963.27859	0.37023
1961.35002	0.36902
1959.42146	0.36809
1957.49290	0.36732
1955.56433	0.36677
1953.63577	0.36643
1951.70720	0.36608
1949.77864	0.36563
1947.85007	0.36524
1945.92151	0.36501
1943.99294	0.36526
1942.06438	0.36582
1940.13582	0.36537
1938.20725	0.36402
1936.27869	0.36278
1934.35012	0.36176
1932.42156	0.36076
1930.49299	0.35978
1928.56443	0.35872
1926.63586	0.35749
1924.70730	0.35665
1922.77874	0.35662
1920.85017	0.35637
1918.92161	0.35611
1916.99304	0.35644
1915.06448	0.35610
1913.13591	0.35513
1911.20735	0.35457
1909.27878	0.35447
1907.35022	0.35405
1905.42166	0.35310
1903.49309	0.35212
1901.56453	0.35132
1899.63596	0.35058
1897.70740	0.35004
1895.77883	0.34994
1893.85027	0.34971
1891.92171	0.34909
1889.99314	0.34916
1888.06458	0.34957
1886.13601	0.34937
1884.20745	0.34919
1882.27888	0.34909
1880.35032	0.34869
1878.42175	0.34803
1876.49319	0.34715
1874.56463	0.34583
1872.63606	0.34410
1870.70750	0.34305
1868.77893	0.34403
1866.85037	0.34488
1864.92180	0.34363
1862.99324	0.34210
1861.06467	0.34131
1859.13611	0.34096
1857.20755	0.34057
1855.27898	0.34012
1853.35042	0.33970
1851.42185	0.33917
1849.49329	0.33859
1847.56472	0.33801
1845.63616	0.33809
1843.70759	0.33906
1841.77903	0.33841
1839.85047	0.33643
1837.92190	0.33524
1835.99334	0.33494
1834.06477	0.33402
1832.13621	0.33299
1830.20764	0.33376
1828.27908	0.33480
1826.35051	0.33441
1824.42195	0.33424
1822.49339	0.33396
1820.56482	0.33307
1818.63626	0.33241
1816.70769	0.33187
1814.77913	0.33092
1812.85056	0.33017
1810.92200	0.33035
1808.99343	0.33042
1807.06487	0.32952
1805.13631	0.32832
1803.20774	0.32767
1801.27918	0.32831
1799.35061	0.32911
1797.42205	0.32862
1795.49348	0.32763
1793.56492	0.32806
1791.63635	0.33049
1789.70779	0.33086
1787.77923	0.32923
1785.85066	0.32820
1783.92210	0.32805
1781.99353	0.32833
1780.06497	0.32904
1778.13640	0.32905
1776.20784	0.32793
1774.27927	0.32765
1772.35071	0.33033
1770.42215	0.33279
1768.49358	0.33282
1766.56502	0.33206
1764.63645	0.33120
1762.70789	0.33212
1760.77932	0.33503
1758.85076	0.33734
1756.92220	0.34042
1754.99363	0.34375
1753.06507	0.34666
1751.13650	0.35339
1749.20794	0.36480
1747.27937	0.37381
1745.35081	0.37923
1743.42224	0.38355
1741.49368	0.38804
1739.56512	0.39246
1737.63655	0.39413
1735.70799	0.39432
1733.77942	0.39805
1731.85086	0.40080
1729.92229	0.40017
1727.99373	0.39966
1726.06516	0.40008
1724.13660	0.40243
1722.20804	0.40503
1720.27947	0.40675
1718.35091	0.41293
1716.42234	0.42787
1714.49378	0.43825
1712.56521	0.44381
1710.63665	0.45071
1708.70808	0.46042
1706.77952	0.47711
1704.85096	0.50072
1702.92239	0.52187
1700.99383	0.55355
1699.06526	0.60729
1697.13670	0.65908
1695.20813	0.70994
1693.27957	0.74711
1691.35100	0.77738
1689.42244	0.81676
1687.49388	0.85474
1685.56531	0.89554
1683.63675	0.96682
1681.70818	1.01999
1679.77962	1.04920
1677.85105	1.07841
1675.92249	1.11641
1673.99392	1.15940
1672.06536	1.19466
1670.13680	1.23847
1668.20823	1.28821
1666.27967	1.31482
1664.35110	1.33738
1662.42254	1.37103
1660.49397	1.40058
1658.56541	1.41722
1656.63684	1.42608
1654.70828	1.43591
1652.77972	1.45254
1650.85115	1.45492
1648.92259	1.45058
1646.99402	1.44743
1645.06546	1.44304
1643.13689	1.43601
1641.20833	1.43100
1639.27976	1.42763
1637.35120	1.42516
1635.42264	1.42210
1633.49407	1.41515
1631.56551	1.40675
1629.63694	1.39637
1627.70838	1.38319
1625.77981	1.36540
1623.85125	1.33902
1621.92269	1.30612
1619.99412	1.27667
1618.06556	1.24090
1616.13699	1.18868
1614.20843	1.14599
1612.27986	1.11345
1610.35130	1.08064
1608.42273	1.04835
1606.49417	1.02126
1604.56561	1.00020
1602.63704	0.98332
1600.70848	0.97003
1598.77991	0.95994
1596.85135	0.95270
1594.92278	0.94778
1592.99422	0.94465
1591.06565	0.94346
1589.13709	0.94486
1587.20853	0.94924
1585.27996	0.95663
1583.35140	0.96700
1581.42283	0.97843
1579.49427	0.98886
1577.56570	1.00383
1575.63714	1.02905
1573.70857	1.04575
1571.78001	1.05628
1569.85145	1.07669
1567.92288	1.10083
1565.99432	1.11808
1564.06575	1.13416
1562.13719	1.14682
1560.20862	1.16504
1558.28006	1.21086
1556.35149	1.23235
1554.42293	1.24036
1552.49437	1.24939
1550.56580	1.25734
1548.63724	1.26227
1546.70867	1.26253
1544.78011	1.25958
1542.85154	1.25552
1540.92298	1.25107
1538.99441	1.24393
1537.06585	1.23641
1535.13729	1.22783
1533.20872	1.21806
1531.28016	1.20863
1529.35159	1.20007
1527.42303	1.19177
1525.49446	1.18364
1523.56590	1.17797
1521.63733	1.17688
1519.70877	1.17719
1517.78021	1.17133
1515.85164	1.15832
1513.92308	1.14140
1511.99451	1.12222
1510.06595	1.10215
1508.13738	1.07219
1506.20882	1.02403
1504.28025	0.99645
1502.35169	0.97747
1500.42313	0.95627
1498.49456	0.93023
1496.56600	0.90027
1494.63743	0.87570
1492.70887	0.85734
1490.78030	0.83825
1488.85174	0.81689
1486.92317	0.79993
1484.99461	0.78719
1483.06605	0.77749
1481.13748	0.77098
1479.20892	0.76763
1477.28035	0.76752
1475.35179	0.77250
1473.42322	0.78788
1471.49466	0.80713
1469.56610	0.81590
1467.63753	0.82044
1465.70897	0.82802
1463.78040	0.83722
1461.85184	0.84140
1459.92327	0.84324
1457.99471	0.85232
1456.06614	0.86618
1454.13758	0.86770
1452.20902	0.86530
1450.28045	0.86350
1448.35189	0.86268
1446.42332	0.86110
1444.49476	0.85714
1442.56619	0.85160
1440.63763	0.84553
1438.70906	0.83874
1436.78050	0.82962
1434.85194	0.81877
1432.92337	0.80865
1430.99481	0.79895
1429.06624	0.78992
1427.13768	0.78303
1425.20911	0.77893
1423.28055	0.77721
1421.35198	0.77691
1419.42342	0.77963
1417.49486	0.78409
1415.56629	0.78506
1413.63773	0.78457
1411.70916	0.78485
1409.78060	0.78587
1407.85203	0.78727
1405.92347	0.78997
1403.99490	0.79347
1402.06634	0.79560
1400.13778	0.79758
1398.20921	0.80063
1396.28065	0.80380
1394.35208	0.80642
1392.42352	0.80755
1390.49495	0.80871
1388.56639	0.81393
1386.63782	0.82439
1384.70926	0.83490
1382.78070	0.84375
1380.85213	0.85101
1378.92357	0.85411
1376.99500	0.85176
1375.06644	0.84403
1373.13787	0.83162
1371.20931	0.81732
1369.28074	0.80099
1367.35218	0.78288
1365.42362	0.76621
1363.49505	0.75150
1361.56649	0.73911
1359.63792	0.73024
1357.70936	0.72427
1355.78079	0.72042
1353.85223	0.71784
1351.92366	0.71596
1349.99510	0.71502
1348.06654	0.71493
1346.13797	0.71478
1344.20941	0.71417
1342.28084	0.71364
1340.35228	0.71453
1338.42371	0.71686
1336.49515	0.71926
1334.56659	0.72253
1332.63802	0.72784
1330.70946	0.73437
1328.78089	0.74036
1326.85233	0.74486
1324.92376	0.74786
1322.99520	0.74981
1321.06663	0.75186
1319.13807	0.75465
1317.20951	0.75708
1315.28094	0.75841
1313.35238	0.75964
1311.42381	0.76111
1309.49525	0.76220
1307.56668	0.76260
1305.63812	0.76212
1303.70955	0.76102
1301.78099	0.75988
1299.85243	0.75857
1297.92386	0.75642
1295.99530	0.75343
1294.06673	0.75062
1292.13817	0.74895
1290.20960	0.74858
1288.28104	0.74892
1286.35247	0.74923
1284.42391	0.74918
1282.49535	0.74867
1280.56678	0.74800
1278.63822	0.74793
1276.70965	0.74887
1274.78109	0.75069
1272.85252	0.75381
1270.92396	0.75846
1268.99539	0.76401
1267.06683	0.77000
1265.13827	0.77604
1263.20970	0.78144
1261.28114	0.78573
1259.35257	0.78910
1257.42401	0.79216
1255.49544	0.79515
1253.56688	0.79780
1251.63831	0.80010
1249.70975	0.80231
1247.78119	0.80439
1245.85262	0.80622
1243.92406	0.80756
1241.99549	0.80811
1240.06693	0.80796
1238.13836	0.80719
1236.20980	0.80538
1234.28123	0.80229
1232.35267	0.79830
1230.42411	0.79359
1228.49554	0.78782
1226.56698	0.78079
1224.63841	0.77263
1222.70985	0.76384
1220.78128	0.75501
1218.85272	0.74644
1216.92415	0.73849
1214.99559	0.73183
1213.06703	0.72711
1211.13846	0.72468
1209.20990	0.72353
1207.28133	0.72160
1205.35277	0.71769
1203.42420	0.71146
1201.49564	0.70346
1199.56708	0.69499
1197.63851	0.68646
1195.70995	0.67794
1193.78138	0.67050
1191.85282	0.66495
1189.92425	0.66079
1187.99569	0.65721
1186.06712	0.65428
1184.13856	0.65243
1182.21000	0.65200
1180.28143	0.65330
1178.35287	0.65651
1176.42430	0.66152
1174.49574	0.66803
1172.56717	0.67581
1170.63861	0.68515
1168.71004	0.69656
1166.78148	0.71019
1164.85292	0.72564
1162.92435	0.74094
1160.99579	0.75277
1159.06722	0.75893
1157.13866	0.75895
1155.21009	0.75309
1153.28153	0.74254
1151.35296	0.72928
1149.42440	0.71499
1147.49584	0.70111
1145.56727	0.68917
1143.63871	0.68029
1141.71014	0.67482
1139.78158	0.67269
1137.85301	0.67356
1135.92445	0.67693
1133.99588	0.68258
1132.06732	0.69096
1130.13876	0.70236
1128.21019	0.71650
1126.28163	0.73271
1124.35306	0.74945
1122.42450	0.76483
1120.49593	0.77792
1118.56737	0.78855
1116.63880	0.79569
1114.71024	0.79768
1112.78168	0.79499
1110.85311	0.78987
1108.92455	0.78406
1106.99598	0.77886
1105.06742	0.77450
1103.13885	0.77032
1101.21029	0.76700
1099.28172	0.76605
1097.35316	0.76839
1095.42460	0.77413
1093.49603	0.78294
1091.56747	0.79450
1089.63890	0.80873
1087.71034	0.82601
1085.78177	0.84650
1083.85321	0.86840
1081.92464	0.88859
1079.99608	0.90439
1078.06752	0.91420
1076.13895	0.91731
1074.21039	0.91350
1072.28182	0.90360
1070.35326	0.88951
1068.42469	0.87394
1066.49613	0.85910
1064.56756	0.84513
1062.63900	0.83168
1060.71044	0.81889
1058.78187	0.80661
1056.85331	0.79454
1054.92474	0.78310
1052.99618	0.77365
1051.06761	0.76734
1049.13905	0.76413
1047.21049	0.76393
1045.28192	0.76708
1043.35336	0.77334
1041.42479	0.78147
1039.49623	0.78949
1037.56766	0.79589
1035.63910	0.80076
1033.71053	0.80458
1031.78197	0.80625
1029.85341	0.80432
1027.92484	0.79913
1025.99628	0.79193
1024.06771	0.78358
1022.13915	0.77490
1020.21058	0.76669
1018.28202	0.75939
1016.35345	0.75270
1014.42489	0.74521
1012.49633	0.73494
1010.56776	0.72138
1008.63920	0.70533
1006.71063	0.68802
1004.78207	0.67117
1002.85350	0.65583
1000.92494	0.64202
998.99637	0.62993
997.06781	0.61965
995.13925	0.61081
993.21068	0.60252
991.28212	0.59367
989.35355	0.58429
987.42499	0.57539
985.49642	0.56767
983.56786	0.56156
981.63929	0.55732
979.71073	0.55456
977.78217	0.55246
975.85360	0.55011
973.92504	0.54651
971.99647	0.54116
970.06791	0.53424
968.13934	0.52646
966.21078	0.51880
964.28221	0.51218
962.35365	0.50778
960.42509	0.50715
958.49652	0.51084
956.56796	0.51640
954.63939	0.51949
952.71083	0.51760
950.78226	0.51138
948.85370	0.50314
946.92513	0.49530
944.99657	0.48934
943.06801	0.48546
941.13944	0.48320
939.21088	0.48194
937.28231	0.48122
935.35375	0.48095
933.42518	0.48112
931.49662	0.48147
929.56805	0.48171
927.63949	0.48189
925.71093	0.48232
923.78236	0.48311
921.85380	0.48399
919.92523	0.48464
917.99667	0.48495
916.06810	0.48493
914.13954	0.48492
912.21098	0.48561
910.28241	0.48725
908.35385	0.48984
906.42528	0.49349
904.49672	0.49779
902.56815	0.50193
900.63959	0.50524
898.71102	0.50716
896.78246	0.50740
894.85390	0.50616
892.92533	0.50393
890.99677	0.50097
889.06820	0.49725
887.13964	0.49330
885.21107	0.48990
883.28251	0.48743
881.35394	0.48600
879.42538	0.48556
877.49682	0.48588
875.56825	0.48686
873.63969	0.48842
871.71112	0.49010
869.78256	0.49162
867.85399	0.49305
865.92543	0.49420
863.99686	0.49475
862.06830	0.49480
860.13974	0.49500
858.21117	0.49579
856.28261	0.49697
854.35404	0.49819
852.42548	0.49946
850.49691	0.50087
848.56835	0.50232
846.63978	0.50416
844.71122	0.50701
842.78266	0.51065
840.85409	0.51476
838.92553	0.51944
836.99696	0.52426
835.06840	0.52855
833.13983	0.53217
831.21127	0.53508
829.28270	0.53708
827.35414	0.53815
825.42558	0.53859
823.49701	0.53881
821.56845	0.53884
819.63988	0.53880
817.71132	0.53922
815.78275	0.54027
813.85419	0.54160
811.92562	0.54320
809.99706	0.54535
808.06850	0.54774
806.13993	0.54957
804.21137	0.55065
802.28280	0.55125
800.35424	0.55189
798.42567	0.55285
796.49711	0.55354
794.56854	0.55360
792.63998	0.55340
790.71142	0.55333
788.78285	0.55398
786.85429	0.55575
784.92572	0.55823
782.99716	0.56109
781.06859	0.56435
779.14003	0.56805
777.21147	0.57223
775.28290	0.57660
773.35434	0.58072
771.42577	0.58451
769.49721	0.58790
767.56864	0.59077
765.64008	0.59323
763.71151	0.59535
761.78295	0.59703
759.85439	0.59845
757.92582	0.60006
755.99726	0.60202
754.06869	0.60461
752.14013	0.60832
750.21156	0.61263
748.28300	0.61635
746.35443	0.61942
744.42587	0.62266
742.49731	0.62580
740.56874	0.62814
738.64018	0.62965
736.71161	0.63087
734.78305	0.63261
732.85448	0.63493
730.92592	0.63674
728.99735	0.63758
727.06879	0.63829
725.14023	0.63951
723.21166	0.64193
721.28310	0.64572
719.35453	0.64892
717.42597	0.65013
715.49740	0.65095
713.56884	0.65332
711.64027	0.65720
709.71171	0.66123
707.78315	0.66487
705.85458	0.66866
703.92602	0.67241
701.99745	0.67504
700.06889	0.67628
698.14032	0.67652
696.21176	0.67594
694.28319	0.67488
692.35463	0.67429
690.42607	0.67505
688.49750	0.67623
686.56894	0.67603
684.64037	0.67506
682.71181	0.67521
680.78324	0.67668
678.85468	0.67833
676.92611	0.67938
674.99755	0.67998
673.06899	0.68087
671.14042	0.68238
669.21186	0.68510
667.28329	0.68824
665.35473	0.68920
663.42616	0.68931
661.49760	0.68966
659.56903	0.69093
657.64047	0.69287
655.71191	0.69350
653.78334	0.69248
651.85478	0.69235
649.92621	0.69419
647.99765	0.69601
646.06908	0.69694
644.14052	0.69837
642.21195	0.70097
640.28339	0.70430
638.35483	0.70728
636.42626	0.70920
634.49770	0.71016
632.56913	0.71001
630.64057	0.70924
628.71200	0.70848
626.78344	0.70775
624.85488	0.70748
622.92631	0.70774
620.99775	0.70760
619.06918	0.70688
617.14062	0.70632
615.21205	0.70600
613.28349	0.70599
611.35492	0.70666
609.42636	0.70795
607.49780	0.71009
605.56923	0.71307
603.64067	0.71530
601.71210	0.71564
599.78354	0.71535
