3997.91406	0.80263
3995.98550	0.80204
3994.05693	0.80164
3992.12837	0.80273
3990.19980	0.80420
3988.27124	0.80363
3986.34268	0.80143
3984.41411	0.79991
3982.48555	0.80058
3980.55698	0.80152
3978.62842	0.79970
3976.69985	0.79672
3974.77129	0.79648
3972.84272	0.79861
3970.91416	0.80012
3968.98560	0.80094
3967.05703	0.80182
3965.12847	0.80170
3963.19990	0.80026
3961.27134	0.79815
3959.34277	0.79612
3957.41421	0.79537
3955.48564	0.79578
3953.55708	0.79567
3951.62852	0.79448
3949.69995	0.79387
3947.77139	0.79372
3945.84282	0.79200
3943.91426	0.79076
3941.98569	0.79203
3940.05713	0.79286
3938.12856	0.79150
3936.20000	0.78881
3934.27144	0.78661
3932.34287	0.78664
3930.41431	0.78726
3928.48574	0.78609
3926.55718	0.78526
3924.62861	0.78667
3922.70005	0.78777
3920.77148	0.78786
3918.84292	0.78849
3916.91436	0.78803
3914.98579	0.78500
3913.05723	0.78199
3911.12866	0.78088
3909.20010	0.77974
3907.27153	0.77735
3905.34297	0.77649
3903.41440	0.77898
3901.48584	0.78125
3899.55728	0.78230
3897.62871	0.78277
3895.70015	0.78130
3893.77158	0.77888
3891.84302	0.77816
3889.91445	0.77639
3887.98589	0.77287
3886.05733	0.77285
3884.12876	0.77464
3882.20020	0.77449
3880.27163	0.77693
3878.34307	0.77763
3876.41450	0.77325
3874.48594	0.76827
3872.55737	0.76661
3870.62881	0.76978
3868.70025	0.77208
3866.77168	0.76951
3864.84312	0.76845
3862.91455	0.76962
3860.98599	0.76862
3859.05742	0.76681
3857.12886	0.76404
3855.20029	0.76008
3853.27173	0.76339
3851.34317	0.76887
3849.41460	0.76685
3847.48604	0.76230
3845.55747	0.75878
3843.62891	0.75811
3841.70034	0.75939
3839.77178	0.76111
3837.84321	0.76251
3835.91465	0.76175
3833.98609	0.76117
3832.05752	0.76171
3830.12896	0.76056
3828.20039	0.75860
3826.27183	0.75730
3824.34326	0.75369
3822.41470	0.75085
3820.48613	0.75613
3818.55757	0.76035
3816.62901	0.76077
3814.70044	0.75965
3812.77188	0.75619
3810.84331	0.75267
3808.91475	0.75136
3806.98618	0.75242
3805.05762	0.75072
3803.12905	0.74806
3801.20049	0.75163
3799.27193	0.75470
3797.34336	0.75437
3795.41480	0.75355
3793.48623	0.75101
3791.55767	0.74855
3789.62910	0.74744
3787.70054	0.74636
3785.77197	0.74600
3783.84341	0.74572
3781.91485	0.74404
3779.98628	0.74465
3778.05772	0.74684
3776.12915	0.74469
3774.20059	0.74041
3772.27202	0.73885
3770.34346	0.74162
3768.41489	0.74405
3766.48633	0.74350
3764.55777	0.74194
3762.62920	0.73928
3760.70064	0.73840
3758.77207	0.74261
3756.84351	0.74558
3754.91494	0.74396
3752.98638	0.74260
3751.05781	0.74743
3749.12925	0.75088
3747.20069	0.74690
3745.27212	0.74576
3743.34356	0.75090
3741.41499	0.75032
3739.48643	0.74442
3737.55786	0.74019
3735.62930	0.74328
3733.70074	0.74957
3731.77217	0.75051
3729.84361	0.74768
3727.91504	0.74523
3725.98648	0.74547
3724.05791	0.74706
3722.12935	0.74721
3720.20078	0.74522
3718.27222	0.74205
3716.34366	0.73896
3714.41509	0.73703
3712.48653	0.73999
3710.55796	0.74698
3708.62940	0.74705
3706.70083	0.74316
3704.77227	0.74008
3702.84370	0.73920
3700.91514	0.73935
3698.98658	0.73792
3697.05801	0.73656
3695.12945	0.73669
3693.20088	0.73665
3691.27232	0.73733
3689.34375	0.74337
3687.41519	0.74850
3685.48662	0.74849
3683.55806	0.74757
3681.62950	0.74782
3679.70093	0.74804
3677.77237	0.74747
3675.84380	0.75267
3673.91524	0.75852
3671.98667	0.75806
3670.05811	0.76247
3668.12954	0.76885
3666.20098	0.77002
3664.27242	0.77105
3662.34385	0.77367
3660.41529	0.77607
3658.48672	0.77884
3656.55816	0.78541
3654.62959	0.79097
3652.70103	0.79149
3650.77246	0.79426
3648.84390	0.80633
3646.91534	0.81296
3644.98677	0.81313
3643.05821	0.81428
3641.12964	0.81811
3639.20108	0.82330
3637.27251	0.82825
3635.34395	0.83260
3633.41538	0.83523
3631.48682	0.83580
3629.55826	0.84359
3627.62969	0.85894
3625.70113	0.86418
3623.77256	0.86500
3621.84400	0.86758
3619.91543	0.87392
3617.98687	0.87910
3616.05830	0.87973
3614.12974	0.88305
3612.20118	0.89045
3610.27261	0.89742
3608.34405	0.90587
3606.41548	0.91371
3604.48692	0.91691
3602.55835	0.91936
3600.62979	0.92332
3598.70123	0.92723
3596.77266	0.93211
3594.84410	0.93987
3592.91553	0.94562
3590.98697	0.94576
3589.05840	0.94865
3587.12984	0.96181
3585.20127	0.97201
3583.27271	0.97491
3581.34415	0.97798
3579.41558	0.98314
3577.48702	0.98889
3575.55845	0.99472
3573.62989	0.99867
3571.70132	0.99985
3569.77276	1.00136
3567.84419	1.00660
3565.91563	1.01491
3563.98707	1.02251
3562.05850	1.03022
3560.12994	1.03772
3558.20137	1.04273
3556.27281	1.04538
3554.34424	1.04921
3552.41568	1.05578
3550.48711	1.06044
3548.55855	1.06371
3546.62999	1.07136
3544.70142	1.08086
3542.77286	1.08536
3540.84429	1.08701
3538.91573	1.09037
3536.98716	1.09623
3535.05860	1.10198
3533.13003	1.10635
3531.20147	1.11189
3529.27291	1.11923
3527.34434	1.12518
3525.41578	1.12910
3523.48721	1.13317
3521.55865	1.13878
3519.63008	1.14576
3517.70152	1.15323
3515.77295	1.15990
3513.84439	1.16385
3511.91583	1.16648
3509.98726	1.17317
3508.05870	1.18282
3506.13013	1.18845
3504.20157	1.19194
3502.27300	1.19882
3500.34444	1.20795
3498.41587	1.21810
3496.48731	1.22688
3494.55875	1.22945
3492.63018	1.22913
3490.70162	1.23181
3488.77305	1.23650
3486.84449	1.24105
3484.91592	1.24601
3482.98736	1.25150
3481.05879	1.25509
3479.13023	1.25575
3477.20167	1.25751
3475.27310	1.26381
3473.34454	1.27223
3471.41597	1.27584
3469.48741	1.27368
3467.55884	1.27217
3465.63028	1.27449
3463.70171	1.27898
3461.77315	1.28168
3459.84459	1.27990
3457.91602	1.27724
3455.98746	1.27837
3454.05889	1.28339
3452.13033	1.28918
3450.20176	1.29352
3448.27320	1.29679
3446.34464	1.29991
3444.41607	1.30141
3442.48751	1.30078
3440.55894	1.30127
3438.63038	1.30262
3436.70181	1.30172
3434.77325	1.30068
3432.84468	1.30273
3430.91612	1.30729
3428.98756	1.31089
3427.05899	1.31110
3425.13043	1.31144
3423.20186	1.31408
3421.27330	1.31582
3419.34473	1.31667
3417.41617	1.31966
3415.48760	1.32331
3413.55904	1.32274
3411.63048	1.31930
3409.70191	1.31993
3407.77335	1.32369
3405.84478	1.32383
3403.91622	1.32246
3401.98765	1.32571
3400.05909	1.33018
3398.13052	1.32992
3396.20196	1.32700
3394.27340	1.32650
3392.34483	1.32864
3390.41627	1.33045
3388.48770	1.33208
3386.55914	1.33432
3384.63057	1.33466
3382.70201	1.33181
3380.77344	1.33037
3378.84488	1.33491
3376.91632	1.34092
3374.98775	1.34218
3373.05919	1.34110
3371.13062	1.34054
3369.20206	1.33905
3367.27349	1.33711
3365.34493	1.33771
3363.41636	1.34206
3361.48780	1.34768
3359.55924	1.35043
3357.63067	1.34942
3355.70211	1.34773
3353.77354	1.34818
3351.84498	1.35175
3349.91641	1.35566
3347.98785	1.35428
3346.05928	1.34896
3344.13072	1.34675
3342.20216	1.34855
3340.27359	1.35031
3338.34503	1.35071
3336.41646	1.35260
3334.48790	1.35790
3332.55933	1.36341
3330.63077	1.36527
3328.70220	1.36410
3326.77364	1.36301
3324.84508	1.36424
3322.91651	1.36948
3320.98795	1.37590
3319.05938	1.37731
3317.13082	1.37539
3315.20225	1.37564
3313.27369	1.37896
3311.34513	1.38397
3309.41656	1.38809
3307.48800	1.38980
3305.55943	1.39053
3303.63087	1.39150
3301.70230	1.39137
3299.77374	1.38893
3297.84517	1.38665
3295.91661	1.38686
3293.98805	1.38835
3292.05948	1.38998
3290.13092	1.39111
3288.20235	1.39011
3286.27379	1.38739
3284.34522	1.38501
3282.41666	1.38386
3280.48809	1.38335
3278.55953	1.38107
3276.63097	1.37618
3274.70240	1.37217
3272.77384	1.36970
3270.84527	1.36650
3268.91671	1.36498
3266.98814	1.36528
3265.05958	1.36312
3263.13101	1.35967
3261.20245	1.35716
3259.27389	1.35466
3257.34532	1.35331
3255.41676	1.35455
3253.48819	1.35507
3251.55963	1.34885
3249.63106	1.33771
3247.70250	1.32994
3245.77393	1.32614
3243.84537	1.32237
3241.91681	1.31959
3239.98824	1.31796
3238.05968	1.31607
3236.13111	1.31351
3234.20255	1.30866
3232.27398	1.30216
3230.34542	1.29727
3228.41685	1.29367
3226.48829	1.28822
3224.55973	1.28241
3222.63116	1.27979
3220.70260	1.27789
3218.77403	1.27439
3216.84547	1.27188
3214.91690	1.27023
3212.98834	1.26719
3211.05977	1.26377
3209.13121	1.26106
3207.20265	1.25849
3205.27408	1.25704
3203.34552	1.25724
3201.41695	1.25677
3199.48839	1.25332
3197.55982	1.24706
3195.63126	1.24097
3193.70269	1.23716
3191.77413	1.23484
3189.84557	1.23256
3187.91700	1.22939
3185.98844	1.22535
3184.05987	1.22187
3182.13131	1.21980
3180.20274	1.21902
3178.27418	1.21902
3176.34562	1.21667
3174.41705	1.21046
3172.48849	1.20495
3170.55992	1.20278
3168.63136	1.20077
3166.70279	1.19692
3164.77423	1.19252
3162.84566	1.18876
3160.91710	1.18610
3158.98854	1.18371
3157.05997	1.18035
3155.13141	1.17699
3153.20284	1.17469
3151.27428	1.17331
3149.34571	1.17209
3147.41715	1.16980
3145.48858	1.16755
3143.56002	1.16639
3141.63146	1.16410
3139.70289	1.15964
3137.77433	1.15537
3135.84576	1.15347
3133.91720	1.15373
3131.98863	1.15406
3130.06007	1.15380
3128.13150	1.15440
3126.20294	1.15497
3124.27438	1.15395
3122.34581	1.15239
3120.41725	1.15116
3118.48868	1.14952
3116.56012	1.14758
3114.63155	1.14772
3112.70299	1.15018
3110.77442	1.15138
3108.84586	1.15081
3106.91730	1.15129
3104.98873	1.15259
3103.06017	1.15227
3101.13160	1.15028
3099.20304	1.14848
3097.27447	1.14792
3095.34591	1.14755
3093.41734	1.14536
3091.48878	1.14182
3089.56022	1.13947
3087.63165	1.13912
3085.70309	1.13914
3083.77452	1.13791
3081.84596	1.13641
3079.91739	1.13553
3077.98883	1.13353
3076.06026	1.13012
3074.13170	1.12640
3072.20314	1.12190
3070.27457	1.11743
3068.34601	1.11508
3066.41744	1.11429
3064.48888	1.11326
3062.56031	1.11115
3060.63175	1.10729
3058.70318	1.10233
3056.77462	1.09801
3054.84606	1.09386
3052.91749	1.08858
3050.98893	1.08371
3049.06036	1.08111
3047.13180	1.07930
3045.20323	1.07667
3043.27467	1.07387
3041.34610	1.07129
3039.41754	1.06812
3037.48898	1.06334
3035.56041	1.05804
3033.63185	1.05460
3031.70328	1.05277
3029.77472	1.05129
3027.84615	1.04965
3025.91759	1.04757
3023.98903	1.04574
3022.06046	1.04430
3020.13190	1.04259
3018.20333	1.04098
3016.27477	1.04014
3014.34620	1.03978
3012.41764	1.03883
3010.48907	1.03693
3008.56051	1.03500
3006.63195	1.03306
3004.70338	1.03027
3002.77482	1.02713
3000.84625	1.02473
2998.91769	1.02353
2996.98912	1.02440
2995.06056	1.02724
2993.13199	1.03012
2991.20343	1.03263
2989.27487	1.03579
2987.34630	1.03959
2985.41774	1.04366
2983.48917	1.04847
2981.56061	1.05449
2979.63204	1.06115
2977.70348	1.06739
2975.77491	1.07267
2973.84635	1.07818
2971.91779	1.08626
2969.98922	1.09541
2968.06066	1.10222
2966.13209	1.10750
2964.20353	1.11219
2962.27496	1.11458
2960.34640	1.11454
2958.41783	1.11308
2956.48927	1.11085
2954.56071	1.10843
2952.63214	1.10533
2950.70358	1.10190
2948.77501	1.09993
2946.84645	1.09998
2944.91788	1.10236
2942.98932	1.10819
2941.06075	1.11725
2939.13219	1.12781
2937.20363	1.13842
2935.27506	1.14807
2933.34650	1.15671
2931.41793	1.16555
2929.48937	1.17482
2927.56080	1.18336
2925.63224	1.19105
2923.70367	1.19774
2921.77511	1.20101
2919.84655	1.19851
2917.91798	1.18850
2915.98942	1.16996
2914.06085	1.14624
2912.13229	1.12308
2910.20372	1.10382
2908.27516	1.08910
2906.34659	1.07862
2904.41803	1.07113
2902.48947	1.06545
2900.56090	1.06158
2898.63234	1.05850
2896.70377	1.05562
2894.77521	1.05373
2892.84664	1.05166
2890.91808	1.04813
2888.98952	1.04408
2887.06095	1.04061
2885.13239	1.03824
2883.20382	1.03716
2881.27526	1.03681
2879.34669	1.03594
2877.41813	1.03427
2875.48956	1.03282
2873.56100	1.03206
2871.63244	1.03029
2869.70387	1.02566
2867.77531	1.01930
2865.84674	1.01440
2863.91818	1.01285
2861.98961	1.01427
2860.06105	1.01863
2858.13248	1.02617
2856.20392	1.03580
2854.27536	1.04647
2852.34679	1.05604
2850.41823	1.05825
2848.48966	1.04510
2846.56110	1.01752
2844.63253	0.98792
2842.70397	0.96572
2840.77540	0.95047
2838.84684	0.93859
2836.91828	0.92925
2834.98971	0.92307
2833.06115	0.91913
2831.13258	0.91520
2829.20402	0.91027
2827.27545	0.90568
2825.34689	0.90247
2823.41832	0.90012
2821.48976	0.89765
2819.56120	0.89440
2817.63263	0.89035
2815.70407	0.88581
2813.77550	0.88161
2811.84694	0.87877
2809.91837	0.87672
2807.98981	0.87418
2806.06124	0.87126
2804.13268	0.86885
2802.20412	0.86710
2800.27555	0.86473
2798.34699	0.86094
2796.41842	0.85748
2794.48986	0.85544
2792.56129	0.85345
2790.63273	0.85117
2788.70416	0.84934
2786.77560	0.84792
2784.84704	0.84635
2782.91847	0.84443
2780.98991	0.84252
2779.06134	0.84069
2777.13278	0.83892
2775.20421	0.83702
2773.27565	0.83486
2771.34708	0.83313
2769.41852	0.83184
2767.48996	0.83021
2765.56139	0.82863
2763.63283	0.82774
2761.70426	0.82677
2759.77570	0.82520
2757.84713	0.82368
2755.91857	0.82217
2753.99001	0.82021
2752.06144	0.81809
2750.13288	0.81648
2748.20431	0.81566
2746.27575	0.81485
2744.34718	0.81322
2742.41862	0.81092
2740.49005	0.80867
2738.56149	0.80720
2736.63293	0.80622
2734.70436	0.80503
2732.77580	0.80378
2730.84723	0.80223
2728.91867	0.79997
2726.99010	0.79784
2725.06154	0.79632
2723.13297	0.79490
2721.20441	0.79351
2719.27585	0.79248
2717.34728	0.79131
2715.41872	0.78938
2713.49015	0.78695
2711.56159	0.78463
2709.63302	0.78244
2707.70446	0.78012
2705.77589	0.77791
2703.84733	0.77610
2701.91877	0.77456
2699.99020	0.77307
2698.06164	0.77196
2696.13307	0.77139
2694.20451	0.77078
2692.27594	0.76970
2690.34738	0.76846
2688.41881	0.76713
2686.49025	0.76550
2684.56169	0.76382
2682.63312	0.76257
2680.70456	0.76162
2678.77599	0.76057
2676.84743	0.75914
2674.91886	0.75778
2672.99030	0.75677
2671.06173	0.75538
2669.13317	0.75350
2667.20461	0.75177
2665.27604	0.75035
2663.34748	0.74919
2661.41891	0.74800
2659.49035	0.74655
2657.56178	0.74531
2655.63322	0.74457
2653.70465	0.74379
2651.77609	0.74274
2649.84753	0.74173
2647.91896	0.74057
2645.99040	0.73912
2644.06183	0.73795
2642.13327	0.73718
2640.20470	0.73648
2638.27614	0.73600
2636.34757	0.73583
2634.41901	0.73575
2632.49045	0.73556
2630.56188	0.73532
2628.63332	0.73477
2626.70475	0.73381
2624.77619	0.73307
2622.84762	0.73250
2620.91906	0.73165
2618.99049	0.73088
2617.06193	0.73020
2615.13337	0.72935
2613.20480	0.72820
2611.27624	0.72658
2609.34767	0.72490
2607.41911	0.72392
2605.49054	0.72349
2603.56198	0.72257
2601.63342	0.72084
2599.70485	0.71898
2597.77629	0.71765
2595.84772	0.71697
2593.91916	0.71650
2591.99059	0.71613
2590.06203	0.71588
2588.13346	0.71532
2586.20490	0.71450
2584.27634	0.71390
2582.34777	0.71340
2580.41921	0.71251
2578.49064	0.71117
2576.56208	0.71015
2574.63351	0.70959
2572.70495	0.70867
2570.77638	0.70720
2568.84782	0.70568
2566.91926	0.70453
2564.99069	0.70390
2563.06213	0.70364
2561.13356	0.70313
2559.20500	0.70174
2557.27643	0.69962
2555.34787	0.69787
2553.41930	0.69707
2551.49074	0.69649
2549.56218	0.69531
2547.63361	0.69372
2545.70505	0.69235
2543.77648	0.69159
2541.84792	0.69102
2539.91935	0.68965
2537.99079	0.68785
2536.06222	0.68675
2534.13366	0.68615
2532.20510	0.68524
2530.27653	0.68411
2528.34797	0.68319
2526.41940	0.68258
2524.49084	0.68204
2522.56227	0.68136
2520.63371	0.68066
2518.70514	0.67982
2516.77658	0.67865
2514.84802	0.67747
2512.91945	0.67649
2510.99089	0.67559
2509.06232	0.67488
2507.13376	0.67431
2505.20519	0.67329
2503.27663	0.67192
2501.34806	0.67098
2499.41950	0.67062
2497.49094	0.67044
2495.56237	0.66994
2493.63381	0.66908
2491.70524	0.66816
2489.77668	0.66711
2487.84811	0.66573
2485.91955	0.66425
2483.99098	0.66324
2482.06242	0.66269
2480.13386	0.66222
2478.20529	0.66172
2476.27673	0.66115
2474.34816	0.66054
2472.41960	0.65994
2470.49103	0.65902
2468.56247	0.65765
2466.63391	0.65622
2464.70534	0.65506
2462.77678	0.65398
2460.84821	0.65282
2458.91965	0.65172
2456.99108	0.65080
2455.06252	0.64994
2453.13395	0.64875
2451.20539	0.64734
2449.27683	0.64622
2447.34826	0.64532
2445.41970	0.64432
2443.49113	0.64348
2441.56257	0.64305
2439.63400	0.64288
2437.70544	0.64263
2435.77687	0.64183
2433.84831	0.64067
2431.91975	0.63985
2429.99118	0.63945
2428.06262	0.63919
2426.13405	0.63879
2424.20549	0.63800
2422.27692	0.63677
2420.34836	0.63540
2418.41979	0.63411
2416.49123	0.63294
2414.56267	0.63190
2412.63410	0.63066
2410.70554	0.62901
2408.77697	0.62723
2406.84841	0.62550
2404.91984	0.62393
2402.99128	0.62262
2401.06271	0.62138
2399.13415	0.62019
2397.20559	0.61912
2395.27702	0.61797
2393.34846	0.61672
2391.41989	0.61571
2389.49133	0.61487
2387.56276	0.61398
2385.63420	0.61338
2383.70563	0.61374
2381.77707	0.61514
2379.84851	0.61702
2377.91994	0.61892
2375.99138	0.62092
2374.06281	0.62342
2372.13425	0.62667
2370.20568	0.63087
2368.27712	0.63510
2366.34855	0.63740
2364.41999	0.63958
2362.49143	0.64351
2360.56286	0.64422
2358.63430	0.63969
2356.70573	0.63389
2354.77717	0.62943
2352.84860	0.62559
2350.92004	0.62083
2348.99147	0.61679
2347.06291	0.61558
2345.13435	0.61733
2343.20578	0.61890
2341.27722	0.61812
2339.34865	0.61677
2337.42009	0.61617
2335.49152	0.61617
2333.56296	0.61592
2331.63440	0.61484
2329.70583	0.61338
2327.77727	0.61145
2325.84870	0.60844
2323.92014	0.60539
2321.99157	0.60321
2320.06301	0.60087
2318.13444	0.59799
2316.20588	0.59541
2314.27732	0.59355
2312.34875	0.59227
2310.42019	0.59095
2308.49162	0.58901
2306.56306	0.58682
2304.63449	0.58512
2302.70593	0.58377
2300.77736	0.58222
2298.84880	0.58071
2296.92024	0.57968
2294.99167	0.57901
2293.06311	0.57847
2291.13454	0.57774
2289.20598	0.57669
2287.27741	0.57551
2285.34885	0.57430
2283.42028	0.57306
2281.49172	0.57191
2279.56316	0.57119
2277.63459	0.57074
2275.70603	0.57000
2273.77746	0.56900
2271.84890	0.56807
2269.92033	0.56727
2267.99177	0.56646
2266.06320	0.56550
2264.13464	0.56458
2262.20608	0.56394
2260.27751	0.56332
2258.34895	0.56256
2256.42038	0.56175
2254.49182	0.56098
2252.56325	0.56025
2250.63469	0.55937
2248.70612	0.55838
2246.77756	0.55747
2244.84900	0.55651
2242.92043	0.55546
2240.99187	0.55441
2239.06330	0.55339
2237.13474	0.55257
2235.20617	0.55181
2233.27761	0.55085
2231.34904	0.54997
2229.42048	0.54941
2227.49192	0.54897
2225.56335	0.54843
2223.63479	0.54770
2221.70622	0.54686
2219.77766	0.54611
2217.84909	0.54546
2215.92053	0.54488
2213.99196	0.54443
2212.06340	0.54409
2210.13484	0.54369
2208.20627	0.54315
2206.27771	0.54259
2204.34914	0.54216
2202.42058	0.54178
2200.49201	0.54137
2198.56345	0.54082
2196.63488	0.54036
2194.70632	0.54030
2192.77776	0.54016
2190.84919	0.53937
2188.92063	0.53826
2186.99206	0.53723
2185.06350	0.53637
2183.13493	0.53558
2181.20637	0.53475
2179.27781	0.53385
2177.34924	0.53286
2175.42068	0.53166
2173.49211	0.53046
2171.56355	0.52964
2169.63498	0.52891
2167.70642	0.52776
2165.77785	0.52650
2163.84929	0.52546
2161.92073	0.52446
2159.99216	0.52348
2158.06360	0.52274
2156.13503	0.52220
2154.20647	0.52184
2152.27790	0.52156
2150.34934	0.52099
2148.42077	0.52017
2146.49221	0.51957
2144.56365	0.51924
2142.63508	0.51888
2140.70652	0.51832
2138.77795	0.51752
2136.84939	0.51668
2134.92082	0.51601
2132.99226	0.51536
2131.06369	0.51464
2129.13513	0.51392
2127.20657	0.51314
2125.27800	0.51229
2123.34944	0.51143
2121.42087	0.51054
2119.49231	0.50967
2117.56374	0.50889
2115.63518	0.50796
2113.70661	0.50662
2111.77805	0.50510
2109.84949	0.50381
2107.92092	0.50276
2105.99236	0.50154
2104.06379	0.49991
2102.13523	0.49817
2100.20666	0.49662
2098.27810	0.49529
2096.34953	0.49413
2094.42097	0.49303
2092.49241	0.49210
2090.56384	0.49147
2088.63528	0.49087
2086.70671	0.49015
2084.77815	0.48945
2082.84958	0.48880
2080.92102	0.48823
2078.99245	0.48781
2077.06389	0.48746
2075.13533	0.48694
2073.20676	0.48606
2071.27820	0.48506
2069.34963	0.48415
2067.42107	0.48323
2065.49250	0.48219
2063.56394	0.48092
2061.63537	0.47947
2059.70681	0.47818
2057.77825	0.47703
2055.84968	0.47575
2053.92112	0.47455
2051.99255	0.47365
2050.06399	0.47275
2048.13542	0.47172
2046.20686	0.47085
2044.27830	0.47024
2042.34973	0.46968
2040.42117	0.46899
2038.49260	0.46818
2036.56404	0.46742
2034.63547	0.46681
2032.70691	0.46610
2030.77834	0.46512
2028.84978	0.46415
2026.92122	0.46330
2024.99265	0.46228
2023.06409	0.46112
2021.13552	0.46009
2019.20696	0.45935
2017.27839	0.45882
2015.34983	0.45804
2013.42126	0.45681
2011.49270	0.45546
2009.56414	0.45418
2007.63557	0.45289
2005.70701	0.45154
2003.77844	0.45003
2001.84988	0.44834
1999.92131	0.44657
1997.99275	0.44474
1996.06418	0.44282
1994.13562	0.44107
1992.20706	0.43968
1990.27849	0.43832
1988.34993	0.43688
1986.42136	0.43555
1984.49280	0.43437
1982.56423	0.43345
1980.63567	0.43270
1978.70710	0.43205
1976.77854	0.43158
1974.84998	0.43130
1972.92141	0.43100
1970.99285	0.43043
1969.06428	0.42993
1967.13572	0.42985
1965.20715	0.42968
1963.27859	0.42913
1961.35002	0.42840
1959.42146	0.42743
1957.49290	0.42629
1955.56433	0.42535
1953.63577	0.42450
1951.70720	0.42326
1949.77864	0.42161
1947.85007	0.41985
1945.92151	0.41809
1943.99294	0.41645
1942.06438	0.41490
1940.13582	0.41303
1938.20725	0.41097
1936.27869	0.40913
1934.35012	0.40756
1932.42156	0.40611
1930.49299	0.40489
1928.56443	0.40393
1926.63586	0.40292
1924.70730	0.40201
1922.77874	0.40150
1920.85017	0.40091
1918.92161	0.40038
1916.99304	0.40011
1915.06448	0.39938
1913.13591	0.39840
1911.20735	0.39789
1909.27878	0.39784
1907.35022	0.39753
1905.42166	0.39660
1903.49309	0.39553
1901.56453	0.39466
1899.63596	0.39385
1897.70740	0.39306
1895.77883	0.39236
1893.85027	0.39132
1891.92171	0.38990
1889.99314	0.38880
1888.06458	0.38776
1886.13601	0.38640
1884.20745	0.38511
1882.27888	0.38390
1880.35032	0.38274
1878.42175	0.38181
1876.49319	0.38101
1874.56463	0.38013
1872.63606	0.37939
1870.70750	0.37959
1868.77893	0.38102
1866.85037	0.38157
1864.92180	0.38054
1862.99324	0.37944
1861.06467	0.37879
1859.13611	0.37828
1857.20755	0.37761
1855.27898	0.37675
1853.35042	0.37582
1851.42185	0.37483
1849.49329	0.37388
1847.56472	0.37301
1845.63616	0.37260
1843.70759	0.37245
1841.77903	0.37109
1839.85047	0.36907
1837.92190	0.36770
1835.99334	0.36687
1834.06477	0.36568
1832.13621	0.36463
1830.20764	0.36472
1828.27908	0.36477
1826.35051	0.36397
1824.42195	0.36339
1822.49339	0.36280
1820.56482	0.36199
1818.63626	0.36153
1816.70769	0.36137
1814.77913	0.36134
1812.85056	0.36178
1810.92200	0.36280
1808.99343	0.36352
1807.06487	0.36358
1805.13631	0.36346
1803.20774	0.36372
1801.27918	0.36482
1799.35061	0.36581
1797.42205	0.36575
1795.49348	0.36528
1793.56492	0.36567
1791.63635	0.36708
1789.70779	0.36688
1787.77923	0.36559
1785.85066	0.36507
1783.92210	0.36542
1781.99353	0.36613
1780.06497	0.36708
1778.13640	0.36769
1776.20784	0.36789
1774.27927	0.36914
1772.35071	0.37270
1770.42215	0.37579
1768.49358	0.37706
1766.56502	0.37794
1764.63645	0.37897
1762.70789	0.38178
1760.77932	0.38618
1758.85076	0.38997
1756.92220	0.39490
1754.99363	0.40028
1753.06507	0.40532
1751.13650	0.41401
1749.20794	0.42692
1747.27937	0.43740
1745.35081	0.44462
1743.42224	0.45079
1741.49368	0.45664
1739.56512	0.46204
1737.63655	0.46506
1735.70799	0.46666
1733.77942	0.47049
1731.85086	0.47329
1729.92229	0.47396
1727.99373	0.47534
1726.06516	0.47797
1724.13660	0.48259
1722.20804	0.48779
1720.27947	0.49272
1718.35091	0.50253
1716.42234	0.52082
1714.49378	0.53477
1712.56521	0.54481
1710.63665	0.55673
1708.70808	0.57179
1706.77952	0.59427
1704.85096	0.62400
1702.92239	0.65033
1700.99383	0.68645
1699.06526	0.74443
1697.13670	0.79775
1695.20813	0.84676
1693.27957	0.88077
1691.35100	0.90693
1689.42244	0.93995
1687.49388	0.97137
1685.56531	1.00352
1683.63675	1.05239
1681.70818	1.08515
1679.77962	1.10253
1677.85105	1.11914
1675.92249	1.13931
1673.99392	1.16003
1672.06536	1.17558
1670.13680	1.19496
1668.20823	1.21620
1666.27967	1.22582
1664.35110	1.23387
1662.42254	1.24652
1660.49397	1.25570
1658.56541	1.25930
1656.63684	1.26020
1654.70828	1.26339
1652.77972	1.27279
1650.85115	1.27317
1648.92259	1.26971
1646.99402	1.26811
1645.06546	1.26552
1643.13689	1.26138
1641.20833	1.25890
1639.27976	1.25737
1637.35120	1.25768
1635.42264	1.25991
1633.49407	1.25656
1631.56551	1.25101
1629.63694	1.24585
1627.70838	1.24043
1625.77981	1.23341
1623.85125	1.22489
1621.92269	1.21493
1619.99412	1.20457
1618.06556	1.19114
1616.13699	1.17034
1614.20843	1.15077
1612.27986	1.13332
1610.35130	1.11403
1608.42273	1.09402
1606.49417	1.07692
1604.56561	1.06340
1602.63704	1.05198
1600.70848	1.04289
1598.77991	1.03619
1596.85135	1.03133
1594.92278	1.02777
1592.99422	1.02522
1591.06565	1.02465
1589.13709	1.02702
1587.20853	1.03186
1585.27996	1.03817
1583.35140	1.04625
1581.42283	1.05518
1579.49427	1.06296
1577.56570	1.07295
1575.63714	1.08975
1573.70857	1.10174
1571.78001	1.10922
1569.85145	1.12155
1567.92288	1.13471
1565.99432	1.14266
1564.06575	1.14923
1562.13719	1.15386
1560.20862	1.16099
1558.28006	1.18085
1556.35149	1.18969
1554.42293	1.19138
1552.49437	1.19250
1550.56580	1.19348
1548.63724	1.19405
1546.70867	1.19323
1544.78011	1.19120
1542.85154	1.18833
1540.92298	1.18518
1538.99441	1.18155
1537.06585	1.17688
1535.13729	1.17215
1533.20872	1.16938
1531.28016	1.16692
1529.35159	1.16304
1527.42303	1.15878
1525.49446	1.15425
1523.56590	1.15012
1521.63733	1.14838
1519.70877	1.14898
1517.78021	1.14720
1515.85164	1.14091
1513.92308	1.13077
1511.99451	1.11871
1510.06595	1.10692
1508.13738	1.09045
1506.20882	1.06046
1504.28025	1.04054
1502.35169	1.02654
1500.42313	1.01085
1498.49456	0.99027
1496.56600	0.96524
1494.63743	0.94485
1492.70887	0.93025
1490.78030	0.91493
1488.85174	0.89572
1486.92317	0.87893
1484.99461	0.86675
1483.06605	0.85777
1481.13748	0.85145
1479.20892	0.84830
1477.28035	0.84910
1475.35179	0.85520
1473.42322	0.86994
1471.49466	0.88675
1469.56610	0.89452
1467.63753	0.89930
1465.70897	0.90703
1463.78040	0.91546
1461.85184	0.91896
1459.92327	0.92086
1457.99471	0.92857
1456.06614	0.93824
1454.13758	0.93865
1452.20902	0.93687
1450.28045	0.93508
1448.35189	0.93255
1446.42332	0.92870
1444.49476	0.92395
1442.56619	0.91863
1440.63763	0.91290
1438.70906	0.90613
1436.78050	0.89620
1434.85194	0.88502
1432.92337	0.87572
1430.99481	0.86685
1429.06624	0.85864
1427.13768	0.85269
1425.20911	0.84896
1423.28055	0.84679
1421.35198	0.84592
1419.42342	0.84791
1417.49486	0.85146
1415.56629	0.85223
1413.63773	0.85165
1411.70916	0.85132
1409.78060	0.85163
1407.85203	0.85271
1405.92347	0.85524
1403.99490	0.85858
1402.06634	0.86069
1400.13778	0.86217
1398.20921	0.86363
1396.28065	0.86479
1394.35208	0.86602
1392.42352	0.86692
1390.49495	0.86844
1388.56639	0.87368
1386.63782	0.88381
1384.70926	0.89407
1382.78070	0.90221
1380.85213	0.90823
1378.92357	0.91077
1376.99500	0.90928
1375.06644	0.90310
1373.13787	0.89199
1371.20931	0.87902
1369.28074	0.86467
1367.35218	0.84900
1365.42362	0.83471
1363.49505	0.82174
1361.56649	0.80987
1359.63792	0.80105
1357.70936	0.79518
1355.78079	0.79114
1353.85223	0.78833
1351.92366	0.78649
1349.99510	0.78533
1348.06654	0.78461
1346.13797	0.78444
1344.20941	0.78487
1342.28084	0.78578
1340.35228	0.78791
1338.42371	0.79163
1336.49515	0.79594
1334.56659	0.80126
1332.63802	0.80838
1330.70946	0.81670
1328.78089	0.82416
1326.85233	0.82950
1324.92376	0.83320
1322.99520	0.83598
1321.06663	0.83864
1319.13807	0.84181
1317.20951	0.84476
1315.28094	0.84672
1313.35238	0.84800
1311.42381	0.84876
1309.49525	0.84896
1307.56668	0.84827
1305.63812	0.84628
1303.70955	0.84357
1301.78099	0.84082
1299.85243	0.83808
1297.92386	0.83514
1295.99530	0.83200
1294.06673	0.82918
1292.13817	0.82734
1290.20960	0.82668
1288.28104	0.82705
1286.35247	0.82806
1284.42391	0.82912
1282.49535	0.82990
1280.56678	0.83067
1278.63822	0.83202
1276.70965	0.83407
1274.78109	0.83687
1272.85252	0.84083
1270.92396	0.84578
1268.99539	0.85097
1267.06683	0.85574
1265.13827	0.85955
1263.20970	0.86200
1261.28114	0.86286
1259.35257	0.86239
1257.42401	0.86141
1255.49544	0.86064
1253.56688	0.85994
1251.63831	0.85877
1249.70975	0.85721
1247.78119	0.85576
1245.85262	0.85461
1243.92406	0.85354
1241.99549	0.85229
1240.06693	0.85077
1238.13836	0.84899
1236.20980	0.84663
1234.28123	0.84324
1232.35267	0.83921
1230.42411	0.83506
1228.49554	0.83050
1226.56698	0.82550
1224.63841	0.82050
1222.70985	0.81525
1220.78128	0.80953
1218.85272	0.80419
1216.92415	0.80037
1214.99559	0.79876
1213.06703	0.79935
1211.13846	0.80169
1209.20990	0.80450
1207.28133	0.80603
1205.35277	0.80531
1203.42420	0.80185
1201.49564	0.79559
1199.56708	0.78733
1197.63851	0.77826
1195.70995	0.76937
1193.78138	0.76133
1191.85282	0.75432
1189.92425	0.74818
1187.99569	0.74311
1186.06712	0.73974
1184.13856	0.73841
1182.21000	0.73880
1180.28143	0.74081
1178.35287	0.74525
1176.42430	0.75246
1174.49574	0.76169
1172.56717	0.77217
1170.63861	0.78362
1168.71004	0.79631
1166.78148	0.81049
1164.85292	0.82553
1162.92435	0.83939
1160.99579	0.84974
1159.06722	0.85533
1157.13866	0.85609
1155.21009	0.85268
1153.28153	0.84602
1151.35296	0.83726
1149.42440	0.82774
1147.49584	0.81883
1145.56727	0.81163
1143.63871	0.80670
1141.71014	0.80431
1139.78158	0.80467
1137.85301	0.80776
1135.92445	0.81320
1133.99588	0.82062
1132.06732	0.83003
1130.13876	0.84156
1128.21019	0.85435
1126.28163	0.86669
1124.35306	0.87745
1122.42450	0.88622
1120.49593	0.89283
1118.56737	0.89769
1116.63880	0.90098
1114.71024	0.90151
1112.78168	0.89824
1110.85311	0.89278
1108.92455	0.88782
1106.99598	0.88458
1105.06742	0.88286
1103.13885	0.88220
1101.21029	0.88279
1099.28172	0.88511
1097.35316	0.88949
1095.42460	0.89610
1093.49603	0.90463
1091.56747	0.91466
1089.63890	0.92573
1087.71034	0.93726
1085.78177	0.94872
1083.85321	0.95910
1081.92464	0.96678
1079.99608	0.97078
1078.06752	0.97048
1076.13895	0.96569
1074.21039	0.95794
1072.28182	0.94866
1070.35326	0.93798
1068.42469	0.92692
1066.49613	0.91659
1064.56756	0.90691
1062.63900	0.89766
1060.71044	0.88875
1058.78187	0.88006
1056.85331	0.87219
1054.92474	0.86635
1052.99618	0.86281
1051.06761	0.86051
1049.13905	0.85925
1047.21049	0.86090
1045.28192	0.86636
1043.35336	0.87366
1041.42479	0.88104
1039.49623	0.88803
1037.56766	0.89315
1035.63910	0.89491
1033.71053	0.89359
1031.78197	0.88989
1029.85341	0.88408
1027.92484	0.87593
1025.99628	0.86539
1024.06771	0.85442
1022.13915	0.84473
1020.21058	0.83547
1018.28202	0.82587
1016.35345	0.81592
1014.42489	0.80420
1012.49633	0.78949
1010.56776	0.77245
1008.63920	0.75413
1006.71063	0.73534
1004.78207	0.71731
1002.85350	0.70146
1000.92494	0.68885
998.99637	0.67966
997.06781	0.67327
995.13925	0.66881
993.21068	0.66503
991.28212	0.66094
989.35355	0.65657
987.42499	0.65223
985.49642	0.64827
983.56786	0.64591
981.63929	0.64570
979.71073	0.64626
977.78217	0.64620
975.85360	0.64502
973.92504	0.64222
971.99647	0.63725
970.06791	0.63018
968.13934	0.62187
966.21078	0.61367
964.28221	0.60686
962.35365	0.60277
960.42509	0.60309
958.49652	0.60795
956.56796	0.61397
954.63939	0.61630
952.71083	0.61263
950.78226	0.60421
948.85370	0.59414
946.92513	0.58528
944.99657	0.57929
943.06801	0.57644
941.13944	0.57578
939.21088	0.57618
937.28231	0.57746
935.35375	0.57985
933.42518	0.58326
931.49662	0.58744
929.56805	0.59206
927.63949	0.59673
925.71093	0.60161
923.78236	0.60689
921.85380	0.61187
919.92523	0.61564
917.99667	0.61799
916.06810	0.61943
914.13954	0.62061
912.21098	0.62192
910.28241	0.62378
908.35385	0.62661
906.42528	0.63031
904.49672	0.63423
902.56815	0.63776
900.63959	0.64066
898.71102	0.64277
896.78246	0.64405
894.85390	0.64473
892.92533	0.64513
890.99677	0.64544
889.06820	0.64558
887.13964	0.64601
885.21107	0.64738
883.28251	0.64955
881.35394	0.65212
879.42538	0.65499
877.49682	0.65802
875.56825	0.66113
873.63969	0.66406
871.71112	0.66624
869.78256	0.66757
867.85399	0.66825
865.92543	0.66862
863.99686	0.66920
862.06830	0.67004
860.13974	0.67075
858.21117	0.67107
856.28261	0.67120
854.35404	0.67149
852.42548	0.67212
850.49691	0.67269
848.56835	0.67278
846.63978	0.67285
844.71122	0.67363
842.78266	0.67516
840.85409	0.67748
838.92553	0.68062
836.99696	0.68397
835.06840	0.68743
833.13983	0.69185
831.21127	0.69701
829.28270	0.70206
827.35414	0.70690
825.42558	0.71153
823.49701	0.71573
821.56845	0.71936
819.63988	0.72254
817.71132	0.72595
815.78275	0.72973
813.85419	0.73296
811.92562	0.73536
809.99706	0.73733
808.06850	0.73825
806.13993	0.73781
804.21137	0.73708
802.28280	0.73664
800.35424	0.73598
798.42567	0.73505
796.49711	0.73427
794.56854	0.73403
792.63998	0.73464
790.71142	0.73612
788.78285	0.73849
786.85429	0.74142
784.92572	0.74484
782.99716	0.74960
781.06859	0.75544
779.14003	0.76111
777.21147	0.76648
775.28290	0.77193
773.35434	0.77710
771.42577	0.78158
769.49721	0.78563
767.56864	0.78947
765.64008	0.79282
763.71151	0.79522
761.78295	0.79666
759.85439	0.79758
757.92582	0.79813
755.99726	0.79805
754.06869	0.79753
752.14013	0.79772
750.21156	0.79912
748.28300	0.80008
746.35443	0.79943
744.42587	0.79855
742.49731	0.79858
740.56874	0.79907
738.64018	0.79989
736.71161	0.80170
734.78305	0.80538
732.85448	0.81114
730.92592	0.81767
728.99735	0.82378
727.06879	0.83005
725.14023	0.83688
723.21166	0.84427
721.28310	0.85225
719.35453	0.85881
717.42597	0.86261
715.49740	0.86540
713.56884	0.86903
711.64027	0.87334
709.71171	0.87688
707.78315	0.87938
705.85458	0.88124
703.92602	0.88147
701.99745	0.87959
700.06889	0.87677
698.14032	0.87374
696.21176	0.87036
694.28319	0.86682
692.35463	0.86326
690.42607	0.85953
688.49750	0.85584
686.56894	0.85233
684.64037	0.84957
682.71181	0.84895
680.78324	0.85019
678.85468	0.85141
676.92611	0.85236
674.99755	0.85427
673.06899	0.85777
671.14042	0.86236
669.21186	0.86861
667.28329	0.87528
665.35473	0.87960
663.42616	0.88445
661.49760	0.88948
659.56903	0.89163
657.64047	0.89181
655.71191	0.89311
653.78334	0.89571
651.85478	0.89838
649.92621	0.90037
647.99765	0.90072
646.06908	0.90018
644.14052	0.90044
642.21195	0.90085
640.28339	0.90046
638.35483	0.89984
636.42626	0.89892
634.49770	0.89727
632.56913	0.89615
630.64057	0.89647
628.71200	0.89717
626.78344	0.89763
624.85488	0.89890
622.92631	0.90087
620.99775	0.90188
619.06918	0.90284
617.14062	0.90547
615.21205	0.90879
613.28349	0.91210
611.35492	0.91529
609.42636	0.91660
607.49780	0.91547
605.56923	0.91340
603.64067	0.91128
601.71210	0.90928
599.78354	0.90745
