3997.91406	0.94880
3995.98550	0.94974
3994.05693	0.94789
3992.12837	0.94509
3990.19980	0.94387
3988.27124	0.94393
3986.34268	0.94364
3984.41411	0.94285
3982.48555	0.94163
3980.55698	0.94099
3978.62842	0.94257
3976.69985	0.94489
3974.77129	0.94517
3972.84272	0.94445
3970.91416	0.94386
3968.98560	0.94181
3967.05703	0.93904
3965.12847	0.93735
3963.19990	0.93763
3961.27134	0.93990
3959.34277	0.94165
3957.41421	0.94209
3955.48564	0.94225
3953.55708	0.94203
3951.62852	0.94050
3949.69995	0.93711
3947.77139	0.93463
3945.84282	0.93444
3943.91426	0.93479
3941.98569	0.93572
3940.05713	0.93695
3938.12856	0.93704
3936.20000	0.93489
3934.27144	0.93172
3932.34287	0.93096
3930.41431	0.93226
3928.48574	0.93231
3926.55718	0.93193
3924.62861	0.93203
3922.70005	0.93111
3920.77148	0.93008
3918.84292	0.93056
3916.91436	0.93030
3914.98579	0.92708
3913.05723	0.92340
3911.12866	0.92181
3909.20010	0.92167
3907.27153	0.92089
3905.34297	0.91904
3903.41440	0.91939
3901.48584	0.92387
3899.55728	0.92669
3897.62871	0.92467
3895.70015	0.92017
3893.77158	0.91617
3891.84302	0.91587
3889.91445	0.91600
3887.98589	0.91386
3886.05733	0.91360
3884.12876	0.91430
3882.20020	0.91354
3880.27163	0.91331
3878.34307	0.91113
3876.41450	0.90842
3874.48594	0.90762
3872.55737	0.90612
3870.62881	0.90649
3868.70025	0.90835
3866.77168	0.90512
3864.84312	0.90321
3862.91455	0.90736
3860.98599	0.90855
3859.05742	0.90318
3857.12886	0.89477
3855.20029	0.89220
3853.27173	0.90586
3851.34317	0.91185
3849.41460	0.90715
3847.48604	0.90153
3845.55747	0.89674
3843.62891	0.89466
3841.70034	0.89420
3839.77178	0.89268
3837.84321	0.89260
3835.91465	0.89468
3833.98609	0.89752
3832.05752	0.89977
3830.12896	0.89850
3828.20039	0.89551
3826.27183	0.89277
3824.34326	0.88757
3822.41470	0.88356
3820.48613	0.88864
3818.55757	0.89199
3816.62901	0.89199
3814.70044	0.89318
3812.77188	0.89114
3810.84331	0.88677
3808.91475	0.88490
3806.98618	0.88793
3805.05762	0.88904
3803.12905	0.88729
3801.20049	0.88775
3799.27193	0.88757
3797.34336	0.88768
3795.41480	0.88826
3793.48623	0.88634
3791.55767	0.88406
3789.62910	0.88224
3787.70054	0.88007
3785.77197	0.87972
3783.84341	0.88070
3781.91485	0.87971
3779.98628	0.87940
3778.05772	0.88073
3776.12915	0.87977
3774.20059	0.87746
3772.27202	0.87655
3770.34346	0.87767
3768.41489	0.87751
3766.48633	0.87607
3764.55777	0.87527
3762.62920	0.87390
3760.70064	0.87450
3758.77207	0.87763
3756.84351	0.87688
3754.91494	0.87224
3752.98638	0.86783
3751.05781	0.87012
3749.12925	0.87527
3747.20069	0.87729
3745.27212	0.88345
3743.34356	0.88628
3741.41499	0.88020
3739.48643	0.87332
3737.55786	0.86840
3735.62930	0.86890
3733.70074	0.87463
3731.77217	0.87683
3729.84361	0.87539
3727.91504	0.87297
3725.98648	0.87163
3724.05791	0.87236
3722.12935	0.87286
3720.20078	0.87097
3718.27222	0.86798
3716.34366	0.86554
3714.41509	0.86342
3712.48653	0.86401
3710.55796	0.86791
3708.62940	0.86640
3706.70083	0.86104
3704.77227	0.85683
3702.84370	0.85770
3700.91514	0.86269
3698.98658	0.86465
3697.05801	0.86358
3695.12945	0.86145
3693.20088	0.85879
3691.27232	0.85900
3689.34375	0.86585
3687.41519	0.87151
3685.48662	0.87206
3683.55806	0.87026
3681.62950	0.86819
3679.70093	0.86755
3677.77237	0.86905
3675.84380	0.87612
3673.91524	0.88186
3671.98667	0.88215
3670.05811	0.88627
3668.12954	0.89007
3666.20098	0.88929
3664.27242	0.88903
3662.34385	0.89052
3660.41529	0.89191
3658.48672	0.89311
3656.55816	0.89666
3654.62959	0.89910
3652.70103	0.89856
3650.77246	0.90403
3648.84390	0.92083
3646.91534	0.92475
3644.98677	0.92080
3643.05821	0.92084
3641.12964	0.92519
3639.20108	0.93021
3637.27251	0.93419
3635.34395	0.93683
3633.41538	0.93738
3631.48682	0.93697
3629.55826	0.94451
3627.62969	0.96002
3625.70113	0.96506
3623.77256	0.96378
3621.84400	0.96326
3619.91543	0.96823
3617.98687	0.97545
3616.05830	0.97818
3614.12974	0.98112
3612.20118	0.98660
3610.27261	0.99189
3608.34405	0.99820
3606.41548	1.00335
3604.48692	1.00503
3602.55835	1.00813
3600.62979	1.01452
3598.70123	1.01874
3596.77266	1.01921
3594.84410	1.02000
3592.91553	1.02258
3590.98697	1.02590
3589.05840	1.03290
3587.12984	1.04485
3585.20127	1.05152
3583.27271	1.05283
3581.34415	1.05521
3579.41558	1.05954
3577.48702	1.06444
3575.55845	1.07028
3573.62989	1.07550
3571.70132	1.07766
3569.77276	1.07826
3567.84419	1.08363
3565.91563	1.09318
3563.98707	1.09635
3562.05850	1.09769
3560.12994	1.10234
3558.20137	1.10892
3556.27281	1.11513
3554.34424	1.12061
3552.41568	1.12565
3550.48711	1.12906
3548.55855	1.13135
3546.62999	1.13574
3544.70142	1.14299
3542.77286	1.14944
3540.84429	1.15259
3538.91573	1.15415
3536.98716	1.15719
3535.05860	1.16113
3533.13003	1.16364
3531.20147	1.16655
3529.27291	1.17339
3527.34434	1.18290
3525.41578	1.19011
3523.48721	1.19578
3521.55865	1.20251
3519.63008	1.20726
3517.70152	1.20860
3515.77295	1.21048
3513.84439	1.21613
3511.91583	1.22359
3509.98726	1.22992
3508.05870	1.23688
3506.13013	1.24499
3504.20157	1.25146
3502.27300	1.25638
3500.34444	1.26215
3498.41587	1.27047
3496.48731	1.28001
3494.55875	1.28599
3492.63018	1.28974
3490.70162	1.29582
3488.77305	1.30147
3486.84449	1.30278
3484.91592	1.30288
3482.98736	1.30816
3481.05879	1.31707
3479.13023	1.31954
3477.20167	1.31592
3475.27310	1.31457
3473.34454	1.31786
3471.41597	1.32282
3469.48741	1.32755
3467.55884	1.33292
3465.63028	1.33817
3463.70171	1.33914
3461.77315	1.33741
3459.84459	1.33992
3457.91602	1.34579
3455.98746	1.34946
3454.05889	1.35100
3452.13033	1.35376
3450.20176	1.35736
3448.27320	1.35755
3446.34464	1.35295
3444.41607	1.34857
3442.48751	1.35082
3440.55894	1.35908
3438.63038	1.36566
3436.70181	1.36644
3434.77325	1.36379
3432.84468	1.36294
3430.91612	1.36613
3428.98756	1.37039
3427.05899	1.37313
3425.13043	1.37538
3423.20186	1.37948
3421.27330	1.38365
3419.34473	1.38357
3417.41617	1.37981
3415.48760	1.37596
3413.55904	1.37473
3411.63048	1.37703
3409.70191	1.38025
3407.77335	1.38021
3405.84478	1.37877
3403.91622	1.38046
3401.98765	1.38375
3400.05909	1.38540
3398.13052	1.38463
3396.20196	1.38185
3394.27340	1.37893
3392.34483	1.37865
3390.41627	1.38206
3388.48770	1.38584
3386.55914	1.38688
3384.63057	1.38655
3382.70201	1.38697
3380.77344	1.38868
3378.84488	1.39140
3376.91632	1.39250
3374.98775	1.39194
3373.05919	1.39420
3371.13062	1.39852
3369.20206	1.39955
3367.27349	1.39790
3365.34493	1.39753
3363.41636	1.39855
3361.48780	1.40039
3359.55924	1.40325
3357.63067	1.40566
3355.70211	1.40793
3353.77354	1.41180
3351.84498	1.41582
3349.91641	1.41731
3347.98785	1.41643
3346.05928	1.41669
3344.13072	1.41869
3342.20216	1.41748
3340.27359	1.41443
3338.34503	1.41758
3336.41646	1.42657
3334.48790	1.43449
3332.55933	1.43937
3330.63077	1.44175
3328.70220	1.44294
3326.77364	1.44651
3324.84508	1.45117
3322.91651	1.45183
3320.98795	1.44960
3319.05938	1.44948
3317.13082	1.45236
3315.20225	1.45573
3313.27369	1.45900
3311.34513	1.46429
3309.41656	1.47159
3307.48800	1.47736
3305.55943	1.47910
3303.63087	1.47919
3301.70230	1.47973
3299.77374	1.47663
3297.84517	1.47046
3295.91661	1.46861
3293.98805	1.47155
3292.05948	1.47661
3290.13092	1.48249
3288.20235	1.48456
3286.27379	1.48058
3284.34522	1.47434
3282.41666	1.47062
3280.48809	1.47183
3278.55953	1.47825
3276.63097	1.48710
3274.70240	1.48992
3272.77384	1.48150
3270.84527	1.47068
3268.91671	1.46714
3266.98814	1.46774
3265.05958	1.46657
3263.13101	1.46485
3261.20245	1.46354
3259.27389	1.46102
3257.34532	1.45467
3255.41676	1.44191
3253.48819	1.42867
3251.55963	1.42244
3249.63106	1.41998
3247.70250	1.41554
3245.77393	1.40976
3243.84537	1.40525
3241.91681	1.40178
3239.98824	1.39984
3238.05968	1.39923
3236.13111	1.39562
3234.20255	1.38908
3232.27398	1.38290
3230.34542	1.37848
3228.41685	1.37777
3226.48829	1.37803
3224.55973	1.37411
3222.63116	1.36725
3220.70260	1.36065
3218.77403	1.35458
3216.84547	1.34920
3214.91690	1.34551
3212.98834	1.34274
3211.05977	1.33965
3209.13121	1.33511
3207.20265	1.32847
3205.27408	1.32297
3203.34552	1.31931
3201.41695	1.31331
3199.48839	1.30620
3197.55982	1.30212
3195.63126	1.29951
3193.70269	1.29585
3191.77413	1.29221
3189.84557	1.28926
3187.91700	1.28520
3185.98844	1.28049
3184.05987	1.27887
3182.13131	1.27984
3180.20274	1.27705
3178.27418	1.26936
3176.34562	1.26415
3174.41705	1.26269
3172.48849	1.25921
3170.55992	1.25399
3168.63136	1.25075
3166.70279	1.24960
3164.77423	1.24779
3162.84566	1.24361
3160.91710	1.24012
3158.98854	1.23778
3157.05997	1.23274
3155.13141	1.22761
3153.20284	1.22648
3151.27428	1.22634
3149.34571	1.22396
3147.41715	1.22009
3145.48858	1.21634
3143.56002	1.21306
3141.63146	1.21016
3139.70289	1.20815
3137.77433	1.20702
3135.84576	1.20569
3133.91720	1.20266
3131.98863	1.19907
3130.06007	1.19675
3128.13150	1.19419
3126.20294	1.19146
3124.27438	1.19091
3122.34581	1.19151
3120.41725	1.19044
3118.48868	1.18889
3116.56012	1.19059
3114.63155	1.19429
3112.70299	1.19614
3110.77442	1.19658
3108.84586	1.19753
3106.91730	1.19849
3104.98873	1.19772
3103.06017	1.19577
3101.13160	1.19436
3099.20304	1.19325
3097.27447	1.19219
3095.34591	1.19178
3093.41734	1.19200
3091.48878	1.19232
3089.56022	1.19117
3087.63165	1.18830
3085.70309	1.18658
3083.77452	1.18701
3081.84596	1.18659
3079.91739	1.18348
3077.98883	1.17967
3076.06026	1.17677
3074.13170	1.17371
3072.20314	1.16994
3070.27457	1.16593
3068.34601	1.16196
3066.41744	1.15880
3064.48888	1.15613
3062.56031	1.15252
3060.63175	1.14762
3058.70318	1.14202
3056.77462	1.13738
3054.84606	1.13433
3052.91749	1.13122
3050.98893	1.12715
3049.06036	1.12282
3047.13180	1.11945
3045.20323	1.11715
3043.27467	1.11488
3041.34610	1.11233
3039.41754	1.10949
3037.48898	1.10659
3035.56041	1.10455
3033.63185	1.10305
3031.70328	1.10040
3029.77472	1.09652
3027.84615	1.09303
3025.91759	1.08997
3023.98903	1.08588
3022.06046	1.08136
3020.13190	1.07850
3018.20333	1.07726
3016.27477	1.07569
3014.34620	1.07301
3012.41764	1.06979
3010.48907	1.06691
3008.56051	1.06518
3006.63195	1.06400
3004.70338	1.06239
3002.77482	1.06068
3000.84625	1.05940
2998.91769	1.05923
2996.98912	1.06069
2995.06056	1.06258
2993.13199	1.06365
2991.20343	1.06505
2989.27487	1.06782
2987.34630	1.07132
2985.41774	1.07550
2983.48917	1.08051
2981.56061	1.08554
2979.63204	1.09109
2977.70348	1.09853
2975.77491	1.10658
2973.84635	1.11373
2971.91779	1.12101
2969.98922	1.12903
2968.06066	1.13682
2966.13209	1.14317
2964.20353	1.14795
2962.27496	1.15173
2960.34640	1.15407
2958.41783	1.15412
2956.48927	1.15112
2954.56071	1.14502
2952.63214	1.13819
2950.70358	1.13368
2948.77501	1.13227
2946.84645	1.13282
2944.91788	1.13432
2942.98932	1.13765
2941.06075	1.14458
2939.13219	1.15497
2937.20363	1.16686
2935.27506	1.17817
2933.34650	1.18831
2931.41793	1.19898
2929.48937	1.21137
2927.56080	1.22367
2925.63224	1.23446
2923.70367	1.24510
2921.77511	1.25501
2919.84655	1.26111
2917.91798	1.26039
2915.98942	1.24759
2914.06085	1.22241
2912.13229	1.19419
2910.20372	1.17071
2908.27516	1.15353
2906.34659	1.14141
2904.41803	1.13217
2902.48947	1.12512
2900.56090	1.12138
2898.63234	1.11941
2896.70377	1.11614
2894.77521	1.11178
2892.84664	1.10726
2890.91808	1.10151
2888.98952	1.09499
2887.06095	1.09009
2885.13239	1.08740
2883.20382	1.08554
2881.27526	1.08411
2879.34669	1.08470
2877.41813	1.08701
2875.48956	1.08698
2873.56100	1.08353
2871.63244	1.07952
2869.70387	1.07569
2867.77531	1.07176
2865.84674	1.06824
2863.91818	1.06543
2861.98961	1.06501
2860.06105	1.06980
2858.13248	1.07917
2856.20392	1.08941
2854.27536	1.10062
2852.34679	1.11302
2850.41823	1.11883
2848.48966	1.10867
2846.56110	1.08323
2844.63253	1.05351
2842.70397	1.02928
2840.77540	1.01217
2838.84684	0.99974
2836.91828	0.99013
2834.98971	0.98236
2833.06115	0.97609
2831.13258	0.97133
2829.20402	0.96742
2827.27545	0.96345
2825.34689	0.95940
2823.41832	0.95522
2821.48976	0.95104
2819.56120	0.94810
2817.63263	0.94661
2815.70407	0.94509
2813.77550	0.94268
2811.84694	0.93960
2809.91837	0.93684
2807.98981	0.93520
2806.06124	0.93371
2804.13268	0.93168
2802.20412	0.93007
2800.27555	0.92893
2798.34699	0.92775
2796.41842	0.92705
2794.48986	0.92644
2792.56129	0.92464
2790.63273	0.92232
2788.70416	0.92065
2786.77560	0.91934
2784.84704	0.91814
2782.91847	0.91687
2780.98991	0.91488
2779.06134	0.91243
2777.13278	0.91042
2775.20421	0.90890
2773.27565	0.90743
2771.34708	0.90590
2769.41852	0.90464
2767.48996	0.90377
2765.56139	0.90318
2763.63283	0.90259
2761.70426	0.90133
2759.77570	0.89928
2757.84713	0.89708
2755.91857	0.89551
2753.99001	0.89506
2752.06144	0.89551
2750.13288	0.89601
2748.20431	0.89586
2746.27575	0.89519
2744.34718	0.89484
2742.41862	0.89497
2740.49005	0.89488
2738.56149	0.89443
2736.63293	0.89372
2734.70436	0.89274
2732.77580	0.89166
2730.84723	0.89061
2728.91867	0.88940
2726.99010	0.88783
2725.06154	0.88644
2723.13297	0.88548
2721.20441	0.88396
2719.27585	0.88178
2717.34728	0.87979
2715.41872	0.87799
2713.49015	0.87622
2711.56159	0.87450
2709.63302	0.87294
2707.70446	0.87178
2705.77589	0.87066
2703.84733	0.86949
2701.91877	0.86886
2699.99020	0.86852
2698.06164	0.86805
2696.13307	0.86754
2694.20451	0.86691
2692.27594	0.86607
2690.34738	0.86543
2688.41881	0.86498
2686.49025	0.86403
2684.56169	0.86300
2682.63312	0.86279
2680.70456	0.86278
2678.77599	0.86223
2676.84743	0.86123
2674.91886	0.85967
2672.99030	0.85749
2671.06173	0.85491
2669.13317	0.85218
2667.20461	0.84974
2665.27604	0.84775
2663.34748	0.84601
2661.41891	0.84440
2659.49035	0.84267
2657.56178	0.84041
2655.63322	0.83755
2653.70465	0.83461
2651.77609	0.83233
2649.84753	0.83078
2647.91896	0.82947
2645.99040	0.82794
2644.06183	0.82583
2642.13327	0.82389
2640.20470	0.82328
2638.27614	0.82323
2636.34757	0.82263
2634.41901	0.82236
2632.49045	0.82296
2630.56188	0.82362
2628.63332	0.82384
2626.70475	0.82377
2624.77619	0.82396
2622.84762	0.82486
2620.91906	0.82627
2618.99049	0.82783
2617.06193	0.82947
2615.13337	0.83107
2613.20480	0.83219
2611.27624	0.83226
2609.34767	0.83144
2607.41911	0.83103
2605.49054	0.83161
2603.56198	0.83218
2601.63342	0.83193
2599.70485	0.83082
2597.77629	0.82919
2595.84772	0.82760
2593.91916	0.82618
2591.99059	0.82451
2590.06203	0.82234
2588.13346	0.82000
2586.20490	0.81801
2584.27634	0.81662
2582.34777	0.81517
2580.41921	0.81311
2578.49064	0.81102
2576.56208	0.80949
2574.63351	0.80871
2572.70495	0.80813
2570.77638	0.80688
2568.84782	0.80542
2566.91926	0.80437
2564.99069	0.80340
2563.06213	0.80273
2561.13356	0.80299
2559.20500	0.80391
2557.27643	0.80476
2555.34787	0.80540
2553.41930	0.80605
2551.49074	0.80637
2549.56218	0.80641
2547.63361	0.80713
2545.70505	0.80832
2543.77648	0.80884
2541.84792	0.80869
2539.91935	0.80844
2537.99079	0.80830
2536.06222	0.80818
2534.13366	0.80791
2532.20510	0.80774
2530.27653	0.80774
2528.34797	0.80739
2526.41940	0.80674
2524.49084	0.80609
2522.56227	0.80536
2520.63371	0.80443
2518.70514	0.80307
2516.77658	0.80132
2514.84802	0.79953
2512.91945	0.79801
2510.99089	0.79673
2509.06232	0.79527
2507.13376	0.79370
2505.20519	0.79223
2503.27663	0.79071
2501.34806	0.78948
2499.41950	0.78870
2497.49094	0.78804
2495.56237	0.78726
2493.63381	0.78629
2491.70524	0.78529
2489.77668	0.78463
2487.84811	0.78433
2485.91955	0.78401
2483.99098	0.78318
2482.06242	0.78190
2480.13386	0.78081
2478.20529	0.78035
2476.27673	0.78031
2474.34816	0.77996
2472.41960	0.77901
2470.49103	0.77823
2468.56247	0.77778
2466.63391	0.77708
2464.70534	0.77632
2462.77678	0.77576
2460.84821	0.77507
2458.91965	0.77428
2456.99108	0.77342
2455.06252	0.77252
2453.13395	0.77185
2451.20539	0.77112
2449.27683	0.77002
2447.34826	0.76918
2445.41970	0.76854
2443.49113	0.76743
2441.56257	0.76620
2439.63400	0.76518
2437.70544	0.76420
2435.77687	0.76344
2433.84831	0.76304
2431.91975	0.76286
2429.99118	0.76272
2428.06262	0.76268
2426.13405	0.76289
2424.20549	0.76331
2422.27692	0.76386
2420.34836	0.76437
2418.41979	0.76453
2416.49123	0.76410
2414.56267	0.76353
2412.63410	0.76333
2410.70554	0.76338
2408.77697	0.76330
2406.84841	0.76289
2404.91984	0.76198
2402.99128	0.76042
2401.06271	0.75861
2399.13415	0.75719
2397.20559	0.75624
2395.27702	0.75516
2393.34846	0.75330
2391.41989	0.75090
2389.49133	0.74876
2387.56276	0.74729
2385.63420	0.74613
2383.70563	0.74473
2381.77707	0.74329
2379.84851	0.74259
2377.91994	0.74272
2375.99138	0.74312
2374.06281	0.74360
2372.13425	0.74421
2370.20568	0.74605
2368.27712	0.75032
2366.34855	0.75502
2364.41999	0.75820
2362.49143	0.76083
2360.56286	0.76363
2358.63430	0.76517
2356.70573	0.76290
2354.77717	0.75897
2352.84860	0.75701
2350.92004	0.75565
2348.99147	0.75406
2347.06291	0.75382
2345.13435	0.75576
2343.20578	0.75823
2341.27722	0.76060
2339.34865	0.76366
2337.42009	0.76607
2335.49152	0.76588
2333.56296	0.76290
2331.63440	0.75925
2329.70583	0.75703
2327.77727	0.75579
2325.84870	0.75425
2323.92014	0.75197
2321.99157	0.74869
2320.06301	0.74557
2318.13444	0.74362
2316.20588	0.74175
2314.27732	0.73979
2312.34875	0.73856
2310.42019	0.73773
2308.49162	0.73674
2306.56306	0.73549
2304.63449	0.73395
2302.70593	0.73243
2300.77736	0.73141
2298.84880	0.73095
2296.92024	0.73087
2294.99167	0.73109
2293.06311	0.73129
2291.13454	0.73110
2289.20598	0.73058
2287.27741	0.72998
2285.34885	0.72937
2283.42028	0.72872
2281.49172	0.72804
2279.56316	0.72751
2277.63459	0.72708
2275.70603	0.72643
2273.77746	0.72527
2271.84890	0.72347
2269.92033	0.72146
2267.99177	0.71996
2266.06320	0.71884
2264.13464	0.71733
2262.20608	0.71561
2260.27751	0.71443
2258.34895	0.71379
2256.42038	0.71321
2254.49182	0.71245
2252.56325	0.71180
2250.63469	0.71158
2248.70612	0.71168
2246.77756	0.71194
2244.84900	0.71211
2242.92043	0.71217
2240.99187	0.71264
2239.06330	0.71365
2237.13474	0.71473
2235.20617	0.71552
2233.27761	0.71602
2231.34904	0.71644
2229.42048	0.71677
2227.49192	0.71690
2225.56335	0.71686
2223.63479	0.71668
2221.70622	0.71641
2219.77766	0.71575
2217.84909	0.71466
2215.92053	0.71378
2213.99196	0.71322
2212.06340	0.71243
2210.13484	0.71106
2208.20627	0.70948
2206.27771	0.70848
2204.34914	0.70803
2202.42058	0.70710
2200.49201	0.70588
2198.56345	0.70527
2196.63488	0.70480
2194.70632	0.70391
2192.77776	0.70317
2190.84919	0.70284
2188.92063	0.70256
2186.99206	0.70220
2185.06350	0.70201
2183.13493	0.70204
2181.20637	0.70203
2179.27781	0.70183
2177.34924	0.70171
2175.42068	0.70181
2173.49211	0.70181
2171.56355	0.70155
2169.63498	0.70090
2167.70642	0.69970
2165.77785	0.69850
2163.84929	0.69764
2161.92073	0.69681
2159.99216	0.69579
2158.06360	0.69448
2156.13503	0.69319
2154.20647	0.69221
2152.27790	0.69122
2150.34934	0.69009
2148.42077	0.68905
2146.49221	0.68802
2144.56365	0.68696
2142.63508	0.68630
2140.70652	0.68615
2138.77795	0.68617
2136.84939	0.68622
2134.92082	0.68633
2132.99226	0.68628
2131.06369	0.68601
2129.13513	0.68600
2127.20657	0.68619
2125.27800	0.68601
2123.34944	0.68544
2121.42087	0.68492
2119.49231	0.68462
2117.56374	0.68418
2115.63518	0.68359
2113.70661	0.68336
2111.77805	0.68333
2109.84949	0.68277
2107.92092	0.68160
2105.99236	0.68034
2104.06379	0.67949
2102.13523	0.67877
2100.20666	0.67765
2098.27810	0.67618
2096.34953	0.67464
2094.42097	0.67305
2092.49241	0.67141
2090.56384	0.66982
2088.63528	0.66841
2086.70671	0.66734
2084.77815	0.66650
2082.84958	0.66549
2080.92102	0.66436
2078.99245	0.66358
2077.06389	0.66309
2075.13533	0.66250
2073.20676	0.66178
2071.27820	0.66104
2069.34963	0.66031
2067.42107	0.65943
2065.49250	0.65853
2063.56394	0.65784
2061.63537	0.65724
2059.70681	0.65669
2057.77825	0.65613
2055.84968	0.65524
2053.92112	0.65404
2051.99255	0.65274
2050.06399	0.65140
2048.13542	0.65011
2046.20686	0.64882
2044.27830	0.64726
2042.34973	0.64552
2040.42117	0.64390
2038.49260	0.64239
2036.56404	0.64099
2034.63547	0.63985
2032.70691	0.63876
2030.77834	0.63744
2028.84978	0.63617
2026.92122	0.63529
2024.99265	0.63471
2023.06409	0.63428
2021.13552	0.63382
2019.20696	0.63333
2017.27839	0.63287
2015.34983	0.63223
2013.42126	0.63138
2011.49270	0.63061
2009.56414	0.63005
2007.63557	0.62953
2005.70701	0.62883
2003.77844	0.62796
2001.84988	0.62704
1999.92131	0.62610
1997.99275	0.62513
1996.06418	0.62391
1994.13562	0.62241
1992.20706	0.62111
1990.27849	0.62003
1988.34993	0.61866
1986.42136	0.61695
1984.49280	0.61497
1982.56423	0.61290
1980.63567	0.61089
1978.70710	0.60892
1976.77854	0.60710
1974.84998	0.60568
1972.92141	0.60448
1970.99285	0.60303
1969.06428	0.60133
1967.13572	0.59982
1965.20715	0.59864
1963.27859	0.59766
1961.35002	0.59697
1959.42146	0.59649
1957.49290	0.59603
1955.56433	0.59550
1953.63577	0.59478
1951.70720	0.59383
1949.77864	0.59292
1947.85007	0.59224
1945.92151	0.59165
1943.99294	0.59117
1942.06438	0.59100
1940.13582	0.59054
1938.20725	0.58961
1936.27869	0.58886
1934.35012	0.58844
1932.42156	0.58803
1930.49299	0.58754
1928.56443	0.58699
1926.63586	0.58617
1924.70730	0.58533
1922.77874	0.58495
1920.85017	0.58462
1918.92161	0.58450
1916.99304	0.58481
1915.06448	0.58454
1913.13591	0.58386
1911.20735	0.58354
1909.27878	0.58368
1907.35022	0.58384
1905.42166	0.58364
1903.49309	0.58336
1901.56453	0.58306
1899.63596	0.58238
1897.70740	0.58150
1895.77883	0.58098
1893.85027	0.58028
1891.92171	0.57882
1889.99314	0.57727
1888.06458	0.57587
1886.13601	0.57425
1884.20745	0.57244
1882.27888	0.57030
1880.35032	0.56778
1878.42175	0.56505
1876.49319	0.56226
1874.56463	0.55941
1872.63606	0.55635
1870.70750	0.55313
1868.77893	0.55061
1866.85037	0.54857
1864.92180	0.54590
1862.99324	0.54316
1861.06467	0.54094
1859.13611	0.53913
1857.20755	0.53745
1855.27898	0.53592
1853.35042	0.53477
1851.42185	0.53398
1849.49329	0.53350
1847.56472	0.53327
1845.63616	0.53374
1843.70759	0.53538
1841.77903	0.53646
1839.85047	0.53675
1837.92190	0.53757
1835.99334	0.53878
1834.06477	0.53927
1832.13621	0.53949
1830.20764	0.54111
1828.27908	0.54320
1826.35051	0.54405
1824.42195	0.54473
1822.49339	0.54506
1820.56482	0.54464
1818.63626	0.54407
1816.70769	0.54353
1814.77913	0.54273
1812.85056	0.54181
1810.92200	0.54115
1808.99343	0.54025
1807.06487	0.53880
1805.13631	0.53724
1803.20774	0.53596
1801.27918	0.53539
1799.35061	0.53513
1797.42205	0.53450
1795.49348	0.53376
1793.56492	0.53405
1791.63635	0.53648
1789.70779	0.53840
1787.77923	0.53909
1785.85066	0.54046
1783.92210	0.54279
1781.99353	0.54559
1780.06497	0.54893
1778.13640	0.55165
1776.20784	0.55320
1774.27927	0.55558
1772.35071	0.56112
1770.42215	0.56652
1768.49358	0.56940
1766.56502	0.57143
1764.63645	0.57293
1762.70789	0.57551
1760.77932	0.57955
1758.85076	0.58290
1756.92220	0.58677
1754.99363	0.59059
1753.06507	0.59376
1751.13650	0.59980
1749.20794	0.60979
1747.27937	0.61843
1745.35081	0.62464
1743.42224	0.63011
1741.49368	0.63552
1739.56512	0.64076
1737.63655	0.64377
1735.70799	0.64571
1733.77942	0.65106
1731.85086	0.65602
1729.92229	0.65850
1727.99373	0.66131
1726.06516	0.66475
1724.13660	0.66967
1722.20804	0.67491
1720.27947	0.67961
1718.35091	0.68857
1716.42234	0.70553
1714.49378	0.71872
1712.56521	0.72771
1710.63665	0.73712
1708.70808	0.74810
1706.77952	0.76433
1704.85096	0.78573
1702.92239	0.80388
1700.99383	0.82725
1699.06526	0.86391
1697.13670	0.89782
1695.20813	0.92962
1693.27957	0.95126
1691.35100	0.96710
1689.42244	0.98621
1687.49388	1.00323
1685.56531	1.02074
1683.63675	1.05131
1681.70818	1.07360
1679.77962	1.08562
1677.85105	1.09727
1675.92249	1.11221
1673.99392	1.12739
1672.06536	1.13837
1670.13680	1.15388
1668.20823	1.17248
1666.27967	1.18188
1664.35110	1.19057
1662.42254	1.20611
1660.49397	1.22031
1658.56541	1.22782
1656.63684	1.23156
1654.70828	1.23562
1652.77972	1.24414
1650.85115	1.24636
1648.92259	1.24508
1646.99402	1.24475
1645.06546	1.24433
1643.13689	1.24278
1641.20833	1.24119
1639.27976	1.23938
1637.35120	1.23820
1635.42264	1.23916
1633.49407	1.23748
1631.56551	1.23283
1629.63694	1.22736
1627.70838	1.22130
1625.77981	1.21259
1623.85125	1.19980
1621.92269	1.18621
1619.99412	1.17556
1618.06556	1.16380
1616.13699	1.14567
1614.20843	1.12809
1612.27986	1.11339
1610.35130	1.09885
1608.42273	1.08500
1606.49417	1.07368
1604.56561	1.06542
1602.63704	1.05950
1600.70848	1.05546
1598.77991	1.05322
1596.85135	1.05237
1594.92278	1.05250
1592.99422	1.05483
1591.06565	1.06027
1589.13709	1.06747
1587.20853	1.07558
1585.27996	1.08544
1583.35140	1.09706
1581.42283	1.10813
1579.49427	1.11677
1577.56570	1.12756
1575.63714	1.14579
1573.70857	1.15827
1571.78001	1.16499
1569.85145	1.17488
1567.92288	1.18545
1565.99432	1.19237
1564.06575	1.19786
1562.13719	1.20152
1560.20862	1.20748
1558.28006	1.22120
1556.35149	1.22515
1554.42293	1.22627
1552.49437	1.22835
1550.56580	1.23018
1548.63724	1.23036
1546.70867	1.22822
1544.78011	1.22535
1542.85154	1.22438
1540.92298	1.22544
1538.99441	1.22109
1537.06585	1.21528
1535.13729	1.21086
1533.20872	1.20703
1531.28016	1.20289
1529.35159	1.19864
1527.42303	1.19475
1525.49446	1.19188
1523.56590	1.19100
1521.63733	1.19153
1519.70877	1.18921
1517.78021	1.18296
1515.85164	1.17653
1513.92308	1.16935
1511.99451	1.15853
1510.06595	1.14599
1508.13738	1.13225
1506.20882	1.11283
1504.28025	1.09774
1502.35169	1.08560
1500.42313	1.07302
1498.49456	1.05937
1496.56600	1.04425
1494.63743	1.03035
1492.70887	1.01905
1490.78030	1.00761
1488.85174	0.99530
1486.92317	0.98578
1484.99461	0.97854
1483.06605	0.97304
1481.13748	0.96945
1479.20892	0.96724
1477.28035	0.96695
1475.35179	0.97056
1473.42322	0.98102
1471.49466	0.99396
1469.56610	1.00015
1467.63753	1.00313
1465.70897	1.00801
1463.78040	1.01437
1461.85184	1.01714
1459.92327	1.01772
1457.99471	1.02152
1456.06614	1.02719
1454.13758	1.02712
1452.20902	1.02538
1450.28045	1.02378
1448.35189	1.02234
1446.42332	1.02066
1444.49476	1.01838
1442.56619	1.01551
1440.63763	1.01203
1438.70906	1.00770
1436.78050	1.00204
1434.85194	0.99603
1432.92337	0.99047
1430.99481	0.98474
1429.06624	0.97920
1427.13768	0.97513
1425.20911	0.97313
1423.28055	0.97230
1421.35198	0.97132
1419.42342	0.97194
1417.49486	0.97449
1415.56629	0.97490
1413.63773	0.97380
1411.70916	0.97294
1409.78060	0.97281
1407.85203	0.97327
1405.92347	0.97452
1403.99490	0.97592
1402.06634	0.97633
1400.13778	0.97693
1398.20921	0.97874
1396.28065	0.98119
1394.35208	0.98445
1392.42352	0.98804
1390.49495	0.99185
1388.56639	0.99877
1386.63782	1.01044
1384.70926	1.02177
1382.78070	1.03002
1380.85213	1.03528
1378.92357	1.03624
1376.99500	1.03264
1375.06644	1.02513
1373.13787	1.01484
1371.20931	1.00435
1369.28074	0.99393
1367.35218	0.98351
1365.42362	0.97428
1363.49505	0.96663
1361.56649	0.96109
1359.63792	0.95770
1357.70936	0.95596
1355.78079	0.95572
1353.85223	0.95634
1351.92366	0.95722
1349.99510	0.95820
1348.06654	0.95900
1346.13797	0.95989
1344.20941	0.96158
1342.28084	0.96376
1340.35228	0.96609
1338.42371	0.96893
1336.49515	0.97285
1334.56659	0.97828
1332.63802	0.98482
1330.70946	0.99136
1328.78089	0.99681
1326.85233	1.00056
1324.92376	1.00275
1322.99520	1.00400
1321.06663	1.00544
1319.13807	1.00815
1317.20951	1.01146
1315.28094	1.01377
1313.35238	1.01480
1311.42381	1.01524
1309.49525	1.01563
1307.56668	1.01573
1305.63812	1.01523
1303.70955	1.01453
1301.78099	1.01419
1299.85243	1.01392
1297.92386	1.01301
1295.99530	1.01168
1294.06673	1.01122
1292.13817	1.01236
1290.20960	1.01460
1288.28104	1.01699
1286.35247	1.01901
1284.42391	1.02056
1282.49535	1.02160
1280.56678	1.02243
1278.63822	1.02336
1276.70965	1.02431
1274.78109	1.02554
1272.85252	1.02760
1270.92396	1.03090
1268.99539	1.03515
1267.06683	1.03906
1265.13827	1.04176
1263.20970	1.04294
1261.28114	1.04249
1259.35257	1.04097
1257.42401	1.03907
1255.49544	1.03736
1253.56688	1.03648
1251.63831	1.03610
1249.70975	1.03544
1247.78119	1.03419
1245.85262	1.03260
1243.92406	1.03137
1241.99549	1.03029
1240.06693	1.02817
1238.13836	1.02502
1236.20980	1.02195
1234.28123	1.01907
1232.35267	1.01572
1230.42411	1.01147
1228.49554	1.00630
1226.56698	1.00086
1224.63841	0.99577
1222.70985	0.99107
1220.78128	0.98695
1218.85272	0.98375
1216.92415	0.98155
1214.99559	0.98066
1213.06703	0.98199
1211.13846	0.98581
1209.20990	0.99017
1207.28133	0.99266
1205.35277	0.99294
1203.42420	0.99193
1201.49564	0.98976
1199.56708	0.98569
1197.63851	0.98016
1195.70995	0.97505
1193.78138	0.97122
1191.85282	0.96799
1189.92425	0.96504
1187.99569	0.96262
1186.06712	0.96088
1184.13856	0.96038
1182.21000	0.96134
1180.28143	0.96300
1178.35287	0.96498
1176.42430	0.96789
1174.49574	0.97209
1172.56717	0.97706
1170.63861	0.98244
1168.71004	0.98843
1166.78148	0.99487
1164.85292	1.00177
1162.92435	1.00891
1160.99579	1.01480
1159.06722	1.01815
1157.13866	1.01869
1155.21009	1.01588
1153.28153	1.00959
1151.35296	1.00115
1149.42440	0.99244
1147.49584	0.98431
1145.56727	0.97673
1143.63871	0.97037
1141.71014	0.96641
1139.78158	0.96509
1137.85301	0.96604
1135.92445	0.96902
1133.99588	0.97382
1132.06732	0.97990
1130.13876	0.98687
1128.21019	0.99484
1126.28163	1.00348
1124.35306	1.01152
1122.42450	1.01809
1120.49593	1.02374
1118.56737	1.02842
1116.63880	1.03030
1114.71024	1.02848
1112.78168	1.02415
1110.85311	1.01874
1108.92455	1.01316
1106.99598	1.00807
1105.06742	1.00350
1103.13885	0.99927
1101.21029	0.99610
1099.28172	0.99507
1097.35316	0.99636
1095.42460	0.99941
1093.49603	1.00428
1091.56747	1.01152
1089.63890	1.02035
1087.71034	1.02930
1085.78177	1.03873
1083.85321	1.04928
1081.92464	1.05860
1079.99608	1.06455
1078.06752	1.06874
1076.13895	1.07215
1074.21039	1.07319
1072.28182	1.07127
1070.35326	1.06704
1068.42469	1.06107
1066.49613	1.05401
1064.56756	1.04593
1062.63900	1.03627
1060.71044	1.02537
1058.78187	1.01445
1056.85331	1.00400
1054.92474	0.99368
1052.99618	0.98407
1051.06761	0.97651
1049.13905	0.97140
1047.21049	0.96809
1045.28192	0.96628
1043.35336	0.96728
1041.42479	0.97194
1039.49623	0.97776
1037.56766	0.98147
1035.63910	0.98287
1033.71053	0.98342
1031.78197	0.98362
1029.85341	0.98291
1027.92484	0.98086
1025.99628	0.97758
1024.06771	0.97362
1022.13915	0.97037
1020.21058	0.96907
1018.28202	0.96872
1016.35345	0.96735
1014.42489	0.96419
1012.49633	0.95870
1010.56776	0.95003
1008.63920	0.93868
1006.71063	0.92621
1004.78207	0.91412
1002.85350	0.90351
1000.92494	0.89424
998.99637	0.88564
997.06781	0.87782
995.13925	0.87064
993.21068	0.86312
991.28212	0.85472
989.35355	0.84575
987.42499	0.83650
985.49642	0.82740
983.56786	0.81962
981.63929	0.81424
979.71073	0.81103
977.78217	0.80866
975.85360	0.80592
973.92504	0.80224
971.99647	0.79722
970.06791	0.79090
968.13934	0.78425
966.21078	0.77845
964.28221	0.77455
962.35365	0.77377
960.42509	0.77722
958.49652	0.78437
956.56796	0.79196
954.63939	0.79597
952.71083	0.79480
950.78226	0.78950
948.85370	0.78188
946.92513	0.77343
944.99657	0.76530
943.06801	0.75847
941.13944	0.75340
939.21088	0.74932
937.28231	0.74551
935.35375	0.74206
933.42518	0.73898
931.49662	0.73623
929.56805	0.73421
927.63949	0.73323
925.71093	0.73319
923.78236	0.73415
921.85380	0.73609
919.92523	0.73793
917.99667	0.73866
916.06810	0.73899
914.13954	0.74021
912.21098	0.74262
910.28241	0.74592
908.35385	0.75028
906.42528	0.75563
904.49672	0.76099
902.56815	0.76585
900.63959	0.77037
898.71102	0.77430
896.78246	0.77717
894.85390	0.77876
892.92533	0.77878
890.99677	0.77719
889.06820	0.77466
887.13964	0.77159
885.21107	0.76758
883.28251	0.76271
881.35394	0.75751
879.42538	0.75191
877.49682	0.74606
875.56825	0.74050
873.63969	0.73498
871.71112	0.72920
869.78256	0.72349
867.85399	0.71828
865.92543	0.71382
863.99686	0.71022
862.06830	0.70773
860.13974	0.70692
858.21117	0.70775
856.28261	0.70920
854.35404	0.71083
852.42548	0.71314
850.49691	0.71652
848.56835	0.72070
846.63978	0.72531
844.71122	0.73026
842.78266	0.73513
840.85409	0.73946
838.92553	0.74354
836.99696	0.74773
835.06840	0.75238
833.13983	0.75738
831.21127	0.76157
829.28270	0.76419
827.35414	0.76588
825.42558	0.76669
823.49701	0.76583
821.56845	0.76390
819.63988	0.76192
817.71132	0.75917
815.78275	0.75467
813.85419	0.74871
811.92562	0.74195
809.99706	0.73467
808.06850	0.72740
806.13993	0.72044
804.21137	0.71360
802.28280	0.70705
800.35424	0.70099
798.42567	0.69567
796.49711	0.69168
794.56854	0.68930
792.63998	0.68822
790.71142	0.68853
788.78285	0.69064
786.85429	0.69420
784.92572	0.69880
782.99716	0.70434
781.06859	0.71043
779.14003	0.71675
777.21147	0.72341
775.28290	0.73010
773.35434	0.73631
771.42577	0.74243
769.49721	0.74857
767.56864	0.75422
765.64008	0.75924
763.71151	0.76360
761.78295	0.76737
759.85439	0.77051
757.92582	0.77281
755.99726	0.77459
754.06869	0.77611
752.14013	0.77670
750.21156	0.77573
748.28300	0.77383
746.35443	0.77183
744.42587	0.76951
742.49731	0.76625
740.56874	0.76215
738.64018	0.75809
736.71161	0.75456
734.78305	0.75131
732.85448	0.74842
730.92592	0.74622
728.99735	0.74425
727.06879	0.74206
725.14023	0.74046
723.21166	0.74052
721.28310	0.74169
719.35453	0.74248
717.42597	0.74247
715.49740	0.74269
713.56884	0.74399
711.64027	0.74592
709.71171	0.74784
707.78315	0.75038
705.85458	0.75393
703.92602	0.75782
701.99745	0.76124
700.06889	0.76332
698.14032	0.76430
696.21176	0.76533
694.28319	0.76631
692.35463	0.76662
690.42607	0.76603
688.49750	0.76411
686.56894	0.76078
684.64037	0.75623
682.71181	0.75086
680.78324	0.74607
678.85468	0.74205
676.92611	0.73774
674.99755	0.73336
673.06899	0.72985
671.14042	0.72757
669.21186	0.72592
667.28329	0.72305
665.35473	0.71971
663.42616	0.71725
661.49760	0.71586
659.56903	0.71455
657.64047	0.71234
655.71191	0.71019
653.78334	0.70853
651.85478	0.70693
649.92621	0.70580
647.99765	0.70546
646.06908	0.70621
644.14052	0.70848
642.21195	0.71234
640.28339	0.71803
638.35483	0.72505
636.42626	0.73190
634.49770	0.73726
632.56913	0.74173
630.64057	0.74675
628.71200	0.75129
626.78344	0.75438
624.85488	0.75732
622.92631	0.76053
620.99775	0.76270
619.06918	0.76340
617.14062	0.76303
615.21205	0.76121
613.28349	0.75768
611.35492	0.75265
609.42636	0.74691
607.49780	0.74159
605.56923	0.73596
603.64067	0.72844
601.71210	0.71993
599.78354	0.71276
