3997.91406	1.10388
3995.98550	1.10374
3994.05693	1.10393
3992.12837	1.10363
3990.19980	1.10239
3988.27124	1.10114
3986.34268	1.10069
3984.41411	1.10074
3982.48555	1.10046
3980.55698	1.09896
3978.62842	1.09740
3976.69985	1.09697
3974.77129	1.09669
3972.84272	1.09726
3970.91416	1.09857
3968.98560	1.09770
3967.05703	1.09505
3965.12847	1.09401
3963.19990	1.09556
3961.27134	1.09686
3959.34277	1.09561
3957.41421	1.09330
3955.48564	1.09127
3953.55708	1.08987
3951.62852	1.08972
3949.69995	1.09032
3947.77139	1.08945
3945.84282	1.08708
3943.91426	1.08662
3941.98569	1.08830
3940.05713	1.08812
3938.12856	1.08645
3936.20000	1.08601
3934.27144	1.08716
3932.34287	1.08945
3930.41431	1.09055
3928.48574	1.08868
3926.55718	1.08695
3924.62861	1.08682
3922.70005	1.08571
3920.77148	1.08338
3918.84292	1.08240
3916.91436	1.08497
3914.98579	1.08793
3913.05723	1.08766
3911.12866	1.08564
3909.20010	1.08307
3907.27153	1.08018
3905.34297	1.07940
3903.41440	1.08225
3901.48584	1.08596
3899.55728	1.08863
3897.62871	1.08667
3895.70015	1.08006
3893.77158	1.07496
3891.84302	1.07516
3889.91445	1.07381
3887.98589	1.06830
3886.05733	1.06476
3884.12876	1.06490
3882.20020	1.06624
3880.27163	1.06786
3878.34307	1.06510
3876.41450	1.06066
3874.48594	1.05941
3872.55737	1.05935
3870.62881	1.06179
3868.70025	1.06729
3866.77168	1.06802
3864.84312	1.06557
3862.91455	1.06228
3860.98599	1.05756
3859.05742	1.05363
3857.12886	1.05116
3855.20029	1.05114
3853.27173	1.05960
3851.34317	1.06268
3849.41460	1.05650
3847.48604	1.05151
3845.55747	1.05010
3843.62891	1.04957
3841.70034	1.04933
3839.77178	1.05232
3837.84321	1.05466
3835.91465	1.05197
3833.98609	1.04983
3832.05752	1.04885
3830.12896	1.04624
3828.20039	1.04364
3826.27183	1.04046
3824.34326	1.03432
3822.41470	1.03264
3820.48613	1.04076
3818.55757	1.04432
3816.62901	1.04350
3814.70044	1.04020
3812.77188	1.03429
3810.84331	1.03020
3808.91475	1.03005
3806.98618	1.03338
3805.05762	1.03492
3803.12905	1.03539
3801.20049	1.03723
3799.27193	1.03592
3797.34336	1.03520
3795.41480	1.03562
3793.48623	1.03349
3791.55767	1.03131
3789.62910	1.03106
3787.70054	1.03162
3785.77197	1.03241
3783.84341	1.03172
3781.91485	1.02932
3779.98628	1.02858
3778.05772	1.02904
3776.12915	1.02832
3774.20059	1.02740
3772.27202	1.02702
3770.34346	1.02802
3768.41489	1.02844
3766.48633	1.02629
3764.55777	1.02286
3762.62920	1.01971
3760.70064	1.01976
3758.77207	1.02256
3756.84351	1.02131
3754.91494	1.01691
3752.98638	1.01623
3751.05781	1.02283
3749.12925	1.02445
3747.20069	1.02089
3745.27212	1.02291
3743.34356	1.02653
3741.41499	1.02211
3739.48643	1.01446
3737.55786	1.00926
3735.62930	1.00992
3733.70074	1.01398
3731.77217	1.01576
3729.84361	1.01464
3727.91504	1.01291
3725.98648	1.01375
3724.05791	1.01733
3722.12935	1.02021
3720.20078	1.02102
3718.27222	1.02012
3716.34366	1.01752
3714.41509	1.01439
3712.48653	1.01544
3710.55796	1.02038
3708.62940	1.01879
3706.70083	1.01311
3704.77227	1.00879
3702.84370	1.00890
3700.91514	1.01122
3698.98658	1.01093
3697.05801	1.01052
3695.12945	1.01086
3693.20088	1.00918
3691.27232	1.00688
3689.34375	1.00898
3687.41519	1.01030
3685.48662	1.00710
3683.55806	1.00323
3681.62950	1.00083
3679.70093	0.99985
3677.77237	1.00120
3675.84380	1.00973
3673.91524	1.01571
3671.98667	1.01468
3670.05811	1.01833
3668.12954	1.02186
3666.20098	1.01985
3664.27242	1.01890
3662.34385	1.02063
3660.41529	1.02196
3658.48672	1.02318
3656.55816	1.02802
3654.62959	1.03193
3652.70103	1.03160
3650.77246	1.03524
3648.84390	1.04938
3646.91534	1.05621
3644.98677	1.05577
3643.05821	1.05670
3641.12964	1.06122
3639.20108	1.06771
3637.27251	1.07271
3635.34395	1.07481
3633.41538	1.07531
3631.48682	1.07683
3629.55826	1.08642
3627.62969	1.09796
3625.70113	1.09776
3623.77256	1.09575
3621.84400	1.09806
3619.91543	1.10604
3617.98687	1.11427
3616.05830	1.11698
3614.12974	1.11836
3612.20118	1.12070
3610.27261	1.12354
3608.34405	1.12747
3606.41548	1.13029
3604.48692	1.13059
3602.55835	1.13201
3600.62979	1.13871
3598.70123	1.14845
3596.77266	1.15536
3594.84410	1.15781
3592.91553	1.15608
3590.98697	1.15377
3589.05840	1.15754
3587.12984	1.16795
3585.20127	1.17355
3583.27271	1.17485
3581.34415	1.17727
3579.41558	1.18140
3577.48702	1.18696
3575.55845	1.19289
3573.62989	1.19623
3571.70132	1.19841
3569.77276	1.20497
3567.84419	1.21720
3565.91563	1.22427
3563.98707	1.22445
3562.05850	1.22686
3560.12994	1.23104
3558.20137	1.23457
3556.27281	1.23752
3554.34424	1.24089
3552.41568	1.24630
3550.48711	1.25125
3548.55855	1.25333
3546.62999	1.25633
3544.70142	1.26339
3542.77286	1.27059
3540.84429	1.27503
3538.91573	1.27833
3536.98716	1.28197
3535.05860	1.28617
3533.13003	1.29124
3531.20147	1.29795
3529.27291	1.30580
3527.34434	1.31224
3525.41578	1.31680
3523.48721	1.32134
3521.55865	1.32667
3519.63008	1.33182
3517.70152	1.33652
3515.77295	1.34161
3513.84439	1.34747
3511.91583	1.35412
3509.98726	1.36010
3508.05870	1.36340
3506.13013	1.36644
3504.20157	1.37377
3502.27300	1.38381
3500.34444	1.38985
3498.41587	1.39285
3496.48731	1.39748
3494.55875	1.40273
3492.63018	1.40683
3490.70162	1.41296
3488.77305	1.42109
3486.84449	1.42634
3484.91592	1.42918
3482.98736	1.43098
3481.05879	1.43084
3479.13023	1.43210
3477.20167	1.43428
3475.27310	1.43491
3473.34454	1.43787
3471.41597	1.44442
3469.48741	1.45070
3467.55884	1.45341
3465.63028	1.45180
3463.70171	1.45085
3461.77315	1.45627
3459.84459	1.46447
3457.91602	1.46644
3455.98746	1.46368
3454.05889	1.46514
3452.13033	1.47066
3450.20176	1.47551
3448.27320	1.48106
3446.34464	1.48742
3444.41607	1.49031
3442.48751	1.49046
3440.55894	1.49039
3438.63038	1.48835
3436.70181	1.48425
3434.77325	1.48222
3432.84468	1.48488
3430.91612	1.49151
3428.98756	1.49862
3427.05899	1.50288
3425.13043	1.50253
3423.20186	1.49757
3421.27330	1.49213
3419.34473	1.48998
3417.41617	1.49193
3415.48760	1.49632
3413.55904	1.49882
3411.63048	1.49985
3409.70191	1.50241
3407.77335	1.50381
3405.84478	1.50104
3403.91622	1.49753
3401.98765	1.49712
3400.05909	1.49795
3398.13052	1.49898
3396.20196	1.50172
3394.27340	1.50542
3392.34483	1.50881
3390.41627	1.51129
3388.48770	1.51304
3386.55914	1.51600
3384.63057	1.51948
3382.70201	1.51923
3380.77344	1.51722
3378.84488	1.51889
3376.91632	1.52187
3374.98775	1.52055
3373.05919	1.51645
3371.13062	1.51640
3369.20206	1.52089
3367.27349	1.52397
3365.34493	1.52534
3363.41636	1.52946
3361.48780	1.53518
3359.55924	1.53790
3357.63067	1.53820
3355.70211	1.53809
3353.77354	1.53711
3351.84498	1.53717
3349.91641	1.53937
3347.98785	1.54054
3346.05928	1.54006
3344.13072	1.54049
3342.20216	1.54111
3340.27359	1.54040
3338.34503	1.54092
3336.41646	1.54729
3334.48790	1.55778
3332.55933	1.56359
3330.63077	1.56249
3328.70220	1.55917
3326.77364	1.55803
3324.84508	1.56185
3322.91651	1.56741
3320.98795	1.57279
3319.05938	1.58045
3317.13082	1.58515
3315.20225	1.58366
3313.27369	1.58462
3311.34513	1.58992
3309.41656	1.59133
3307.48800	1.58895
3305.55943	1.59138
3303.63087	1.59717
3301.70230	1.59682
3299.77374	1.59514
3297.84517	1.60136
3295.91661	1.61052
3293.98805	1.61865
3292.05948	1.62589
3290.13092	1.62682
3288.20235	1.62108
3286.27379	1.61514
3284.34522	1.61326
3282.41666	1.61316
3280.48809	1.60831
3278.55953	1.59959
3276.63097	1.59428
3274.70240	1.59366
3272.77384	1.59285
3270.84527	1.58813
3268.91671	1.58127
3266.98814	1.57645
3265.05958	1.57372
3263.13101	1.57151
3261.20245	1.56967
3259.27389	1.56745
3257.34532	1.56520
3255.41676	1.56213
3253.48819	1.55529
3251.55963	1.54742
3249.63106	1.54240
3247.70250	1.53726
3245.77393	1.53079
3243.84537	1.52502
3241.91681	1.51791
3239.98824	1.51018
3238.05968	1.50596
3236.13111	1.50406
3234.20255	1.50175
3232.27398	1.49832
3230.34542	1.49262
3228.41685	1.48518
3226.48829	1.47919
3224.55973	1.47618
3222.63116	1.47358
3220.70260	1.46931
3218.77403	1.46561
3216.84547	1.46472
3214.91690	1.46268
3212.98834	1.45403
3211.05977	1.44426
3209.13121	1.44088
3207.20265	1.43938
3205.27408	1.43469
3203.34552	1.43026
3201.41695	1.42805
3199.48839	1.42598
3197.55982	1.42304
3195.63126	1.41852
3193.70269	1.41256
3191.77413	1.40749
3189.84557	1.40337
3187.91700	1.39876
3185.98844	1.39469
3184.05987	1.39189
3182.13131	1.38863
3180.20274	1.38331
3178.27418	1.37734
3176.34562	1.37295
3174.41705	1.37067
3172.48849	1.37074
3170.55992	1.36983
3168.63136	1.36354
3166.70279	1.35550
3164.77423	1.35048
3162.84566	1.34672
3160.91710	1.34279
3158.98854	1.33972
3157.05997	1.33679
3155.13141	1.33261
3153.20284	1.32718
3151.27428	1.32292
3149.34571	1.32168
3147.41715	1.32168
3145.48858	1.32109
3143.56002	1.32091
3141.63146	1.32272
3139.70289	1.32398
3137.77433	1.32041
3135.84576	1.31433
3133.91720	1.31146
3131.98863	1.31257
3130.06007	1.31425
3128.13150	1.31383
3126.20294	1.31250
3124.27438	1.31441
3122.34581	1.31921
3120.41725	1.31969
3118.48868	1.31404
3116.56012	1.30900
3114.63155	1.30727
3112.70299	1.30589
3110.77442	1.30439
3108.84586	1.30383
3106.91730	1.30323
3104.98873	1.30308
3103.06017	1.30421
3101.13160	1.30361
3099.20304	1.29978
3097.27447	1.29615
3095.34591	1.29558
3093.41734	1.29653
3091.48878	1.29458
3089.56022	1.28949
3087.63165	1.28619
3085.70309	1.28625
3083.77452	1.28671
3081.84596	1.28534
3079.91739	1.28211
3077.98883	1.27840
3076.06026	1.27563
3074.13170	1.27526
3072.20314	1.27627
3070.27457	1.27445
3068.34601	1.26978
3066.41744	1.26454
3064.48888	1.25962
3062.56031	1.25829
3060.63175	1.25915
3058.70318	1.25637
3056.77462	1.25120
3054.84606	1.24741
3052.91749	1.24349
3050.98893	1.23799
3049.06036	1.23235
3047.13180	1.22770
3045.20323	1.22393
3043.27467	1.22013
3041.34610	1.21517
3039.41754	1.21008
3037.48898	1.20706
3035.56041	1.20604
3033.63185	1.20496
3031.70328	1.20245
3029.77472	1.19912
3027.84615	1.19629
3025.91759	1.19428
3023.98903	1.19307
3022.06046	1.19181
3020.13190	1.18891
3018.20333	1.18536
3016.27477	1.18343
3014.34620	1.18308
3012.41764	1.18290
3010.48907	1.18195
3008.56051	1.18031
3006.63195	1.17860
3004.70338	1.17610
3002.77482	1.17263
3000.84625	1.17067
2998.91769	1.17086
2996.98912	1.17089
2995.06056	1.17044
2993.13199	1.17079
2991.20343	1.17155
2989.27487	1.17202
2987.34630	1.17360
2985.41774	1.17687
2983.48917	1.18024
2981.56061	1.18380
2979.63204	1.18834
2977.70348	1.19296
2975.77491	1.19703
2973.84635	1.20194
2971.91779	1.21044
2969.98922	1.22161
2968.06066	1.23049
2966.13209	1.23597
2964.20353	1.24104
2962.27496	1.24611
2960.34640	1.24954
2958.41783	1.25054
2956.48927	1.24863
2954.56071	1.24413
2952.63214	1.23896
2950.70358	1.23510
2948.77501	1.23384
2946.84645	1.23638
2944.91788	1.24199
2942.98932	1.24853
2941.06075	1.25640
2939.13219	1.26643
2937.20363	1.27654
2935.27506	1.28531
2933.34650	1.29500
2931.41793	1.30707
2929.48937	1.31866
2927.56080	1.32757
2925.63224	1.33588
2923.70367	1.34649
2921.77511	1.35917
2919.84655	1.36804
2917.91798	1.36503
2915.98942	1.34834
2914.06085	1.32390
2912.13229	1.29876
2910.20372	1.27614
2908.27516	1.25724
2906.34659	1.24335
2904.41803	1.23332
2902.48947	1.22546
2900.56090	1.22007
2898.63234	1.21642
2896.70377	1.21311
2894.77521	1.20947
2892.84664	1.20556
2890.91808	1.20192
2888.98952	1.19804
2887.06095	1.19366
2885.13239	1.18938
2883.20382	1.18610
2881.27526	1.18483
2879.34669	1.18544
2877.41813	1.18679
2875.48956	1.18700
2873.56100	1.18504
2871.63244	1.18149
2869.70387	1.17667
2867.77531	1.17077
2865.84674	1.16529
2863.91818	1.16272
2861.98961	1.16421
2860.06105	1.16912
2858.13248	1.17709
2856.20392	1.18810
2854.27536	1.20118
2852.34679	1.21425
2850.41823	1.22194
2848.48966	1.21410
2846.56110	1.18807
2844.63253	1.15619
2842.70397	1.13020
2840.77540	1.11240
2838.84684	1.10133
2836.91828	1.09419
2834.98971	1.08724
2833.06115	1.07965
2831.13258	1.07402
2829.20402	1.07141
2827.27545	1.06908
2825.34689	1.06499
2823.41832	1.06068
2821.48976	1.05716
2819.56120	1.05316
2817.63263	1.04890
2815.70407	1.04594
2813.77550	1.04375
2811.84694	1.04082
2809.91837	1.03726
2807.98981	1.03452
2806.06124	1.03285
2804.13268	1.03108
2802.20412	1.02907
2800.27555	1.02684
2798.34699	1.02402
2796.41842	1.02120
2794.48986	1.01887
2792.56129	1.01767
2790.63273	1.01768
2788.70416	1.01753
2786.77560	1.01686
2784.84704	1.01625
2782.91847	1.01504
2780.98991	1.01326
2779.06134	1.01211
2777.13278	1.01146
2775.20421	1.01041
2773.27565	1.00858
2771.34708	1.00638
2769.41852	1.00496
2767.48996	1.00421
2765.56139	1.00318
2763.63283	1.00187
2761.70426	1.00059
2759.77570	0.99949
2757.84713	0.99871
2755.91857	0.99842
2753.99001	0.99803
2752.06144	0.99672
2750.13288	0.99532
2748.20431	0.99446
2746.27575	0.99345
2744.34718	0.99232
2742.41862	0.99175
2740.49005	0.99166
2738.56149	0.99173
2736.63293	0.99186
2734.70436	0.99165
2732.77580	0.99094
2730.84723	0.98991
2728.91867	0.98863
2726.99010	0.98764
2725.06154	0.98760
2723.13297	0.98764
2721.20441	0.98662
2719.27585	0.98500
2717.34728	0.98369
2715.41872	0.98259
2713.49015	0.98116
2711.56159	0.97939
2709.63302	0.97740
2707.70446	0.97471
2705.77589	0.97123
2703.84733	0.96804
2701.91877	0.96563
2699.99020	0.96345
2698.06164	0.96166
2696.13307	0.96005
2694.20451	0.95771
2692.27594	0.95520
2690.34738	0.95350
2688.41881	0.95251
2686.49025	0.95172
2684.56169	0.95068
2682.63312	0.94956
2680.70456	0.94844
2678.77599	0.94720
2676.84743	0.94666
2674.91886	0.94705
2672.99030	0.94737
2671.06173	0.94730
2669.13317	0.94704
2667.20461	0.94639
2665.27604	0.94544
2663.34748	0.94486
2661.41891	0.94467
2659.49035	0.94430
2657.56178	0.94369
2655.63322	0.94300
2653.70465	0.94203
2651.77609	0.94039
2649.84753	0.93808
2647.91896	0.93582
2645.99040	0.93407
2644.06183	0.93253
2642.13327	0.93024
2640.20470	0.92678
2638.27614	0.92366
2636.34757	0.92209
2634.41901	0.92060
2632.49045	0.91798
2630.56188	0.91552
2628.63332	0.91406
2626.70475	0.91290
2624.77619	0.91150
2622.84762	0.90991
2620.91906	0.90835
2618.99049	0.90724
2617.06193	0.90709
2615.13337	0.90766
2613.20480	0.90808
2611.27624	0.90781
2609.34767	0.90736
2607.41911	0.90794
2605.49054	0.90935
2603.56198	0.91039
2601.63342	0.91093
2599.70485	0.91154
2597.77629	0.91225
2595.84772	0.91282
2593.91916	0.91309
2591.99059	0.91318
2590.06203	0.91364
2588.13346	0.91408
2586.20490	0.91347
2584.27634	0.91218
2582.34777	0.91131
2580.41921	0.91101
2578.49064	0.91060
2576.56208	0.90934
2574.63351	0.90732
2572.70495	0.90513
2570.77638	0.90306
2568.84782	0.90119
2566.91926	0.89994
2564.99069	0.89904
2563.06213	0.89742
2561.13356	0.89525
2559.20500	0.89338
2557.27643	0.89139
2555.34787	0.88916
2553.41930	0.88766
2551.49074	0.88712
2549.56218	0.88689
2547.63361	0.88628
2545.70505	0.88534
2543.77648	0.88509
2541.84792	0.88590
2539.91935	0.88652
2537.99079	0.88598
2536.06222	0.88505
2534.13366	0.88496
2532.20510	0.88590
2530.27653	0.88696
2528.34797	0.88730
2526.41940	0.88701
2524.49084	0.88652
2522.56227	0.88634
2520.63371	0.88644
2518.70514	0.88609
2516.77658	0.88530
2514.84802	0.88453
2512.91945	0.88356
2510.99089	0.88196
2509.06232	0.88005
2507.13376	0.87848
2505.20519	0.87731
2503.27663	0.87622
2501.34806	0.87466
2499.41950	0.87268
2497.49094	0.87107
2495.56237	0.86965
2493.63381	0.86790
2491.70524	0.86616
2489.77668	0.86449
2487.84811	0.86261
2485.91955	0.86115
2483.99098	0.86066
2482.06242	0.86040
2480.13386	0.85974
2478.20529	0.85889
2476.27673	0.85824
2474.34816	0.85821
2472.41960	0.85868
2470.49103	0.85890
2468.56247	0.85887
2466.63391	0.85911
2464.70534	0.85983
2462.77678	0.86021
2460.84821	0.85917
2458.91965	0.85729
2456.99108	0.85608
2455.06252	0.85547
2453.13395	0.85469
2451.20539	0.85364
2449.27683	0.85231
2447.34826	0.85079
2445.41970	0.84934
2443.49113	0.84768
2441.56257	0.84572
2439.63400	0.84398
2437.70544	0.84230
2435.77687	0.84016
2433.84831	0.83796
2431.91975	0.83594
2429.99118	0.83368
2428.06262	0.83158
2426.13405	0.83060
2424.20549	0.83061
2422.27692	0.83062
2420.34836	0.82996
2418.41979	0.82880
2416.49123	0.82773
2414.56267	0.82716
2412.63410	0.82723
2410.70554	0.82774
2408.77697	0.82824
2406.84841	0.82869
2404.91984	0.82924
2402.99128	0.82976
2401.06271	0.82993
2399.13415	0.82956
2397.20559	0.82909
2395.27702	0.82923
2393.34846	0.82946
2391.41989	0.82893
2389.49133	0.82838
2387.56276	0.82847
2385.63420	0.82843
2383.70563	0.82806
2381.77707	0.82829
2379.84851	0.82959
2377.91994	0.83148
2375.99138	0.83361
2374.06281	0.83609
2372.13425	0.83869
2370.20568	0.84104
2368.27712	0.84381
2366.34855	0.84830
2364.41999	0.85294
2362.49143	0.85438
2360.56286	0.85292
2358.63430	0.84938
2356.70573	0.84374
2354.77717	0.83811
2352.84860	0.83302
2350.92004	0.82857
2348.99147	0.82602
2347.06291	0.82597
2345.13435	0.82926
2343.20578	0.83512
2341.27722	0.83885
2339.34865	0.83886
2337.42009	0.83766
2335.49152	0.83614
2333.56296	0.83447
2331.63440	0.83311
2329.70583	0.83233
2327.77727	0.83194
2325.84870	0.83080
2323.92014	0.82897
2321.99157	0.82713
2320.06301	0.82426
2318.13444	0.82022
2316.20588	0.81697
2314.27732	0.81492
2312.34875	0.81275
2310.42019	0.81039
2308.49162	0.80818
2306.56306	0.80556
2304.63449	0.80284
2302.70593	0.80098
2300.77736	0.79977
2298.84880	0.79837
2296.92024	0.79691
2294.99167	0.79585
2293.06311	0.79507
2291.13454	0.79441
2289.20598	0.79368
2287.27741	0.79275
2285.34885	0.79197
2283.42028	0.79165
2281.49172	0.79160
2279.56316	0.79164
2277.63459	0.79174
2275.70603	0.79164
2273.77746	0.79100
2271.84890	0.78989
2269.92033	0.78878
2267.99177	0.78772
2266.06320	0.78640
2264.13464	0.78504
2262.20608	0.78386
2260.27751	0.78272
2258.34895	0.78150
2256.42038	0.78010
2254.49182	0.77864
2252.56325	0.77728
2250.63469	0.77587
2248.70612	0.77425
2246.77756	0.77265
2244.84900	0.77143
2242.92043	0.77067
2240.99187	0.77018
2239.06330	0.76954
2237.13474	0.76872
2235.20617	0.76800
2233.27761	0.76778
2231.34904	0.76800
2229.42048	0.76796
2227.49192	0.76767
2225.56335	0.76769
2223.63479	0.76801
2221.70622	0.76839
2219.77766	0.76874
2217.84909	0.76897
2215.92053	0.76896
2213.99196	0.76890
2212.06340	0.76913
2210.13484	0.76949
2208.20627	0.76945
2206.27771	0.76878
2204.34914	0.76799
2202.42058	0.76763
2200.49201	0.76740
2198.56345	0.76682
2196.63488	0.76601
2194.70632	0.76522
2192.77776	0.76432
2190.84919	0.76330
2188.92063	0.76278
2186.99206	0.76296
2185.06350	0.76313
2183.13493	0.76271
2181.20637	0.76160
2179.27781	0.76027
2177.34924	0.75946
2175.42068	0.75933
2173.49211	0.75930
2171.56355	0.75877
2169.63498	0.75773
2167.70642	0.75668
2165.77785	0.75580
2163.84929	0.75484
2161.92073	0.75379
2159.99216	0.75290
2158.06360	0.75225
2156.13503	0.75158
2154.20647	0.75052
2152.27790	0.74916
2150.34934	0.74772
2148.42077	0.74625
2146.49221	0.74486
2144.56365	0.74354
2142.63508	0.74234
2140.70652	0.74149
2138.77795	0.74078
2136.84939	0.74000
2134.92082	0.73927
2132.99226	0.73843
2131.06369	0.73736
2129.13513	0.73642
2127.20657	0.73561
2125.27800	0.73467
2123.34944	0.73403
2121.42087	0.73385
2119.49231	0.73355
2117.56374	0.73289
2115.63518	0.73239
2113.70661	0.73227
2111.77805	0.73190
2109.84949	0.73122
2107.92092	0.73079
2105.99236	0.73050
2104.06379	0.72977
2102.13523	0.72864
2100.20666	0.72763
2098.27810	0.72701
2096.34953	0.72646
2094.42097	0.72578
2092.49241	0.72494
2090.56384	0.72388
2088.63528	0.72277
2086.70671	0.72173
2084.77815	0.72070
2082.84958	0.71977
2080.92102	0.71883
2078.99245	0.71768
2077.06389	0.71649
2075.13533	0.71539
2073.20676	0.71446
2071.27820	0.71360
2069.34963	0.71270
2067.42107	0.71195
2065.49250	0.71151
2063.56394	0.71097
2061.63537	0.70996
2059.70681	0.70868
2057.77825	0.70729
2055.84968	0.70563
2053.92112	0.70385
2051.99255	0.70234
2050.06399	0.70110
2048.13542	0.69989
2046.20686	0.69862
2044.27830	0.69727
2042.34973	0.69574
2040.42117	0.69385
2038.49260	0.69176
2036.56404	0.68988
2034.63547	0.68830
2032.70691	0.68693
2030.77834	0.68567
2028.84978	0.68434
2026.92122	0.68280
2024.99265	0.68124
2023.06409	0.67993
2021.13552	0.67869
2019.20696	0.67744
2017.27839	0.67641
2015.34983	0.67541
2013.42126	0.67425
2011.49270	0.67301
2009.56414	0.67204
2007.63557	0.67173
2005.70701	0.67172
2003.77844	0.67128
2001.84988	0.67053
1999.92131	0.67005
1997.99275	0.66973
1996.06418	0.66910
1994.13562	0.66854
1992.20706	0.66832
1990.27849	0.66769
1988.34993	0.66654
1986.42136	0.66529
1984.49280	0.66408
1982.56423	0.66302
1980.63567	0.66204
1978.70710	0.66094
1976.77854	0.65962
1974.84998	0.65808
1972.92141	0.65642
1970.99285	0.65474
1969.06428	0.65333
1967.13572	0.65230
1965.20715	0.65105
1963.27859	0.64944
1961.35002	0.64794
1959.42146	0.64667
1957.49290	0.64546
1955.56433	0.64422
1953.63577	0.64296
1951.70720	0.64196
1949.77864	0.64134
1947.85007	0.64078
1945.92151	0.63995
1943.99294	0.63905
1942.06438	0.63811
1940.13582	0.63666
1938.20725	0.63504
1936.27869	0.63371
1934.35012	0.63265
1932.42156	0.63180
1930.49299	0.63104
1928.56443	0.63020
1926.63586	0.62907
1924.70730	0.62787
1922.77874	0.62679
1920.85017	0.62546
1918.92161	0.62429
1916.99304	0.62343
1915.06448	0.62217
1913.13591	0.62085
1911.20735	0.62001
1909.27878	0.61950
1907.35022	0.61879
1905.42166	0.61770
1903.49309	0.61667
1901.56453	0.61593
1899.63596	0.61542
1897.70740	0.61528
1895.77883	0.61553
1893.85027	0.61550
1891.92171	0.61518
1889.99314	0.61538
1888.06458	0.61536
1886.13601	0.61443
1884.20745	0.61350
1882.27888	0.61291
1880.35032	0.61241
1878.42175	0.61173
1876.49319	0.61070
1874.56463	0.60943
1872.63606	0.60823
1870.70750	0.60763
1868.77893	0.60777
1866.85037	0.60647
1864.92180	0.60326
1862.99324	0.60004
1861.06467	0.59740
1859.13611	0.59493
1857.20755	0.59246
1855.27898	0.59009
1853.35042	0.58764
1851.42185	0.58504
1849.49329	0.58271
1847.56472	0.58079
1845.63616	0.57949
1843.70759	0.57846
1841.77903	0.57643
1839.85047	0.57415
1837.92190	0.57270
1835.99334	0.57169
1834.06477	0.57039
1832.13621	0.56975
1830.20764	0.57090
1828.27908	0.57197
1826.35051	0.57202
1824.42195	0.57271
1822.49339	0.57343
1820.56482	0.57380
1818.63626	0.57469
1816.70769	0.57574
1814.77913	0.57636
1812.85056	0.57716
1810.92200	0.57867
1808.99343	0.57984
1807.06487	0.58005
1805.13631	0.57995
1803.20774	0.58006
1801.27918	0.58062
1799.35061	0.58093
1797.42205	0.58053
1795.49348	0.57993
1793.56492	0.58012
1791.63635	0.58098
1789.70779	0.57990
1787.77923	0.57791
1785.85066	0.57715
1783.92210	0.57762
1781.99353	0.57840
1780.06497	0.57920
1778.13640	0.57960
1776.20784	0.57988
1774.27927	0.58183
1772.35071	0.58666
1770.42215	0.59058
1768.49358	0.59224
1766.56502	0.59370
1764.63645	0.59544
1762.70789	0.59918
1760.77932	0.60465
1758.85076	0.60899
1756.92220	0.61370
1754.99363	0.61852
1753.06507	0.62340
1751.13650	0.63215
1749.20794	0.64388
1747.27937	0.65178
1745.35081	0.65661
1743.42224	0.66115
1741.49368	0.66608
1739.56512	0.67060
1737.63655	0.67227
1735.70799	0.67291
1733.77942	0.67706
1731.85086	0.68007
1729.92229	0.67979
1727.99373	0.67983
1726.06516	0.68128
1724.13660	0.68457
1722.20804	0.68807
1720.27947	0.69133
1718.35091	0.69932
1716.42234	0.71493
1714.49378	0.72611
1712.56521	0.73341
1710.63665	0.74212
1708.70808	0.75352
1706.77952	0.77065
1704.85096	0.79206
1702.92239	0.80931
1700.99383	0.83204
1699.06526	0.86717
1697.13670	0.89656
1695.20813	0.92179
1693.27957	0.93882
1691.35100	0.95213
1689.42244	0.96919
1687.49388	0.98451
1685.56531	1.00117
1683.63675	1.03125
1681.70818	1.05167
1679.77962	1.06051
1677.85105	1.06808
1675.92249	1.07932
1673.99392	1.09408
1672.06536	1.10679
1670.13680	1.12271
1668.20823	1.14018
1666.27967	1.14920
1664.35110	1.15795
1662.42254	1.17255
1660.49397	1.18498
1658.56541	1.19115
1656.63684	1.19428
1654.70828	1.19909
1652.77972	1.20924
1650.85115	1.21043
1648.92259	1.20859
1646.99402	1.21052
1645.06546	1.21086
1643.13689	1.20780
1641.20833	1.20573
1639.27976	1.20496
1637.35120	1.20672
1635.42264	1.21210
1633.49407	1.21233
1631.56551	1.20866
1629.63694	1.20437
1627.70838	1.19979
1625.77981	1.19436
1623.85125	1.18587
1621.92269	1.17371
1619.99412	1.16248
1618.06556	1.15108
1616.13699	1.13479
1614.20843	1.11908
1612.27986	1.10622
1610.35130	1.09348
1608.42273	1.08060
1606.49417	1.06972
1604.56561	1.06205
1602.63704	1.05645
1600.70848	1.05219
1598.77991	1.04944
1596.85135	1.04826
1594.92278	1.04781
1592.99422	1.04740
1591.06565	1.04842
1589.13709	1.05191
1587.20853	1.05709
1585.27996	1.06348
1583.35140	1.07112
1581.42283	1.07903
1579.49427	1.08650
1577.56570	1.09721
1575.63714	1.11295
1573.70857	1.12152
1571.78001	1.12641
1569.85145	1.13743
1567.92288	1.14997
1565.99432	1.15700
1564.06575	1.16248
1562.13719	1.16690
1560.20862	1.17499
1558.28006	1.19420
1556.35149	1.20009
1554.42293	1.20032
1552.49437	1.20151
1550.56580	1.20349
1548.63724	1.20516
1546.70867	1.20533
1544.78011	1.20524
1542.85154	1.20561
1540.92298	1.20528
1538.99441	1.20117
1537.06585	1.19689
1535.13729	1.19458
1533.20872	1.19201
1531.28016	1.18634
1529.35159	1.18104
1527.42303	1.17806
1525.49446	1.17591
1523.56590	1.17471
1521.63733	1.17594
1519.70877	1.17654
1517.78021	1.17282
1515.85164	1.16485
1513.92308	1.15589
1511.99451	1.14725
1510.06595	1.13941
1508.13738	1.13037
1506.20882	1.10983
1504.28025	1.09146
1502.35169	1.07875
1500.42313	1.06754
1498.49456	1.05575
1496.56600	1.04117
1494.63743	1.02785
1492.70887	1.01828
1490.78030	1.00979
1488.85174	0.99971
1486.92317	0.98945
1484.99461	0.98150
1483.06605	0.97627
1481.13748	0.97321
1479.20892	0.97202
1477.28035	0.97383
1475.35179	0.98008
1473.42322	0.99105
1471.49466	1.00034
1469.56610	1.00342
1467.63753	1.00536
1465.70897	1.00944
1463.78040	1.01373
1461.85184	1.01476
1459.92327	1.01493
1457.99471	1.01910
1456.06614	1.02386
1454.13758	1.02162
1452.20902	1.01817
1450.28045	1.01582
1448.35189	1.01421
1446.42332	1.01191
1444.49476	1.00855
1442.56619	1.00477
1440.63763	1.00092
1438.70906	0.99696
1436.78050	0.99190
1434.85194	0.98543
1432.92337	0.97924
1430.99481	0.97330
1429.06624	0.96752
1427.13768	0.96318
1425.20911	0.96098
1423.28055	0.96037
1421.35198	0.96077
1419.42342	0.96379
1417.49486	0.96769
1415.56629	0.96834
1413.63773	0.96792
1411.70916	0.96790
1409.78060	0.96809
1407.85203	0.96861
1405.92347	0.96976
1403.99490	0.97068
1402.06634	0.97091
1400.13778	0.97226
1398.20921	0.97508
1396.28065	0.97754
1394.35208	0.97946
1392.42352	0.98072
1390.49495	0.98212
1388.56639	0.98683
1386.63782	0.99593
1384.70926	1.00493
1382.78070	1.01230
1380.85213	1.01795
1378.92357	1.01998
1376.99500	1.01810
1375.06644	1.01257
1373.13787	1.00351
1371.20931	0.99360
1369.28074	0.98353
1367.35218	0.97315
1365.42362	0.96417
1363.49505	0.95700
1361.56649	0.95138
1359.63792	0.94762
1357.70936	0.94565
1355.78079	0.94520
1353.85223	0.94582
1351.92366	0.94711
1349.99510	0.94877
1348.06654	0.95030
1346.13797	0.95179
1344.20941	0.95349
1342.28084	0.95551
1340.35228	0.95855
1338.42371	0.96216
1336.49515	0.96500
1334.56659	0.96825
1332.63802	0.97322
1330.70946	0.97911
1328.78089	0.98376
1326.85233	0.98614
1324.92376	0.98719
1322.99520	0.98808
1321.06663	0.98909
1319.13807	0.99002
1317.20951	0.99052
1315.28094	0.99062
1313.35238	0.99097
1311.42381	0.99167
1309.49525	0.99193
1307.56668	0.99145
1305.63812	0.99069
1303.70955	0.98965
1301.78099	0.98827
1299.85243	0.98691
1297.92386	0.98566
1295.99530	0.98474
1294.06673	0.98472
1292.13817	0.98569
1290.20960	0.98731
1288.28104	0.98908
1286.35247	0.99067
1284.42391	0.99198
1282.49535	0.99300
1280.56678	0.99385
1278.63822	0.99512
1276.70965	0.99706
1274.78109	0.99935
1272.85252	1.00216
1270.92396	1.00589
1268.99539	1.00999
1267.06683	1.01341
1265.13827	1.01570
1263.20970	1.01703
1261.28114	1.01744
1259.35257	1.01707
1257.42401	1.01647
1255.49544	1.01569
1253.56688	1.01434
1251.63831	1.01304
1249.70975	1.01260
1247.78119	1.01211
1245.85262	1.01059
1243.92406	1.00897
1241.99549	1.00801
1240.06693	1.00676
1238.13836	1.00456
1236.20980	1.00193
1234.28123	0.99951
1232.35267	0.99697
1230.42411	0.99343
1228.49554	0.98870
1226.56698	0.98363
1224.63841	0.97890
1222.70985	0.97411
1220.78128	0.96914
1218.85272	0.96499
1216.92415	0.96170
1214.99559	0.95900
1213.06703	0.95829
1211.13846	0.96034
1209.20990	0.96357
1207.28133	0.96559
1205.35277	0.96523
1203.42420	0.96311
1201.49564	0.96027
1199.56708	0.95672
1197.63851	0.95222
1195.70995	0.94769
1193.78138	0.94432
1191.85282	0.94194
1189.92425	0.94008
1187.99569	0.93899
1186.06712	0.93875
1184.13856	0.93931
1182.21000	0.94055
1180.28143	0.94212
1178.35287	0.94404
1176.42430	0.94698
1174.49574	0.95128
1172.56717	0.95596
1170.63861	0.96035
1168.71004	0.96571
1166.78148	0.97300
1164.85292	0.98075
1162.92435	0.98676
1160.99579	0.99044
1159.06722	0.99188
1157.13866	0.99095
1155.21009	0.98796
1153.28153	0.98318
1151.35296	0.97669
1149.42440	0.96906
1147.49584	0.96105
1145.56727	0.95391
1143.63871	0.94896
1141.71014	0.94632
1139.78158	0.94538
1137.85301	0.94617
1135.92445	0.94889
1133.99588	0.95338
1132.06732	0.95939
1130.13876	0.96663
1128.21019	0.97461
1126.28163	0.98261
1124.35306	0.98929
1122.42450	0.99379
1120.49593	0.99718
1118.56737	1.00020
1116.63880	1.00105
1114.71024	0.99877
1112.78168	0.99454
1110.85311	0.98929
1108.92455	0.98366
1106.99598	0.97811
1105.06742	0.97304
1103.13885	0.96919
1101.21029	0.96660
1099.28172	0.96508
1097.35316	0.96561
1095.42460	0.96858
1093.49603	0.97337
1091.56747	0.97984
1089.63890	0.98718
1087.71034	0.99419
1085.78177	1.00123
1083.85321	1.00906
1081.92464	1.01708
1079.99608	1.02366
1078.06752	1.02772
1076.13895	1.02956
1074.21039	1.02996
1072.28182	1.02930
1070.35326	1.02757
1068.42469	1.02429
1066.49613	1.01865
1064.56756	1.01097
1062.63900	1.00320
1060.71044	0.99634
1058.78187	0.98932
1056.85331	0.98140
1054.92474	0.97338
1052.99618	0.96623
1051.06761	0.96055
1049.13905	0.95621
1047.21049	0.95282
1045.28192	0.95101
1043.35336	0.95150
1041.42479	0.95383
1039.49623	0.95665
1037.56766	0.95881
1035.63910	0.96006
1033.71053	0.96005
1031.78197	0.95832
1029.85341	0.95521
1027.92484	0.95122
1025.99628	0.94671
1024.06771	0.94228
1022.13915	0.93859
1020.21058	0.93600
1018.28202	0.93425
1016.35345	0.93232
1014.42489	0.92865
1012.49633	0.92226
1010.56776	0.91399
1008.63920	0.90494
1006.71063	0.89505
1004.78207	0.88474
1002.85350	0.87549
1000.92494	0.86840
998.99637	0.86342
997.06781	0.85940
995.13925	0.85503
993.21068	0.84975
991.28212	0.84370
989.35355	0.83735
987.42499	0.83099
985.49642	0.82497
983.56786	0.81999
981.63929	0.81634
979.71073	0.81375
977.78217	0.81167
975.85360	0.80957
973.92504	0.80700
971.99647	0.80321
970.06791	0.79777
968.13934	0.79143
966.21078	0.78575
964.28221	0.78222
962.35365	0.78183
960.42509	0.78502
958.49652	0.79100
956.56796	0.79717
954.63939	0.80055
952.71083	0.79953
950.78226	0.79443
948.85370	0.78709
946.92513	0.77967
944.99657	0.77355
943.06801	0.76870
941.13944	0.76418
939.21088	0.75940
937.28231	0.75462
935.35375	0.75052
933.42518	0.74724
931.49662	0.74437
929.56805	0.74201
927.63949	0.74071
925.71093	0.74050
923.78236	0.74094
921.85380	0.74176
919.92523	0.74282
917.99667	0.74376
916.06810	0.74427
914.13954	0.74494
912.21098	0.74683
910.28241	0.75008
908.35385	0.75452
906.42528	0.76033
904.49672	0.76696
902.56815	0.77293
900.63959	0.77750
898.71102	0.78110
896.78246	0.78429
894.85390	0.78685
892.92533	0.78843
890.99677	0.78942
889.06820	0.79011
887.13964	0.78989
885.21107	0.78823
883.28251	0.78559
881.35394	0.78250
879.42538	0.77877
877.49682	0.77465
875.56825	0.77095
873.63969	0.76744
871.71112	0.76306
869.78256	0.75780
867.85399	0.75257
865.92543	0.74743
863.99686	0.74209
862.06830	0.73727
860.13974	0.73373
858.21117	0.73161
856.28261	0.73056
854.35404	0.73023
852.42548	0.73037
850.49691	0.73107
848.56835	0.73256
846.63978	0.73483
844.71122	0.73766
842.78266	0.74071
840.85409	0.74400
838.92553	0.74832
836.99696	0.75369
835.06840	0.75910
833.13983	0.76393
831.21127	0.76815
829.28270	0.77198
827.35414	0.77529
825.42558	0.77784
823.49701	0.78005
821.56845	0.78237
819.63988	0.78408
817.71132	0.78417
815.78275	0.78328
813.85419	0.78220
811.92562	0.78032
809.99706	0.77683
808.06850	0.77194
806.13993	0.76667
804.21137	0.76169
802.28280	0.75623
800.35424	0.74973
798.42567	0.74334
796.49711	0.73816
794.56854	0.73390
792.63998	0.73027
790.71142	0.72773
788.78285	0.72628
786.85429	0.72549
784.92572	0.72597
782.99716	0.72820
781.06859	0.73144
779.14003	0.73494
777.21147	0.73835
775.28290	0.74219
773.35434	0.74713
771.42577	0.75245
769.49721	0.75745
767.56864	0.76270
765.64008	0.76824
763.71151	0.77342
761.78295	0.77813
759.85439	0.78246
757.92582	0.78652
755.99726	0.79031
754.06869	0.79367
752.14013	0.79637
750.21156	0.79824
748.28300	0.79931
746.35443	0.79950
744.42587	0.79900
742.49731	0.79827
740.56874	0.79652
738.64018	0.79319
736.71161	0.78972
734.78305	0.78720
732.85448	0.78508
730.92592	0.78251
728.99735	0.77920
727.06879	0.77558
725.14023	0.77245
723.21166	0.77072
721.28310	0.77039
719.35453	0.76969
717.42597	0.76741
715.49740	0.76497
713.56884	0.76369
711.64027	0.76358
709.71171	0.76471
707.78315	0.76683
705.85458	0.76934
703.92602	0.77181
701.99745	0.77410
700.06889	0.77641
698.14032	0.77846
696.21176	0.78027
694.28319	0.78201
692.35463	0.78326
690.42607	0.78475
688.49750	0.78707
686.56894	0.78878
684.64037	0.78868
682.71181	0.78640
680.78324	0.78238
678.85468	0.77886
676.92611	0.77662
674.99755	0.77358
673.06899	0.76974
671.14042	0.76757
669.21186	0.76600
667.28329	0.75978
665.35473	0.75333
663.42616	0.74941
661.49760	0.74590
659.56903	0.74211
657.64047	0.73863
655.71191	0.73528
653.78334	0.73138
651.85478	0.72706
649.92621	0.72287
647.99765	0.71951
646.06908	0.71784
644.14052	0.71798
642.21195	0.71984
640.28339	0.72362
638.35483	0.72847
636.42626	0.73253
634.49770	0.73517
632.56913	0.73763
630.64057	0.74095
628.71200	0.74499
626.78344	0.74944
624.85488	0.75392
622.92631	0.75887
620.99775	0.76476
619.06918	0.77028
617.14062	0.77422
615.21205	0.77659
613.28349	0.77799
611.35492	0.77916
609.42636	0.77984
607.49780	0.77889
605.56923	0.77618
603.64067	0.77227
601.71210	0.76717
599.78354	0.76129
