3997.91406	0.89622
3995.98550	0.89644
3994.05693	0.89421
3992.12837	0.89216
3990.19980	0.89239
3988.27124	0.89287
3986.34268	0.89235
3984.41411	0.89147
3982.48555	0.89054
3980.55698	0.89125
3978.62842	0.89369
3976.69985	0.89457
3974.77129	0.89363
3972.84272	0.89326
3970.91416	0.89282
3968.98560	0.89216
3967.05703	0.89312
3965.12847	0.89469
3963.19990	0.89452
3961.27134	0.89350
3959.34277	0.89352
3957.41421	0.89379
3955.48564	0.89277
3953.55708	0.89066
3951.62852	0.88962
3949.69995	0.89141
3947.77139	0.89379
3945.84282	0.89338
3943.91426	0.89098
3941.98569	0.88933
3940.05713	0.89006
3938.12856	0.89203
3936.20000	0.89290
3934.27144	0.89212
3932.34287	0.89074
3930.41431	0.88947
3928.48574	0.88892
3926.55718	0.88877
3924.62861	0.88916
3922.70005	0.89075
3920.77148	0.89175
3918.84292	0.89156
3916.91436	0.89184
3914.98579	0.89164
3913.05723	0.88964
3911.12866	0.88754
3909.20010	0.88634
3907.27153	0.88482
3905.34297	0.88339
3903.41440	0.88437
3901.48584	0.88542
3899.55728	0.88358
3897.62871	0.88102
3895.70015	0.88008
3893.77158	0.88134
3891.84302	0.88337
3889.91445	0.88436
3887.98589	0.88527
3886.05733	0.88382
3884.12876	0.87970
3882.20020	0.87886
3880.27163	0.88094
3878.34307	0.88195
3876.41450	0.88024
3874.48594	0.87594
3872.55737	0.87294
3870.62881	0.87403
3868.70025	0.87705
3866.77168	0.87919
3864.84312	0.87892
3862.91455	0.87613
3860.98599	0.87406
3859.05742	0.87371
3857.12886	0.87437
3855.20029	0.87548
3853.27173	0.87499
3851.34317	0.87341
3849.41460	0.87277
3847.48604	0.87241
3845.55747	0.87175
3843.62891	0.87005
3841.70034	0.86853
3839.77178	0.86924
3837.84321	0.86990
3835.91465	0.86932
3833.98609	0.87133
3832.05752	0.87497
3830.12896	0.87565
3828.20039	0.87383
3826.27183	0.87296
3824.34326	0.87384
3822.41470	0.87512
3820.48613	0.87621
3818.55757	0.87689
3816.62901	0.87514
3814.70044	0.87177
3812.77188	0.87032
3810.84331	0.87038
3808.91475	0.87018
3806.98618	0.86808
3805.05762	0.86648
3803.12905	0.86703
3801.20049	0.86667
3799.27193	0.86434
3797.34336	0.86257
3795.41480	0.86327
3793.48623	0.86569
3791.55767	0.86782
3789.62910	0.86894
3787.70054	0.86875
3785.77197	0.86751
3783.84341	0.86619
3781.91485	0.86553
3779.98628	0.86508
3778.05772	0.86408
3776.12915	0.86309
3774.20059	0.86301
3772.27202	0.86384
3770.34346	0.86506
3768.41489	0.86630
3766.48633	0.86642
3764.55777	0.86455
3762.62920	0.86165
3760.70064	0.85834
3758.77207	0.85645
3756.84351	0.85799
3754.91494	0.86092
3752.98638	0.86394
3751.05781	0.86439
3749.12925	0.85927
3747.20069	0.85462
3745.27212	0.85271
3743.34356	0.85287
3741.41499	0.85374
3739.48643	0.85526
3737.55786	0.85580
3735.62930	0.85122
3733.70074	0.84397
3731.77217	0.84143
3729.84361	0.84339
3727.91504	0.84671
3725.98648	0.84911
3724.05791	0.85109
3722.12935	0.85098
3720.20078	0.84759
3718.27222	0.84486
3716.34366	0.84400
3714.41509	0.84352
3712.48653	0.84342
3710.55796	0.84469
3708.62940	0.84459
3706.70083	0.84357
3704.77227	0.84420
3702.84370	0.84561
3700.91514	0.84580
3698.98658	0.84557
3697.05801	0.84571
3695.12945	0.84674
3693.20088	0.84968
3691.27232	0.85420
3689.34375	0.85723
3687.41519	0.85683
3685.48662	0.85649
3683.55806	0.85753
3681.62950	0.85996
3679.70093	0.86427
3677.77237	0.86956
3675.84380	0.87227
3673.91524	0.87131
3671.98667	0.87014
3670.05811	0.87126
3668.12954	0.87608
3666.20098	0.88057
3664.27242	0.88372
3662.34385	0.88636
3660.41529	0.88888
3658.48672	0.89121
3656.55816	0.89347
3654.62959	0.89577
3652.70103	0.89865
3650.77246	0.90469
3648.84390	0.91492
3646.91534	0.91808
3644.98677	0.91682
3643.05821	0.91789
3641.12964	0.92289
3639.20108	0.92910
3637.27251	0.93287
3635.34395	0.93522
3633.41538	0.93891
3631.48682	0.94411
3629.55826	0.95078
3627.62969	0.95725
3625.70113	0.96299
3623.77256	0.97013
3621.84400	0.97815
3619.91543	0.98599
3617.98687	0.99157
3616.05830	0.99442
3614.12974	0.99719
3612.20118	1.00033
3610.27261	1.00273
3608.34405	1.00637
3606.41548	1.01253
3604.48692	1.01836
3602.55835	1.02366
3600.62979	1.03009
3598.70123	1.03697
3596.77266	1.04220
3594.84410	1.04689
3592.91553	1.05239
3590.98697	1.05790
3589.05840	1.06448
3587.12984	1.07145
3585.20127	1.07512
3583.27271	1.07774
3581.34415	1.08159
3579.41558	1.08668
3577.48702	1.09218
3575.55845	1.09600
3573.62989	1.09820
3571.70132	1.10155
3569.77276	1.10608
3567.84419	1.11217
3565.91563	1.11994
3563.98707	1.12564
3562.05850	1.12897
3560.12994	1.13032
3558.20137	1.13251
3556.27281	1.13759
3554.34424	1.14469
3552.41568	1.15143
3550.48711	1.15513
3548.55855	1.15900
3546.62999	1.16590
3544.70142	1.17179
3542.77286	1.17456
3540.84429	1.17734
3538.91573	1.18147
3536.98716	1.18830
3535.05860	1.19782
3533.13003	1.20631
3531.20147	1.21424
3529.27291	1.22404
3527.34434	1.23394
3525.41578	1.24223
3523.48721	1.24978
3521.55865	1.25633
3519.63008	1.25901
3517.70152	1.25898
3515.77295	1.26218
3513.84439	1.27009
3511.91583	1.27978
3509.98726	1.29034
3508.05870	1.29933
3506.13013	1.30441
3504.20157	1.31101
3502.27300	1.32144
3500.34444	1.32882
3498.41587	1.33187
3496.48731	1.33573
3494.55875	1.34181
3492.63018	1.34634
3490.70162	1.34831
3488.77305	1.35049
3486.84449	1.35693
3484.91592	1.36698
3482.98736	1.37264
3481.05879	1.37069
3479.13023	1.36799
3477.20167	1.36899
3475.27310	1.37227
3473.34454	1.37900
3471.41597	1.38860
3469.48741	1.39464
3467.55884	1.39747
3465.63028	1.40122
3463.70171	1.40507
3461.77315	1.40818
3459.84459	1.41046
3457.91602	1.41290
3455.98746	1.41558
3454.05889	1.41768
3452.13033	1.42144
3450.20176	1.42787
3448.27320	1.43553
3446.34464	1.44089
3444.41607	1.43933
3442.48751	1.43597
3440.55894	1.43922
3438.63038	1.44492
3436.70181	1.44588
3434.77325	1.44434
3432.84468	1.44273
3430.91612	1.44199
3428.98756	1.44674
3427.05899	1.45549
3425.13043	1.46060
3423.20186	1.46115
3421.27330	1.45878
3419.34473	1.45253
3417.41617	1.44685
3415.48760	1.44774
3413.55904	1.45281
3411.63048	1.45692
3409.70191	1.45961
3407.77335	1.46077
3405.84478	1.45990
3403.91622	1.45772
3401.98765	1.45534
3400.05909	1.45403
3398.13052	1.45211
3396.20196	1.44905
3394.27340	1.44765
3392.34483	1.44670
3390.41627	1.44671
3388.48770	1.44944
3386.55914	1.45096
3384.63057	1.45334
3382.70201	1.46003
3380.77344	1.46572
3378.84488	1.46793
3376.91632	1.46808
3374.98775	1.46920
3373.05919	1.47409
3371.13062	1.47860
3369.20206	1.47925
3367.27349	1.47919
3365.34493	1.48138
3363.41636	1.48447
3361.48780	1.48609
3359.55924	1.48746
3357.63067	1.49231
3355.70211	1.49981
3353.77354	1.50283
3351.84498	1.49885
3349.91641	1.49453
3347.98785	1.49427
3346.05928	1.49489
3344.13072	1.49710
3342.20216	1.50578
3340.27359	1.51474
3338.34503	1.51670
3336.41646	1.51631
3334.48790	1.51696
3332.55933	1.51799
3330.63077	1.51880
3328.70220	1.52010
3326.77364	1.52508
3324.84508	1.53173
3322.91651	1.53476
3320.98795	1.53485
3319.05938	1.53647
3317.13082	1.54192
3315.20225	1.54734
3313.27369	1.54835
3311.34513	1.54773
3309.41656	1.54826
3307.48800	1.54935
3305.55943	1.55189
3303.63087	1.55428
3301.70230	1.55363
3299.77374	1.55153
3297.84517	1.55096
3295.91661	1.55317
3293.98805	1.55894
3292.05948	1.56801
3290.13092	1.57310
3288.20235	1.56839
3286.27379	1.56056
3284.34522	1.55568
3282.41666	1.55383
3280.48809	1.55460
3278.55953	1.55966
3276.63097	1.56857
3274.70240	1.57072
3272.77384	1.56395
3270.84527	1.56138
3268.91671	1.56516
3266.98814	1.56716
3265.05958	1.56288
3263.13101	1.55260
3261.20245	1.54350
3259.27389	1.54143
3257.34532	1.54035
3255.41676	1.53330
3253.48819	1.52275
3251.55963	1.51307
3249.63106	1.50665
3247.70250	1.50512
3245.77393	1.50421
3243.84537	1.49677
3241.91681	1.48544
3239.98824	1.47734
3238.05968	1.47235
3236.13111	1.46656
3234.20255	1.46001
3232.27398	1.45664
3230.34542	1.45607
3228.41685	1.45350
3226.48829	1.45085
3224.55973	1.45258
3222.63116	1.45408
3220.70260	1.45064
3218.77403	1.44466
3216.84547	1.43794
3214.91690	1.43198
3212.98834	1.42660
3211.05977	1.41844
3209.13121	1.41080
3207.20265	1.40860
3205.27408	1.40860
3203.34552	1.40670
3201.41695	1.40286
3199.48839	1.39894
3197.55982	1.39737
3195.63126	1.39660
3193.70269	1.39261
3191.77413	1.38670
3189.84557	1.38192
3187.91700	1.37688
3185.98844	1.37064
3184.05987	1.36563
3182.13131	1.36323
3180.20274	1.36173
3178.27418	1.35741
3176.34562	1.34997
3174.41705	1.34459
3172.48849	1.34299
3170.55992	1.34169
3168.63136	1.33913
3166.70279	1.33541
3164.77423	1.33179
3162.84566	1.32969
3160.91710	1.32663
3158.98854	1.32193
3157.05997	1.31812
3155.13141	1.31533
3153.20284	1.31417
3151.27428	1.31478
3149.34571	1.31382
3147.41715	1.31043
3145.48858	1.30789
3143.56002	1.30635
3141.63146	1.30240
3139.70289	1.29768
3137.77433	1.29623
3135.84576	1.29702
3133.91720	1.29862
3131.98863	1.30039
3130.06007	1.29974
3128.13150	1.29636
3126.20294	1.29274
3124.27438	1.29141
3122.34581	1.29308
3120.41725	1.29527
3118.48868	1.29600
3116.56012	1.29605
3114.63155	1.29478
3112.70299	1.29087
3110.77442	1.28778
3108.84586	1.28870
3106.91730	1.28972
3104.98873	1.28738
3103.06017	1.28424
3101.13160	1.28262
3099.20304	1.28239
3097.27447	1.28198
3095.34591	1.28015
3093.41734	1.27919
3091.48878	1.28058
3089.56022	1.28124
3087.63165	1.27862
3085.70309	1.27488
3083.77452	1.27288
3081.84596	1.27181
3079.91739	1.27052
3077.98883	1.26910
3076.06026	1.26579
3074.13170	1.26016
3072.20314	1.25516
3070.27457	1.25307
3068.34601	1.25374
3066.41744	1.25460
3064.48888	1.25260
3062.56031	1.24711
3060.63175	1.24049
3058.70318	1.23636
3056.77462	1.23357
3054.84606	1.22854
3052.91749	1.22337
3050.98893	1.21982
3049.06036	1.21582
3047.13180	1.21125
3045.20323	1.20729
3043.27467	1.20394
3041.34610	1.20144
3039.41754	1.19998
3037.48898	1.19797
3035.56041	1.19404
3033.63185	1.18997
3031.70328	1.18670
3029.77472	1.18266
3027.84615	1.17853
3025.91759	1.17564
3023.98903	1.17340
3022.06046	1.17180
3020.13190	1.17082
3018.20333	1.16921
3016.27477	1.16694
3014.34620	1.16503
3012.41764	1.16372
3010.48907	1.16260
3008.56051	1.16110
3006.63195	1.15914
3004.70338	1.15763
3002.77482	1.15717
3000.84625	1.15728
2998.91769	1.15720
2996.98912	1.15619
2995.06056	1.15557
2993.13199	1.15730
2991.20343	1.16027
2989.27487	1.16305
2987.34630	1.16625
2985.41774	1.17033
2983.48917	1.17492
2981.56061	1.17899
2979.63204	1.18308
2977.70348	1.19055
2975.77491	1.20042
2973.84635	1.20633
2971.91779	1.20911
2969.98922	1.21518
2968.06066	1.22474
2966.13209	1.23396
2964.20353	1.23993
2962.27496	1.24222
2960.34640	1.24356
2958.41783	1.24449
2956.48927	1.24201
2954.56071	1.23606
2952.63214	1.22971
2950.70358	1.22466
2948.77501	1.22283
2946.84645	1.22654
2944.91788	1.23407
2942.98932	1.24248
2941.06075	1.25169
2939.13219	1.26130
2937.20363	1.27133
2935.27506	1.28361
2933.34650	1.29762
2931.41793	1.31168
2929.48937	1.32500
2927.56080	1.33503
2925.63224	1.34118
2923.70367	1.34680
2921.77511	1.35162
2919.84655	1.35068
2917.91798	1.34207
2915.98942	1.32714
2914.06085	1.30518
2912.13229	1.27844
2910.20372	1.25483
2908.27516	1.23824
2906.34659	1.22579
2904.41803	1.21531
2902.48947	1.20770
2900.56090	1.20307
2898.63234	1.19933
2896.70377	1.19361
2894.77521	1.18566
2892.84664	1.17796
2890.91808	1.17220
2888.98952	1.16864
2887.06095	1.16609
2885.13239	1.16296
2883.20382	1.15945
2881.27526	1.15725
2879.34669	1.15749
2877.41813	1.15809
2875.48956	1.15705
2873.56100	1.15599
2871.63244	1.15487
2869.70387	1.15194
2867.77531	1.14856
2865.84674	1.14616
2863.91818	1.14475
2861.98961	1.14579
2860.06105	1.15029
2858.13248	1.15787
2856.20392	1.16855
2854.27536	1.18251
2852.34679	1.19745
2850.41823	1.20419
2848.48966	1.19193
2846.56110	1.16291
2844.63253	1.13154
2842.70397	1.10820
2840.77540	1.09256
2838.84684	1.08028
2836.91828	1.06921
2834.98971	1.05962
2833.06115	1.05266
2831.13258	1.04820
2829.20402	1.04467
2827.27545	1.04080
2825.34689	1.03615
2823.41832	1.03101
2821.48976	1.02606
2819.56120	1.02218
2817.63263	1.01923
2815.70407	1.01577
2813.77550	1.01181
2811.84694	1.00875
2809.91837	1.00643
2807.98981	1.00359
2806.06124	1.00029
2804.13268	0.99749
2802.20412	0.99539
2800.27555	0.99312
2798.34699	0.99010
2796.41842	0.98718
2794.48986	0.98562
2792.56129	0.98542
2790.63273	0.98488
2788.70416	0.98300
2786.77560	0.98079
2784.84704	0.97901
2782.91847	0.97749
2780.98991	0.97568
2779.06134	0.97359
2777.13278	0.97230
2775.20421	0.97163
2773.27565	0.97018
2771.34708	0.96800
2769.41852	0.96581
2767.48996	0.96350
2765.56139	0.96083
2763.63283	0.95765
2761.70426	0.95470
2759.77570	0.95308
2757.84713	0.95203
2755.91857	0.95002
2753.99001	0.94681
2752.06144	0.94306
2750.13288	0.93962
2748.20431	0.93660
2746.27575	0.93377
2744.34718	0.93132
2742.41862	0.92948
2740.49005	0.92792
2738.56149	0.92607
2736.63293	0.92372
2734.70436	0.92127
2732.77580	0.91963
2730.84723	0.91891
2728.91867	0.91872
2726.99010	0.91879
2725.06154	0.91858
2723.13297	0.91839
2721.20441	0.91858
2719.27585	0.91813
2717.34728	0.91690
2715.41872	0.91599
2713.49015	0.91534
2711.56159	0.91492
2709.63302	0.91553
2707.70446	0.91674
2705.77589	0.91758
2703.84733	0.91770
2701.91877	0.91743
2699.99020	0.91722
2698.06164	0.91693
2696.13307	0.91664
2694.20451	0.91651
2692.27594	0.91617
2690.34738	0.91506
2688.41881	0.91306
2686.49025	0.91082
2684.56169	0.90909
2682.63312	0.90782
2680.70456	0.90650
2678.77599	0.90481
2676.84743	0.90266
2674.91886	0.90036
2672.99030	0.89785
2671.06173	0.89475
2669.13317	0.89200
2667.20461	0.89050
2665.27604	0.88932
2663.34748	0.88755
2661.41891	0.88553
2659.49035	0.88391
2657.56178	0.88289
2655.63322	0.88227
2653.70465	0.88160
2651.77609	0.88057
2649.84753	0.87963
2647.91896	0.87917
2645.99040	0.87873
2644.06183	0.87835
2642.13327	0.87865
2640.20470	0.87928
2638.27614	0.87948
2636.34757	0.87923
2634.41901	0.87871
2632.49045	0.87796
2630.56188	0.87705
2628.63332	0.87627
2626.70475	0.87543
2624.77619	0.87425
2622.84762	0.87302
2620.91906	0.87166
2618.99049	0.87018
2617.06193	0.86903
2615.13337	0.86778
2613.20480	0.86626
2611.27624	0.86519
2609.34767	0.86417
2607.41911	0.86216
2605.49054	0.85945
2603.56198	0.85697
2601.63342	0.85496
2599.70485	0.85310
2597.77629	0.85107
2595.84772	0.84879
2593.91916	0.84695
2591.99059	0.84599
2590.06203	0.84499
2588.13346	0.84325
2586.20490	0.84128
2584.27634	0.83953
2582.34777	0.83811
2580.41921	0.83687
2578.49064	0.83550
2576.56208	0.83425
2574.63351	0.83367
2572.70495	0.83349
2570.77638	0.83287
2568.84782	0.83182
2566.91926	0.83102
2564.99069	0.83056
2563.06213	0.82990
2561.13356	0.82899
2559.20500	0.82809
2557.27643	0.82708
2555.34787	0.82613
2553.41930	0.82566
2551.49074	0.82556
2549.56218	0.82516
2547.63361	0.82423
2545.70505	0.82314
2543.77648	0.82161
2541.84792	0.81949
2539.91935	0.81788
2537.99079	0.81724
2536.06222	0.81650
2534.13366	0.81529
2532.20510	0.81442
2530.27653	0.81378
2528.34797	0.81293
2526.41940	0.81212
2524.49084	0.81150
2522.56227	0.81087
2520.63371	0.81020
2518.70514	0.80989
2516.77658	0.80989
2514.84802	0.80988
2512.91945	0.80979
2510.99089	0.80953
2509.06232	0.80909
2507.13376	0.80869
2505.20519	0.80846
2503.27663	0.80823
2501.34806	0.80768
2499.41950	0.80708
2497.49094	0.80710
2495.56237	0.80749
2493.63381	0.80707
2491.70524	0.80544
2489.77668	0.80361
2487.84811	0.80262
2485.91955	0.80244
2483.99098	0.80221
2482.06242	0.80160
2480.13386	0.80064
2478.20529	0.79917
2476.27673	0.79744
2474.34816	0.79594
2472.41960	0.79460
2470.49103	0.79312
2468.56247	0.79160
2466.63391	0.79028
2464.70534	0.78898
2462.77678	0.78769
2460.84821	0.78657
2458.91965	0.78547
2456.99108	0.78416
2455.06252	0.78292
2453.13395	0.78214
2451.20539	0.78169
2449.27683	0.78150
2447.34826	0.78145
2445.41970	0.78059
2443.49113	0.77874
2441.56257	0.77691
2439.63400	0.77567
2437.70544	0.77503
2435.77687	0.77459
2433.84831	0.77368
2431.91975	0.77207
2429.99118	0.77030
2428.06262	0.76893
2426.13405	0.76814
2424.20549	0.76761
2422.27692	0.76663
2420.34836	0.76504
2418.41979	0.76335
2416.49123	0.76185
2414.56267	0.76050
2412.63410	0.75918
2410.70554	0.75793
2408.77697	0.75672
2406.84841	0.75529
2404.91984	0.75375
2402.99128	0.75250
2401.06271	0.75148
2399.13415	0.75023
2397.20559	0.74894
2395.27702	0.74830
2393.34846	0.74811
2391.41989	0.74772
2389.49133	0.74718
2387.56276	0.74653
2385.63420	0.74559
2383.70563	0.74433
2381.77707	0.74267
2379.84851	0.74100
2377.91994	0.74001
2375.99138	0.73938
2374.06281	0.73890
2372.13425	0.73892
2370.20568	0.73785
2368.27712	0.73380
2366.34855	0.72796
2364.41999	0.72487
2362.49143	0.72727
2360.56286	0.72900
2358.63430	0.72705
2356.70573	0.72791
2354.77717	0.73117
2352.84860	0.73320
2350.92004	0.73489
2348.99147	0.73624
2347.06291	0.73635
2345.13435	0.73501
2343.20578	0.73258
2341.27722	0.73039
2339.34865	0.73050
2337.42009	0.73228
2335.49152	0.73291
2333.56296	0.73198
2331.63440	0.73053
2329.70583	0.72929
2327.77727	0.72948
2325.84870	0.73071
2323.92014	0.73146
2321.99157	0.73147
2320.06301	0.73108
2318.13444	0.73097
2316.20588	0.73167
2314.27732	0.73274
2312.34875	0.73364
2310.42019	0.73396
2308.49162	0.73350
2306.56306	0.73285
2304.63449	0.73253
2302.70593	0.73233
2300.77736	0.73231
2298.84880	0.73274
2296.92024	0.73315
2294.99167	0.73298
2293.06311	0.73232
2291.13454	0.73141
2289.20598	0.73045
2287.27741	0.72935
2285.34885	0.72814
2283.42028	0.72703
2281.49172	0.72581
2279.56316	0.72437
2277.63459	0.72315
2275.70603	0.72219
2273.77746	0.72075
2271.84890	0.71910
2269.92033	0.71796
2267.99177	0.71677
2266.06320	0.71498
2264.13464	0.71296
2262.20608	0.71103
2260.27751	0.70942
2258.34895	0.70828
2256.42038	0.70715
2254.49182	0.70564
2252.56325	0.70406
2250.63469	0.70281
2248.70612	0.70198
2246.77756	0.70141
2244.84900	0.70085
2242.92043	0.70012
2240.99187	0.69932
2239.06330	0.69885
2237.13474	0.69864
2235.20617	0.69834
2233.27761	0.69796
2231.34904	0.69765
2229.42048	0.69781
2227.49192	0.69852
2225.56335	0.69904
2223.63479	0.69889
2221.70622	0.69875
2219.77766	0.69923
2217.84909	0.69973
2215.92053	0.69959
2213.99196	0.69916
2212.06340	0.69911
2210.13484	0.69931
2208.20627	0.69918
2206.27771	0.69889
2204.34914	0.69884
2202.42058	0.69886
2200.49201	0.69859
2198.56345	0.69806
2196.63488	0.69768
2194.70632	0.69755
2192.77776	0.69744
2190.84919	0.69731
2188.92063	0.69713
2186.99206	0.69692
2185.06350	0.69675
2183.13493	0.69653
2181.20637	0.69621
2179.27781	0.69598
2177.34924	0.69602
2175.42068	0.69628
2173.49211	0.69655
2171.56355	0.69668
2169.63498	0.69674
2167.70642	0.69705
2165.77785	0.69766
2163.84929	0.69848
2161.92073	0.69953
2159.99216	0.70041
2158.06360	0.70081
2156.13503	0.70117
2154.20647	0.70210
2152.27790	0.70335
2150.34934	0.70387
2148.42077	0.70334
2146.49221	0.70268
2144.56365	0.70248
2142.63508	0.70224
2140.70652	0.70157
2138.77795	0.70076
2136.84939	0.69974
2134.92082	0.69823
2132.99226	0.69656
2131.06369	0.69490
2129.13513	0.69291
2127.20657	0.69067
2125.27800	0.68863
2123.34944	0.68682
2121.42087	0.68494
2119.49231	0.68304
2117.56374	0.68129
2115.63518	0.67950
2113.70661	0.67781
2111.77805	0.67672
2109.84949	0.67592
2107.92092	0.67485
2105.99236	0.67359
2104.06379	0.67247
2102.13523	0.67167
2100.20666	0.67143
2098.27810	0.67168
2096.34953	0.67204
2094.42097	0.67245
2092.49241	0.67291
2090.56384	0.67339
2088.63528	0.67403
2086.70671	0.67477
2084.77815	0.67539
2082.84958	0.67620
2080.92102	0.67740
2078.99245	0.67846
2077.06389	0.67909
2075.13533	0.67955
2073.20676	0.67999
2071.27820	0.68013
2069.34963	0.67973
2067.42107	0.67915
2065.49250	0.67872
2063.56394	0.67820
2061.63537	0.67738
2059.70681	0.67629
2057.77825	0.67492
2055.84968	0.67343
2053.92112	0.67180
2051.99255	0.66996
2050.06399	0.66823
2048.13542	0.66676
2046.20686	0.66522
2044.27830	0.66344
2042.34973	0.66182
2040.42117	0.66064
2038.49260	0.65974
2036.56404	0.65902
2034.63547	0.65833
2032.70691	0.65741
2030.77834	0.65656
2028.84978	0.65622
2026.92122	0.65627
2024.99265	0.65626
2023.06409	0.65618
2021.13552	0.65630
2019.20696	0.65665
2017.27839	0.65713
2015.34983	0.65786
2013.42126	0.65890
2011.49270	0.65977
2009.56414	0.66036
2007.63557	0.66121
2005.70701	0.66221
2003.77844	0.66279
2001.84988	0.66303
1999.92131	0.66338
1997.99275	0.66379
1996.06418	0.66396
1994.13562	0.66385
1992.20706	0.66339
1990.27849	0.66273
1988.34993	0.66214
1986.42136	0.66147
1984.49280	0.66031
1982.56423	0.65858
1980.63567	0.65657
1978.70710	0.65456
1976.77854	0.65264
1974.84998	0.65098
1972.92141	0.64970
1970.99285	0.64855
1969.06428	0.64707
1967.13572	0.64513
1965.20715	0.64334
1963.27859	0.64207
1961.35002	0.64114
1959.42146	0.64041
1957.49290	0.63970
1955.56433	0.63896
1953.63577	0.63835
1951.70720	0.63793
1949.77864	0.63773
1947.85007	0.63782
1945.92151	0.63816
1943.99294	0.63851
1942.06438	0.63846
1940.13582	0.63814
1938.20725	0.63777
1936.27869	0.63746
1934.35012	0.63752
1932.42156	0.63785
1930.49299	0.63801
1928.56443	0.63781
1926.63586	0.63755
1924.70730	0.63751
1922.77874	0.63738
1920.85017	0.63680
1918.92161	0.63571
1916.99304	0.63436
1915.06448	0.63324
1913.13591	0.63220
1911.20735	0.63085
1909.27878	0.62929
1907.35022	0.62798
1905.42166	0.62700
1903.49309	0.62605
1901.56453	0.62492
1899.63596	0.62370
1897.70740	0.62277
1895.77883	0.62223
1893.85027	0.62176
1891.92171	0.62138
1889.99314	0.62108
1888.06458	0.62060
1886.13601	0.62015
1884.20745	0.61994
1882.27888	0.62006
1880.35032	0.62033
1878.42175	0.62037
1876.49319	0.62034
1874.56463	0.62053
1872.63606	0.62093
1870.70750	0.62148
1868.77893	0.62180
1866.85037	0.62155
1864.92180	0.62140
1862.99324	0.62150
1861.06467	0.62124
1859.13611	0.62081
1857.20755	0.62094
1855.27898	0.62144
1853.35042	0.62167
1851.42185	0.62169
1849.49329	0.62173
1847.56472	0.62164
1845.63616	0.62145
1843.70759	0.62115
1841.77903	0.62083
1839.85047	0.62066
1837.92190	0.62043
1835.99334	0.61990
1834.06477	0.61926
1832.13621	0.61874
1830.20764	0.61803
1828.27908	0.61744
1826.35051	0.61728
1824.42195	0.61691
1822.49339	0.61650
1820.56482	0.61652
1818.63626	0.61668
1816.70769	0.61667
1814.77913	0.61674
1812.85056	0.61704
1810.92200	0.61721
1808.99343	0.61717
1807.06487	0.61724
1805.13631	0.61754
1803.20774	0.61786
1801.27918	0.61818
1799.35061	0.61859
1797.42205	0.61901
1795.49348	0.61938
1793.56492	0.61950
1791.63635	0.61888
1789.70779	0.61802
1787.77923	0.61763
1785.85066	0.61731
1783.92210	0.61695
1781.99353	0.61675
1780.06497	0.61644
1778.13640	0.61610
1776.20784	0.61596
1774.27927	0.61584
1772.35071	0.61542
1770.42215	0.61491
1768.49358	0.61440
1766.56502	0.61402
1764.63645	0.61449
1762.70789	0.61609
1760.77932	0.61853
1758.85076	0.62123
1756.92220	0.62495
1754.99363	0.62988
1753.06507	0.63568
1751.13650	0.64369
1749.20794	0.65392
1747.27937	0.66357
1745.35081	0.67215
1743.42224	0.68006
1741.49368	0.68713
1739.56512	0.69329
1737.63655	0.69771
1735.70799	0.70079
1733.77942	0.70396
1731.85086	0.70622
1729.92229	0.70820
1727.99373	0.71105
1726.06516	0.71481
1724.13660	0.72003
1722.20804	0.72595
1720.27947	0.73167
1718.35091	0.73955
1716.42234	0.75204
1714.49378	0.76363
1712.56521	0.77412
1710.63665	0.78620
1708.70808	0.80074
1706.77952	0.82187
1704.85096	0.84983
1702.92239	0.87551
1700.99383	0.91075
1699.06526	0.96630
1697.13670	1.01697
1695.20813	1.06486
1693.27957	1.10149
1691.35100	1.13008
1689.42244	1.16246
1687.49388	1.19225
1685.56531	1.22325
1683.63675	1.26868
1681.70818	1.29756
1679.77962	1.31253
1677.85105	1.32705
1675.92249	1.34404
1673.99392	1.36195
1672.06536	1.37551
1670.13680	1.38806
1668.20823	1.40122
1666.27967	1.40940
1664.35110	1.41716
1662.42254	1.42664
1660.49397	1.43238
1658.56541	1.43467
1656.63684	1.43551
1654.70828	1.43646
1652.77972	1.43617
1650.85115	1.43374
1648.92259	1.43314
1646.99402	1.43284
1645.06546	1.42918
1643.13689	1.42399
1641.20833	1.42024
1639.27976	1.41845
1637.35120	1.41776
1635.42264	1.41508
1633.49407	1.41102
1631.56551	1.40681
1629.63694	1.39996
1627.70838	1.39116
1625.77981	1.38274
1623.85125	1.37248
1621.92269	1.36047
1619.99412	1.35154
1618.06556	1.34090
1616.13699	1.32143
1614.20843	1.30301
1612.27986	1.28805
1610.35130	1.27350
1608.42273	1.26012
1606.49417	1.24817
1604.56561	1.23832
1602.63704	1.23117
1600.70848	1.22646
1598.77991	1.22375
1596.85135	1.22278
1594.92278	1.22317
1592.99422	1.22456
1591.06565	1.22717
1589.13709	1.23170
1587.20853	1.23843
1585.27996	1.24640
1583.35140	1.25538
1581.42283	1.26498
1579.49427	1.27319
1577.56570	1.28128
1575.63714	1.29465
1573.70857	1.30725
1571.78001	1.31588
1569.85145	1.32636
1567.92288	1.33761
1565.99432	1.34513
1564.06575	1.35056
1562.13719	1.35353
1560.20862	1.35456
1558.28006	1.36238
1556.35149	1.37073
1554.42293	1.37217
1552.49437	1.37178
1550.56580	1.37153
1548.63724	1.37020
1546.70867	1.36835
1544.78011	1.36744
1542.85154	1.36780
1540.92298	1.36412
1538.99441	1.35285
1537.06585	1.34750
1535.13729	1.34498
1533.20872	1.34155
1531.28016	1.33815
1529.35159	1.33623
1527.42303	1.33480
1525.49446	1.33329
1523.56590	1.33178
1521.63733	1.32999
1519.70877	1.32885
1517.78021	1.32486
1515.85164	1.31529
1513.92308	1.30439
1511.99451	1.29453
1510.06595	1.28563
1508.13738	1.27109
1506.20882	1.24388
1504.28025	1.22950
1502.35169	1.22086
1500.42313	1.21052
1498.49456	1.19625
1496.56600	1.17840
1494.63743	1.16531
1492.70887	1.15723
1490.78030	1.14729
1488.85174	1.13308
1486.92317	1.12142
1484.99461	1.11313
1483.06605	1.10645
1481.13748	1.10166
1479.20892	1.09964
1477.28035	1.10004
1475.35179	1.10328
1473.42322	1.11151
1471.49466	1.12086
1469.56610	1.12643
1467.63753	1.13093
1465.70897	1.13559
1463.78040	1.13905
1461.85184	1.14042
1459.92327	1.14063
1457.99471	1.14130
1456.06614	1.14459
1454.13758	1.14746
1452.20902	1.14823
1450.28045	1.14679
1448.35189	1.14378
1446.42332	1.14113
1444.49476	1.13923
1442.56619	1.13651
1440.63763	1.13288
1438.70906	1.12895
1436.78050	1.12367
1434.85194	1.11782
1432.92337	1.11314
1430.99481	1.10845
1429.06624	1.10411
1427.13768	1.10199
1425.20911	1.10271
1423.28055	1.10548
1421.35198	1.10819
1419.42342	1.11133
1417.49486	1.11609
1415.56629	1.11960
1413.63773	1.12109
1411.70916	1.12177
1409.78060	1.12289
1407.85203	1.12419
1405.92347	1.12515
1403.99490	1.12599
1402.06634	1.12674
1400.13778	1.12731
1398.20921	1.12755
1396.28065	1.12656
1394.35208	1.12413
1392.42352	1.12293
1390.49495	1.12412
1388.56639	1.12754
1386.63782	1.13373
1384.70926	1.14124
1382.78070	1.14838
1380.85213	1.15367
1378.92357	1.15506
1376.99500	1.15217
1375.06644	1.14491
1373.13787	1.13425
1371.20931	1.12339
1369.28074	1.11175
1367.35218	1.09916
1365.42362	1.08806
1363.49505	1.07833
1361.56649	1.07048
1359.63792	1.06662
1357.70936	1.06595
1355.78079	1.06707
1353.85223	1.06883
1351.92366	1.07011
1349.99510	1.07116
1348.06654	1.07298
1346.13797	1.07556
1344.20941	1.07781
1342.28084	1.07913
1340.35228	1.08029
1338.42371	1.08173
1336.49515	1.08335
1334.56659	1.08587
1332.63802	1.08965
1330.70946	1.09401
1328.78089	1.09750
1326.85233	1.09895
1324.92376	1.09836
1322.99520	1.09651
1321.06663	1.09415
1319.13807	1.09197
1317.20951	1.09031
1315.28094	1.08840
1313.35238	1.08600
1311.42381	1.08362
1309.49525	1.08123
1307.56668	1.07868
1305.63812	1.07603
1303.70955	1.07330
1301.78099	1.07072
1299.85243	1.06816
1297.92386	1.06531
1295.99530	1.06259
1294.06673	1.06091
1292.13817	1.06122
1290.20960	1.06346
1288.28104	1.06655
1286.35247	1.07030
1284.42391	1.07457
1282.49535	1.07865
1280.56678	1.08255
1278.63822	1.08677
1276.70965	1.09175
1274.78109	1.09766
1272.85252	1.10435
1270.92396	1.11156
1268.99539	1.11877
1267.06683	1.12574
1265.13827	1.13221
1263.20970	1.13688
1261.28114	1.13949
1259.35257	1.14169
1257.42401	1.14396
1255.49544	1.14526
1253.56688	1.14537
1251.63831	1.14536
1249.70975	1.14578
1247.78119	1.14613
1245.85262	1.14610
1243.92406	1.14506
1241.99549	1.14231
1240.06693	1.13857
1238.13836	1.13441
1236.20980	1.12935
1234.28123	1.12409
1232.35267	1.11929
1230.42411	1.11411
1228.49554	1.10805
1226.56698	1.10116
1224.63841	1.09372
1222.70985	1.08676
1220.78128	1.08062
1218.85272	1.07507
1216.92415	1.07065
1214.99559	1.06823
1213.06703	1.06852
1211.13846	1.07128
1209.20990	1.07471
1207.28133	1.07728
1205.35277	1.07843
1203.42420	1.07731
1201.49564	1.07406
1199.56708	1.06987
1197.63851	1.06535
1195.70995	1.06085
1193.78138	1.05681
1191.85282	1.05346
1189.92425	1.05130
1187.99569	1.05083
1186.06712	1.05102
1184.13856	1.05036
1182.21000	1.04979
1180.28143	1.05144
1178.35287	1.05524
1176.42430	1.06011
1174.49574	1.06608
1172.56717	1.07295
1170.63861	1.07993
1168.71004	1.08736
1166.78148	1.09573
1164.85292	1.10406
1162.92435	1.11083
1160.99579	1.11445
1159.06722	1.11259
1157.13866	1.10506
1155.21009	1.09427
1153.28153	1.08176
1151.35296	1.06799
1149.42440	1.05384
1147.49584	1.04035
1145.56727	1.02875
1143.63871	1.02050
1141.71014	1.01666
1139.78158	1.01688
1137.85301	1.01995
1135.92445	1.02501
1133.99588	1.03225
1132.06732	1.04270
1130.13876	1.05632
1128.21019	1.07135
1126.28163	1.08658
1124.35306	1.10142
1122.42450	1.11483
1120.49593	1.12552
1118.56737	1.13282
1116.63880	1.13713
1114.71024	1.13813
1112.78168	1.13549
1110.85311	1.13125
1108.92455	1.12767
1106.99598	1.12524
1105.06742	1.12310
1103.13885	1.12056
1101.21029	1.11839
1099.28172	1.11811
1097.35316	1.12059
1095.42460	1.12591
1093.49603	1.13453
1091.56747	1.14623
1089.63890	1.15863
1087.71034	1.17057
1085.78177	1.18289
1083.85321	1.19372
1081.92464	1.20057
1079.99608	1.20371
1078.06752	1.20392
1076.13895	1.20243
1074.21039	1.19911
1072.28182	1.19305
1070.35326	1.18617
1068.42469	1.17957
1066.49613	1.17327
1064.56756	1.16852
1062.63900	1.16496
1060.71044	1.16041
1058.78187	1.15445
1056.85331	1.14879
1054.92474	1.14414
1052.99618	1.14033
1051.06761	1.13742
1049.13905	1.13517
1047.21049	1.13376
1045.28192	1.13372
1043.35336	1.13542
1041.42479	1.13877
1039.49623	1.14224
1037.56766	1.14376
1035.63910	1.14361
1033.71053	1.14309
1031.78197	1.14116
1029.85341	1.13663
1027.92484	1.12997
1025.99628	1.12189
1024.06771	1.11334
1022.13915	1.10569
1020.21058	1.09968
1018.28202	1.09500
1016.35345	1.09041
1014.42489	1.08425
1012.49633	1.07579
1010.56776	1.06576
1008.63920	1.05469
1006.71063	1.04271
1004.78207	1.03059
1002.85350	1.01972
1000.92494	1.01099
998.99637	1.00446
997.06781	0.99940
995.13925	0.99486
993.21068	0.99057
991.28212	0.98583
989.35355	0.97949
987.42499	0.97181
985.49642	0.96365
983.56786	0.95594
981.63929	0.94957
979.71073	0.94432
977.78217	0.93908
975.85360	0.93284
973.92504	0.92451
971.99647	0.91361
970.06791	0.90113
968.13934	0.88871
966.21078	0.87742
964.28221	0.86789
962.35365	0.86122
960.42509	0.85893
958.49652	0.86120
956.56796	0.86510
954.63939	0.86621
952.71083	0.86230
950.78226	0.85449
948.85370	0.84553
946.92513	0.83796
944.99657	0.83286
943.06801	0.82990
941.13944	0.82836
939.21088	0.82816
937.28231	0.82960
935.35375	0.83218
933.42518	0.83528
931.49662	0.83894
929.56805	0.84333
927.63949	0.84867
925.71093	0.85495
923.78236	0.86156
921.85380	0.86796
919.92523	0.87323
917.99667	0.87580
916.06810	0.87571
914.13954	0.87477
912.21098	0.87367
910.28241	0.87216
908.35385	0.87077
906.42528	0.87004
904.49672	0.86945
902.56815	0.86805
900.63959	0.86549
898.71102	0.86181
896.78246	0.85708
894.85390	0.85154
892.92533	0.84556
890.99677	0.84000
889.06820	0.83524
887.13964	0.83081
885.21107	0.82705
883.28251	0.82489
881.35394	0.82455
879.42538	0.82576
877.49682	0.82789
875.56825	0.83044
873.63969	0.83323
871.71112	0.83643
869.78256	0.84120
867.85399	0.84783
865.92543	0.85452
863.99686	0.86016
862.06830	0.86606
860.13974	0.87304
858.21117	0.87989
856.28261	0.88569
854.35404	0.89042
852.42548	0.89396
850.49691	0.89598
848.56835	0.89635
846.63978	0.89545
844.71122	0.89339
842.78266	0.88961
840.85409	0.88450
838.92553	0.87930
836.99696	0.87431
835.06840	0.86926
833.13983	0.86418
831.21127	0.85892
829.28270	0.85340
827.35414	0.84815
825.42558	0.84396
823.49701	0.84124
821.56845	0.83967
819.63988	0.83888
817.71132	0.83869
815.78275	0.83901
813.85419	0.84037
811.92562	0.84279
809.99706	0.84501
808.06850	0.84690
806.13993	0.84977
804.21137	0.85352
802.28280	0.85748
800.35424	0.86234
798.42567	0.86845
796.49711	0.87515
794.56854	0.88212
792.63998	0.88950
790.71142	0.89715
788.78285	0.90462
786.85429	0.91182
784.92572	0.91832
782.99716	0.92323
781.06859	0.92727
779.14003	0.93184
777.21147	0.93609
775.28290	0.93847
773.35434	0.93864
771.42577	0.93711
769.49721	0.93512
767.56864	0.93272
765.64008	0.92902
763.71151	0.92409
761.78295	0.91797
759.85439	0.91126
757.92582	0.90519
755.99726	0.89976
754.06869	0.89471
752.14013	0.89080
750.21156	0.88875
748.28300	0.88809
746.35443	0.88733
744.42587	0.88556
742.49731	0.88331
740.56874	0.88209
738.64018	0.88317
736.71161	0.88604
734.78305	0.89012
732.85448	0.89673
730.92592	0.90543
728.99735	0.91335
727.06879	0.92003
725.14023	0.92694
723.21166	0.93481
721.28310	0.94395
719.35453	0.95284
717.42597	0.95893
715.49740	0.96239
713.56884	0.96496
711.64027	0.96790
709.71171	0.97075
707.78315	0.97139
705.85458	0.96853
703.92602	0.96237
701.99745	0.95387
700.06889	0.94380
698.14032	0.93317
696.21176	0.92305
694.28319	0.91299
692.35463	0.90210
690.42607	0.89055
688.49750	0.87932
686.56894	0.86922
684.64037	0.86044
682.71181	0.85347
680.78324	0.84849
678.85468	0.84497
676.92611	0.84239
674.99755	0.84084
673.06899	0.84037
671.14042	0.84045
669.21186	0.84269
667.28329	0.84888
665.35473	0.85410
663.42616	0.85984
661.49760	0.86801
659.56903	0.87594
657.64047	0.88229
655.71191	0.88905
653.78334	0.89724
651.85478	0.90634
649.92621	0.91487
647.99765	0.92184
646.06908	0.92865
644.14052	0.93640
642.21195	0.94481
640.28339	0.95336
638.35483	0.96003
636.42626	0.96299
634.49770	0.96260
632.56913	0.95959
630.64057	0.95476
628.71200	0.94937
626.78344	0.94291
624.85488	0.93487
622.92631	0.92794
620.99775	0.92306
619.06918	0.91677
617.14062	0.90769
615.21205	0.90019
613.28349	0.89610
611.35492	0.89223
609.42636	0.88857
607.49780	0.88608
605.56923	0.88257
603.64067	0.87846
601.71210	0.87628
599.78354	0.87676
