3997.91406	0.74448
3995.98550	0.74512
3994.05693	0.74506
3992.12837	0.74411
3990.19980	0.74190
3988.27124	0.73975
3986.34268	0.73972
3984.41411	0.74051
3982.48555	0.73961
3980.55698	0.73805
3978.62842	0.73733
3976.69985	0.73598
3974.77129	0.73417
3972.84272	0.73409
3970.91416	0.73510
3968.98560	0.73571
3967.05703	0.73600
3965.12847	0.73627
3963.19990	0.73671
3961.27134	0.73695
3959.34277	0.73695
3957.41421	0.73766
3955.48564	0.73852
3953.55708	0.73860
3951.62852	0.73918
3949.69995	0.74108
3947.77139	0.74180
3945.84282	0.73974
3943.91426	0.73665
3941.98569	0.73514
3940.05713	0.73660
3938.12856	0.73858
3936.20000	0.73787
3934.27144	0.73534
3932.34287	0.73417
3930.41431	0.73446
3928.48574	0.73493
3926.55718	0.73622
3924.62861	0.73765
3922.70005	0.73767
3920.77148	0.73757
3918.84292	0.73778
3916.91436	0.73652
3914.98579	0.73425
3913.05723	0.73262
3911.12866	0.73201
3909.20010	0.73210
3907.27153	0.73223
3905.34297	0.73113
3903.41440	0.72767
3901.48584	0.72572
3899.55728	0.72766
3897.62871	0.72909
3895.70015	0.72835
3893.77158	0.72709
3891.84302	0.72621
3889.91445	0.72568
3887.98589	0.72570
3886.05733	0.72668
3884.12876	0.72737
3882.20020	0.72589
3880.27163	0.72419
3878.34307	0.72560
3876.41450	0.72801
3874.48594	0.72774
3872.55737	0.72463
3870.62881	0.72199
3868.70025	0.72117
3866.77168	0.72129
3864.84312	0.72090
3862.91455	0.71894
3860.98599	0.71733
3859.05742	0.71731
3857.12886	0.71826
3855.20029	0.71840
3853.27173	0.71299
3851.34317	0.70793
3849.41460	0.70795
3847.48604	0.70881
3845.55747	0.70853
3843.62891	0.70744
3841.70034	0.70731
3839.77178	0.70838
3837.84321	0.70884
3835.91465	0.70812
3833.98609	0.70726
3832.05752	0.70663
3830.12896	0.70585
3828.20039	0.70486
3826.27183	0.70436
3824.34326	0.70458
3822.41470	0.70603
3820.48613	0.70982
3818.55757	0.71180
3816.62901	0.70931
3814.70044	0.70569
3812.77188	0.70423
3810.84331	0.70383
3808.91475	0.70425
3806.98618	0.70580
3805.05762	0.70687
3803.12905	0.70647
3801.20049	0.70536
3799.27193	0.70517
3797.34336	0.70515
3795.41480	0.70448
3793.48623	0.70412
3791.55767	0.70432
3789.62910	0.70404
3787.70054	0.70245
3785.77197	0.70043
3783.84341	0.70005
3781.91485	0.70103
3779.98628	0.70082
3778.05772	0.69938
3776.12915	0.69905
3774.20059	0.69981
3772.27202	0.70065
3770.34346	0.69983
3768.41489	0.69724
3766.48633	0.69571
3764.55777	0.69571
3762.62920	0.69568
3760.70064	0.69407
3758.77207	0.69222
3756.84351	0.69371
3754.91494	0.69723
3752.98638	0.69976
3751.05781	0.69828
3749.12925	0.69621
3747.20069	0.69745
3745.27212	0.69853
3743.34356	0.69766
3741.41499	0.69661
3739.48643	0.69576
3737.55786	0.69479
3735.62930	0.69531
3733.70074	0.69596
3731.77217	0.69301
3729.84361	0.69039
3727.91504	0.68975
3725.98648	0.68917
3724.05791	0.68751
3722.12935	0.68634
3720.20078	0.68686
3718.27222	0.68785
3716.34366	0.68793
3714.41509	0.68695
3712.48653	0.68472
3710.55796	0.68230
3708.62940	0.68142
3706.70083	0.68140
3704.77227	0.68220
3702.84370	0.68308
3700.91514	0.68237
3698.98658	0.68117
3697.05801	0.68083
3695.12945	0.68070
3693.20088	0.68029
3691.27232	0.67962
3689.34375	0.67917
3687.41519	0.67911
3685.48662	0.67909
3683.55806	0.67959
3681.62950	0.68065
3679.70093	0.68261
3677.77237	0.68699
3675.84380	0.69366
3673.91524	0.69606
3671.98667	0.69537
3670.05811	0.69588
3668.12954	0.69717
3666.20098	0.69818
3664.27242	0.69963
3662.34385	0.70199
3660.41529	0.70480
3658.48672	0.70737
3656.55816	0.71009
3654.62959	0.71268
3652.70103	0.71409
3650.77246	0.71453
3648.84390	0.71720
3646.91534	0.72251
3644.98677	0.72588
3643.05821	0.72838
3641.12964	0.73155
3639.20108	0.73512
3637.27251	0.73825
3635.34395	0.74131
3633.41538	0.74476
3631.48682	0.74773
3629.55826	0.75095
3627.62969	0.75606
3625.70113	0.76062
3623.77256	0.76438
3621.84400	0.76869
3619.91543	0.77417
3617.98687	0.77831
3616.05830	0.78049
3614.12974	0.78323
3612.20118	0.78692
3610.27261	0.79119
3608.34405	0.79578
3606.41548	0.79922
3604.48692	0.80238
3602.55835	0.80678
3600.62979	0.81089
3598.70123	0.81410
3596.77266	0.81858
3594.84410	0.82414
3592.91553	0.82873
3590.98697	0.83205
3589.05840	0.83628
3587.12984	0.84325
3585.20127	0.84811
3583.27271	0.84965
3581.34415	0.85251
3579.41558	0.85789
3577.48702	0.86244
3575.55845	0.86512
3573.62989	0.86796
3571.70132	0.87186
3569.77276	0.87615
3567.84419	0.88048
3565.91563	0.88475
3563.98707	0.88872
3562.05850	0.89353
3560.12994	0.89904
3558.20137	0.90392
3556.27281	0.90796
3554.34424	0.91220
3552.41568	0.91741
3550.48711	0.92287
3548.55855	0.92829
3546.62999	0.93401
3544.70142	0.93968
3542.77286	0.94557
3540.84429	0.95182
3538.91573	0.95744
3536.98716	0.96187
3535.05860	0.96579
3533.13003	0.97014
3531.20147	0.97533
3529.27291	0.98139
3527.34434	0.98828
3525.41578	0.99506
3523.48721	1.00019
3521.55865	1.00467
3519.63008	1.01163
3517.70152	1.02171
3515.77295	1.03162
3513.84439	1.03831
3511.91583	1.04258
3509.98726	1.04853
3508.05870	1.05739
3506.13013	1.06606
3504.20157	1.07563
3502.27300	1.08713
3500.34444	1.09612
3498.41587	1.10194
3496.48731	1.10865
3494.55875	1.11808
3492.63018	1.12845
3490.70162	1.13827
3488.77305	1.14624
3486.84449	1.15254
3484.91592	1.15780
3482.98736	1.16161
3481.05879	1.16617
3479.13023	1.17236
3477.20167	1.17759
3475.27310	1.17997
3473.34454	1.18084
3471.41597	1.18418
3469.48741	1.19015
3467.55884	1.19457
3465.63028	1.19702
3463.70171	1.20257
3461.77315	1.21276
3459.84459	1.22171
3457.91602	1.22496
3455.98746	1.22523
3454.05889	1.22735
3452.13033	1.23187
3450.20176	1.23542
3448.27320	1.23858
3446.34464	1.24462
3444.41607	1.25026
3442.48751	1.25221
3440.55894	1.25322
3438.63038	1.25590
3436.70181	1.25897
3434.77325	1.25958
3432.84468	1.25949
3430.91612	1.26212
3428.98756	1.26489
3427.05899	1.26452
3425.13043	1.26312
3423.20186	1.26354
3421.27330	1.26473
3419.34473	1.26386
3417.41617	1.26162
3415.48760	1.26145
3413.55904	1.26385
3411.63048	1.26723
3409.70191	1.27084
3407.77335	1.27285
3405.84478	1.27352
3403.91622	1.27386
3401.98765	1.27225
3400.05909	1.27116
3398.13052	1.27266
3396.20196	1.27421
3394.27340	1.27651
3392.34483	1.27890
3390.41627	1.27777
3388.48770	1.27621
3386.55914	1.27796
3384.63057	1.27882
3382.70201	1.27605
3380.77344	1.27473
3378.84488	1.27689
3376.91632	1.27972
3374.98775	1.28455
3373.05919	1.29355
3371.13062	1.30172
3369.20206	1.30341
3367.27349	1.30134
3365.34493	1.30084
3363.41636	1.30155
3361.48780	1.30045
3359.55924	1.29947
3357.63067	1.30179
3355.70211	1.30460
3353.77354	1.30737
3351.84498	1.31282
3349.91641	1.31759
3347.98785	1.32025
3346.05928	1.32498
3344.13072	1.33198
3342.20216	1.33832
3340.27359	1.34214
3338.34503	1.34385
3336.41646	1.34709
3334.48790	1.35405
3332.55933	1.36205
3330.63077	1.36811
3328.70220	1.37262
3326.77364	1.37569
3324.84508	1.37630
3322.91651	1.37840
3320.98795	1.38477
3319.05938	1.38830
3317.13082	1.38653
3315.20225	1.38849
3313.27369	1.39611
3311.34513	1.40453
3309.41656	1.41444
3307.48800	1.42475
3305.55943	1.43021
3303.63087	1.43228
3301.70230	1.43833
3299.77374	1.44791
3297.84517	1.45342
3295.91661	1.45566
3293.98805	1.46039
3292.05948	1.46631
3290.13092	1.46781
3288.20235	1.46440
3286.27379	1.46181
3284.34522	1.46313
3282.41666	1.46656
3280.48809	1.46724
3278.55953	1.46315
3276.63097	1.45922
3274.70240	1.45655
3272.77384	1.45106
3270.84527	1.44500
3268.91671	1.44275
3266.98814	1.44103
3265.05958	1.43483
3263.13101	1.42551
3261.20245	1.41554
3259.27389	1.40560
3257.34532	1.39660
3255.41676	1.38896
3253.48819	1.38351
3251.55963	1.37875
3249.63106	1.37043
3247.70250	1.35807
3245.77393	1.34358
3243.84537	1.32919
3241.91681	1.31829
3239.98824	1.31123
3238.05968	1.30556
3236.13111	1.29989
3234.20255	1.29341
3232.27398	1.28543
3230.34542	1.27860
3228.41685	1.27500
3226.48829	1.27154
3224.55973	1.26700
3222.63116	1.26324
3220.70260	1.25987
3218.77403	1.25389
3216.84547	1.24415
3214.91690	1.23560
3212.98834	1.23109
3211.05977	1.22718
3209.13121	1.22147
3207.20265	1.21433
3205.27408	1.20808
3203.34552	1.20425
3201.41695	1.20118
3199.48839	1.19774
3197.55982	1.19366
3195.63126	1.18759
3193.70269	1.18043
3191.77413	1.17506
3189.84557	1.17050
3187.91700	1.16427
3185.98844	1.15723
3184.05987	1.15120
3182.13131	1.14674
3180.20274	1.14302
3178.27418	1.13823
3176.34562	1.13135
3174.41705	1.12349
3172.48849	1.11765
3170.55992	1.11538
3168.63136	1.11400
3166.70279	1.10946
3164.77423	1.10209
3162.84566	1.09567
3160.91710	1.09120
3158.98854	1.08736
3157.05997	1.08461
3155.13141	1.08407
3153.20284	1.08369
3151.27428	1.08035
3149.34571	1.07554
3147.41715	1.07233
3145.48858	1.07026
3143.56002	1.06893
3141.63146	1.06894
3139.70289	1.06815
3137.77433	1.06523
3135.84576	1.06288
3133.91720	1.06282
3131.98863	1.06342
3130.06007	1.06294
3128.13150	1.06189
3126.20294	1.06161
3124.27438	1.06221
3122.34581	1.06268
3120.41725	1.06272
3118.48868	1.06313
3116.56012	1.06387
3114.63155	1.06373
3112.70299	1.06324
3110.77442	1.06446
3108.84586	1.06684
3106.91730	1.06769
3104.98873	1.06687
3103.06017	1.06611
3101.13160	1.06584
3099.20304	1.06606
3097.27447	1.06653
3095.34591	1.06648
3093.41734	1.06533
3091.48878	1.06293
3089.56022	1.06014
3087.63165	1.05768
3085.70309	1.05508
3083.77452	1.05196
3081.84596	1.04887
3079.91739	1.04643
3077.98883	1.04403
3076.06026	1.04063
3074.13170	1.03668
3072.20314	1.03297
3070.27457	1.02963
3068.34601	1.02663
3066.41744	1.02398
3064.48888	1.02162
3062.56031	1.01952
3060.63175	1.01714
3058.70318	1.01400
3056.77462	1.01036
3054.84606	1.00653
3052.91749	1.00254
3050.98893	0.99889
3049.06036	0.99621
3047.13180	0.99387
3045.20323	0.99136
3043.27467	0.98897
3041.34610	0.98606
3039.41754	0.98211
3037.48898	0.97814
3035.56041	0.97490
3033.63185	0.97150
3031.70328	0.96752
3029.77472	0.96402
3027.84615	0.96053
3025.91759	0.95635
3023.98903	0.95283
3022.06046	0.95046
3020.13190	0.94833
3018.20333	0.94617
3016.27477	0.94402
3014.34620	0.94180
3012.41764	0.93953
3010.48907	0.93744
3008.56051	0.93615
3006.63195	0.93546
3004.70338	0.93449
3002.77482	0.93372
3000.84625	0.93344
2998.91769	0.93348
2996.98912	0.93482
2995.06056	0.93763
2993.13199	0.94102
2991.20343	0.94486
2989.27487	0.94921
2987.34630	0.95394
2985.41774	0.95867
2983.48917	0.96365
2981.56061	0.97035
2979.63204	0.97806
2977.70348	0.98406
2975.77491	0.98866
2973.84635	0.99425
2971.91779	1.00122
2969.98922	1.00830
2968.06066	1.01441
2966.13209	1.02017
2964.20353	1.02710
2962.27496	1.03362
2960.34640	1.03609
2958.41783	1.03364
2956.48927	1.02851
2954.56071	1.02291
2952.63214	1.01726
2950.70358	1.01183
2948.77501	1.00825
2946.84645	1.00806
2944.91788	1.01149
2942.98932	1.01812
2941.06075	1.02780
2939.13219	1.03914
2937.20363	1.04994
2935.27506	1.06040
2933.34650	1.07160
2931.41793	1.08242
2929.48937	1.09241
2927.56080	1.10394
2925.63224	1.11647
2923.70367	1.12631
2921.77511	1.13359
2919.84655	1.13833
2917.91798	1.13421
2915.98942	1.11689
2914.06085	1.09158
2912.13229	1.06638
2910.20372	1.04557
2908.27516	1.03001
2906.34659	1.01849
2904.41803	1.00993
2902.48947	1.00445
2900.56090	1.00074
2898.63234	0.99733
2896.70377	0.99456
2894.77521	0.99162
2892.84664	0.98744
2890.91808	0.98302
2888.98952	0.97904
2887.06095	0.97503
2885.13239	0.97142
2883.20382	0.96954
2881.27526	0.96947
2879.34669	0.96990
2877.41813	0.96975
2875.48956	0.96817
2873.56100	0.96456
2871.63244	0.95924
2869.70387	0.95320
2867.77531	0.94775
2865.84674	0.94349
2863.91818	0.94040
2861.98961	0.93963
2860.06105	0.94273
2858.13248	0.94984
2856.20392	0.96022
2854.27536	0.97282
2852.34679	0.98572
2850.41823	0.99274
2848.48966	0.98370
2846.56110	0.95813
2844.63253	0.92911
2842.70397	0.90686
2840.77540	0.89257
2838.84684	0.88338
2836.91828	0.87604
2834.98971	0.86934
2833.06115	0.86367
2831.13258	0.85935
2829.20402	0.85620
2827.27545	0.85316
2825.34689	0.84940
2823.41832	0.84521
2821.48976	0.84134
2819.56120	0.83798
2817.63263	0.83465
2815.70407	0.83120
2813.77550	0.82823
2811.84694	0.82583
2809.91837	0.82341
2807.98981	0.82113
2806.06124	0.81883
2804.13268	0.81579
2802.20412	0.81265
2800.27555	0.81003
2798.34699	0.80754
2796.41842	0.80526
2794.48986	0.80304
2792.56129	0.80065
2790.63273	0.79853
2788.70416	0.79670
2786.77560	0.79462
2784.84704	0.79212
2782.91847	0.78948
2780.98991	0.78741
2779.06134	0.78596
2777.13278	0.78425
2775.20421	0.78201
2773.27565	0.77979
2771.34708	0.77805
2769.41852	0.77678
2767.48996	0.77558
2765.56139	0.77443
2763.63283	0.77332
2761.70426	0.77188
2759.77570	0.77047
2757.84713	0.76952
2755.91857	0.76847
2753.99001	0.76713
2752.06144	0.76623
2750.13288	0.76587
2748.20431	0.76543
2746.27575	0.76473
2744.34718	0.76415
2742.41862	0.76373
2740.49005	0.76327
2738.56149	0.76294
2736.63293	0.76268
2734.70436	0.76179
2732.77580	0.76013
2730.84723	0.75854
2728.91867	0.75754
2726.99010	0.75670
2725.06154	0.75589
2723.13297	0.75517
2721.20441	0.75412
2719.27585	0.75277
2717.34728	0.75173
2715.41872	0.75098
2713.49015	0.75014
2711.56159	0.74925
2709.63302	0.74815
2707.70446	0.74656
2705.77589	0.74508
2703.84733	0.74463
2701.91877	0.74473
2699.99020	0.74397
2698.06164	0.74238
2696.13307	0.74133
2694.20451	0.74132
2692.27594	0.74163
2690.34738	0.74126
2688.41881	0.74001
2686.49025	0.73861
2684.56169	0.73758
2682.63312	0.73660
2680.70456	0.73535
2678.77599	0.73398
2676.84743	0.73288
2674.91886	0.73208
2672.99030	0.73100
2671.06173	0.72928
2669.13317	0.72743
2667.20461	0.72578
2665.27604	0.72418
2663.34748	0.72293
2661.41891	0.72202
2659.49035	0.72073
2657.56178	0.71906
2655.63322	0.71791
2653.70465	0.71749
2651.77609	0.71706
2649.84753	0.71621
2647.91896	0.71513
2645.99040	0.71420
2644.06183	0.71374
2642.13327	0.71361
2640.20470	0.71318
2638.27614	0.71232
2636.34757	0.71127
2634.41901	0.70994
2632.49045	0.70844
2630.56188	0.70710
2628.63332	0.70585
2626.70475	0.70461
2624.77619	0.70353
2622.84762	0.70267
2620.91906	0.70179
2618.99049	0.70076
2617.06193	0.69980
2615.13337	0.69907
2613.20480	0.69859
2611.27624	0.69827
2609.34767	0.69782
2607.41911	0.69705
2605.49054	0.69622
2603.56198	0.69568
2601.63342	0.69529
2599.70485	0.69471
2597.77629	0.69420
2595.84772	0.69387
2593.91916	0.69345
2591.99059	0.69304
2590.06203	0.69261
2588.13346	0.69189
2586.20490	0.69096
2584.27634	0.68992
2582.34777	0.68898
2580.41921	0.68816
2578.49064	0.68709
2576.56208	0.68563
2574.63351	0.68416
2572.70495	0.68295
2570.77638	0.68178
2568.84782	0.68061
2566.91926	0.67977
2564.99069	0.67943
2563.06213	0.67912
2561.13356	0.67845
2559.20500	0.67757
2557.27643	0.67681
2555.34787	0.67637
2553.41930	0.67607
2551.49074	0.67576
2549.56218	0.67567
2547.63361	0.67580
2545.70505	0.67581
2543.77648	0.67532
2541.84792	0.67429
2539.91935	0.67310
2537.99079	0.67246
2536.06222	0.67255
2534.13366	0.67264
2532.20510	0.67197
2530.27653	0.67050
2528.34797	0.66919
2526.41940	0.66864
2524.49084	0.66785
2522.56227	0.66628
2520.63371	0.66477
2518.70514	0.66355
2516.77658	0.66243
2514.84802	0.66165
2512.91945	0.66118
2510.99089	0.66061
2509.06232	0.65976
2507.13376	0.65898
2505.20519	0.65877
2503.27663	0.65885
2501.34806	0.65866
2499.41950	0.65797
2497.49094	0.65716
2495.56237	0.65683
2493.63381	0.65670
2491.70524	0.65614
2489.77668	0.65529
2487.84811	0.65460
2485.91955	0.65399
2483.99098	0.65313
2482.06242	0.65203
2480.13386	0.65090
2478.20529	0.64966
2476.27673	0.64820
2474.34816	0.64682
2472.41960	0.64564
2470.49103	0.64451
2468.56247	0.64326
2466.63391	0.64184
2464.70534	0.64044
2462.77678	0.63923
2460.84821	0.63821
2458.91965	0.63733
2456.99108	0.63651
2455.06252	0.63560
2453.13395	0.63463
2451.20539	0.63365
2449.27683	0.63281
2447.34826	0.63242
2445.41970	0.63219
2443.49113	0.63176
2441.56257	0.63126
2439.63400	0.63071
2437.70544	0.63005
2435.77687	0.62931
2433.84831	0.62841
2431.91975	0.62740
2429.99118	0.62643
2428.06262	0.62559
2426.13405	0.62494
2424.20549	0.62426
2422.27692	0.62322
2420.34836	0.62190
2418.41979	0.62060
2416.49123	0.61939
2414.56267	0.61843
2412.63410	0.61766
2410.70554	0.61688
2408.77697	0.61618
2406.84841	0.61566
2404.91984	0.61524
2402.99128	0.61504
2401.06271	0.61499
2399.13415	0.61492
2397.20559	0.61496
2395.27702	0.61511
2393.34846	0.61498
2391.41989	0.61467
2389.49133	0.61443
2387.56276	0.61427
2385.63420	0.61404
2383.70563	0.61331
2381.77707	0.61183
2379.84851	0.60991
2377.91994	0.60786
2375.99138	0.60562
2374.06281	0.60284
2372.13425	0.59932
2370.20568	0.59528
2368.27712	0.59048
2366.34855	0.58513
2364.41999	0.58144
2362.49143	0.58003
2360.56286	0.57961
2358.63430	0.58101
2356.70573	0.58389
2354.77717	0.58589
2352.84860	0.58757
2350.92004	0.58953
2348.99147	0.59083
2347.06291	0.59074
2345.13435	0.58859
2343.20578	0.58544
2341.27722	0.58443
2339.34865	0.58617
2337.42009	0.58856
2335.49152	0.58933
2333.56296	0.58808
2331.63440	0.58649
2329.70583	0.58625
2327.77727	0.58705
2325.84870	0.58800
2323.92014	0.58866
2321.99157	0.58835
2320.06301	0.58760
2318.13444	0.58728
2316.20588	0.58676
2314.27732	0.58555
2312.34875	0.58424
2310.42019	0.58313
2308.49162	0.58205
2306.56306	0.58126
2304.63449	0.58072
2302.70593	0.57983
2300.77736	0.57859
2298.84880	0.57763
2296.92024	0.57712
2294.99167	0.57660
2293.06311	0.57592
2291.13454	0.57547
2289.20598	0.57524
2287.27741	0.57484
2285.34885	0.57439
2283.42028	0.57420
2281.49172	0.57420
2279.56316	0.57392
2277.63459	0.57316
2275.70603	0.57217
2273.77746	0.57127
2271.84890	0.57043
2269.92033	0.56965
2267.99177	0.56901
2266.06320	0.56831
2264.13464	0.56746
2262.20608	0.56670
2260.27751	0.56617
2258.34895	0.56566
2256.42038	0.56515
2254.49182	0.56487
2252.56325	0.56483
2250.63469	0.56478
2248.70612	0.56462
2246.77756	0.56460
2244.84900	0.56473
2242.92043	0.56482
2240.99187	0.56489
2239.06330	0.56486
2237.13474	0.56469
2235.20617	0.56459
2233.27761	0.56455
2231.34904	0.56438
2229.42048	0.56401
2227.49192	0.56345
2225.56335	0.56274
2223.63479	0.56199
2221.70622	0.56122
2219.77766	0.56042
2217.84909	0.55971
2215.92053	0.55909
2213.99196	0.55826
2212.06340	0.55725
2210.13484	0.55633
2208.20627	0.55567
2206.27771	0.55543
2204.34914	0.55571
2202.42058	0.55612
2200.49201	0.55624
2198.56345	0.55621
2196.63488	0.55629
2194.70632	0.55647
2192.77776	0.55664
2190.84919	0.55675
2188.92063	0.55687
2186.99206	0.55702
2185.06350	0.55710
2183.13493	0.55690
2181.20637	0.55638
2179.27781	0.55576
2177.34924	0.55516
2175.42068	0.55448
2173.49211	0.55369
2171.56355	0.55287
2169.63498	0.55213
2167.70642	0.55129
2165.77785	0.55025
2163.84929	0.54915
2161.92073	0.54817
2159.99216	0.54726
2158.06360	0.54625
2156.13503	0.54529
2154.20647	0.54455
2152.27790	0.54379
2150.34934	0.54277
2148.42077	0.54155
2146.49221	0.54044
2144.56365	0.53968
2142.63508	0.53905
2140.70652	0.53826
2138.77795	0.53727
2136.84939	0.53606
2134.92082	0.53465
2132.99226	0.53324
2131.06369	0.53208
2129.13513	0.53107
2127.20657	0.53002
2125.27800	0.52900
2123.34944	0.52807
2121.42087	0.52714
2119.49231	0.52622
2117.56374	0.52530
2115.63518	0.52441
2113.70661	0.52364
2111.77805	0.52311
2109.84949	0.52274
2107.92092	0.52241
2105.99236	0.52219
2104.06379	0.52217
2102.13523	0.52217
2100.20666	0.52205
2098.27810	0.52194
2096.34953	0.52190
2094.42097	0.52181
2092.49241	0.52162
2090.56384	0.52130
2088.63528	0.52077
2086.70671	0.52014
2084.77815	0.51967
2082.84958	0.51936
2080.92102	0.51895
2078.99245	0.51840
2077.06389	0.51791
2075.13533	0.51749
2073.20676	0.51698
2071.27820	0.51640
2069.34963	0.51595
2067.42107	0.51570
2065.49250	0.51549
2063.56394	0.51529
2061.63537	0.51523
2059.70681	0.51529
2057.77825	0.51541
2055.84968	0.51550
2053.92112	0.51545
2051.99255	0.51542
2050.06399	0.51560
2048.13542	0.51583
2046.20686	0.51577
2044.27830	0.51539
2042.34973	0.51523
2040.42117	0.51556
2038.49260	0.51574
2036.56404	0.51532
2034.63547	0.51457
2032.70691	0.51380
2030.77834	0.51316
2028.84978	0.51267
2026.92122	0.51203
2024.99265	0.51102
2023.06409	0.50988
2021.13552	0.50879
2019.20696	0.50771
2017.27839	0.50663
2015.34983	0.50577
2013.42126	0.50516
2011.49270	0.50448
2009.56414	0.50373
2007.63557	0.50315
2005.70701	0.50269
2003.77844	0.50215
2001.84988	0.50151
1999.92131	0.50085
1997.99275	0.50032
1996.06418	0.49999
1994.13562	0.49953
1992.20706	0.49851
1990.27849	0.49697
1988.34993	0.49550
1986.42136	0.49444
1984.49280	0.49348
1982.56423	0.49222
1980.63567	0.49077
1978.70710	0.48928
1976.77854	0.48778
1974.84998	0.48638
1972.92141	0.48496
1970.99285	0.48358
1969.06428	0.48244
1967.13572	0.48123
1965.20715	0.47990
1963.27859	0.47899
1961.35002	0.47840
1959.42146	0.47779
1957.49290	0.47724
1955.56433	0.47681
1953.63577	0.47630
1951.70720	0.47575
1949.77864	0.47537
1947.85007	0.47511
1945.92151	0.47485
1943.99294	0.47460
1942.06438	0.47414
1940.13582	0.47333
1938.20725	0.47244
1936.27869	0.47171
1934.35012	0.47113
1932.42156	0.47064
1930.49299	0.47043
1928.56443	0.47040
1926.63586	0.47031
1924.70730	0.47023
1922.77874	0.47028
1920.85017	0.47055
1918.92161	0.47098
1916.99304	0.47137
1915.06448	0.47184
1913.13591	0.47256
1911.20735	0.47335
1909.27878	0.47393
1907.35022	0.47439
1905.42166	0.47496
1903.49309	0.47552
1901.56453	0.47588
1899.63596	0.47605
1897.70740	0.47618
1895.77883	0.47628
1893.85027	0.47628
1891.92171	0.47621
1889.99314	0.47589
1888.06458	0.47516
1886.13601	0.47446
1884.20745	0.47392
1882.27888	0.47330
1880.35032	0.47238
1878.42175	0.47125
1876.49319	0.47020
1874.56463	0.46933
1872.63606	0.46870
1870.70750	0.46815
1868.77893	0.46724
1866.85037	0.46612
1864.92180	0.46520
1862.99324	0.46442
1861.06467	0.46359
1859.13611	0.46264
1857.20755	0.46170
1855.27898	0.46100
1853.35042	0.46045
1851.42185	0.45988
1849.49329	0.45930
1847.56472	0.45873
1845.63616	0.45795
1843.70759	0.45677
1841.77903	0.45594
1839.85047	0.45558
1837.92190	0.45505
1835.99334	0.45421
1834.06477	0.45344
1832.13621	0.45303
1830.20764	0.45250
1828.27908	0.45176
1826.35051	0.45114
1824.42195	0.45039
1822.49339	0.44956
1820.56482	0.44885
1818.63626	0.44818
1816.70769	0.44747
1814.77913	0.44691
1812.85056	0.44645
1810.92200	0.44576
1808.99343	0.44489
1807.06487	0.44419
1805.13631	0.44379
1803.20774	0.44342
1801.27918	0.44287
1799.35061	0.44233
1797.42205	0.44215
1795.49348	0.44225
1793.56492	0.44231
1791.63635	0.44213
1789.70779	0.44205
1787.77923	0.44240
1785.85066	0.44289
1783.92210	0.44334
1781.99353	0.44379
1780.06497	0.44437
1778.13640	0.44534
1776.20784	0.44647
1774.27927	0.44752
1772.35071	0.44808
1770.42215	0.44820
1768.49358	0.44876
1766.56502	0.44972
1764.63645	0.45093
1762.70789	0.45247
1760.77932	0.45434
1758.85076	0.45630
1756.92220	0.45891
1754.99363	0.46232
1753.06507	0.46636
1751.13650	0.47221
1749.20794	0.47982
1747.27937	0.48640
1745.35081	0.49164
1743.42224	0.49662
1741.49368	0.50145
1739.56512	0.50557
1737.63655	0.50832
1735.70799	0.50965
1733.77942	0.51013
1731.85086	0.51046
1729.92229	0.51116
1727.99373	0.51224
1726.06516	0.51389
1724.13660	0.51678
1722.20804	0.52061
1720.27947	0.52497
1718.35091	0.53144
1716.42234	0.54156
1714.49378	0.55094
1712.56521	0.55897
1710.63665	0.56816
1708.70808	0.57950
1706.77952	0.59599
1704.85096	0.61792
1702.92239	0.63898
1700.99383	0.66889
1699.06526	0.71545
1697.13670	0.75964
1695.20813	0.80283
1693.27957	0.83551
1691.35100	0.86220
1689.42244	0.89486
1687.49388	0.92658
1685.56531	0.95994
1683.63675	1.01334
1681.70818	1.05574
1679.77962	1.08323
1677.85105	1.11083
1675.92249	1.14424
1673.99392	1.17999
1672.06536	1.20792
1670.13680	1.23941
1668.20823	1.27636
1666.27967	1.30068
1664.35110	1.32270
1662.42254	1.35067
1660.49397	1.37284
1658.56541	1.38598
1656.63684	1.39480
1654.70828	1.40205
1652.77972	1.41125
1650.85115	1.41812
1648.92259	1.41987
1646.99402	1.41729
1645.06546	1.41725
1643.13689	1.41924
1641.20833	1.41900
1639.27976	1.41553
1637.35120	1.41140
1635.42264	1.40973
1633.49407	1.40895
1631.56551	1.40635
1629.63694	1.39987
1627.70838	1.38989
1625.77981	1.37768
1623.85125	1.35886
1621.92269	1.33439
1619.99412	1.31389
1618.06556	1.28673
1616.13699	1.24124
1614.20843	1.20416
1612.27986	1.17683
1610.35130	1.14678
1608.42273	1.11561
1606.49417	1.09063
1604.56561	1.07184
1602.63704	1.05601
1600.70848	1.04429
1598.77991	1.03721
1596.85135	1.03235
1594.92278	1.02835
1592.99422	1.02582
1591.06565	1.02498
1589.13709	1.02588
1587.20853	1.02935
1585.27996	1.03634
1583.35140	1.04708
1581.42283	1.05939
1579.49427	1.07095
1577.56570	1.08537
1575.63714	1.10755
1573.70857	1.12512
1571.78001	1.13803
1569.85145	1.15614
1567.92288	1.17553
1565.99432	1.19114
1564.06575	1.20712
1562.13719	1.22045
1560.20862	1.23451
1558.28006	1.26277
1556.35149	1.28000
1554.42293	1.28852
1552.49437	1.29628
1550.56580	1.30396
1548.63724	1.31094
1546.70867	1.31584
1544.78011	1.31826
1542.85154	1.31730
1540.92298	1.31094
1538.99441	1.30176
1537.06585	1.29755
1535.13729	1.29253
1533.20872	1.28538
1531.28016	1.28089
1529.35159	1.27834
1527.42303	1.27427
1525.49446	1.26921
1523.56590	1.26636
1521.63733	1.26313
1519.70877	1.25929
1517.78021	1.25527
1515.85164	1.24737
1513.92308	1.23544
1511.99451	1.22115
1510.06595	1.20596
1508.13738	1.17748
1506.20882	1.12507
1504.28025	1.09895
1502.35169	1.08269
1500.42313	1.06141
1498.49456	1.03179
1496.56600	0.99753
1494.63743	0.97323
1492.70887	0.95781
1490.78030	0.93910
1488.85174	0.91313
1486.92317	0.89406
1484.99461	0.88318
1483.06605	0.87539
1481.13748	0.86957
1479.20892	0.86715
1477.28035	0.86928
1475.35179	0.87636
1473.42322	0.89027
1471.49466	0.90652
1469.56610	0.91657
1467.63753	0.92404
1465.70897	0.93358
1463.78040	0.94439
1461.85184	0.95122
1459.92327	0.95518
1457.99471	0.96062
1456.06614	0.96806
1454.13758	0.97173
1452.20902	0.97294
1450.28045	0.97325
1448.35189	0.97345
1446.42332	0.97343
1444.49476	0.97183
1442.56619	0.96798
1440.63763	0.96315
1438.70906	0.95773
1436.78050	0.94951
1434.85194	0.94042
1432.92337	0.93304
1430.99481	0.92454
1429.06624	0.91498
1427.13768	0.90772
1425.20911	0.90299
1423.28055	0.90022
1421.35198	0.89929
1419.42342	0.89983
1417.49486	0.90084
1415.56629	0.90030
1413.63773	0.89815
1411.70916	0.89523
1409.78060	0.89274
1407.85203	0.89136
1405.92347	0.89106
1403.99490	0.89164
1402.06634	0.89261
1400.13778	0.89403
1398.20921	0.89621
1396.28065	0.89867
1394.35208	0.90104
1392.42352	0.90377
1390.49495	0.90782
1388.56639	0.91538
1386.63782	0.92803
1384.70926	0.94261
1382.78070	0.95693
1380.85213	0.96995
1378.92357	0.97842
1376.99500	0.98014
1375.06644	0.97386
1373.13787	0.96063
1371.20931	0.94531
1369.28074	0.92754
1367.35218	0.90745
1365.42362	0.88866
1363.49505	0.86970
1361.56649	0.85082
1359.63792	0.83717
1357.70936	0.82790
1355.78079	0.82049
1353.85223	0.81455
1351.92366	0.81016
1349.99510	0.80688
1348.06654	0.80455
1346.13797	0.80326
1344.20941	0.80300
1342.28084	0.80366
1340.35228	0.80547
1338.42371	0.80862
1336.49515	0.81321
1334.56659	0.81984
1332.63802	0.82844
1330.70946	0.83783
1328.78089	0.84618
1326.85233	0.85217
1324.92376	0.85593
1322.99520	0.85860
1321.06663	0.86089
1319.13807	0.86278
1317.20951	0.86413
1315.28094	0.86491
1313.35238	0.86526
1311.42381	0.86524
1309.49525	0.86448
1307.56668	0.86258
1305.63812	0.85998
1303.70955	0.85736
1301.78099	0.85453
1299.85243	0.85116
1297.92386	0.84726
1295.99530	0.84319
1294.06673	0.83981
1292.13817	0.83810
1290.20960	0.83838
1288.28104	0.84008
1286.35247	0.84227
1284.42391	0.84438
1282.49535	0.84634
1280.56678	0.84806
1278.63822	0.84970
1276.70965	0.85176
1274.78109	0.85434
1272.85252	0.85758
1270.92396	0.86186
1268.99539	0.86694
1267.06683	0.87191
1265.13827	0.87607
1263.20970	0.87900
1261.28114	0.88015
1259.35257	0.88000
1257.42401	0.87995
1255.49544	0.88023
1253.56688	0.88040
1251.63831	0.88072
1249.70975	0.88153
1247.78119	0.88253
1245.85262	0.88328
1243.92406	0.88366
1241.99549	0.88384
1240.06693	0.88395
1238.13836	0.88353
1236.20980	0.88201
1234.28123	0.87903
1232.35267	0.87456
1230.42411	0.86925
1228.49554	0.86350
1226.56698	0.85666
1224.63841	0.84858
1222.70985	0.84016
1220.78128	0.83192
1218.85272	0.82381
1216.92415	0.81623
1214.99559	0.81030
1213.06703	0.80683
1211.13846	0.80546
1209.20990	0.80519
1207.28133	0.80474
1205.35277	0.80262
1203.42420	0.79786
1201.49564	0.79094
1199.56708	0.78314
1197.63851	0.77520
1195.70995	0.76762
1193.78138	0.76106
1191.85282	0.75631
1189.92425	0.75365
1187.99569	0.75230
1186.06712	0.75164
1184.13856	0.75178
1182.21000	0.75297
1180.28143	0.75543
1178.35287	0.75927
1176.42430	0.76430
1174.49574	0.77021
1172.56717	0.77700
1170.63861	0.78517
1168.71004	0.79545
1166.78148	0.80805
1164.85292	0.82215
1162.92435	0.83598
1160.99579	0.84718
1159.06722	0.85367
1157.13866	0.85450
1155.21009	0.84960
1153.28153	0.83978
1151.35296	0.82731
1149.42440	0.81411
1147.49584	0.80075
1145.56727	0.78837
1143.63871	0.77929
1141.71014	0.77496
1139.78158	0.77486
1137.85301	0.77744
1135.92445	0.78198
1133.99588	0.78872
1132.06732	0.79777
1130.13876	0.80911
1128.21019	0.82224
1126.28163	0.83595
1124.35306	0.84918
1122.42450	0.86098
1120.49593	0.87017
1118.56737	0.87572
1116.63880	0.87745
1114.71024	0.87558
1112.78168	0.87010
1110.85311	0.86222
1108.92455	0.85407
1106.99598	0.84679
1105.06742	0.84076
1103.13885	0.83635
1101.21029	0.83435
1099.28172	0.83583
1097.35316	0.84094
1095.42460	0.84878
1093.49603	0.85930
1091.56747	0.87327
1089.63890	0.89007
1087.71034	0.90841
1085.78177	0.92863
1083.85321	0.95076
1081.92464	0.97181
1079.99608	0.98773
1078.06752	0.99714
1076.13895	1.00090
1074.21039	0.99937
1072.28182	0.99253
1070.35326	0.98129
1068.42469	0.96726
1066.49613	0.95225
1064.56756	0.93776
1062.63900	0.92446
1060.71044	0.91217
1058.78187	0.90037
1056.85331	0.88934
1054.92474	0.87985
1052.99618	0.87281
1051.06761	0.86914
1049.13905	0.86895
1047.21049	0.87218
1045.28192	0.87899
1043.35336	0.88848
1041.42479	0.89923
1039.49623	0.91071
1037.56766	0.92214
1035.63910	0.93165
1033.71053	0.93785
1031.78197	0.94037
1029.85341	0.93912
1027.92484	0.93425
1025.99628	0.92654
1024.06771	0.91729
1022.13915	0.90712
1020.21058	0.89627
1018.28202	0.88534
1016.35345	0.87435
1014.42489	0.86231
1012.49633	0.84850
1010.56776	0.83263
1008.63920	0.81470
1006.71063	0.79609
1004.78207	0.77892
1002.85350	0.76373
1000.92494	0.75023
998.99637	0.73930
997.06781	0.73170
995.13925	0.72637
993.21068	0.72161
991.28212	0.71689
989.35355	0.71281
987.42499	0.70954
985.49642	0.70681
983.56786	0.70491
981.63929	0.70420
979.71073	0.70439
977.78217	0.70450
975.85360	0.70327
973.92504	0.69966
971.99647	0.69311
970.06791	0.68369
968.13934	0.67254
966.21078	0.66161
964.28221	0.65224
962.35365	0.64522
960.42509	0.64183
958.49652	0.64273
956.56796	0.64573
954.63939	0.64672
952.71083	0.64336
950.78226	0.63649
948.85370	0.62834
946.92513	0.62075
944.99657	0.61479
943.06801	0.61086
941.13944	0.60877
939.21088	0.60800
937.28231	0.60797
935.35375	0.60842
933.42518	0.60923
931.49662	0.61037
929.56805	0.61207
927.63949	0.61434
925.71093	0.61684
923.78236	0.61924
921.85380	0.62099
919.92523	0.62167
917.99667	0.62124
916.06810	0.61971
914.13954	0.61726
912.21098	0.61466
910.28241	0.61275
908.35385	0.61194
906.42528	0.61219
904.49672	0.61329
902.56815	0.61500
900.63959	0.61695
898.71102	0.61887
896.78246	0.62086
894.85390	0.62287
892.92533	0.62484
890.99677	0.62687
889.06820	0.62902
887.13964	0.63131
885.21107	0.63388
883.28251	0.63680
881.35394	0.64001
879.42538	0.64329
877.49682	0.64613
875.56825	0.64820
873.63969	0.64918
871.71112	0.64835
869.78256	0.64554
867.85399	0.64179
865.92543	0.63823
863.99686	0.63437
862.06830	0.62931
860.13974	0.62407
858.21117	0.62023
856.28261	0.61769
854.35404	0.61575
852.42548	0.61434
850.49691	0.61376
848.56835	0.61433
846.63978	0.61590
844.71122	0.61824
842.78266	0.62155
840.85409	0.62591
838.92553	0.63102
836.99696	0.63654
835.06840	0.64208
833.13983	0.64718
831.21127	0.65169
829.28270	0.65551
827.35414	0.65818
825.42558	0.65928
823.49701	0.65913
821.56845	0.65824
819.63988	0.65633
817.71132	0.65287
815.78275	0.64797
813.85419	0.64218
811.92562	0.63599
809.99706	0.62955
808.06850	0.62348
806.13993	0.61868
804.21137	0.61530
802.28280	0.61336
800.35424	0.61312
798.42567	0.61427
796.49711	0.61645
794.56854	0.62014
792.63998	0.62541
790.71142	0.63175
788.78285	0.63886
786.85429	0.64635
784.92572	0.65391
782.99716	0.66132
781.06859	0.66814
779.14003	0.67391
777.21147	0.67830
775.28290	0.68148
773.35434	0.68391
771.42577	0.68581
769.49721	0.68706
767.56864	0.68712
765.64008	0.68595
763.71151	0.68433
761.78295	0.68301
759.85439	0.68189
757.92582	0.68046
755.99726	0.67933
754.06869	0.67968
752.14013	0.68130
750.21156	0.68349
748.28300	0.68621
746.35443	0.68924
744.42587	0.69218
742.49731	0.69512
740.56874	0.69855
738.64018	0.70227
736.71161	0.70549
734.78305	0.70861
732.85448	0.71224
730.92592	0.71547
728.99735	0.71695
727.06879	0.71664
725.14023	0.71520
723.21166	0.71309
721.28310	0.71057
719.35453	0.70756
717.42597	0.70391
715.49740	0.70046
713.56884	0.69859
711.64027	0.69831
709.71171	0.69859
707.78315	0.69937
705.85458	0.70104
703.92602	0.70389
701.99745	0.70752
700.06889	0.71056
698.14032	0.71255
696.21176	0.71450
694.28319	0.71682
692.35463	0.71876
690.42607	0.71988
688.49750	0.72032
686.56894	0.71959
684.64037	0.71715
682.71181	0.71357
680.78324	0.70936
678.85468	0.70425
676.92611	0.69881
674.99755	0.69364
673.06899	0.68833
671.14042	0.68272
669.21186	0.67619
667.28329	0.67057
665.35473	0.66830
663.42616	0.66678
661.49760	0.66614
659.56903	0.66749
657.64047	0.66997
655.71191	0.67289
653.78334	0.67710
651.85478	0.68258
649.92621	0.68849
647.99765	0.69555
646.06908	0.70397
644.14052	0.71295
642.21195	0.72317
640.28339	0.73456
638.35483	0.74452
636.42626	0.75095
634.49770	0.75388
632.56913	0.75409
630.64057	0.75137
628.71200	0.74657
626.78344	0.74252
624.85488	0.73955
622.92631	0.73575
620.99775	0.73072
619.06918	0.72479
617.14062	0.71844
615.21205	0.71373
613.28349	0.71177
611.35492	0.71117
609.42636	0.71121
607.49780	0.71293
605.56923	0.71621
603.64067	0.71979
601.71210	0.72446
599.78354	0.73150
