3997.91406	0.87800
3995.98550	0.87763
3994.05693	0.87829
3992.12837	0.87845
3990.19980	0.87711
3988.27124	0.87712
3986.34268	0.87991
3984.41411	0.88256
3982.48555	0.88332
3980.55698	0.88187
3978.62842	0.87828
3976.69985	0.87458
3974.77129	0.87325
3972.84272	0.87386
3970.91416	0.87376
3968.98560	0.87357
3967.05703	0.87572
3965.12847	0.87830
3963.19990	0.87780
3961.27134	0.87483
3959.34277	0.87149
3957.41421	0.86936
3955.48564	0.87025
3953.55708	0.87261
3951.62852	0.87428
3949.69995	0.87485
3947.77139	0.87344
3945.84282	0.87150
3943.91426	0.87010
3941.98569	0.86946
3940.05713	0.86940
3938.12856	0.86828
3936.20000	0.86792
3934.27144	0.87108
3932.34287	0.87442
3930.41431	0.87324
3928.48574	0.87054
3926.55718	0.86880
3924.62861	0.86778
3922.70005	0.86866
3920.77148	0.86970
3918.84292	0.86736
3916.91436	0.86279
3914.98579	0.86069
3913.05723	0.86083
3911.12866	0.86090
3909.20010	0.86164
3907.27153	0.86402
3905.34297	0.86626
3903.41440	0.86509
3901.48584	0.86091
3899.55728	0.85653
3897.62871	0.85418
3895.70015	0.85465
3893.77158	0.85519
3891.84302	0.85285
3889.91445	0.85155
3887.98589	0.85292
3886.05733	0.85172
3884.12876	0.84858
3882.20020	0.84686
3880.27163	0.84453
3878.34307	0.84609
3876.41450	0.85087
3874.48594	0.85402
3872.55737	0.85499
3870.62881	0.85042
3868.70025	0.84326
3866.77168	0.84228
3864.84312	0.84197
3862.91455	0.83862
3860.98599	0.83836
3859.05742	0.84343
3857.12886	0.85207
3855.20029	0.85957
3853.27173	0.85261
3851.34317	0.84070
3849.41460	0.83799
3847.48604	0.83861
3845.55747	0.84009
3843.62891	0.84133
3841.70034	0.84226
3839.77178	0.84210
3837.84321	0.83975
3835.91465	0.83834
3833.98609	0.83686
3832.05752	0.83453
3830.12896	0.83419
3828.20039	0.83459
3826.27183	0.83441
3824.34326	0.83697
3822.41470	0.83996
3820.48613	0.83865
3818.55757	0.83958
3816.62901	0.83925
3814.70044	0.83399
3812.77188	0.83259
3810.84331	0.83615
3808.91475	0.84022
3806.98618	0.84083
3805.05762	0.84201
3803.12905	0.84385
3801.20049	0.83907
3799.27193	0.83552
3797.34336	0.83574
3795.41480	0.83405
3793.48623	0.83266
3791.55767	0.83354
3789.62910	0.83532
3787.70054	0.83576
3785.77197	0.83451
3783.84341	0.83445
3781.91485	0.83583
3779.98628	0.83457
3778.05772	0.83103
3776.12915	0.82945
3774.20059	0.82928
3772.27202	0.82836
3770.34346	0.82547
3768.41489	0.82381
3766.48633	0.82450
3764.55777	0.82509
3762.62920	0.82742
3760.70064	0.83004
3758.77207	0.82747
3756.84351	0.82381
3754.91494	0.82492
3752.98638	0.82566
3751.05781	0.81705
3749.12925	0.81244
3747.20069	0.81824
3745.27212	0.81929
3743.34356	0.81613
3741.41499	0.81971
3739.48643	0.82570
3737.55786	0.82880
3735.62930	0.82493
3733.70074	0.81676
3731.77217	0.81335
3729.84361	0.81421
3727.91504	0.81607
3725.98648	0.81682
3724.05791	0.81482
3722.12935	0.81013
3720.20078	0.80750
3718.27222	0.81026
3716.34366	0.81533
3714.41509	0.81857
3712.48653	0.81610
3710.55796	0.80976
3708.62940	0.80896
3706.70083	0.81210
3704.77227	0.81554
3702.84370	0.81628
3700.91514	0.81444
3698.98658	0.81386
3697.05801	0.81491
3695.12945	0.81734
3693.20088	0.82140
3691.27232	0.82540
3689.34375	0.82482
3687.41519	0.82235
3685.48662	0.82372
3683.55806	0.82725
3681.62950	0.83066
3679.70093	0.83392
3677.77237	0.83746
3675.84380	0.83995
3673.91524	0.84421
3671.98667	0.84941
3670.05811	0.85039
3668.12954	0.85073
3666.20098	0.85506
3664.27242	0.86031
3662.34385	0.86431
3660.41529	0.86777
3658.48672	0.87110
3656.55816	0.87256
3654.62959	0.87463
3652.70103	0.88061
3650.77246	0.88681
3648.84390	0.88658
3646.91534	0.88897
3644.98677	0.89671
3643.05821	0.90383
3641.12964	0.90886
3639.20108	0.91475
3637.27251	0.92282
3635.34395	0.92977
3633.41538	0.93461
3631.48682	0.93887
3629.55826	0.94113
3627.62969	0.94320
3625.70113	0.94984
3623.77256	0.95783
3621.84400	0.96474
3619.91543	0.96904
3617.98687	0.97214
3616.05830	0.97729
3614.12974	0.98245
3612.20118	0.98810
3610.27261	0.99579
3608.34405	1.00356
3606.41548	1.01135
3604.48692	1.01885
3602.55835	1.02455
3600.62979	1.02818
3598.70123	1.03147
3596.77266	1.03607
3594.84410	1.04142
3592.91553	1.04681
3590.98697	1.05333
3589.05840	1.06084
3587.12984	1.06715
3585.20127	1.07334
3583.27271	1.07926
3581.34415	1.08323
3579.41558	1.08719
3577.48702	1.09372
3575.55845	1.10228
3573.62989	1.10958
3571.70132	1.11514
3569.77276	1.11977
3567.84419	1.12103
3565.91563	1.12449
3563.98707	1.13620
3562.05850	1.14770
3560.12994	1.15381
3558.20137	1.15816
3556.27281	1.16554
3554.34424	1.17499
3552.41568	1.18288
3550.48711	1.18908
3548.55855	1.19621
3546.62999	1.20154
3544.70142	1.20291
3542.77286	1.20597
3540.84429	1.21168
3538.91573	1.21697
3536.98716	1.22110
3535.05860	1.22584
3533.13003	1.23417
3531.20147	1.24436
3529.27291	1.25006
3527.34434	1.25363
3525.41578	1.26308
3523.48721	1.27294
3521.55865	1.27598
3519.63008	1.27846
3517.70152	1.28479
3515.77295	1.29098
3513.84439	1.29608
3511.91583	1.30245
3509.98726	1.30964
3508.05870	1.31893
3506.13013	1.33155
3504.20157	1.34310
3502.27300	1.34967
3500.34444	1.35630
3498.41587	1.36604
3496.48731	1.37393
3494.55875	1.38016
3492.63018	1.39005
3490.70162	1.39921
3488.77305	1.40300
3486.84449	1.40493
3484.91592	1.40410
3482.98736	1.40131
3481.05879	1.40412
3479.13023	1.41052
3477.20167	1.41364
3475.27310	1.41544
3473.34454	1.42122
3471.41597	1.43136
3469.48741	1.44076
3467.55884	1.44333
3465.63028	1.43898
3463.70171	1.43515
3461.77315	1.43786
3459.84459	1.44505
3457.91602	1.45245
3455.98746	1.45728
3454.05889	1.45732
3452.13033	1.45812
3450.20176	1.46444
3448.27320	1.46739
3446.34464	1.46192
3444.41607	1.45896
3442.48751	1.46511
3440.55894	1.47440
3438.63038	1.47812
3436.70181	1.47748
3434.77325	1.47948
3432.84468	1.48390
3430.91612	1.48666
3428.98756	1.48849
3427.05899	1.49020
3425.13043	1.49015
3423.20186	1.48859
3421.27330	1.48662
3419.34473	1.48553
3417.41617	1.48621
3415.48760	1.48633
3413.55904	1.48581
3411.63048	1.48780
3409.70191	1.49024
3407.77335	1.49074
3405.84478	1.49175
3403.91622	1.49328
3401.98765	1.49428
3400.05909	1.49545
3398.13052	1.49649
3396.20196	1.49870
3394.27340	1.50246
3392.34483	1.50411
3390.41627	1.50333
3388.48770	1.50244
3386.55914	1.50069
3384.63057	1.49845
3382.70201	1.49984
3380.77344	1.50727
3378.84488	1.51578
3376.91632	1.51935
3374.98775	1.51920
3373.05919	1.51879
3371.13062	1.51944
3369.20206	1.52117
3367.27349	1.52420
3365.34493	1.52644
3363.41636	1.52419
3361.48780	1.52166
3359.55924	1.52529
3357.63067	1.53356
3355.70211	1.54220
3353.77354	1.54771
3351.84498	1.54751
3349.91641	1.54518
3347.98785	1.54631
3346.05928	1.54943
3344.13072	1.55034
3342.20216	1.54821
3340.27359	1.54511
3338.34503	1.54559
3336.41646	1.55189
3334.48790	1.56185
3332.55933	1.57138
3330.63077	1.57255
3328.70220	1.56564
3326.77364	1.56293
3324.84508	1.56583
3322.91651	1.56746
3320.98795	1.56978
3319.05938	1.57642
3317.13082	1.58503
3315.20225	1.58994
3313.27369	1.58835
3311.34513	1.58624
3309.41656	1.59048
3307.48800	1.59921
3305.55943	1.60834
3303.63087	1.61487
3301.70230	1.61779
3299.77374	1.62175
3297.84517	1.62347
3295.91661	1.61479
3293.98805	1.60300
3292.05948	1.60117
3290.13092	1.60833
3288.20235	1.61098
3286.27379	1.60535
3284.34522	1.60150
3282.41666	1.60414
3280.48809	1.60970
3278.55953	1.61575
3276.63097	1.62031
3274.70240	1.61836
3272.77384	1.61001
3270.84527	1.60009
3268.91671	1.59172
3266.98814	1.58655
3265.05958	1.58154
3263.13101	1.57665
3261.20245	1.57506
3259.27389	1.57433
3257.34532	1.57579
3255.41676	1.57772
3253.48819	1.57026
3251.55963	1.55731
3249.63106	1.54952
3247.70250	1.54591
3245.77393	1.54149
3243.84537	1.53584
3241.91681	1.52943
3239.98824	1.52225
3238.05968	1.51807
3236.13111	1.51845
3234.20255	1.51758
3232.27398	1.51142
3230.34542	1.50283
3228.41685	1.49538
3226.48829	1.49080
3224.55973	1.48890
3222.63116	1.48563
3220.70260	1.47880
3218.77403	1.47312
3216.84547	1.47191
3214.91690	1.47081
3212.98834	1.46411
3211.05977	1.45453
3209.13121	1.44919
3207.20265	1.44733
3205.27408	1.44251
3203.34552	1.43476
3201.41695	1.42848
3199.48839	1.42301
3197.55982	1.41651
3195.63126	1.41024
3193.70269	1.40466
3191.77413	1.39888
3189.84557	1.39345
3187.91700	1.38988
3185.98844	1.38594
3184.05987	1.37841
3182.13131	1.37015
3180.20274	1.36560
3178.27418	1.36614
3176.34562	1.36902
3174.41705	1.37078
3172.48849	1.37057
3170.55992	1.36608
3168.63136	1.35831
3166.70279	1.35237
3164.77423	1.34784
3162.84566	1.34302
3160.91710	1.33849
3158.98854	1.33363
3157.05997	1.32874
3155.13141	1.32414
3153.20284	1.31986
3151.27428	1.31875
3149.34571	1.32174
3147.41715	1.32412
3145.48858	1.32203
3143.56002	1.31665
3141.63146	1.31078
3139.70289	1.30639
3137.77433	1.30425
3135.84576	1.30483
3133.91720	1.30758
3131.98863	1.30844
3130.06007	1.30492
3128.13150	1.30126
3126.20294	1.30159
3124.27438	1.30348
3122.34581	1.30357
3120.41725	1.30400
3118.48868	1.30625
3116.56012	1.30675
3114.63155	1.30469
3112.70299	1.30265
3110.77442	1.30164
3108.84586	1.30247
3106.91730	1.30368
3104.98873	1.30218
3103.06017	1.29961
3101.13160	1.29878
3099.20304	1.29896
3097.27447	1.29874
3095.34591	1.29826
3093.41734	1.29811
3091.48878	1.29732
3089.56022	1.29477
3087.63165	1.29090
3085.70309	1.28629
3083.77452	1.28101
3081.84596	1.27505
3079.91739	1.26937
3077.98883	1.26668
3076.06026	1.26662
3074.13170	1.26410
3072.20314	1.25799
3070.27457	1.25297
3068.34601	1.25038
3066.41744	1.24703
3064.48888	1.24209
3062.56031	1.23764
3060.63175	1.23393
3058.70318	1.23033
3056.77462	1.22681
3054.84606	1.22250
3052.91749	1.21786
3050.98893	1.21357
3049.06036	1.20834
3047.13180	1.20230
3045.20323	1.19770
3043.27467	1.19471
3041.34610	1.19054
3039.41754	1.18488
3037.48898	1.18095
3035.56041	1.17901
3033.63185	1.17675
3031.70328	1.17396
3029.77472	1.17126
3027.84615	1.16806
3025.91759	1.16462
3023.98903	1.16182
3022.06046	1.15901
3020.13190	1.15576
3018.20333	1.15344
3016.27477	1.15252
3014.34620	1.15126
3012.41764	1.14933
3010.48907	1.14721
3008.56051	1.14455
3006.63195	1.14325
3004.70338	1.14419
3002.77482	1.14481
3000.84625	1.14449
2998.91769	1.14452
2996.98912	1.14570
2995.06056	1.14835
2993.13199	1.15117
2991.20343	1.15283
2989.27487	1.15489
2987.34630	1.15914
2985.41774	1.16462
2983.48917	1.16998
2981.56061	1.17531
2979.63204	1.18191
2977.70348	1.18995
2975.77491	1.19703
2973.84635	1.20250
2971.91779	1.20807
2969.98922	1.21408
2968.06066	1.22023
2966.13209	1.22729
2964.20353	1.23478
2962.27496	1.23984
2960.34640	1.24077
2958.41783	1.23760
2956.48927	1.23113
2954.56071	1.22378
2952.63214	1.21746
2950.70358	1.21283
2948.77501	1.21035
2946.84645	1.21053
2944.91788	1.21359
2942.98932	1.21897
2941.06075	1.22589
2939.13219	1.23475
2937.20363	1.24620
2935.27506	1.25932
2933.34650	1.27235
2931.41793	1.28288
2929.48937	1.28953
2927.56080	1.29442
2925.63224	1.30031
2923.70367	1.30737
2921.77511	1.31197
2919.84655	1.31071
2917.91798	1.30285
2915.98942	1.28659
2914.06085	1.26349
2912.13229	1.24115
2910.20372	1.22397
2908.27516	1.20965
2906.34659	1.19651
2904.41803	1.18674
2902.48947	1.18033
2900.56090	1.17506
2898.63234	1.17122
2896.70377	1.16848
2894.77521	1.16421
2892.84664	1.15867
2890.91808	1.15386
2888.98952	1.14933
2887.06095	1.14539
2885.13239	1.14381
2883.20382	1.14394
2881.27526	1.14436
2879.34669	1.14582
2877.41813	1.14761
2875.48956	1.14698
2873.56100	1.14414
2871.63244	1.14030
2869.70387	1.13506
2867.77531	1.12958
2865.84674	1.12546
2863.91818	1.12294
2861.98961	1.12240
2860.06105	1.12469
2858.13248	1.13020
2856.20392	1.13829
2854.27536	1.14775
2852.34679	1.15645
2850.41823	1.15936
2848.48966	1.14900
2846.56110	1.12426
2844.63253	1.09534
2842.70397	1.07239
2840.77540	1.05724
2838.84684	1.04655
2836.91828	1.03724
2834.98971	1.02906
2833.06115	1.02220
2831.13258	1.01602
2829.20402	1.01066
2827.27545	1.00604
2825.34689	1.00139
2823.41832	0.99715
2821.48976	0.99408
2819.56120	0.99123
2817.63263	0.98773
2815.70407	0.98419
2813.77550	0.98073
2811.84694	0.97705
2809.91837	0.97374
2807.98981	0.97117
2806.06124	0.96871
2804.13268	0.96598
2802.20412	0.96284
2800.27555	0.95930
2798.34699	0.95573
2796.41842	0.95249
2794.48986	0.94969
2792.56129	0.94706
2790.63273	0.94476
2788.70416	0.94267
2786.77560	0.93967
2784.84704	0.93627
2782.91847	0.93349
2780.98991	0.93079
2779.06134	0.92819
2777.13278	0.92607
2775.20421	0.92413
2773.27565	0.92234
2771.34708	0.92072
2769.41852	0.91889
2767.48996	0.91652
2765.56139	0.91357
2763.63283	0.91039
2761.70426	0.90747
2759.77570	0.90531
2757.84713	0.90395
2755.91857	0.90281
2753.99001	0.90123
2752.06144	0.89894
2750.13288	0.89653
2748.20431	0.89484
2746.27575	0.89383
2744.34718	0.89305
2742.41862	0.89194
2740.49005	0.89013
2738.56149	0.88826
2736.63293	0.88716
2734.70436	0.88642
2732.77580	0.88526
2730.84723	0.88373
2728.91867	0.88218
2726.99010	0.88085
2725.06154	0.87956
2723.13297	0.87840
2721.20441	0.87765
2719.27585	0.87649
2717.34728	0.87451
2715.41872	0.87274
2713.49015	0.87139
2711.56159	0.86998
2709.63302	0.86895
2707.70446	0.86823
2705.77589	0.86704
2703.84733	0.86571
2701.91877	0.86493
2699.99020	0.86435
2698.06164	0.86335
2696.13307	0.86220
2694.20451	0.86181
2692.27594	0.86207
2690.34738	0.86208
2688.41881	0.86182
2686.49025	0.86143
2684.56169	0.86072
2682.63312	0.85971
2680.70456	0.85844
2678.77599	0.85731
2676.84743	0.85647
2674.91886	0.85567
2672.99030	0.85508
2671.06173	0.85459
2669.13317	0.85351
2667.20461	0.85138
2665.27604	0.84885
2663.34748	0.84707
2661.41891	0.84635
2659.49035	0.84597
2657.56178	0.84506
2655.63322	0.84339
2653.70465	0.84129
2651.77609	0.83914
2649.84753	0.83716
2647.91896	0.83512
2645.99040	0.83300
2644.06183	0.83142
2642.13327	0.83057
2640.20470	0.82993
2638.27614	0.82909
2636.34757	0.82804
2634.41901	0.82712
2632.49045	0.82643
2630.56188	0.82522
2628.63332	0.82309
2626.70475	0.82094
2624.77619	0.81960
2622.84762	0.81899
2620.91906	0.81853
2618.99049	0.81781
2617.06193	0.81667
2615.13337	0.81502
2613.20480	0.81297
2611.27624	0.81101
2609.34767	0.80943
2607.41911	0.80775
2605.49054	0.80564
2603.56198	0.80374
2601.63342	0.80241
2599.70485	0.80095
2597.77629	0.79913
2595.84772	0.79774
2593.91916	0.79710
2591.99059	0.79656
2590.06203	0.79583
2588.13346	0.79535
2586.20490	0.79518
2584.27634	0.79504
2582.34777	0.79472
2580.41921	0.79426
2578.49064	0.79385
2576.56208	0.79341
2574.63351	0.79325
2572.70495	0.79381
2570.77638	0.79428
2568.84782	0.79382
2566.91926	0.79306
2564.99069	0.79282
2563.06213	0.79298
2561.13356	0.79302
2559.20500	0.79252
2557.27643	0.79158
2555.34787	0.79051
2553.41930	0.78908
2551.49074	0.78744
2549.56218	0.78634
2547.63361	0.78571
2545.70505	0.78508
2543.77648	0.78439
2541.84792	0.78344
2539.91935	0.78206
2537.99079	0.78076
2536.06222	0.77980
2534.13366	0.77888
2532.20510	0.77813
2530.27653	0.77780
2528.34797	0.77735
2526.41940	0.77641
2524.49084	0.77568
2522.56227	0.77569
2520.63371	0.77602
2518.70514	0.77630
2516.77658	0.77639
2514.84802	0.77605
2512.91945	0.77522
2510.99089	0.77419
2509.06232	0.77322
2507.13376	0.77247
2505.20519	0.77197
2503.27663	0.77136
2501.34806	0.77036
2499.41950	0.76905
2497.49094	0.76755
2495.56237	0.76603
2493.63381	0.76446
2491.70524	0.76277
2489.77668	0.76078
2487.84811	0.75849
2485.91955	0.75642
2483.99098	0.75501
2482.06242	0.75414
2480.13386	0.75312
2478.20529	0.75141
2476.27673	0.74925
2474.34816	0.74726
2472.41960	0.74584
2470.49103	0.74474
2468.56247	0.74349
2466.63391	0.74214
2464.70534	0.74095
2462.77678	0.73990
2460.84821	0.73877
2458.91965	0.73788
2456.99108	0.73782
2455.06252	0.73804
2453.13395	0.73753
2451.20539	0.73668
2449.27683	0.73636
2447.34826	0.73617
2445.41970	0.73555
2443.49113	0.73481
2441.56257	0.73420
2439.63400	0.73350
2437.70544	0.73267
2435.77687	0.73194
2433.84831	0.73139
2431.91975	0.73077
2429.99118	0.72988
2428.06262	0.72890
2426.13405	0.72781
2424.20549	0.72654
2422.27692	0.72544
2420.34836	0.72481
2418.41979	0.72441
2416.49123	0.72370
2414.56267	0.72252
2412.63410	0.72127
2410.70554	0.72026
2408.77697	0.71942
2406.84841	0.71855
2404.91984	0.71752
2402.99128	0.71643
2401.06271	0.71563
2399.13415	0.71523
2397.20559	0.71491
2395.27702	0.71448
2393.34846	0.71397
2391.41989	0.71344
2389.49133	0.71282
2387.56276	0.71187
2385.63420	0.71074
2383.70563	0.70970
2381.77707	0.70836
2379.84851	0.70600
2377.91994	0.70240
2375.99138	0.69817
2374.06281	0.69459
2372.13425	0.69153
2370.20568	0.68658
2368.27712	0.68001
2366.34855	0.67500
2364.41999	0.67079
2362.49143	0.66681
2360.56286	0.66531
2358.63430	0.66555
2356.70573	0.66746
2354.77717	0.67040
2352.84860	0.67228
2350.92004	0.67384
2348.99147	0.67472
2347.06291	0.67330
2345.13435	0.66910
2343.20578	0.66388
2341.27722	0.66014
2339.34865	0.65911
2337.42009	0.65978
2335.49152	0.66073
2333.56296	0.66083
2331.63440	0.66004
2329.70583	0.66078
2327.77727	0.66310
2325.84870	0.66500
2323.92014	0.66600
2321.99157	0.66682
2320.06301	0.66841
2318.13444	0.67029
2316.20588	0.67165
2314.27732	0.67229
2312.34875	0.67226
2310.42019	0.67218
2308.49162	0.67255
2306.56306	0.67309
2304.63449	0.67322
2302.70593	0.67284
2300.77736	0.67254
2298.84880	0.67245
2296.92024	0.67227
2294.99167	0.67197
2293.06311	0.67138
2291.13454	0.67033
2289.20598	0.66928
2287.27741	0.66871
2285.34885	0.66853
2283.42028	0.66858
2281.49172	0.66846
2279.56316	0.66770
2277.63459	0.66672
2275.70603	0.66598
2273.77746	0.66524
2271.84890	0.66466
2269.92033	0.66472
2267.99177	0.66514
2266.06320	0.66545
2264.13464	0.66562
2262.20608	0.66573
2260.27751	0.66570
2258.34895	0.66534
2256.42038	0.66470
2254.49182	0.66393
2252.56325	0.66308
2250.63469	0.66244
2248.70612	0.66211
2246.77756	0.66181
2244.84900	0.66141
2242.92043	0.66088
2240.99187	0.66004
2239.06330	0.65889
2237.13474	0.65771
2235.20617	0.65663
2233.27761	0.65557
2231.34904	0.65457
2229.42048	0.65378
2227.49192	0.65298
2225.56335	0.65199
2223.63479	0.65118
2221.70622	0.65081
2219.77766	0.65067
2217.84909	0.65037
2215.92053	0.64958
2213.99196	0.64845
2212.06340	0.64751
2210.13484	0.64678
2208.20627	0.64586
2206.27771	0.64485
2204.34914	0.64420
2202.42058	0.64384
2200.49201	0.64335
2198.56345	0.64271
2196.63488	0.64211
2194.70632	0.64158
2192.77776	0.64116
2190.84919	0.64077
2188.92063	0.64007
2186.99206	0.63897
2185.06350	0.63792
2183.13493	0.63728
2181.20637	0.63696
2179.27781	0.63676
2177.34924	0.63662
2175.42068	0.63629
2173.49211	0.63546
2171.56355	0.63435
2169.63498	0.63356
2167.70642	0.63318
2165.77785	0.63283
2163.84929	0.63243
2161.92073	0.63200
2159.99216	0.63143
2158.06360	0.63084
2156.13503	0.63052
2154.20647	0.63042
2152.27790	0.63011
2150.34934	0.62940
2148.42077	0.62879
2146.49221	0.62860
2144.56365	0.62845
2142.63508	0.62805
2140.70652	0.62758
2138.77795	0.62718
2136.84939	0.62673
2134.92082	0.62610
2132.99226	0.62540
2131.06369	0.62485
2129.13513	0.62440
2127.20657	0.62384
2125.27800	0.62320
2123.34944	0.62260
2121.42087	0.62198
2119.49231	0.62133
2117.56374	0.62076
2115.63518	0.62017
2113.70661	0.61934
2111.77805	0.61839
2109.84949	0.61764
2107.92092	0.61715
2105.99236	0.61662
2104.06379	0.61576
2102.13523	0.61452
2100.20666	0.61321
2098.27810	0.61216
2096.34953	0.61136
2094.42097	0.61068
2092.49241	0.61002
2090.56384	0.60926
2088.63528	0.60839
2086.70671	0.60751
2084.77815	0.60649
2082.84958	0.60539
2080.92102	0.60441
2078.99245	0.60336
2077.06389	0.60222
2075.13533	0.60103
2073.20676	0.59971
2071.27820	0.59844
2069.34963	0.59756
2067.42107	0.59673
2065.49250	0.59530
2063.56394	0.59375
2061.63537	0.59275
2059.70681	0.59171
2057.77825	0.59016
2055.84968	0.58855
2053.92112	0.58713
2051.99255	0.58580
2050.06399	0.58453
2048.13542	0.58314
2046.20686	0.58147
2044.27830	0.57991
2042.34973	0.57880
2040.42117	0.57765
2038.49260	0.57622
2036.56404	0.57473
2034.63547	0.57343
2032.70691	0.57233
2030.77834	0.57111
2028.84978	0.56968
2026.92122	0.56843
2024.99265	0.56753
2023.06409	0.56666
2021.13552	0.56567
2019.20696	0.56463
2017.27839	0.56339
2015.34983	0.56216
2013.42126	0.56131
2011.49270	0.56072
2009.56414	0.56031
2007.63557	0.55997
2005.70701	0.55952
2003.77844	0.55903
2001.84988	0.55859
1999.92131	0.55822
1997.99275	0.55798
1996.06418	0.55789
1994.13562	0.55779
1992.20706	0.55721
1990.27849	0.55616
1988.34993	0.55516
1986.42136	0.55442
1984.49280	0.55388
1982.56423	0.55319
1980.63567	0.55210
1978.70710	0.55096
1976.77854	0.54998
1974.84998	0.54895
1972.92141	0.54782
1970.99285	0.54678
1969.06428	0.54574
1967.13572	0.54436
1965.20715	0.54296
1963.27859	0.54188
1961.35002	0.54086
1959.42146	0.53984
1957.49290	0.53894
1955.56433	0.53791
1953.63577	0.53671
1951.70720	0.53570
1949.77864	0.53510
1947.85007	0.53483
1945.92151	0.53451
1943.99294	0.53355
1942.06438	0.53196
1940.13582	0.53063
1938.20725	0.52960
1936.27869	0.52849
1934.35012	0.52737
1932.42156	0.52621
1930.49299	0.52500
1928.56443	0.52370
1926.63586	0.52265
1924.70730	0.52187
1922.77874	0.52063
1920.85017	0.51907
1918.92161	0.51747
1916.99304	0.51560
1915.06448	0.51421
1913.13591	0.51345
1911.20735	0.51261
1909.27878	0.51129
1907.35022	0.50989
1905.42166	0.50890
1903.49309	0.50815
1901.56453	0.50736
1899.63596	0.50655
1897.70740	0.50582
1895.77883	0.50497
1893.85027	0.50410
1891.92171	0.50344
1889.99314	0.50253
1888.06458	0.50145
1886.13601	0.50069
1884.20745	0.49988
1882.27888	0.49910
1880.35032	0.49857
1878.42175	0.49798
1876.49319	0.49721
1874.56463	0.49656
1872.63606	0.49644
1870.70750	0.49642
1868.77893	0.49511
1866.85037	0.49313
1864.92180	0.49236
1862.99324	0.49221
1861.06467	0.49185
1859.13611	0.49130
1857.20755	0.49101
1855.27898	0.49119
1853.35042	0.49154
1851.42185	0.49184
1849.49329	0.49219
1847.56472	0.49273
1845.63616	0.49287
1843.70759	0.49184
1841.77903	0.49116
1839.85047	0.49143
1837.92190	0.49160
1835.99334	0.49132
1834.06477	0.49126
1832.13621	0.49156
1830.20764	0.49120
1828.27908	0.49036
1826.35051	0.48995
1824.42195	0.48923
1822.49339	0.48838
1820.56482	0.48806
1818.63626	0.48811
1816.70769	0.48799
1814.77913	0.48782
1812.85056	0.48788
1810.92200	0.48773
1808.99343	0.48727
1807.06487	0.48707
1805.13631	0.48734
1803.20774	0.48760
1801.27918	0.48714
1799.35061	0.48619
1797.42205	0.48577
1795.49348	0.48592
1793.56492	0.48548
1791.63635	0.48345
1789.70779	0.48183
1787.77923	0.48160
1785.85066	0.48142
1783.92210	0.48082
1781.99353	0.48007
1780.06497	0.47914
1778.13640	0.47878
1776.20784	0.47920
1774.27927	0.47958
1772.35071	0.47857
1770.42215	0.47698
1768.49358	0.47637
1766.56502	0.47639
1764.63645	0.47714
1762.70789	0.47816
1760.77932	0.47923
1758.85076	0.48104
1756.92220	0.48399
1754.99363	0.48806
1753.06507	0.49337
1751.13650	0.50070
1749.20794	0.50948
1747.27937	0.51748
1745.35081	0.52453
1743.42224	0.53116
1741.49368	0.53707
1739.56512	0.54188
1737.63655	0.54565
1735.70799	0.54854
1733.77942	0.55057
1731.85086	0.55203
1729.92229	0.55391
1727.99373	0.55657
1726.06516	0.56039
1724.13660	0.56583
1722.20804	0.57215
1720.27947	0.57901
1718.35091	0.58856
1716.42234	0.60215
1714.49378	0.61456
1712.56521	0.62614
1710.63665	0.63969
1708.70808	0.65596
1706.77952	0.67867
1704.85096	0.70840
1702.92239	0.73680
1700.99383	0.77579
1699.06526	0.83649
1697.13670	0.89417
1695.20813	0.94888
1693.27957	0.98950
1691.35100	1.02259
1689.42244	1.06313
1687.49388	1.10150
1685.56531	1.13845
1683.63675	1.19454
1681.70818	1.23908
1679.77962	1.26563
1677.85105	1.28869
1675.92249	1.31370
1673.99392	1.34058
1672.06536	1.36427
1670.13680	1.38675
1668.20823	1.40355
1666.27967	1.41197
1664.35110	1.42160
1662.42254	1.43389
1660.49397	1.44176
1658.56541	1.44531
1656.63684	1.44694
1654.70828	1.44580
1652.77972	1.43828
1650.85115	1.43750
1648.92259	1.43868
1646.99402	1.43307
1645.06546	1.42855
1643.13689	1.42830
1641.20833	1.42766
1639.27976	1.42566
1637.35120	1.42352
1635.42264	1.42014
1633.49407	1.41608
1631.56551	1.41312
1629.63694	1.40806
1627.70838	1.39965
1625.77981	1.38929
1623.85125	1.37502
1621.92269	1.35739
1619.99412	1.34250
1618.06556	1.32107
1616.13699	1.28347
1614.20843	1.25219
1612.27986	1.22869
1610.35130	1.20314
1608.42273	1.17642
1606.49417	1.15455
1604.56561	1.13823
1602.63704	1.12394
1600.70848	1.11262
1598.77991	1.10603
1596.85135	1.10217
1594.92278	1.09890
1592.99422	1.09664
1591.06565	1.09668
1589.13709	1.09963
1587.20853	1.10578
1585.27996	1.11438
1583.35140	1.12483
1581.42283	1.13689
1579.49427	1.14984
1577.56570	1.16534
1575.63714	1.18572
1573.70857	1.20185
1571.78001	1.21447
1569.85145	1.23230
1567.92288	1.25090
1565.99432	1.26392
1564.06575	1.27627
1562.13719	1.28708
1560.20862	1.29944
1558.28006	1.32107
1556.35149	1.33044
1554.42293	1.33393
1552.49437	1.33729
1550.56580	1.33945
1548.63724	1.33963
1546.70867	1.33890
1544.78011	1.33789
1542.85154	1.33598
1540.92298	1.32829
1538.99441	1.31786
1537.06585	1.31571
1535.13729	1.31305
1533.20872	1.30569
1531.28016	1.29907
1529.35159	1.29479
1527.42303	1.28854
1525.49446	1.28169
1523.56590	1.27853
1521.63733	1.27687
1519.70877	1.27616
1517.78021	1.27371
1515.85164	1.26603
1513.92308	1.25455
1511.99451	1.24112
1510.06595	1.22807
1508.13738	1.20661
1506.20882	1.16051
1504.28025	1.13432
1502.35169	1.12013
1500.42313	1.10404
1498.49456	1.08125
1496.56600	1.05170
1494.63743	1.02863
1492.70887	1.01388
1490.78030	0.99649
1488.85174	0.97151
1486.92317	0.95178
1484.99461	0.93964
1483.06605	0.93061
1481.13748	0.92396
1479.20892	0.92144
1477.28035	0.92316
1475.35179	0.92848
1473.42322	0.93942
1471.49466	0.95301
1469.56610	0.96220
1467.63753	0.96953
1465.70897	0.97753
1463.78040	0.98506
1461.85184	0.99033
1459.92327	0.99454
1457.99471	0.99952
1456.06614	1.00502
1454.13758	1.00808
1452.20902	1.00944
1450.28045	1.00968
1448.35189	1.00824
1446.42332	1.00483
1444.49476	1.00071
1442.56619	0.99641
1440.63763	0.99216
1438.70906	0.98680
1436.78050	0.97688
1434.85194	0.96595
1432.92337	0.95876
1430.99481	0.95144
1429.06624	0.94325
1427.13768	0.93780
1425.20911	0.93519
1423.28055	0.93440
1421.35198	0.93559
1419.42342	0.93831
1417.49486	0.94065
1415.56629	0.94178
1413.63773	0.94226
1411.70916	0.94203
1409.78060	0.94200
1407.85203	0.94297
1405.92347	0.94446
1403.99490	0.94601
1402.06634	0.94768
1400.13778	0.94951
1398.20921	0.95127
1396.28065	0.95310
1394.35208	0.95535
1392.42352	0.95877
1390.49495	0.96449
1388.56639	0.97427
1386.63782	0.98841
1384.70926	1.00244
1382.78070	1.01456
1380.85213	1.02450
1378.92357	1.02977
1376.99500	1.02835
1375.06644	1.01860
1373.13787	1.00224
1371.20931	0.98542
1369.28074	0.96688
1367.35218	0.94623
1365.42362	0.92763
1363.49505	0.90917
1361.56649	0.89072
1359.63792	0.87793
1357.70936	0.87014
1355.78079	0.86449
1353.85223	0.85999
1351.92366	0.85633
1349.99510	0.85319
1348.06654	0.85068
1346.13797	0.84908
1344.20941	0.84871
1342.28084	0.84957
1340.35228	0.85104
1338.42371	0.85308
1336.49515	0.85717
1334.56659	0.86366
1332.63802	0.87155
1330.70946	0.87978
1328.78089	0.88683
1326.85233	0.89153
1324.92376	0.89413
1322.99520	0.89565
1321.06663	0.89708
1319.13807	0.89870
1317.20951	0.90037
1315.28094	0.90200
1313.35238	0.90335
1311.42381	0.90399
1309.49525	0.90361
1307.56668	0.90215
1305.63812	0.89991
1303.70955	0.89753
1301.78099	0.89527
1299.85243	0.89245
1297.92386	0.88861
1295.99530	0.88469
1294.06673	0.88185
1292.13817	0.88075
1290.20960	0.88176
1288.28104	0.88413
1286.35247	0.88645
1284.42391	0.88806
1282.49535	0.88906
1280.56678	0.89011
1278.63822	0.89201
1276.70965	0.89513
1274.78109	0.89948
1272.85252	0.90497
1270.92396	0.91148
1268.99539	0.91861
1267.06683	0.92536
1265.13827	0.93070
1263.20970	0.93419
1261.28114	0.93550
1259.35257	0.93508
1257.42401	0.93428
1255.49544	0.93399
1253.56688	0.93467
1251.63831	0.93594
1249.70975	0.93658
1247.78119	0.93620
1245.85262	0.93577
1243.92406	0.93565
1241.99549	0.93496
1240.06693	0.93309
1238.13836	0.93038
1236.20980	0.92691
1234.28123	0.92243
1232.35267	0.91717
1230.42411	0.91127
1228.49554	0.90433
1226.56698	0.89658
1224.63841	0.88858
1222.70985	0.87999
1220.78128	0.87069
1218.85272	0.86177
1216.92415	0.85438
1214.99559	0.84939
1213.06703	0.84746
1211.13846	0.84773
1209.20990	0.84811
1207.28133	0.84739
1205.35277	0.84460
1203.42420	0.83826
1201.49564	0.82871
1199.56708	0.81805
1197.63851	0.80777
1195.70995	0.79854
1193.78138	0.79081
1191.85282	0.78527
1189.92425	0.78219
1187.99569	0.78089
1186.06712	0.78093
1184.13856	0.78270
1182.21000	0.78682
1180.28143	0.79359
1178.35287	0.80312
1176.42430	0.81525
1174.49574	0.82901
1172.56717	0.84351
1170.63861	0.85913
1168.71004	0.87657
1166.78148	0.89569
1164.85292	0.91490
1162.92435	0.93118
1160.99579	0.94167
1159.06722	0.94505
1157.13866	0.94142
1155.21009	0.93217
1153.28153	0.91985
1151.35296	0.90628
1149.42440	0.89213
1147.49584	0.87864
1145.56727	0.86733
1143.63871	0.85969
1141.71014	0.85716
1139.78158	0.85967
1137.85301	0.86551
1135.92445	0.87371
1133.99588	0.88500
1132.06732	0.90000
1130.13876	0.91824
1128.21019	0.93828
1126.28163	0.95817
1124.35306	0.97628
1122.42450	0.99101
1120.49593	1.00169
1118.56737	1.00937
1116.63880	1.01345
1114.71024	1.01188
1112.78168	1.00606
1110.85311	0.99949
1108.92455	0.99326
1106.99598	0.98746
1105.06742	0.98287
1103.13885	0.97999
1101.21029	0.97954
1099.28172	0.98282
1097.35316	0.98983
1095.42460	0.99930
1093.49603	1.01082
1091.56747	1.02524
1089.63890	1.04234
1087.71034	1.06021
1085.78177	1.07698
1083.85321	1.09150
1081.92464	1.10253
1079.99608	1.10897
1078.06752	1.11050
1076.13895	1.10638
1074.21039	1.09646
1072.28182	1.08303
1070.35326	1.06899
1068.42469	1.05517
1066.49613	1.04111
1064.56756	1.02741
1062.63900	1.01466
1060.71044	1.00228
1058.78187	0.99068
1056.85331	0.98119
1054.92474	0.97400
1052.99618	0.96877
1051.06761	0.96589
1049.13905	0.96561
1047.21049	0.96793
1045.28192	0.97332
1043.35336	0.98166
1041.42479	0.99107
1039.49623	0.99853
1037.56766	1.00288
1035.63910	1.00519
1033.71053	1.00547
1031.78197	1.00257
1029.85341	0.99646
1027.92484	0.98773
1025.99628	0.97665
1024.06771	0.96429
1022.13915	0.95271
1020.21058	0.94282
1018.28202	0.93423
1016.35345	0.92598
1014.42489	0.91539
1012.49633	0.89983
1010.56776	0.88004
1008.63920	0.85912
1006.71063	0.83882
1004.78207	0.81933
1002.85350	0.80122
1000.92494	0.78549
998.99637	0.77327
997.06781	0.76477
995.13925	0.75820
993.21068	0.75156
991.28212	0.74441
989.35355	0.73711
987.42499	0.72992
985.49642	0.72331
983.56786	0.71829
981.63929	0.71547
979.71073	0.71463
977.78217	0.71464
975.85360	0.71379
973.92504	0.71075
971.99647	0.70536
970.06791	0.69849
968.13934	0.69163
966.21078	0.68635
964.28221	0.68423
962.35365	0.68667
960.42509	0.69435
958.49652	0.70611
956.56796	0.71774
954.63939	0.72375
952.71083	0.72178
950.78226	0.71406
948.85370	0.70447
946.92513	0.69594
944.99657	0.68980
943.06801	0.68598
941.13944	0.68346
939.21088	0.68151
937.28231	0.68047
935.35375	0.68050
933.42518	0.68100
931.49662	0.68174
929.56805	0.68312
927.63949	0.68556
925.71093	0.68915
923.78236	0.69335
921.85380	0.69706
919.92523	0.69944
917.99667	0.70056
916.06810	0.70115
914.13954	0.70221
912.21098	0.70452
910.28241	0.70812
908.35385	0.71295
906.42528	0.71883
904.49672	0.72503
902.56815	0.73086
900.63959	0.73591
898.71102	0.73983
896.78246	0.74236
894.85390	0.74349
892.92533	0.74329
890.99677	0.74175
889.06820	0.73955
887.13964	0.73767
885.21107	0.73624
883.28251	0.73520
881.35394	0.73480
879.42538	0.73502
877.49682	0.73552
875.56825	0.73613
873.63969	0.73685
871.71112	0.73769
869.78256	0.73871
867.85399	0.74016
865.92543	0.74244
863.99686	0.74575
862.06830	0.74961
860.13974	0.75383
858.21117	0.75925
856.28261	0.76597
854.35404	0.77291
852.42548	0.77941
850.49691	0.78563
848.56835	0.79169
846.63978	0.79730
844.71122	0.80285
842.78266	0.80917
840.85409	0.81604
838.92553	0.82278
836.99696	0.82934
835.06840	0.83573
833.13983	0.84147
831.21127	0.84672
829.28270	0.85200
827.35414	0.85658
825.42558	0.85995
823.49701	0.86269
821.56845	0.86530
819.63988	0.86816
817.71132	0.87137
815.78275	0.87423
813.85419	0.87623
811.92562	0.87766
809.99706	0.87879
808.06850	0.87969
806.13993	0.88018
804.21137	0.88030
802.28280	0.88114
800.35424	0.88249
798.42567	0.88342
796.49711	0.88474
794.56854	0.88709
792.63998	0.89024
790.71142	0.89433
788.78285	0.89913
786.85429	0.90387
784.92572	0.90809
782.99716	0.91190
781.06859	0.91578
779.14003	0.91962
777.21147	0.92269
775.28290	0.92514
773.35434	0.92753
771.42577	0.92979
769.49721	0.93169
767.56864	0.93270
765.64008	0.93219
763.71151	0.93048
761.78295	0.92842
759.85439	0.92673
757.92582	0.92547
755.99726	0.92410
754.06869	0.92189
752.14013	0.91861
750.21156	0.91574
748.28300	0.91437
746.35443	0.91385
744.42587	0.91334
742.49731	0.91258
740.56874	0.91242
738.64018	0.91409
736.71161	0.91772
734.78305	0.92259
732.85448	0.92812
730.92592	0.93456
728.99735	0.94189
727.06879	0.94976
725.14023	0.95917
723.21166	0.97087
721.28310	0.98318
719.35453	0.99300
717.42597	0.99992
715.49740	1.00646
713.56884	1.01400
711.64027	1.02183
709.71171	1.02871
707.78315	1.03405
705.85458	1.03743
703.92602	1.03832
701.99745	1.03692
700.06889	1.03350
698.14032	1.02875
696.21176	1.02414
694.28319	1.01954
692.35463	1.01394
690.42607	1.00903
688.49750	1.00733
686.56894	1.00834
684.64037	1.01006
682.71181	1.01121
680.78324	1.01153
678.85468	1.01304
676.92611	1.01775
674.99755	1.02386
673.06899	1.02873
671.14042	1.03238
669.21186	1.03785
667.28329	1.04858
665.35473	1.05810
663.42616	1.06436
661.49760	1.06866
659.56903	1.07135
657.64047	1.07011
655.71191	1.06371
653.78334	1.05621
651.85478	1.04853
649.92621	1.03808
647.99765	1.02636
646.06908	1.01486
644.14052	1.00203
642.21195	0.98936
640.28339	0.97963
638.35483	0.97232
636.42626	0.96513
634.49770	0.95664
632.56913	0.94801
630.64057	0.94101
628.71200	0.93651
626.78344	0.93554
624.85488	0.93749
622.92631	0.94120
620.99775	0.94661
619.06918	0.95303
617.14062	0.96247
615.21205	0.97644
613.28349	0.99013
611.35492	1.00007
609.42636	1.00827
607.49780	1.01904
605.56923	1.03475
603.64067	1.05239
601.71210	1.06757
599.78354	1.07831
