3997.91406	0.94887
3995.98550	0.94843
3994.05693	0.94734
3992.12837	0.94559
3990.19980	0.94376
3988.27124	0.94382
3986.34268	0.94633
3984.41411	0.94818
3982.48555	0.94693
3980.55698	0.94380
3978.62842	0.94090
3976.69985	0.93853
3974.77129	0.93691
3972.84272	0.93728
3970.91416	0.93887
3968.98560	0.93971
3967.05703	0.93987
3965.12847	0.94065
3963.19990	0.94129
3961.27134	0.94012
3959.34277	0.93862
3957.41421	0.93751
3955.48564	0.93698
3953.55708	0.93780
3951.62852	0.93830
3949.69995	0.93766
3947.77139	0.93634
3945.84282	0.93508
3943.91426	0.93403
3941.98569	0.93215
3940.05713	0.93012
3938.12856	0.92858
3936.20000	0.92839
3934.27144	0.92975
3932.34287	0.92985
3930.41431	0.92792
3928.48574	0.92782
3926.55718	0.92924
3924.62861	0.92811
3922.70005	0.92627
3920.77148	0.92646
3918.84292	0.92564
3916.91436	0.92348
3914.98579	0.92336
3913.05723	0.92517
3911.12866	0.92603
3909.20010	0.92597
3907.27153	0.92674
3905.34297	0.92532
3903.41440	0.91700
3901.48584	0.90609
3899.55728	0.90079
3897.62871	0.90357
3895.70015	0.91073
3893.77158	0.91733
3891.84302	0.91803
3889.91445	0.91665
3887.98589	0.91711
3886.05733	0.91322
3884.12876	0.91012
3882.20020	0.91210
3880.27163	0.90938
3878.34307	0.90803
3876.41450	0.91218
3874.48594	0.91481
3872.55737	0.91364
3870.62881	0.90816
3868.70025	0.90416
3866.77168	0.90668
3864.84312	0.90554
3862.91455	0.89983
3860.98599	0.90098
3859.05742	0.90826
3857.12886	0.91837
3855.20029	0.92479
3853.27173	0.90905
3851.34317	0.89599
3849.41460	0.90019
3847.48604	0.90672
3845.55747	0.91047
3843.62891	0.91114
3841.70034	0.91167
3839.77178	0.91082
3837.84321	0.90527
3835.91465	0.90304
3833.98609	0.90451
3832.05752	0.90405
3830.12896	0.90413
3828.20039	0.90629
3826.27183	0.90671
3824.34326	0.90740
3822.41470	0.90694
3820.48613	0.89856
3818.55757	0.89409
3816.62901	0.89316
3814.70044	0.89245
3812.77188	0.89637
3810.84331	0.90222
3808.91475	0.90576
3806.98618	0.90438
3805.05762	0.90423
3803.12905	0.90483
3801.20049	0.89874
3799.27193	0.89616
3797.34336	0.89742
3795.41480	0.89680
3793.48623	0.89665
3791.55767	0.89659
3789.62910	0.89598
3787.70054	0.89582
3785.77197	0.89563
3783.84341	0.89680
3781.91485	0.90045
3779.98628	0.90195
3778.05772	0.89931
3776.12915	0.89826
3774.20059	0.90144
3772.27202	0.90625
3770.34346	0.90618
3768.41489	0.90229
3766.48633	0.90070
3764.55777	0.90124
3762.62920	0.90493
3760.70064	0.90777
3758.77207	0.90346
3756.84351	0.89961
3754.91494	0.90348
3752.98638	0.90840
3751.05781	0.89962
3749.12925	0.88938
3747.20069	0.89256
3745.27212	0.89535
3743.34356	0.89493
3741.41499	0.89861
3739.48643	0.90446
3737.55786	0.90749
3735.62930	0.90131
3733.70074	0.89010
3731.77217	0.88697
3729.84361	0.89173
3727.91504	0.89717
3725.98648	0.89696
3724.05791	0.89454
3722.12935	0.89308
3720.20078	0.89092
3718.27222	0.89193
3716.34366	0.89670
3714.41509	0.90071
3712.48653	0.89696
3710.55796	0.88768
3708.62940	0.88778
3706.70083	0.89323
3704.77227	0.89807
3702.84370	0.89805
3700.91514	0.89374
3698.98658	0.89288
3697.05801	0.89567
3695.12945	0.89946
3693.20088	0.90363
3691.27232	0.90589
3689.34375	0.90074
3687.41519	0.89477
3685.48662	0.89620
3683.55806	0.90284
3681.62950	0.91199
3679.70093	0.92089
3677.77237	0.92426
3675.84380	0.91527
3673.91524	0.91194
3671.98667	0.91736
3670.05811	0.91358
3668.12954	0.91029
3666.20098	0.91704
3664.27242	0.92616
3662.34385	0.93394
3660.41529	0.93936
3658.48672	0.94315
3656.55816	0.94542
3654.62959	0.94868
3652.70103	0.95484
3650.77246	0.95905
3648.84390	0.95610
3646.91534	0.95646
3644.98677	0.96200
3643.05821	0.96857
3641.12964	0.97565
3639.20108	0.98322
3637.27251	0.98952
3635.34395	0.99373
3633.41538	0.99836
3631.48682	1.00334
3629.55826	1.00241
3627.62969	1.00322
3625.70113	1.01585
3623.77256	1.02927
3621.84400	1.03737
3619.91543	1.03879
3617.98687	1.04048
3616.05830	1.04923
3614.12974	1.05801
3612.20118	1.06270
3610.27261	1.06634
3608.34405	1.06941
3606.41548	1.07429
3604.48692	1.08352
3602.55835	1.09463
3600.62979	1.10283
3598.70123	1.10614
3596.77266	1.10823
3594.84410	1.11206
3592.91553	1.11832
3590.98697	1.12597
3589.05840	1.13310
3587.12984	1.13827
3585.20127	1.14427
3583.27271	1.15269
3581.34415	1.16084
3579.41558	1.16597
3577.48702	1.17015
3575.55845	1.17603
3573.62989	1.18289
3571.70132	1.19097
3569.77276	1.19723
3567.84419	1.19551
3565.91563	1.19550
3563.98707	1.20672
3562.05850	1.21589
3560.12994	1.21964
3558.20137	1.22709
3556.27281	1.23878
3554.34424	1.24732
3552.41568	1.25008
3550.48711	1.25108
3548.55855	1.25456
3546.62999	1.26058
3544.70142	1.26734
3542.77286	1.27100
3540.84429	1.27197
3538.91573	1.27536
3536.98716	1.28240
3535.05860	1.28965
3533.13003	1.29539
3531.20147	1.30045
3529.27291	1.30382
3527.34434	1.30619
3525.41578	1.31101
3523.48721	1.31777
3521.55865	1.32429
3519.63008	1.32947
3517.70152	1.33411
3515.77295	1.34065
3513.84439	1.34791
3511.91583	1.35197
3509.98726	1.35208
3508.05870	1.35281
3506.13013	1.35869
3504.20157	1.36707
3502.27300	1.37207
3500.34444	1.37431
3498.41587	1.37665
3496.48731	1.38081
3494.55875	1.38910
3492.63018	1.39982
3490.70162	1.40719
3488.77305	1.40823
3486.84449	1.40705
3484.91592	1.40715
3482.98736	1.40979
3481.05879	1.41679
3479.13023	1.42413
3477.20167	1.42742
3475.27310	1.42878
3473.34454	1.43124
3471.41597	1.43269
3469.48741	1.43027
3467.55884	1.42648
3465.63028	1.42608
3463.70171	1.43005
3461.77315	1.43375
3459.84459	1.43431
3457.91602	1.43330
3455.98746	1.43135
3454.05889	1.42958
3452.13033	1.43003
3450.20176	1.43258
3448.27320	1.43400
3446.34464	1.43245
3444.41607	1.43044
3442.48751	1.43018
3440.55894	1.43236
3438.63038	1.43733
3436.70181	1.44443
3434.77325	1.45133
3432.84468	1.45617
3430.91612	1.45778
3428.98756	1.45482
3427.05899	1.44980
3425.13043	1.44773
3423.20186	1.44949
3421.27330	1.45130
3419.34473	1.44981
3417.41617	1.44518
3415.48760	1.43983
3413.55904	1.43599
3411.63048	1.43457
3409.70191	1.43517
3407.77335	1.43568
3405.84478	1.43663
3403.91622	1.44126
3401.98765	1.44776
3400.05909	1.45004
3398.13052	1.44570
3396.20196	1.44093
3394.27340	1.44311
3392.34483	1.44994
3390.41627	1.45495
3388.48770	1.45521
3386.55914	1.45153
3384.63057	1.44930
3382.70201	1.45078
3380.77344	1.45065
3378.84488	1.44753
3376.91632	1.44592
3374.98775	1.44725
3373.05919	1.45032
3371.13062	1.45455
3369.20206	1.45823
3367.27349	1.46036
3365.34493	1.46317
3363.41636	1.46448
3361.48780	1.45909
3359.55924	1.45207
3357.63067	1.45071
3355.70211	1.45488
3353.77354	1.46163
3351.84498	1.46536
3349.91641	1.46584
3347.98785	1.46865
3346.05928	1.47245
3344.13072	1.47507
3342.20216	1.47635
3340.27359	1.47401
3338.34503	1.47014
3336.41646	1.46926
3334.48790	1.47106
3332.55933	1.47092
3330.63077	1.46880
3328.70220	1.47035
3326.77364	1.47687
3324.84508	1.48388
3322.91651	1.48637
3320.98795	1.48417
3319.05938	1.48156
3317.13082	1.48190
3315.20225	1.48460
3313.27369	1.48549
3311.34513	1.48410
3309.41656	1.48337
3307.48800	1.48371
3305.55943	1.48543
3303.63087	1.48951
3301.70230	1.49394
3299.77374	1.49274
3297.84517	1.48631
3295.91661	1.48414
3293.98805	1.48769
3292.05948	1.48840
3290.13092	1.48421
3288.20235	1.48203
3286.27379	1.48420
3284.34522	1.48688
3282.41666	1.48814
3280.48809	1.48917
3278.55953	1.48954
3276.63097	1.48512
3274.70240	1.48014
3272.77384	1.48337
3270.84527	1.48752
3268.91671	1.48230
3266.98814	1.47419
3265.05958	1.47246
3263.13101	1.47554
3261.20245	1.47684
3259.27389	1.47290
3257.34532	1.46735
3255.41676	1.46521
3253.48819	1.46397
3251.55963	1.46142
3249.63106	1.45962
3247.70250	1.45938
3245.77393	1.45941
3243.84537	1.45621
3241.91681	1.45192
3239.98824	1.45095
3238.05968	1.45078
3236.13111	1.45174
3234.20255	1.45730
3232.27398	1.46267
3230.34542	1.46215
3228.41685	1.45890
3226.48829	1.45543
3224.55973	1.45123
3222.63116	1.44856
3220.70260	1.44763
3218.77403	1.44753
3216.84547	1.44929
3214.91690	1.45097
3212.98834	1.44833
3211.05977	1.44258
3209.13121	1.44075
3207.20265	1.44357
3205.27408	1.44381
3203.34552	1.44008
3201.41695	1.43636
3199.48839	1.43361
3197.55982	1.43286
3195.63126	1.43401
3193.70269	1.43397
3191.77413	1.43317
3189.84557	1.43288
3187.91700	1.43183
3185.98844	1.43075
3184.05987	1.43065
3182.13131	1.42856
3180.20274	1.42280
3178.27418	1.41826
3176.34562	1.41795
3174.41705	1.41721
3172.48849	1.41410
3170.55992	1.41340
3168.63136	1.41589
3166.70279	1.41689
3164.77423	1.41566
3162.84566	1.41298
3160.91710	1.40852
3158.98854	1.40472
3157.05997	1.40149
3155.13141	1.39764
3153.20284	1.39594
3151.27428	1.39698
3149.34571	1.39885
3147.41715	1.39954
3145.48858	1.39651
3143.56002	1.39261
3141.63146	1.39218
3139.70289	1.39031
3137.77433	1.38365
3135.84576	1.37956
3133.91720	1.38093
3131.98863	1.38142
3130.06007	1.38028
3128.13150	1.38239
3126.20294	1.38463
3124.27438	1.38197
3122.34581	1.37906
3120.41725	1.38037
3118.48868	1.38349
3116.56012	1.38525
3114.63155	1.38517
3112.70299	1.38436
3110.77442	1.38310
3108.84586	1.38196
3106.91730	1.38183
3104.98873	1.37969
3103.06017	1.37404
3101.13160	1.37142
3099.20304	1.37426
3097.27447	1.37637
3095.34591	1.37689
3093.41734	1.37861
3091.48878	1.37989
3089.56022	1.37978
3087.63165	1.37882
3085.70309	1.37707
3083.77452	1.37582
3081.84596	1.37505
3079.91739	1.37388
3077.98883	1.37300
3076.06026	1.37105
3074.13170	1.36710
3072.20314	1.36396
3070.27457	1.36300
3068.34601	1.36383
3066.41744	1.36562
3064.48888	1.36607
3062.56031	1.36531
3060.63175	1.36459
3058.70318	1.36195
3056.77462	1.35747
3054.84606	1.35442
3052.91749	1.35262
3050.98893	1.34920
3049.06036	1.34328
3047.13180	1.33719
3045.20323	1.33472
3043.27467	1.33505
3041.34610	1.33256
3039.41754	1.32666
3037.48898	1.32358
3035.56041	1.32530
3033.63185	1.32657
3031.70328	1.32244
3029.77472	1.31404
3027.84615	1.30708
3025.91759	1.30272
3023.98903	1.29898
3022.06046	1.29740
3020.13190	1.29709
3018.20333	1.29620
3016.27477	1.29645
3014.34620	1.29671
3012.41764	1.29477
3010.48907	1.29137
3008.56051	1.28711
3006.63195	1.28231
3004.70338	1.27913
3002.77482	1.27923
3000.84625	1.28078
2998.91769	1.28228
2996.98912	1.28452
2995.06056	1.28686
2993.13199	1.28833
2991.20343	1.29004
2989.27487	1.29280
2987.34630	1.29581
2985.41774	1.29915
2983.48917	1.30364
2981.56061	1.30796
2979.63204	1.31049
2977.70348	1.31308
2975.77491	1.31910
2973.84635	1.32847
2971.91779	1.33721
2969.98922	1.34241
2968.06066	1.34383
2966.13209	1.34360
2964.20353	1.34556
2962.27496	1.35060
2960.34640	1.35613
2958.41783	1.35826
2956.48927	1.35469
2954.56071	1.34963
2952.63214	1.34725
2950.70358	1.34551
2948.77501	1.34401
2946.84645	1.34568
2944.91788	1.35054
2942.98932	1.35573
2941.06075	1.36001
2939.13219	1.36561
2937.20363	1.37391
2935.27506	1.38108
2933.34650	1.38442
2931.41793	1.38745
2929.48937	1.39175
2927.56080	1.39632
2925.63224	1.40288
2923.70367	1.40883
2921.77511	1.40926
2919.84655	1.40748
2917.91798	1.40653
2915.98942	1.40040
2914.06085	1.38581
2912.13229	1.36845
2910.20372	1.35312
2908.27516	1.34172
2906.34659	1.33576
2904.41803	1.33265
2902.48947	1.32782
2900.56090	1.32157
2898.63234	1.31755
2896.70377	1.31610
2894.77521	1.31396
2892.84664	1.31065
2890.91808	1.30825
2888.98952	1.30613
2887.06095	1.30360
2885.13239	1.30255
2883.20382	1.30381
2881.27526	1.30526
2879.34669	1.30433
2877.41813	1.30221
2875.48956	1.30061
2873.56100	1.29727
2871.63244	1.29235
2869.70387	1.28939
2867.77531	1.28805
2865.84674	1.28564
2863.91818	1.28247
2861.98961	1.28116
2860.06105	1.28242
2858.13248	1.28503
2856.20392	1.28920
2854.27536	1.29536
2852.34679	1.30220
2850.41823	1.30586
2848.48966	1.29908
2846.56110	1.28042
2844.63253	1.25895
2842.70397	1.24215
2840.77540	1.23038
2838.84684	1.22207
2836.91828	1.21572
2834.98971	1.21017
2833.06115	1.20507
2831.13258	1.19929
2829.20402	1.19327
2827.27545	1.18985
2825.34689	1.18781
2823.41832	1.18379
2821.48976	1.17898
2819.56120	1.17491
2817.63263	1.17138
2815.70407	1.16961
2813.77550	1.16975
2811.84694	1.16953
2809.91837	1.16732
2807.98981	1.16352
2806.06124	1.15971
2804.13268	1.15631
2802.20412	1.15320
2800.27555	1.15099
2798.34699	1.14841
2796.41842	1.14451
2794.48986	1.14120
2792.56129	1.13909
2790.63273	1.13757
2788.70416	1.13627
2786.77560	1.13453
2784.84704	1.13292
2782.91847	1.13072
2780.98991	1.12635
2779.06134	1.12224
2777.13278	1.12119
2775.20421	1.12109
2773.27565	1.11905
2771.34708	1.11640
2769.41852	1.11563
2767.48996	1.11574
2765.56139	1.11448
2763.63283	1.11157
2761.70426	1.10800
2759.77570	1.10525
2757.84713	1.10359
2755.91857	1.10161
2753.99001	1.09828
2752.06144	1.09442
2750.13288	1.09191
2748.20431	1.09119
2746.27575	1.09039
2744.34718	1.08847
2742.41862	1.08642
2740.49005	1.08452
2738.56149	1.08265
2736.63293	1.08157
2734.70436	1.08113
2732.77580	1.08049
2730.84723	1.07893
2728.91867	1.07572
2726.99010	1.07195
2725.06154	1.06959
2723.13297	1.06829
2721.20441	1.06665
2719.27585	1.06479
2717.34728	1.06316
2715.41872	1.06163
2713.49015	1.06020
2711.56159	1.05846
2709.63302	1.05620
2707.70446	1.05364
2705.77589	1.05077
2703.84733	1.04779
2701.91877	1.04547
2699.99020	1.04366
2698.06164	1.04168
2696.13307	1.04037
2694.20451	1.04012
2692.27594	1.03953
2690.34738	1.03791
2688.41881	1.03588
2686.49025	1.03452
2684.56169	1.03371
2682.63312	1.03192
2680.70456	1.02936
2678.77599	1.02780
2676.84743	1.02749
2674.91886	1.02695
2672.99030	1.02526
2671.06173	1.02271
2669.13317	1.02017
2667.20461	1.01858
2665.27604	1.01773
2663.34748	1.01668
2661.41891	1.01532
2659.49035	1.01398
2657.56178	1.01292
2655.63322	1.01194
2653.70465	1.01048
2651.77609	1.00859
2649.84753	1.00704
2647.91896	1.00614
2645.99040	1.00526
2644.06183	1.00375
2642.13327	1.00175
2640.20470	0.99945
2638.27614	0.99729
2636.34757	0.99611
2634.41901	0.99591
2632.49045	0.99576
2630.56188	0.99490
2628.63332	0.99313
2626.70475	0.99114
2624.77619	0.98977
2622.84762	0.98872
2620.91906	0.98691
2618.99049	0.98449
2617.06193	0.98305
2615.13337	0.98277
2613.20480	0.98188
2611.27624	0.97990
2609.34767	0.97782
2607.41911	0.97591
2605.49054	0.97389
2603.56198	0.97180
2601.63342	0.96995
2599.70485	0.96882
2597.77629	0.96783
2595.84772	0.96596
2593.91916	0.96379
2591.99059	0.96225
2590.06203	0.96121
2588.13346	0.96015
2586.20490	0.95870
2584.27634	0.95683
2582.34777	0.95472
2580.41921	0.95290
2578.49064	0.95171
2576.56208	0.95072
2574.63351	0.94943
2572.70495	0.94799
2570.77638	0.94688
2568.84782	0.94578
2566.91926	0.94427
2564.99069	0.94286
2563.06213	0.94150
2561.13356	0.93943
2559.20500	0.93725
2557.27643	0.93592
2555.34787	0.93507
2553.41930	0.93418
2551.49074	0.93300
2549.56218	0.93121
2547.63361	0.92903
2545.70505	0.92703
2543.77648	0.92531
2541.84792	0.92356
2539.91935	0.92187
2537.99079	0.92051
2536.06222	0.91923
2534.13366	0.91768
2532.20510	0.91587
2530.27653	0.91420
2528.34797	0.91297
2526.41940	0.91189
2524.49084	0.91081
2522.56227	0.91029
2520.63371	0.91022
2518.70514	0.90950
2516.77658	0.90776
2514.84802	0.90562
2512.91945	0.90393
2510.99089	0.90309
2509.06232	0.90215
2507.13376	0.90030
2505.20519	0.89827
2503.27663	0.89652
2501.34806	0.89463
2499.41950	0.89241
2497.49094	0.89035
2495.56237	0.88871
2493.63381	0.88726
2491.70524	0.88577
2489.77668	0.88410
2487.84811	0.88269
2485.91955	0.88176
2483.99098	0.88044
2482.06242	0.87849
2480.13386	0.87659
2478.20529	0.87474
2476.27673	0.87270
2474.34816	0.87084
2472.41960	0.86959
2470.49103	0.86874
2468.56247	0.86746
2466.63391	0.86541
2464.70534	0.86289
2462.77678	0.86028
2460.84821	0.85798
2458.91965	0.85604
2456.99108	0.85417
2455.06252	0.85216
2453.13395	0.85013
2451.20539	0.84860
2449.27683	0.84764
2447.34826	0.84637
2445.41970	0.84433
2443.49113	0.84189
2441.56257	0.83952
2439.63400	0.83763
2437.70544	0.83625
2435.77687	0.83467
2433.84831	0.83253
2431.91975	0.83056
2429.99118	0.82928
2428.06262	0.82821
2426.13405	0.82667
2424.20549	0.82473
2422.27692	0.82290
2420.34836	0.82109
2418.41979	0.81923
2416.49123	0.81778
2414.56267	0.81680
2412.63410	0.81589
2410.70554	0.81474
2408.77697	0.81344
2406.84841	0.81223
2404.91984	0.81089
2402.99128	0.80934
2401.06271	0.80806
2399.13415	0.80687
2397.20559	0.80515
2395.27702	0.80332
2393.34846	0.80218
2391.41989	0.80175
2389.49133	0.80114
2387.56276	0.79938
2385.63420	0.79697
2383.70563	0.79482
2381.77707	0.79261
2379.84851	0.78979
2377.91994	0.78686
2375.99138	0.78434
2374.06281	0.78148
2372.13425	0.77704
2370.20568	0.77044
2368.27712	0.76319
2366.34855	0.75814
2364.41999	0.75441
2362.49143	0.74818
2360.56286	0.74075
2358.63430	0.73919
2356.70573	0.74284
2354.77717	0.74447
2352.84860	0.74631
2350.92004	0.75058
2348.99147	0.75386
2347.06291	0.75432
2345.13435	0.75172
2343.20578	0.74674
2341.27722	0.74213
2339.34865	0.74107
2337.42009	0.74295
2335.49152	0.74412
2333.56296	0.74419
2331.63440	0.74443
2329.70583	0.74460
2327.77727	0.74506
2325.84870	0.74593
2323.92014	0.74620
2321.99157	0.74547
2320.06301	0.74484
2318.13444	0.74524
2316.20588	0.74621
2314.27732	0.74731
2312.34875	0.74821
2310.42019	0.74873
2308.49162	0.74917
2306.56306	0.74954
2304.63449	0.74922
2302.70593	0.74828
2300.77736	0.74776
2298.84880	0.74798
2296.92024	0.74790
2294.99167	0.74709
2293.06311	0.74643
2291.13454	0.74642
2289.20598	0.74655
2287.27741	0.74627
2285.34885	0.74546
2283.42028	0.74451
2281.49172	0.74398
2279.56316	0.74370
2277.63459	0.74316
2275.70603	0.74254
2273.77746	0.74209
2271.84890	0.74145
2269.92033	0.74046
2267.99177	0.73939
2266.06320	0.73857
2264.13464	0.73829
2262.20608	0.73830
2260.27751	0.73789
2258.34895	0.73696
2256.42038	0.73626
2254.49182	0.73615
2252.56325	0.73615
2250.63469	0.73592
2248.70612	0.73551
2246.77756	0.73516
2244.84900	0.73488
2242.92043	0.73434
2240.99187	0.73369
2239.06330	0.73307
2237.13474	0.73221
2235.20617	0.73138
2233.27761	0.73096
2231.34904	0.73058
2229.42048	0.72993
2227.49192	0.72926
2225.56335	0.72875
2223.63479	0.72839
2221.70622	0.72822
2219.77766	0.72809
2217.84909	0.72791
2215.92053	0.72756
2213.99196	0.72695
2212.06340	0.72619
2210.13484	0.72559
2208.20627	0.72538
2206.27771	0.72538
2204.34914	0.72526
2202.42058	0.72483
2200.49201	0.72438
2198.56345	0.72433
2196.63488	0.72438
2194.70632	0.72405
2192.77776	0.72368
2190.84919	0.72368
2188.92063	0.72369
2186.99206	0.72338
2185.06350	0.72309
2183.13493	0.72295
2181.20637	0.72271
2179.27781	0.72226
2177.34924	0.72170
2175.42068	0.72136
2173.49211	0.72138
2171.56355	0.72122
2169.63498	0.72069
2167.70642	0.72044
2165.77785	0.72059
2163.84929	0.72043
2161.92073	0.71966
2159.99216	0.71838
2158.06360	0.71711
2156.13503	0.71654
2154.20647	0.71665
2152.27790	0.71680
2150.34934	0.71640
2148.42077	0.71539
2146.49221	0.71447
2144.56365	0.71407
2142.63508	0.71378
2140.70652	0.71339
2138.77795	0.71309
2136.84939	0.71243
2134.92082	0.71107
2132.99226	0.70981
2131.06369	0.70930
2129.13513	0.70914
2127.20657	0.70881
2125.27800	0.70809
2123.34944	0.70711
2121.42087	0.70624
2119.49231	0.70580
2117.56374	0.70557
2115.63518	0.70485
2113.70661	0.70363
2111.77805	0.70269
2109.84949	0.70216
2107.92092	0.70177
2105.99236	0.70132
2104.06379	0.70059
2102.13523	0.69966
2100.20666	0.69862
2098.27810	0.69744
2096.34953	0.69625
2094.42097	0.69521
2092.49241	0.69410
2090.56384	0.69282
2088.63528	0.69174
2086.70671	0.69095
2084.77815	0.69016
2082.84958	0.68921
2080.92102	0.68808
2078.99245	0.68668
2077.06389	0.68521
2075.13533	0.68414
2073.20676	0.68335
2071.27820	0.68241
2069.34963	0.68142
2067.42107	0.68057
2065.49250	0.67972
2063.56394	0.67885
2061.63537	0.67793
2059.70681	0.67682
2057.77825	0.67578
2055.84968	0.67488
2053.92112	0.67379
2051.99255	0.67265
2050.06399	0.67180
2048.13542	0.67109
2046.20686	0.67033
2044.27830	0.66954
2042.34973	0.66857
2040.42117	0.66732
2038.49260	0.66611
2036.56404	0.66510
2034.63547	0.66422
2032.70691	0.66326
2030.77834	0.66210
2028.84978	0.66081
2026.92122	0.65945
2024.99265	0.65814
2023.06409	0.65714
2021.13552	0.65646
2019.20696	0.65570
2017.27839	0.65453
2015.34983	0.65338
2013.42126	0.65253
2011.49270	0.65146
2009.56414	0.65011
2007.63557	0.64911
2005.70701	0.64866
2003.77844	0.64814
2001.84988	0.64723
1999.92131	0.64613
1997.99275	0.64497
1996.06418	0.64399
1994.13562	0.64316
1992.20706	0.64187
1990.27849	0.64014
1988.34993	0.63863
1986.42136	0.63737
1984.49280	0.63621
1982.56423	0.63496
1980.63567	0.63359
1978.70710	0.63240
1976.77854	0.63140
1974.84998	0.63039
1972.92141	0.62928
1970.99285	0.62849
1969.06428	0.62798
1967.13572	0.62687
1965.20715	0.62523
1963.27859	0.62382
1961.35002	0.62253
1959.42146	0.62127
1957.49290	0.62015
1955.56433	0.61887
1953.63577	0.61734
1951.70720	0.61582
1949.77864	0.61430
1947.85007	0.61278
1945.92151	0.61150
1943.99294	0.60998
1942.06438	0.60767
1940.13582	0.60587
1938.20725	0.60505
1936.27869	0.60406
1934.35012	0.60254
1932.42156	0.60086
1930.49299	0.59929
1928.56443	0.59800
1926.63586	0.59730
1924.70730	0.59659
1922.77874	0.59475
1920.85017	0.59281
1918.92161	0.59122
1916.99304	0.58925
1915.06448	0.58812
1913.13591	0.58809
1911.20735	0.58794
1909.27878	0.58687
1907.35022	0.58541
1905.42166	0.58447
1903.49309	0.58387
1901.56453	0.58308
1899.63596	0.58222
1897.70740	0.58149
1895.77883	0.58052
1893.85027	0.57939
1891.92171	0.57854
1889.99314	0.57709
1888.06458	0.57535
1886.13601	0.57463
1884.20745	0.57413
1882.27888	0.57339
1880.35032	0.57269
1878.42175	0.57176
1876.49319	0.57048
1874.56463	0.56948
1872.63606	0.56938
1870.70750	0.56915
1868.77893	0.56711
1866.85037	0.56466
1864.92180	0.56377
1862.99324	0.56357
1861.06467	0.56310
1859.13611	0.56214
1857.20755	0.56108
1855.27898	0.56041
1853.35042	0.56002
1851.42185	0.55986
1849.49329	0.55998
1847.56472	0.56024
1845.63616	0.55966
1843.70759	0.55729
1841.77903	0.55563
1839.85047	0.55557
1837.92190	0.55535
1835.99334	0.55459
1834.06477	0.55452
1832.13621	0.55511
1830.20764	0.55431
1828.27908	0.55270
1826.35051	0.55199
1824.42195	0.55092
1822.49339	0.55005
1820.56482	0.55005
1818.63626	0.54992
1816.70769	0.54938
1814.77913	0.54919
1812.85056	0.54917
1810.92200	0.54831
1808.99343	0.54715
1807.06487	0.54670
1805.13631	0.54706
1803.20774	0.54769
1801.27918	0.54753
1799.35061	0.54680
1797.42205	0.54700
1795.49348	0.54820
1793.56492	0.54862
1791.63635	0.54682
1789.70779	0.54582
1787.77923	0.54676
1785.85066	0.54775
1783.92210	0.54846
1781.99353	0.54914
1780.06497	0.54923
1778.13640	0.54980
1776.20784	0.55168
1774.27927	0.55367
1772.35071	0.55356
1770.42215	0.55228
1768.49358	0.55257
1766.56502	0.55432
1764.63645	0.55704
1762.70789	0.55946
1760.77932	0.56141
1758.85076	0.56432
1756.92220	0.56854
1754.99363	0.57403
1753.06507	0.58070
1751.13650	0.58854
1749.20794	0.59703
1747.27937	0.60548
1745.35081	0.61366
1743.42224	0.62103
1741.49368	0.62685
1739.56512	0.63132
1737.63655	0.63566
1735.70799	0.63932
1733.77942	0.63959
1731.85086	0.63860
1729.92229	0.63966
1727.99373	0.64162
1726.06516	0.64454
1724.13660	0.64855
1722.20804	0.65344
1720.27947	0.65936
1718.35091	0.66659
1716.42234	0.67433
1714.49378	0.68168
1712.56521	0.69040
1710.63665	0.70174
1708.70808	0.71567
1706.77952	0.73450
1704.85096	0.75899
1702.92239	0.78347
1700.99383	0.81691
1699.06526	0.86612
1697.13670	0.91077
1695.20813	0.95213
1693.27957	0.98424
1691.35100	1.01153
1689.42244	1.04263
1687.49388	1.07093
1685.56531	1.09768
1683.63675	1.13170
1681.70818	1.15553
1679.77962	1.17133
1677.85105	1.18656
1675.92249	1.20235
1673.99392	1.21738
1672.06536	1.22966
1670.13680	1.24216
1668.20823	1.25547
1666.27967	1.26514
1664.35110	1.27346
1662.42254	1.28132
1660.49397	1.28753
1658.56541	1.29389
1656.63684	1.30066
1654.70828	1.30497
1652.77972	1.30091
1650.85115	1.30104
1648.92259	1.30449
1646.99402	1.30530
1645.06546	1.30639
1643.13689	1.30842
1641.20833	1.31010
1639.27976	1.31117
1637.35120	1.31014
1635.42264	1.30554
1633.49407	1.30568
1631.56551	1.30970
1629.63694	1.31220
1627.70838	1.31176
1625.77981	1.30918
1623.85125	1.30349
1621.92269	1.29554
1619.99412	1.29017
1618.06556	1.28276
1616.13699	1.26618
1614.20843	1.25155
1612.27986	1.24083
1610.35130	1.22802
1608.42273	1.21333
1606.49417	1.20112
1604.56561	1.19218
1602.63704	1.18397
1600.70848	1.17691
1598.77991	1.17186
1596.85135	1.16741
1594.92278	1.16314
1592.99422	1.16067
1591.06565	1.15993
1589.13709	1.15999
1587.20853	1.16119
1585.27996	1.16306
1583.35140	1.16580
1581.42283	1.17073
1579.49427	1.17779
1577.56570	1.18573
1575.63714	1.19191
1573.70857	1.19635
1571.78001	1.20139
1569.85145	1.20777
1567.92288	1.21516
1565.99432	1.22298
1564.06575	1.23211
1562.13719	1.24162
1560.20862	1.24984
1558.28006	1.25440
1556.35149	1.25976
1554.42293	1.26591
1552.49437	1.27009
1550.56580	1.27281
1548.63724	1.27508
1546.70867	1.27788
1544.78011	1.28048
1542.85154	1.28010
1540.92298	1.27402
1538.99441	1.27022
1537.06585	1.27250
1535.13729	1.27258
1533.20872	1.26798
1531.28016	1.26481
1529.35159	1.26517
1527.42303	1.26544
1525.49446	1.26486
1523.56590	1.26363
1521.63733	1.26003
1519.70877	1.25805
1517.78021	1.25696
1515.85164	1.25272
1513.92308	1.24669
1511.99451	1.24052
1510.06595	1.23562
1508.13738	1.22300
1506.20882	1.18903
1504.28025	1.17222
1502.35169	1.16450
1500.42313	1.15440
1498.49456	1.13900
1496.56600	1.11860
1494.63743	1.10346
1492.70887	1.09523
1490.78030	1.08484
1488.85174	1.06594
1486.92317	1.04932
1484.99461	1.04003
1483.06605	1.03416
1481.13748	1.02981
1479.20892	1.02826
1477.28035	1.03095
1475.35179	1.03719
1473.42322	1.04513
1471.49466	1.05252
1469.56610	1.05879
1467.63753	1.06466
1465.70897	1.07060
1463.78040	1.07633
1461.85184	1.08102
1459.92327	1.08514
1457.99471	1.08862
1456.06614	1.08922
1454.13758	1.08926
1452.20902	1.08967
1450.28045	1.08917
1448.35189	1.08662
1446.42332	1.08308
1444.49476	1.08022
1442.56619	1.07746
1440.63763	1.07519
1438.70906	1.07298
1436.78050	1.06647
1434.85194	1.05750
1432.92337	1.05164
1430.99481	1.04587
1429.06624	1.03991
1427.13768	1.03696
1425.20911	1.03592
1423.28055	1.03547
1421.35198	1.03653
1419.42342	1.03844
1417.49486	1.03923
1415.56629	1.03958
1413.63773	1.04000
1411.70916	1.04020
1409.78060	1.04037
1407.85203	1.04048
1405.92347	1.03985
1403.99490	1.03863
1402.06634	1.03808
1400.13778	1.03732
1398.20921	1.03515
1396.28065	1.03223
1394.35208	1.02911
1392.42352	1.02766
1390.49495	1.02884
1388.56639	1.03197
1386.63782	1.03670
1384.70926	1.04244
1382.78070	1.04860
1380.85213	1.05394
1378.92357	1.05657
1376.99500	1.05560
1375.06644	1.05053
1373.13787	1.04267
1371.20931	1.03499
1369.28074	1.02594
1367.35218	1.01507
1365.42362	1.00515
1363.49505	0.99496
1361.56649	0.98446
1359.63792	0.97731
1357.70936	0.97280
1355.78079	0.96956
1353.85223	0.96716
1351.92366	0.96505
1349.99510	0.96305
1348.06654	0.96116
1346.13797	0.95924
1344.20941	0.95769
1342.28084	0.95689
1340.35228	0.95614
1338.42371	0.95514
1336.49515	0.95536
1334.56659	0.95761
1332.63802	0.96169
1330.70946	0.96684
1328.78089	0.97148
1326.85233	0.97432
1324.92376	0.97568
1322.99520	0.97698
1321.06663	0.97890
1319.13807	0.98097
1317.20951	0.98230
1315.28094	0.98282
1313.35238	0.98296
1311.42381	0.98256
1309.49525	0.98144
1307.56668	0.97956
1305.63812	0.97691
1303.70955	0.97387
1301.78099	0.97053
1299.85243	0.96664
1297.92386	0.96219
1295.99530	0.95729
1294.06673	0.95233
1292.13817	0.94791
1290.20960	0.94443
1288.28104	0.94163
1286.35247	0.93898
1284.42391	0.93632
1282.49535	0.93397
1280.56678	0.93195
1278.63822	0.93023
1276.70965	0.92923
1274.78109	0.92937
1272.85252	0.93070
1270.92396	0.93301
1268.99539	0.93597
1267.06683	0.93890
1265.13827	0.94155
1263.20970	0.94413
1261.28114	0.94573
1259.35257	0.94567
1257.42401	0.94540
1255.49544	0.94608
1253.56688	0.94715
1251.63831	0.94808
1249.70975	0.94889
1247.78119	0.94942
1245.85262	0.94971
1243.92406	0.94980
1241.99549	0.94946
1240.06693	0.94865
1238.13836	0.94734
1236.20980	0.94539
1234.28123	0.94266
1232.35267	0.93911
1230.42411	0.93467
1228.49554	0.92940
1226.56698	0.92331
1224.63841	0.91647
1222.70985	0.90942
1220.78128	0.90232
1218.85272	0.89507
1216.92415	0.88836
1214.99559	0.88335
1213.06703	0.88043
1211.13846	0.87891
1209.20990	0.87812
1207.28133	0.87778
1205.35277	0.87666
1203.42420	0.87340
1201.49564	0.86818
1199.56708	0.86196
1197.63851	0.85503
1195.70995	0.84726
1193.78138	0.83952
1191.85282	0.83308
1189.92425	0.82806
1187.99569	0.82419
1186.06712	0.82141
1184.13856	0.81966
1182.21000	0.81946
1180.28143	0.82156
1178.35287	0.82634
1176.42430	0.83331
1174.49574	0.84130
1172.56717	0.84997
1170.63861	0.86016
1168.71004	0.87228
1166.78148	0.88593
1164.85292	0.90058
1162.92435	0.91456
1160.99579	0.92549
1159.06722	0.93208
1157.13866	0.93430
1155.21009	0.93283
1153.28153	0.92833
1151.35296	0.92132
1149.42440	0.91307
1147.49584	0.90504
1145.56727	0.89838
1143.63871	0.89435
1141.71014	0.89334
1139.78158	0.89473
1137.85301	0.89797
1135.92445	0.90305
1133.99588	0.91047
1132.06732	0.92005
1130.13876	0.93114
1128.21019	0.94334
1126.28163	0.95552
1124.35306	0.96650
1122.42450	0.97611
1120.49593	0.98444
1118.56737	0.99060
1116.63880	0.99346
1114.71024	0.99398
1112.78168	0.99349
1110.85311	0.99163
1108.92455	0.98866
1106.99598	0.98615
1105.06742	0.98416
1103.13885	0.98187
1101.21029	0.97977
1099.28172	0.97892
1097.35316	0.97987
1095.42460	0.98261
1093.49603	0.98711
1091.56747	0.99424
1089.63890	1.00416
1087.71034	1.01524
1085.78177	1.02634
1083.85321	1.03762
1081.92464	1.04787
1079.99608	1.05419
1078.06752	1.05575
1076.13895	1.05370
1074.21039	1.04930
1072.28182	1.04359
1070.35326	1.03672
1068.42469	1.02919
1066.49613	1.02226
1064.56756	1.01671
1062.63900	1.01236
1060.71044	1.00808
1058.78187	1.00293
1056.85331	0.99731
1054.92474	0.99255
1052.99618	0.98949
1051.06761	0.98751
1049.13905	0.98673
1047.21049	0.98833
1045.28192	0.99160
1043.35336	0.99513
1041.42479	0.99907
1039.49623	1.00344
1037.56766	1.00707
1035.63910	1.00935
1033.71053	1.00993
1031.78197	1.00820
1029.85341	1.00466
1027.92484	0.99948
1025.99628	0.99235
1024.06771	0.98482
1022.13915	0.97842
1020.21058	0.97241
1018.28202	0.96590
1016.35345	0.95933
1014.42489	0.95275
1012.49633	0.94472
1010.56776	0.93383
1008.63920	0.91991
1006.71063	0.90435
1004.78207	0.88832
1002.85350	0.87232
1000.92494	0.85804
998.99637	0.84734
997.06781	0.84010
995.13925	0.83440
993.21068	0.82856
991.28212	0.82153
989.35355	0.81236
987.42499	0.80146
985.49642	0.79024
983.56786	0.77940
981.63929	0.76893
979.71073	0.75894
977.78217	0.74997
975.85360	0.74243
973.92504	0.73541
971.99647	0.72759
970.06791	0.71902
968.13934	0.71040
966.21078	0.70238
964.28221	0.69600
962.35365	0.69224
960.42509	0.69226
958.49652	0.69667
956.56796	0.70298
954.63939	0.70654
952.71083	0.70450
950.78226	0.69755
948.85370	0.68840
946.92513	0.67988
944.99657	0.67332
943.06801	0.66832
941.13944	0.66421
939.21088	0.66096
937.28231	0.65857
935.35375	0.65685
933.42518	0.65567
931.49662	0.65501
929.56805	0.65501
927.63949	0.65603
925.71093	0.65794
923.78236	0.65981
921.85380	0.66103
919.92523	0.66169
917.99667	0.66178
916.06810	0.66117
914.13954	0.66011
912.21098	0.65948
910.28241	0.65993
908.35385	0.66128
906.42528	0.66356
904.49672	0.66722
902.56815	0.67146
900.63959	0.67472
898.71102	0.67661
896.78246	0.67762
894.85390	0.67763
892.92533	0.67639
890.99677	0.67442
889.06820	0.67224
887.13964	0.67032
885.21107	0.66915
883.28251	0.66837
881.35394	0.66762
879.42538	0.66763
877.49682	0.66902
875.56825	0.67130
873.63969	0.67383
871.71112	0.67666
869.78256	0.67998
867.85399	0.68373
865.92543	0.68769
863.99686	0.69150
862.06830	0.69523
860.13974	0.69938
858.21117	0.70403
856.28261	0.70913
854.35404	0.71476
852.42548	0.72039
850.49691	0.72519
848.56835	0.72921
846.63978	0.73305
844.71122	0.73683
842.78266	0.74015
840.85409	0.74273
838.92553	0.74476
836.99696	0.74685
835.06840	0.74936
833.13983	0.75189
831.21127	0.75403
829.28270	0.75572
827.35414	0.75744
825.42558	0.76016
823.49701	0.76354
821.56845	0.76638
819.63988	0.76867
817.71132	0.77097
815.78275	0.77369
813.85419	0.77725
811.92562	0.78135
809.99706	0.78500
808.06850	0.78799
806.13993	0.79085
804.21137	0.79388
802.28280	0.79701
800.35424	0.79990
798.42567	0.80266
796.49711	0.80601
794.56854	0.81006
792.63998	0.81405
790.71142	0.81782
788.78285	0.82189
786.85429	0.82616
784.92572	0.83058
782.99716	0.83546
781.06859	0.84062
779.14003	0.84550
777.21147	0.84973
775.28290	0.85329
773.35434	0.85654
771.42577	0.85982
769.49721	0.86303
767.56864	0.86557
765.64008	0.86706
763.71151	0.86820
761.78295	0.86985
759.85439	0.87248
757.92582	0.87675
755.99726	0.88179
754.06869	0.88562
752.14013	0.88822
750.21156	0.89098
748.28300	0.89440
746.35443	0.89803
744.42587	0.90138
742.49731	0.90423
740.56874	0.90689
738.64018	0.90959
736.71161	0.91171
734.78305	0.91367
732.85448	0.91742
730.92592	0.92287
728.99735	0.92771
727.06879	0.93147
725.14023	0.93566
723.21166	0.93965
721.28310	0.94192
719.35453	0.94380
717.42597	0.94734
715.49740	0.95286
713.56884	0.95912
711.64027	0.96400
709.71171	0.96739
707.78315	0.97063
705.85458	0.97422
703.92602	0.97789
701.99745	0.98138
700.06889	0.98406
698.14032	0.98492
696.21176	0.98473
694.28319	0.98516
692.35463	0.98698
690.42607	0.98977
688.49750	0.99109
686.56894	0.99087
684.64037	0.99177
682.71181	0.99358
680.78324	0.99511
678.85468	0.99683
676.92611	0.99871
674.99755	1.00105
673.06899	1.00433
671.14042	1.00659
669.21186	1.00749
667.28329	1.01095
665.35473	1.01491
663.42616	1.01706
661.49760	1.01839
659.56903	1.01938
657.64047	1.02073
655.71191	1.02362
653.78334	1.02755
651.85478	1.03012
649.92621	1.03101
647.99765	1.03292
646.06908	1.03660
644.14052	1.03992
642.21195	1.04263
640.28339	1.04580
638.35483	1.04874
636.42626	1.05092
634.49770	1.05284
632.56913	1.05498
630.64057	1.05645
628.71200	1.05666
626.78344	1.05647
624.85488	1.05492
622.92631	1.05251
620.99775	1.05135
619.06918	1.05028
617.14062	1.04932
615.21205	1.05003
613.28349	1.05111
611.35492	1.05141
609.42636	1.05113
607.49780	1.05105
605.56923	1.05364
603.64067	1.05892
601.71210	1.06172
599.78354	1.05941
