3997.91406	0.62037
3995.98550	0.61922
3994.05693	0.61820
3992.12837	0.61808
3990.19980	0.61748
3988.27124	0.61638
3986.34268	0.61659
3984.41411	0.61717
3982.48555	0.61663
3980.55698	0.61618
3978.62842	0.61668
3976.69985	0.61694
3974.77129	0.61594
3972.84272	0.61406
3970.91416	0.61235
3968.98560	0.61202
3967.05703	0.61279
3965.12847	0.61271
3963.19990	0.61173
3961.27134	0.61177
3959.34277	0.61303
3957.41421	0.61434
3955.48564	0.61542
3953.55708	0.61625
3951.62852	0.61653
3949.69995	0.61599
3947.77139	0.61550
3945.84282	0.61605
3943.91426	0.61593
3941.98569	0.61436
3940.05713	0.61382
3938.12856	0.61473
3936.20000	0.61536
3934.27144	0.61445
3932.34287	0.61252
3930.41431	0.61141
3928.48574	0.61118
3926.55718	0.61076
3924.62861	0.60947
3922.70005	0.60839
3920.77148	0.60824
3918.84292	0.60721
3916.91436	0.60483
3914.98579	0.60308
3913.05723	0.60204
3911.12866	0.60054
3909.20010	0.59909
3907.27153	0.59888
3905.34297	0.59985
3903.41440	0.59983
3901.48584	0.59657
3899.55728	0.59328
3897.62871	0.59359
3895.70015	0.59651
3893.77158	0.59935
3891.84302	0.59904
3889.91445	0.59787
3887.98589	0.59932
3886.05733	0.59995
3884.12876	0.59876
3882.20020	0.59836
3880.27163	0.59747
3878.34307	0.59811
3876.41450	0.60148
3874.48594	0.60466
3872.55737	0.60553
3870.62881	0.60449
3868.70025	0.60416
3866.77168	0.60602
3864.84312	0.60666
3862.91455	0.60445
3860.98599	0.60437
3859.05742	0.60747
3857.12886	0.61145
3855.20029	0.61504
3853.27173	0.61294
3851.34317	0.60579
3849.41460	0.60300
3847.48604	0.60296
3845.55747	0.60383
3843.62891	0.60551
3841.70034	0.60741
3839.77178	0.60634
3837.84321	0.60241
3835.91465	0.60140
3833.98609	0.60234
3832.05752	0.60276
3830.12896	0.60313
3828.20039	0.60362
3826.27183	0.60416
3824.34326	0.60587
3822.41470	0.60826
3820.48613	0.60899
3818.55757	0.60891
3816.62901	0.60770
3814.70044	0.60538
3812.77188	0.60496
3810.84331	0.60589
3808.91475	0.60686
3806.98618	0.60719
3805.05762	0.60850
3803.12905	0.61027
3801.20049	0.60883
3799.27193	0.60738
3797.34336	0.60701
3795.41480	0.60493
3793.48623	0.60297
3791.55767	0.60220
3789.62910	0.60152
3787.70054	0.60010
3785.77197	0.59739
3783.84341	0.59468
3781.91485	0.59372
3779.98628	0.59214
3778.05772	0.58905
3776.12915	0.58758
3774.20059	0.58781
3772.27202	0.58831
3770.34346	0.58712
3768.41489	0.58434
3766.48633	0.58254
3764.55777	0.58210
3762.62920	0.58285
3760.70064	0.58356
3758.77207	0.58257
3756.84351	0.58123
3754.91494	0.58175
3752.98638	0.58418
3751.05781	0.58575
3749.12925	0.58518
3747.20069	0.58561
3745.27212	0.58481
3743.34356	0.58293
3741.41499	0.58403
3739.48643	0.58704
3737.55786	0.58966
3735.62930	0.58943
3733.70074	0.58689
3731.77217	0.58557
3729.84361	0.58613
3727.91504	0.58693
3725.98648	0.58569
3724.05791	0.58383
3722.12935	0.58344
3720.20078	0.58357
3718.27222	0.58430
3716.34366	0.58570
3714.41509	0.58707
3712.48653	0.58629
3710.55796	0.58136
3708.62940	0.57786
3706.70083	0.57826
3704.77227	0.58052
3702.84370	0.58160
3700.91514	0.58048
3698.98658	0.57997
3697.05801	0.58101
3695.12945	0.58322
3693.20088	0.58629
3691.27232	0.58917
3689.34375	0.58936
3687.41519	0.58730
3685.48662	0.58642
3683.55806	0.58748
3681.62950	0.59037
3679.70093	0.59468
3677.77237	0.59990
3675.84380	0.60371
3673.91524	0.60526
3671.98667	0.60762
3670.05811	0.60912
3668.12954	0.60956
3666.20098	0.61116
3664.27242	0.61329
3662.34385	0.61574
3660.41529	0.61879
3658.48672	0.62172
3656.55816	0.62369
3654.62959	0.62614
3652.70103	0.63045
3650.77246	0.63515
3648.84390	0.63564
3646.91534	0.63412
3644.98677	0.63531
3643.05821	0.63778
3641.12964	0.64060
3639.20108	0.64365
3637.27251	0.64674
3635.34395	0.64987
3633.41538	0.65335
3631.48682	0.65701
3629.55826	0.65903
3627.62969	0.65906
3625.70113	0.66166
3623.77256	0.66583
3621.84400	0.66972
3619.91543	0.67325
3617.98687	0.67726
3616.05830	0.68203
3614.12974	0.68658
3612.20118	0.69082
3610.27261	0.69492
3608.34405	0.69782
3606.41548	0.70125
3604.48692	0.70647
3602.55835	0.71141
3600.62979	0.71508
3598.70123	0.71874
3596.77266	0.72226
3594.84410	0.72474
3592.91553	0.72849
3590.98697	0.73515
3589.05840	0.74235
3587.12984	0.74506
3585.20127	0.74496
3583.27271	0.74762
3581.34415	0.75228
3579.41558	0.75615
3577.48702	0.75884
3575.55845	0.76219
3573.62989	0.76623
3571.70132	0.77061
3569.77276	0.77560
3567.84419	0.78039
3565.91563	0.78383
3563.98707	0.78710
3562.05850	0.79128
3560.12994	0.79604
3558.20137	0.80074
3556.27281	0.80491
3554.34424	0.80942
3552.41568	0.81523
3550.48711	0.82131
3548.55855	0.82675
3546.62999	0.83173
3544.70142	0.83665
3542.77286	0.84232
3540.84429	0.84827
3538.91573	0.85304
3536.98716	0.85736
3535.05860	0.86263
3533.13003	0.86802
3531.20147	0.87359
3529.27291	0.88001
3527.34434	0.88741
3525.41578	0.89506
3523.48721	0.90128
3521.55865	0.90611
3519.63008	0.91095
3517.70152	0.91667
3515.77295	0.92339
3513.84439	0.93094
3511.91583	0.93929
3509.98726	0.94737
3508.05870	0.95421
3506.13013	0.96135
3504.20157	0.96991
3502.27300	0.97848
3500.34444	0.98703
3498.41587	0.99617
3496.48731	1.00436
3494.55875	1.01128
3492.63018	1.01781
3490.70162	1.02394
3488.77305	1.02972
3486.84449	1.03533
3484.91592	1.04071
3482.98736	1.04498
3481.05879	1.04742
3479.13023	1.05043
3477.20167	1.05452
3475.27310	1.05712
3473.34454	1.05924
3471.41597	1.06317
3469.48741	1.06851
3467.55884	1.07387
3465.63028	1.07833
3463.70171	1.08269
3461.77315	1.08754
3459.84459	1.09229
3457.91602	1.09740
3455.98746	1.10352
3454.05889	1.10830
3452.13033	1.11021
3450.20176	1.11154
3448.27320	1.11255
3446.34464	1.11296
3444.41607	1.11489
3442.48751	1.11860
3440.55894	1.12364
3438.63038	1.12859
3436.70181	1.13061
3434.77325	1.12950
3432.84468	1.12773
3430.91612	1.12681
3428.98756	1.12661
3427.05899	1.12690
3425.13043	1.12696
3423.20186	1.12633
3421.27330	1.12615
3419.34473	1.12652
3417.41617	1.12681
3415.48760	1.12762
3413.55904	1.12857
3411.63048	1.12815
3409.70191	1.12587
3407.77335	1.12402
3405.84478	1.12481
3403.91622	1.12739
3401.98765	1.13016
3400.05909	1.13226
3398.13052	1.13419
3396.20196	1.13763
3394.27340	1.14174
3392.34483	1.14298
3390.41627	1.14264
3388.48770	1.14445
3386.55914	1.14631
3384.63057	1.14674
3382.70201	1.14779
3380.77344	1.14947
3378.84488	1.15122
3376.91632	1.15305
3374.98775	1.15435
3373.05919	1.15453
3371.13062	1.15462
3369.20206	1.15650
3367.27349	1.16032
3365.34493	1.16304
3363.41636	1.16301
3361.48780	1.16326
3359.55924	1.16534
3357.63067	1.16862
3355.70211	1.17283
3353.77354	1.17641
3351.84498	1.18034
3349.91641	1.18660
3347.98785	1.19153
3346.05928	1.19255
3344.13072	1.19299
3342.20216	1.19473
3340.27359	1.19765
3338.34503	1.20284
3336.41646	1.20974
3334.48790	1.21497
3332.55933	1.21700
3330.63077	1.21870
3328.70220	1.22307
3326.77364	1.23074
3324.84508	1.23908
3322.91651	1.24542
3320.98795	1.25091
3319.05938	1.25666
3317.13082	1.26363
3315.20225	1.27185
3313.27369	1.27711
3311.34513	1.27894
3309.41656	1.28205
3307.48800	1.28769
3305.55943	1.29476
3303.63087	1.30206
3301.70230	1.30634
3299.77374	1.30675
3297.84517	1.30756
3295.91661	1.31076
3293.98805	1.31266
3292.05948	1.31150
3290.13092	1.31108
3288.20235	1.31320
3286.27379	1.31537
3284.34522	1.31617
3282.41666	1.31533
3280.48809	1.31176
3278.55953	1.30785
3276.63097	1.30659
3274.70240	1.30512
3272.77384	1.30258
3270.84527	1.30227
3268.91671	1.30147
3266.98814	1.29454
3265.05958	1.28334
3263.13101	1.27549
3261.20245	1.27367
3259.27389	1.27241
3257.34532	1.26653
3255.41676	1.25734
3253.48819	1.24741
3251.55963	1.23728
3249.63106	1.22836
3247.70250	1.22012
3245.77393	1.20951
3243.84537	1.19875
3241.91681	1.19198
3239.98824	1.18605
3238.05968	1.17770
3236.13111	1.16989
3234.20255	1.16392
3232.27398	1.15836
3230.34542	1.15392
3228.41685	1.15024
3226.48829	1.14568
3224.55973	1.14021
3222.63116	1.13430
3220.70260	1.12843
3218.77403	1.12320
3216.84547	1.11855
3214.91690	1.11353
3212.98834	1.10857
3211.05977	1.10460
3209.13121	1.10018
3207.20265	1.09486
3205.27408	1.08891
3203.34552	1.08265
3201.41695	1.07765
3199.48839	1.07250
3197.55982	1.06658
3195.63126	1.06356
3193.70269	1.06335
3191.77413	1.06119
3189.84557	1.05549
3187.91700	1.04949
3185.98844	1.04523
3184.05987	1.04160
3182.13131	1.03800
3180.20274	1.03539
3178.27418	1.03298
3176.34562	1.02898
3174.41705	1.02414
3172.48849	1.01970
3170.55992	1.01603
3168.63136	1.01223
3166.70279	1.00630
3164.77423	0.99986
3162.84566	0.99598
3160.91710	0.99396
3158.98854	0.99184
3157.05997	0.98851
3155.13141	0.98378
3153.20284	0.97927
3151.27428	0.97626
3149.34571	0.97345
3147.41715	0.96978
3145.48858	0.96662
3143.56002	0.96467
3141.63146	0.96266
3139.70289	0.95991
3137.77433	0.95729
3135.84576	0.95602
3133.91720	0.95608
3131.98863	0.95563
3130.06007	0.95398
3128.13150	0.95276
3126.20294	0.95329
3124.27438	0.95465
3122.34581	0.95513
3120.41725	0.95540
3118.48868	0.95631
3116.56012	0.95650
3114.63155	0.95637
3112.70299	0.95780
3110.77442	0.95947
3108.84586	0.95915
3106.91730	0.95829
3104.98873	0.95903
3103.06017	0.96015
3101.13160	0.96074
3099.20304	0.96171
3097.27447	0.96243
3095.34591	0.96188
3093.41734	0.96092
3091.48878	0.96038
3089.56022	0.95953
3087.63165	0.95724
3085.70309	0.95457
3083.77452	0.95307
3081.84596	0.95137
3079.91739	0.94838
3077.98883	0.94570
3076.06026	0.94432
3074.13170	0.94323
3072.20314	0.94054
3070.27457	0.93635
3068.34601	0.93303
3066.41744	0.93150
3064.48888	0.92961
3062.56031	0.92576
3060.63175	0.92112
3058.70318	0.91724
3056.77462	0.91412
3054.84606	0.91091
3052.91749	0.90706
3050.98893	0.90244
3049.06036	0.89807
3047.13180	0.89482
3045.20323	0.89140
3043.27467	0.88737
3041.34610	0.88391
3039.41754	0.88124
3037.48898	0.87910
3035.56041	0.87711
3033.63185	0.87438
3031.70328	0.87068
3029.77472	0.86724
3027.84615	0.86469
3025.91759	0.86210
3023.98903	0.85943
3022.06046	0.85714
3020.13190	0.85479
3018.20333	0.85282
3016.27477	0.85185
3014.34620	0.85100
3012.41764	0.84958
3010.48907	0.84765
3008.56051	0.84535
3006.63195	0.84272
3004.70338	0.84029
3002.77482	0.83935
3000.84625	0.83994
2998.91769	0.84080
2996.98912	0.84132
2995.06056	0.84169
2993.13199	0.84311
2991.20343	0.84656
2989.27487	0.85089
2987.34630	0.85507
2985.41774	0.85972
2983.48917	0.86525
2981.56061	0.87159
2979.63204	0.87865
2977.70348	0.88588
2975.77491	0.89284
2973.84635	0.89970
2971.91779	0.90725
2969.98922	0.91550
2968.06066	0.92324
2966.13209	0.93015
2964.20353	0.93654
2962.27496	0.94159
2960.34640	0.94427
2958.41783	0.94426
2956.48927	0.94161
2954.56071	0.93651
2952.63214	0.92987
2950.70358	0.92391
2948.77501	0.92073
2946.84645	0.92089
2944.91788	0.92434
2942.98932	0.93092
2941.06075	0.93975
2939.13219	0.95038
2937.20363	0.96285
2935.27506	0.97616
2933.34650	0.98895
2931.41793	1.00109
2929.48937	1.01327
2927.56080	1.02494
2925.63224	1.03506
2923.70367	1.04386
2921.77511	1.05117
2919.84655	1.05463
2917.91798	1.04971
2915.98942	1.03275
2914.06085	1.00647
2912.13229	0.97912
2910.20372	0.95700
2908.27516	0.94070
2906.34659	0.92781
2904.41803	0.91721
2902.48947	0.90938
2900.56090	0.90436
2898.63234	0.90131
2896.70377	0.89853
2894.77521	0.89446
2892.84664	0.88964
2890.91808	0.88531
2888.98952	0.88103
2887.06095	0.87643
2885.13239	0.87282
2883.20382	0.87142
2881.27526	0.87201
2879.34669	0.87347
2877.41813	0.87436
2875.48956	0.87350
2873.56100	0.87046
2871.63244	0.86596
2869.70387	0.86073
2867.77531	0.85464
2865.84674	0.84877
2863.91818	0.84538
2861.98961	0.84513
2860.06105	0.84765
2858.13248	0.85374
2856.20392	0.86405
2854.27536	0.87733
2852.34679	0.89026
2850.41823	0.89573
2848.48966	0.88482
2846.56110	0.85871
2844.63253	0.82982
2842.70397	0.80678
2840.77540	0.79007
2838.84684	0.77835
2836.91828	0.77029
2834.98971	0.76411
2833.06115	0.75865
2831.13258	0.75379
2829.20402	0.74988
2827.27545	0.74652
2825.34689	0.74315
2823.41832	0.74014
2821.48976	0.73762
2819.56120	0.73507
2817.63263	0.73199
2815.70407	0.72836
2813.77550	0.72505
2811.84694	0.72224
2809.91837	0.71923
2807.98981	0.71623
2806.06124	0.71373
2804.13268	0.71117
2802.20412	0.70787
2800.27555	0.70407
2798.34699	0.70083
2796.41842	0.69876
2794.48986	0.69737
2792.56129	0.69570
2790.63273	0.69311
2788.70416	0.69040
2786.77560	0.68872
2784.84704	0.68745
2782.91847	0.68569
2780.98991	0.68399
2779.06134	0.68306
2777.13278	0.68255
2775.20421	0.68147
2773.27565	0.68009
2771.34708	0.67937
2769.41852	0.67843
2767.48996	0.67659
2765.56139	0.67492
2763.63283	0.67373
2761.70426	0.67241
2759.77570	0.67135
2757.84713	0.67081
2755.91857	0.66978
2753.99001	0.66812
2752.06144	0.66658
2750.13288	0.66502
2748.20431	0.66308
2746.27575	0.66094
2744.34718	0.65876
2742.41862	0.65657
2740.49005	0.65440
2738.56149	0.65217
2736.63293	0.64975
2734.70436	0.64727
2732.77580	0.64488
2730.84723	0.64257
2728.91867	0.64055
2726.99010	0.63893
2725.06154	0.63723
2723.13297	0.63544
2721.20441	0.63390
2719.27585	0.63233
2717.34728	0.63047
2715.41872	0.62882
2713.49015	0.62777
2711.56159	0.62679
2709.63302	0.62579
2707.70446	0.62516
2705.77589	0.62448
2703.84733	0.62365
2701.91877	0.62313
2699.99020	0.62279
2698.06164	0.62258
2696.13307	0.62265
2694.20451	0.62265
2692.27594	0.62243
2690.34738	0.62221
2688.41881	0.62208
2686.49025	0.62203
2684.56169	0.62179
2682.63312	0.62128
2680.70456	0.62061
2678.77599	0.61965
2676.84743	0.61847
2674.91886	0.61713
2672.99030	0.61569
2671.06173	0.61459
2669.13317	0.61385
2667.20461	0.61317
2665.27604	0.61255
2663.34748	0.61213
2661.41891	0.61169
2659.49035	0.61088
2657.56178	0.60986
2655.63322	0.60919
2653.70465	0.60886
2651.77609	0.60835
2649.84753	0.60760
2647.91896	0.60718
2645.99040	0.60747
2644.06183	0.60805
2642.13327	0.60850
2640.20470	0.60891
2638.27614	0.60910
2636.34757	0.60921
2634.41901	0.60972
2632.49045	0.61050
2630.56188	0.61107
2628.63332	0.61121
2626.70475	0.61116
2624.77619	0.61117
2622.84762	0.61117
2620.91906	0.61116
2618.99049	0.61106
2617.06193	0.61080
2615.13337	0.61052
2613.20480	0.61011
2611.27624	0.60941
2609.34767	0.60870
2607.41911	0.60804
2605.49054	0.60708
2603.56198	0.60579
2601.63342	0.60424
2599.70485	0.60247
2597.77629	0.60074
2595.84772	0.59922
2593.91916	0.59800
2591.99059	0.59714
2590.06203	0.59630
2588.13346	0.59535
2586.20490	0.59452
2584.27634	0.59363
2582.34777	0.59245
2580.41921	0.59139
2578.49064	0.59079
2576.56208	0.59039
2574.63351	0.58989
2572.70495	0.58939
2570.77638	0.58913
2568.84782	0.58908
2566.91926	0.58903
2564.99069	0.58897
2563.06213	0.58886
2561.13356	0.58863
2559.20500	0.58827
2557.27643	0.58775
2555.34787	0.58703
2553.41930	0.58602
2551.49074	0.58487
2549.56218	0.58383
2547.63361	0.58276
2545.70505	0.58144
2543.77648	0.58007
2541.84792	0.57879
2539.91935	0.57746
2537.99079	0.57594
2536.06222	0.57416
2534.13366	0.57221
2532.20510	0.57029
2530.27653	0.56837
2528.34797	0.56655
2526.41940	0.56505
2524.49084	0.56376
2522.56227	0.56257
2520.63371	0.56157
2518.70514	0.56091
2516.77658	0.56076
2514.84802	0.56116
2512.91945	0.56174
2510.99089	0.56214
2509.06232	0.56253
2507.13376	0.56330
2505.20519	0.56442
2503.27663	0.56556
2501.34806	0.56686
2499.41950	0.56844
2497.49094	0.57009
2495.56237	0.57195
2493.63381	0.57419
2491.70524	0.57638
2489.77668	0.57810
2487.84811	0.57963
2485.91955	0.58127
2483.99098	0.58281
2482.06242	0.58405
2480.13386	0.58521
2478.20529	0.58619
2476.27673	0.58671
2474.34816	0.58713
2472.41960	0.58755
2470.49103	0.58736
2468.56247	0.58651
2466.63391	0.58538
2464.70534	0.58418
2462.77678	0.58300
2460.84821	0.58176
2458.91965	0.58036
2456.99108	0.57876
2455.06252	0.57703
2453.13395	0.57529
2451.20539	0.57369
2449.27683	0.57252
2447.34826	0.57186
2445.41970	0.57113
2443.49113	0.57013
2441.56257	0.56942
2439.63400	0.56947
2437.70544	0.57008
2435.77687	0.57069
2433.84831	0.57127
2431.91975	0.57201
2429.99118	0.57282
2428.06262	0.57383
2426.13405	0.57471
2424.20549	0.57504
2422.27692	0.57536
2420.34836	0.57613
2418.41979	0.57692
2416.49123	0.57722
2414.56267	0.57716
2412.63410	0.57693
2410.70554	0.57644
2408.77697	0.57563
2406.84841	0.57460
2404.91984	0.57327
2402.99128	0.57157
2401.06271	0.56987
2399.13415	0.56856
2397.20559	0.56724
2395.27702	0.56547
2393.34846	0.56353
2391.41989	0.56156
2389.49133	0.55953
2387.56276	0.55747
2385.63420	0.55527
2383.70563	0.55263
2381.77707	0.54938
2379.84851	0.54580
2377.91994	0.54252
2375.99138	0.53969
2374.06281	0.53642
2372.13425	0.53202
2370.20568	0.52718
2368.27712	0.52266
2366.34855	0.51788
2364.41999	0.51409
2362.49143	0.51382
2360.56286	0.51616
2358.63430	0.51920
2356.70573	0.52268
2354.77717	0.52712
2352.84860	0.53303
2350.92004	0.53813
2348.99147	0.54011
2347.06291	0.53914
2345.13435	0.53687
2343.20578	0.53575
2341.27722	0.53632
2339.34865	0.53805
2337.42009	0.53984
2335.49152	0.53993
2333.56296	0.53867
2331.63440	0.53757
2329.70583	0.53716
2327.77727	0.53734
2325.84870	0.53786
2323.92014	0.53803
2321.99157	0.53795
2320.06301	0.53871
2318.13444	0.54024
2316.20588	0.54185
2314.27732	0.54311
2312.34875	0.54374
2310.42019	0.54436
2308.49162	0.54584
2306.56306	0.54810
2304.63449	0.55069
2302.70593	0.55308
2300.77736	0.55513
2298.84880	0.55718
2296.92024	0.55932
2294.99167	0.56163
2293.06311	0.56429
2291.13454	0.56712
2289.20598	0.56968
2287.27741	0.57190
2285.34885	0.57392
2283.42028	0.57583
2281.49172	0.57756
2279.56316	0.57892
2277.63459	0.57971
2275.70603	0.57992
2273.77746	0.57954
2271.84890	0.57887
2269.92033	0.57830
2267.99177	0.57742
2266.06320	0.57591
2264.13464	0.57425
2262.20608	0.57268
2260.27751	0.57091
2258.34895	0.56891
2256.42038	0.56686
2254.49182	0.56473
2252.56325	0.56273
2250.63469	0.56111
2248.70612	0.55953
2246.77756	0.55771
2244.84900	0.55593
2242.92043	0.55432
2240.99187	0.55293
2239.06330	0.55193
2237.13474	0.55113
2235.20617	0.55015
2233.27761	0.54937
2231.34904	0.54902
2229.42048	0.54875
2227.49192	0.54865
2225.56335	0.54882
2223.63479	0.54890
2221.70622	0.54900
2219.77766	0.54951
2217.84909	0.55044
2215.92053	0.55135
2213.99196	0.55175
2212.06340	0.55171
2210.13484	0.55173
2208.20627	0.55196
2206.27771	0.55208
2204.34914	0.55181
2202.42058	0.55118
2200.49201	0.55044
2198.56345	0.54975
2196.63488	0.54901
2194.70632	0.54804
2192.77776	0.54708
2190.84919	0.54637
2188.92063	0.54553
2186.99206	0.54436
2185.06350	0.54318
2183.13493	0.54220
2181.20637	0.54142
2179.27781	0.54096
2177.34924	0.54075
2175.42068	0.54050
2173.49211	0.54025
2171.56355	0.54036
2169.63498	0.54104
2167.70642	0.54210
2165.77785	0.54315
2163.84929	0.54393
2161.92073	0.54477
2159.99216	0.54610
2158.06360	0.54768
2156.13503	0.54914
2154.20647	0.55041
2152.27790	0.55164
2150.34934	0.55288
2148.42077	0.55392
2146.49221	0.55472
2144.56365	0.55556
2142.63508	0.55629
2140.70652	0.55641
2138.77795	0.55619
2136.84939	0.55619
2134.92082	0.55632
2132.99226	0.55628
2131.06369	0.55594
2129.13513	0.55524
2127.20657	0.55438
2125.27800	0.55356
2123.34944	0.55272
2121.42087	0.55184
2119.49231	0.55088
2117.56374	0.54988
2115.63518	0.54896
2113.70661	0.54809
2111.77805	0.54728
2109.84949	0.54669
2107.92092	0.54635
2105.99236	0.54586
2104.06379	0.54516
2102.13523	0.54456
2100.20666	0.54413
2098.27810	0.54373
2096.34953	0.54327
2094.42097	0.54278
2092.49241	0.54235
2090.56384	0.54180
2088.63528	0.54106
2086.70671	0.54051
2084.77815	0.54036
2082.84958	0.54019
2080.92102	0.53964
2078.99245	0.53864
2077.06389	0.53750
2075.13533	0.53657
2073.20676	0.53566
2071.27820	0.53435
2069.34963	0.53277
2067.42107	0.53128
2065.49250	0.52993
2063.56394	0.52863
2061.63537	0.52722
2059.70681	0.52570
2057.77825	0.52430
2055.84968	0.52291
2053.92112	0.52132
2051.99255	0.51982
2050.06399	0.51885
2048.13542	0.51806
2046.20686	0.51697
2044.27830	0.51588
2042.34973	0.51507
2040.42117	0.51421
2038.49260	0.51326
2036.56404	0.51258
2034.63547	0.51205
2032.70691	0.51125
2030.77834	0.51031
2028.84978	0.50950
2026.92122	0.50866
2024.99265	0.50787
2023.06409	0.50742
2021.13552	0.50712
2019.20696	0.50659
2017.27839	0.50581
2015.34983	0.50510
2013.42126	0.50462
2011.49270	0.50413
2009.56414	0.50336
2007.63557	0.50237
2005.70701	0.50151
2003.77844	0.50087
2001.84988	0.50015
1999.92131	0.49929
1997.99275	0.49839
1996.06418	0.49772
1994.13562	0.49738
1992.20706	0.49695
1990.27849	0.49613
1988.34993	0.49529
1986.42136	0.49478
1984.49280	0.49447
1982.56423	0.49413
1980.63567	0.49376
1978.70710	0.49347
1976.77854	0.49325
1974.84998	0.49292
1972.92141	0.49248
1970.99285	0.49233
1969.06428	0.49244
1967.13572	0.49207
1965.20715	0.49118
1963.27859	0.49046
1961.35002	0.49010
1959.42146	0.48989
1957.49290	0.48956
1955.56433	0.48902
1953.63577	0.48826
1951.70720	0.48725
1949.77864	0.48623
1947.85007	0.48551
1945.92151	0.48489
1943.99294	0.48387
1942.06438	0.48211
1940.13582	0.48026
1938.20725	0.47874
1936.27869	0.47721
1934.35012	0.47556
1932.42156	0.47399
1930.49299	0.47267
1928.56443	0.47150
1926.63586	0.47055
1924.70730	0.46980
1922.77874	0.46873
1920.85017	0.46734
1918.92161	0.46583
1916.99304	0.46421
1915.06448	0.46306
1913.13591	0.46249
1911.20735	0.46215
1909.27878	0.46162
1907.35022	0.46071
1905.42166	0.45981
1903.49309	0.45910
1901.56453	0.45846
1899.63596	0.45794
1897.70740	0.45769
1895.77883	0.45744
1893.85027	0.45700
1891.92171	0.45669
1889.99314	0.45628
1888.06458	0.45554
1886.13601	0.45504
1884.20745	0.45475
1882.27888	0.45441
1880.35032	0.45405
1878.42175	0.45356
1876.49319	0.45284
1874.56463	0.45214
1872.63606	0.45201
1870.70750	0.45240
1868.77893	0.45219
1866.85037	0.45062
1864.92180	0.44914
1862.99324	0.44832
1861.06467	0.44763
1859.13611	0.44686
1857.20755	0.44624
1855.27898	0.44587
1853.35042	0.44556
1851.42185	0.44533
1849.49329	0.44528
1847.56472	0.44540
1845.63616	0.44543
1843.70759	0.44467
1841.77903	0.44374
1839.85047	0.44352
1837.92190	0.44349
1835.99334	0.44315
1834.06477	0.44288
1832.13621	0.44293
1830.20764	0.44261
1828.27908	0.44178
1826.35051	0.44106
1824.42195	0.44012
1822.49339	0.43908
1820.56482	0.43829
1818.63626	0.43747
1816.70769	0.43643
1814.77913	0.43562
1812.85056	0.43507
1810.92200	0.43412
1808.99343	0.43272
1807.06487	0.43142
1805.13631	0.43059
1803.20774	0.43016
1801.27918	0.42966
1799.35061	0.42896
1797.42205	0.42855
1795.49348	0.42855
1793.56492	0.42857
1791.63635	0.42810
1789.70779	0.42759
1787.77923	0.42781
1785.85066	0.42853
1783.92210	0.42969
1781.99353	0.43118
1780.06497	0.43246
1778.13640	0.43378
1776.20784	0.43585
1774.27927	0.43871
1772.35071	0.44149
1770.42215	0.44329
1768.49358	0.44509
1766.56502	0.44750
1764.63645	0.45045
1762.70789	0.45421
1760.77932	0.45869
1758.85076	0.46328
1756.92220	0.46865
1754.99363	0.47444
1753.06507	0.48061
1751.13650	0.48906
1749.20794	0.49895
1747.27937	0.50660
1745.35081	0.51235
1743.42224	0.51750
1741.49368	0.52179
1739.56512	0.52461
1737.63655	0.52638
1735.70799	0.52771
1733.77942	0.52798
1731.85086	0.52733
1729.92229	0.52737
1727.99373	0.52839
1726.06516	0.53071
1724.13660	0.53463
1722.20804	0.53944
1720.27947	0.54487
1718.35091	0.55296
1716.42234	0.56492
1714.49378	0.57540
1712.56521	0.58475
1710.63665	0.59552
1708.70808	0.60821
1706.77952	0.62552
1704.85096	0.64768
1702.92239	0.66835
1700.99383	0.69599
1699.06526	0.73677
1697.13670	0.77330
1695.20813	0.80771
1693.27957	0.83313
1691.35100	0.85353
1689.42244	0.87892
1687.49388	0.90433
1685.56531	0.93135
1683.63675	0.97288
1681.70818	1.00555
1679.77962	1.02728
1677.85105	1.04872
1675.92249	1.07530
1673.99392	1.10576
1672.06536	1.13095
1670.13680	1.15957
1668.20823	1.19340
1666.27967	1.21635
1664.35110	1.23722
1662.42254	1.26483
1660.49397	1.28931
1658.56541	1.30494
1656.63684	1.31568
1654.70828	1.32675
1652.77972	1.34194
1650.85115	1.34968
1648.92259	1.35429
1646.99402	1.35951
1645.06546	1.36154
1643.13689	1.36214
1641.20833	1.36534
1639.27976	1.36994
1637.35120	1.37320
1635.42264	1.37161
1633.49407	1.36870
1631.56551	1.36708
1629.63694	1.36240
1627.70838	1.35372
1625.77981	1.34264
1623.85125	1.32530
1621.92269	1.30237
1619.99412	1.28313
1618.06556	1.25681
1616.13699	1.21122
1614.20843	1.17306
1612.27986	1.14434
1610.35130	1.11334
1608.42273	1.08033
1606.49417	1.05095
1604.56561	1.02748
1602.63704	1.00826
1600.70848	0.99301
1598.77991	0.98202
1596.85135	0.97391
1594.92278	0.96710
1592.99422	0.96192
1591.06565	0.95911
1589.13709	0.95898
1587.20853	0.96247
1585.27996	0.96961
1583.35140	0.97953
1581.42283	0.99109
1579.49427	1.00334
1577.56570	1.01916
1575.63714	1.04124
1573.70857	1.05802
1571.78001	1.07137
1569.85145	1.09208
1567.92288	1.11550
1565.99432	1.13313
1564.06575	1.14916
1562.13719	1.16242
1560.20862	1.17659
1558.28006	1.20225
1556.35149	1.21685
1554.42293	1.22470
1552.49437	1.23215
1550.56580	1.23841
1548.63724	1.24201
1546.70867	1.24308
1544.78011	1.24417
1542.85154	1.24769
1540.92298	1.24669
1538.99441	1.23242
1537.06585	1.22476
1535.13729	1.22137
1533.20872	1.21742
1531.28016	1.21223
1529.35159	1.20700
1527.42303	1.20191
1525.49446	1.19830
1523.56590	1.19687
1521.63733	1.19572
1519.70877	1.19804
1517.78021	1.20189
1515.85164	1.19952
1513.92308	1.19026
1511.99451	1.17882
1510.06595	1.16754
1508.13738	1.14644
1506.20882	1.10419
1504.28025	1.08146
1502.35169	1.06765
1500.42313	1.05057
1498.49456	1.02675
1496.56600	0.99725
1494.63743	0.97478
1492.70887	0.96012
1490.78030	0.94176
1488.85174	0.91490
1486.92317	0.89391
1484.99461	0.88133
1483.06605	0.87196
1481.13748	0.86379
1479.20892	0.85834
1477.28035	0.85738
1475.35179	0.86128
1473.42322	0.87026
1471.49466	0.88033
1469.56610	0.88717
1467.63753	0.89282
1465.70897	0.89891
1463.78040	0.90457
1461.85184	0.90835
1459.92327	0.91160
1457.99471	0.91676
1456.06614	0.92224
1454.13758	0.92407
1452.20902	0.92442
1450.28045	0.92446
1448.35189	0.92459
1446.42332	0.92418
1444.49476	0.92274
1442.56619	0.92061
1440.63763	0.91824
1438.70906	0.91503
1436.78050	0.90879
1434.85194	0.90125
1432.92337	0.89524
1430.99481	0.88854
1429.06624	0.88134
1427.13768	0.87650
1425.20911	0.87382
1423.28055	0.87232
1421.35198	0.87231
1419.42342	0.87352
1417.49486	0.87345
1415.56629	0.87176
1413.63773	0.86971
1411.70916	0.86700
1409.78060	0.86373
1407.85203	0.86109
1405.92347	0.85979
1403.99490	0.85951
1402.06634	0.85949
1400.13778	0.85920
1398.20921	0.85860
1396.28065	0.85839
1394.35208	0.85889
1392.42352	0.86015
1390.49495	0.86298
1388.56639	0.86946
1386.63782	0.88078
1384.70926	0.89361
1382.78070	0.90637
1380.85213	0.91853
1378.92357	0.92728
1376.99500	0.93098
1375.06644	0.92906
1373.13787	0.92176
1371.20931	0.91204
1369.28074	0.89981
1367.35218	0.88544
1365.42362	0.87252
1363.49505	0.86105
1361.56649	0.85100
1359.63792	0.84442
1357.70936	0.84044
1355.78079	0.83780
1353.85223	0.83631
1351.92366	0.83575
1349.99510	0.83557
1348.06654	0.83525
1346.13797	0.83486
1344.20941	0.83505
1342.28084	0.83599
1340.35228	0.83719
1338.42371	0.83819
1336.49515	0.83975
1334.56659	0.84284
1332.63802	0.84734
1330.70946	0.85253
1328.78089	0.85741
1326.85233	0.86108
1324.92376	0.86348
1322.99520	0.86512
1321.06663	0.86674
1319.13807	0.86900
1317.20951	0.87180
1315.28094	0.87466
1313.35238	0.87782
1311.42381	0.88109
1309.49525	0.88382
1307.56668	0.88619
1305.63812	0.88857
1303.70955	0.89108
1301.78099	0.89322
1299.85243	0.89423
1297.92386	0.89431
1295.99530	0.89427
1294.06673	0.89451
1292.13817	0.89537
1290.20960	0.89718
1288.28104	0.89962
1286.35247	0.90161
1284.42391	0.90245
1282.49535	0.90250
1280.56678	0.90229
1278.63822	0.90223
1276.70965	0.90262
1274.78109	0.90344
1272.85252	0.90480
1270.92396	0.90684
1268.99539	0.90920
1267.06683	0.91142
1265.13827	0.91329
1263.20970	0.91467
1261.28114	0.91570
1259.35257	0.91673
1257.42401	0.91798
1255.49544	0.91984
1253.56688	0.92233
1251.63831	0.92493
1249.70975	0.92756
1247.78119	0.93043
1245.85262	0.93337
1243.92406	0.93629
1241.99549	0.93926
1240.06693	0.94203
1238.13836	0.94427
1236.20980	0.94567
1234.28123	0.94595
1232.35267	0.94565
1230.42411	0.94505
1228.49554	0.94320
1226.56698	0.93970
1224.63841	0.93562
1222.70985	0.93153
1220.78128	0.92667
1218.85272	0.92113
1216.92415	0.91621
1214.99559	0.91243
1213.06703	0.90947
1211.13846	0.90730
1209.20990	0.90527
1207.28133	0.90224
1205.35277	0.89793
1203.42420	0.89238
1201.49564	0.88543
1199.56708	0.87752
1197.63851	0.86959
1195.70995	0.86264
1193.78138	0.85741
1191.85282	0.85415
1189.92425	0.85285
1187.99569	0.85361
1186.06712	0.85603
1184.13856	0.85954
1182.21000	0.86452
1180.28143	0.87170
1178.35287	0.88127
1176.42430	0.89246
1174.49574	0.90419
1172.56717	0.91605
1170.63861	0.92867
1168.71004	0.94257
1166.78148	0.95650
1164.85292	0.96889
1162.92435	0.97980
1160.99579	0.98931
1159.06722	0.99587
1157.13866	0.99733
1155.21009	0.99331
1153.28153	0.98520
1151.35296	0.97439
1149.42440	0.96239
1147.49584	0.95113
1145.56727	0.94131
1143.63871	0.93242
1141.71014	0.92456
1139.78158	0.91868
1137.85301	0.91533
1135.92445	0.91389
1133.99588	0.91410
1132.06732	0.91669
1130.13876	0.92175
1128.21019	0.92812
1126.28163	0.93546
1124.35306	0.94440
1122.42450	0.95430
1120.49593	0.96300
1118.56737	0.96854
1116.63880	0.97072
1114.71024	0.97078
1112.78168	0.96963
1110.85311	0.96730
1108.92455	0.96395
1106.99598	0.96043
1105.06742	0.95752
1103.13885	0.95573
1101.21029	0.95531
1099.28172	0.95547
1097.35316	0.95515
1095.42460	0.95455
1093.49603	0.95478
1091.56747	0.95658
1089.63890	0.95977
1087.71034	0.96408
1085.78177	0.96980
1083.85321	0.97724
1081.92464	0.98537
1079.99608	0.99213
1078.06752	0.99758
1076.13895	1.00290
1074.21039	1.00647
1072.28182	1.00640
1070.35326	1.00310
1068.42469	0.99765
1066.49613	0.99126
1064.56756	0.98497
1062.63900	0.97948
1060.71044	0.97489
1058.78187	0.97045
1056.85331	0.96615
1054.92474	0.96317
1052.99618	0.96215
1051.06761	0.96282
1049.13905	0.96505
1047.21049	0.96850
1045.28192	0.97268
1043.35336	0.97783
1041.42479	0.98362
1039.49623	0.98880
1037.56766	0.99309
1035.63910	0.99672
1033.71053	0.99952
1031.78197	1.00089
1029.85341	1.00026
1027.92484	0.99869
1025.99628	0.99720
1024.06771	0.99548
1022.13915	0.99364
1020.21058	0.99157
1018.28202	0.98865
1016.35345	0.98479
1014.42489	0.98039
1012.49633	0.97585
1010.56776	0.97096
1008.63920	0.96517
1006.71063	0.95789
1004.78207	0.94898
1002.85350	0.93984
1000.92494	0.93201
998.99637	0.92546
997.06781	0.91984
995.13925	0.91558
993.21068	0.91289
991.28212	0.91130
989.35355	0.91004
987.42499	0.90868
985.49642	0.90787
983.56786	0.90807
981.63929	0.90894
979.71073	0.91050
977.78217	0.91254
975.85360	0.91390
973.92504	0.91367
971.99647	0.91183
970.06791	0.90892
968.13934	0.90591
966.21078	0.90377
964.28221	0.90295
962.35365	0.90362
960.42509	0.90594
958.49652	0.90907
956.56796	0.91091
954.63939	0.91043
952.71083	0.90850
950.78226	0.90611
948.85370	0.90338
946.92513	0.90061
944.99657	0.89846
943.06801	0.89683
941.13944	0.89545
939.21088	0.89455
937.28231	0.89398
935.35375	0.89322
933.42518	0.89256
931.49662	0.89257
929.56805	0.89272
927.63949	0.89235
925.71093	0.89149
923.78236	0.89031
921.85380	0.88866
919.92523	0.88597
917.99667	0.88212
916.06810	0.87768
914.13954	0.87281
912.21098	0.86747
910.28241	0.86225
908.35385	0.85752
906.42528	0.85259
904.49672	0.84701
902.56815	0.84105
900.63959	0.83477
898.71102	0.82820
896.78246	0.82164
894.85390	0.81526
892.92533	0.80890
890.99677	0.80258
889.06820	0.79680
887.13964	0.79237
885.21107	0.78961
883.28251	0.78841
881.35394	0.78870
879.42538	0.79038
877.49682	0.79344
875.56825	0.79810
873.63969	0.80405
871.71112	0.81034
869.78256	0.81659
867.85399	0.82405
865.92543	0.83378
863.99686	0.84461
862.06830	0.85496
860.13974	0.86466
858.21117	0.87422
856.28261	0.88352
854.35404	0.89190
852.42548	0.89929
850.49691	0.90536
848.56835	0.90868
846.63978	0.90910
844.71122	0.90802
842.78266	0.90590
840.85409	0.90273
838.92553	0.89845
836.99696	0.89253
835.06840	0.88519
833.13983	0.87753
831.21127	0.86975
829.28270	0.86190
827.35414	0.85479
825.42558	0.84857
823.49701	0.84257
821.56845	0.83673
819.63988	0.83205
817.71132	0.82910
815.78275	0.82747
813.85419	0.82692
811.92562	0.82750
809.99706	0.82895
808.06850	0.83115
806.13993	0.83458
804.21137	0.83948
802.28280	0.84556
800.35424	0.85256
798.42567	0.85971
796.49711	0.86626
794.56854	0.87223
792.63998	0.87780
790.71142	0.88282
788.78285	0.88618
786.85429	0.88694
784.92572	0.88557
782.99716	0.88229
781.06859	0.87682
779.14003	0.86935
777.21147	0.86014
775.28290	0.84934
773.35434	0.83717
771.42577	0.82394
769.49721	0.81052
767.56864	0.79753
765.64008	0.78473
763.71151	0.77189
761.78295	0.75965
759.85439	0.74911
757.92582	0.74020
755.99726	0.73225
754.06869	0.72557
752.14013	0.72061
750.21156	0.71764
748.28300	0.71696
746.35443	0.71841
744.42587	0.72103
742.49731	0.72378
740.56874	0.72681
738.64018	0.73146
736.71161	0.73922
734.78305	0.74996
732.85448	0.76232
730.92592	0.77602
728.99735	0.79085
727.06879	0.80603
725.14023	0.82139
723.21166	0.83686
721.28310	0.85265
719.35453	0.86802
717.42597	0.88050
715.49740	0.88987
713.56884	0.89715
711.64027	0.90235
709.71171	0.90583
707.78315	0.90752
705.85458	0.90601
703.92602	0.90014
701.99745	0.89151
700.06889	0.88259
698.14032	0.87292
696.21176	0.86126
694.28319	0.84882
692.35463	0.83705
690.42607	0.82548
688.49750	0.81358
686.56894	0.80222
684.64037	0.79238
682.71181	0.78479
680.78324	0.77965
678.85468	0.77562
676.92611	0.77226
674.99755	0.77105
673.06899	0.77144
671.14042	0.77109
669.21186	0.77244
667.28329	0.78197
665.35473	0.79171
663.42616	0.79865
661.49760	0.80517
659.56903	0.81111
657.64047	0.81658
655.71191	0.82203
653.78334	0.82704
651.85478	0.83156
649.92621	0.83562
647.99765	0.83705
646.06908	0.83591
644.14052	0.83604
642.21195	0.83736
640.28339	0.83635
638.35483	0.83264
636.42626	0.82724
634.49770	0.81973
632.56913	0.81167
630.64057	0.80440
628.71200	0.79677
626.78344	0.78877
624.85488	0.78185
622.92631	0.77735
620.99775	0.77544
619.06918	0.77469
617.14062	0.77379
615.21205	0.77248
613.28349	0.77238
611.35492	0.77519
609.42636	0.77939
607.49780	0.78425
605.56923	0.79219
603.64067	0.80258
601.71210	0.81143
599.78354	0.81865
