3997.91406	0.94173
3995.98550	0.94128
3994.05693	0.94051
3992.12837	0.94073
3990.19980	0.94091
3988.27124	0.93955
3986.34268	0.93762
3984.41411	0.93586
3982.48555	0.93465
3980.55698	0.93571
3978.62842	0.93831
3976.69985	0.93804
3974.77129	0.93420
3972.84272	0.93102
3970.91416	0.92993
3968.98560	0.93009
3967.05703	0.93090
3965.12847	0.93169
3963.19990	0.93204
3961.27134	0.93125
3959.34277	0.92985
3957.41421	0.92939
3955.48564	0.92959
3953.55708	0.92924
3951.62852	0.92863
3949.69995	0.92810
3947.77139	0.92567
3945.84282	0.92064
3943.91426	0.91666
3941.98569	0.91765
3940.05713	0.92094
3938.12856	0.92205
3936.20000	0.92186
3934.27144	0.92224
3932.34287	0.92188
3930.41431	0.92010
3928.48574	0.91879
3926.55718	0.91839
3924.62861	0.91837
3922.70005	0.91865
3920.77148	0.91833
3918.84292	0.91699
3916.91436	0.91617
3914.98579	0.91678
3913.05723	0.91785
3911.12866	0.91792
3909.20010	0.91642
3907.27153	0.91493
3905.34297	0.91567
3903.41440	0.91906
3901.48584	0.92152
3899.55728	0.92094
3897.62871	0.91931
3895.70015	0.91773
3893.77158	0.91522
3891.84302	0.91146
3889.91445	0.90976
3887.98589	0.91094
3886.05733	0.91331
3884.12876	0.91635
3882.20020	0.91856
3880.27163	0.91725
3878.34307	0.91395
3876.41450	0.91243
3874.48594	0.91319
3872.55737	0.91441
3870.62881	0.91311
3868.70025	0.91008
3866.77168	0.90881
3864.84312	0.90896
3862.91455	0.90838
3860.98599	0.90699
3859.05742	0.90616
3857.12886	0.90577
3855.20029	0.90463
3853.27173	0.90348
3851.34317	0.90412
3849.41460	0.90459
3847.48604	0.90431
3845.55747	0.90305
3843.62891	0.90167
3841.70034	0.90077
3839.77178	0.89996
3837.84321	0.90077
3835.91465	0.90133
3833.98609	0.90064
3832.05752	0.90133
3830.12896	0.90329
3828.20039	0.90457
3826.27183	0.90423
3824.34326	0.90304
3822.41470	0.90229
3820.48613	0.90189
3818.55757	0.90065
3816.62901	0.89933
3814.70044	0.89973
3812.77188	0.89998
3810.84331	0.89853
3808.91475	0.89656
3806.98618	0.89715
3805.05762	0.90103
3803.12905	0.90408
3801.20049	0.90246
3799.27193	0.89932
3797.34336	0.89889
3795.41480	0.89865
3793.48623	0.89670
3791.55767	0.89542
3789.62910	0.89602
3787.70054	0.89635
3785.77197	0.89509
3783.84341	0.89374
3781.91485	0.89328
3779.98628	0.89266
3778.05772	0.89125
3776.12915	0.89061
3774.20059	0.89102
3772.27202	0.89089
3770.34346	0.88950
3768.41489	0.88807
3766.48633	0.88772
3764.55777	0.88860
3762.62920	0.88959
3760.70064	0.88937
3758.77207	0.88770
3756.84351	0.88668
3754.91494	0.88758
3752.98638	0.88876
3751.05781	0.88684
3749.12925	0.88328
3747.20069	0.88172
3745.27212	0.88230
3743.34356	0.88687
3741.41499	0.89146
3739.48643	0.89258
3737.55786	0.89078
3735.62930	0.88744
3733.70074	0.88370
3731.77217	0.88176
3729.84361	0.88191
3727.91504	0.88262
3725.98648	0.88388
3724.05791	0.88611
3722.12935	0.88729
3720.20078	0.88673
3718.27222	0.88593
3716.34366	0.88543
3714.41509	0.88509
3712.48653	0.88434
3710.55796	0.88314
3708.62940	0.88199
3706.70083	0.88108
3704.77227	0.88142
3702.84370	0.88253
3700.91514	0.88229
3698.98658	0.88138
3697.05801	0.88162
3695.12945	0.88254
3693.20088	0.88350
3691.27232	0.88540
3689.34375	0.88759
3687.41519	0.88728
3685.48662	0.88666
3683.55806	0.88769
3681.62950	0.88983
3679.70093	0.89157
3677.77237	0.89217
3675.84380	0.89281
3673.91524	0.89495
3671.98667	0.89768
3670.05811	0.90083
3668.12954	0.90388
3666.20098	0.90665
3664.27242	0.90989
3662.34385	0.91404
3660.41529	0.91803
3658.48672	0.92080
3656.55816	0.92300
3654.62959	0.92484
3652.70103	0.92720
3650.77246	0.93149
3648.84390	0.93540
3646.91534	0.93637
3644.98677	0.93709
3643.05821	0.93864
3641.12964	0.94181
3639.20108	0.94618
3637.27251	0.95017
3635.34395	0.95326
3633.41538	0.95595
3631.48682	0.95773
3629.55826	0.95869
3627.62969	0.96185
3625.70113	0.96654
3623.77256	0.97090
3621.84400	0.97447
3619.91543	0.97724
3617.98687	0.98115
3616.05830	0.98566
3614.12974	0.98880
3612.20118	0.99203
3610.27261	0.99595
3608.34405	0.99921
3606.41548	1.00288
3604.48692	1.00795
3602.55835	1.01336
3600.62979	1.01731
3598.70123	1.01920
3596.77266	1.02035
3594.84410	1.02270
3592.91553	1.02689
3590.98697	1.03097
3589.05840	1.03324
3587.12984	1.03449
3585.20127	1.03811
3583.27271	1.04280
3581.34415	1.04632
3579.41558	1.04846
3577.48702	1.04984
3575.55845	1.05249
3573.62989	1.05738
3571.70132	1.06272
3569.77276	1.06721
3567.84419	1.07026
3565.91563	1.07181
3563.98707	1.07404
3562.05850	1.07727
3560.12994	1.08096
3558.20137	1.08465
3556.27281	1.08773
3554.34424	1.09143
3552.41568	1.09670
3550.48711	1.10091
3548.55855	1.10260
3546.62999	1.10410
3544.70142	1.10622
3542.77286	1.10719
3540.84429	1.10940
3538.91573	1.11468
3536.98716	1.12063
3535.05860	1.12616
3533.13003	1.13004
3531.20147	1.12931
3529.27291	1.12702
3527.34434	1.13147
3525.41578	1.14228
3523.48721	1.15063
3521.55865	1.15331
3519.63008	1.15380
3517.70152	1.15558
3515.77295	1.16104
3513.84439	1.16848
3511.91583	1.17383
3509.98726	1.17669
3508.05870	1.17912
3506.13013	1.18384
3504.20157	1.19180
3502.27300	1.19826
3500.34444	1.20119
3498.41587	1.20455
3496.48731	1.20934
3494.55875	1.21387
3492.63018	1.21706
3490.70162	1.21936
3488.77305	1.22196
3486.84449	1.22512
3484.91592	1.22783
3482.98736	1.22989
3481.05879	1.23096
3479.13023	1.23054
3477.20167	1.23065
3475.27310	1.23272
3473.34454	1.23532
3471.41597	1.23815
3469.48741	1.24304
3467.55884	1.24863
3465.63028	1.25094
3463.70171	1.24989
3461.77315	1.24883
3459.84459	1.25021
3457.91602	1.25306
3455.98746	1.25544
3454.05889	1.25685
3452.13033	1.25843
3450.20176	1.26289
3448.27320	1.26890
3446.34464	1.27148
3444.41607	1.27071
3442.48751	1.27027
3440.55894	1.27278
3438.63038	1.27801
3436.70181	1.28216
3434.77325	1.28385
3432.84468	1.28620
3430.91612	1.28833
3428.98756	1.28615
3427.05899	1.28246
3425.13043	1.28236
3423.20186	1.28431
3421.27330	1.28492
3419.34473	1.28422
3417.41617	1.28368
3415.48760	1.28478
3413.55904	1.28752
3411.63048	1.29051
3409.70191	1.29306
3407.77335	1.29380
3405.84478	1.29256
3403.91622	1.29270
3401.98765	1.29579
3400.05909	1.29813
3398.13052	1.29741
3396.20196	1.29738
3394.27340	1.29981
3392.34483	1.30206
3390.41627	1.30235
3388.48770	1.30025
3386.55914	1.29838
3384.63057	1.30037
3382.70201	1.30455
3380.77344	1.30695
3378.84488	1.30728
3376.91632	1.30789
3374.98775	1.30925
3373.05919	1.30995
3371.13062	1.31107
3369.20206	1.31354
3367.27349	1.31416
3365.34493	1.31197
3363.41636	1.31023
3361.48780	1.31068
3359.55924	1.31274
3357.63067	1.31512
3355.70211	1.31804
3353.77354	1.32151
3351.84498	1.32309
3349.91641	1.32242
3347.98785	1.32208
3346.05928	1.32383
3344.13072	1.32656
3342.20216	1.32761
3340.27359	1.32706
3338.34503	1.32774
3336.41646	1.33019
3334.48790	1.33195
3332.55933	1.33216
3330.63077	1.33351
3328.70220	1.33710
3326.77364	1.33878
3324.84508	1.33708
3322.91651	1.33784
3320.98795	1.34263
3319.05938	1.34564
3317.13082	1.34552
3315.20225	1.34630
3313.27369	1.34842
3311.34513	1.35000
3309.41656	1.35089
3307.48800	1.35231
3305.55943	1.35466
3303.63087	1.35562
3301.70230	1.35593
3299.77374	1.35884
3297.84517	1.36302
3295.91661	1.36672
3293.98805	1.36973
3292.05948	1.36985
3290.13092	1.36718
3288.20235	1.36515
3286.27379	1.36477
3284.34522	1.36568
3282.41666	1.36793
3280.48809	1.36885
3278.55953	1.36670
3276.63097	1.36416
3274.70240	1.36324
3272.77384	1.36242
3270.84527	1.35998
3268.91671	1.35625
3266.98814	1.35214
3265.05958	1.34898
3263.13101	1.34735
3261.20245	1.34584
3259.27389	1.34352
3257.34532	1.34044
3255.41676	1.33650
3253.48819	1.33114
3251.55963	1.32378
3249.63106	1.31641
3247.70250	1.31237
3245.77393	1.31063
3243.84537	1.30732
3241.91681	1.30176
3239.98824	1.29591
3238.05968	1.29140
3236.13111	1.28793
3234.20255	1.28435
3232.27398	1.28013
3230.34542	1.27533
3228.41685	1.27095
3226.48829	1.26817
3224.55973	1.26647
3222.63116	1.26455
3220.70260	1.26312
3218.77403	1.26183
3216.84547	1.25957
3214.91690	1.25742
3212.98834	1.25514
3211.05977	1.25243
3209.13121	1.24949
3207.20265	1.24593
3205.27408	1.24383
3203.34552	1.24404
3201.41695	1.24448
3199.48839	1.24423
3197.55982	1.24269
3195.63126	1.23930
3193.70269	1.23601
3191.77413	1.23374
3189.84557	1.23031
3187.91700	1.22632
3185.98844	1.22446
3184.05987	1.22297
3182.13131	1.21847
3180.20274	1.21249
3178.27418	1.20865
3176.34562	1.20716
3174.41705	1.20620
3172.48849	1.20474
3170.55992	1.20292
3168.63136	1.20162
3166.70279	1.20063
3164.77423	1.19886
3162.84566	1.19611
3160.91710	1.19284
3158.98854	1.18966
3157.05997	1.18749
3155.13141	1.18552
3153.20284	1.18218
3151.27428	1.17831
3149.34571	1.17552
3147.41715	1.17347
3145.48858	1.17069
3143.56002	1.16771
3141.63146	1.16639
3139.70289	1.16565
3137.77433	1.16406
3135.84576	1.16269
3133.91720	1.16162
3131.98863	1.16034
3130.06007	1.15924
3128.13150	1.15810
3126.20294	1.15757
3124.27438	1.15833
3122.34581	1.15854
3120.41725	1.15773
3118.48868	1.15812
3116.56012	1.15983
3114.63155	1.16096
3112.70299	1.16133
3110.77442	1.16191
3108.84586	1.16287
3106.91730	1.16390
3104.98873	1.16400
3103.06017	1.16261
3101.13160	1.16144
3099.20304	1.16166
3097.27447	1.16163
3095.34591	1.16011
3093.41734	1.15821
3091.48878	1.15717
3089.56022	1.15693
3087.63165	1.15646
3085.70309	1.15491
3083.77452	1.15340
3081.84596	1.15347
3079.91739	1.15366
3077.98883	1.15147
3076.06026	1.14759
3074.13170	1.14485
3072.20314	1.14421
3070.27457	1.14369
3068.34601	1.14185
3066.41744	1.13950
3064.48888	1.13708
3062.56031	1.13384
3060.63175	1.13052
3058.70318	1.12864
3056.77462	1.12725
3054.84606	1.12527
3052.91749	1.12304
3050.98893	1.11965
3049.06036	1.11503
3047.13180	1.11105
3045.20323	1.10865
3043.27467	1.10737
3041.34610	1.10641
3039.41754	1.10535
3037.48898	1.10338
3035.56041	1.10022
3033.63185	1.09766
3031.70328	1.09619
3029.77472	1.09456
3027.84615	1.09361
3025.91759	1.09435
3023.98903	1.09432
3022.06046	1.09168
3020.13190	1.08824
3018.20333	1.08569
3016.27477	1.08401
3014.34620	1.08303
3012.41764	1.08200
3010.48907	1.08012
3008.56051	1.07783
3006.63195	1.07570
3004.70338	1.07400
3002.77482	1.07304
3000.84625	1.07249
2998.91769	1.07181
2996.98912	1.07131
2995.06056	1.07102
2993.13199	1.07076
2991.20343	1.07163
2989.27487	1.07439
2987.34630	1.07765
2985.41774	1.08062
2983.48917	1.08408
2981.56061	1.08824
2979.63204	1.09269
2977.70348	1.09753
2975.77491	1.10286
2973.84635	1.10805
2971.91779	1.11336
2969.98922	1.12055
2968.06066	1.12865
2966.13209	1.13473
2964.20353	1.13890
2962.27496	1.14209
2960.34640	1.14363
2958.41783	1.14360
2956.48927	1.14239
2954.56071	1.14045
2952.63214	1.13832
2950.70358	1.13580
2948.77501	1.13363
2946.84645	1.13359
2944.91788	1.13628
2942.98932	1.14167
2941.06075	1.14981
2939.13219	1.15924
2937.20363	1.16836
2935.27506	1.17793
2933.34650	1.18835
2931.41793	1.19896
2929.48937	1.20998
2927.56080	1.22112
2925.63224	1.23111
2923.70367	1.23919
2921.77511	1.24509
2919.84655	1.24747
2917.91798	1.24226
2915.98942	1.22616
2914.06085	1.20283
2912.13229	1.17990
2910.20372	1.16170
2908.27516	1.14835
2906.34659	1.13793
2904.41803	1.12875
2902.48947	1.12067
2900.56090	1.11399
2898.63234	1.10889
2896.70377	1.10489
2894.77521	1.10066
2892.84664	1.09594
2890.91808	1.09186
2888.98952	1.08849
2887.06095	1.08565
2885.13239	1.08435
2883.20382	1.08424
2881.27526	1.08436
2879.34669	1.08495
2877.41813	1.08581
2875.48956	1.08626
2873.56100	1.08570
2871.63244	1.08383
2869.70387	1.08090
2867.77531	1.07811
2865.84674	1.07649
2863.91818	1.07627
2861.98961	1.07828
2860.06105	1.08340
2858.13248	1.09243
2856.20392	1.10488
2854.27536	1.11845
2852.34679	1.13113
2850.41823	1.13709
2848.48966	1.12665
2846.56110	1.10097
2844.63253	1.07328
2842.70397	1.05128
2840.77540	1.03420
2838.84684	1.02119
2836.91828	1.01193
2834.98971	1.00509
2833.06115	0.99932
2831.13258	0.99373
2829.20402	0.98828
2827.27545	0.98358
2825.34689	0.97995
2823.41832	0.97723
2821.48976	0.97559
2819.56120	0.97474
2817.63263	0.97318
2815.70407	0.97047
2813.77550	0.96803
2811.84694	0.96634
2809.91837	0.96423
2807.98981	0.96167
2806.06124	0.95989
2804.13268	0.95876
2802.20412	0.95730
2800.27555	0.95530
2798.34699	0.95331
2796.41842	0.95141
2794.48986	0.94917
2792.56129	0.94691
2790.63273	0.94548
2788.70416	0.94487
2786.77560	0.94422
2784.84704	0.94275
2782.91847	0.94077
2780.98991	0.93876
2779.06134	0.93660
2777.13278	0.93465
2775.20421	0.93358
2773.27565	0.93306
2771.34708	0.93202
2769.41852	0.92988
2767.48996	0.92699
2765.56139	0.92428
2763.63283	0.92239
2761.70426	0.92084
2759.77570	0.91927
2757.84713	0.91780
2755.91857	0.91606
2753.99001	0.91413
2752.06144	0.91240
2750.13288	0.91085
2748.20431	0.90940
2746.27575	0.90776
2744.34718	0.90597
2742.41862	0.90437
2740.49005	0.90264
2738.56149	0.90070
2736.63293	0.89906
2734.70436	0.89781
2732.77580	0.89678
2730.84723	0.89589
2728.91867	0.89482
2726.99010	0.89311
2725.06154	0.89097
2723.13297	0.88903
2721.20441	0.88773
2719.27585	0.88722
2717.34728	0.88692
2715.41872	0.88611
2713.49015	0.88484
2711.56159	0.88348
2709.63302	0.88230
2707.70446	0.88131
2705.77589	0.88064
2703.84733	0.88020
2701.91877	0.87930
2699.99020	0.87787
2698.06164	0.87670
2696.13307	0.87592
2694.20451	0.87507
2692.27594	0.87390
2690.34738	0.87251
2688.41881	0.87117
2686.49025	0.87020
2684.56169	0.86951
2682.63312	0.86863
2680.70456	0.86719
2678.77599	0.86536
2676.84743	0.86344
2674.91886	0.86143
2672.99030	0.85961
2671.06173	0.85832
2669.13317	0.85689
2667.20461	0.85459
2665.27604	0.85191
2663.34748	0.85019
2661.41891	0.84959
2659.49035	0.84852
2657.56178	0.84643
2655.63322	0.84476
2653.70465	0.84411
2651.77609	0.84355
2649.84753	0.84268
2647.91896	0.84172
2645.99040	0.84074
2644.06183	0.84016
2642.13327	0.84001
2640.20470	0.83995
2638.27614	0.83985
2636.34757	0.83942
2634.41901	0.83882
2632.49045	0.83837
2630.56188	0.83788
2628.63332	0.83756
2626.70475	0.83761
2624.77619	0.83751
2622.84762	0.83724
2620.91906	0.83697
2618.99049	0.83638
2617.06193	0.83550
2615.13337	0.83475
2613.20480	0.83439
2611.27624	0.83381
2609.34767	0.83250
2607.41911	0.83112
2605.49054	0.82994
2603.56198	0.82834
2601.63342	0.82615
2599.70485	0.82400
2597.77629	0.82240
2595.84772	0.82106
2593.91916	0.81939
2591.99059	0.81732
2590.06203	0.81515
2588.13346	0.81334
2586.20490	0.81190
2584.27634	0.81044
2582.34777	0.80893
2580.41921	0.80723
2578.49064	0.80530
2576.56208	0.80366
2574.63351	0.80233
2572.70495	0.80114
2570.77638	0.80018
2568.84782	0.79906
2566.91926	0.79775
2564.99069	0.79671
2563.06213	0.79601
2561.13356	0.79556
2559.20500	0.79519
2557.27643	0.79500
2555.34787	0.79513
2553.41930	0.79500
2551.49074	0.79445
2549.56218	0.79402
2547.63361	0.79357
2545.70505	0.79284
2543.77648	0.79219
2541.84792	0.79166
2539.91935	0.79119
2537.99079	0.79086
2536.06222	0.78992
2534.13366	0.78818
2532.20510	0.78700
2530.27653	0.78655
2528.34797	0.78564
2526.41940	0.78425
2524.49084	0.78301
2522.56227	0.78195
2520.63371	0.78106
2518.70514	0.78032
2516.77658	0.77908
2514.84802	0.77727
2512.91945	0.77565
2510.99089	0.77440
2509.06232	0.77321
2507.13376	0.77199
2505.20519	0.77067
2503.27663	0.76945
2501.34806	0.76859
2499.41950	0.76786
2497.49094	0.76688
2495.56237	0.76584
2493.63381	0.76494
2491.70524	0.76423
2489.77668	0.76383
2487.84811	0.76362
2485.91955	0.76330
2483.99098	0.76302
2482.06242	0.76285
2480.13386	0.76272
2478.20529	0.76273
2476.27673	0.76267
2474.34816	0.76230
2472.41960	0.76193
2470.49103	0.76180
2468.56247	0.76140
2466.63391	0.76035
2464.70534	0.75911
2462.77678	0.75816
2460.84821	0.75737
2458.91965	0.75638
2456.99108	0.75497
2455.06252	0.75332
2453.13395	0.75192
2451.20539	0.75082
2449.27683	0.74954
2447.34826	0.74788
2445.41970	0.74596
2443.49113	0.74376
2441.56257	0.74147
2439.63400	0.73950
2437.70544	0.73788
2435.77687	0.73639
2433.84831	0.73493
2431.91975	0.73334
2429.99118	0.73154
2428.06262	0.72970
2426.13405	0.72807
2424.20549	0.72653
2422.27692	0.72480
2420.34836	0.72304
2418.41979	0.72173
2416.49123	0.72088
2414.56267	0.71999
2412.63410	0.71879
2410.70554	0.71749
2408.77697	0.71637
2406.84841	0.71553
2404.91984	0.71476
2402.99128	0.71377
2401.06271	0.71267
2399.13415	0.71184
2397.20559	0.71113
2395.27702	0.71010
2393.34846	0.70899
2391.41989	0.70853
2389.49133	0.70849
2387.56276	0.70801
2385.63420	0.70699
2383.70563	0.70580
2381.77707	0.70450
2379.84851	0.70336
2377.91994	0.70279
2375.99138	0.70226
2374.06281	0.70073
2372.13425	0.69845
2370.20568	0.69682
2368.27712	0.69647
2366.34855	0.69718
2364.41999	0.69778
2362.49143	0.69667
2360.56286	0.69474
2358.63430	0.69346
2356.70573	0.69254
2354.77717	0.69206
2352.84860	0.69182
2350.92004	0.69091
2348.99147	0.68957
2347.06291	0.68829
2345.13435	0.68733
2343.20578	0.68653
2341.27722	0.68558
2339.34865	0.68587
2337.42009	0.68674
2335.49152	0.68582
2333.56296	0.68407
2331.63440	0.68332
2329.70583	0.68393
2327.77727	0.68508
2325.84870	0.68588
2323.92014	0.68650
2321.99157	0.68694
2320.06301	0.68673
2318.13444	0.68609
2316.20588	0.68554
2314.27732	0.68526
2312.34875	0.68534
2310.42019	0.68573
2308.49162	0.68629
2306.56306	0.68681
2304.63449	0.68686
2302.70593	0.68655
2300.77736	0.68631
2298.84880	0.68612
2296.92024	0.68587
2294.99167	0.68588
2293.06311	0.68605
2291.13454	0.68575
2289.20598	0.68495
2287.27741	0.68416
2285.34885	0.68335
2283.42028	0.68217
2281.49172	0.68067
2279.56316	0.67917
2277.63459	0.67765
2275.70603	0.67595
2273.77746	0.67417
2271.84890	0.67240
2269.92033	0.67056
2267.99177	0.66862
2266.06320	0.66665
2264.13464	0.66480
2262.20608	0.66314
2260.27751	0.66156
2258.34895	0.65990
2256.42038	0.65818
2254.49182	0.65664
2252.56325	0.65528
2250.63469	0.65381
2248.70612	0.65236
2246.77756	0.65135
2244.84900	0.65084
2242.92043	0.65036
2240.99187	0.64966
2239.06330	0.64895
2237.13474	0.64832
2235.20617	0.64782
2233.27761	0.64749
2231.34904	0.64726
2229.42048	0.64689
2227.49192	0.64637
2225.56335	0.64616
2223.63479	0.64628
2221.70622	0.64619
2219.77766	0.64589
2217.84909	0.64582
2215.92053	0.64582
2213.99196	0.64541
2212.06340	0.64480
2210.13484	0.64436
2208.20627	0.64414
2206.27771	0.64386
2204.34914	0.64342
2202.42058	0.64294
2200.49201	0.64234
2198.56345	0.64182
2196.63488	0.64159
2194.70632	0.64129
2192.77776	0.64083
2190.84919	0.64025
2188.92063	0.63949
2186.99206	0.63882
2185.06350	0.63841
2183.13493	0.63811
2181.20637	0.63791
2179.27781	0.63768
2177.34924	0.63718
2175.42068	0.63650
2173.49211	0.63592
2171.56355	0.63550
2169.63498	0.63517
2167.70642	0.63496
2165.77785	0.63476
2163.84929	0.63451
2161.92073	0.63433
2159.99216	0.63416
2158.06360	0.63402
2156.13503	0.63377
2154.20647	0.63325
2152.27790	0.63270
2150.34934	0.63246
2148.42077	0.63239
2146.49221	0.63220
2144.56365	0.63177
2142.63508	0.63107
2140.70652	0.63030
2138.77795	0.62951
2136.84939	0.62856
2134.92082	0.62766
2132.99226	0.62699
2131.06369	0.62650
2129.13513	0.62617
2127.20657	0.62589
2125.27800	0.62541
2123.34944	0.62469
2121.42087	0.62398
2119.49231	0.62343
2117.56374	0.62291
2115.63518	0.62243
2113.70661	0.62212
2111.77805	0.62183
2109.84949	0.62139
2107.92092	0.62068
2105.99236	0.61991
2104.06379	0.61955
2102.13523	0.61951
2100.20666	0.61923
2098.27810	0.61870
2096.34953	0.61818
2094.42097	0.61778
2092.49241	0.61755
2090.56384	0.61732
2088.63528	0.61713
2086.70671	0.61705
2084.77815	0.61678
2082.84958	0.61630
2080.92102	0.61603
2078.99245	0.61598
2077.06389	0.61586
2075.13533	0.61558
2073.20676	0.61514
2071.27820	0.61462
2069.34963	0.61417
2067.42107	0.61384
2065.49250	0.61360
2063.56394	0.61325
2061.63537	0.61266
2059.70681	0.61206
2057.77825	0.61161
2055.84968	0.61111
2053.92112	0.61058
2051.99255	0.61014
2050.06399	0.60965
2048.13542	0.60891
2046.20686	0.60805
2044.27830	0.60738
2042.34973	0.60691
2040.42117	0.60641
2038.49260	0.60577
2036.56404	0.60484
2034.63547	0.60374
2032.70691	0.60288
2030.77834	0.60208
2028.84978	0.60088
2026.92122	0.59952
2024.99265	0.59848
2023.06409	0.59778
2021.13552	0.59703
2019.20696	0.59603
2017.27839	0.59484
2015.34983	0.59379
2013.42126	0.59304
2011.49270	0.59223
2009.56414	0.59124
2007.63557	0.59045
2005.70701	0.59007
2003.77844	0.58988
2001.84988	0.58958
1999.92131	0.58908
1997.99275	0.58854
1996.06418	0.58818
1994.13562	0.58799
1992.20706	0.58763
1990.27849	0.58700
1988.34993	0.58620
1986.42136	0.58521
1984.49280	0.58429
1982.56423	0.58362
1980.63567	0.58299
1978.70710	0.58239
1976.77854	0.58194
1974.84998	0.58147
1972.92141	0.58099
1970.99285	0.58079
1969.06428	0.58091
1967.13572	0.58103
1965.20715	0.58101
1963.27859	0.58119
1961.35002	0.58178
1959.42146	0.58246
1957.49290	0.58301
1955.56433	0.58345
1953.63577	0.58383
1951.70720	0.58422
1949.77864	0.58468
1947.85007	0.58542
1945.92151	0.58636
1943.99294	0.58686
1942.06438	0.58668
1940.13582	0.58640
1938.20725	0.58639
1936.27869	0.58655
1934.35012	0.58672
1932.42156	0.58661
1930.49299	0.58624
1928.56443	0.58603
1926.63586	0.58624
1924.70730	0.58648
1922.77874	0.58623
1920.85017	0.58558
1918.92161	0.58486
1916.99304	0.58399
1915.06448	0.58311
1913.13591	0.58252
1911.20735	0.58226
1909.27878	0.58220
1907.35022	0.58200
1905.42166	0.58150
1903.49309	0.58092
1901.56453	0.58049
1899.63596	0.58031
1897.70740	0.58039
1895.77883	0.58035
1893.85027	0.57991
1891.92171	0.57965
1889.99314	0.57978
1888.06458	0.57981
1886.13601	0.57984
1884.20745	0.58010
1882.27888	0.58035
1880.35032	0.58031
1878.42175	0.58000
1876.49319	0.57975
1874.56463	0.57964
1872.63606	0.57962
1870.70750	0.57976
1868.77893	0.57951
1866.85037	0.57820
1864.92180	0.57660
1862.99324	0.57534
1861.06467	0.57417
1859.13611	0.57280
1857.20755	0.57132
1855.27898	0.57004
1853.35042	0.56888
1851.42185	0.56782
1849.49329	0.56718
1847.56472	0.56690
1845.63616	0.56641
1843.70759	0.56483
1841.77903	0.56300
1839.85047	0.56201
1837.92190	0.56152
1835.99334	0.56107
1834.06477	0.56087
1832.13621	0.56115
1830.20764	0.56130
1828.27908	0.56083
1826.35051	0.56039
1824.42195	0.56027
1822.49339	0.56032
1820.56482	0.56052
1818.63626	0.56088
1816.70769	0.56125
1814.77913	0.56159
1812.85056	0.56210
1810.92200	0.56269
1808.99343	0.56299
1807.06487	0.56309
1805.13631	0.56345
1803.20774	0.56412
1801.27918	0.56483
1799.35061	0.56523
1797.42205	0.56556
1795.49348	0.56607
1793.56492	0.56652
1791.63635	0.56633
1789.70779	0.56560
1787.77923	0.56531
1785.85066	0.56552
1783.92210	0.56597
1781.99353	0.56662
1780.06497	0.56718
1778.13640	0.56767
1776.20784	0.56845
1774.27927	0.56968
1772.35071	0.57078
1770.42215	0.57108
1768.49358	0.57110
1766.56502	0.57116
1764.63645	0.57170
1762.70789	0.57303
1760.77932	0.57481
1758.85076	0.57655
1756.92220	0.57863
1754.99363	0.58129
1753.06507	0.58469
1751.13650	0.58957
1749.20794	0.59531
1747.27937	0.60055
1745.35081	0.60572
1743.42224	0.61112
1741.49368	0.61609
1739.56512	0.62010
1737.63655	0.62308
1735.70799	0.62579
1733.77942	0.62877
1731.85086	0.63042
1729.92229	0.63149
1727.99373	0.63320
1726.06516	0.63594
1724.13660	0.64006
1722.20804	0.64466
1720.27947	0.64942
1718.35091	0.65617
1716.42234	0.66497
1714.49378	0.67141
1712.56521	0.67681
1710.63665	0.68336
1708.70808	0.69166
1706.77952	0.70409
1704.85096	0.72057
1702.92239	0.73665
1700.99383	0.75980
1699.06526	0.79405
1697.13670	0.82515
1695.20813	0.85525
1693.27957	0.87857
1691.35100	0.89824
1689.42244	0.92165
1687.49388	0.94366
1685.56531	0.96727
1683.63675	1.00328
1681.70818	1.03015
1679.77962	1.04748
1677.85105	1.06492
1675.92249	1.08636
1673.99392	1.10981
1672.06536	1.12934
1670.13680	1.15185
1668.20823	1.17592
1666.27967	1.19113
1664.35110	1.20567
1662.42254	1.22504
1660.49397	1.24182
1658.56541	1.25278
1656.63684	1.26058
1654.70828	1.26661
1652.77972	1.26997
1650.85115	1.27134
1648.92259	1.27275
1646.99402	1.27372
1645.06546	1.27452
1643.13689	1.27489
1641.20833	1.27495
1639.27976	1.27493
1637.35120	1.27513
1635.42264	1.27396
1633.49407	1.27118
1631.56551	1.26883
1629.63694	1.26587
1627.70838	1.26107
1625.77981	1.25380
1623.85125	1.24284
1621.92269	1.22952
1619.99412	1.21797
1618.06556	1.20310
1616.13699	1.17988
1614.20843	1.16040
1612.27986	1.14515
1610.35130	1.12845
1608.42273	1.11091
1606.49417	1.09581
1604.56561	1.08394
1602.63704	1.07403
1600.70848	1.06577
1598.77991	1.05984
1596.85135	1.05612
1594.92278	1.05333
1592.99422	1.05111
1591.06565	1.05013
1589.13709	1.05101
1587.20853	1.05448
1585.27996	1.06025
1583.35140	1.06744
1581.42283	1.07535
1579.49427	1.08376
1577.56570	1.09504
1575.63714	1.10985
1573.70857	1.11986
1571.78001	1.12779
1569.85145	1.13984
1567.92288	1.15218
1565.99432	1.16150
1564.06575	1.17095
1562.13719	1.18026
1560.20862	1.19352
1558.28006	1.21249
1556.35149	1.21634
1554.42293	1.21754
1552.49437	1.22136
1550.56580	1.22583
1548.63724	1.22871
1546.70867	1.23018
1544.78011	1.23226
1542.85154	1.23509
1540.92298	1.23505
1538.99441	1.22936
1537.06585	1.22571
1535.13729	1.22316
1533.20872	1.21803
1531.28016	1.21222
1529.35159	1.20851
1527.42303	1.20503
1525.49446	1.20231
1523.56590	1.20201
1521.63733	1.20120
1519.70877	1.19934
1517.78021	1.19643
1515.85164	1.19002
1513.92308	1.18204
1511.99451	1.17448
1510.06595	1.16779
1508.13738	1.15599
1506.20882	1.12800
1504.28025	1.10897
1502.35169	1.09775
1500.42313	1.08605
1498.49456	1.07083
1496.56600	1.05087
1494.63743	1.03401
1492.70887	1.02309
1490.78030	1.01159
1488.85174	0.99490
1486.92317	0.97995
1484.99461	0.97035
1483.06605	0.96369
1481.13748	0.95833
1479.20892	0.95531
1477.28035	0.95614
1475.35179	0.96106
1473.42322	0.96954
1471.49466	0.97794
1469.56610	0.98355
1467.63753	0.98864
1465.70897	0.99471
1463.78040	0.99986
1461.85184	1.00223
1459.92327	1.00395
1457.99471	1.00741
1456.06614	1.01078
1454.13758	1.01129
1452.20902	1.01075
1450.28045	1.01005
1448.35189	1.00920
1446.42332	1.00743
1444.49476	1.00487
1442.56619	1.00163
1440.63763	0.99784
1438.70906	0.99382
1436.78050	0.98811
1434.85194	0.98064
1432.92337	0.97372
1430.99481	0.96659
1429.06624	0.95916
1427.13768	0.95366
1425.20911	0.95083
1423.28055	0.94987
1421.35198	0.94991
1419.42342	0.95069
1417.49486	0.95142
1415.56629	0.95176
1413.63773	0.95207
1411.70916	0.95195
1409.78060	0.95147
1407.85203	0.95173
1405.92347	0.95321
1403.99490	0.95501
1402.06634	0.95613
1400.13778	0.95696
1398.20921	0.95803
1396.28065	0.95936
1394.35208	0.96021
1392.42352	0.96065
1390.49495	0.96182
1388.56639	0.96460
1386.63782	0.96942
1384.70926	0.97519
1382.78070	0.98076
1380.85213	0.98516
1378.92357	0.98699
1376.99500	0.98530
1375.06644	0.97911
1373.13787	0.96911
1371.20931	0.95808
1369.28074	0.94559
1367.35218	0.93220
1365.42362	0.92042
1363.49505	0.90878
1361.56649	0.89681
1359.63792	0.88766
1357.70936	0.88122
1355.78079	0.87607
1353.85223	0.87193
1351.92366	0.86887
1349.99510	0.86669
1348.06654	0.86509
1346.13797	0.86407
1344.20941	0.86400
1342.28084	0.86505
1340.35228	0.86687
1338.42371	0.86858
1336.49515	0.87043
1334.56659	0.87354
1332.63802	0.87795
1330.70946	0.88279
1328.78089	0.88670
1326.85233	0.88908
1324.92376	0.89032
1322.99520	0.89093
1321.06663	0.89137
1319.13807	0.89175
1317.20951	0.89162
1315.28094	0.89097
1313.35238	0.89035
1311.42381	0.88957
1309.49525	0.88816
1307.56668	0.88616
1305.63812	0.88388
1303.70955	0.88157
1301.78099	0.87929
1299.85243	0.87687
1297.92386	0.87398
1295.99530	0.87095
1294.06673	0.86856
1292.13817	0.86741
1290.20960	0.86773
1288.28104	0.86893
1286.35247	0.86993
1284.42391	0.87022
1282.49535	0.87022
1280.56678	0.87047
1278.63822	0.87112
1276.70965	0.87232
1274.78109	0.87427
1272.85252	0.87716
1270.92396	0.88071
1268.99539	0.88446
1267.06683	0.88863
1265.13827	0.89300
1263.20970	0.89655
1261.28114	0.89891
1259.35257	0.90055
1257.42401	0.90216
1255.49544	0.90390
1253.56688	0.90553
1251.63831	0.90728
1249.70975	0.90905
1247.78119	0.91031
1245.85262	0.91103
1243.92406	0.91130
1241.99549	0.91114
1240.06693	0.91058
1238.13836	0.90919
1236.20980	0.90652
1234.28123	0.90310
1232.35267	0.89951
1230.42411	0.89522
1228.49554	0.89011
1226.56698	0.88457
1224.63841	0.87856
1222.70985	0.87217
1220.78128	0.86552
1218.85272	0.85884
1216.92415	0.85303
1214.99559	0.84878
1213.06703	0.84608
1211.13846	0.84509
1209.20990	0.84538
1207.28133	0.84549
1205.35277	0.84431
1203.42420	0.84150
1201.49564	0.83749
1199.56708	0.83335
1197.63851	0.82930
1195.70995	0.82482
1193.78138	0.82058
1191.85282	0.81789
1189.92425	0.81678
1187.99569	0.81663
1186.06712	0.81696
1184.13856	0.81734
1182.21000	0.81797
1180.28143	0.81939
1178.35287	0.82136
1176.42430	0.82355
1174.49574	0.82635
1172.56717	0.82971
1170.63861	0.83330
1168.71004	0.83768
1166.78148	0.84350
1164.85292	0.84994
1162.92435	0.85548
1160.99579	0.85933
1159.06722	0.86064
1157.13866	0.85803
1155.21009	0.85115
1153.28153	0.84117
1151.35296	0.82950
1149.42440	0.81678
1147.49584	0.80381
1145.56727	0.79220
1143.63871	0.78308
1141.71014	0.77647
1139.78158	0.77234
1137.85301	0.77070
1135.92445	0.77085
1133.99588	0.77256
1132.06732	0.77678
1130.13876	0.78393
1128.21019	0.79306
1126.28163	0.80255
1124.35306	0.81082
1122.42450	0.81756
1120.49593	0.82335
1118.56737	0.82740
1116.63880	0.82818
1114.71024	0.82591
1112.78168	0.82168
1110.85311	0.81648
1108.92455	0.81124
1106.99598	0.80652
1105.06742	0.80232
1103.13885	0.79832
1101.21029	0.79464
1099.28172	0.79250
1097.35316	0.79303
1095.42460	0.79559
1093.49603	0.79915
1091.56747	0.80402
1089.63890	0.81066
1087.71034	0.81895
1085.78177	0.82880
1083.85321	0.83968
1081.92464	0.85041
1079.99608	0.85975
1078.06752	0.86661
1076.13895	0.87014
1074.21039	0.87000
1072.28182	0.86637
1070.35326	0.86036
1068.42469	0.85309
1066.49613	0.84521
1064.56756	0.83768
1062.63900	0.83073
1060.71044	0.82358
1058.78187	0.81587
1056.85331	0.80816
1054.92474	0.80142
1052.99618	0.79626
1051.06761	0.79241
1049.13905	0.78967
1047.21049	0.78886
1045.28192	0.79046
1043.35336	0.79356
1041.42479	0.79736
1039.49623	0.80120
1037.56766	0.80399
1035.63910	0.80531
1033.71053	0.80557
1031.78197	0.80516
1029.85341	0.80390
1027.92484	0.80129
1025.99628	0.79730
1024.06771	0.79282
1022.13915	0.78908
1020.21058	0.78663
1018.28202	0.78491
1016.35345	0.78295
1014.42489	0.78024
1012.49633	0.77592
1010.56776	0.76919
1008.63920	0.76106
1006.71063	0.75315
1004.78207	0.74586
1002.85350	0.73910
1000.92494	0.73314
998.99637	0.72837
997.06781	0.72462
995.13925	0.72149
993.21068	0.71855
991.28212	0.71494
989.35355	0.71054
987.42499	0.70648
985.49642	0.70341
983.56786	0.70107
981.63929	0.69913
979.71073	0.69747
977.78217	0.69578
975.85360	0.69348
973.92504	0.68996
971.99647	0.68474
970.06791	0.67815
968.13934	0.67119
966.21078	0.66460
964.28221	0.65911
962.35365	0.65568
960.42509	0.65467
958.49652	0.65562
956.56796	0.65718
954.63939	0.65711
952.71083	0.65407
950.78226	0.64856
948.85370	0.64183
946.92513	0.63516
944.99657	0.62960
943.06801	0.62550
941.13944	0.62248
939.21088	0.62022
937.28231	0.61865
935.35375	0.61745
933.42518	0.61650
931.49662	0.61617
929.56805	0.61662
927.63949	0.61758
925.71093	0.61867
923.78236	0.62004
921.85380	0.62185
919.92523	0.62351
917.99667	0.62458
916.06810	0.62532
914.13954	0.62569
912.21098	0.62578
910.28241	0.62601
908.35385	0.62659
906.42528	0.62762
904.49672	0.62854
902.56815	0.62863
900.63959	0.62809
898.71102	0.62704
896.78246	0.62506
894.85390	0.62223
892.92533	0.61892
890.99677	0.61515
889.06820	0.61082
887.13964	0.60623
885.21107	0.60202
883.28251	0.59871
881.35394	0.59614
879.42538	0.59401
877.49682	0.59254
875.56825	0.59184
873.63969	0.59167
871.71112	0.59209
869.78256	0.59307
867.85399	0.59422
865.92543	0.59573
863.99686	0.59804
862.06830	0.60104
860.13974	0.60435
858.21117	0.60787
856.28261	0.61161
854.35404	0.61518
852.42548	0.61812
850.49691	0.62073
848.56835	0.62331
846.63978	0.62575
844.71122	0.62832
842.78266	0.63136
840.85409	0.63467
838.92553	0.63772
836.99696	0.64030
835.06840	0.64279
833.13983	0.64508
831.21127	0.64680
829.28270	0.64813
827.35414	0.64918
825.42558	0.64966
823.49701	0.64932
821.56845	0.64803
819.63988	0.64615
817.71132	0.64445
815.78275	0.64283
813.85419	0.64064
811.92562	0.63766
809.99706	0.63395
808.06850	0.63018
806.13993	0.62683
804.21137	0.62329
802.28280	0.61942
800.35424	0.61596
798.42567	0.61344
796.49711	0.61158
794.56854	0.60995
792.63998	0.60864
790.71142	0.60751
788.78285	0.60639
786.85429	0.60574
784.92572	0.60561
782.99716	0.60558
781.06859	0.60601
779.14003	0.60732
777.21147	0.60920
775.28290	0.61118
773.35434	0.61334
771.42577	0.61623
769.49721	0.61991
767.56864	0.62350
765.64008	0.62631
763.71151	0.62876
761.78295	0.63155
759.85439	0.63456
757.92582	0.63716
755.99726	0.63890
754.06869	0.63982
752.14013	0.64015
750.21156	0.63995
748.28300	0.63904
746.35443	0.63722
744.42587	0.63484
742.49731	0.63204
740.56874	0.62841
738.64018	0.62401
736.71161	0.61961
734.78305	0.61559
732.85448	0.61179
730.92592	0.60863
728.99735	0.60624
727.06879	0.60393
725.14023	0.60152
723.21166	0.59928
721.28310	0.59765
719.35453	0.59683
717.42597	0.59584
715.49740	0.59432
713.56884	0.59309
711.64027	0.59244
709.71171	0.59219
707.78315	0.59237
705.85458	0.59302
703.92602	0.59443
701.99745	0.59652
700.06889	0.59880
698.14032	0.60129
696.21176	0.60394
694.28319	0.60621
692.35463	0.60841
690.42607	0.61130
688.49750	0.61437
686.56894	0.61663
684.64037	0.61840
682.71181	0.62038
680.78324	0.62230
678.85468	0.62359
676.92611	0.62491
674.99755	0.62716
673.06899	0.62982
671.14042	0.63142
669.21186	0.63191
667.28329	0.63420
665.35473	0.63703
663.42616	0.63764
661.49760	0.63640
659.56903	0.63467
657.64047	0.63235
655.71191	0.62831
653.78334	0.62333
651.85478	0.61861
649.92621	0.61347
647.99765	0.60735
646.06908	0.60103
644.14052	0.59542
642.21195	0.59102
640.28339	0.58751
638.35483	0.58381
636.42626	0.57879
634.49770	0.57251
632.56913	0.56570
630.64057	0.55874
628.71200	0.55237
626.78344	0.54714
624.85488	0.54326
622.92631	0.54045
620.99775	0.53763
619.06918	0.53505
617.14062	0.53405
615.21205	0.53425
613.28349	0.53439
611.35492	0.53430
609.42636	0.53414
607.49780	0.53412
605.56923	0.53512
603.64067	0.53871
601.71210	0.54450
599.78354	0.54994
