3997.91406	1.02001
3995.98550	1.02059
3994.05693	1.02084
3992.12837	1.02087
3990.19980	1.02177
3988.27124	1.02432
3986.34268	1.02825
3984.41411	1.03041
3982.48555	1.02955
3980.55698	1.02888
3978.62842	1.02955
3976.69985	1.02905
3974.77129	1.02618
3972.84272	1.02353
3970.91416	1.02323
3968.98560	1.02406
3967.05703	1.02417
3965.12847	1.02357
3963.19990	1.02258
3961.27134	1.02057
3959.34277	1.01766
3957.41421	1.01549
3955.48564	1.01570
3953.55708	1.01725
3951.62852	1.01774
3949.69995	1.01688
3947.77139	1.01594
3945.84282	1.01616
3943.91426	1.01687
3941.98569	1.01599
3940.05713	1.01443
3938.12856	1.01455
3936.20000	1.01621
3934.27144	1.01721
3932.34287	1.01573
3930.41431	1.01308
3928.48574	1.01176
3926.55718	1.01140
3924.62861	1.01002
3922.70005	1.00832
3920.77148	1.00898
3918.84292	1.01047
3916.91436	1.00960
3914.98579	1.00864
3913.05723	1.00912
3911.12866	1.00879
3909.20010	1.00777
3907.27153	1.00804
3905.34297	1.00940
3903.41440	1.00952
3901.48584	1.00756
3899.55728	1.00494
3897.62871	1.00416
3895.70015	1.00546
3893.77158	1.00538
3891.84302	1.00192
3889.91445	1.00056
3887.98589	1.00180
3886.05733	1.00004
3884.12876	0.99698
3882.20020	0.99563
3880.27163	0.99300
3878.34307	0.99246
3876.41450	0.99509
3874.48594	0.99766
3872.55737	0.99914
3870.62881	0.99803
3868.70025	0.99538
3866.77168	0.99516
3864.84312	0.99534
3862.91455	0.99405
3860.98599	0.99332
3859.05742	0.99378
3857.12886	0.99489
3855.20029	0.99519
3853.27173	0.99101
3851.34317	0.98717
3849.41460	0.98758
3847.48604	0.98988
3845.55747	0.99245
3843.62891	0.99365
3841.70034	0.99327
3839.77178	0.99258
3837.84321	0.99175
3835.91465	0.99158
3833.98609	0.99210
3832.05752	0.99227
3830.12896	0.99222
3828.20039	0.99168
3826.27183	0.99128
3824.34326	0.99319
3822.41470	0.99424
3820.48613	0.99079
3818.55757	0.98930
3816.62901	0.98815
3814.70044	0.98571
3812.77188	0.98625
3810.84331	0.98902
3808.91475	0.99105
3806.98618	0.98901
3805.05762	0.98654
3803.12905	0.98686
3801.20049	0.98692
3799.27193	0.98850
3797.34336	0.98989
3795.41480	0.98770
3793.48623	0.98564
3791.55767	0.98539
3789.62910	0.98545
3787.70054	0.98539
3785.77197	0.98450
3783.84341	0.98299
3781.91485	0.98231
3779.98628	0.98130
3778.05772	0.97997
3776.12915	0.98114
3774.20059	0.98415
3772.27202	0.98648
3770.34346	0.98586
3768.41489	0.98371
3766.48633	0.98305
3764.55777	0.98318
3762.62920	0.98413
3760.70064	0.98541
3758.77207	0.98483
3756.84351	0.98352
3754.91494	0.98317
3752.98638	0.98162
3751.05781	0.97526
3749.12925	0.97176
3747.20069	0.97371
3745.27212	0.97096
3743.34356	0.96701
3741.41499	0.97057
3739.48643	0.97520
3737.55786	0.97590
3735.62930	0.97227
3733.70074	0.96855
3731.77217	0.96780
3729.84361	0.96911
3727.91504	0.97004
3725.98648	0.96945
3724.05791	0.96941
3722.12935	0.96882
3720.20078	0.96669
3718.27222	0.96664
3716.34366	0.97012
3714.41509	0.97457
3712.48653	0.97408
3710.55796	0.96798
3708.62940	0.96608
3706.70083	0.96802
3704.77227	0.97026
3702.84370	0.96997
3700.91514	0.96758
3698.98658	0.96766
3697.05801	0.97006
3695.12945	0.97217
3693.20088	0.97372
3691.27232	0.97527
3689.34375	0.97588
3687.41519	0.97735
3685.48662	0.98036
3683.55806	0.98251
3681.62950	0.98313
3679.70093	0.98503
3677.77237	0.98947
3675.84380	0.99171
3673.91524	0.99262
3671.98667	0.99538
3670.05811	0.99744
3668.12954	1.00028
3666.20098	1.00424
3664.27242	1.00822
3662.34385	1.01297
3660.41529	1.01831
3658.48672	1.02245
3656.55816	1.02485
3654.62959	1.02829
3652.70103	1.03574
3650.77246	1.04686
3648.84390	1.05259
3646.91534	1.05232
3644.98677	1.05485
3643.05821	1.05799
3641.12964	1.06113
3639.20108	1.06581
3637.27251	1.07218
3635.34395	1.07936
3633.41538	1.08620
3631.48682	1.09096
3629.55826	1.09278
3627.62969	1.09539
3625.70113	1.10180
3623.77256	1.10968
3621.84400	1.11773
3619.91543	1.12519
3617.98687	1.13147
3616.05830	1.13793
3614.12974	1.14475
3612.20118	1.14945
3610.27261	1.15126
3608.34405	1.15334
3606.41548	1.15904
3604.48692	1.16664
3602.55835	1.17286
3600.62979	1.17635
3598.70123	1.17872
3596.77266	1.18165
3594.84410	1.18719
3592.91553	1.19589
3590.98697	1.20381
3589.05840	1.20795
3587.12984	1.20801
3585.20127	1.21029
3583.27271	1.21598
3581.34415	1.22208
3579.41558	1.22795
3577.48702	1.23301
3575.55845	1.23797
3573.62989	1.24411
3571.70132	1.25002
3569.77276	1.25360
3567.84419	1.25563
3565.91563	1.26125
3563.98707	1.27045
3562.05850	1.27881
3560.12994	1.28368
3558.20137	1.28546
3556.27281	1.28776
3554.34424	1.29395
3552.41568	1.30443
3550.48711	1.31540
3548.55855	1.32468
3546.62999	1.33209
3544.70142	1.33670
3542.77286	1.33929
3540.84429	1.34251
3538.91573	1.34873
3536.98716	1.35621
3535.05860	1.36175
3533.13003	1.36690
3531.20147	1.37244
3529.27291	1.37636
3527.34434	1.38189
3525.41578	1.39170
3523.48721	1.40056
3521.55865	1.40612
3519.63008	1.41076
3517.70152	1.41562
3515.77295	1.42106
3513.84439	1.42601
3511.91583	1.42951
3509.98726	1.43374
3508.05870	1.44206
3506.13013	1.45413
3504.20157	1.46661
3502.27300	1.47824
3500.34444	1.48961
3498.41587	1.49838
3496.48731	1.50285
3494.55875	1.50515
3492.63018	1.50734
3490.70162	1.51129
3488.77305	1.51781
3486.84449	1.52384
3484.91592	1.52540
3482.98736	1.52392
3481.05879	1.52496
3479.13023	1.52722
3477.20167	1.52643
3475.27310	1.52712
3473.34454	1.53351
3471.41597	1.54004
3469.48741	1.54267
3467.55884	1.54552
3465.63028	1.54964
3463.70171	1.55028
3461.77315	1.55011
3459.84459	1.55611
3457.91602	1.56465
3455.98746	1.56772
3454.05889	1.56412
3452.13033	1.55861
3450.20176	1.55870
3448.27320	1.56712
3446.34464	1.57718
3444.41607	1.58406
3442.48751	1.58875
3440.55894	1.59030
3438.63038	1.59001
3436.70181	1.58917
3434.77325	1.58728
3432.84468	1.58704
3430.91612	1.59008
3428.98756	1.59263
3427.05899	1.59108
3425.13043	1.58843
3423.20186	1.58833
3421.27330	1.58922
3419.34473	1.59002
3417.41617	1.59316
3415.48760	1.59857
3413.55904	1.60194
3411.63048	1.60178
3409.70191	1.60011
3407.77335	1.59708
3405.84478	1.59282
3403.91622	1.59211
3401.98765	1.59791
3400.05909	1.60415
3398.13052	1.60888
3396.20196	1.61696
3394.27340	1.62430
3392.34483	1.62323
3390.41627	1.61799
3388.48770	1.61659
3386.55914	1.61645
3384.63057	1.61217
3382.70201	1.60624
3380.77344	1.60447
3378.84488	1.61011
3376.91632	1.62082
3374.98775	1.62953
3373.05919	1.63180
3371.13062	1.63096
3369.20206	1.63231
3367.27349	1.63599
3365.34493	1.63966
3363.41636	1.64247
3361.48780	1.64369
3359.55924	1.64360
3357.63067	1.64477
3355.70211	1.64660
3353.77354	1.64675
3351.84498	1.64681
3349.91641	1.64959
3347.98785	1.65440
3346.05928	1.65637
3344.13072	1.65580
3342.20216	1.65772
3340.27359	1.66091
3338.34503	1.66180
3336.41646	1.66042
3334.48790	1.66034
3332.55933	1.66442
3330.63077	1.67153
3328.70220	1.67844
3326.77364	1.68064
3324.84508	1.67942
3322.91651	1.67911
3320.98795	1.67733
3319.05938	1.67576
3317.13082	1.68035
3315.20225	1.68738
3313.27369	1.69030
3311.34513	1.68844
3309.41656	1.68541
3307.48800	1.68786
3305.55943	1.69534
3303.63087	1.69938
3301.70230	1.69670
3299.77374	1.68919
3297.84517	1.68156
3295.91661	1.68164
3293.98805	1.68807
3292.05948	1.69064
3290.13092	1.68711
3288.20235	1.68373
3286.27379	1.68527
3284.34522	1.69099
3282.41666	1.69582
3280.48809	1.69737
3278.55953	1.69816
3276.63097	1.69993
3274.70240	1.69967
3272.77384	1.69535
3270.84527	1.68960
3268.91671	1.68324
3266.98814	1.67672
3265.05958	1.67083
3263.13101	1.66612
3261.20245	1.66463
3259.27389	1.66541
3257.34532	1.66628
3255.41676	1.66332
3253.48819	1.65327
3251.55963	1.64269
3249.63106	1.63737
3247.70250	1.63510
3245.77393	1.63267
3243.84537	1.62947
3241.91681	1.62734
3239.98824	1.62505
3238.05968	1.61906
3236.13111	1.61136
3234.20255	1.60699
3232.27398	1.60663
3230.34542	1.60758
3228.41685	1.60703
3226.48829	1.60256
3224.55973	1.59587
3222.63116	1.59207
3220.70260	1.59167
3218.77403	1.58998
3216.84547	1.58553
3214.91690	1.58140
3212.98834	1.57819
3211.05977	1.57399
3209.13121	1.56822
3207.20265	1.56202
3205.27408	1.55869
3203.34552	1.55930
3201.41695	1.55964
3199.48839	1.55624
3197.55982	1.54993
3195.63126	1.54339
3193.70269	1.53842
3191.77413	1.53511
3189.84557	1.53259
3187.91700	1.53145
3185.98844	1.53199
3184.05987	1.52903
3182.13131	1.52067
3180.20274	1.51442
3178.27418	1.51459
3176.34562	1.51594
3174.41705	1.51101
3172.48849	1.50217
3170.55992	1.49754
3168.63136	1.49680
3166.70279	1.49577
3164.77423	1.49466
3162.84566	1.49375
3160.91710	1.49132
3158.98854	1.48763
3157.05997	1.48421
3155.13141	1.47946
3153.20284	1.47294
3151.27428	1.46937
3149.34571	1.47075
3147.41715	1.47205
3145.48858	1.46982
3143.56002	1.46579
3141.63146	1.46244
3139.70289	1.46216
3137.77433	1.46435
3135.84576	1.46465
3133.91720	1.46042
3131.98863	1.45510
3130.06007	1.45408
3128.13150	1.45618
3126.20294	1.45844
3124.27438	1.46186
3122.34581	1.46427
3120.41725	1.46151
3118.48868	1.45603
3116.56012	1.45309
3114.63155	1.45334
3112.70299	1.45445
3110.77442	1.45425
3108.84586	1.45259
3106.91730	1.45101
3104.98873	1.44996
3103.06017	1.45063
3101.13160	1.45236
3099.20304	1.45224
3097.27447	1.45220
3095.34591	1.45272
3093.41734	1.44974
3091.48878	1.44501
3089.56022	1.44417
3087.63165	1.44724
3085.70309	1.44853
3083.77452	1.44521
3081.84596	1.44044
3079.91739	1.43637
3077.98883	1.43308
3076.06026	1.43196
3074.13170	1.43350
3072.20314	1.43587
3070.27457	1.43621
3068.34601	1.43418
3066.41744	1.43237
3064.48888	1.43147
3062.56031	1.43089
3060.63175	1.42995
3058.70318	1.42678
3056.77462	1.42203
3054.84606	1.41909
3052.91749	1.41819
3050.98893	1.41590
3049.06036	1.41148
3047.13180	1.40759
3045.20323	1.40439
3043.27467	1.40008
3041.34610	1.39576
3039.41754	1.39298
3037.48898	1.39021
3035.56041	1.38754
3033.63185	1.38682
3031.70328	1.38602
3029.77472	1.38270
3027.84615	1.37806
3025.91759	1.37428
3023.98903	1.37211
3022.06046	1.37020
3020.13190	1.36853
3018.20333	1.36824
3016.27477	1.36669
3014.34620	1.36187
3012.41764	1.35736
3010.48907	1.35571
3008.56051	1.35421
3006.63195	1.35040
3004.70338	1.34619
3002.77482	1.34405
3000.84625	1.34446
2998.91769	1.34591
2996.98912	1.34551
2995.06056	1.34389
2993.13199	1.34456
2991.20343	1.34821
2989.27487	1.35302
2987.34630	1.35819
2985.41774	1.36442
2983.48917	1.37063
2981.56061	1.37588
2979.63204	1.38270
2977.70348	1.39213
2975.77491	1.40079
2973.84635	1.40570
2971.91779	1.40951
2969.98922	1.41662
2968.06066	1.42674
2966.13209	1.43641
2964.20353	1.44303
2962.27496	1.44729
2960.34640	1.44992
2958.41783	1.44820
2956.48927	1.44243
2954.56071	1.43620
2952.63214	1.42997
2950.70358	1.42531
2948.77501	1.42466
2946.84645	1.42590
2944.91788	1.42810
2942.98932	1.43364
2941.06075	1.44271
2939.13219	1.45349
2937.20363	1.46455
2935.27506	1.47515
2933.34650	1.48409
2931.41793	1.49198
2929.48937	1.50192
2927.56080	1.51353
2925.63224	1.52273
2923.70367	1.52803
2921.77511	1.53175
2919.84655	1.53280
2917.91798	1.52474
2915.98942	1.50640
2914.06085	1.48397
2912.13229	1.46321
2910.20372	1.44630
2908.27516	1.43144
2906.34659	1.41687
2904.41803	1.40450
2902.48947	1.39579
2900.56090	1.39048
2898.63234	1.38855
2896.70377	1.38808
2894.77521	1.38543
2892.84664	1.37956
2890.91808	1.37321
2888.98952	1.36887
2887.06095	1.36556
2885.13239	1.36257
2883.20382	1.36176
2881.27526	1.36235
2879.34669	1.36124
2877.41813	1.36001
2875.48956	1.36144
2873.56100	1.36335
2871.63244	1.36261
2869.70387	1.35813
2867.77531	1.34958
2865.84674	1.33951
2863.91818	1.33410
2861.98961	1.33634
2860.06105	1.34212
2858.13248	1.34798
2856.20392	1.35623
2854.27536	1.36771
2852.34679	1.37821
2850.41823	1.38097
2848.48966	1.36815
2846.56110	1.33939
2844.63253	1.30668
2842.70397	1.28147
2840.77540	1.26486
2838.84684	1.25325
2836.91828	1.24537
2834.98971	1.23971
2833.06115	1.23387
2831.13258	1.22783
2829.20402	1.22191
2827.27545	1.21576
2825.34689	1.20975
2823.41832	1.20487
2821.48976	1.20149
2819.56120	1.19793
2817.63263	1.19311
2815.70407	1.18847
2813.77550	1.18467
2811.84694	1.18124
2809.91837	1.17810
2807.98981	1.17493
2806.06124	1.17188
2804.13268	1.16946
2802.20412	1.16744
2800.27555	1.16531
2798.34699	1.16286
2796.41842	1.16046
2794.48986	1.15789
2792.56129	1.15530
2790.63273	1.15363
2788.70416	1.15188
2786.77560	1.14913
2784.84704	1.14692
2782.91847	1.14607
2780.98991	1.14535
2779.06134	1.14397
2777.13278	1.14303
2775.20421	1.14261
2773.27565	1.14106
2771.34708	1.13866
2769.41852	1.13684
2767.48996	1.13497
2765.56139	1.13223
2763.63283	1.12951
2761.70426	1.12752
2759.77570	1.12602
2757.84713	1.12471
2755.91857	1.12349
2753.99001	1.12199
2752.06144	1.11988
2750.13288	1.11786
2748.20431	1.11662
2746.27575	1.11548
2744.34718	1.11330
2742.41862	1.11012
2740.49005	1.10764
2738.56149	1.10688
2736.63293	1.10678
2734.70436	1.10614
2732.77580	1.10507
2730.84723	1.10387
2728.91867	1.10197
2726.99010	1.09859
2725.06154	1.09439
2723.13297	1.09147
2721.20441	1.09078
2719.27585	1.09051
2717.34728	1.08870
2715.41872	1.08623
2713.49015	1.08466
2711.56159	1.08310
2709.63302	1.08013
2707.70446	1.07672
2705.77589	1.07422
2703.84733	1.07200
2701.91877	1.06965
2699.99020	1.06801
2698.06164	1.06674
2696.13307	1.06491
2694.20451	1.06276
2692.27594	1.06071
2690.34738	1.05868
2688.41881	1.05681
2686.49025	1.05533
2684.56169	1.05378
2682.63312	1.05170
2680.70456	1.04983
2678.77599	1.04884
2676.84743	1.04776
2674.91886	1.04584
2672.99030	1.04384
2671.06173	1.04210
2669.13317	1.04053
2667.20461	1.03967
2665.27604	1.03938
2663.34748	1.03871
2661.41891	1.03764
2659.49035	1.03659
2657.56178	1.03545
2655.63322	1.03388
2653.70465	1.03207
2651.77609	1.03061
2649.84753	1.02929
2647.91896	1.02769
2645.99040	1.02596
2644.06183	1.02403
2642.13327	1.02207
2640.20470	1.02065
2638.27614	1.01959
2636.34757	1.01855
2634.41901	1.01780
2632.49045	1.01703
2630.56188	1.01546
2628.63332	1.01350
2626.70475	1.01203
2624.77619	1.01085
2622.84762	1.00917
2620.91906	1.00709
2618.99049	1.00541
2617.06193	1.00440
2615.13337	1.00357
2613.20480	1.00239
2611.27624	1.00099
2609.34767	0.99964
2607.41911	0.99786
2605.49054	0.99587
2603.56198	0.99481
2601.63342	0.99430
2599.70485	0.99334
2597.77629	0.99223
2595.84772	0.99147
2593.91916	0.99075
2591.99059	0.98964
2590.06203	0.98832
2588.13346	0.98709
2586.20490	0.98624
2584.27634	0.98610
2582.34777	0.98615
2580.41921	0.98563
2578.49064	0.98452
2576.56208	0.98291
2574.63351	0.98099
2572.70495	0.97892
2570.77638	0.97674
2568.84782	0.97477
2566.91926	0.97298
2564.99069	0.97119
2563.06213	0.96982
2561.13356	0.96879
2559.20500	0.96728
2557.27643	0.96525
2555.34787	0.96288
2553.41930	0.96002
2551.49074	0.95704
2549.56218	0.95428
2547.63361	0.95194
2545.70505	0.95059
2543.77648	0.94985
2541.84792	0.94853
2539.91935	0.94672
2537.99079	0.94558
2536.06222	0.94537
2534.13366	0.94498
2532.20510	0.94383
2530.27653	0.94266
2528.34797	0.94187
2526.41940	0.94098
2524.49084	0.93958
2522.56227	0.93786
2520.63371	0.93626
2518.70514	0.93468
2516.77658	0.93320
2514.84802	0.93221
2512.91945	0.93142
2510.99089	0.93029
2509.06232	0.92908
2507.13376	0.92795
2505.20519	0.92635
2503.27663	0.92459
2501.34806	0.92367
2499.41950	0.92324
2497.49094	0.92217
2495.56237	0.92055
2493.63381	0.91913
2491.70524	0.91804
2489.77668	0.91722
2487.84811	0.91660
2485.91955	0.91592
2483.99098	0.91523
2482.06242	0.91462
2480.13386	0.91399
2478.20529	0.91308
2476.27673	0.91167
2474.34816	0.91058
2472.41960	0.91052
2470.49103	0.91055
2468.56247	0.90973
2466.63391	0.90848
2464.70534	0.90723
2462.77678	0.90589
2460.84821	0.90478
2458.91965	0.90415
2456.99108	0.90344
2455.06252	0.90194
2453.13395	0.89968
2451.20539	0.89719
2449.27683	0.89499
2447.34826	0.89333
2445.41970	0.89204
2443.49113	0.89068
2441.56257	0.88895
2439.63400	0.88725
2437.70544	0.88584
2435.77687	0.88436
2433.84831	0.88267
2431.91975	0.88091
2429.99118	0.87925
2428.06262	0.87773
2426.13405	0.87638
2424.20549	0.87519
2422.27692	0.87407
2420.34836	0.87306
2418.41979	0.87216
2416.49123	0.87111
2414.56267	0.86992
2412.63410	0.86876
2410.70554	0.86766
2408.77697	0.86656
2406.84841	0.86539
2404.91984	0.86418
2402.99128	0.86333
2401.06271	0.86284
2399.13415	0.86193
2397.20559	0.86025
2395.27702	0.85851
2393.34846	0.85721
2391.41989	0.85622
2389.49133	0.85531
2387.56276	0.85403
2385.63420	0.85179
2383.70563	0.84850
2381.77707	0.84437
2379.84851	0.83940
2377.91994	0.83361
2375.99138	0.82706
2374.06281	0.81995
2372.13425	0.81196
2370.20568	0.80241
2368.27712	0.79263
2366.34855	0.78435
2364.41999	0.77635
2362.49143	0.76889
2360.56286	0.76639
2358.63430	0.76961
2356.70573	0.77675
2354.77717	0.78691
2352.84860	0.79673
2350.92004	0.80398
2348.99147	0.80756
2347.06291	0.80568
2345.13435	0.79827
2343.20578	0.79087
2341.27722	0.78833
2339.34865	0.78917
2337.42009	0.79005
2335.49152	0.78954
2333.56296	0.78835
2331.63440	0.78753
2329.70583	0.78853
2327.77727	0.79050
2325.84870	0.79225
2323.92014	0.79527
2321.99157	0.79934
2320.06301	0.80202
2318.13444	0.80351
2316.20588	0.80515
2314.27732	0.80699
2312.34875	0.80873
2310.42019	0.81039
2308.49162	0.81238
2306.56306	0.81469
2304.63449	0.81638
2302.70593	0.81713
2300.77736	0.81781
2298.84880	0.81870
2296.92024	0.81926
2294.99167	0.81954
2293.06311	0.81973
2291.13454	0.81970
2289.20598	0.81976
2287.27741	0.82031
2285.34885	0.82093
2283.42028	0.82066
2281.49172	0.81913
2279.56316	0.81701
2277.63459	0.81539
2275.70603	0.81468
2273.77746	0.81414
2271.84890	0.81304
2269.92033	0.81148
2267.99177	0.80995
2266.06320	0.80881
2264.13464	0.80813
2262.20608	0.80760
2260.27751	0.80677
2258.34895	0.80560
2256.42038	0.80466
2254.49182	0.80416
2252.56325	0.80368
2250.63469	0.80317
2248.70612	0.80277
2246.77756	0.80230
2244.84900	0.80163
2242.92043	0.80096
2240.99187	0.80055
2239.06330	0.80033
2237.13474	0.79998
2235.20617	0.79944
2233.27761	0.79885
2231.34904	0.79829
2229.42048	0.79783
2227.49192	0.79746
2225.56335	0.79714
2223.63479	0.79689
2221.70622	0.79674
2219.77766	0.79670
2217.84909	0.79646
2215.92053	0.79571
2213.99196	0.79469
2212.06340	0.79391
2210.13484	0.79375
2208.20627	0.79404
2206.27771	0.79426
2204.34914	0.79424
2202.42058	0.79414
2200.49201	0.79402
2198.56345	0.79384
2196.63488	0.79351
2194.70632	0.79308
2192.77776	0.79292
2190.84919	0.79304
2188.92063	0.79294
2186.99206	0.79263
2185.06350	0.79235
2183.13493	0.79189
2181.20637	0.79133
2179.27781	0.79098
2177.34924	0.79083
2175.42068	0.79089
2173.49211	0.79125
2171.56355	0.79146
2169.63498	0.79119
2167.70642	0.79069
2165.77785	0.79025
2163.84929	0.79002
2161.92073	0.79016
2159.99216	0.79044
2158.06360	0.79015
2156.13503	0.78919
2154.20647	0.78847
2152.27790	0.78846
2150.34934	0.78825
2148.42077	0.78729
2146.49221	0.78631
2144.56365	0.78561
2142.63508	0.78464
2140.70652	0.78345
2138.77795	0.78236
2136.84939	0.78134
2134.92082	0.78057
2132.99226	0.77999
2131.06369	0.77913
2129.13513	0.77815
2127.20657	0.77753
2125.27800	0.77688
2123.34944	0.77576
2121.42087	0.77453
2119.49231	0.77356
2117.56374	0.77290
2115.63518	0.77246
2113.70661	0.77181
2111.77805	0.77080
2109.84949	0.76953
2107.92092	0.76810
2105.99236	0.76693
2104.06379	0.76634
2102.13523	0.76593
2100.20666	0.76520
2098.27810	0.76428
2096.34953	0.76347
2094.42097	0.76274
2092.49241	0.76197
2090.56384	0.76113
2088.63528	0.76035
2086.70671	0.75980
2084.77815	0.75915
2082.84958	0.75819
2080.92102	0.75722
2078.99245	0.75632
2077.06389	0.75544
2075.13533	0.75459
2073.20676	0.75386
2071.27820	0.75347
2069.34963	0.75324
2067.42107	0.75291
2065.49250	0.75256
2063.56394	0.75208
2061.63537	0.75144
2059.70681	0.75097
2057.77825	0.75075
2055.84968	0.75050
2053.92112	0.75003
2051.99255	0.74943
2050.06399	0.74898
2048.13542	0.74893
2046.20686	0.74921
2044.27830	0.74945
2042.34973	0.74940
2040.42117	0.74917
2038.49260	0.74868
2036.56404	0.74804
2034.63547	0.74791
2032.70691	0.74835
2030.77834	0.74856
2028.84978	0.74820
2026.92122	0.74761
2024.99265	0.74709
2023.06409	0.74662
2021.13552	0.74612
2019.20696	0.74553
2017.27839	0.74451
2015.34983	0.74299
2013.42126	0.74159
2011.49270	0.74042
2009.56414	0.73917
2007.63557	0.73779
2005.70701	0.73631
2003.77844	0.73468
2001.84988	0.73304
1999.92131	0.73142
1997.99275	0.72958
1996.06418	0.72779
1994.13562	0.72652
1992.20706	0.72541
1990.27849	0.72398
1988.34993	0.72243
1986.42136	0.72087
1984.49280	0.71942
1982.56423	0.71836
1980.63567	0.71770
1978.70710	0.71720
1976.77854	0.71671
1974.84998	0.71617
1972.92141	0.71556
1970.99285	0.71502
1969.06428	0.71456
1967.13572	0.71388
1965.20715	0.71287
1963.27859	0.71178
1961.35002	0.71070
1959.42146	0.70953
1957.49290	0.70827
1955.56433	0.70702
1953.63577	0.70574
1951.70720	0.70422
1949.77864	0.70248
1947.85007	0.70088
1945.92151	0.69982
1943.99294	0.69886
1942.06438	0.69698
1940.13582	0.69459
1938.20725	0.69264
1936.27869	0.69104
1934.35012	0.68950
1932.42156	0.68808
1930.49299	0.68708
1928.56443	0.68655
1926.63586	0.68634
1924.70730	0.68629
1922.77874	0.68611
1920.85017	0.68580
1918.92161	0.68552
1916.99304	0.68534
1915.06448	0.68562
1913.13591	0.68640
1911.20735	0.68733
1909.27878	0.68812
1907.35022	0.68875
1905.42166	0.68943
1903.49309	0.69018
1901.56453	0.69087
1899.63596	0.69143
1897.70740	0.69191
1895.77883	0.69230
1893.85027	0.69258
1891.92171	0.69281
1889.99314	0.69249
1888.06458	0.69150
1886.13601	0.69089
1884.20745	0.69062
1882.27888	0.69009
1880.35032	0.68934
1878.42175	0.68839
1876.49319	0.68734
1874.56463	0.68677
1872.63606	0.68742
1870.70750	0.68888
1868.77893	0.68877
1866.85037	0.68655
1864.92180	0.68522
1862.99324	0.68520
1861.06467	0.68540
1859.13611	0.68532
1857.20755	0.68512
1855.27898	0.68532
1853.35042	0.68586
1851.42185	0.68631
1849.49329	0.68681
1847.56472	0.68768
1845.63616	0.68834
1843.70759	0.68749
1841.77903	0.68627
1839.85047	0.68600
1837.92190	0.68585
1835.99334	0.68522
1834.06477	0.68473
1832.13621	0.68478
1830.20764	0.68402
1828.27908	0.68209
1826.35051	0.68030
1824.42195	0.67800
1822.49339	0.67535
1820.56482	0.67330
1818.63626	0.67158
1816.70769	0.66975
1814.77913	0.66844
1812.85056	0.66809
1810.92200	0.66796
1808.99343	0.66752
1807.06487	0.66714
1805.13631	0.66740
1803.20774	0.66856
1801.27918	0.66997
1799.35061	0.67094
1797.42205	0.67198
1795.49348	0.67356
1793.56492	0.67530
1791.63635	0.67614
1789.70779	0.67614
1787.77923	0.67685
1785.85066	0.67809
1783.92210	0.67909
1781.99353	0.67985
1780.06497	0.68028
1778.13640	0.68068
1776.20784	0.68173
1774.27927	0.68341
1772.35071	0.68408
1770.42215	0.68292
1768.49358	0.68167
1766.56502	0.68113
1764.63645	0.68186
1762.70789	0.68366
1760.77932	0.68611
1758.85076	0.68932
1756.92220	0.69396
1754.99363	0.70000
1753.06507	0.70795
1751.13650	0.71959
1749.20794	0.73325
1747.27937	0.74478
1745.35081	0.75464
1743.42224	0.76379
1741.49368	0.77141
1739.56512	0.77681
1737.63655	0.78076
1735.70799	0.78413
1733.77942	0.78513
1731.85086	0.78253
1729.92229	0.77975
1727.99373	0.77805
1726.06516	0.77823
1724.13660	0.78039
1722.20804	0.78377
1720.27947	0.78843
1718.35091	0.79552
1716.42234	0.80452
1714.49378	0.81282
1712.56521	0.82209
1710.63665	0.83479
1708.70808	0.85217
1706.77952	0.87835
1704.85096	0.91277
1702.92239	0.94586
1700.99383	0.99242
1699.06526	1.06254
1697.13670	1.12586
1695.20813	1.18614
1693.27957	1.23203
1691.35100	1.26865
1689.42244	1.31114
1687.49388	1.34984
1685.56531	1.38625
1683.63675	1.43605
1681.70818	1.47265
1679.77962	1.49422
1677.85105	1.51355
1675.92249	1.53514
1673.99392	1.55760
1672.06536	1.57539
1670.13680	1.59132
1668.20823	1.60619
1666.27967	1.61584
1664.35110	1.62416
1662.42254	1.63060
1660.49397	1.63410
1658.56541	1.63828
1656.63684	1.64237
1654.70828	1.64449
1652.77972	1.63895
1650.85115	1.63396
1648.92259	1.63160
1646.99402	1.62607
1645.06546	1.61953
1643.13689	1.61596
1641.20833	1.61476
1639.27976	1.61324
1637.35120	1.60939
1635.42264	1.60181
1633.49407	1.59459
1631.56551	1.58899
1629.63694	1.58242
1627.70838	1.57593
1625.77981	1.56971
1623.85125	1.55908
1621.92269	1.54360
1619.99412	1.53111
1618.06556	1.51736
1616.13699	1.49432
1614.20843	1.47399
1612.27986	1.45820
1610.35130	1.44072
1608.42273	1.42169
1606.49417	1.40574
1604.56561	1.39446
1602.63704	1.38535
1600.70848	1.37760
1598.77991	1.37177
1596.85135	1.36792
1594.92278	1.36588
1592.99422	1.36566
1591.06565	1.36751
1589.13709	1.37163
1587.20853	1.37718
1585.27996	1.38289
1583.35140	1.38981
1581.42283	1.39967
1579.49427	1.41217
1577.56570	1.42691
1575.63714	1.44087
1573.70857	1.44885
1571.78001	1.45536
1569.85145	1.46613
1567.92288	1.47942
1565.99432	1.48968
1564.06575	1.49793
1562.13719	1.50569
1560.20862	1.51788
1558.28006	1.53538
1556.35149	1.54050
1554.42293	1.54311
1552.49437	1.54573
1550.56580	1.54591
1548.63724	1.54435
1546.70867	1.54476
1544.78011	1.54772
1542.85154	1.55117
1540.92298	1.54862
1538.99441	1.53544
1537.06585	1.52883
1535.13729	1.52650
1533.20872	1.52069
1531.28016	1.51253
1529.35159	1.50790
1527.42303	1.50478
1525.49446	1.50098
1523.56590	1.49761
1521.63733	1.49419
1519.70877	1.49213
1517.78021	1.48907
1515.85164	1.48081
1513.92308	1.47000
1511.99451	1.46075
1510.06595	1.45406
1508.13738	1.43905
1506.20882	1.40211
1504.28025	1.37942
1502.35169	1.36610
1500.42313	1.35152
1498.49456	1.33238
1496.56600	1.30701
1494.63743	1.28599
1492.70887	1.27290
1490.78030	1.25729
1488.85174	1.23204
1486.92317	1.21012
1484.99461	1.19700
1483.06605	1.18852
1481.13748	1.18248
1479.20892	1.17948
1477.28035	1.18083
1475.35179	1.18726
1473.42322	1.19962
1471.49466	1.21316
1469.56610	1.22198
1467.63753	1.22946
1465.70897	1.23852
1463.78040	1.24707
1461.85184	1.25229
1459.92327	1.25731
1457.99471	1.26670
1456.06614	1.27508
1454.13758	1.27575
1452.20902	1.27473
1450.28045	1.27367
1448.35189	1.27242
1446.42332	1.27105
1444.49476	1.26935
1442.56619	1.26657
1440.63763	1.26292
1438.70906	1.25833
1436.78050	1.25041
1434.85194	1.24007
1432.92337	1.23087
1430.99481	1.22166
1429.06624	1.21253
1427.13768	1.20589
1425.20911	1.20202
1423.28055	1.20029
1421.35198	1.20047
1419.42342	1.20187
1417.49486	1.20205
1415.56629	1.20127
1413.63773	1.20110
1411.70916	1.20077
1409.78060	1.20019
1407.85203	1.20108
1405.92347	1.20392
1403.99490	1.20694
1402.06634	1.20959
1400.13778	1.21241
1398.20921	1.21440
1396.28065	1.21538
1394.35208	1.21613
1392.42352	1.21708
1390.49495	1.21891
1388.56639	1.22282
1386.63782	1.22964
1384.70926	1.23727
1382.78070	1.24400
1380.85213	1.24881
1378.92357	1.25036
1376.99500	1.24831
1375.06644	1.24065
1373.13787	1.22698
1371.20931	1.21223
1369.28074	1.19604
1367.35218	1.17796
1365.42362	1.16194
1363.49505	1.14664
1361.56649	1.13061
1359.63792	1.11817
1357.70936	1.10955
1355.78079	1.10235
1353.85223	1.09593
1351.92366	1.09074
1349.99510	1.08670
1348.06654	1.08321
1346.13797	1.08009
1344.20941	1.07789
1342.28084	1.07695
1340.35228	1.07673
1338.42371	1.07633
1336.49515	1.07655
1334.56659	1.07920
1332.63802	1.08466
1330.70946	1.09138
1328.78089	1.09711
1326.85233	1.10131
1324.92376	1.10474
1322.99520	1.10768
1321.06663	1.11035
1319.13807	1.11330
1317.20951	1.11669
1315.28094	1.11970
1313.35238	1.12147
1311.42381	1.12175
1309.49525	1.12078
1307.56668	1.11907
1305.63812	1.11735
1303.70955	1.11579
1301.78099	1.11361
1299.85243	1.11021
1297.92386	1.10558
1295.99530	1.10014
1294.06673	1.09494
1292.13817	1.09111
1290.20960	1.08879
1288.28104	1.08769
1286.35247	1.08734
1284.42391	1.08642
1282.49535	1.08443
1280.56678	1.08291
1278.63822	1.08298
1276.70965	1.08432
1274.78109	1.08663
1272.85252	1.09018
1270.92396	1.09481
1268.99539	1.10009
1267.06683	1.10559
1265.13827	1.11082
1263.20970	1.11532
1261.28114	1.11873
1259.35257	1.12110
1257.42401	1.12296
1255.49544	1.12516
1253.56688	1.12781
1251.63831	1.12970
1249.70975	1.13042
1247.78119	1.13076
1245.85262	1.13111
1243.92406	1.13105
1241.99549	1.12975
1240.06693	1.12696
1238.13836	1.12344
1236.20980	1.11960
1234.28123	1.11446
1232.35267	1.10741
1230.42411	1.09937
1228.49554	1.09103
1226.56698	1.08219
1224.63841	1.07257
1222.70985	1.06201
1220.78128	1.05097
1218.85272	1.04066
1216.92415	1.03202
1214.99559	1.02561
1213.06703	1.02220
1211.13846	1.02138
1209.20990	1.02089
1207.28133	1.01921
1205.35277	1.01590
1203.42420	1.01002
1201.49564	1.00207
1199.56708	0.99384
1197.63851	0.98595
1195.70995	0.97837
1193.78138	0.97162
1191.85282	0.96606
1189.92425	0.96141
1187.99569	0.95769
1186.06712	0.95498
1184.13856	0.95321
1182.21000	0.95318
1180.28143	0.95561
1178.35287	0.96038
1176.42430	0.96760
1174.49574	0.97672
1172.56717	0.98620
1170.63861	0.99607
1168.71004	1.00770
1166.78148	1.02135
1164.85292	1.03542
1162.92435	1.04765
1160.99579	1.05651
1159.06722	1.06070
1157.13866	1.05876
1155.21009	1.05060
1153.28153	1.03884
1151.35296	1.02714
1149.42440	1.01692
1147.49584	1.00767
1145.56727	1.00021
1143.63871	0.99668
1141.71014	0.99773
1139.78158	1.00236
1137.85301	1.00974
1135.92445	1.01956
1133.99588	1.03119
1132.06732	1.04376
1130.13876	1.05744
1128.21019	1.07295
1126.28163	1.08914
1124.35306	1.10393
1122.42450	1.11676
1120.49593	1.12715
1118.56737	1.13351
1116.63880	1.13457
1114.71024	1.13013
1112.78168	1.12172
1110.85311	1.11263
1108.92455	1.10447
1106.99598	1.09600
1105.06742	1.08781
1103.13885	1.08210
1101.21029	1.07856
1099.28172	1.07722
1097.35316	1.07990
1095.42460	1.08609
1093.49603	1.09472
1091.56747	1.10652
1089.63890	1.12138
1087.71034	1.13873
1085.78177	1.15804
1083.85321	1.17706
1081.92464	1.19249
1079.99608	1.20137
1078.06752	1.20254
1076.13895	1.19843
1074.21039	1.19172
1072.28182	1.18236
1070.35326	1.17152
1068.42469	1.16103
1066.49613	1.14970
1064.56756	1.13665
1062.63900	1.12305
1060.71044	1.10995
1058.78187	1.09786
1056.85331	1.08658
1054.92474	1.07590
1052.99618	1.06622
1051.06761	1.05798
1049.13905	1.05199
1047.21049	1.04910
1045.28192	1.04912
1043.35336	1.05171
1041.42479	1.05656
1039.49623	1.06221
1037.56766	1.06706
1035.63910	1.07030
1033.71053	1.07148
1031.78197	1.06998
1029.85341	1.06593
1027.92484	1.06033
1025.99628	1.05313
1024.06771	1.04486
1022.13915	1.03721
1020.21058	1.03104
1018.28202	1.02640
1016.35345	1.02212
1014.42489	1.01670
1012.49633	1.00887
1010.56776	0.99738
1008.63920	0.98264
1006.71063	0.96713
1004.78207	0.95307
1002.85350	0.94088
1000.92494	0.93056
998.99637	0.92287
997.06781	0.91774
995.13925	0.91350
993.21068	0.90890
991.28212	0.90396
989.35355	0.89897
987.42499	0.89435
985.49642	0.89041
983.56786	0.88740
981.63929	0.88548
979.71073	0.88446
977.78217	0.88351
975.85360	0.88107
973.92504	0.87616
971.99647	0.86895
970.06791	0.86018
968.13934	0.85105
966.21078	0.84281
964.28221	0.83661
962.35365	0.83361
960.42509	0.83462
958.49652	0.83914
956.56796	0.84452
954.63939	0.84672
952.71083	0.84316
950.78226	0.83510
948.85370	0.82586
946.92513	0.81789
944.99657	0.81194
943.06801	0.80815
941.13944	0.80633
939.21088	0.80567
937.28231	0.80531
935.35375	0.80552
933.42518	0.80666
931.49662	0.80820
929.56805	0.80987
927.63949	0.81179
925.71093	0.81368
923.78236	0.81536
921.85380	0.81669
919.92523	0.81702
917.99667	0.81608
916.06810	0.81460
914.13954	0.81328
912.21098	0.81184
910.28241	0.81013
908.35385	0.80902
906.42528	0.80919
904.49672	0.81012
902.56815	0.81066
900.63959	0.81011
898.71102	0.80840
896.78246	0.80587
894.85390	0.80278
892.92533	0.79899
890.99677	0.79487
889.06820	0.79158
887.13964	0.78950
885.21107	0.78816
883.28251	0.78739
881.35394	0.78748
879.42538	0.78893
877.49682	0.79198
875.56825	0.79612
873.63969	0.80081
871.71112	0.80603
869.78256	0.81164
867.85399	0.81733
865.92543	0.82333
863.99686	0.82989
862.06830	0.83708
860.13974	0.84510
858.21117	0.85398
856.28261	0.86340
854.35404	0.87260
852.42548	0.88104
850.49691	0.88891
848.56835	0.89643
846.63978	0.90351
844.71122	0.90993
842.78266	0.91589
840.85409	0.92213
838.92553	0.92879
836.99696	0.93511
835.06840	0.94068
833.13983	0.94619
831.21127	0.95199
829.28270	0.95793
827.35414	0.96435
825.42558	0.97090
823.49701	0.97699
821.56845	0.98321
819.63988	0.98972
817.71132	0.99610
815.78275	1.00256
813.85419	1.00895
811.92562	1.01530
809.99706	1.02229
808.06850	1.02956
806.13993	1.03588
804.21137	1.04137
802.28280	1.04704
800.35424	1.05235
798.42567	1.05630
796.49711	1.05940
794.56854	1.06249
792.63998	1.06596
790.71142	1.06945
788.78285	1.07226
786.85429	1.07372
784.92572	1.07305
782.99716	1.07034
781.06859	1.06704
779.14003	1.06457
777.21147	1.06206
775.28290	1.05783
773.35434	1.05275
771.42577	1.04763
769.49721	1.04163
767.56864	1.03551
765.64008	1.03081
763.71151	1.02745
761.78295	1.02514
759.85439	1.02414
757.92582	1.02406
755.99726	1.02486
754.06869	1.02788
752.14013	1.03292
750.21156	1.03827
748.28300	1.04500
746.35443	1.05378
744.42587	1.06178
742.49731	1.06785
740.56874	1.07435
738.64018	1.08375
736.71161	1.09504
734.78305	1.10444
732.85448	1.11159
730.92592	1.11839
728.99735	1.12295
727.06879	1.12418
725.14023	1.12501
723.21166	1.12643
721.28310	1.12564
719.35453	1.12108
717.42597	1.11502
715.49740	1.10837
713.56884	1.10034
711.64027	1.09256
709.71171	1.08615
707.78315	1.07955
705.85458	1.07181
703.92602	1.06375
701.99745	1.05653
700.06889	1.05112
698.14032	1.04796
696.21176	1.04583
694.28319	1.04376
692.35463	1.04332
690.42607	1.04542
688.49750	1.04925
686.56894	1.05605
684.64037	1.06677
682.71181	1.07809
680.78324	1.08771
678.85468	1.09947
676.92611	1.11574
674.99755	1.13174
673.06899	1.14238
671.14042	1.14670
669.21186	1.15113
667.28329	1.16572
665.35473	1.17545
663.42616	1.17589
661.49760	1.17298
659.56903	1.16791
657.64047	1.15991
655.71191	1.14841
653.78334	1.13441
651.85478	1.12020
649.92621	1.10516
647.99765	1.09109
646.06908	1.08151
644.14052	1.07462
642.21195	1.06863
640.28339	1.06407
638.35483	1.05999
636.42626	1.05588
634.49770	1.05488
632.56913	1.05801
630.64057	1.06162
628.71200	1.06418
626.78344	1.06791
624.85488	1.07490
622.92631	1.08359
620.99775	1.09131
619.06918	1.10115
617.14062	1.11619
615.21205	1.13099
613.28349	1.14139
611.35492	1.14860
609.42636	1.15149
607.49780	1.15163
605.56923	1.15349
603.64067	1.15527
601.71210	1.15386
599.78354	1.14823
