3997.91406	1.24775
3995.98550	1.24934
3994.05693	1.24935
3992.12837	1.24767
3990.19980	1.24706
3988.27124	1.24710
3986.34268	1.24543
3984.41411	1.24213
3982.48555	1.23993
3980.55698	1.24038
3978.62842	1.24209
3976.69985	1.24407
3974.77129	1.24631
3972.84272	1.24798
3970.91416	1.24785
3968.98560	1.24452
3967.05703	1.23991
3965.12847	1.23843
3963.19990	1.24058
3961.27134	1.24204
3959.34277	1.23917
3957.41421	1.23496
3955.48564	1.23300
3953.55708	1.23136
3951.62852	1.22902
3949.69995	1.22829
3947.77139	1.22896
3945.84282	1.22954
3943.91426	1.23258
3941.98569	1.23788
3940.05713	1.23782
3938.12856	1.23107
3936.20000	1.22545
3934.27144	1.22646
3932.34287	1.23081
3930.41431	1.23096
3928.48574	1.22604
3926.55718	1.22115
3924.62861	1.21963
3922.70005	1.21957
3920.77148	1.21960
3918.84292	1.22184
3916.91436	1.22420
3914.98579	1.22096
3913.05723	1.21424
3911.12866	1.21067
3909.20010	1.21239
3907.27153	1.21673
3905.34297	1.22106
3903.41440	1.22413
3901.48584	1.22598
3899.55728	1.22415
3897.62871	1.21806
3895.70015	1.21284
3893.77158	1.21293
3891.84302	1.21770
3889.91445	1.21794
3887.98589	1.21465
3886.05733	1.21539
3884.12876	1.21545
3882.20020	1.21123
3880.27163	1.20873
3878.34307	1.20640
3876.41450	1.20489
3874.48594	1.20649
3872.55737	1.20670
3870.62881	1.20594
3868.70025	1.20446
3866.77168	1.20074
3864.84312	1.20109
3862.91455	1.20418
3860.98599	1.20119
3859.05742	1.19442
3857.12886	1.18911
3855.20029	1.19059
3853.27173	1.20474
3851.34317	1.21037
3849.41460	1.20350
3847.48604	1.19569
3845.55747	1.19170
3843.62891	1.19224
3841.70034	1.19414
3839.77178	1.19843
3837.84321	1.20621
3835.91465	1.20900
3833.98609	1.20699
3832.05752	1.20343
3830.12896	1.19873
3828.20039	1.19477
3826.27183	1.19355
3824.34326	1.19414
3822.41470	1.19459
3820.48613	1.19150
3818.55757	1.18796
3816.62901	1.19245
3814.70044	1.19831
3812.77188	1.19741
3810.84331	1.19465
3808.91475	1.19309
3806.98618	1.19185
3805.05762	1.18606
3803.12905	1.17849
3801.20049	1.17669
3799.27193	1.17844
3797.34336	1.18129
3795.41480	1.18255
3793.48623	1.17985
3791.55767	1.17811
3789.62910	1.17721
3787.70054	1.17513
3785.77197	1.17527
3783.84341	1.17765
3781.91485	1.17856
3779.98628	1.17916
3778.05772	1.17953
3776.12915	1.17811
3774.20059	1.17580
3772.27202	1.17365
3770.34346	1.17295
3768.41489	1.17179
3766.48633	1.16934
3764.55777	1.16778
3762.62920	1.16625
3760.70064	1.16621
3758.77207	1.16960
3756.84351	1.17221
3754.91494	1.17338
3752.98638	1.17765
3751.05781	1.18394
3749.12925	1.17844
3747.20069	1.16876
3745.27212	1.16623
3743.34356	1.16727
3741.41499	1.16334
3739.48643	1.15650
3737.55786	1.15384
3735.62930	1.16417
3733.70074	1.17402
3731.77217	1.16854
3729.84361	1.15871
3727.91504	1.15192
3725.98648	1.15251
3724.05791	1.15928
3722.12935	1.16399
3720.20078	1.16426
3718.27222	1.16108
3716.34366	1.15528
3714.41509	1.15102
3712.48653	1.15468
3710.55796	1.16246
3708.62940	1.16173
3706.70083	1.15669
3704.77227	1.15133
3702.84370	1.14787
3700.91514	1.14832
3698.98658	1.14913
3697.05801	1.14906
3695.12945	1.14967
3693.20088	1.15165
3691.27232	1.15880
3689.34375	1.16895
3687.41519	1.16619
3685.48662	1.15840
3683.55806	1.15595
3681.62950	1.15928
3679.70093	1.16443
3677.77237	1.16826
3675.84380	1.17431
3673.91524	1.17658
3671.98667	1.17417
3670.05811	1.17808
3668.12954	1.18251
3666.20098	1.18140
3664.27242	1.17977
3662.34385	1.17890
3660.41529	1.17857
3658.48672	1.18038
3656.55816	1.18655
3654.62959	1.19195
3652.70103	1.19565
3650.77246	1.20688
3648.84390	1.22224
3646.91534	1.22399
3644.98677	1.22254
3643.05821	1.22178
3641.12964	1.22096
3639.20108	1.22164
3637.27251	1.22329
3635.34395	1.22398
3633.41538	1.22435
3631.48682	1.22671
3629.55826	1.23687
3627.62969	1.24698
3625.70113	1.24539
3623.77256	1.24261
3621.84400	1.24432
3619.91543	1.25385
3617.98687	1.26560
3616.05830	1.27009
3614.12974	1.27328
3612.20118	1.27688
3610.27261	1.27772
3608.34405	1.28080
3606.41548	1.28666
3604.48692	1.28837
3602.55835	1.28797
3600.62979	1.29166
3598.70123	1.29862
3596.77266	1.30458
3594.84410	1.31069
3592.91553	1.31582
3590.98697	1.31651
3589.05840	1.31820
3587.12984	1.32676
3585.20127	1.33311
3583.27271	1.33432
3581.34415	1.33505
3579.41558	1.33828
3577.48702	1.34534
3575.55845	1.35292
3573.62989	1.35921
3571.70132	1.36714
3569.77276	1.37781
3567.84419	1.38993
3565.91563	1.39966
3563.98707	1.40324
3562.05850	1.40262
3560.12994	1.40204
3558.20137	1.40425
3556.27281	1.40803
3554.34424	1.41169
3552.41568	1.41619
3550.48711	1.42271
3548.55855	1.43013
3546.62999	1.43764
3544.70142	1.44268
3542.77286	1.44364
3540.84429	1.44437
3538.91573	1.44835
3536.98716	1.45570
3535.05860	1.46209
3533.13003	1.46495
3531.20147	1.46825
3529.27291	1.47543
3527.34434	1.48642
3525.41578	1.49721
3523.48721	1.50425
3521.55865	1.50940
3519.63008	1.51459
3517.70152	1.51969
3515.77295	1.52615
3513.84439	1.53404
3511.91583	1.53982
3509.98726	1.54443
3508.05870	1.55068
3506.13013	1.55590
3504.20157	1.56348
3502.27300	1.57769
3500.34444	1.58983
3498.41587	1.59583
3496.48731	1.60295
3494.55875	1.61337
3492.63018	1.62179
3490.70162	1.62894
3488.77305	1.63671
3486.84449	1.63857
3484.91592	1.63540
3482.98736	1.63837
3481.05879	1.64839
3479.13023	1.65822
3477.20167	1.66483
3475.27310	1.66633
3473.34454	1.66506
3471.41597	1.66475
3469.48741	1.66734
3467.55884	1.67612
3465.63028	1.68580
3463.70171	1.68573
3461.77315	1.68110
3459.84459	1.68429
3457.91602	1.69001
3455.98746	1.69377
3454.05889	1.70690
3452.13033	1.72583
3450.20176	1.73321
3448.27320	1.72828
3446.34464	1.71935
3444.41607	1.70862
3442.48751	1.69999
3440.55894	1.70181
3438.63038	1.71529
3436.70181	1.73128
3434.77325	1.73870
3432.84468	1.73676
3430.91612	1.73210
3428.98756	1.72555
3427.05899	1.71996
3425.13043	1.71891
3423.20186	1.71816
3421.27330	1.72120
3419.34473	1.73051
3417.41617	1.73087
3415.48760	1.71830
3413.55904	1.70733
3411.63048	1.70663
3409.70191	1.71434
3407.77335	1.72478
3405.84478	1.73194
3403.91622	1.73317
3401.98765	1.73204
3400.05909	1.73041
3398.13052	1.72594
3396.20196	1.72577
3394.27340	1.73610
3392.34483	1.74108
3390.41627	1.72904
3388.48770	1.71673
3386.55914	1.71627
3384.63057	1.72047
3382.70201	1.72347
3380.77344	1.72896
3378.84488	1.73709
3376.91632	1.73979
3374.98775	1.73354
3373.05919	1.72958
3371.13062	1.73693
3369.20206	1.74324
3367.27349	1.73719
3365.34493	1.73329
3363.41636	1.74011
3361.48780	1.74631
3359.55924	1.74873
3357.63067	1.74934
3355.70211	1.74305
3353.77354	1.73485
3351.84498	1.73594
3349.91641	1.74352
3347.98785	1.74631
3346.05928	1.74375
3344.13072	1.74298
3342.20216	1.74653
3340.27359	1.75507
3338.34503	1.76457
3336.41646	1.76834
3334.48790	1.76819
3332.55933	1.76641
3330.63077	1.76493
3328.70220	1.76958
3326.77364	1.78046
3324.84508	1.79536
3322.91651	1.81121
3320.98795	1.81614
3319.05938	1.80560
3317.13082	1.79386
3315.20225	1.79340
3313.27369	1.80057
3311.34513	1.80551
3309.41656	1.80831
3307.48800	1.81386
3305.55943	1.82051
3303.63087	1.82516
3301.70230	1.82763
3299.77374	1.82823
3297.84517	1.82713
3295.91661	1.82651
3293.98805	1.82643
3292.05948	1.82305
3290.13092	1.82186
3288.20235	1.82880
3286.27379	1.83235
3284.34522	1.82374
3282.41666	1.81355
3280.48809	1.81241
3278.55953	1.81691
3276.63097	1.82052
3274.70240	1.82466
3272.77384	1.82726
3270.84527	1.82183
3268.91671	1.80911
3266.98814	1.79309
3265.05958	1.78153
3263.13101	1.78274
3261.20245	1.78884
3259.27389	1.78548
3257.34532	1.77686
3255.41676	1.76856
3253.48819	1.75641
3251.55963	1.74392
3249.63106	1.73673
3247.70250	1.73326
3245.77393	1.72959
3243.84537	1.72449
3241.91681	1.71748
3239.98824	1.70837
3238.05968	1.70167
3236.13111	1.69661
3234.20255	1.68847
3232.27398	1.68316
3230.34542	1.68447
3228.41685	1.68427
3226.48829	1.67879
3224.55973	1.67377
3222.63116	1.67190
3220.70260	1.66948
3218.77403	1.66211
3216.84547	1.64969
3214.91690	1.63669
3212.98834	1.62872
3211.05977	1.62562
3209.13121	1.62195
3207.20265	1.61860
3205.27408	1.61784
3203.34552	1.61639
3201.41695	1.61297
3199.48839	1.60747
3197.55982	1.60208
3195.63126	1.59792
3193.70269	1.59139
3191.77413	1.58503
3189.84557	1.58166
3187.91700	1.57656
3185.98844	1.56791
3184.05987	1.55956
3182.13131	1.55420
3180.20274	1.55229
3178.27418	1.55260
3176.34562	1.55075
3174.41705	1.54475
3172.48849	1.53821
3170.55992	1.53388
3168.63136	1.53078
3166.70279	1.52802
3164.77423	1.52657
3162.84566	1.52629
3160.91710	1.52554
3158.98854	1.52164
3157.05997	1.51421
3155.13141	1.50749
3153.20284	1.50295
3151.27428	1.49866
3149.34571	1.49433
3147.41715	1.49156
3145.48858	1.49120
3143.56002	1.49115
3141.63146	1.48899
3139.70289	1.48405
3137.77433	1.47921
3135.84576	1.47887
3133.91720	1.48202
3131.98863	1.48398
3130.06007	1.48165
3128.13150	1.47661
3126.20294	1.47470
3124.27438	1.47661
3122.34581	1.47763
3120.41725	1.47761
3118.48868	1.47754
3116.56012	1.47740
3114.63155	1.48015
3112.70299	1.48470
3110.77442	1.48536
3108.84586	1.48146
3106.91730	1.47841
3104.98873	1.47899
3103.06017	1.48051
3101.13160	1.48183
3099.20304	1.48158
3097.27447	1.47606
3095.34591	1.46794
3093.41734	1.46443
3091.48878	1.46681
3089.56022	1.46976
3087.63165	1.46871
3085.70309	1.46433
3083.77452	1.46012
3081.84596	1.45800
3079.91739	1.45728
3077.98883	1.45611
3076.06026	1.45157
3074.13170	1.44415
3072.20314	1.43908
3070.27457	1.43752
3068.34601	1.43552
3066.41744	1.43113
3064.48888	1.42579
3062.56031	1.42002
3060.63175	1.41330
3058.70318	1.40788
3056.77462	1.40682
3054.84606	1.40829
3052.91749	1.40725
3050.98893	1.40395
3049.06036	1.40154
3047.13180	1.39789
3045.20323	1.39112
3043.27467	1.38373
3041.34610	1.37742
3039.41754	1.37229
3037.48898	1.36829
3035.56041	1.36493
3033.63185	1.36153
3031.70328	1.35857
3029.77472	1.35650
3027.84615	1.35355
3025.91759	1.34937
3023.98903	1.34634
3022.06046	1.34506
3020.13190	1.34407
3018.20333	1.34238
3016.27477	1.33949
3014.34620	1.33659
3012.41764	1.33490
3010.48907	1.33311
3008.56051	1.33158
3006.63195	1.33156
3004.70338	1.33107
3002.77482	1.32880
3000.84625	1.32673
2998.91769	1.32656
2996.98912	1.32797
2995.06056	1.32982
2993.13199	1.33111
2991.20343	1.33192
2989.27487	1.33400
2987.34630	1.33929
2985.41774	1.34746
2983.48917	1.35523
2981.56061	1.36029
2979.63204	1.36468
2977.70348	1.37198
2975.77491	1.38123
2973.84635	1.38766
2971.91779	1.39245
2969.98922	1.39990
2968.06066	1.40723
2966.13209	1.41136
2964.20353	1.41505
2962.27496	1.41942
2960.34640	1.42042
2958.41783	1.41586
2956.48927	1.40954
2954.56071	1.40398
2952.63214	1.39748
2950.70358	1.39088
2948.77501	1.38686
2946.84645	1.38539
2944.91788	1.38738
2942.98932	1.39354
2941.06075	1.40046
2939.13219	1.40764
2937.20363	1.41821
2935.27506	1.43049
2933.34650	1.44099
2931.41793	1.44969
2929.48937	1.45835
2927.56080	1.46853
2925.63224	1.47891
2923.70367	1.48695
2921.77511	1.49283
2919.84655	1.49552
2917.91798	1.49097
2915.98942	1.47745
2914.06085	1.45658
2912.13229	1.43167
2910.20372	1.40748
2908.27516	1.38830
2906.34659	1.37536
2904.41803	1.36670
2902.48947	1.35998
2900.56090	1.35403
2898.63234	1.34880
2896.70377	1.34556
2894.77521	1.34379
2892.84664	1.34072
2890.91808	1.33562
2888.98952	1.33028
2887.06095	1.32637
2885.13239	1.32407
2883.20382	1.32207
2881.27526	1.31984
2879.34669	1.31808
2877.41813	1.31716
2875.48956	1.31738
2873.56100	1.31737
2871.63244	1.31401
2869.70387	1.30759
2867.77531	1.30148
2865.84674	1.29677
2863.91818	1.29298
2861.98961	1.29197
2860.06105	1.29564
2858.13248	1.30188
2856.20392	1.30895
2854.27536	1.31827
2852.34679	1.32838
2850.41823	1.33288
2848.48966	1.32473
2846.56110	1.30321
2844.63253	1.27602
2842.70397	1.25243
2840.77540	1.23616
2838.84684	1.22412
2836.91828	1.21354
2834.98971	1.20610
2833.06115	1.20171
2831.13258	1.19783
2829.20402	1.19336
2827.27545	1.18844
2825.34689	1.18360
2823.41832	1.17862
2821.48976	1.17337
2819.56120	1.16901
2817.63263	1.16614
2815.70407	1.16355
2813.77550	1.16014
2811.84694	1.15604
2809.91837	1.15173
2807.98981	1.14795
2806.06124	1.14524
2804.13268	1.14293
2802.20412	1.14034
2800.27555	1.13770
2798.34699	1.13531
2796.41842	1.13332
2794.48986	1.13166
2792.56129	1.12979
2790.63273	1.12724
2788.70416	1.12411
2786.77560	1.12026
2784.84704	1.11596
2782.91847	1.11260
2780.98991	1.11023
2779.06134	1.10729
2777.13278	1.10368
2775.20421	1.10066
2773.27565	1.09913
2771.34708	1.09822
2769.41852	1.09625
2767.48996	1.09347
2765.56139	1.09113
2763.63283	1.08938
2761.70426	1.08803
2759.77570	1.08709
2757.84713	1.08605
2755.91857	1.08447
2753.99001	1.08319
2752.06144	1.08280
2750.13288	1.08268
2748.20431	1.08261
2746.27575	1.08291
2744.34718	1.08300
2742.41862	1.08148
2740.49005	1.07875
2738.56149	1.07666
2736.63293	1.07571
2734.70436	1.07534
2732.77580	1.07492
2730.84723	1.07352
2728.91867	1.07066
2726.99010	1.06749
2725.06154	1.06531
2723.13297	1.06392
2721.20441	1.06268
2719.27585	1.06120
2717.34728	1.05888
2715.41872	1.05647
2713.49015	1.05574
2711.56159	1.05574
2709.63302	1.05432
2707.70446	1.05229
2705.77589	1.05085
2703.84733	1.04919
2701.91877	1.04713
2699.99020	1.04560
2698.06164	1.04408
2696.13307	1.04203
2694.20451	1.04066
2692.27594	1.04022
2690.34738	1.03958
2688.41881	1.03814
2686.49025	1.03621
2684.56169	1.03440
2682.63312	1.03288
2680.70456	1.03147
2678.77599	1.02946
2676.84743	1.02659
2674.91886	1.02425
2672.99030	1.02306
2671.06173	1.02176
2669.13317	1.01989
2667.20461	1.01809
2665.27604	1.01615
2663.34748	1.01381
2661.41891	1.01168
2659.49035	1.00996
2657.56178	1.00829
2655.63322	1.00663
2653.70465	1.00491
2651.77609	1.00325
2649.84753	1.00229
2647.91896	1.00195
2645.99040	1.00137
2644.06183	1.00062
2642.13327	1.00003
2640.20470	0.99941
2638.27614	0.99889
2636.34757	0.99817
2634.41901	0.99682
2632.49045	0.99527
2630.56188	0.99417
2628.63332	0.99387
2626.70475	0.99376
2624.77619	0.99278
2622.84762	0.99089
2620.91906	0.98920
2618.99049	0.98854
2617.06193	0.98816
2615.13337	0.98700
2613.20480	0.98541
2611.27624	0.98423
2609.34767	0.98352
2607.41911	0.98303
2605.49054	0.98252
2603.56198	0.98136
2601.63342	0.97947
2599.70485	0.97779
2597.77629	0.97681
2595.84772	0.97581
2593.91916	0.97413
2591.99059	0.97220
2590.06203	0.97023
2588.13346	0.96781
2586.20490	0.96554
2584.27634	0.96412
2582.34777	0.96316
2580.41921	0.96229
2578.49064	0.96136
2576.56208	0.96032
2574.63351	0.95919
2572.70495	0.95786
2570.77638	0.95655
2568.84782	0.95544
2566.91926	0.95399
2564.99069	0.95196
2563.06213	0.94983
2561.13356	0.94816
2559.20500	0.94699
2557.27643	0.94553
2555.34787	0.94348
2553.41930	0.94132
2551.49074	0.93880
2549.56218	0.93570
2547.63361	0.93311
2545.70505	0.93182
2543.77648	0.93125
2541.84792	0.93019
2539.91935	0.92806
2537.99079	0.92590
2536.06222	0.92501
2534.13366	0.92492
2532.20510	0.92450
2530.27653	0.92371
2528.34797	0.92298
2526.41940	0.92228
2524.49084	0.92122
2522.56227	0.91968
2520.63371	0.91822
2518.70514	0.91743
2516.77658	0.91678
2514.84802	0.91527
2512.91945	0.91316
2510.99089	0.91119
2509.06232	0.90950
2507.13376	0.90807
2505.20519	0.90690
2503.27663	0.90593
2501.34806	0.90494
2499.41950	0.90370
2497.49094	0.90232
2495.56237	0.90107
2493.63381	0.89989
2491.70524	0.89877
2489.77668	0.89771
2487.84811	0.89680
2485.91955	0.89624
2483.99098	0.89589
2482.06242	0.89535
2480.13386	0.89456
2478.20529	0.89371
2476.27673	0.89259
2474.34816	0.89105
2472.41960	0.88952
2470.49103	0.88836
2468.56247	0.88727
2466.63391	0.88583
2464.70534	0.88401
2462.77678	0.88222
2460.84821	0.88089
2458.91965	0.88028
2456.99108	0.88014
2455.06252	0.87975
2453.13395	0.87876
2451.20539	0.87754
2449.27683	0.87627
2447.34826	0.87515
2445.41970	0.87437
2443.49113	0.87348
2441.56257	0.87225
2439.63400	0.87117
2437.70544	0.87026
2435.77687	0.86878
2433.84831	0.86652
2431.91975	0.86405
2429.99118	0.86192
2428.06262	0.86026
2426.13405	0.85876
2424.20549	0.85714
2422.27692	0.85552
2420.34836	0.85416
2418.41979	0.85335
2416.49123	0.85307
2414.56267	0.85305
2412.63410	0.85287
2410.70554	0.85186
2408.77697	0.85036
2406.84841	0.84929
2404.91984	0.84820
2402.99128	0.84646
2401.06271	0.84468
2399.13415	0.84336
2397.20559	0.84204
2395.27702	0.84031
2393.34846	0.83861
2391.41989	0.83723
2389.49133	0.83542
2387.56276	0.83222
2385.63420	0.82762
2383.70563	0.82203
2381.77707	0.81556
2379.84851	0.80831
2377.91994	0.80013
2375.99138	0.79013
2374.06281	0.77830
2372.13425	0.76563
2370.20568	0.75262
2368.27712	0.74007
2366.34855	0.72961
2364.41999	0.72082
2362.49143	0.71161
2360.56286	0.70591
2358.63430	0.70920
2356.70573	0.71974
2354.77717	0.73394
2352.84860	0.74894
2350.92004	0.75920
2348.99147	0.76100
2347.06291	0.75434
2345.13435	0.74269
2343.20578	0.73456
2341.27722	0.73284
2339.34865	0.73414
2337.42009	0.73678
2335.49152	0.73909
2333.56296	0.74006
2331.63440	0.74005
2329.70583	0.74069
2327.77727	0.74317
2325.84870	0.74633
2323.92014	0.74955
2321.99157	0.75404
2320.06301	0.75947
2318.13444	0.76411
2316.20588	0.76709
2314.27732	0.76834
2312.34875	0.76891
2310.42019	0.77011
2308.49162	0.77228
2306.56306	0.77506
2304.63449	0.77749
2302.70593	0.77874
2300.77736	0.77938
2298.84880	0.78021
2296.92024	0.78092
2294.99167	0.78146
2293.06311	0.78220
2291.13454	0.78297
2289.20598	0.78363
2287.27741	0.78422
2285.34885	0.78448
2283.42028	0.78417
2281.49172	0.78334
2279.56316	0.78226
2277.63459	0.78112
2275.70603	0.77989
2273.77746	0.77861
2271.84890	0.77719
2269.92033	0.77556
2267.99177	0.77401
2266.06320	0.77264
2264.13464	0.77135
2262.20608	0.77028
2260.27751	0.76945
2258.34895	0.76855
2256.42038	0.76753
2254.49182	0.76677
2252.56325	0.76624
2250.63469	0.76536
2248.70612	0.76413
2246.77756	0.76312
2244.84900	0.76278
2242.92043	0.76295
2240.99187	0.76296
2239.06330	0.76252
2237.13474	0.76193
2235.20617	0.76122
2233.27761	0.76034
2231.34904	0.75936
2229.42048	0.75835
2227.49192	0.75752
2225.56335	0.75695
2223.63479	0.75638
2221.70622	0.75555
2219.77766	0.75441
2217.84909	0.75319
2215.92053	0.75212
2213.99196	0.75126
2212.06340	0.75045
2210.13484	0.74952
2208.20627	0.74862
2206.27771	0.74777
2204.34914	0.74676
2202.42058	0.74580
2200.49201	0.74523
2198.56345	0.74482
2196.63488	0.74406
2194.70632	0.74301
2192.77776	0.74211
2190.84919	0.74138
2188.92063	0.74077
2186.99206	0.74019
2185.06350	0.73938
2183.13493	0.73851
2181.20637	0.73777
2179.27781	0.73701
2177.34924	0.73620
2175.42068	0.73524
2173.49211	0.73408
2171.56355	0.73299
2169.63498	0.73227
2167.70642	0.73175
2165.77785	0.73100
2163.84929	0.73001
2161.92073	0.72911
2159.99216	0.72827
2158.06360	0.72752
2156.13503	0.72700
2154.20647	0.72651
2152.27790	0.72591
2150.34934	0.72541
2148.42077	0.72493
2146.49221	0.72413
2144.56365	0.72283
2142.63508	0.72137
2140.70652	0.72039
2138.77795	0.71989
2136.84939	0.71955
2134.92082	0.71942
2132.99226	0.71943
2131.06369	0.71926
2129.13513	0.71891
2127.20657	0.71832
2125.27800	0.71751
2123.34944	0.71696
2121.42087	0.71674
2119.49231	0.71625
2117.56374	0.71557
2115.63518	0.71522
2113.70661	0.71494
2111.77805	0.71412
2109.84949	0.71288
2107.92092	0.71174
2105.99236	0.71085
2104.06379	0.70986
2102.13523	0.70851
2100.20666	0.70710
2098.27810	0.70594
2096.34953	0.70478
2094.42097	0.70345
2092.49241	0.70209
2090.56384	0.70097
2088.63528	0.70008
2086.70671	0.69923
2084.77815	0.69844
2082.84958	0.69781
2080.92102	0.69726
2078.99245	0.69664
2077.06389	0.69582
2075.13533	0.69483
2073.20676	0.69393
2071.27820	0.69322
2069.34963	0.69246
2067.42107	0.69170
2065.49250	0.69096
2063.56394	0.68970
2061.63537	0.68806
2059.70681	0.68675
2057.77825	0.68570
2055.84968	0.68466
2053.92112	0.68385
2051.99255	0.68318
2050.06399	0.68228
2048.13542	0.68126
2046.20686	0.68050
2044.27830	0.67995
2042.34973	0.67941
2040.42117	0.67885
2038.49260	0.67819
2036.56404	0.67720
2034.63547	0.67589
2032.70691	0.67487
2030.77834	0.67446
2028.84978	0.67402
2026.92122	0.67305
2024.99265	0.67195
2023.06409	0.67139
2021.13552	0.67132
2019.20696	0.67133
2017.27839	0.67110
2015.34983	0.67056
2013.42126	0.67007
2011.49270	0.66983
2009.56414	0.66963
2007.63557	0.66938
2005.70701	0.66917
2003.77844	0.66899
2001.84988	0.66878
1999.92131	0.66850
1997.99275	0.66815
1996.06418	0.66792
1994.13562	0.66797
1992.20706	0.66767
1990.27849	0.66646
1988.34993	0.66491
1986.42136	0.66348
1984.49280	0.66226
1982.56423	0.66139
1980.63567	0.66058
1978.70710	0.65963
1976.77854	0.65863
1974.84998	0.65768
1972.92141	0.65691
1970.99285	0.65651
1969.06428	0.65645
1967.13572	0.65600
1965.20715	0.65466
1963.27859	0.65324
1961.35002	0.65227
1959.42146	0.65145
1957.49290	0.65060
1955.56433	0.64957
1953.63577	0.64813
1951.70720	0.64646
1949.77864	0.64508
1947.85007	0.64422
1945.92151	0.64368
1943.99294	0.64329
1942.06438	0.64243
1940.13582	0.64045
1938.20725	0.63825
1936.27869	0.63674
1934.35012	0.63586
1932.42156	0.63530
1930.49299	0.63481
1928.56443	0.63423
1926.63586	0.63368
1924.70730	0.63365
1922.77874	0.63380
1920.85017	0.63323
1918.92161	0.63238
1916.99304	0.63145
1915.06448	0.63015
1913.13591	0.62913
1911.20735	0.62887
1909.27878	0.62889
1907.35022	0.62829
1905.42166	0.62725
1903.49309	0.62642
1901.56453	0.62590
1899.63596	0.62581
1897.70740	0.62639
1895.77883	0.62724
1893.85027	0.62750
1891.92171	0.62769
1889.99314	0.62847
1888.06458	0.62859
1886.13601	0.62788
1884.20745	0.62745
1882.27888	0.62739
1880.35032	0.62745
1878.42175	0.62739
1876.49319	0.62708
1874.56463	0.62665
1872.63606	0.62664
1870.70750	0.62789
1868.77893	0.62963
1866.85037	0.62880
1864.92180	0.62612
1862.99324	0.62411
1861.06467	0.62306
1859.13611	0.62236
1857.20755	0.62172
1855.27898	0.62122
1853.35042	0.62082
1851.42185	0.62059
1849.49329	0.62113
1847.56472	0.62243
1845.63616	0.62405
1843.70759	0.62466
1841.77903	0.62290
1839.85047	0.62066
1837.92190	0.61944
1835.99334	0.61876
1834.06477	0.61813
1832.13621	0.61863
1830.20764	0.62002
1828.27908	0.61960
1826.35051	0.61785
1824.42195	0.61633
1822.49339	0.61456
1820.56482	0.61311
1818.63626	0.61284
1816.70769	0.61294
1814.77913	0.61288
1812.85056	0.61356
1810.92200	0.61478
1808.99343	0.61481
1807.06487	0.61372
1805.13631	0.61297
1803.20774	0.61326
1801.27918	0.61432
1799.35061	0.61471
1797.42205	0.61414
1795.49348	0.61377
1793.56492	0.61475
1791.63635	0.61584
1789.70779	0.61425
1787.77923	0.61238
1785.85066	0.61223
1783.92210	0.61292
1781.99353	0.61384
1780.06497	0.61489
1778.13640	0.61544
1776.20784	0.61616
1774.27927	0.61878
1772.35071	0.62290
1770.42215	0.62419
1768.49358	0.62299
1766.56502	0.62212
1764.63645	0.62282
1762.70789	0.62582
1760.77932	0.62916
1758.85076	0.63116
1756.92220	0.63425
1754.99363	0.63833
1753.06507	0.64349
1751.13650	0.65283
1749.20794	0.66440
1747.27937	0.67188
1745.35081	0.67664
1743.42224	0.68127
1741.49368	0.68595
1739.56512	0.68978
1737.63655	0.69168
1735.70799	0.69357
1733.77942	0.69726
1731.85086	0.69755
1729.92229	0.69502
1727.99373	0.69308
1726.06516	0.69289
1724.13660	0.69510
1722.20804	0.69842
1720.27947	0.70283
1718.35091	0.71259
1716.42234	0.72662
1714.49378	0.73336
1712.56521	0.73732
1710.63665	0.74453
1708.70808	0.75630
1706.77952	0.77571
1704.85096	0.80083
1702.92239	0.82338
1700.99383	0.85723
1699.06526	0.91063
1697.13670	0.95724
1695.20813	1.00018
1693.27957	1.03283
1691.35100	1.06055
1689.42244	1.09580
1687.49388	1.12971
1685.56531	1.16547
1683.63675	1.22086
1681.70818	1.25989
1679.77962	1.28145
1677.85105	1.30344
1675.92249	1.33300
1673.99392	1.36650
1672.06536	1.39129
1670.13680	1.41505
1668.20823	1.44002
1666.27967	1.45463
1664.35110	1.46874
1662.42254	1.48841
1660.49397	1.50182
1658.56541	1.50698
1656.63684	1.51054
1654.70828	1.51644
1652.77972	1.52169
1650.85115	1.52045
1648.92259	1.52039
1646.99402	1.52109
1645.06546	1.51543
1643.13689	1.50782
1641.20833	1.50361
1639.27976	1.50230
1637.35120	1.50364
1635.42264	1.50324
1633.49407	1.49638
1631.56551	1.48935
1629.63694	1.48263
1627.70838	1.47436
1625.77981	1.46375
1623.85125	1.45004
1621.92269	1.43239
1619.99412	1.41594
1618.06556	1.39670
1616.13699	1.36506
1614.20843	1.33494
1612.27986	1.31222
1610.35130	1.29157
1608.42273	1.27134
1606.49417	1.25262
1604.56561	1.23750
1602.63704	1.22636
1600.70848	1.21882
1598.77991	1.21387
1596.85135	1.21053
1594.92278	1.20824
1592.99422	1.20697
1591.06565	1.20663
1589.13709	1.20762
1587.20853	1.21116
1585.27996	1.21735
1583.35140	1.22565
1581.42283	1.23504
1579.49427	1.24480
1577.56570	1.25877
1575.63714	1.27903
1573.70857	1.29180
1571.78001	1.30007
1569.85145	1.31471
1567.92288	1.33095
1565.99432	1.34199
1564.06575	1.35152
1562.13719	1.35853
1560.20862	1.36948
1558.28006	1.39742
1556.35149	1.40982
1554.42293	1.41186
1552.49437	1.41315
1550.56580	1.41311
1548.63724	1.41221
1546.70867	1.41200
1544.78011	1.41314
1542.85154	1.41585
1540.92298	1.41799
1538.99441	1.40718
1537.06585	1.39550
1535.13729	1.38924
1533.20872	1.38445
1531.28016	1.37794
1529.35159	1.37207
1527.42303	1.36807
1525.49446	1.36521
1523.56590	1.36349
1521.63733	1.36137
1519.70877	1.35668
1517.78021	1.34946
1515.85164	1.33909
1513.92308	1.32657
1511.99451	1.31326
1510.06595	1.30054
1508.13738	1.28377
1506.20882	1.25074
1504.28025	1.22497
1502.35169	1.20788
1500.42313	1.19223
1498.49456	1.17424
1496.56600	1.15032
1494.63743	1.12897
1492.70887	1.11536
1490.78030	1.10388
1488.85174	1.08874
1486.92317	1.07293
1484.99461	1.06111
1483.06605	1.05371
1481.13748	1.04980
1479.20892	1.04894
1477.28035	1.05227
1475.35179	1.06160
1473.42322	1.07770
1471.49466	1.09087
1469.56610	1.09503
1467.63753	1.09859
1465.70897	1.10641
1463.78040	1.11497
1461.85184	1.11922
1459.92327	1.12375
1457.99471	1.13430
1456.06614	1.14043
1454.13758	1.13616
1452.20902	1.13231
1450.28045	1.13091
1448.35189	1.13028
1446.42332	1.12772
1444.49476	1.12339
1442.56619	1.11849
1440.63763	1.11349
1438.70906	1.10817
1436.78050	1.10061
1434.85194	1.09107
1432.92337	1.08205
1430.99481	1.07247
1429.06624	1.06221
1427.13768	1.05444
1425.20911	1.05052
1423.28055	1.04915
1421.35198	1.04882
1419.42342	1.04934
1417.49486	1.04818
1415.56629	1.04496
1413.63773	1.04247
1411.70916	1.04051
1409.78060	1.03799
1407.85203	1.03606
1405.92347	1.03626
1403.99490	1.03771
1402.06634	1.03888
1400.13778	1.04077
1398.20921	1.04380
1396.28065	1.04669
1394.35208	1.04809
1392.42352	1.04815
1390.49495	1.05010
1388.56639	1.05760
1386.63782	1.07056
1384.70926	1.08317
1382.78070	1.09422
1380.85213	1.10448
1378.92357	1.11124
1376.99500	1.11243
1375.06644	1.10729
1373.13787	1.09580
1371.20931	1.08145
1369.28074	1.06516
1367.35218	1.04724
1365.42362	1.03099
1363.49505	1.01614
1361.56649	1.00151
1359.63792	0.98950
1357.70936	0.98078
1355.78079	0.97445
1353.85223	0.96989
1351.92366	0.96632
1349.99510	0.96322
1348.06654	0.96030
1346.13797	0.95765
1344.20941	0.95590
1342.28084	0.95592
1340.35228	0.95767
1338.42371	0.95883
1336.49515	0.95914
1334.56659	0.96130
1332.63802	0.96580
1330.70946	0.97133
1328.78089	0.97641
1326.85233	0.98003
1324.92376	0.98180
1322.99520	0.98225
1321.06663	0.98245
1319.13807	0.98282
1317.20951	0.98296
1315.28094	0.98293
1313.35238	0.98304
1311.42381	0.98270
1309.49525	0.98149
1307.56668	0.97946
1305.63812	0.97657
1303.70955	0.97328
1301.78099	0.96993
1299.85243	0.96636
1297.92386	0.96227
1295.99530	0.95780
1294.06673	0.95360
1292.13817	0.95057
1290.20960	0.94908
1288.28104	0.94814
1286.35247	0.94668
1284.42391	0.94512
1282.49535	0.94425
1280.56678	0.94364
1278.63822	0.94300
1276.70965	0.94323
1274.78109	0.94497
1272.85252	0.94837
1270.92396	0.95332
1268.99539	0.95920
1267.06683	0.96531
1265.13827	0.97105
1263.20970	0.97565
1261.28114	0.97853
1259.35257	0.97992
1257.42401	0.98068
1255.49544	0.98151
1253.56688	0.98219
1251.63831	0.98242
1249.70975	0.98283
1247.78119	0.98410
1245.85262	0.98574
1243.92406	0.98670
1241.99549	0.98678
1240.06693	0.98641
1238.13836	0.98549
1236.20980	0.98389
1234.28123	0.98166
1232.35267	0.97836
1230.42411	0.97353
1228.49554	0.96751
1226.56698	0.96086
1224.63841	0.95346
1222.70985	0.94535
1220.78128	0.93688
1218.85272	0.92841
1216.92415	0.92102
1214.99559	0.91593
1213.06703	0.91341
1211.13846	0.91285
1209.20990	0.91318
1207.28133	0.91291
1205.35277	0.91037
1203.42420	0.90440
1201.49564	0.89558
1199.56708	0.88543
1197.63851	0.87469
1195.70995	0.86412
1193.78138	0.85511
1191.85282	0.84829
1189.92425	0.84334
1187.99569	0.83991
1186.06712	0.83767
1184.13856	0.83659
1182.21000	0.83679
1180.28143	0.83834
1178.35287	0.84179
1176.42430	0.84755
1174.49574	0.85507
1172.56717	0.86363
1170.63861	0.87341
1168.71004	0.88520
1166.78148	0.89936
1164.85292	0.91479
1162.92435	0.92881
1160.99579	0.93889
1159.06722	0.94398
1157.13866	0.94317
1155.21009	0.93640
1153.28153	0.92502
1151.35296	0.91021
1149.42440	0.89367
1147.49584	0.87781
1145.56727	0.86459
1143.63871	0.85482
1141.71014	0.84824
1139.78158	0.84491
1137.85301	0.84509
1135.92445	0.84799
1133.99588	0.85317
1132.06732	0.86108
1130.13876	0.87191
1128.21019	0.88552
1126.28163	0.90139
1124.35306	0.91805
1122.42450	0.93348
1120.49593	0.94618
1118.56737	0.95557
1116.63880	0.96113
1114.71024	0.96198
1112.78168	0.95835
1110.85311	0.95217
1108.92455	0.94597
1106.99598	0.94054
1105.06742	0.93500
1103.13885	0.92971
1101.21029	0.92620
1099.28172	0.92556
1097.35316	0.92840
1095.42460	0.93411
1093.49603	0.94115
1091.56747	0.94974
1089.63890	0.96169
1087.71034	0.97724
1085.78177	0.99488
1083.85321	1.01299
1081.92464	1.02951
1079.99608	1.04227
1078.06752	1.05047
1076.13895	1.05411
1074.21039	1.05321
1072.28182	1.04814
1070.35326	1.03933
1068.42469	1.02811
1066.49613	1.01670
1064.56756	1.00616
1062.63900	0.99589
1060.71044	0.98470
1058.78187	0.97218
1056.85331	0.95951
1054.92474	0.94859
1052.99618	0.93977
1051.06761	0.93236
1049.13905	0.92682
1047.21049	0.92445
1045.28192	0.92644
1043.35336	0.93257
1041.42479	0.94035
1039.49623	0.94769
1037.56766	0.95432
1035.63910	0.95965
1033.71053	0.96281
1031.78197	0.96429
1029.85341	0.96404
1027.92484	0.96061
1025.99628	0.95390
1024.06771	0.94564
1022.13915	0.93746
1020.21058	0.93009
1018.28202	0.92331
1016.35345	0.91576
1014.42489	0.90559
1012.49633	0.89212
1010.56776	0.87607
1008.63920	0.85794
1006.71063	0.83843
1004.78207	0.81886
1002.85350	0.80020
1000.92494	0.78321
998.99637	0.76852
997.06781	0.75668
995.13925	0.74755
993.21068	0.73959
991.28212	0.73140
989.35355	0.72315
987.42499	0.71587
985.49642	0.71028
983.56786	0.70662
981.63929	0.70463
979.71073	0.70354
977.78217	0.70263
975.85360	0.70120
973.92504	0.69799
971.99647	0.69191
970.06791	0.68324
968.13934	0.67319
966.21078	0.66320
964.28221	0.65481
962.35365	0.64955
960.42509	0.64905
958.49652	0.65363
956.56796	0.65986
954.63939	0.66253
952.71083	0.65946
950.78226	0.65185
948.85370	0.64178
946.92513	0.63180
944.99657	0.62404
943.06801	0.61890
941.13944	0.61565
939.21088	0.61339
937.28231	0.61140
935.35375	0.60966
933.42518	0.60826
931.49662	0.60695
929.56805	0.60592
927.63949	0.60542
925.71093	0.60506
923.78236	0.60486
921.85380	0.60501
919.92523	0.60481
917.99667	0.60411
916.06810	0.60391
914.13954	0.60456
912.21098	0.60608
910.28241	0.60901
908.35385	0.61376
906.42528	0.61986
904.49672	0.62633
902.56815	0.63267
900.63959	0.63881
898.71102	0.64411
896.78246	0.64776
894.85390	0.64954
892.92533	0.64935
890.99677	0.64754
889.06820	0.64476
887.13964	0.64148
885.21107	0.63827
883.28251	0.63533
881.35394	0.63234
879.42538	0.62970
877.49682	0.62823
875.56825	0.62775
873.63969	0.62763
871.71112	0.62817
869.78256	0.62991
867.85399	0.63258
865.92543	0.63568
863.99686	0.63897
862.06830	0.64227
860.13974	0.64561
858.21117	0.64884
856.28261	0.65150
854.35404	0.65347
852.42548	0.65455
850.49691	0.65423
848.56835	0.65275
846.63978	0.65084
844.71122	0.64867
842.78266	0.64640
840.85409	0.64459
838.92553	0.64349
836.99696	0.64274
835.06840	0.64220
833.13983	0.64253
831.21127	0.64408
829.28270	0.64621
827.35414	0.64862
825.42558	0.65155
823.49701	0.65492
821.56845	0.65869
819.63988	0.66281
817.71132	0.66715
815.78275	0.67152
813.85419	0.67530
811.92562	0.67793
809.99706	0.67950
808.06850	0.68033
806.13993	0.68032
804.21137	0.67974
802.28280	0.67918
800.35424	0.67841
798.42567	0.67717
796.49711	0.67614
794.56854	0.67651
792.63998	0.67854
790.71142	0.68149
788.78285	0.68519
786.85429	0.68998
784.92572	0.69544
782.99716	0.70123
781.06859	0.70774
779.14003	0.71474
777.21147	0.72114
775.28290	0.72636
773.35434	0.73065
771.42577	0.73415
769.49721	0.73666
767.56864	0.73805
765.64008	0.73827
763.71151	0.73725
761.78295	0.73554
759.85439	0.73389
757.92582	0.73199
755.99726	0.72948
754.06869	0.72719
752.14013	0.72559
750.21156	0.72447
748.28300	0.72404
746.35443	0.72443
744.42587	0.72569
742.49731	0.72769
740.56874	0.72985
738.64018	0.73141
736.71161	0.73228
734.78305	0.73337
732.85448	0.73530
730.92592	0.73693
728.99735	0.73703
727.06879	0.73626
725.14023	0.73537
723.21166	0.73400
721.28310	0.73212
719.35453	0.72988
717.42597	0.72720
715.49740	0.72462
713.56884	0.72259
711.64027	0.72108
709.71171	0.72079
707.78315	0.72241
705.85458	0.72524
703.92602	0.72835
701.99745	0.73074
700.06889	0.73186
698.14032	0.73294
696.21176	0.73525
694.28319	0.73804
692.35463	0.74018
690.42607	0.74158
688.49750	0.74227
686.56894	0.74219
684.64037	0.74133
682.71181	0.73949
680.78324	0.73681
678.85468	0.73422
676.92611	0.73261
674.99755	0.73204
673.06899	0.73069
671.14042	0.72532
669.21186	0.71747
667.28329	0.72157
665.35473	0.73177
663.42616	0.73658
661.49760	0.73937
659.56903	0.74260
657.64047	0.74508
655.71191	0.74734
653.78334	0.75113
651.85478	0.75567
649.92621	0.76041
647.99765	0.76639
646.06908	0.77255
644.14052	0.77687
642.21195	0.77958
640.28339	0.78176
638.35483	0.78298
636.42626	0.78262
634.49770	0.78185
632.56913	0.78032
630.64057	0.77536
628.71200	0.76820
626.78344	0.76219
624.85488	0.75772
622.92631	0.75456
620.99775	0.75220
619.06918	0.74896
617.14062	0.74512
615.21205	0.74191
613.28349	0.73921
611.35492	0.73808
609.42636	0.73887
607.49780	0.73840
605.56923	0.73523
603.64067	0.73258
601.71210	0.73230
599.78354	0.73193
