3997.91406	0.81386
3995.98550	0.81213
3994.05693	0.81110
3992.12837	0.81063
3990.19980	0.81054
3988.27124	0.81082
3986.34268	0.81157
3984.41411	0.81222
3982.48555	0.81257
3980.55698	0.81268
3978.62842	0.81210
3976.69985	0.81147
3974.77129	0.81126
3972.84272	0.81112
3970.91416	0.81123
3968.98560	0.81129
3967.05703	0.81091
3965.12847	0.81049
3963.19990	0.81031
3961.27134	0.81029
3959.34277	0.81023
3957.41421	0.80988
3955.48564	0.80953
3953.55708	0.81002
3951.62852	0.81170
3949.69995	0.81329
3947.77139	0.81281
3945.84282	0.81108
3943.91426	0.81024
3941.98569	0.80964
3940.05713	0.80811
3938.12856	0.80643
3936.20000	0.80551
3934.27144	0.80565
3932.34287	0.80599
3930.41431	0.80481
3928.48574	0.80316
3926.55718	0.80323
3924.62861	0.80445
3922.70005	0.80413
3920.77148	0.80227
3918.84292	0.80092
3916.91436	0.80013
3914.98579	0.79844
3913.05723	0.79605
3911.12866	0.79411
3909.20010	0.79322
3907.27153	0.79286
3905.34297	0.79296
3903.41440	0.79459
3901.48584	0.79733
3899.55728	0.79936
3897.62871	0.79858
3895.70015	0.79639
3893.77158	0.79622
3891.84302	0.79732
3889.91445	0.79545
3887.98589	0.79257
3886.05733	0.79195
3884.12876	0.79262
3882.20020	0.79261
3880.27163	0.79262
3878.34307	0.79215
3876.41450	0.79130
3874.48594	0.79100
3872.55737	0.79136
3870.62881	0.79233
3868.70025	0.79172
3866.77168	0.78992
3864.84312	0.79005
3862.91455	0.78995
3860.98599	0.78747
3859.05742	0.78571
3857.12886	0.78594
3855.20029	0.78808
3853.27173	0.79019
3851.34317	0.78716
3849.41460	0.78346
3847.48604	0.78203
3845.55747	0.78264
3843.62891	0.78392
3841.70034	0.78553
3839.77178	0.78810
3837.84321	0.78988
3835.91465	0.78876
3833.98609	0.78633
3832.05752	0.78500
3830.12896	0.78549
3828.20039	0.78634
3826.27183	0.78603
3824.34326	0.78521
3822.41470	0.78782
3820.48613	0.79245
3818.55757	0.79086
3816.62901	0.78670
3814.70044	0.78407
3812.77188	0.78245
3810.84331	0.78142
3808.91475	0.78242
3806.98618	0.78619
3805.05762	0.78874
3803.12905	0.78860
3801.20049	0.78688
3799.27193	0.78406
3797.34336	0.78109
3795.41480	0.77787
3793.48623	0.77481
3791.55767	0.77317
3789.62910	0.77355
3787.70054	0.77517
3785.77197	0.77682
3783.84341	0.77714
3781.91485	0.77671
3779.98628	0.77731
3778.05772	0.77713
3776.12915	0.77500
3774.20059	0.77314
3772.27202	0.77339
3770.34346	0.77573
3768.41489	0.77674
3766.48633	0.77552
3764.55777	0.77460
3762.62920	0.77481
3760.70064	0.77688
3758.77207	0.78016
3756.84351	0.78091
3754.91494	0.77968
3752.98638	0.78047
3751.05781	0.78480
3749.12925	0.78517
3747.20069	0.78114
3745.27212	0.77755
3743.34356	0.77576
3741.41499	0.77405
3739.48643	0.77301
3737.55786	0.77467
3735.62930	0.77624
3733.70074	0.77097
3731.77217	0.76302
3729.84361	0.75789
3727.91504	0.75663
3725.98648	0.75827
3724.05791	0.76033
3722.12935	0.76174
3720.20078	0.76210
3718.27222	0.76098
3716.34366	0.75975
3714.41509	0.76077
3712.48653	0.76600
3710.55796	0.76917
3708.62940	0.76431
3706.70083	0.75946
3704.77227	0.75821
3702.84370	0.75971
3700.91514	0.76115
3698.98658	0.76112
3697.05801	0.76145
3695.12945	0.76247
3693.20088	0.76487
3691.27232	0.77066
3689.34375	0.77727
3687.41519	0.77793
3685.48662	0.77542
3683.55806	0.77377
3681.62950	0.77464
3679.70093	0.77797
3677.77237	0.78334
3675.84380	0.79175
3673.91524	0.79728
3671.98667	0.79910
3670.05811	0.80244
3668.12954	0.80377
3666.20098	0.80261
3664.27242	0.80311
3662.34385	0.80636
3660.41529	0.81010
3658.48672	0.81294
3656.55816	0.81728
3654.62959	0.82212
3652.70103	0.82631
3650.77246	0.83571
3648.84390	0.85128
3646.91534	0.85591
3644.98677	0.85352
3643.05821	0.85305
3641.12964	0.85592
3639.20108	0.85987
3637.27251	0.86378
3635.34395	0.86905
3633.41538	0.87575
3631.48682	0.88254
3629.55826	0.89300
3627.62969	0.90426
3625.70113	0.90795
3623.77256	0.90999
3621.84400	0.91431
3619.91543	0.92248
3617.98687	0.93170
3616.05830	0.93892
3614.12974	0.94694
3612.20118	0.95428
3610.27261	0.95849
3608.34405	0.96277
3606.41548	0.96836
3604.48692	0.97366
3602.55835	0.97995
3600.62979	0.98787
3598.70123	0.99570
3596.77266	1.00230
3594.84410	1.00760
3592.91553	1.01184
3590.98697	1.01628
3589.05840	1.02462
3587.12984	1.03714
3585.20127	1.04612
3583.27271	1.05180
3581.34415	1.05743
3579.41558	1.06272
3577.48702	1.06747
3575.55845	1.07303
3573.62989	1.07966
3571.70132	1.08670
3569.77276	1.09493
3567.84419	1.10710
3565.91563	1.11951
3563.98707	1.12510
3562.05850	1.12813
3560.12994	1.13141
3558.20137	1.13531
3556.27281	1.14134
3554.34424	1.15035
3552.41568	1.16060
3550.48711	1.16858
3548.55855	1.17576
3546.62999	1.18465
3544.70142	1.19166
3542.77286	1.19472
3540.84429	1.19785
3538.91573	1.20418
3536.98716	1.21296
3535.05860	1.22063
3533.13003	1.22570
3531.20147	1.23022
3529.27291	1.23599
3527.34434	1.24300
3525.41578	1.25095
3523.48721	1.25991
3521.55865	1.26781
3519.63008	1.27399
3517.70152	1.28128
3515.77295	1.28983
3513.84439	1.29704
3511.91583	1.30177
3509.98726	1.30690
3508.05870	1.31589
3506.13013	1.32601
3504.20157	1.33495
3502.27300	1.34263
3500.34444	1.34747
3498.41587	1.35039
3496.48731	1.35452
3494.55875	1.36021
3492.63018	1.36654
3490.70162	1.37425
3488.77305	1.37977
3486.84449	1.37954
3484.91592	1.37785
3482.98736	1.37779
3481.05879	1.37993
3479.13023	1.38532
3477.20167	1.39073
3475.27310	1.39402
3473.34454	1.39962
3471.41597	1.40911
3469.48741	1.41650
3467.55884	1.41621
3465.63028	1.41137
3463.70171	1.41014
3461.77315	1.41390
3459.84459	1.41789
3457.91602	1.41957
3455.98746	1.41970
3454.05889	1.41807
3452.13033	1.41646
3450.20176	1.42110
3448.27320	1.43222
3446.34464	1.44106
3444.41607	1.44182
3442.48751	1.43937
3440.55894	1.44028
3438.63038	1.44196
3436.70181	1.44007
3434.77325	1.43773
3432.84468	1.43740
3430.91612	1.43774
3428.98756	1.43649
3427.05899	1.43349
3425.13043	1.43402
3423.20186	1.44002
3421.27330	1.44405
3419.34473	1.44033
3417.41617	1.43417
3415.48760	1.43238
3413.55904	1.43358
3411.63048	1.43452
3409.70191	1.43552
3407.77335	1.43576
3405.84478	1.43591
3403.91622	1.43893
3401.98765	1.44234
3400.05909	1.44232
3398.13052	1.44148
3396.20196	1.44264
3394.27340	1.44522
3392.34483	1.44816
3390.41627	1.44945
3388.48770	1.45037
3386.55914	1.45357
3384.63057	1.45580
3382.70201	1.45411
3380.77344	1.45250
3378.84488	1.45420
3376.91632	1.45625
3374.98775	1.45533
3373.05919	1.45352
3371.13062	1.45475
3369.20206	1.45859
3367.27349	1.46064
3365.34493	1.45862
3363.41636	1.45553
3361.48780	1.45539
3359.55924	1.45746
3357.63067	1.45851
3355.70211	1.45808
3353.77354	1.45575
3351.84498	1.45175
3349.91641	1.45021
3347.98785	1.45231
3346.05928	1.45378
3344.13072	1.45362
3342.20216	1.45456
3340.27359	1.45760
3338.34503	1.46291
3336.41646	1.46801
3334.48790	1.46743
3332.55933	1.46229
3330.63077	1.45906
3328.70220	1.46018
3326.77364	1.46500
3324.84508	1.47086
3322.91651	1.47427
3320.98795	1.47584
3319.05938	1.47547
3317.13082	1.47135
3315.20225	1.46825
3313.27369	1.46965
3311.34513	1.47184
3309.41656	1.47323
3307.48800	1.47373
3305.55943	1.47192
3303.63087	1.46901
3301.70230	1.46753
3299.77374	1.46856
3297.84517	1.47014
3295.91661	1.46839
3293.98805	1.46357
3292.05948	1.46098
3290.13092	1.46362
3288.20235	1.46715
3286.27379	1.46624
3284.34522	1.46401
3282.41666	1.46396
3280.48809	1.46165
3278.55953	1.45711
3276.63097	1.45553
3274.70240	1.45581
3272.77384	1.45569
3270.84527	1.45547
3268.91671	1.45351
3266.98814	1.44824
3265.05958	1.44027
3263.13101	1.43263
3261.20245	1.42924
3259.27389	1.42952
3257.34532	1.42860
3255.41676	1.42435
3253.48819	1.41947
3251.55963	1.41685
3249.63106	1.41570
3247.70250	1.41309
3245.77393	1.40983
3243.84537	1.40902
3241.91681	1.40789
3239.98824	1.40335
3238.05968	1.39871
3236.13111	1.39444
3234.20255	1.38820
3232.27398	1.38322
3230.34542	1.38227
3228.41685	1.38207
3226.48829	1.37975
3224.55973	1.37697
3222.63116	1.37574
3220.70260	1.37574
3218.77403	1.37546
3216.84547	1.37326
3214.91690	1.36941
3212.98834	1.36661
3211.05977	1.36540
3209.13121	1.36394
3207.20265	1.36279
3205.27408	1.36217
3203.34552	1.36043
3201.41695	1.35834
3199.48839	1.35718
3197.55982	1.35575
3195.63126	1.35289
3193.70269	1.34946
3191.77413	1.34655
3189.84557	1.34462
3187.91700	1.34303
3185.98844	1.34179
3184.05987	1.34267
3182.13131	1.34360
3180.20274	1.34072
3178.27418	1.33586
3176.34562	1.33294
3174.41705	1.33185
3172.48849	1.33064
3170.55992	1.32985
3168.63136	1.32950
3166.70279	1.32787
3164.77423	1.32473
3162.84566	1.32059
3160.91710	1.31679
3158.98854	1.31450
3157.05997	1.31316
3155.13141	1.31227
3153.20284	1.31104
3151.27428	1.30831
3149.34571	1.30513
3147.41715	1.30408
3145.48858	1.30448
3143.56002	1.30268
3141.63146	1.29757
3139.70289	1.29250
3137.77433	1.29123
3135.84576	1.29286
3133.91720	1.29340
3131.98863	1.29152
3130.06007	1.28881
3128.13150	1.28660
3126.20294	1.28514
3124.27438	1.28504
3122.34581	1.28640
3120.41725	1.28705
3118.48868	1.28675
3116.56012	1.28705
3114.63155	1.28740
3112.70299	1.28679
3110.77442	1.28500
3108.84586	1.28279
3106.91730	1.28174
3104.98873	1.28265
3103.06017	1.28430
3101.13160	1.28423
3099.20304	1.28279
3097.27447	1.28237
3095.34591	1.28250
3093.41734	1.28097
3091.48878	1.27792
3089.56022	1.27557
3087.63165	1.27461
3085.70309	1.27426
3083.77452	1.27396
3081.84596	1.27306
3079.91739	1.27108
3077.98883	1.26806
3076.06026	1.26467
3074.13170	1.26213
3072.20314	1.26103
3070.27457	1.26085
3068.34601	1.26018
3066.41744	1.25720
3064.48888	1.25314
3062.56031	1.25171
3060.63175	1.25220
3058.70318	1.25106
3056.77462	1.24803
3054.84606	1.24453
3052.91749	1.24078
3050.98893	1.23718
3049.06036	1.23515
3047.13180	1.23450
3045.20323	1.23255
3043.27467	1.22795
3041.34610	1.22269
3039.41754	1.21952
3037.48898	1.21817
3035.56041	1.21627
3033.63185	1.21372
3031.70328	1.21144
3029.77472	1.20898
3027.84615	1.20670
3025.91759	1.20474
3023.98903	1.20249
3022.06046	1.20032
3020.13190	1.19791
3018.20333	1.19513
3016.27477	1.19353
3014.34620	1.19396
3012.41764	1.19480
3010.48907	1.19397
3008.56051	1.19191
3006.63195	1.18999
3004.70338	1.18886
3002.77482	1.18915
3000.84625	1.19049
2998.91769	1.19129
2996.98912	1.19147
2995.06056	1.19285
2993.13199	1.19548
2991.20343	1.19807
2989.27487	1.20158
2987.34630	1.20728
2985.41774	1.21421
2983.48917	1.22044
2981.56061	1.22522
2979.63204	1.22968
2977.70348	1.23466
2975.77491	1.24020
2973.84635	1.24750
2971.91779	1.25719
2969.98922	1.26711
2968.06066	1.27473
2966.13209	1.27963
2964.20353	1.28272
2962.27496	1.28458
2960.34640	1.28459
2958.41783	1.28240
2956.48927	1.27922
2954.56071	1.27503
2952.63214	1.26980
2950.70358	1.26726
2948.77501	1.26924
2946.84645	1.27285
2944.91788	1.27679
2942.98932	1.28114
2941.06075	1.28528
2939.13219	1.29037
2937.20363	1.29816
2935.27506	1.30788
2933.34650	1.31721
2931.41793	1.32533
2929.48937	1.33282
2927.56080	1.33882
2925.63224	1.34206
2923.70367	1.34274
2921.77511	1.34178
2919.84655	1.33893
2917.91798	1.33190
2915.98942	1.31793
2914.06085	1.29884
2912.13229	1.28053
2910.20372	1.26562
2908.27516	1.25347
2906.34659	1.24411
2904.41803	1.23648
2902.48947	1.22968
2900.56090	1.22566
2898.63234	1.22408
2896.70377	1.22178
2894.77521	1.21926
2892.84664	1.21808
2890.91808	1.21633
2888.98952	1.21214
2887.06095	1.20744
2885.13239	1.20563
2883.20382	1.20690
2881.27526	1.20856
2879.34669	1.20894
2877.41813	1.20915
2875.48956	1.20983
2873.56100	1.20898
2871.63244	1.20517
2869.70387	1.19931
2867.77531	1.19323
2865.84674	1.18806
2863.91818	1.18504
2861.98961	1.18529
2860.06105	1.18822
2858.13248	1.19285
2856.20392	1.19883
2854.27536	1.20610
2852.34679	1.21270
2850.41823	1.21199
2848.48966	1.19743
2846.56110	1.17165
2844.63253	1.14527
2842.70397	1.12527
2840.77540	1.11059
2838.84684	1.09919
2836.91828	1.09100
2834.98971	1.08523
2833.06115	1.08042
2831.13258	1.07574
2829.20402	1.07088
2827.27545	1.06619
2825.34689	1.06266
2823.41832	1.06029
2821.48976	1.05805
2819.56120	1.05520
2817.63263	1.05127
2815.70407	1.04667
2813.77550	1.04300
2811.84694	1.04073
2809.91837	1.03880
2807.98981	1.03634
2806.06124	1.03306
2804.13268	1.02924
2802.20412	1.02521
2800.27555	1.02130
2798.34699	1.01827
2796.41842	1.01583
2794.48986	1.01280
2792.56129	1.00912
2790.63273	1.00563
2788.70416	1.00292
2786.77560	1.00082
2784.84704	0.99826
2782.91847	0.99497
2780.98991	0.99197
2779.06134	0.98971
2777.13278	0.98742
2775.20421	0.98512
2773.27565	0.98365
2771.34708	0.98238
2769.41852	0.98046
2767.48996	0.97812
2765.56139	0.97559
2763.63283	0.97315
2761.70426	0.97114
2759.77570	0.96986
2757.84713	0.96900
2755.91857	0.96768
2753.99001	0.96597
2752.06144	0.96420
2750.13288	0.96216
2748.20431	0.96003
2746.27575	0.95822
2744.34718	0.95672
2742.41862	0.95532
2740.49005	0.95423
2738.56149	0.95329
2736.63293	0.95163
2734.70436	0.94938
2732.77580	0.94722
2730.84723	0.94527
2728.91867	0.94345
2726.99010	0.94166
2725.06154	0.93979
2723.13297	0.93754
2721.20441	0.93472
2719.27585	0.93180
2717.34728	0.92928
2715.41872	0.92732
2713.49015	0.92585
2711.56159	0.92451
2709.63302	0.92300
2707.70446	0.92134
2705.77589	0.91959
2703.84733	0.91790
2701.91877	0.91648
2699.99020	0.91509
2698.06164	0.91340
2696.13307	0.91201
2694.20451	0.91123
2692.27594	0.91046
2690.34738	0.90946
2688.41881	0.90846
2686.49025	0.90769
2684.56169	0.90673
2682.63312	0.90521
2680.70456	0.90366
2678.77599	0.90208
2676.84743	0.90018
2674.91886	0.89826
2672.99030	0.89626
2671.06173	0.89407
2669.13317	0.89185
2667.20461	0.88976
2665.27604	0.88787
2663.34748	0.88571
2661.41891	0.88305
2659.49035	0.88041
2657.56178	0.87828
2655.63322	0.87642
2653.70465	0.87453
2651.77609	0.87311
2649.84753	0.87235
2647.91896	0.87126
2645.99040	0.86945
2644.06183	0.86779
2642.13327	0.86679
2640.20470	0.86597
2638.27614	0.86477
2636.34757	0.86321
2634.41901	0.86153
2632.49045	0.85982
2630.56188	0.85845
2628.63332	0.85767
2626.70475	0.85716
2624.77619	0.85623
2622.84762	0.85452
2620.91906	0.85271
2618.99049	0.85169
2617.06193	0.85106
2615.13337	0.84967
2613.20480	0.84751
2611.27624	0.84537
2609.34767	0.84313
2607.41911	0.84083
2605.49054	0.83932
2603.56198	0.83818
2601.63342	0.83645
2599.70485	0.83457
2597.77629	0.83290
2595.84772	0.83080
2593.91916	0.82825
2591.99059	0.82589
2590.06203	0.82382
2588.13346	0.82183
2586.20490	0.81968
2584.27634	0.81741
2582.34777	0.81562
2580.41921	0.81432
2578.49064	0.81272
2576.56208	0.81083
2574.63351	0.80943
2572.70495	0.80862
2570.77638	0.80812
2568.84782	0.80766
2566.91926	0.80673
2564.99069	0.80519
2563.06213	0.80363
2561.13356	0.80256
2559.20500	0.80154
2557.27643	0.80021
2555.34787	0.79901
2553.41930	0.79763
2551.49074	0.79571
2549.56218	0.79405
2547.63361	0.79308
2545.70505	0.79231
2543.77648	0.79120
2541.84792	0.78951
2539.91935	0.78771
2537.99079	0.78647
2536.06222	0.78550
2534.13366	0.78410
2532.20510	0.78245
2530.27653	0.78113
2528.34797	0.78019
2526.41940	0.77909
2524.49084	0.77756
2522.56227	0.77603
2520.63371	0.77472
2518.70514	0.77352
2516.77658	0.77256
2514.84802	0.77178
2512.91945	0.77093
2510.99089	0.77017
2509.06232	0.76957
2507.13376	0.76874
2505.20519	0.76808
2503.27663	0.76786
2501.34806	0.76733
2499.41950	0.76651
2497.49094	0.76576
2495.56237	0.76472
2493.63381	0.76343
2491.70524	0.76211
2489.77668	0.76080
2487.84811	0.75946
2485.91955	0.75791
2483.99098	0.75634
2482.06242	0.75506
2480.13386	0.75359
2478.20529	0.75138
2476.27673	0.74893
2474.34816	0.74682
2472.41960	0.74473
2470.49103	0.74252
2468.56247	0.74077
2466.63391	0.73939
2464.70534	0.73763
2462.77678	0.73557
2460.84821	0.73382
2458.91965	0.73260
2456.99108	0.73156
2455.06252	0.73032
2453.13395	0.72903
2451.20539	0.72791
2449.27683	0.72690
2447.34826	0.72617
2445.41970	0.72559
2443.49113	0.72489
2441.56257	0.72431
2439.63400	0.72381
2437.70544	0.72316
2435.77687	0.72221
2433.84831	0.72096
2431.91975	0.71977
2429.99118	0.71862
2428.06262	0.71729
2426.13405	0.71611
2424.20549	0.71489
2422.27692	0.71312
2420.34836	0.71124
2418.41979	0.70954
2416.49123	0.70763
2414.56267	0.70561
2412.63410	0.70385
2410.70554	0.70214
2408.77697	0.70005
2406.84841	0.69757
2404.91984	0.69497
2402.99128	0.69238
2401.06271	0.68994
2399.13415	0.68796
2397.20559	0.68635
2395.27702	0.68477
2393.34846	0.68334
2391.41989	0.68188
2389.49133	0.68000
2387.56276	0.67747
2385.63420	0.67386
2383.70563	0.66889
2381.77707	0.66275
2379.84851	0.65563
2377.91994	0.64770
2375.99138	0.63909
2374.06281	0.62931
2372.13425	0.61763
2370.20568	0.60506
2368.27712	0.59310
2366.34855	0.58153
2364.41999	0.57011
2362.49143	0.56145
2360.56286	0.55891
2358.63430	0.56223
2356.70573	0.56970
2354.77717	0.57958
2352.84860	0.59096
2350.92004	0.60033
2348.99147	0.60262
2347.06291	0.59653
2345.13435	0.58505
2343.20578	0.57599
2341.27722	0.57283
2339.34865	0.57203
2337.42009	0.57137
2335.49152	0.57060
2333.56296	0.56988
2331.63440	0.57025
2329.70583	0.57206
2327.77727	0.57438
2325.84870	0.57752
2323.92014	0.58175
2321.99157	0.58675
2320.06301	0.59224
2318.13444	0.59746
2316.20588	0.60150
2314.27732	0.60410
2312.34875	0.60610
2310.42019	0.60870
2308.49162	0.61210
2306.56306	0.61565
2304.63449	0.61865
2302.70593	0.62057
2300.77736	0.62153
2298.84880	0.62215
2296.92024	0.62265
2294.99167	0.62288
2293.06311	0.62294
2291.13454	0.62303
2289.20598	0.62307
2287.27741	0.62276
2285.34885	0.62199
2283.42028	0.62064
2281.49172	0.61859
2279.56316	0.61603
2277.63459	0.61354
2275.70603	0.61152
2273.77746	0.60973
2271.84890	0.60774
2269.92033	0.60560
2267.99177	0.60352
2266.06320	0.60167
2264.13464	0.60024
2262.20608	0.59934
2260.27751	0.59870
2258.34895	0.59810
2256.42038	0.59779
2254.49182	0.59775
2252.56325	0.59754
2250.63469	0.59713
2248.70612	0.59698
2246.77756	0.59741
2244.84900	0.59808
2242.92043	0.59856
2240.99187	0.59869
2239.06330	0.59863
2237.13474	0.59863
2235.20617	0.59851
2233.27761	0.59801
2231.34904	0.59735
2229.42048	0.59675
2227.49192	0.59601
2225.56335	0.59494
2223.63479	0.59360
2221.70622	0.59228
2219.77766	0.59128
2217.84909	0.59053
2215.92053	0.58961
2213.99196	0.58833
2212.06340	0.58687
2210.13484	0.58533
2208.20627	0.58374
2206.27771	0.58241
2204.34914	0.58143
2202.42058	0.58041
2200.49201	0.57921
2198.56345	0.57818
2196.63488	0.57741
2194.70632	0.57655
2192.77776	0.57565
2190.84919	0.57499
2188.92063	0.57454
2186.99206	0.57421
2185.06350	0.57397
2183.13493	0.57384
2181.20637	0.57388
2179.27781	0.57396
2177.34924	0.57396
2175.42068	0.57397
2173.49211	0.57396
2171.56355	0.57400
2169.63498	0.57418
2167.70642	0.57425
2165.77785	0.57401
2163.84929	0.57360
2161.92073	0.57313
2159.99216	0.57254
2158.06360	0.57176
2156.13503	0.57085
2154.20647	0.57003
2152.27790	0.56943
2150.34934	0.56886
2148.42077	0.56826
2146.49221	0.56759
2144.56365	0.56655
2142.63508	0.56525
2140.70652	0.56427
2138.77795	0.56362
2136.84939	0.56279
2134.92082	0.56157
2132.99226	0.56020
2131.06369	0.55893
2129.13513	0.55777
2127.20657	0.55663
2125.27800	0.55542
2123.34944	0.55414
2121.42087	0.55292
2119.49231	0.55190
2117.56374	0.55108
2115.63518	0.55037
2113.70661	0.54977
2111.77805	0.54912
2109.84949	0.54831
2107.92092	0.54759
2105.99236	0.54710
2104.06379	0.54683
2102.13523	0.54675
2100.20666	0.54673
2098.27810	0.54674
2096.34953	0.54659
2094.42097	0.54633
2092.49241	0.54637
2090.56384	0.54668
2088.63528	0.54690
2086.70671	0.54691
2084.77815	0.54673
2082.84958	0.54656
2080.92102	0.54655
2078.99245	0.54650
2077.06389	0.54621
2075.13533	0.54564
2073.20676	0.54498
2071.27820	0.54430
2069.34963	0.54362
2067.42107	0.54300
2065.49250	0.54210
2063.56394	0.54072
2061.63537	0.53923
2059.70681	0.53808
2057.77825	0.53721
2055.84968	0.53614
2053.92112	0.53484
2051.99255	0.53371
2050.06399	0.53277
2048.13542	0.53180
2046.20686	0.53073
2044.27830	0.52982
2042.34973	0.52922
2040.42117	0.52865
2038.49260	0.52784
2036.56404	0.52695
2034.63547	0.52620
2032.70691	0.52564
2030.77834	0.52527
2028.84978	0.52496
2026.92122	0.52458
2024.99265	0.52409
2023.06409	0.52365
2021.13552	0.52356
2019.20696	0.52391
2017.27839	0.52424
2015.34983	0.52408
2013.42126	0.52371
2011.49270	0.52355
2009.56414	0.52356
2007.63557	0.52340
2005.70701	0.52293
2003.77844	0.52252
2001.84988	0.52245
1999.92131	0.52246
1997.99275	0.52217
1996.06418	0.52192
1994.13562	0.52218
1992.20706	0.52239
1990.27849	0.52185
1988.34993	0.52087
1986.42136	0.51973
1984.49280	0.51868
1982.56423	0.51810
1980.63567	0.51778
1978.70710	0.51740
1976.77854	0.51696
1974.84998	0.51651
1972.92141	0.51623
1970.99285	0.51641
1969.06428	0.51697
1967.13572	0.51718
1965.20715	0.51671
1963.27859	0.51614
1961.35002	0.51566
1959.42146	0.51514
1957.49290	0.51482
1955.56433	0.51478
1953.63577	0.51456
1951.70720	0.51399
1949.77864	0.51348
1947.85007	0.51340
1945.92151	0.51379
1943.99294	0.51443
1942.06438	0.51446
1940.13582	0.51339
1938.20725	0.51232
1936.27869	0.51202
1934.35012	0.51215
1932.42156	0.51217
1930.49299	0.51189
1928.56443	0.51144
1926.63586	0.51141
1924.70730	0.51232
1922.77874	0.51324
1920.85017	0.51305
1918.92161	0.51249
1916.99304	0.51168
1915.06448	0.51048
1913.13591	0.50996
1911.20735	0.51043
1909.27878	0.51086
1907.35022	0.51043
1905.42166	0.50973
1903.49309	0.50936
1901.56453	0.50907
1899.63596	0.50877
1897.70740	0.50886
1895.77883	0.50919
1893.85027	0.50903
1891.92171	0.50875
1889.99314	0.50868
1888.06458	0.50782
1886.13601	0.50645
1884.20745	0.50548
1882.27888	0.50470
1880.35032	0.50384
1878.42175	0.50290
1876.49319	0.50195
1874.56463	0.50130
1872.63606	0.50164
1870.70750	0.50354
1868.77893	0.50533
1866.85037	0.50374
1864.92180	0.50062
1862.99324	0.49864
1861.06467	0.49778
1859.13611	0.49717
1857.20755	0.49627
1855.27898	0.49540
1853.35042	0.49486
1851.42185	0.49469
1849.49329	0.49509
1847.56472	0.49620
1845.63616	0.49777
1843.70759	0.49797
1841.77903	0.49589
1839.85047	0.49416
1837.92190	0.49396
1835.99334	0.49428
1834.06477	0.49456
1832.13621	0.49593
1830.20764	0.49805
1828.27908	0.49827
1826.35051	0.49726
1824.42195	0.49636
1822.49339	0.49502
1820.56482	0.49391
1818.63626	0.49380
1816.70769	0.49400
1814.77913	0.49415
1812.85056	0.49497
1810.92200	0.49600
1808.99343	0.49578
1807.06487	0.49492
1805.13631	0.49494
1803.20774	0.49630
1801.27918	0.49833
1799.35061	0.49932
1797.42205	0.49940
1795.49348	0.50012
1793.56492	0.50184
1791.63635	0.50250
1789.70779	0.50059
1787.77923	0.49895
1785.85066	0.49892
1783.92210	0.49980
1781.99353	0.50092
1780.06497	0.50173
1778.13640	0.50209
1776.20784	0.50323
1774.27927	0.50648
1772.35071	0.51029
1770.42215	0.51069
1768.49358	0.50936
1766.56502	0.50892
1764.63645	0.51036
1762.70789	0.51448
1760.77932	0.51973
1758.85076	0.52434
1756.92220	0.53027
1754.99363	0.53732
1753.06507	0.54595
1751.13650	0.55992
1749.20794	0.57695
1747.27937	0.58911
1745.35081	0.59769
1743.42224	0.60570
1741.49368	0.61314
1739.56512	0.61895
1737.63655	0.62243
1735.70799	0.62591
1733.77942	0.63023
1731.85086	0.63018
1729.92229	0.62803
1727.99373	0.62722
1726.06516	0.62874
1724.13660	0.63315
1722.20804	0.63890
1720.27947	0.64591
1718.35091	0.65935
1716.42234	0.67894
1714.49378	0.69155
1712.56521	0.70162
1710.63665	0.71572
1708.70808	0.73523
1706.77952	0.76446
1704.85096	0.80223
1702.92239	0.83640
1700.99383	0.88258
1699.06526	0.95304
1697.13670	1.01378
1695.20813	1.06715
1693.27957	1.10596
1691.35100	1.13540
1689.42244	1.16822
1687.49388	1.19612
1685.56531	1.22047
1683.63675	1.25011
1681.70818	1.26691
1679.77962	1.27414
1677.85105	1.28134
1675.92249	1.28981
1673.99392	1.29590
1672.06536	1.29927
1670.13680	1.30250
1668.20823	1.30364
1666.27967	1.30229
1664.35110	1.30294
1662.42254	1.30461
1660.49397	1.30248
1658.56541	1.29966
1656.63684	1.29909
1654.70828	1.30174
1652.77972	1.30292
1650.85115	1.30063
1648.92259	1.30172
1646.99402	1.30246
1645.06546	1.29659
1643.13689	1.29076
1641.20833	1.28881
1639.27976	1.28964
1637.35120	1.29191
1635.42264	1.28924
1633.49407	1.28082
1631.56551	1.27541
1629.63694	1.27275
1627.70838	1.27028
1625.77981	1.26604
1623.85125	1.25941
1621.92269	1.24956
1619.99412	1.24009
1618.06556	1.23044
1616.13699	1.21505
1614.20843	1.19967
1612.27986	1.18745
1610.35130	1.17552
1608.42273	1.16331
1606.49417	1.15213
1604.56561	1.14301
1602.63704	1.13576
1600.70848	1.13094
1598.77991	1.12867
1596.85135	1.12801
1594.92278	1.12756
1592.99422	1.12724
1591.06565	1.12870
1589.13709	1.13233
1587.20853	1.13713
1585.27996	1.14287
1583.35140	1.14985
1581.42283	1.15748
1579.49427	1.16582
1577.56570	1.17769
1575.63714	1.19115
1573.70857	1.19707
1571.78001	1.20126
1569.85145	1.20974
1567.92288	1.21770
1565.99432	1.22237
1564.06575	1.22687
1562.13719	1.23085
1560.20862	1.23819
1558.28006	1.25070
1556.35149	1.25037
1554.42293	1.24583
1552.49437	1.24198
1550.56580	1.23881
1548.63724	1.23575
1546.70867	1.23456
1544.78011	1.23660
1542.85154	1.23977
1540.92298	1.23753
1538.99441	1.22620
1537.06585	1.21895
1535.13729	1.21530
1533.20872	1.20945
1531.28016	1.20150
1529.35159	1.19668
1527.42303	1.19440
1525.49446	1.19305
1523.56590	1.19349
1521.63733	1.19290
1519.70877	1.18731
1517.78021	1.17808
1515.85164	1.16554
1513.92308	1.15363
1511.99451	1.14480
1510.06595	1.13893
1508.13738	1.13009
1506.20882	1.10495
1504.28025	1.08540
1502.35169	1.07390
1500.42313	1.06398
1498.49456	1.05335
1496.56600	1.03892
1494.63743	1.02520
1492.70887	1.01703
1490.78030	1.01152
1488.85174	1.00254
1486.92317	0.99083
1484.99461	0.98244
1483.06605	0.97822
1481.13748	0.97674
1479.20892	0.97741
1477.28035	0.98153
1475.35179	0.99053
1473.42322	1.00405
1471.49466	1.01418
1469.56610	1.01763
1467.63753	1.02078
1465.70897	1.02604
1463.78040	1.03082
1461.85184	1.03322
1459.92327	1.03662
1457.99471	1.04412
1456.06614	1.04687
1454.13758	1.04188
1452.20902	1.03743
1450.28045	1.03495
1448.35189	1.03326
1446.42332	1.03029
1444.49476	1.02641
1442.56619	1.02276
1440.63763	1.02028
1438.70906	1.01892
1436.78050	1.01599
1434.85194	1.01054
1432.92337	1.00594
1430.99481	1.00232
1429.06624	0.99926
1427.13768	0.99832
1425.20911	1.00026
1423.28055	1.00332
1421.35198	1.00646
1419.42342	1.01229
1417.49486	1.01784
1415.56629	1.01852
1413.63773	1.01832
1411.70916	1.01927
1409.78060	1.02025
1407.85203	1.02067
1405.92347	1.02168
1403.99490	1.02298
1402.06634	1.02361
1400.13778	1.02412
1398.20921	1.02396
1396.28065	1.02192
1394.35208	1.01801
1392.42352	1.01429
1390.49495	1.01309
1388.56639	1.01499
1386.63782	1.01821
1384.70926	1.02064
1382.78070	1.02302
1380.85213	1.02474
1378.92357	1.02403
1376.99500	1.02065
1375.06644	1.01374
1373.13787	1.00332
1371.20931	0.99307
1369.28074	0.98298
1367.35218	0.97183
1365.42362	0.96209
1363.49505	0.95418
1361.56649	0.94622
1359.63792	0.93960
1357.70936	0.93588
1355.78079	0.93440
1353.85223	0.93408
1351.92366	0.93396
1349.99510	0.93354
1348.06654	0.93292
1346.13797	0.93260
1344.20941	0.93302
1342.28084	0.93451
1340.35228	0.93682
1338.42371	0.93821
1336.49515	0.93858
1334.56659	0.94017
1332.63802	0.94359
1330.70946	0.94761
1328.78089	0.95049
1326.85233	0.95162
1324.92376	0.95157
1322.99520	0.95126
1321.06663	0.95154
1319.13807	0.95191
1317.20951	0.95117
1315.28094	0.94976
1313.35238	0.94787
1311.42381	0.94465
1309.49525	0.94088
1307.56668	0.93732
1305.63812	0.93337
1303.70955	0.92932
1301.78099	0.92568
1299.85243	0.92181
1297.92386	0.91711
1295.99530	0.91218
1294.06673	0.90826
1292.13817	0.90606
1290.20960	0.90556
1288.28104	0.90605
1286.35247	0.90693
1284.42391	0.90820
1282.49535	0.90987
1280.56678	0.91183
1278.63822	0.91409
1276.70965	0.91684
1274.78109	0.92054
1272.85252	0.92543
1270.92396	0.93085
1268.99539	0.93596
1267.06683	0.94061
1265.13827	0.94415
1263.20970	0.94596
1261.28114	0.94630
1259.35257	0.94569
1257.42401	0.94453
1255.49544	0.94306
1253.56688	0.94112
1251.63831	0.93849
1249.70975	0.93550
1247.78119	0.93258
1245.85262	0.92972
1243.92406	0.92675
1241.99549	0.92348
1240.06693	0.91970
1238.13836	0.91532
1236.20980	0.91060
1234.28123	0.90584
1232.35267	0.90088
1230.42411	0.89565
1228.49554	0.89053
1226.56698	0.88556
1224.63841	0.88031
1222.70985	0.87488
1220.78128	0.87015
1218.85272	0.86684
1216.92415	0.86513
1214.99559	0.86539
1213.06703	0.86780
1211.13846	0.87165
1209.20990	0.87599
1207.28133	0.87983
1205.35277	0.88179
1203.42420	0.88126
1201.49564	0.87908
1199.56708	0.87602
1197.63851	0.87186
1195.70995	0.86667
1193.78138	0.86159
1191.85282	0.85754
1189.92425	0.85435
1187.99569	0.85129
1186.06712	0.84824
1184.13856	0.84612
1182.21000	0.84555
1180.28143	0.84648
1178.35287	0.84905
1176.42430	0.85365
1174.49574	0.86027
1172.56717	0.86776
1170.63861	0.87547
1168.71004	0.88456
1166.78148	0.89567
1164.85292	0.90713
1162.92435	0.91642
1160.99579	0.92216
1159.06722	0.92443
1157.13866	0.92380
1155.21009	0.92006
1153.28153	0.91376
1151.35296	0.90747
1149.42440	0.90242
1147.49584	0.89773
1145.56727	0.89397
1143.63871	0.89333
1141.71014	0.89670
1139.78158	0.90323
1137.85301	0.91187
1135.92445	0.92220
1133.99588	0.93417
1132.06732	0.94761
1130.13876	0.96154
1128.21019	0.97501
1126.28163	0.98777
1124.35306	0.99889
1122.42450	1.00696
1120.49593	1.01177
1118.56737	1.01355
1116.63880	1.01201
1114.71024	1.00768
1112.78168	1.00279
1110.85311	0.99884
1108.92455	0.99497
1106.99598	0.98987
1105.06742	0.98407
1103.13885	0.97937
1101.21029	0.97663
1099.28172	0.97607
1097.35316	0.97802
1095.42460	0.98258
1093.49603	0.98954
1091.56747	0.99821
1089.63890	1.00821
1087.71034	1.01889
1085.78177	1.02857
1083.85321	1.03603
1081.92464	1.04005
1079.99608	1.03913
1078.06752	1.03419
1076.13895	1.02827
1074.21039	1.02383
1072.28182	1.02059
1070.35326	1.01625
1068.42469	1.01096
1066.49613	1.00671
1064.56756	1.00313
1062.63900	0.99931
1060.71044	0.99609
1058.78187	0.99399
1056.85331	0.99213
1054.92474	0.98958
1052.99618	0.98661
1051.06761	0.98433
1049.13905	0.98341
1047.21049	0.98308
1045.28192	0.98229
1043.35336	0.98119
1041.42479	0.97982
1039.49623	0.97772
1037.56766	0.97481
1035.63910	0.97045
1033.71053	0.96356
1031.78197	0.95444
1029.85341	0.94410
1027.92484	0.93260
1025.99628	0.91976
1024.06771	0.90642
1022.13915	0.89385
1020.21058	0.88272
1018.28202	0.87279
1016.35345	0.86329
1014.42489	0.85302
1012.49633	0.84110
1010.56776	0.82804
1008.63920	0.81460
1006.71063	0.80154
1004.78207	0.79020
1002.85350	0.78152
1000.92494	0.77567
998.99637	0.77283
997.06781	0.77272
995.13925	0.77409
993.21068	0.77559
991.28212	0.77613
989.35355	0.77528
987.42499	0.77319
985.49642	0.77008
983.56786	0.76641
981.63929	0.76286
979.71073	0.75978
977.78217	0.75633
975.85360	0.75136
973.92504	0.74428
971.99647	0.73440
970.06791	0.72179
968.13934	0.70801
966.21078	0.69453
964.28221	0.68232
962.35365	0.67276
960.42509	0.66761
958.49652	0.66691
956.56796	0.66752
954.63939	0.66534
952.71083	0.65887
950.78226	0.64953
948.85370	0.63982
946.92513	0.63212
944.99657	0.62778
943.06801	0.62685
941.13944	0.62871
939.21088	0.63232
937.28231	0.63686
935.35375	0.64243
933.42518	0.64921
931.49662	0.65689
929.56805	0.66512
927.63949	0.67362
925.71093	0.68204
923.78236	0.69008
921.85380	0.69713
919.92523	0.70200
917.99667	0.70378
916.06810	0.70308
914.13954	0.70134
912.21098	0.69924
910.28241	0.69668
908.35385	0.69400
906.42528	0.69206
904.49672	0.69061
902.56815	0.68849
900.63959	0.68525
898.71102	0.68100
896.78246	0.67602
894.85390	0.67081
892.92533	0.66545
890.99677	0.65981
889.06820	0.65453
887.13964	0.65037
885.21107	0.64761
883.28251	0.64662
881.35394	0.64774
879.42538	0.65055
877.49682	0.65449
875.56825	0.65949
873.63969	0.66558
871.71112	0.67265
869.78256	0.68036
867.85399	0.68821
865.92543	0.69619
863.99686	0.70438
862.06830	0.71261
860.13974	0.72099
858.21117	0.72947
856.28261	0.73748
854.35404	0.74440
852.42548	0.74970
850.49691	0.75280
848.56835	0.75358
846.63978	0.75287
844.71122	0.75152
842.78266	0.74925
840.85409	0.74554
838.92553	0.74089
836.99696	0.73592
835.06840	0.73087
833.13983	0.72616
831.21127	0.72179
829.28270	0.71737
827.35414	0.71312
825.42558	0.70953
823.49701	0.70667
821.56845	0.70501
819.63988	0.70477
817.71132	0.70544
815.78275	0.70721
813.85419	0.71029
811.92562	0.71404
809.99706	0.71825
808.06850	0.72312
806.13993	0.72878
804.21137	0.73510
802.28280	0.74178
800.35424	0.74893
798.42567	0.75650
796.49711	0.76421
794.56854	0.77231
792.63998	0.78073
790.71142	0.78930
788.78285	0.79823
786.85429	0.80670
784.92572	0.81370
782.99716	0.81916
781.06859	0.82279
779.14003	0.82424
777.21147	0.82401
775.28290	0.82276
773.35434	0.82067
771.42577	0.81782
769.49721	0.81415
767.56864	0.80919
765.64008	0.80316
763.71151	0.79739
761.78295	0.79266
759.85439	0.78888
757.92582	0.78650
755.99726	0.78578
754.06869	0.78641
752.14013	0.78807
750.21156	0.79040
748.28300	0.79395
746.35443	0.79905
744.42587	0.80481
742.49731	0.81040
740.56874	0.81569
738.64018	0.82149
736.71161	0.82932
734.78305	0.83981
732.85448	0.85151
730.92592	0.86261
728.99735	0.87274
727.06879	0.88288
725.14023	0.89341
723.21166	0.90226
721.28310	0.90799
719.35453	0.91260
717.42597	0.91678
715.49740	0.91830
713.56884	0.91745
711.64027	0.91606
709.71171	0.91403
707.78315	0.91064
705.85458	0.90571
703.92602	0.89947
701.99745	0.89268
700.06889	0.88573
698.14032	0.87838
696.21176	0.87091
694.28319	0.86380
692.35463	0.85740
690.42607	0.85261
688.49750	0.84928
686.56894	0.84690
684.64037	0.84668
682.71181	0.84862
680.78324	0.85136
678.85468	0.85525
676.92611	0.86155
674.99755	0.86988
673.06899	0.87683
671.14042	0.87901
669.21186	0.88320
667.28329	0.90361
665.35473	0.92238
663.42616	0.93223
661.49760	0.93948
659.56903	0.94456
657.64047	0.94652
655.71191	0.94762
653.78334	0.94903
651.85478	0.94879
649.92621	0.94648
647.99765	0.94268
646.06908	0.93691
644.14052	0.93000
642.21195	0.92455
640.28339	0.92079
638.35483	0.91566
636.42626	0.90686
634.49770	0.89527
632.56913	0.88504
630.64057	0.87861
628.71200	0.87372
626.78344	0.86908
624.85488	0.86604
622.92631	0.86448
620.99775	0.86375
619.06918	0.86438
617.14062	0.86636
615.21205	0.86819
613.28349	0.86951
611.35492	0.87198
609.42636	0.87747
607.49780	0.88536
605.56923	0.89210
603.64067	0.89687
601.71210	0.90223
599.78354	0.90795
