3997.91406	0.79713
3995.98550	0.79612
3994.05693	0.79385
3992.12837	0.79199
3990.19980	0.79109
3988.27124	0.79061
3986.34268	0.79058
3984.41411	0.79069
3982.48555	0.79100
3980.55698	0.79103
3978.62842	0.78978
3976.69985	0.78887
3974.77129	0.78934
3972.84272	0.78923
3970.91416	0.78794
3968.98560	0.78658
3967.05703	0.78453
3965.12847	0.78183
3963.19990	0.78111
3961.27134	0.78324
3959.34277	0.78511
3957.41421	0.78370
3955.48564	0.77992
3953.55708	0.77784
3951.62852	0.77883
3949.69995	0.78004
3947.77139	0.78007
3945.84282	0.78006
3943.91426	0.78000
3941.98569	0.78024
3940.05713	0.78105
3938.12856	0.78099
3936.20000	0.77937
3934.27144	0.77746
3932.34287	0.77623
3930.41431	0.77485
3928.48574	0.77369
3926.55718	0.77382
3924.62861	0.77453
3922.70005	0.77489
3920.77148	0.77578
3918.84292	0.77711
3916.91436	0.77587
3914.98579	0.77351
3913.05723	0.77401
3911.12866	0.77583
3909.20010	0.77546
3907.27153	0.77238
3905.34297	0.76854
3903.41440	0.76598
3901.48584	0.76435
3899.55728	0.76390
3897.62871	0.76638
3895.70015	0.76957
3893.77158	0.76953
3891.84302	0.76636
3889.91445	0.76646
3887.98589	0.76926
3886.05733	0.76920
3884.12876	0.76608
3882.20020	0.76395
3880.27163	0.76415
3878.34307	0.76611
3876.41450	0.76653
3874.48594	0.76502
3872.55737	0.76475
3870.62881	0.76488
3868.70025	0.76369
3866.77168	0.76364
3864.84312	0.76470
3862.91455	0.76486
3860.98599	0.76362
3859.05742	0.76143
3857.12886	0.75912
3855.20029	0.75956
3853.27173	0.76393
3851.34317	0.76521
3849.41460	0.76495
3847.48604	0.76516
3845.55747	0.76554
3843.62891	0.76563
3841.70034	0.76516
3839.77178	0.76407
3837.84321	0.76288
3835.91465	0.76217
3833.98609	0.76216
3832.05752	0.76392
3830.12896	0.76724
3828.20039	0.76946
3826.27183	0.76854
3824.34326	0.76696
3822.41470	0.76657
3820.48613	0.76342
3818.55757	0.75872
3816.62901	0.75700
3814.70044	0.75869
3812.77188	0.76095
3810.84331	0.76217
3808.91475	0.76205
3806.98618	0.76061
3805.05762	0.75913
3803.12905	0.75743
3801.20049	0.75675
3799.27193	0.75890
3797.34336	0.76074
3795.41480	0.76104
3793.48623	0.76080
3791.55767	0.76097
3789.62910	0.76103
3787.70054	0.75998
3785.77197	0.75897
3783.84341	0.75957
3781.91485	0.76077
3779.98628	0.76132
3778.05772	0.76144
3776.12915	0.76205
3774.20059	0.76337
3772.27202	0.76399
3770.34346	0.76209
3768.41489	0.75925
3766.48633	0.75737
3764.55777	0.75656
3762.62920	0.75714
3760.70064	0.75768
3758.77207	0.75645
3756.84351	0.75460
3754.91494	0.75259
3752.98638	0.74917
3751.05781	0.74758
3749.12925	0.75141
3747.20069	0.75360
3745.27212	0.75374
3743.34356	0.75597
3741.41499	0.75756
3739.48643	0.75621
3737.55786	0.75265
3735.62930	0.74780
3733.70074	0.74795
3731.77217	0.75216
3729.84361	0.75387
3727.91504	0.75392
3725.98648	0.75548
3724.05791	0.75844
3722.12935	0.75839
3720.20078	0.75608
3718.27222	0.75587
3716.34366	0.75702
3714.41509	0.75753
3712.48653	0.75641
3710.55796	0.75441
3708.62940	0.75478
3706.70083	0.75645
3704.77227	0.75753
3702.84370	0.75821
3700.91514	0.76029
3698.98658	0.76297
3697.05801	0.76470
3695.12945	0.76511
3693.20088	0.76362
3691.27232	0.76184
3689.34375	0.76367
3687.41519	0.76661
3685.48662	0.76728
3683.55806	0.76724
3681.62950	0.76755
3679.70093	0.76819
3677.77237	0.76759
3675.84380	0.76686
3673.91524	0.77077
3671.98667	0.77476
3670.05811	0.77825
3668.12954	0.78357
3666.20098	0.78831
3664.27242	0.79145
3662.34385	0.79354
3660.41529	0.79570
3658.48672	0.79780
3656.55816	0.80039
3654.62959	0.80503
3652.70103	0.81049
3650.77246	0.81595
3648.84390	0.82198
3646.91534	0.82785
3644.98677	0.83221
3643.05821	0.83534
3641.12964	0.83824
3639.20108	0.84162
3637.27251	0.84509
3635.34395	0.84869
3633.41538	0.85194
3631.48682	0.85201
3629.55826	0.85067
3627.62969	0.85643
3625.70113	0.86469
3623.77256	0.87197
3621.84400	0.87907
3619.91543	0.88425
3617.98687	0.88731
3616.05830	0.89098
3614.12974	0.89544
3612.20118	0.90115
3610.27261	0.90760
3608.34405	0.91290
3606.41548	0.91703
3604.48692	0.92136
3602.55835	0.92688
3600.62979	0.93285
3598.70123	0.93792
3596.77266	0.94293
3594.84410	0.94794
3592.91553	0.95261
3590.98697	0.95763
3589.05840	0.96377
3587.12984	0.97131
3585.20127	0.97834
3583.27271	0.98499
3581.34415	0.99201
3579.41558	0.99776
3577.48702	1.00143
3575.55845	1.00492
3573.62989	1.00947
3571.70132	1.01371
3569.77276	1.01527
3567.84419	1.01510
3565.91563	1.01990
3563.98707	1.02865
3562.05850	1.03548
3560.12994	1.03988
3558.20137	1.04416
3556.27281	1.04946
3554.34424	1.05482
3552.41568	1.05895
3550.48711	1.06226
3548.55855	1.06724
3546.62999	1.07495
3544.70142	1.08318
3542.77286	1.08967
3540.84429	1.09420
3538.91573	1.09726
3536.98716	1.10065
3535.05860	1.10466
3533.13003	1.10760
3531.20147	1.10981
3529.27291	1.11273
3527.34434	1.11694
3525.41578	1.12223
3523.48721	1.12855
3521.55865	1.13370
3519.63008	1.13700
3517.70152	1.14288
3515.77295	1.15192
3513.84439	1.15938
3511.91583	1.16355
3509.98726	1.16759
3508.05870	1.17190
3506.13013	1.17331
3504.20157	1.17504
3502.27300	1.18180
3500.34444	1.19172
3498.41587	1.20272
3496.48731	1.21222
3494.55875	1.21706
3492.63018	1.22024
3490.70162	1.22529
3488.77305	1.23035
3486.84449	1.23349
3484.91592	1.23648
3482.98736	1.24066
3481.05879	1.24435
3479.13023	1.24589
3477.20167	1.24563
3475.27310	1.24423
3473.34454	1.24266
3471.41597	1.24268
3469.48741	1.24536
3467.55884	1.24871
3465.63028	1.24982
3463.70171	1.25043
3461.77315	1.25399
3459.84459	1.25897
3457.91602	1.26262
3455.98746	1.26631
3454.05889	1.27166
3452.13033	1.27954
3450.20176	1.28848
3448.27320	1.29172
3446.34464	1.28640
3444.41607	1.28003
3442.48751	1.27935
3440.55894	1.28375
3438.63038	1.28931
3436.70181	1.29248
3434.77325	1.29208
3432.84468	1.29102
3430.91612	1.29094
3428.98756	1.29180
3427.05899	1.29335
3425.13043	1.29273
3423.20186	1.28981
3421.27330	1.28962
3419.34473	1.29398
3417.41617	1.29853
3415.48760	1.30150
3413.55904	1.30362
3411.63048	1.30306
3409.70191	1.29953
3407.77335	1.29695
3405.84478	1.30046
3403.91622	1.30784
3401.98765	1.31044
3400.05909	1.30795
3398.13052	1.30601
3396.20196	1.30639
3394.27340	1.30946
3392.34483	1.31405
3390.41627	1.31474
3388.48770	1.30851
3386.55914	1.30243
3384.63057	1.30497
3382.70201	1.31350
3380.77344	1.31922
3378.84488	1.31841
3376.91632	1.31609
3374.98775	1.31906
3373.05919	1.32453
3371.13062	1.32467
3369.20206	1.32037
3367.27349	1.31923
3365.34493	1.32193
3363.41636	1.32239
3361.48780	1.32017
3359.55924	1.31989
3357.63067	1.32149
3355.70211	1.32078
3353.77354	1.31920
3351.84498	1.32195
3349.91641	1.32697
3347.98785	1.33007
3346.05928	1.33108
3344.13072	1.33002
3342.20216	1.33015
3340.27359	1.33310
3338.34503	1.33296
3336.41646	1.33016
3334.48790	1.33095
3332.55933	1.33202
3330.63077	1.33076
3328.70220	1.33378
3326.77364	1.34232
3324.84508	1.35028
3322.91651	1.35497
3320.98795	1.35543
3319.05938	1.35138
3317.13082	1.34840
3315.20225	1.35148
3313.27369	1.35737
3311.34513	1.36098
3309.41656	1.36293
3307.48800	1.36475
3305.55943	1.36513
3303.63087	1.36495
3301.70230	1.36638
3299.77374	1.36835
3297.84517	1.36875
3295.91661	1.36768
3293.98805	1.36580
3292.05948	1.36388
3290.13092	1.36383
3288.20235	1.36369
3286.27379	1.36073
3284.34522	1.35872
3282.41666	1.36018
3280.48809	1.36222
3278.55953	1.36246
3276.63097	1.36114
3274.70240	1.35894
3272.77384	1.35641
3270.84527	1.35531
3268.91671	1.35467
3266.98814	1.35004
3265.05958	1.34172
3263.13101	1.33581
3261.20245	1.33479
3259.27389	1.33487
3257.34532	1.33294
3255.41676	1.32963
3253.48819	1.32762
3251.55963	1.32614
3249.63106	1.32232
3247.70250	1.31859
3245.77393	1.31556
3243.84537	1.31087
3241.91681	1.30692
3239.98824	1.30471
3238.05968	1.30201
3236.13111	1.29881
3234.20255	1.29625
3232.27398	1.29390
3230.34542	1.29208
3228.41685	1.29462
3226.48829	1.30034
3224.55973	1.30030
3222.63116	1.29354
3220.70260	1.28726
3218.77403	1.28292
3216.84547	1.27988
3214.91690	1.27993
3212.98834	1.28067
3211.05977	1.27828
3209.13121	1.27397
3207.20265	1.27001
3205.27408	1.26597
3203.34552	1.26253
3201.41695	1.26035
3199.48839	1.25658
3197.55982	1.25266
3195.63126	1.25345
3193.70269	1.25564
3191.77413	1.25324
3189.84557	1.24735
3187.91700	1.24246
3185.98844	1.24059
3184.05987	1.23984
3182.13131	1.23787
3180.20274	1.23541
3178.27418	1.23387
3176.34562	1.23317
3174.41705	1.23194
3172.48849	1.22937
3170.55992	1.22703
3168.63136	1.22547
3166.70279	1.22264
3164.77423	1.21773
3162.84566	1.21206
3160.91710	1.20783
3158.98854	1.20602
3157.05997	1.20527
3155.13141	1.20500
3153.20284	1.20507
3151.27428	1.20436
3149.34571	1.20271
3147.41715	1.20022
3145.48858	1.19633
3143.56002	1.19134
3141.63146	1.18736
3139.70289	1.18623
3137.77433	1.18605
3135.84576	1.18440
3133.91720	1.18347
3131.98863	1.18598
3130.06007	1.18907
3128.13150	1.18844
3126.20294	1.18573
3124.27438	1.18453
3122.34581	1.18465
3120.41725	1.18585
3118.48868	1.18819
3116.56012	1.18907
3114.63155	1.18754
3112.70299	1.18584
3110.77442	1.18552
3108.84586	1.18628
3106.91730	1.18659
3104.98873	1.18614
3103.06017	1.18613
3101.13160	1.18589
3099.20304	1.18447
3097.27447	1.18234
3095.34591	1.17977
3093.41734	1.17814
3091.48878	1.17745
3089.56022	1.17520
3087.63165	1.17193
3085.70309	1.17009
3083.77452	1.16976
3081.84596	1.16909
3079.91739	1.16707
3077.98883	1.16441
3076.06026	1.16131
3074.13170	1.15794
3072.20314	1.15380
3070.27457	1.14814
3068.34601	1.14263
3066.41744	1.13903
3064.48888	1.13712
3062.56031	1.13605
3060.63175	1.13531
3058.70318	1.13392
3056.77462	1.13078
3054.84606	1.12671
3052.91749	1.12223
3050.98893	1.11714
3049.06036	1.11264
3047.13180	1.11001
3045.20323	1.10958
3043.27467	1.11002
3041.34610	1.10872
3039.41754	1.10510
3037.48898	1.10168
3035.56041	1.10046
3033.63185	1.09951
3031.70328	1.09696
3029.77472	1.09430
3027.84615	1.09235
3025.91759	1.09088
3023.98903	1.08979
3022.06046	1.08853
3020.13190	1.08758
3018.20333	1.08641
3016.27477	1.08334
3014.34620	1.08002
3012.41764	1.07808
3010.48907	1.07654
3008.56051	1.07541
3006.63195	1.07424
3004.70338	1.07226
3002.77482	1.07079
3000.84625	1.07104
2998.91769	1.07180
2996.98912	1.07110
2995.06056	1.07035
2993.13199	1.07231
2991.20343	1.07565
2989.27487	1.07881
2987.34630	1.08302
2985.41774	1.08741
2983.48917	1.09042
2981.56061	1.09363
2979.63204	1.09794
2977.70348	1.10213
2975.77491	1.10663
2973.84635	1.11290
2971.91779	1.11999
2969.98922	1.12587
2968.06066	1.13072
2966.13209	1.13555
2964.20353	1.13957
2962.27496	1.14122
2960.34640	1.14030
2958.41783	1.13835
2956.48927	1.13612
2954.56071	1.13347
2952.63214	1.13152
2950.70358	1.12985
2948.77501	1.12710
2946.84645	1.12613
2944.91788	1.13055
2942.98932	1.13880
2941.06075	1.14666
2939.13219	1.15356
2937.20363	1.16237
2935.27506	1.17314
2933.34650	1.18335
2931.41793	1.19224
2929.48937	1.20042
2927.56080	1.20850
2925.63224	1.21630
2923.70367	1.22257
2921.77511	1.22589
2919.84655	1.22565
2917.91798	1.22155
2915.98942	1.21087
2914.06085	1.19299
2912.13229	1.17476
2910.20372	1.16113
2908.27516	1.15015
2906.34659	1.14077
2904.41803	1.13332
2902.48947	1.12623
2900.56090	1.11992
2898.63234	1.11643
2896.70377	1.11492
2894.77521	1.11280
2892.84664	1.10905
2890.91808	1.10490
2888.98952	1.10105
2887.06095	1.09734
2885.13239	1.09466
2883.20382	1.09361
2881.27526	1.09380
2879.34669	1.09450
2877.41813	1.09395
2875.48956	1.09177
2873.56100	1.09012
2871.63244	1.08929
2869.70387	1.08758
2867.77531	1.08453
2865.84674	1.08087
2863.91818	1.07834
2861.98961	1.07938
2860.06105	1.08500
2858.13248	1.09306
2856.20392	1.10077
2854.27536	1.10933
2852.34679	1.11926
2850.41823	1.12322
2848.48966	1.11168
2846.56110	1.08729
2844.63253	1.06312
2842.70397	1.04548
2840.77540	1.03208
2838.84684	1.02100
2836.91828	1.01193
2834.98971	1.00505
2833.06115	1.00061
2831.13258	0.99750
2829.20402	0.99408
2827.27545	0.98970
2825.34689	0.98486
2823.41832	0.98045
2821.48976	0.97710
2819.56120	0.97450
2817.63263	0.97164
2815.70407	0.96808
2813.77550	0.96465
2811.84694	0.96183
2809.91837	0.95881
2807.98981	0.95554
2806.06124	0.95284
2804.13268	0.95031
2802.20412	0.94675
2800.27555	0.94268
2798.34699	0.94007
2796.41842	0.93878
2794.48986	0.93676
2792.56129	0.93393
2790.63273	0.93170
2788.70416	0.92976
2786.77560	0.92735
2784.84704	0.92496
2782.91847	0.92313
2780.98991	0.92195
2779.06134	0.92110
2777.13278	0.91982
2775.20421	0.91779
2773.27565	0.91561
2771.34708	0.91409
2769.41852	0.91318
2767.48996	0.91225
2765.56139	0.91050
2763.63283	0.90812
2761.70426	0.90659
2759.77570	0.90594
2757.84713	0.90516
2755.91857	0.90409
2753.99001	0.90303
2752.06144	0.90200
2750.13288	0.90090
2748.20431	0.90019
2746.27575	0.90003
2744.34718	0.89953
2742.41862	0.89826
2740.49005	0.89687
2738.56149	0.89573
2736.63293	0.89420
2734.70436	0.89198
2732.77580	0.89015
2730.84723	0.88941
2728.91867	0.88876
2726.99010	0.88724
2725.06154	0.88557
2723.13297	0.88410
2721.20441	0.88239
2719.27585	0.88091
2717.34728	0.87988
2715.41872	0.87848
2713.49015	0.87673
2711.56159	0.87520
2709.63302	0.87371
2707.70446	0.87221
2705.77589	0.87073
2703.84733	0.86870
2701.91877	0.86647
2699.99020	0.86487
2698.06164	0.86399
2696.13307	0.86332
2694.20451	0.86184
2692.27594	0.85933
2690.34738	0.85710
2688.41881	0.85616
2686.49025	0.85550
2684.56169	0.85401
2682.63312	0.85247
2680.70456	0.85129
2678.77599	0.84983
2676.84743	0.84834
2674.91886	0.84765
2672.99030	0.84758
2671.06173	0.84683
2669.13317	0.84527
2667.20461	0.84402
2665.27604	0.84320
2663.34748	0.84212
2661.41891	0.84076
2659.49035	0.83954
2657.56178	0.83863
2655.63322	0.83772
2653.70465	0.83688
2651.77609	0.83651
2649.84753	0.83626
2647.91896	0.83547
2645.99040	0.83430
2644.06183	0.83306
2642.13327	0.83154
2640.20470	0.82999
2638.27614	0.82887
2636.34757	0.82798
2634.41901	0.82683
2632.49045	0.82521
2630.56188	0.82341
2628.63332	0.82228
2626.70475	0.82173
2624.77619	0.82089
2622.84762	0.81989
2620.91906	0.81925
2618.99049	0.81866
2617.06193	0.81784
2615.13337	0.81714
2613.20480	0.81670
2611.27624	0.81623
2609.34767	0.81531
2607.41911	0.81418
2605.49054	0.81372
2603.56198	0.81382
2601.63342	0.81352
2599.70485	0.81245
2597.77629	0.81107
2595.84772	0.81017
2593.91916	0.80971
2591.99059	0.80888
2590.06203	0.80761
2588.13346	0.80668
2586.20490	0.80616
2584.27634	0.80521
2582.34777	0.80383
2580.41921	0.80269
2578.49064	0.80168
2576.56208	0.80045
2574.63351	0.79897
2572.70495	0.79733
2570.77638	0.79573
2568.84782	0.79441
2566.91926	0.79315
2564.99069	0.79165
2563.06213	0.79011
2561.13356	0.78891
2559.20500	0.78804
2557.27643	0.78697
2555.34787	0.78569
2553.41930	0.78447
2551.49074	0.78291
2549.56218	0.78111
2547.63361	0.78016
2545.70505	0.78010
2543.77648	0.77967
2541.84792	0.77837
2539.91935	0.77719
2537.99079	0.77700
2536.06222	0.77718
2534.13366	0.77682
2532.20510	0.77585
2530.27653	0.77462
2528.34797	0.77352
2526.41940	0.77269
2524.49084	0.77183
2522.56227	0.77092
2520.63371	0.77001
2518.70514	0.76902
2516.77658	0.76802
2514.84802	0.76699
2512.91945	0.76609
2510.99089	0.76546
2509.06232	0.76433
2507.13376	0.76250
2505.20519	0.76090
2503.27663	0.75966
2501.34806	0.75843
2499.41950	0.75738
2497.49094	0.75661
2495.56237	0.75571
2493.63381	0.75438
2491.70524	0.75291
2489.77668	0.75174
2487.84811	0.75111
2485.91955	0.75085
2483.99098	0.75050
2482.06242	0.74986
2480.13386	0.74877
2478.20529	0.74739
2476.27673	0.74634
2474.34816	0.74579
2472.41960	0.74543
2470.49103	0.74539
2468.56247	0.74559
2466.63391	0.74551
2464.70534	0.74520
2462.77678	0.74455
2460.84821	0.74301
2458.91965	0.74104
2456.99108	0.73973
2455.06252	0.73906
2453.13395	0.73808
2451.20539	0.73690
2449.27683	0.73620
2447.34826	0.73548
2445.41970	0.73408
2443.49113	0.73247
2441.56257	0.73090
2439.63400	0.72908
2437.70544	0.72724
2435.77687	0.72601
2433.84831	0.72540
2431.91975	0.72464
2429.99118	0.72328
2428.06262	0.72185
2426.13405	0.72085
2424.20549	0.72026
2422.27692	0.71956
2420.34836	0.71835
2418.41979	0.71709
2416.49123	0.71645
2414.56267	0.71620
2412.63410	0.71575
2410.70554	0.71519
2408.77697	0.71487
2406.84841	0.71450
2404.91984	0.71369
2402.99128	0.71282
2401.06271	0.71226
2399.13415	0.71188
2397.20559	0.71156
2395.27702	0.71117
2393.34846	0.71053
2391.41989	0.70973
2389.49133	0.70935
2387.56276	0.70993
2385.63420	0.71086
2383.70563	0.71105
2381.77707	0.71040
2379.84851	0.70996
2377.91994	0.71082
2375.99138	0.71283
2374.06281	0.71439
2372.13425	0.71464
2370.20568	0.71499
2368.27712	0.71644
2366.34855	0.71787
2364.41999	0.71866
2362.49143	0.71870
2360.56286	0.71683
2358.63430	0.71422
2356.70573	0.71281
2354.77717	0.71171
2352.84860	0.70996
2350.92004	0.70788
2348.99147	0.70673
2347.06291	0.70710
2345.13435	0.70834
2343.20578	0.70897
2341.27722	0.70864
2339.34865	0.70843
2337.42009	0.70814
2335.49152	0.70723
2333.56296	0.70687
2331.63440	0.70715
2329.70583	0.70707
2327.77727	0.70644
2325.84870	0.70550
2323.92014	0.70436
2321.99157	0.70340
2320.06301	0.70286
2318.13444	0.70208
2316.20588	0.70046
2314.27732	0.69848
2312.34875	0.69711
2310.42019	0.69633
2308.49162	0.69544
2306.56306	0.69445
2304.63449	0.69332
2302.70593	0.69205
2300.77736	0.69124
2298.84880	0.69111
2296.92024	0.69099
2294.99167	0.69024
2293.06311	0.68901
2291.13454	0.68797
2289.20598	0.68757
2287.27741	0.68730
2285.34885	0.68657
2283.42028	0.68569
2281.49172	0.68497
2279.56316	0.68439
2277.63459	0.68399
2275.70603	0.68387
2273.77746	0.68386
2271.84890	0.68369
2269.92033	0.68336
2267.99177	0.68300
2266.06320	0.68256
2264.13464	0.68217
2262.20608	0.68184
2260.27751	0.68117
2258.34895	0.68035
2256.42038	0.67986
2254.49182	0.67968
2252.56325	0.67963
2250.63469	0.67926
2248.70612	0.67859
2246.77756	0.67820
2244.84900	0.67822
2242.92043	0.67827
2240.99187	0.67818
2239.06330	0.67787
2237.13474	0.67730
2235.20617	0.67691
2233.27761	0.67693
2231.34904	0.67698
2229.42048	0.67681
2227.49192	0.67683
2225.56335	0.67743
2223.63479	0.67824
2221.70622	0.67878
2219.77766	0.67887
2217.84909	0.67861
2215.92053	0.67851
2213.99196	0.67889
2212.06340	0.67942
2210.13484	0.67976
2208.20627	0.68003
2206.27771	0.68030
2204.34914	0.68062
2202.42058	0.68101
2200.49201	0.68124
2198.56345	0.68126
2196.63488	0.68124
2194.70632	0.68116
2192.77776	0.68106
2190.84919	0.68098
2188.92063	0.68076
2186.99206	0.68030
2185.06350	0.67983
2183.13493	0.67958
2181.20637	0.67941
2179.27781	0.67922
2177.34924	0.67922
2175.42068	0.67943
2173.49211	0.67943
2171.56355	0.67898
2169.63498	0.67838
2167.70642	0.67788
2165.77785	0.67755
2163.84929	0.67755
2161.92073	0.67756
2159.99216	0.67725
2158.06360	0.67702
2156.13503	0.67720
2154.20647	0.67757
2152.27790	0.67795
2150.34934	0.67834
2148.42077	0.67862
2146.49221	0.67866
2144.56365	0.67874
2142.63508	0.67902
2140.70652	0.67920
2138.77795	0.67887
2136.84939	0.67820
2134.92082	0.67775
2132.99226	0.67759
2131.06369	0.67734
2129.13513	0.67675
2127.20657	0.67587
2125.27800	0.67488
2123.34944	0.67367
2121.42087	0.67211
2119.49231	0.67046
2117.56374	0.66913
2115.63518	0.66823
2113.70661	0.66739
2111.77805	0.66628
2109.84949	0.66504
2107.92092	0.66396
2105.99236	0.66313
2104.06379	0.66233
2102.13523	0.66117
2100.20666	0.65992
2098.27810	0.65918
2096.34953	0.65886
2094.42097	0.65851
2092.49241	0.65797
2090.56384	0.65742
2088.63528	0.65703
2086.70671	0.65687
2084.77815	0.65675
2082.84958	0.65650
2080.92102	0.65624
2078.99245	0.65607
2077.06389	0.65572
2075.13533	0.65498
2073.20676	0.65403
2071.27820	0.65322
2069.34963	0.65268
2067.42107	0.65206
2065.49250	0.65102
2063.56394	0.64999
2061.63537	0.64927
2059.70681	0.64839
2057.77825	0.64717
2055.84968	0.64594
2053.92112	0.64503
2051.99255	0.64445
2050.06399	0.64369
2048.13542	0.64242
2046.20686	0.64103
2044.27830	0.64009
2042.34973	0.63957
2040.42117	0.63914
2038.49260	0.63867
2036.56404	0.63806
2034.63547	0.63742
2032.70691	0.63703
2030.77834	0.63674
2028.84978	0.63639
2026.92122	0.63612
2024.99265	0.63574
2023.06409	0.63500
2021.13552	0.63405
2019.20696	0.63296
2017.27839	0.63177
2015.34983	0.63088
2013.42126	0.63025
2011.49270	0.62943
2009.56414	0.62855
2007.63557	0.62776
2005.70701	0.62651
2003.77844	0.62468
2001.84988	0.62297
1999.92131	0.62193
1997.99275	0.62130
1996.06418	0.62072
1994.13562	0.62002
1992.20706	0.61893
1990.27849	0.61746
1988.34993	0.61610
1986.42136	0.61520
1984.49280	0.61462
1982.56423	0.61395
1980.63567	0.61313
1978.70710	0.61219
1976.77854	0.61111
1974.84998	0.61021
1972.92141	0.60958
1970.99285	0.60877
1969.06428	0.60765
1967.13572	0.60669
1965.20715	0.60621
1963.27859	0.60574
1961.35002	0.60485
1959.42146	0.60385
1957.49290	0.60310
1955.56433	0.60238
1953.63577	0.60130
1951.70720	0.59989
1949.77864	0.59860
1947.85007	0.59767
1945.92151	0.59668
1943.99294	0.59532
1942.06438	0.59388
1940.13582	0.59266
1938.20725	0.59142
1936.27869	0.58992
1934.35012	0.58829
1932.42156	0.58693
1930.49299	0.58580
1928.56443	0.58452
1926.63586	0.58322
1924.70730	0.58205
1922.77874	0.58074
1920.85017	0.57973
1918.92161	0.57921
1916.99304	0.57852
1915.06448	0.57772
1913.13591	0.57721
1911.20735	0.57691
1909.27878	0.57669
1907.35022	0.57650
1905.42166	0.57628
1903.49309	0.57612
1901.56453	0.57611
1899.63596	0.57610
1897.70740	0.57605
1895.77883	0.57603
1893.85027	0.57606
1891.92171	0.57625
1889.99314	0.57642
1888.06458	0.57624
1886.13601	0.57585
1884.20745	0.57548
1882.27888	0.57522
1880.35032	0.57501
1878.42175	0.57473
1876.49319	0.57434
1874.56463	0.57390
1872.63606	0.57356
1870.70750	0.57333
1868.77893	0.57294
1866.85037	0.57219
1864.92180	0.57138
1862.99324	0.57066
1861.06467	0.57013
1859.13611	0.56977
1857.20755	0.56935
1855.27898	0.56899
1853.35042	0.56876
1851.42185	0.56873
1849.49329	0.56898
1847.56472	0.56905
1845.63616	0.56859
1843.70759	0.56808
1841.77903	0.56831
1839.85047	0.56887
1837.92190	0.56925
1835.99334	0.56944
1834.06477	0.56973
1832.13621	0.57028
1830.20764	0.57076
1828.27908	0.57100
1826.35051	0.57135
1824.42195	0.57189
1822.49339	0.57232
1820.56482	0.57257
1818.63626	0.57275
1816.70769	0.57278
1814.77913	0.57268
1812.85056	0.57256
1810.92200	0.57238
1808.99343	0.57195
1807.06487	0.57133
1805.13631	0.57077
1803.20774	0.57026
1801.27918	0.56978
1799.35061	0.56934
1797.42205	0.56900
1795.49348	0.56884
1793.56492	0.56871
1791.63635	0.56852
1789.70779	0.56825
1787.77923	0.56832
1785.85066	0.56888
1783.92210	0.56946
1781.99353	0.56976
1780.06497	0.57029
1778.13640	0.57127
1776.20784	0.57231
1774.27927	0.57364
1772.35071	0.57550
1770.42215	0.57724
1768.49358	0.57887
1766.56502	0.58060
1764.63645	0.58236
1762.70789	0.58433
1760.77932	0.58682
1758.85076	0.58972
1756.92220	0.59336
1754.99363	0.59723
1753.06507	0.60131
1751.13650	0.60734
1749.20794	0.61534
1747.27937	0.62266
1745.35081	0.62901
1743.42224	0.63494
1741.49368	0.64007
1739.56512	0.64396
1737.63655	0.64646
1735.70799	0.64777
1733.77942	0.64828
1731.85086	0.64897
1729.92229	0.65079
1727.99373	0.65354
1726.06516	0.65677
1724.13660	0.66098
1722.20804	0.66592
1720.27947	0.67114
1718.35091	0.67922
1716.42234	0.69264
1714.49378	0.70490
1712.56521	0.71530
1710.63665	0.72679
1708.70808	0.74022
1706.77952	0.75927
1704.85096	0.78444
1702.92239	0.80834
1700.99383	0.84127
1699.06526	0.89053
1697.13670	0.93519
1695.20813	0.97895
1693.27957	1.01330
1691.35100	1.04140
1689.42244	1.07356
1687.49388	1.10207
1685.56531	1.13014
1683.63675	1.17383
1681.70818	1.20710
1679.77962	1.22652
1677.85105	1.24433
1675.92249	1.26627
1673.99392	1.29010
1672.06536	1.30570
1670.13680	1.31839
1668.20823	1.33479
1666.27967	1.34706
1664.35110	1.35808
1662.42254	1.37136
1660.49397	1.38044
1658.56541	1.38502
1656.63684	1.38854
1654.70828	1.39068
1652.77972	1.38635
1650.85115	1.38258
1648.92259	1.38211
1646.99402	1.38283
1645.06546	1.38346
1643.13689	1.38201
1641.20833	1.37966
1639.27976	1.37676
1637.35120	1.37487
1635.42264	1.37425
1633.49407	1.37109
1631.56551	1.36635
1629.63694	1.36020
1627.70838	1.35268
1625.77981	1.34437
1623.85125	1.33315
1621.92269	1.31865
1619.99412	1.30587
1618.06556	1.29043
1616.13699	1.26655
1614.20843	1.24730
1612.27986	1.23385
1610.35130	1.22004
1608.42273	1.20534
1606.49417	1.19258
1604.56561	1.18293
1602.63704	1.17519
1600.70848	1.16979
1598.77991	1.16736
1596.85135	1.16688
1594.92278	1.16713
1592.99422	1.16767
1591.06565	1.16871
1589.13709	1.17165
1587.20853	1.17764
1585.27996	1.18570
1583.35140	1.19474
1581.42283	1.20427
1579.49427	1.21387
1577.56570	1.22628
1575.63714	1.24335
1573.70857	1.25552
1571.78001	1.26442
1569.85145	1.27714
1567.92288	1.28975
1565.99432	1.29821
1564.06575	1.30623
1562.13719	1.31325
1560.20862	1.32150
1558.28006	1.33591
1556.35149	1.34224
1554.42293	1.34531
1552.49437	1.34874
1550.56580	1.35126
1548.63724	1.35194
1546.70867	1.35066
1544.78011	1.34772
1542.85154	1.34480
1540.92298	1.34347
1538.99441	1.34081
1537.06585	1.33721
1535.13729	1.33155
1533.20872	1.32484
1531.28016	1.32198
1529.35159	1.32063
1527.42303	1.31718
1525.49446	1.31332
1523.56590	1.31125
1521.63733	1.30670
1519.70877	1.30001
1517.78021	1.29352
1515.85164	1.28488
1513.92308	1.27404
1511.99451	1.26212
1510.06595	1.25125
1508.13738	1.23526
1506.20882	1.20287
1504.28025	1.18305
1502.35169	1.17136
1500.42313	1.15909
1498.49456	1.14336
1496.56600	1.12280
1494.63743	1.10505
1492.70887	1.09244
1490.78030	1.07884
1488.85174	1.06205
1486.92317	1.04986
1484.99461	1.04259
1483.06605	1.03708
1481.13748	1.03340
1479.20892	1.03322
1477.28035	1.03659
1475.35179	1.04343
1473.42322	1.05702
1471.49466	1.07415
1469.56610	1.08427
1467.63753	1.09049
1465.70897	1.09822
1463.78040	1.10756
1461.85184	1.11342
1459.92327	1.11636
1457.99471	1.12116
1456.06614	1.12889
1454.13758	1.13290
1452.20902	1.13441
1450.28045	1.13519
1448.35189	1.13599
1446.42332	1.13647
1444.49476	1.13555
1442.56619	1.13329
1440.63763	1.13083
1438.70906	1.12796
1436.78050	1.12230
1434.85194	1.11538
1432.92337	1.11012
1430.99481	1.10465
1429.06624	1.09914
1427.13768	1.09604
1425.20911	1.09518
1423.28055	1.09549
1421.35198	1.09659
1419.42342	1.09882
1417.49486	1.10045
1415.56629	1.10012
1413.63773	1.09933
1411.70916	1.09810
1409.78060	1.09632
1407.85203	1.09507
1405.92347	1.09466
1403.99490	1.09446
1402.06634	1.09448
1400.13778	1.09452
1398.20921	1.09418
1396.28065	1.09427
1394.35208	1.09536
1392.42352	1.09754
1390.49495	1.10148
1388.56639	1.10838
1386.63782	1.11877
1384.70926	1.13026
1382.78070	1.14080
1380.85213	1.14879
1378.92357	1.15245
1376.99500	1.15139
1375.06644	1.14479
1373.13787	1.13363
1371.20931	1.12170
1369.28074	1.10797
1367.35218	1.09184
1365.42362	1.07607
1363.49505	1.06026
1361.56649	1.04541
1359.63792	1.03481
1357.70936	1.02711
1355.78079	1.02052
1353.85223	1.01507
1351.92366	1.01077
1349.99510	1.00682
1348.06654	1.00278
1346.13797	0.99893
1344.20941	0.99600
1342.28084	0.99440
1340.35228	0.99382
1338.42371	0.99436
1336.49515	0.99681
1334.56659	1.00128
1332.63802	1.00744
1330.70946	1.01466
1328.78089	1.02145
1326.85233	1.02687
1324.92376	1.03102
1322.99520	1.03440
1321.06663	1.03797
1319.13807	1.04197
1317.20951	1.04559
1315.28094	1.04856
1313.35238	1.05143
1311.42381	1.05451
1309.49525	1.05730
1307.56668	1.05899
1305.63812	1.05942
1303.70955	1.05912
1301.78099	1.05817
1299.85243	1.05624
1297.92386	1.05337
1295.99530	1.05013
1294.06673	1.04774
1292.13817	1.04681
1290.20960	1.04685
1288.28104	1.04741
1286.35247	1.04810
1284.42391	1.04829
1282.49535	1.04779
1280.56678	1.04715
1278.63822	1.04712
1276.70965	1.04768
1274.78109	1.04874
1272.85252	1.05093
1270.92396	1.05433
1268.99539	1.05859
1267.06683	1.06335
1265.13827	1.06744
1263.20970	1.06984
1261.28114	1.07045
1259.35257	1.06994
1257.42401	1.06940
1255.49544	1.06924
1253.56688	1.06930
1251.63831	1.06941
1249.70975	1.06943
1247.78119	1.06937
1245.85262	1.06935
1243.92406	1.06938
1241.99549	1.06897
1240.06693	1.06741
1238.13836	1.06514
1236.20980	1.06248
1234.28123	1.05896
1232.35267	1.05431
1230.42411	1.04835
1228.49554	1.04114
1226.56698	1.03279
1224.63841	1.02337
1222.70985	1.01334
1220.78128	1.00318
1218.85272	0.99335
1216.92415	0.98446
1214.99559	0.97727
1213.06703	0.97261
1211.13846	0.97048
1209.20990	0.96969
1207.28133	0.96849
1205.35277	0.96540
1203.42420	0.95976
1201.49564	0.95200
1199.56708	0.94283
1197.63851	0.93301
1195.70995	0.92340
1193.78138	0.91465
1191.85282	0.90748
1189.92425	0.90229
1187.99569	0.89897
1186.06712	0.89729
1184.13856	0.89743
1182.21000	0.90000
1180.28143	0.90518
1178.35287	0.91252
1176.42430	0.92164
1174.49574	0.93238
1172.56717	0.94461
1170.63861	0.95820
1168.71004	0.97331
1166.78148	0.99001
1164.85292	1.00761
1162.92435	1.02459
1160.99579	1.03879
1159.06722	1.04848
1157.13866	1.05299
1155.21009	1.05246
1153.28153	1.04769
1151.35296	1.03961
1149.42440	1.02920
1147.49584	1.01805
1145.56727	1.00827
1143.63871	1.00134
1141.71014	0.99738
1139.78158	0.99603
1137.85301	0.99729
1135.92445	1.00157
1133.99588	1.00908
1132.06732	1.01879
1130.13876	1.03033
1128.21019	1.04415
1126.28163	1.05854
1124.35306	1.07151
1122.42450	1.08269
1120.49593	1.09193
1118.56737	1.09937
1116.63880	1.10452
1114.71024	1.10637
1112.78168	1.10538
1110.85311	1.10325
1108.92455	1.10150
1106.99598	1.10077
1105.06742	1.10053
1103.13885	1.09910
1101.21029	1.09608
1099.28172	1.09358
1097.35316	1.09368
1095.42460	1.09782
1093.49603	1.10629
1091.56747	1.11787
1089.63890	1.13112
1087.71034	1.14400
1085.78177	1.15499
1083.85321	1.16460
1081.92464	1.17346
1079.99608	1.18035
1078.06752	1.18382
1076.13895	1.18441
1074.21039	1.18225
1072.28182	1.17687
1070.35326	1.16923
1068.42469	1.16090
1066.49613	1.15343
1064.56756	1.14687
1062.63900	1.14003
1060.71044	1.13362
1058.78187	1.12868
1056.85331	1.12441
1054.92474	1.12050
1052.99618	1.11752
1051.06761	1.11534
1049.13905	1.11382
1047.21049	1.11322
1045.28192	1.11409
1043.35336	1.11733
1041.42479	1.12309
1039.49623	1.13010
1037.56766	1.13618
1035.63910	1.13983
1033.71053	1.14072
1031.78197	1.13896
1029.85341	1.13602
1027.92484	1.13261
1025.99628	1.12718
1024.06771	1.11948
1022.13915	1.11108
1020.21058	1.10308
1018.28202	1.09557
1016.35345	1.08777
1014.42489	1.07831
1012.49633	1.06614
1010.56776	1.05116
1008.63920	1.03357
1006.71063	1.01381
1004.78207	0.99300
1002.85350	0.97286
1000.92494	0.95486
998.99637	0.93918
997.06781	0.92557
995.13925	0.91409
993.21068	0.90390
991.28212	0.89348
989.35355	0.88237
987.42499	0.87044
985.49642	0.85745
983.56786	0.84429
981.63929	0.83243
979.71073	0.82246
977.78217	0.81381
975.85360	0.80542
973.92504	0.79645
971.99647	0.78677
970.06791	0.77689
968.13934	0.76755
966.21078	0.75978
964.28221	0.75483
962.35365	0.75407
960.42509	0.75870
958.49652	0.76831
956.56796	0.77926
954.63939	0.78651
952.71083	0.78749
950.78226	0.78305
948.85370	0.77607
946.92513	0.76952
944.99657	0.76473
943.06801	0.76154
941.13944	0.75920
939.21088	0.75760
937.28231	0.75708
935.35375	0.75718
933.42518	0.75710
931.49662	0.75704
929.56805	0.75797
927.63949	0.76015
925.71093	0.76296
923.78236	0.76587
921.85380	0.76858
919.92523	0.77081
917.99667	0.77226
916.06810	0.77288
914.13954	0.77260
912.21098	0.77216
910.28241	0.77322
908.35385	0.77597
906.42528	0.77915
904.49672	0.78221
902.56815	0.78522
900.63959	0.78785
898.71102	0.78937
896.78246	0.78924
894.85390	0.78752
892.92533	0.78445
890.99677	0.78040
889.06820	0.77584
887.13964	0.77117
885.21107	0.76673
883.28251	0.76259
881.35394	0.75905
879.42538	0.75676
877.49682	0.75556
875.56825	0.75495
873.63969	0.75457
871.71112	0.75417
869.78256	0.75442
867.85399	0.75587
865.92543	0.75794
863.99686	0.76045
862.06830	0.76355
860.13974	0.76693
858.21117	0.77109
856.28261	0.77671
854.35404	0.78298
852.42548	0.78883
850.49691	0.79409
848.56835	0.79909
846.63978	0.80411
844.71122	0.80937
842.78266	0.81505
840.85409	0.82063
838.92553	0.82539
836.99696	0.82938
835.06840	0.83336
833.13983	0.83790
831.21127	0.84292
829.28270	0.84777
827.35414	0.85185
825.42558	0.85556
823.49701	0.85927
821.56845	0.86265
819.63988	0.86613
817.71132	0.87026
815.78275	0.87452
813.85419	0.87837
811.92562	0.88181
809.99706	0.88490
808.06850	0.88730
806.13993	0.88945
804.21137	0.89239
802.28280	0.89562
800.35424	0.89780
798.42567	0.89892
796.49711	0.89988
794.56854	0.90139
792.63998	0.90277
790.71142	0.90284
788.78285	0.90183
786.85429	0.90060
784.92572	0.89979
782.99716	0.89951
781.06859	0.89907
779.14003	0.89818
777.21147	0.89727
775.28290	0.89637
773.35434	0.89543
771.42577	0.89450
769.49721	0.89338
767.56864	0.89213
765.64008	0.89055
763.71151	0.88857
761.78295	0.88730
759.85439	0.88730
757.92582	0.88801
755.99726	0.88903
754.06869	0.89005
752.14013	0.89175
750.21156	0.89521
748.28300	0.89954
746.35443	0.90334
744.42587	0.90711
742.49731	0.91122
740.56874	0.91535
738.64018	0.91991
736.71161	0.92509
734.78305	0.93039
732.85448	0.93642
730.92592	0.94375
728.99735	0.95067
727.06879	0.95558
725.14023	0.95971
723.21166	0.96449
721.28310	0.96971
719.35453	0.97435
717.42597	0.97783
715.49740	0.98080
713.56884	0.98399
711.64027	0.98656
709.71171	0.98736
707.78315	0.98746
705.85458	0.98840
703.92602	0.98935
701.99745	0.98914
700.06889	0.98777
698.14032	0.98553
696.21176	0.98385
694.28319	0.98314
692.35463	0.98230
690.42607	0.98129
688.49750	0.98028
686.56894	0.98024
684.64037	0.98221
682.71181	0.98457
680.78324	0.98588
678.85468	0.98665
676.92611	0.98770
674.99755	0.99007
673.06899	0.99401
671.14042	0.99829
669.21186	1.00213
667.28329	1.00298
665.35473	1.00051
663.42616	0.99818
661.49760	0.99631
659.56903	0.99240
657.64047	0.98493
655.71191	0.97606
653.78334	0.96795
651.85478	0.96031
649.92621	0.95111
647.99765	0.94008
646.06908	0.92966
644.14052	0.92066
642.21195	0.91269
640.28339	0.90677
638.35483	0.90309
636.42626	0.89852
634.49770	0.89142
632.56913	0.88523
630.64057	0.88278
628.71200	0.88321
626.78344	0.88529
624.85488	0.88845
622.92631	0.89143
620.99775	0.89419
619.06918	0.89937
617.14062	0.90851
615.21205	0.91884
613.28349	0.92780
611.35492	0.93627
609.42636	0.94538
607.49780	0.95479
605.56923	0.96324
603.64067	0.97121
601.71210	0.98039
599.78354	0.98965
