3997.91406	0.55243
3995.98550	0.55302
3994.05693	0.55328
3992.12837	0.55328
3990.19980	0.55300
3988.27124	0.55294
3986.34268	0.55295
3984.41411	0.55263
3982.48555	0.55254
3980.55698	0.55282
3978.62842	0.55263
3976.69985	0.55182
3974.77129	0.55113
3972.84272	0.55068
3970.91416	0.55035
3968.98560	0.55062
3967.05703	0.55123
3965.12847	0.55128
3963.19990	0.55039
3961.27134	0.54879
3959.34277	0.54772
3957.41421	0.54795
3955.48564	0.54841
3953.55708	0.54836
3951.62852	0.54860
3949.69995	0.54914
3947.77139	0.54829
3945.84282	0.54588
3943.91426	0.54457
3941.98569	0.54563
3940.05713	0.54661
3938.12856	0.54652
3936.20000	0.54605
3934.27144	0.54528
3932.34287	0.54450
3930.41431	0.54420
3928.48574	0.54464
3926.55718	0.54517
3924.62861	0.54463
3922.70005	0.54323
3920.77148	0.54210
3918.84292	0.54191
3916.91436	0.54189
3914.98579	0.54084
3913.05723	0.54003
3911.12866	0.54001
3909.20010	0.53974
3907.27153	0.53899
3905.34297	0.53823
3903.41440	0.53757
3901.48584	0.53748
3899.55728	0.53811
3897.62871	0.53826
3895.70015	0.53775
3893.77158	0.53675
3891.84302	0.53526
3889.91445	0.53422
3887.98589	0.53356
3886.05733	0.53352
3884.12876	0.53404
3882.20020	0.53358
3880.27163	0.53332
3878.34307	0.53360
3876.41450	0.53306
3874.48594	0.53230
3872.55737	0.53202
3870.62881	0.53216
3868.70025	0.53256
3866.77168	0.53204
3864.84312	0.53107
3862.91455	0.53119
3860.98599	0.53149
3859.05742	0.53072
3857.12886	0.52929
3855.20029	0.52852
3853.27173	0.53066
3851.34317	0.53262
3849.41460	0.53231
3847.48604	0.53134
3845.55747	0.53044
3843.62891	0.52938
3841.70034	0.52769
3839.77178	0.52715
3837.84321	0.52935
3835.91465	0.53033
3833.98609	0.52911
3832.05752	0.52794
3830.12896	0.52732
3828.20039	0.52704
3826.27183	0.52729
3824.34326	0.52741
3822.41470	0.52714
3820.48613	0.52671
3818.55757	0.52509
3816.62901	0.52383
3814.70044	0.52525
3812.77188	0.52655
3810.84331	0.52558
3808.91475	0.52291
3806.98618	0.52124
3805.05762	0.52197
3803.12905	0.52295
3801.20049	0.52465
3799.27193	0.52656
3797.34336	0.52707
3795.41480	0.52658
3793.48623	0.52592
3791.55767	0.52577
3789.62910	0.52598
3787.70054	0.52557
3785.77197	0.52438
3783.84341	0.52348
3781.91485	0.52304
3779.98628	0.52251
3778.05772	0.52217
3776.12915	0.52174
3774.20059	0.52116
3772.27202	0.52127
3770.34346	0.52128
3768.41489	0.51953
3766.48633	0.51813
3764.55777	0.51896
3762.62920	0.52043
3760.70064	0.52137
3758.77207	0.52176
3756.84351	0.52063
3754.91494	0.51755
3752.98638	0.51323
3751.05781	0.51145
3749.12925	0.51430
3747.20069	0.51637
3745.27212	0.51717
3743.34356	0.51771
3741.41499	0.51794
3739.48643	0.51692
3737.55786	0.51394
3735.62930	0.51174
3733.70074	0.51456
3731.77217	0.51773
3729.84361	0.51825
3727.91504	0.51750
3725.98648	0.51693
3724.05791	0.51729
3722.12935	0.51796
3720.20078	0.51811
3718.27222	0.51798
3716.34366	0.51734
3714.41509	0.51562
3712.48653	0.51348
3710.55796	0.51325
3708.62940	0.51431
3706.70083	0.51470
3704.77227	0.51485
3702.84370	0.51603
3700.91514	0.51803
3698.98658	0.51902
3697.05801	0.51896
3695.12945	0.51787
3693.20088	0.51619
3691.27232	0.51649
3689.34375	0.51992
3687.41519	0.52151
3685.48662	0.52097
3683.55806	0.52018
3681.62950	0.51912
3679.70093	0.51824
3677.77237	0.51854
3675.84380	0.52182
3673.91524	0.52541
3671.98667	0.52569
3670.05811	0.52587
3668.12954	0.52818
3666.20098	0.53079
3664.27242	0.53326
3662.34385	0.53540
3660.41529	0.53665
3658.48672	0.53740
3656.55816	0.53967
3654.62959	0.54210
3652.70103	0.54128
3650.77246	0.53900
3648.84390	0.54413
3646.91534	0.55348
3644.98677	0.55675
3643.05821	0.55746
3641.12964	0.55949
3639.20108	0.56242
3637.27251	0.56437
3635.34395	0.56604
3633.41538	0.56798
3631.48682	0.56920
3629.55826	0.57134
3627.62969	0.57702
3625.70113	0.58146
3623.77256	0.58313
3621.84400	0.58354
3619.91543	0.58628
3617.98687	0.59134
3616.05830	0.59384
3614.12974	0.59591
3612.20118	0.59955
3610.27261	0.60285
3608.34405	0.60574
3606.41548	0.60857
3604.48692	0.61118
3602.55835	0.61435
3600.62979	0.61812
3598.70123	0.62124
3596.77266	0.62403
3594.84410	0.62828
3592.91553	0.63281
3590.98697	0.63539
3589.05840	0.63780
3587.12984	0.64316
3585.20127	0.64903
3583.27271	0.65258
3581.34415	0.65493
3579.41558	0.65743
3577.48702	0.66031
3575.55845	0.66295
3573.62989	0.66544
3571.70132	0.66816
3569.77276	0.67059
3567.84419	0.67364
3565.91563	0.67833
3563.98707	0.68145
3562.05850	0.68354
3560.12994	0.68718
3558.20137	0.69230
3556.27281	0.69707
3554.34424	0.70171
3552.41568	0.70642
3550.48711	0.70873
3548.55855	0.70967
3546.62999	0.71279
3544.70142	0.71680
3542.77286	0.71910
3540.84429	0.72169
3538.91573	0.72568
3536.98716	0.73008
3535.05860	0.73400
3533.13003	0.73724
3531.20147	0.74051
3529.27291	0.74425
3527.34434	0.74846
3525.41578	0.75333
3523.48721	0.75811
3521.55865	0.76153
3519.63008	0.76388
3517.70152	0.76676
3515.77295	0.77128
3513.84439	0.77718
3511.91583	0.78265
3509.98726	0.78645
3508.05870	0.78965
3506.13013	0.79276
3504.20157	0.79576
3502.27300	0.79976
3500.34444	0.80524
3498.41587	0.81093
3496.48731	0.81557
3494.55875	0.81912
3492.63018	0.82226
3490.70162	0.82565
3488.77305	0.82949
3486.84449	0.83264
3484.91592	0.83449
3482.98736	0.83707
3481.05879	0.84051
3479.13023	0.84208
3477.20167	0.84226
3475.27310	0.84241
3473.34454	0.84307
3471.41597	0.84592
3469.48741	0.85073
3467.55884	0.85429
3465.63028	0.85506
3463.70171	0.85597
3461.77315	0.85905
3459.84459	0.86208
3457.91602	0.86348
3455.98746	0.86427
3454.05889	0.86515
3452.13033	0.86620
3450.20176	0.86799
3448.27320	0.87069
3446.34464	0.87290
3444.41607	0.87436
3442.48751	0.87648
3440.55894	0.87874
3438.63038	0.87956
3436.70181	0.87912
3434.77325	0.87877
3432.84468	0.87960
3430.91612	0.88123
3428.98756	0.88223
3427.05899	0.88190
3425.13043	0.88057
3423.20186	0.87949
3421.27330	0.88051
3419.34473	0.88333
3417.41617	0.88500
3415.48760	0.88387
3413.55904	0.88159
3411.63048	0.88168
3409.70191	0.88460
3407.77335	0.88637
3405.84478	0.88503
3403.91622	0.88409
3401.98765	0.88539
3400.05909	0.88679
3398.13052	0.88883
3396.20196	0.89215
3394.27340	0.89439
3392.34483	0.89530
3390.41627	0.89574
3388.48770	0.89618
3386.55914	0.89722
3384.63057	0.89768
3382.70201	0.89712
3380.77344	0.89708
3378.84488	0.89744
3376.91632	0.89737
3374.98775	0.89667
3373.05919	0.89555
3371.13062	0.89571
3369.20206	0.89740
3367.27349	0.89950
3365.34493	0.90205
3363.41636	0.90446
3361.48780	0.90607
3359.55924	0.90683
3357.63067	0.90689
3355.70211	0.90765
3353.77354	0.90967
3351.84498	0.91116
3349.91641	0.91154
3347.98785	0.91255
3346.05928	0.91439
3344.13072	0.91490
3342.20216	0.91412
3340.27359	0.91463
3338.34503	0.91693
3336.41646	0.91918
3334.48790	0.92019
3332.55933	0.92078
3330.63077	0.92209
3328.70220	0.92321
3326.77364	0.92401
3324.84508	0.92540
3322.91651	0.92641
3320.98795	0.92684
3319.05938	0.92798
3317.13082	0.93046
3315.20225	0.93444
3313.27369	0.93823
3311.34513	0.93981
3309.41656	0.93999
3307.48800	0.94006
3305.55943	0.94015
3303.63087	0.94079
3301.70230	0.94292
3299.77374	0.94605
3297.84517	0.94810
3295.91661	0.94848
3293.98805	0.94934
3292.05948	0.95176
3290.13092	0.95388
3288.20235	0.95427
3286.27379	0.95367
3284.34522	0.95244
3282.41666	0.95079
3280.48809	0.95010
3278.55953	0.95106
3276.63097	0.95263
3274.70240	0.95330
3272.77384	0.95224
3270.84527	0.94952
3268.91671	0.94664
3266.98814	0.94518
3265.05958	0.94484
3263.13101	0.94426
3261.20245	0.94245
3259.27389	0.93977
3257.34532	0.93705
3255.41676	0.93402
3253.48819	0.93103
3251.55963	0.92860
3249.63106	0.92637
3247.70250	0.92469
3245.77393	0.92306
3243.84537	0.91999
3241.91681	0.91630
3239.98824	0.91307
3238.05968	0.90973
3236.13111	0.90651
3234.20255	0.90455
3232.27398	0.90421
3230.34542	0.90430
3228.41685	0.90271
3226.48829	0.89963
3224.55973	0.89721
3222.63116	0.89546
3220.70260	0.89301
3218.77403	0.88998
3216.84547	0.88752
3214.91690	0.88636
3212.98834	0.88589
3211.05977	0.88483
3209.13121	0.88297
3207.20265	0.88072
3205.27408	0.87827
3203.34552	0.87621
3201.41695	0.87451
3199.48839	0.87207
3197.55982	0.86940
3195.63126	0.86804
3193.70269	0.86718
3191.77413	0.86546
3189.84557	0.86331
3187.91700	0.86095
3185.98844	0.85799
3184.05987	0.85522
3182.13131	0.85343
3180.20274	0.85205
3178.27418	0.85054
3176.34562	0.84892
3174.41705	0.84755
3172.48849	0.84624
3170.55992	0.84418
3168.63136	0.84141
3166.70279	0.83889
3164.77423	0.83762
3162.84566	0.83763
3160.91710	0.83769
3158.98854	0.83694
3157.05997	0.83511
3155.13141	0.83274
3153.20284	0.83077
3151.27428	0.82873
3149.34571	0.82599
3147.41715	0.82403
3145.48858	0.82428
3143.56002	0.82511
3141.63146	0.82402
3139.70289	0.82118
3137.77433	0.81800
3135.84576	0.81553
3133.91720	0.81487
3131.98863	0.81531
3130.06007	0.81531
3128.13150	0.81458
3126.20294	0.81349
3124.27438	0.81317
3122.34581	0.81357
3120.41725	0.81332
3118.48868	0.81307
3116.56012	0.81343
3114.63155	0.81340
3112.70299	0.81309
3110.77442	0.81344
3108.84586	0.81412
3106.91730	0.81453
3104.98873	0.81512
3103.06017	0.81573
3101.13160	0.81506
3099.20304	0.81327
3097.27447	0.81204
3095.34591	0.81163
3093.41734	0.81134
3091.48878	0.81119
3089.56022	0.81028
3087.63165	0.80762
3085.70309	0.80497
3083.77452	0.80389
3081.84596	0.80304
3079.91739	0.80101
3077.98883	0.79852
3076.06026	0.79667
3074.13170	0.79520
3072.20314	0.79344
3070.27457	0.79131
3068.34601	0.78898
3066.41744	0.78693
3064.48888	0.78570
3062.56031	0.78489
3060.63175	0.78391
3058.70318	0.78231
3056.77462	0.77997
3054.84606	0.77744
3052.91749	0.77495
3050.98893	0.77276
3049.06036	0.77136
3047.13180	0.77028
3045.20323	0.76875
3043.27467	0.76652
3041.34610	0.76425
3039.41754	0.76264
3037.48898	0.76122
3035.56041	0.75948
3033.63185	0.75772
3031.70328	0.75575
3029.77472	0.75341
3027.84615	0.75108
3025.91759	0.74859
3023.98903	0.74607
3022.06046	0.74445
3020.13190	0.74388
3018.20333	0.74314
3016.27477	0.74160
3014.34620	0.74006
3012.41764	0.73889
3010.48907	0.73766
3008.56051	0.73613
3006.63195	0.73449
3004.70338	0.73336
3002.77482	0.73311
3000.84625	0.73328
2998.91769	0.73373
2996.98912	0.73493
2995.06056	0.73659
2993.13199	0.73826
2991.20343	0.74011
2989.27487	0.74195
2987.34630	0.74416
2985.41774	0.74745
2983.48917	0.75128
2981.56061	0.75510
2979.63204	0.75878
2977.70348	0.76179
2975.77491	0.76432
2973.84635	0.76780
2971.91779	0.77275
2969.98922	0.77782
2968.06066	0.78179
2966.13209	0.78517
2964.20353	0.78863
2962.27496	0.79124
2960.34640	0.79141
2958.41783	0.78934
2956.48927	0.78690
2954.56071	0.78503
2952.63214	0.78339
2950.70358	0.78207
2948.77501	0.78156
2946.84645	0.78190
2944.91788	0.78352
2942.98932	0.78745
2941.06075	0.79352
2939.13219	0.80011
2937.20363	0.80657
2935.27506	0.81332
2933.34650	0.82006
2931.41793	0.82621
2929.48937	0.83196
2927.56080	0.83734
2925.63224	0.84225
2923.70367	0.84688
2921.77511	0.85089
2919.84655	0.85340
2917.91798	0.85273
2915.98942	0.84630
2914.06085	0.83347
2912.13229	0.81771
2910.20372	0.80349
2908.27516	0.79317
2906.34659	0.78676
2904.41803	0.78235
2902.48947	0.77814
2900.56090	0.77449
2898.63234	0.77244
2896.70377	0.77138
2894.77521	0.76959
2892.84664	0.76694
2890.91808	0.76437
2888.98952	0.76163
2887.06095	0.75876
2885.13239	0.75687
2883.20382	0.75643
2881.27526	0.75686
2879.34669	0.75710
2877.41813	0.75681
2875.48956	0.75671
2873.56100	0.75637
2871.63244	0.75433
2869.70387	0.75081
2867.77531	0.74708
2865.84674	0.74392
2863.91818	0.74191
2861.98961	0.74152
2860.06105	0.74331
2858.13248	0.74782
2856.20392	0.75436
2854.27536	0.76131
2852.34679	0.76726
2850.41823	0.76936
2848.48966	0.76299
2846.56110	0.74775
2844.63253	0.73024
2842.70397	0.71627
2840.77540	0.70623
2838.84684	0.69884
2836.91828	0.69316
2834.98971	0.68850
2833.06115	0.68503
2831.13258	0.68260
2829.20402	0.68043
2827.27545	0.67833
2825.34689	0.67642
2823.41832	0.67444
2821.48976	0.67225
2819.56120	0.67015
2817.63263	0.66864
2815.70407	0.66739
2813.77550	0.66536
2811.84694	0.66261
2809.91837	0.66008
2807.98981	0.65806
2806.06124	0.65625
2804.13268	0.65444
2802.20412	0.65274
2800.27555	0.65113
2798.34699	0.64951
2796.41842	0.64786
2794.48986	0.64602
2792.56129	0.64411
2790.63273	0.64272
2788.70416	0.64201
2786.77560	0.64134
2784.84704	0.64020
2782.91847	0.63889
2780.98991	0.63783
2779.06134	0.63695
2777.13278	0.63612
2775.20421	0.63533
2773.27565	0.63458
2771.34708	0.63370
2769.41852	0.63253
2767.48996	0.63127
2765.56139	0.63034
2763.63283	0.62979
2761.70426	0.62918
2759.77570	0.62814
2757.84713	0.62694
2755.91857	0.62596
2753.99001	0.62528
2752.06144	0.62455
2750.13288	0.62340
2748.20431	0.62209
2746.27575	0.62100
2744.34718	0.61995
2742.41862	0.61872
2740.49005	0.61752
2738.56149	0.61659
2736.63293	0.61599
2734.70436	0.61568
2732.77580	0.61552
2730.84723	0.61531
2728.91867	0.61470
2726.99010	0.61385
2725.06154	0.61332
2723.13297	0.61279
2721.20441	0.61209
2719.27585	0.61176
2717.34728	0.61184
2715.41872	0.61187
2713.49015	0.61154
2711.56159	0.61072
2709.63302	0.60953
2707.70446	0.60844
2705.77589	0.60762
2703.84733	0.60697
2701.91877	0.60645
2699.99020	0.60582
2698.06164	0.60485
2696.13307	0.60394
2694.20451	0.60342
2692.27594	0.60298
2690.34738	0.60259
2688.41881	0.60247
2686.49025	0.60194
2684.56169	0.60051
2682.63312	0.59896
2680.70456	0.59839
2678.77599	0.59850
2676.84743	0.59816
2674.91886	0.59747
2672.99030	0.59711
2671.06173	0.59682
2669.13317	0.59615
2667.20461	0.59514
2665.27604	0.59404
2663.34748	0.59317
2661.41891	0.59269
2659.49035	0.59233
2657.56178	0.59198
2655.63322	0.59179
2653.70465	0.59128
2651.77609	0.59026
2649.84753	0.58938
2647.91896	0.58894
2645.99040	0.58870
2644.06183	0.58829
2642.13327	0.58762
2640.20470	0.58708
2638.27614	0.58678
2636.34757	0.58654
2634.41901	0.58641
2632.49045	0.58628
2630.56188	0.58585
2628.63332	0.58508
2626.70475	0.58441
2624.77619	0.58406
2622.84762	0.58370
2620.91906	0.58321
2618.99049	0.58280
2617.06193	0.58266
2615.13337	0.58287
2613.20480	0.58313
2611.27624	0.58306
2609.34767	0.58280
2607.41911	0.58253
2605.49054	0.58224
2603.56198	0.58182
2601.63342	0.58131
2599.70485	0.58084
2597.77629	0.58036
2595.84772	0.57989
2593.91916	0.57943
2591.99059	0.57901
2590.06203	0.57842
2588.13346	0.57732
2586.20490	0.57604
2584.27634	0.57508
2582.34777	0.57453
2580.41921	0.57410
2578.49064	0.57345
2576.56208	0.57288
2574.63351	0.57263
2572.70495	0.57225
2570.77638	0.57168
2568.84782	0.57139
2566.91926	0.57136
2564.99069	0.57124
2563.06213	0.57103
2561.13356	0.57100
2559.20500	0.57109
2557.27643	0.57104
2555.34787	0.57102
2553.41930	0.57150
2551.49074	0.57217
2549.56218	0.57230
2547.63361	0.57183
2545.70505	0.57115
2543.77648	0.57042
2541.84792	0.56987
2539.91935	0.56973
2537.99079	0.56955
2536.06222	0.56892
2534.13366	0.56809
2532.20510	0.56748
2530.27653	0.56726
2528.34797	0.56705
2526.41940	0.56640
2524.49084	0.56536
2522.56227	0.56429
2520.63371	0.56361
2518.70514	0.56342
2516.77658	0.56327
2514.84802	0.56280
2512.91945	0.56228
2510.99089	0.56198
2509.06232	0.56191
2507.13376	0.56190
2505.20519	0.56171
2503.27663	0.56143
2501.34806	0.56138
2499.41950	0.56140
2497.49094	0.56106
2495.56237	0.56057
2493.63381	0.56051
2491.70524	0.56072
2489.77668	0.56080
2487.84811	0.56074
2485.91955	0.56053
2483.99098	0.56022
2482.06242	0.55991
2480.13386	0.55954
2478.20529	0.55919
2476.27673	0.55893
2474.34816	0.55861
2472.41960	0.55816
2470.49103	0.55784
2468.56247	0.55770
2466.63391	0.55747
2464.70534	0.55708
2462.77678	0.55655
2460.84821	0.55584
2458.91965	0.55499
2456.99108	0.55407
2455.06252	0.55323
2453.13395	0.55256
2451.20539	0.55203
2449.27683	0.55156
2447.34826	0.55086
2445.41970	0.54981
2443.49113	0.54878
2441.56257	0.54812
2439.63400	0.54775
2437.70544	0.54743
2435.77687	0.54704
2433.84831	0.54673
2431.91975	0.54647
2429.99118	0.54630
2428.06262	0.54646
2426.13405	0.54659
2424.20549	0.54668
2422.27692	0.54722
2420.34836	0.54777
2418.41979	0.54777
2416.49123	0.54746
2414.56267	0.54730
2412.63410	0.54746
2410.70554	0.54750
2408.77697	0.54699
2406.84841	0.54637
2404.91984	0.54597
2402.99128	0.54548
2401.06271	0.54484
2399.13415	0.54419
2397.20559	0.54355
2395.27702	0.54284
2393.34846	0.54197
2391.41989	0.54115
2389.49133	0.54041
2387.56276	0.53965
2385.63420	0.53911
2383.70563	0.53915
2381.77707	0.53960
2379.84851	0.54021
2377.91994	0.54125
2375.99138	0.54262
2374.06281	0.54419
2372.13425	0.54631
2370.20568	0.54857
2368.27712	0.55078
2366.34855	0.55284
2364.41999	0.55348
2362.49143	0.55328
2360.56286	0.55412
2358.63430	0.55509
2356.70573	0.55446
2354.77717	0.55263
2352.84860	0.55092
2350.92004	0.54934
2348.99147	0.54784
2347.06291	0.54707
2345.13435	0.54781
2343.20578	0.55004
2341.27722	0.55190
2339.34865	0.55156
2337.42009	0.54992
2335.49152	0.54864
2333.56296	0.54757
2331.63440	0.54637
2329.70583	0.54522
2327.77727	0.54439
2325.84870	0.54417
2323.92014	0.54366
2321.99157	0.54206
2320.06301	0.54001
2318.13444	0.53809
2316.20588	0.53652
2314.27732	0.53564
2312.34875	0.53553
2310.42019	0.53575
2308.49162	0.53579
2306.56306	0.53551
2304.63449	0.53504
2302.70593	0.53469
2300.77736	0.53458
2298.84880	0.53468
2296.92024	0.53486
2294.99167	0.53483
2293.06311	0.53449
2291.13454	0.53412
2289.20598	0.53383
2287.27741	0.53351
2285.34885	0.53329
2283.42028	0.53324
2281.49172	0.53312
2279.56316	0.53272
2277.63459	0.53211
2275.70603	0.53151
2273.77746	0.53092
2271.84890	0.53022
2269.92033	0.52933
2267.99177	0.52830
2266.06320	0.52748
2264.13464	0.52705
2262.20608	0.52681
2260.27751	0.52631
2258.34895	0.52534
2256.42038	0.52456
2254.49182	0.52438
2252.56325	0.52435
2250.63469	0.52427
2248.70612	0.52441
2246.77756	0.52466
2244.84900	0.52482
2242.92043	0.52505
2240.99187	0.52536
2239.06330	0.52556
2237.13474	0.52555
2235.20617	0.52542
2233.27761	0.52540
2231.34904	0.52555
2229.42048	0.52560
2227.49192	0.52542
2225.56335	0.52526
2223.63479	0.52532
2221.70622	0.52543
2219.77766	0.52540
2217.84909	0.52513
2215.92053	0.52470
2213.99196	0.52423
2212.06340	0.52375
2210.13484	0.52326
2208.20627	0.52265
2206.27771	0.52182
2204.34914	0.52073
2202.42058	0.51950
2200.49201	0.51853
2198.56345	0.51802
2196.63488	0.51764
2194.70632	0.51693
2192.77776	0.51587
2190.84919	0.51487
2188.92063	0.51421
2186.99206	0.51366
2185.06350	0.51308
2183.13493	0.51256
2181.20637	0.51206
2179.27781	0.51167
2177.34924	0.51164
2175.42068	0.51187
2173.49211	0.51206
2171.56355	0.51224
2169.63498	0.51244
2167.70642	0.51249
2165.77785	0.51244
2163.84929	0.51249
2161.92073	0.51256
2159.99216	0.51239
2158.06360	0.51190
2156.13503	0.51132
2154.20647	0.51093
2152.27790	0.51054
2150.34934	0.50979
2148.42077	0.50880
2146.49221	0.50783
2144.56365	0.50685
2142.63508	0.50584
2140.70652	0.50479
2138.77795	0.50382
2136.84939	0.50306
2134.92082	0.50243
2132.99226	0.50189
2131.06369	0.50152
2129.13513	0.50143
2127.20657	0.50154
2125.27800	0.50162
2123.34944	0.50170
2121.42087	0.50198
2119.49231	0.50238
2117.56374	0.50282
2115.63518	0.50335
2113.70661	0.50377
2111.77805	0.50398
2109.84949	0.50412
2107.92092	0.50422
2105.99236	0.50418
2104.06379	0.50400
2102.13523	0.50377
2100.20666	0.50351
2098.27810	0.50316
2096.34953	0.50263
2094.42097	0.50187
2092.49241	0.50093
2090.56384	0.49986
2088.63528	0.49883
2086.70671	0.49790
2084.77815	0.49700
2082.84958	0.49620
2080.92102	0.49565
2078.99245	0.49534
2077.06389	0.49511
2075.13533	0.49475
2073.20676	0.49433
2071.27820	0.49404
2069.34963	0.49379
2067.42107	0.49341
2065.49250	0.49297
2063.56394	0.49256
2061.63537	0.49209
2059.70681	0.49139
2057.77825	0.49062
2055.84968	0.48994
2053.92112	0.48923
2051.99255	0.48843
2050.06399	0.48764
2048.13542	0.48690
2046.20686	0.48611
2044.27830	0.48532
2042.34973	0.48470
2040.42117	0.48415
2038.49260	0.48336
2036.56404	0.48244
2034.63547	0.48170
2032.70691	0.48108
2030.77834	0.48040
2028.84978	0.47976
2026.92122	0.47919
2024.99265	0.47847
2023.06409	0.47754
2021.13552	0.47658
2019.20696	0.47568
2017.27839	0.47469
2015.34983	0.47351
2013.42126	0.47216
2011.49270	0.47076
2009.56414	0.46934
2007.63557	0.46779
2005.70701	0.46613
2003.77844	0.46448
2001.84988	0.46306
1999.92131	0.46204
1997.99275	0.46126
1996.06418	0.46059
1994.13562	0.46012
1992.20706	0.45972
1990.27849	0.45920
1988.34993	0.45877
1986.42136	0.45874
1984.49280	0.45902
1982.56423	0.45929
1980.63567	0.45939
1978.70710	0.45950
1976.77854	0.45964
1974.84998	0.45964
1972.92141	0.45943
1970.99285	0.45894
1969.06428	0.45842
1967.13572	0.45809
1965.20715	0.45768
1963.27859	0.45703
1961.35002	0.45631
1959.42146	0.45555
1957.49290	0.45485
1955.56433	0.45436
1953.63577	0.45399
1951.70720	0.45347
1949.77864	0.45283
1947.85007	0.45235
1945.92151	0.45222
1943.99294	0.45243
1942.06438	0.45268
1940.13582	0.45262
1938.20725	0.45238
1936.27869	0.45220
1934.35012	0.45216
1932.42156	0.45220
1930.49299	0.45221
1928.56443	0.45207
1926.63586	0.45175
1924.70730	0.45131
1922.77874	0.45056
1920.85017	0.44947
1918.92161	0.44836
1916.99304	0.44717
1915.06448	0.44572
1913.13591	0.44429
1911.20735	0.44309
1909.27878	0.44208
1907.35022	0.44115
1905.42166	0.44034
1903.49309	0.43988
1901.56453	0.43979
1899.63596	0.43984
1897.70740	0.44002
1895.77883	0.44060
1893.85027	0.44139
1891.92171	0.44202
1889.99314	0.44253
1888.06458	0.44276
1886.13601	0.44272
1884.20745	0.44264
1882.27888	0.44253
1880.35032	0.44221
1878.42175	0.44158
1876.49319	0.44073
1874.56463	0.43977
1872.63606	0.43887
1870.70750	0.43821
1868.77893	0.43743
1866.85037	0.43586
1864.92180	0.43399
1862.99324	0.43239
1861.06467	0.43102
1859.13611	0.42984
1857.20755	0.42891
1855.27898	0.42817
1853.35042	0.42766
1851.42185	0.42754
1849.49329	0.42781
1847.56472	0.42823
1845.63616	0.42879
1843.70759	0.42928
1841.77903	0.42929
1839.85047	0.42927
1837.92190	0.42960
1835.99334	0.42988
1834.06477	0.42984
1832.13621	0.42988
1830.20764	0.43014
1828.27908	0.43005
1826.35051	0.42952
1824.42195	0.42889
1822.49339	0.42827
1820.56482	0.42771
1818.63626	0.42717
1816.70769	0.42639
1814.77913	0.42547
1812.85056	0.42481
1810.92200	0.42439
1808.99343	0.42379
1807.06487	0.42294
1805.13631	0.42227
1803.20774	0.42208
1801.27918	0.42251
1799.35061	0.42321
1797.42205	0.42390
1795.49348	0.42459
1793.56492	0.42544
1791.63635	0.42637
1789.70779	0.42674
1787.77923	0.42702
1785.85066	0.42770
1783.92210	0.42855
1781.99353	0.42931
1780.06497	0.43003
1778.13640	0.43083
1776.20784	0.43183
1774.27927	0.43341
1772.35071	0.43530
1770.42215	0.43608
1768.49358	0.43627
1766.56502	0.43688
1764.63645	0.43800
1762.70789	0.43976
1760.77932	0.44199
1758.85076	0.44439
1756.92220	0.44779
1754.99363	0.45158
1753.06507	0.45552
1751.13650	0.46167
1749.20794	0.46972
1747.27937	0.47624
1745.35081	0.48132
1743.42224	0.48610
1741.49368	0.49066
1739.56512	0.49464
1737.63655	0.49730
1735.70799	0.49933
1733.77942	0.50235
1731.85086	0.50460
1729.92229	0.50587
1727.99373	0.50763
1726.06516	0.51024
1724.13660	0.51423
1722.20804	0.51876
1720.27947	0.52340
1718.35091	0.53088
1716.42234	0.54250
1714.49378	0.55146
1712.56521	0.55828
1710.63665	0.56606
1708.70808	0.57566
1706.77952	0.58940
1704.85096	0.60665
1702.92239	0.62245
1700.99383	0.64533
1699.06526	0.68007
1697.13670	0.71084
1695.20813	0.73992
1693.27957	0.76186
1691.35100	0.77992
1689.42244	0.80157
1687.49388	0.82157
1685.56531	0.84238
1683.63675	0.87422
1681.70818	0.89663
1679.77962	0.90953
1677.85105	0.92191
1675.92249	0.93713
1673.99392	0.95410
1672.06536	0.96773
1670.13680	0.98254
1668.20823	0.99849
1666.27967	1.00808
1664.35110	1.01652
1662.42254	1.02791
1660.49397	1.03788
1658.56541	1.04404
1656.63684	1.04735
1654.70828	1.04934
1652.77972	1.05251
1650.85115	1.05417
1648.92259	1.05434
1646.99402	1.05502
1645.06546	1.05548
1643.13689	1.05498
1641.20833	1.05505
1639.27976	1.05567
1637.35120	1.05634
1635.42264	1.05531
1633.49407	1.05225
1631.56551	1.04947
1629.63694	1.04665
1627.70838	1.04346
1625.77981	1.03905
1623.85125	1.03077
1621.92269	1.01902
1619.99412	1.00879
1618.06556	0.99712
1616.13699	0.97886
1614.20843	0.96224
1612.27986	0.94877
1610.35130	0.93484
1608.42273	0.92121
1606.49417	0.90992
1604.56561	0.90101
1602.63704	0.89382
1600.70848	0.88855
1598.77991	0.88516
1596.85135	0.88352
1594.92278	0.88330
1592.99422	0.88385
1591.06565	0.88507
1589.13709	0.88770
1587.20853	0.89253
1585.27996	0.89919
1583.35140	0.90682
1581.42283	0.91472
1579.49427	0.92253
1577.56570	0.93245
1575.63714	0.94651
1573.70857	0.95663
1571.78001	0.96349
1569.85145	0.97346
1567.92288	0.98440
1565.99432	0.99233
1564.06575	0.99915
1562.13719	1.00415
1560.20862	1.00987
1558.28006	1.02398
1556.35149	1.03289
1554.42293	1.03617
1552.49437	1.03787
1550.56580	1.03919
1548.63724	1.04062
1546.70867	1.04156
1544.78011	1.04222
1542.85154	1.04308
1540.92298	1.04135
1538.99441	1.03451
1537.06585	1.03060
1535.13729	1.02851
1533.20872	1.02574
1531.28016	1.02217
1529.35159	1.01879
1527.42303	1.01537
1525.49446	1.01207
1523.56590	1.01013
1521.63733	1.01005
1519.70877	1.00989
1517.78021	1.00621
1515.85164	0.99882
1513.92308	0.99014
1511.99451	0.98114
1510.06595	0.97243
1508.13738	0.95930
1506.20882	0.93456
1504.28025	0.91929
1502.35169	0.90939
1500.42313	0.89848
1498.49456	0.88513
1496.56600	0.86923
1494.63743	0.85626
1492.70887	0.84744
1490.78030	0.83798
1488.85174	0.82576
1486.92317	0.81640
1484.99461	0.81100
1483.06605	0.80791
1481.13748	0.80666
1479.20892	0.80747
1477.28035	0.81108
1475.35179	0.81821
1473.42322	0.83014
1471.49466	0.84302
1469.56610	0.85078
1467.63753	0.85655
1465.70897	0.86333
1463.78040	0.87018
1461.85184	0.87436
1459.92327	0.87700
1457.99471	0.88105
1456.06614	0.88544
1454.13758	0.88635
1452.20902	0.88601
1450.28045	0.88535
1448.35189	0.88453
1446.42332	0.88356
1444.49476	0.88198
1442.56619	0.87942
1440.63763	0.87652
1438.70906	0.87381
1436.78050	0.87002
1434.85194	0.86466
1432.92337	0.85980
1430.99481	0.85541
1429.06624	0.85128
1427.13768	0.84834
1425.20911	0.84673
1423.28055	0.84627
1421.35198	0.84699
1419.42342	0.84932
1417.49486	0.85195
1415.56629	0.85264
1413.63773	0.85211
1411.70916	0.85143
1409.78060	0.85122
1407.85203	0.85136
1405.92347	0.85188
1403.99490	0.85258
1402.06634	0.85252
1400.13778	0.85211
1398.20921	0.85247
1396.28065	0.85382
1394.35208	0.85539
1392.42352	0.85708
1390.49495	0.86006
1388.56639	0.86633
1386.63782	0.87628
1384.70926	0.88619
1382.78070	0.89459
1380.85213	0.90118
1378.92357	0.90452
1376.99500	0.90412
1375.06644	0.89976
1373.13787	0.89203
1371.20931	0.88341
1369.28074	0.87360
1367.35218	0.86235
1365.42362	0.85171
1363.49505	0.84177
1361.56649	0.83303
1359.63792	0.82698
1357.70936	0.82297
1355.78079	0.82030
1353.85223	0.81862
1351.92366	0.81748
1349.99510	0.81656
1348.06654	0.81559
1346.13797	0.81486
1344.20941	0.81502
1342.28084	0.81606
1340.35228	0.81743
1338.42371	0.81895
1336.49515	0.82126
1334.56659	0.82502
1332.63802	0.83025
1330.70946	0.83623
1328.78089	0.84153
1326.85233	0.84515
1324.92376	0.84730
1322.99520	0.84865
1321.06663	0.84984
1319.13807	0.85120
1317.20951	0.85247
1315.28094	0.85356
1313.35238	0.85454
1311.42381	0.85531
1309.49525	0.85571
1307.56668	0.85548
1305.63812	0.85453
1303.70955	0.85316
1301.78099	0.85151
1299.85243	0.84949
1297.92386	0.84698
1295.99530	0.84414
1294.06673	0.84193
1292.13817	0.84095
1290.20960	0.84062
1288.28104	0.84039
1286.35247	0.84040
1284.42391	0.84044
1282.49535	0.84018
1280.56678	0.83983
1278.63822	0.83973
1276.70965	0.84015
1274.78109	0.84157
1272.85252	0.84434
1270.92396	0.84812
1268.99539	0.85248
1267.06683	0.85734
1265.13827	0.86214
1263.20970	0.86586
1261.28114	0.86830
1259.35257	0.86985
1257.42401	0.87093
1255.49544	0.87216
1253.56688	0.87390
1251.63831	0.87566
1249.70975	0.87686
1247.78119	0.87790
1245.85262	0.87924
1243.92406	0.88030
1241.99549	0.88073
1240.06693	0.88067
1238.13836	0.87977
1236.20980	0.87783
1234.28123	0.87490
1232.35267	0.87104
1230.42411	0.86655
1228.49554	0.86119
1226.56698	0.85477
1224.63841	0.84792
1222.70985	0.84114
1220.78128	0.83426
1218.85272	0.82753
1216.92415	0.82189
1214.99559	0.81804
1213.06703	0.81631
1211.13846	0.81665
1209.20990	0.81808
1207.28133	0.81915
1205.35277	0.81880
1203.42420	0.81636
1201.49564	0.81167
1199.56708	0.80518
1197.63851	0.79764
1195.70995	0.79007
1193.78138	0.78337
1191.85282	0.77786
1189.92425	0.77365
1187.99569	0.77071
1186.06712	0.76867
1184.13856	0.76742
1182.21000	0.76775
1180.28143	0.77044
1178.35287	0.77524
1176.42430	0.78148
1174.49574	0.78888
1172.56717	0.79723
1170.63861	0.80644
1168.71004	0.81681
1166.78148	0.82891
1164.85292	0.84296
1162.92435	0.85771
1160.99579	0.87068
1159.06722	0.87967
1157.13866	0.88331
1155.21009	0.88162
1153.28153	0.87597
1151.35296	0.86756
1149.42440	0.85732
1147.49584	0.84654
1145.56727	0.83622
1143.63871	0.82772
1141.71014	0.82230
1139.78158	0.82001
1137.85301	0.82038
1135.92445	0.82279
1133.99588	0.82709
1132.06732	0.83397
1130.13876	0.84351
1128.21019	0.85446
1126.28163	0.86552
1124.35306	0.87609
1122.42450	0.88636
1120.49593	0.89646
1118.56737	0.90525
1116.63880	0.91133
1114.71024	0.91456
1112.78168	0.91496
1110.85311	0.91287
1108.92455	0.91001
1106.99598	0.90742
1105.06742	0.90430
1103.13885	0.90037
1101.21029	0.89641
1099.28172	0.89299
1097.35316	0.89111
1095.42460	0.89179
1093.49603	0.89477
1091.56747	0.89956
1089.63890	0.90652
1087.71034	0.91580
1085.78177	0.92680
1083.85321	0.93880
1081.92464	0.95055
1079.99608	0.96061
1078.06752	0.96795
1076.13895	0.97188
1074.21039	0.97233
1072.28182	0.96936
1070.35326	0.96312
1068.42469	0.95537
1066.49613	0.94807
1064.56756	0.94139
1062.63900	0.93476
1060.71044	0.92816
1058.78187	0.92177
1056.85331	0.91579
1054.92474	0.91068
1052.99618	0.90673
1051.06761	0.90371
1049.13905	0.90177
1047.21049	0.90145
1045.28192	0.90312
1043.35336	0.90653
1041.42479	0.91120
1039.49623	0.91699
1037.56766	0.92282
1035.63910	0.92673
1033.71053	0.92837
1031.78197	0.92855
1029.85341	0.92696
1027.92484	0.92312
1025.99628	0.91760
1024.06771	0.91106
1022.13915	0.90380
1020.21058	0.89640
1018.28202	0.88963
1016.35345	0.88369
1014.42489	0.87727
1012.49633	0.86804
1010.56776	0.85507
1008.63920	0.83988
1006.71063	0.82407
1004.78207	0.80828
1002.85350	0.79346
1000.92494	0.78075
998.99637	0.77076
997.06781	0.76384
995.13925	0.75909
993.21068	0.75464
991.28212	0.74930
989.35355	0.74279
987.42499	0.73521
985.49642	0.72726
983.56786	0.71968
981.63929	0.71285
979.71073	0.70711
977.78217	0.70245
975.85360	0.69809
973.92504	0.69298
971.99647	0.68649
970.06791	0.67893
968.13934	0.67111
966.21078	0.66376
964.28221	0.65797
962.35365	0.65497
960.42509	0.65603
958.49652	0.66125
956.56796	0.66769
954.63939	0.67118
952.71083	0.67016
950.78226	0.66575
948.85370	0.65971
946.92513	0.65380
944.99657	0.64886
943.06801	0.64480
941.13944	0.64155
939.21088	0.63902
937.28231	0.63691
935.35375	0.63509
933.42518	0.63351
931.49662	0.63221
929.56805	0.63140
927.63949	0.63112
925.71093	0.63108
923.78236	0.63086
921.85380	0.63004
919.92523	0.62832
917.99667	0.62574
916.06810	0.62286
914.13954	0.62034
912.21098	0.61825
910.28241	0.61657
908.35385	0.61592
906.42528	0.61677
904.49672	0.61887
902.56815	0.62172
900.63959	0.62453
898.71102	0.62694
896.78246	0.62902
894.85390	0.63010
892.92533	0.62961
890.99677	0.62845
889.06820	0.62737
887.13964	0.62588
885.21107	0.62392
883.28251	0.62225
881.35394	0.62099
879.42538	0.61935
877.49682	0.61729
875.56825	0.61523
873.63969	0.61301
871.71112	0.61053
869.78256	0.60803
867.85399	0.60580
865.92543	0.60404
863.99686	0.60273
862.06830	0.60204
860.13974	0.60231
858.21117	0.60357
856.28261	0.60563
854.35404	0.60826
852.42548	0.61108
850.49691	0.61408
848.56835	0.61758
846.63978	0.62141
844.71122	0.62509
842.78266	0.62837
840.85409	0.63132
838.92553	0.63414
836.99696	0.63669
835.06840	0.63893
833.13983	0.64105
831.21127	0.64254
829.28270	0.64278
827.35414	0.64244
825.42558	0.64252
823.49701	0.64255
821.56845	0.64174
819.63988	0.64078
817.71132	0.64089
815.78275	0.64210
813.85419	0.64378
811.92562	0.64568
809.99706	0.64768
808.06850	0.64963
806.13993	0.65175
804.21137	0.65405
802.28280	0.65599
800.35424	0.65728
798.42567	0.65794
796.49711	0.65801
794.56854	0.65761
792.63998	0.65684
790.71142	0.65567
788.78285	0.65400
786.85429	0.65186
784.92572	0.64982
782.99716	0.64819
781.06859	0.64663
779.14003	0.64493
777.21147	0.64365
775.28290	0.64322
773.35434	0.64316
771.42577	0.64322
769.49721	0.64384
767.56864	0.64545
765.64008	0.64809
763.71151	0.65129
761.78295	0.65469
759.85439	0.65833
757.92582	0.66213
755.99726	0.66589
754.06869	0.66976
752.14013	0.67380
750.21156	0.67723
748.28300	0.67930
746.35443	0.68014
744.42587	0.68002
742.49731	0.67895
740.56874	0.67714
738.64018	0.67471
736.71161	0.67177
734.78305	0.66889
732.85448	0.66656
730.92592	0.66465
728.99735	0.66265
727.06879	0.66039
725.14023	0.65898
723.21166	0.65953
721.28310	0.66135
719.35453	0.66310
717.42597	0.66429
715.49740	0.66535
713.56884	0.66767
711.64027	0.67196
709.71171	0.67682
707.78315	0.68137
705.85458	0.68649
703.92602	0.69174
701.99745	0.69556
700.06889	0.69803
698.14032	0.69942
696.21176	0.69945
694.28319	0.69876
692.35463	0.69810
690.42607	0.69710
688.49750	0.69504
686.56894	0.69198
684.64037	0.68863
682.71181	0.68522
680.78324	0.68199
678.85468	0.67921
676.92611	0.67662
674.99755	0.67455
673.06899	0.67419
671.14042	0.67555
669.21186	0.67766
667.28329	0.67870
665.35473	0.67873
663.42616	0.67952
661.49760	0.68119
659.56903	0.68303
657.64047	0.68457
655.71191	0.68559
653.78334	0.68617
651.85478	0.68681
649.92621	0.68777
647.99765	0.68844
646.06908	0.68829
644.14052	0.68784
642.21195	0.68838
640.28339	0.69079
638.35483	0.69369
636.42626	0.69402
634.49770	0.69086
632.56913	0.68659
630.64057	0.68356
628.71200	0.68170
626.78344	0.67969
624.85488	0.67744
622.92631	0.67639
620.99775	0.67686
619.06918	0.67790
617.14062	0.67903
615.21205	0.68042
613.28349	0.68184
611.35492	0.68297
609.42636	0.68397
607.49780	0.68564
605.56923	0.68878
603.64067	0.69250
601.71210	0.69534
599.78354	0.69735
