3997.91406	0.62495
3995.98550	0.62493
3994.05693	0.62470
3992.12837	0.62437
3990.19980	0.62353
3988.27124	0.62230
3986.34268	0.62130
3984.41411	0.62138
3982.48555	0.62211
3980.55698	0.62208
3978.62842	0.62112
3976.69985	0.62069
3974.77129	0.62150
3972.84272	0.62152
3970.91416	0.61974
3968.98560	0.61784
3967.05703	0.61753
3965.12847	0.61964
3963.19990	0.62277
3961.27134	0.62386
3959.34277	0.62370
3957.41421	0.62450
3955.48564	0.62450
3953.55708	0.62314
3951.62852	0.62273
3949.69995	0.62320
3947.77139	0.62254
3945.84282	0.62134
3943.91426	0.62191
3941.98569	0.62334
3940.05713	0.62320
3938.12856	0.62333
3936.20000	0.62459
3934.27144	0.62449
3932.34287	0.62308
3930.41431	0.62253
3928.48574	0.62249
3926.55718	0.62296
3924.62861	0.62458
3922.70005	0.62637
3920.77148	0.62731
3918.84292	0.62686
3916.91436	0.62478
3914.98579	0.62283
3913.05723	0.62217
3911.12866	0.62181
3909.20010	0.62103
3907.27153	0.61972
3905.34297	0.61804
3903.41440	0.61796
3901.48584	0.61967
3899.55728	0.62125
3897.62871	0.62264
3895.70015	0.62342
3893.77158	0.62336
3891.84302	0.62304
3889.91445	0.62299
3887.98589	0.62247
3886.05733	0.62102
3884.12876	0.61993
3882.20020	0.62078
3880.27163	0.62295
3878.34307	0.62351
3876.41450	0.62294
3874.48594	0.62296
3872.55737	0.62251
3870.62881	0.62155
3868.70025	0.62242
3866.77168	0.62326
3864.84312	0.62187
3862.91455	0.61987
3860.98599	0.61920
3859.05742	0.61890
3857.12886	0.61855
3855.20029	0.61748
3853.27173	0.61451
3851.34317	0.61441
3849.41460	0.61650
3847.48604	0.61746
3845.55747	0.61727
3843.62891	0.61762
3841.70034	0.61823
3839.77178	0.61692
3837.84321	0.61352
3835.91465	0.61062
3833.98609	0.60974
3832.05752	0.61064
3830.12896	0.61218
3828.20039	0.61317
3826.27183	0.61327
3824.34326	0.61257
3822.41470	0.61153
3820.48613	0.61140
3818.55757	0.61158
3816.62901	0.61073
3814.70044	0.61033
3812.77188	0.61053
3810.84331	0.60968
3808.91475	0.60790
3806.98618	0.60751
3805.05762	0.60925
3803.12905	0.61087
3801.20049	0.61109
3799.27193	0.61025
3797.34336	0.61030
3795.41480	0.61165
3793.48623	0.61261
3791.55767	0.61241
3789.62910	0.61132
3787.70054	0.61007
3785.77197	0.61004
3783.84341	0.61147
3781.91485	0.61323
3779.98628	0.61456
3778.05772	0.61402
3776.12915	0.61241
3774.20059	0.61176
3772.27202	0.61155
3770.34346	0.61061
3768.41489	0.61015
3766.48633	0.61093
3764.55777	0.61141
3762.62920	0.61058
3760.70064	0.60942
3758.77207	0.60940
3756.84351	0.60985
3754.91494	0.60926
3752.98638	0.60656
3751.05781	0.60156
3749.12925	0.59916
3747.20069	0.59949
3745.27212	0.60224
3743.34356	0.60675
3741.41499	0.60779
3739.48643	0.60669
3737.55786	0.60643
3735.62930	0.60707
3733.70074	0.60796
3731.77217	0.60910
3729.84361	0.60863
3727.91504	0.60731
3725.98648	0.60749
3724.05791	0.60935
3722.12935	0.61060
3720.20078	0.61086
3718.27222	0.61113
3716.34366	0.61136
3714.41509	0.61139
3712.48653	0.61113
3710.55796	0.61048
3708.62940	0.61088
3706.70083	0.61275
3704.77227	0.61482
3702.84370	0.61598
3700.91514	0.61663
3698.98658	0.61772
3697.05801	0.61897
3695.12945	0.61937
3693.20088	0.61840
3691.27232	0.61791
3689.34375	0.62103
3687.41519	0.62452
3685.48662	0.62506
3683.55806	0.62463
3681.62950	0.62483
3679.70093	0.62646
3677.77237	0.63021
3675.84380	0.63657
3673.91524	0.63933
3671.98667	0.63750
3670.05811	0.63856
3668.12954	0.64451
3666.20098	0.64941
3664.27242	0.65299
3662.34385	0.65641
3660.41529	0.65963
3658.48672	0.66187
3656.55816	0.66383
3654.62959	0.66674
3652.70103	0.67001
3650.77246	0.67380
3648.84390	0.67974
3646.91534	0.68630
3644.98677	0.69093
3643.05821	0.69483
3641.12964	0.69988
3639.20108	0.70653
3637.27251	0.71265
3635.34395	0.71677
3633.41538	0.72053
3631.48682	0.72533
3629.55826	0.73242
3627.62969	0.74059
3625.70113	0.74565
3623.77256	0.74931
3621.84400	0.75343
3619.91543	0.76045
3617.98687	0.76935
3616.05830	0.77491
3614.12974	0.77950
3612.20118	0.78605
3610.27261	0.79225
3608.34405	0.79896
3606.41548	0.80730
3604.48692	0.81416
3602.55835	0.81972
3600.62979	0.82563
3598.70123	0.83234
3596.77266	0.83990
3594.84410	0.84768
3592.91553	0.85416
3590.98697	0.85990
3589.05840	0.86793
3587.12984	0.87855
3585.20127	0.88671
3583.27271	0.89233
3581.34415	0.89855
3579.41558	0.90713
3577.48702	0.91570
3575.55845	0.92150
3573.62989	0.92685
3571.70132	0.93425
3569.77276	0.94197
3567.84419	0.94932
3565.91563	0.95851
3563.98707	0.96849
3562.05850	0.97773
3560.12994	0.98684
3558.20137	0.99722
3556.27281	1.00736
3554.34424	1.01666
3552.41568	1.02700
3550.48711	1.03650
3548.55855	1.04402
3546.62999	1.05039
3544.70142	1.05672
3542.77286	1.06516
3540.84429	1.07577
3538.91573	1.08575
3536.98716	1.09183
3535.05860	1.09648
3533.13003	1.10332
3531.20147	1.11137
3529.27291	1.11961
3527.34434	1.12719
3525.41578	1.13503
3523.48721	1.14642
3521.55865	1.15777
3519.63008	1.16382
3517.70152	1.16939
3515.77295	1.18078
3513.84439	1.19502
3511.91583	1.20483
3509.98726	1.21200
3508.05870	1.22233
3506.13013	1.23327
3504.20157	1.24526
3502.27300	1.26109
3500.34444	1.27515
3498.41587	1.28282
3496.48731	1.28660
3494.55875	1.29140
3492.63018	1.29853
3490.70162	1.30691
3488.77305	1.31666
3486.84449	1.32744
3484.91592	1.33411
3482.98736	1.33471
3481.05879	1.33569
3479.13023	1.33959
3477.20167	1.34345
3475.27310	1.34504
3473.34454	1.34532
3471.41597	1.34713
3469.48741	1.35088
3467.55884	1.35818
3465.63028	1.36976
3463.70171	1.37904
3461.77315	1.38021
3459.84459	1.37789
3457.91602	1.37858
3455.98746	1.38216
3454.05889	1.38803
3452.13033	1.39686
3450.20176	1.40543
3448.27320	1.40952
3446.34464	1.40820
3444.41607	1.40288
3442.48751	1.39741
3440.55894	1.39602
3438.63038	1.40163
3436.70181	1.41213
3434.77325	1.41827
3432.84468	1.41745
3430.91612	1.41515
3428.98756	1.41280
3427.05899	1.41013
3425.13043	1.40857
3423.20186	1.40854
3421.27330	1.40738
3419.34473	1.40313
3417.41617	1.39977
3415.48760	1.40109
3413.55904	1.40498
3411.63048	1.40981
3409.70191	1.41522
3407.77335	1.41856
3405.84478	1.42068
3403.91622	1.42188
3401.98765	1.42132
3400.05909	1.42379
3398.13052	1.42941
3396.20196	1.43041
3394.27340	1.42476
3392.34483	1.42104
3390.41627	1.42456
3388.48770	1.42896
3386.55914	1.43098
3384.63057	1.43396
3382.70201	1.43642
3380.77344	1.43512
3378.84488	1.43143
3376.91632	1.42903
3374.98775	1.43095
3373.05919	1.43520
3371.13062	1.43784
3369.20206	1.44045
3367.27349	1.44397
3365.34493	1.44557
3363.41636	1.44529
3361.48780	1.44531
3359.55924	1.44697
3357.63067	1.44754
3355.70211	1.44504
3353.77354	1.44492
3351.84498	1.44928
3349.91641	1.45382
3347.98785	1.45531
3346.05928	1.45296
3344.13072	1.45115
3342.20216	1.45313
3340.27359	1.45382
3338.34503	1.45116
3336.41646	1.45125
3334.48790	1.45477
3332.55933	1.45694
3330.63077	1.45788
3328.70220	1.45803
3326.77364	1.45569
3324.84508	1.45312
3322.91651	1.45513
3320.98795	1.46235
3319.05938	1.46933
3317.13082	1.47235
3315.20225	1.47373
3313.27369	1.47260
3311.34513	1.46736
3309.41656	1.46657
3307.48800	1.47425
3305.55943	1.48102
3303.63087	1.48228
3301.70230	1.48145
3299.77374	1.48112
3297.84517	1.48047
3295.91661	1.47828
3293.98805	1.47692
3292.05948	1.47706
3290.13092	1.47736
3288.20235	1.47719
3286.27379	1.47561
3284.34522	1.47386
3282.41666	1.47214
3280.48809	1.46927
3278.55953	1.46753
3276.63097	1.46763
3274.70240	1.46497
3272.77384	1.46101
3270.84527	1.46309
3268.91671	1.46583
3266.98814	1.46138
3265.05958	1.45635
3263.13101	1.45464
3261.20245	1.45300
3259.27389	1.44997
3257.34532	1.44379
3255.41676	1.43791
3253.48819	1.43791
3251.55963	1.43792
3249.63106	1.43019
3247.70250	1.42047
3245.77393	1.41500
3243.84537	1.41174
3241.91681	1.41064
3239.98824	1.41105
3238.05968	1.40910
3236.13111	1.40504
3234.20255	1.40070
3232.27398	1.39625
3230.34542	1.39055
3228.41685	1.38397
3226.48829	1.38092
3224.55973	1.38114
3222.63116	1.37893
3220.70260	1.37442
3218.77403	1.37294
3216.84547	1.37486
3214.91690	1.37500
3212.98834	1.37176
3211.05977	1.36868
3209.13121	1.36786
3207.20265	1.36832
3205.27408	1.36731
3203.34552	1.36357
3201.41695	1.35985
3199.48839	1.35752
3197.55982	1.35489
3195.63126	1.35158
3193.70269	1.34708
3191.77413	1.34090
3189.84557	1.33612
3187.91700	1.33662
3185.98844	1.33948
3184.05987	1.33765
3182.13131	1.33346
3180.20274	1.33375
3178.27418	1.33607
3176.34562	1.33551
3174.41705	1.33280
3172.48849	1.32817
3170.55992	1.31993
3168.63136	1.31105
3166.70279	1.30650
3164.77423	1.30517
3162.84566	1.30305
3160.91710	1.29937
3158.98854	1.29615
3157.05997	1.29533
3155.13141	1.29703
3153.20284	1.29871
3151.27428	1.29610
3149.34571	1.28875
3147.41715	1.28269
3145.48858	1.28186
3143.56002	1.28319
3141.63146	1.28407
3139.70289	1.28424
3137.77433	1.28158
3135.84576	1.27761
3133.91720	1.27688
3131.98863	1.27844
3130.06007	1.27851
3128.13150	1.27572
3126.20294	1.27033
3124.27438	1.26593
3122.34581	1.26728
3120.41725	1.27150
3118.48868	1.27195
3116.56012	1.27003
3114.63155	1.26992
3112.70299	1.27093
3110.77442	1.27177
3108.84586	1.27140
3106.91730	1.26945
3104.98873	1.26808
3103.06017	1.26737
3101.13160	1.26513
3099.20304	1.26155
3097.27447	1.25835
3095.34591	1.25558
3093.41734	1.25209
3091.48878	1.24849
3089.56022	1.24566
3087.63165	1.24414
3085.70309	1.24455
3083.77452	1.24437
3081.84596	1.24005
3079.91739	1.23306
3077.98883	1.22890
3076.06026	1.22864
3074.13170	1.22761
3072.20314	1.22465
3070.27457	1.22284
3068.34601	1.22263
3066.41744	1.22173
3064.48888	1.21890
3062.56031	1.21528
3060.63175	1.21195
3058.70318	1.20900
3056.77462	1.20721
3054.84606	1.20687
3052.91749	1.20545
3050.98893	1.20117
3049.06036	1.19735
3047.13180	1.19711
3045.20323	1.19601
3043.27467	1.18908
3041.34610	1.18112
3039.41754	1.17859
3037.48898	1.17940
3035.56041	1.17921
3033.63185	1.17831
3031.70328	1.17717
3029.77472	1.17410
3027.84615	1.16931
3025.91759	1.16473
3023.98903	1.16075
3022.06046	1.15716
3020.13190	1.15506
3018.20333	1.15311
3016.27477	1.14848
3014.34620	1.14306
3012.41764	1.13984
3010.48907	1.13876
3008.56051	1.13841
3006.63195	1.13639
3004.70338	1.13215
3002.77482	1.12805
3000.84625	1.12626
2998.91769	1.12717
2996.98912	1.12896
2995.06056	1.12948
2993.13199	1.12975
2991.20343	1.13224
2989.27487	1.13680
2987.34630	1.14166
2985.41774	1.14636
2983.48917	1.15203
2981.56061	1.15938
2979.63204	1.16786
2977.70348	1.17681
2975.77491	1.18559
2973.84635	1.19290
2971.91779	1.19839
2969.98922	1.20393
2968.06066	1.21025
2966.13209	1.21509
2964.20353	1.21821
2962.27496	1.22193
2960.34640	1.22514
2958.41783	1.22411
2956.48927	1.22012
2954.56071	1.21774
2952.63214	1.21644
2950.70358	1.21485
2948.77501	1.21557
2946.84645	1.21901
2944.91788	1.22320
2942.98932	1.22839
2941.06075	1.23529
2939.13219	1.24295
2937.20363	1.25071
2935.27506	1.25839
2933.34650	1.26502
2931.41793	1.27003
2929.48937	1.27328
2927.56080	1.27557
2925.63224	1.27813
2923.70367	1.27993
2921.77511	1.27982
2919.84655	1.27798
2917.91798	1.27323
2915.98942	1.26239
2914.06085	1.24498
2912.13229	1.22666
2910.20372	1.21286
2908.27516	1.20275
2906.34659	1.19355
2904.41803	1.18563
2902.48947	1.18053
2900.56090	1.17836
2898.63234	1.17771
2896.70377	1.17622
2894.77521	1.17285
2892.84664	1.16913
2890.91808	1.16509
2888.98952	1.15911
2887.06095	1.15364
2885.13239	1.15262
2883.20382	1.15501
2881.27526	1.15744
2879.34669	1.15886
2877.41813	1.15984
2875.48956	1.16047
2873.56100	1.15984
2871.63244	1.15587
2869.70387	1.14752
2867.77531	1.13884
2865.84674	1.13413
2863.91818	1.13171
2861.98961	1.12912
2860.06105	1.12731
2858.13248	1.12774
2856.20392	1.12977
2854.27536	1.13194
2852.34679	1.13382
2850.41823	1.13249
2848.48966	1.12246
2846.56110	1.10416
2844.63253	1.08438
2842.70397	1.06781
2840.77540	1.05492
2838.84684	1.04531
2836.91828	1.03843
2834.98971	1.03302
2833.06115	1.02770
2831.13258	1.02163
2829.20402	1.01589
2827.27545	1.01201
2825.34689	1.00954
2823.41832	1.00721
2821.48976	1.00416
2819.56120	1.00060
2817.63263	0.99751
2815.70407	0.99420
2813.77550	0.98965
2811.84694	0.98533
2809.91837	0.98292
2807.98981	0.98184
2806.06124	0.98030
2804.13268	0.97735
2802.20412	0.97336
2800.27555	0.96978
2798.34699	0.96756
2796.41842	0.96573
2794.48986	0.96306
2792.56129	0.95981
2790.63273	0.95662
2788.70416	0.95388
2786.77560	0.95227
2784.84704	0.95151
2782.91847	0.94980
2780.98991	0.94684
2779.06134	0.94408
2777.13278	0.94157
2775.20421	0.93921
2773.27565	0.93772
2771.34708	0.93645
2769.41852	0.93458
2767.48996	0.93262
2765.56139	0.93126
2763.63283	0.93047
2761.70426	0.92913
2759.77570	0.92677
2757.84713	0.92460
2755.91857	0.92299
2753.99001	0.92131
2752.06144	0.91974
2750.13288	0.91873
2748.20431	0.91804
2746.27575	0.91744
2744.34718	0.91688
2742.41862	0.91568
2740.49005	0.91393
2738.56149	0.91256
2736.63293	0.91136
2734.70436	0.90978
2732.77580	0.90825
2730.84723	0.90725
2728.91867	0.90633
2726.99010	0.90511
2725.06154	0.90400
2723.13297	0.90319
2721.20441	0.90196
2719.27585	0.89991
2717.34728	0.89808
2715.41872	0.89698
2713.49015	0.89539
2711.56159	0.89284
2709.63302	0.89036
2707.70446	0.88874
2705.77589	0.88761
2703.84733	0.88611
2701.91877	0.88418
2699.99020	0.88234
2698.06164	0.88048
2696.13307	0.87866
2694.20451	0.87704
2692.27594	0.87530
2690.34738	0.87383
2688.41881	0.87289
2686.49025	0.87113
2684.56169	0.86802
2682.63312	0.86551
2680.70456	0.86451
2678.77599	0.86371
2676.84743	0.86228
2674.91886	0.86026
2672.99030	0.85795
2671.06173	0.85621
2669.13317	0.85520
2667.20461	0.85439
2665.27604	0.85371
2663.34748	0.85291
2661.41891	0.85126
2659.49035	0.84892
2657.56178	0.84674
2655.63322	0.84485
2653.70465	0.84303
2651.77609	0.84131
2649.84753	0.83961
2647.91896	0.83782
2645.99040	0.83594
2644.06183	0.83386
2642.13327	0.83178
2640.20470	0.83024
2638.27614	0.82906
2636.34757	0.82746
2634.41901	0.82541
2632.49045	0.82336
2630.56188	0.82144
2628.63332	0.81990
2626.70475	0.81849
2624.77619	0.81671
2622.84762	0.81510
2620.91906	0.81395
2618.99049	0.81254
2617.06193	0.81078
2615.13337	0.80913
2613.20480	0.80782
2611.27624	0.80676
2609.34767	0.80586
2607.41911	0.80530
2605.49054	0.80488
2603.56198	0.80415
2601.63342	0.80318
2599.70485	0.80226
2597.77629	0.80146
2595.84772	0.80053
2593.91916	0.79943
2591.99059	0.79849
2590.06203	0.79759
2588.13346	0.79619
2586.20490	0.79437
2584.27634	0.79277
2582.34777	0.79180
2580.41921	0.79128
2578.49064	0.79070
2576.56208	0.78977
2574.63351	0.78866
2572.70495	0.78749
2570.77638	0.78613
2568.84782	0.78479
2566.91926	0.78360
2564.99069	0.78223
2563.06213	0.78072
2561.13356	0.77950
2559.20500	0.77891
2557.27643	0.77874
2555.34787	0.77814
2553.41930	0.77696
2551.49074	0.77579
2549.56218	0.77475
2547.63361	0.77372
2545.70505	0.77282
2543.77648	0.77189
2541.84792	0.77077
2539.91935	0.76991
2537.99079	0.76954
2536.06222	0.76922
2534.13366	0.76905
2532.20510	0.76937
2530.27653	0.76954
2528.34797	0.76903
2526.41940	0.76850
2524.49084	0.76834
2522.56227	0.76824
2520.63371	0.76823
2518.70514	0.76854
2516.77658	0.76880
2514.84802	0.76865
2512.91945	0.76845
2510.99089	0.76849
2509.06232	0.76835
2507.13376	0.76798
2505.20519	0.76785
2503.27663	0.76783
2501.34806	0.76725
2499.41950	0.76580
2497.49094	0.76396
2495.56237	0.76259
2493.63381	0.76175
2491.70524	0.76089
2489.77668	0.76008
2487.84811	0.75951
2485.91955	0.75869
2483.99098	0.75706
2482.06242	0.75485
2480.13386	0.75268
2478.20529	0.75073
2476.27673	0.74887
2474.34816	0.74719
2472.41960	0.74557
2470.49103	0.74392
2468.56247	0.74253
2466.63391	0.74132
2464.70534	0.73986
2462.77678	0.73839
2460.84821	0.73717
2458.91965	0.73587
2456.99108	0.73458
2455.06252	0.73366
2453.13395	0.73271
2451.20539	0.73123
2449.27683	0.73001
2447.34826	0.72975
2445.41970	0.72976
2443.49113	0.72950
2441.56257	0.72906
2439.63400	0.72835
2437.70544	0.72748
2435.77687	0.72714
2433.84831	0.72727
2431.91975	0.72685
2429.99118	0.72570
2428.06262	0.72483
2426.13405	0.72469
2424.20549	0.72469
2422.27692	0.72429
2420.34836	0.72350
2418.41979	0.72250
2416.49123	0.72155
2414.56267	0.72071
2412.63410	0.71976
2410.70554	0.71867
2408.77697	0.71729
2406.84841	0.71572
2404.91984	0.71448
2402.99128	0.71347
2401.06271	0.71226
2399.13415	0.71100
2397.20559	0.70999
2395.27702	0.70886
2393.34846	0.70730
2391.41989	0.70559
2389.49133	0.70416
2387.56276	0.70315
2385.63420	0.70246
2383.70563	0.70214
2381.77707	0.70220
2379.84851	0.70212
2377.91994	0.70136
2375.99138	0.70061
2374.06281	0.70125
2372.13425	0.70272
2370.20568	0.70328
2368.27712	0.70373
2366.34855	0.70498
2364.41999	0.70478
2362.49143	0.70300
2360.56286	0.70257
2358.63430	0.70448
2356.70573	0.70639
2354.77717	0.70491
2352.84860	0.70101
2350.92004	0.69780
2348.99147	0.69639
2347.06291	0.69695
2345.13435	0.69885
2343.20578	0.69953
2341.27722	0.69869
2339.34865	0.69853
2337.42009	0.69861
2335.49152	0.69828
2333.56296	0.69835
2331.63440	0.69875
2329.70583	0.69931
2327.77727	0.69969
2325.84870	0.69890
2323.92014	0.69701
2321.99157	0.69516
2320.06301	0.69380
2318.13444	0.69252
2316.20588	0.69105
2314.27732	0.68952
2312.34875	0.68863
2310.42019	0.68840
2308.49162	0.68778
2306.56306	0.68649
2304.63449	0.68518
2302.70593	0.68434
2300.77736	0.68381
2298.84880	0.68315
2296.92024	0.68214
2294.99167	0.68104
2293.06311	0.68023
2291.13454	0.67981
2289.20598	0.67966
2287.27741	0.67954
2285.34885	0.67910
2283.42028	0.67843
2281.49172	0.67805
2279.56316	0.67820
2277.63459	0.67855
2275.70603	0.67864
2273.77746	0.67840
2271.84890	0.67796
2269.92033	0.67758
2267.99177	0.67749
2266.06320	0.67771
2264.13464	0.67795
2262.20608	0.67793
2260.27751	0.67766
2258.34895	0.67730
2256.42038	0.67705
2254.49182	0.67693
2252.56325	0.67680
2250.63469	0.67660
2248.70612	0.67618
2246.77756	0.67556
2244.84900	0.67494
2242.92043	0.67423
2240.99187	0.67333
2239.06330	0.67231
2237.13474	0.67152
2235.20617	0.67114
2233.27761	0.67083
2231.34904	0.67047
2229.42048	0.67027
2227.49192	0.66999
2225.56335	0.66927
2223.63479	0.66851
2221.70622	0.66823
2219.77766	0.66832
2217.84909	0.66844
2215.92053	0.66846
2213.99196	0.66865
2212.06340	0.66918
2210.13484	0.66958
2208.20627	0.66967
2206.27771	0.66999
2204.34914	0.67082
2202.42058	0.67180
2200.49201	0.67270
2198.56345	0.67348
2196.63488	0.67402
2194.70632	0.67448
2192.77776	0.67500
2190.84919	0.67553
2188.92063	0.67610
2186.99206	0.67668
2185.06350	0.67726
2183.13493	0.67773
2181.20637	0.67791
2179.27781	0.67796
2177.34924	0.67800
2175.42068	0.67782
2173.49211	0.67734
2171.56355	0.67694
2169.63498	0.67663
2167.70642	0.67600
2165.77785	0.67508
2163.84929	0.67415
2161.92073	0.67325
2159.99216	0.67239
2158.06360	0.67152
2156.13503	0.67061
2154.20647	0.66974
2152.27790	0.66884
2150.34934	0.66792
2148.42077	0.66735
2146.49221	0.66740
2144.56365	0.66772
2142.63508	0.66773
2140.70652	0.66737
2138.77795	0.66714
2136.84939	0.66725
2134.92082	0.66764
2132.99226	0.66838
2131.06369	0.66934
2129.13513	0.67025
2127.20657	0.67109
2125.27800	0.67186
2123.34944	0.67272
2121.42087	0.67415
2119.49231	0.67601
2117.56374	0.67767
2115.63518	0.67909
2113.70661	0.68048
2111.77805	0.68178
2109.84949	0.68299
2107.92092	0.68408
2105.99236	0.68487
2104.06379	0.68528
2102.13523	0.68539
2100.20666	0.68527
2098.27810	0.68504
2096.34953	0.68457
2094.42097	0.68362
2092.49241	0.68237
2090.56384	0.68123
2088.63528	0.68016
2086.70671	0.67886
2084.77815	0.67724
2082.84958	0.67553
2080.92102	0.67399
2078.99245	0.67248
2077.06389	0.67089
2075.13533	0.66963
2073.20676	0.66893
2071.27820	0.66845
2069.34963	0.66797
2067.42107	0.66776
2065.49250	0.66800
2063.56394	0.66839
2061.63537	0.66865
2059.70681	0.66887
2057.77825	0.66941
2055.84968	0.67044
2053.92112	0.67170
2051.99255	0.67312
2050.06399	0.67477
2048.13542	0.67639
2046.20686	0.67769
2044.27830	0.67897
2042.34973	0.68050
2040.42117	0.68196
2038.49260	0.68314
2036.56404	0.68406
2034.63547	0.68463
2032.70691	0.68503
2030.77834	0.68527
2028.84978	0.68501
2026.92122	0.68411
2024.99265	0.68275
2023.06409	0.68110
2021.13552	0.67918
2019.20696	0.67709
2017.27839	0.67478
2015.34983	0.67219
2013.42126	0.66955
2011.49270	0.66691
2009.56414	0.66419
2007.63557	0.66149
2005.70701	0.65891
2003.77844	0.65658
2001.84988	0.65458
1999.92131	0.65276
1997.99275	0.65122
1996.06418	0.65021
1994.13562	0.64951
1992.20706	0.64859
1990.27849	0.64741
1988.34993	0.64665
1986.42136	0.64660
1984.49280	0.64685
1982.56423	0.64729
1980.63567	0.64797
1978.70710	0.64877
1976.77854	0.64961
1974.84998	0.65050
1972.92141	0.65149
1970.99285	0.65266
1969.06428	0.65408
1967.13572	0.65550
1965.20715	0.65633
1963.27859	0.65671
1961.35002	0.65734
1959.42146	0.65823
1957.49290	0.65898
1955.56433	0.65958
1953.63577	0.66014
1951.70720	0.66042
1949.77864	0.66042
1947.85007	0.66032
1945.92151	0.65986
1943.99294	0.65898
1942.06438	0.65788
1940.13582	0.65638
1938.20725	0.65472
1936.27869	0.65334
1934.35012	0.65202
1932.42156	0.65048
1930.49299	0.64895
1928.56443	0.64764
1926.63586	0.64661
1924.70730	0.64596
1922.77874	0.64515
1920.85017	0.64394
1918.92161	0.64312
1916.99304	0.64276
1915.06448	0.64235
1913.13591	0.64225
1911.20735	0.64273
1909.27878	0.64355
1907.35022	0.64453
1905.42166	0.64561
1903.49309	0.64682
1901.56453	0.64807
1899.63596	0.64932
1897.70740	0.65090
1895.77883	0.65309
1893.85027	0.65533
1891.92171	0.65720
1889.99314	0.65897
1888.06458	0.66052
1886.13601	0.66177
1884.20745	0.66294
1882.27888	0.66393
1880.35032	0.66450
1878.42175	0.66472
1876.49319	0.66484
1874.56463	0.66492
1872.63606	0.66499
1870.70750	0.66521
1868.77893	0.66525
1866.85037	0.66392
1864.92180	0.66175
1862.99324	0.65985
1861.06467	0.65837
1859.13611	0.65724
1857.20755	0.65642
1855.27898	0.65556
1853.35042	0.65448
1851.42185	0.65351
1849.49329	0.65296
1847.56472	0.65276
1845.63616	0.65285
1843.70759	0.65269
1841.77903	0.65199
1839.85047	0.65140
1837.92190	0.65129
1835.99334	0.65155
1834.06477	0.65191
1832.13621	0.65262
1830.20764	0.65393
1828.27908	0.65537
1826.35051	0.65675
1824.42195	0.65818
1822.49339	0.65914
1820.56482	0.65986
1818.63626	0.66088
1816.70769	0.66196
1814.77913	0.66294
1812.85056	0.66408
1810.92200	0.66520
1808.99343	0.66569
1807.06487	0.66567
1805.13631	0.66557
1803.20774	0.66559
1801.27918	0.66568
1799.35061	0.66542
1797.42205	0.66468
1795.49348	0.66393
1793.56492	0.66357
1791.63635	0.66320
1789.70779	0.66195
1787.77923	0.66054
1785.85066	0.65957
1783.92210	0.65879
1781.99353	0.65788
1780.06497	0.65685
1778.13640	0.65581
1776.20784	0.65483
1774.27927	0.65428
1772.35071	0.65380
1770.42215	0.65233
1768.49358	0.65062
1766.56502	0.64943
1764.63645	0.64890
1762.70789	0.64911
1760.77932	0.64985
1758.85076	0.65094
1756.92220	0.65319
1754.99363	0.65608
1753.06507	0.65946
1751.13650	0.66572
1749.20794	0.67487
1747.27937	0.68247
1745.35081	0.68789
1743.42224	0.69251
1741.49368	0.69667
1739.56512	0.70021
1737.63655	0.70248
1735.70799	0.70411
1733.77942	0.70660
1731.85086	0.70805
1729.92229	0.70854
1727.99373	0.70970
1726.06516	0.71191
1724.13660	0.71599
1722.20804	0.72096
1720.27947	0.72587
1718.35091	0.73417
1716.42234	0.74824
1714.49378	0.75949
1712.56521	0.76844
1710.63665	0.77930
1708.70808	0.79314
1706.77952	0.81369
1704.85096	0.84050
1702.92239	0.86488
1700.99383	0.89921
1699.06526	0.95372
1697.13670	1.00511
1695.20813	1.05427
1693.27957	1.09024
1691.35100	1.11792
1689.42244	1.15006
1687.49388	1.17904
1685.56531	1.20677
1683.63675	1.24615
1681.70818	1.27119
1679.77962	1.28297
1677.85105	1.29400
1675.92249	1.30635
1673.99392	1.31819
1672.06536	1.32670
1670.13680	1.33236
1668.20823	1.33557
1666.27967	1.33659
1664.35110	1.33754
1662.42254	1.33827
1660.49397	1.33747
1658.56541	1.33580
1656.63684	1.33304
1654.70828	1.32781
1652.77972	1.31906
1650.85115	1.31657
1648.92259	1.31723
1646.99402	1.31592
1645.06546	1.31144
1643.13689	1.30713
1641.20833	1.30366
1639.27976	1.30001
1637.35120	1.29516
1635.42264	1.28701
1633.49407	1.27867
1631.56551	1.27172
1629.63694	1.26381
1627.70838	1.25548
1625.77981	1.24788
1623.85125	1.23890
1621.92269	1.22940
1619.99412	1.22310
1618.06556	1.21667
1616.13699	1.20498
1614.20843	1.19364
1612.27986	1.18512
1610.35130	1.17711
1608.42273	1.16918
1606.49417	1.16231
1604.56561	1.15753
1602.63704	1.15486
1600.70848	1.15358
1598.77991	1.15240
1596.85135	1.15090
1594.92278	1.15016
1592.99422	1.15137
1591.06565	1.15358
1589.13709	1.15555
1587.20853	1.15810
1585.27996	1.16188
1583.35140	1.16650
1581.42283	1.17121
1579.49427	1.17599
1577.56570	1.18309
1575.63714	1.19265
1573.70857	1.19825
1571.78001	1.20205
1569.85145	1.20798
1567.92288	1.21412
1565.99432	1.21924
1564.06575	1.22439
1562.13719	1.22773
1560.20862	1.23086
1558.28006	1.24011
1556.35149	1.24640
1554.42293	1.24779
1552.49437	1.24703
1550.56580	1.24493
1548.63724	1.24229
1546.70867	1.24008
1544.78011	1.23847
1542.85154	1.23699
1540.92298	1.23122
1538.99441	1.22214
1537.06585	1.21960
1535.13729	1.21838
1533.20872	1.21443
1531.28016	1.20950
1529.35159	1.20637
1527.42303	1.20434
1525.49446	1.20261
1523.56590	1.20007
1521.63733	1.19580
1519.70877	1.19248
1517.78021	1.18809
1515.85164	1.17915
1513.92308	1.16842
1511.99451	1.15853
1510.06595	1.15072
1508.13738	1.14035
1506.20882	1.11705
1504.28025	1.10167
1502.35169	1.09287
1500.42313	1.08369
1498.49456	1.07109
1496.56600	1.05440
1494.63743	1.04074
1492.70887	1.03148
1490.78030	1.02090
1488.85174	1.00632
1486.92317	0.99449
1484.99461	0.98724
1483.06605	0.98300
1481.13748	0.98130
1479.20892	0.98197
1477.28035	0.98583
1475.35179	0.99390
1473.42322	1.00754
1471.49466	1.02285
1469.56610	1.03271
1467.63753	1.04063
1465.70897	1.05129
1463.78040	1.06338
1461.85184	1.07127
1459.92327	1.07729
1457.99471	1.08899
1456.06614	1.10255
1454.13758	1.10680
1452.20902	1.10911
1450.28045	1.11182
1448.35189	1.11430
1446.42332	1.11631
1444.49476	1.11767
1442.56619	1.11831
1440.63763	1.11880
1438.70906	1.11924
1436.78050	1.11792
1434.85194	1.11398
1432.92337	1.11014
1430.99481	1.10670
1429.06624	1.10327
1427.13768	1.10072
1425.20911	1.09894
1423.28055	1.09709
1421.35198	1.09546
1419.42342	1.09418
1417.49486	1.09193
1415.56629	1.08912
1413.63773	1.08651
1411.70916	1.08353
1409.78060	1.07998
1407.85203	1.07660
1405.92347	1.07427
1403.99490	1.07327
1402.06634	1.07293
1400.13778	1.07294
1398.20921	1.07352
1396.28065	1.07506
1394.35208	1.07736
1392.42352	1.07960
1390.49495	1.08264
1388.56639	1.08908
1386.63782	1.10019
1384.70926	1.11224
1382.78070	1.12237
1380.85213	1.12977
1378.92357	1.13409
1376.99500	1.13625
1375.06644	1.13618
1373.13787	1.13337
1371.20931	1.12949
1369.28074	1.12512
1367.35218	1.12028
1365.42362	1.11660
1363.49505	1.11458
1361.56649	1.11338
1359.63792	1.11277
1357.70936	1.11249
1355.78079	1.11166
1353.85223	1.10977
1351.92366	1.10691
1349.99510	1.10295
1348.06654	1.09816
1346.13797	1.09351
1344.20941	1.08916
1342.28084	1.08486
1340.35228	1.08017
1338.42371	1.07463
1336.49515	1.06974
1334.56659	1.06710
1332.63802	1.06630
1330.70946	1.06573
1328.78089	1.06387
1326.85233	1.06063
1324.92376	1.05752
1322.99520	1.05588
1321.06663	1.05562
1319.13807	1.05559
1317.20951	1.05543
1315.28094	1.05562
1313.35238	1.05610
1311.42381	1.05669
1309.49525	1.05723
1307.56668	1.05771
1305.63812	1.05882
1303.70955	1.06067
1301.78099	1.06251
1299.85243	1.06390
1297.92386	1.06475
1295.99530	1.06547
1294.06673	1.06718
1292.13817	1.07048
1290.20960	1.07505
1288.28104	1.07992
1286.35247	1.08429
1284.42391	1.08855
1282.49535	1.09307
1280.56678	1.09724
1278.63822	1.10072
1276.70965	1.10377
1274.78109	1.10642
1272.85252	1.10845
1270.92396	1.10982
1268.99539	1.11112
1267.06683	1.11263
1265.13827	1.11317
1263.20970	1.11116
1261.28114	1.10680
1259.35257	1.10171
1257.42401	1.09634
1255.49544	1.09049
1253.56688	1.08492
1251.63831	1.08002
1249.70975	1.07556
1247.78119	1.07172
1245.85262	1.06837
1243.92406	1.06533
1241.99549	1.06265
1240.06693	1.06021
1238.13836	1.05827
1236.20980	1.05704
1234.28123	1.05602
1232.35267	1.05461
1230.42411	1.05303
1228.49554	1.05194
1226.56698	1.05152
1224.63841	1.05159
1222.70985	1.05213
1220.78128	1.05330
1218.85272	1.05541
1216.92415	1.05875
1214.99559	1.06372
1213.06703	1.07050
1211.13846	1.07857
1209.20990	1.08640
1207.28133	1.09252
1205.35277	1.09591
1203.42420	1.09563
1201.49564	1.09272
1199.56708	1.08916
1197.63851	1.08471
1195.70995	1.07792
1193.78138	1.06881
1191.85282	1.05914
1189.92425	1.05017
1187.99569	1.04191
1186.06712	1.03447
1184.13856	1.02860
1182.21000	1.02446
1180.28143	1.02189
1178.35287	1.02153
1176.42430	1.02390
1174.49574	1.02870
1172.56717	1.03529
1170.63861	1.04384
1168.71004	1.05544
1166.78148	1.07004
1164.85292	1.08651
1162.92435	1.10283
1160.99579	1.11608
1159.06722	1.12485
1157.13866	1.12959
1155.21009	1.13119
1153.28153	1.13071
1151.35296	1.12890
1149.42440	1.12618
1147.49584	1.12422
1145.56727	1.12509
1143.63871	1.12898
1141.71014	1.13540
1139.78158	1.14479
1137.85301	1.15683
1135.92445	1.17020
1133.99588	1.18498
1132.06732	1.20146
1130.13876	1.21871
1128.21019	1.23609
1126.28163	1.25271
1124.35306	1.26639
1122.42450	1.27514
1120.49593	1.27930
1118.56737	1.28053
1116.63880	1.27978
1114.71024	1.27776
1112.78168	1.27476
1110.85311	1.27134
1108.92455	1.26825
1106.99598	1.26482
1105.06742	1.25972
1103.13885	1.25281
1101.21029	1.24610
1099.28172	1.24113
1097.35316	1.23705
1095.42460	1.23351
1093.49603	1.23111
1091.56747	1.23003
1089.63890	1.23033
1087.71034	1.23197
1085.78177	1.23375
1083.85321	1.23393
1081.92464	1.23253
1079.99608	1.22957
1078.06752	1.22422
1076.13895	1.21754
1074.21039	1.21078
1072.28182	1.20329
1070.35326	1.19540
1068.42469	1.18892
1066.49613	1.18533
1064.56756	1.18526
1062.63900	1.18719
1060.71044	1.18907
1058.78187	1.19100
1056.85331	1.19385
1054.92474	1.19792
1052.99618	1.20275
1051.06761	1.20717
1049.13905	1.21099
1047.21049	1.21546
1045.28192	1.22052
1043.35336	1.22450
1041.42479	1.22724
1039.49623	1.23004
1037.56766	1.23288
1035.63910	1.23391
1033.71053	1.23203
1031.78197	1.22857
1029.85341	1.22538
1027.92484	1.22226
1025.99628	1.21675
1024.06771	1.20833
1022.13915	1.20005
1020.21058	1.19340
1018.28202	1.18737
1016.35345	1.18043
1014.42489	1.16987
1012.49633	1.15524
1010.56776	1.13929
1008.63920	1.12293
1006.71063	1.10587
1004.78207	1.08871
1002.85350	1.07218
1000.92494	1.05710
998.99637	1.04448
997.06781	1.03479
995.13925	1.02715
993.21068	1.02036
991.28212	1.01441
989.35355	1.00922
987.42499	1.00373
985.49642	0.99755
983.56786	0.99156
981.63929	0.98722
979.71073	0.98533
977.78217	0.98500
975.85360	0.98479
973.92504	0.98396
971.99647	0.98256
970.06791	0.98094
968.13934	0.97872
966.21078	0.97571
964.28221	0.97301
962.35365	0.97194
960.42509	0.97305
958.49652	0.97534
956.56796	0.97602
954.63939	0.97281
952.71083	0.96599
950.78226	0.95628
948.85370	0.94404
946.92513	0.93111
944.99657	0.91967
943.06801	0.91035
941.13944	0.90284
939.21088	0.89642
937.28231	0.89051
935.35375	0.88554
933.42518	0.88194
931.49662	0.87944
929.56805	0.87779
927.63949	0.87716
925.71093	0.87782
923.78236	0.87933
921.85380	0.88068
919.92523	0.88158
917.99667	0.88223
916.06810	0.88277
914.13954	0.88326
912.21098	0.88385
910.28241	0.88530
908.35385	0.88845
906.42528	0.89324
904.49672	0.89868
902.56815	0.90370
900.63959	0.90793
898.71102	0.91092
896.78246	0.91225
894.85390	0.91237
892.92533	0.91154
890.99677	0.90953
889.06820	0.90683
887.13964	0.90413
885.21107	0.90174
883.28251	0.89995
881.35394	0.89885
879.42538	0.89838
877.49682	0.89847
875.56825	0.89839
873.63969	0.89725
871.71112	0.89492
869.78256	0.89181
867.85399	0.88888
865.92543	0.88715
863.99686	0.88666
862.06830	0.88695
860.13974	0.88818
858.21117	0.89028
856.28261	0.89256
854.35404	0.89520
852.42548	0.89876
850.49691	0.90273
848.56835	0.90642
846.63978	0.90986
844.71122	0.91343
842.78266	0.91741
840.85409	0.92172
838.92553	0.92625
836.99696	0.93140
835.06840	0.93723
833.13983	0.94317
831.21127	0.94869
829.28270	0.95363
827.35414	0.95889
825.42558	0.96528
823.49701	0.97190
821.56845	0.97733
819.63988	0.98109
817.71132	0.98398
815.78275	0.98691
813.85419	0.98950
811.92562	0.99130
809.99706	0.99266
808.06850	0.99327
806.13993	0.99180
804.21137	0.98807
802.28280	0.98366
800.35424	0.97943
798.42567	0.97493
796.49711	0.97030
794.56854	0.96621
792.63998	0.96304
790.71142	0.96076
788.78285	0.95918
786.85429	0.95824
784.92572	0.95814
782.99716	0.95948
781.06859	0.96249
779.14003	0.96666
777.21147	0.97174
775.28290	0.97800
773.35434	0.98554
771.42577	0.99374
769.49721	1.00128
767.56864	1.00700
765.64008	1.01137
763.71151	1.01583
761.78295	1.02037
759.85439	1.02470
757.92582	1.02922
755.99726	1.03354
754.06869	1.03692
752.14013	1.03894
750.21156	1.04016
748.28300	1.04175
746.35443	1.04264
744.42587	1.04071
742.49731	1.03701
740.56874	1.03348
738.64018	1.02935
736.71161	1.02382
734.78305	1.01757
732.85448	1.01094
730.92592	1.00430
728.99735	0.99753
727.06879	0.99047
725.14023	0.98456
723.21166	0.98055
721.28310	0.97725
719.35453	0.97394
717.42597	0.97114
715.49740	0.96968
713.56884	0.97081
711.64027	0.97470
709.71171	0.97921
707.78315	0.98310
705.85458	0.98781
703.92602	0.99407
701.99745	1.00053
700.06889	1.00687
698.14032	1.01379
696.21176	1.02055
694.28319	1.02654
692.35463	1.03262
690.42607	1.03948
688.49750	1.04752
686.56894	1.05580
684.64037	1.06166
682.71181	1.06578
680.78324	1.07064
678.85468	1.07407
676.92611	1.07343
674.99755	1.07010
673.06899	1.06635
671.14042	1.06325
669.21186	1.05888
667.28329	1.05083
665.35473	1.04391
663.42616	1.03751
661.49760	1.02935
659.56903	1.01995
657.64047	1.01060
655.71191	1.00229
653.78334	0.99425
651.85478	0.98595
649.92621	0.97938
647.99765	0.97544
646.06908	0.97242
644.14052	0.96908
642.21195	0.96521
640.28339	0.96104
638.35483	0.95806
636.42626	0.95806
634.49770	0.96052
632.56913	0.96263
630.64057	0.96328
628.71200	0.96297
626.78344	0.96208
624.85488	0.96266
622.92631	0.96665
620.99775	0.97353
619.06918	0.98172
617.14062	0.99004
615.21205	0.99807
613.28349	1.00555
611.35492	1.01253
609.42636	1.02087
607.49780	1.03166
605.56923	1.04234
603.64067	1.05015
601.71210	1.05561
599.78354	1.06207
