3997.91406	0.69590
3995.98550	0.69544
3994.05693	0.69548
3992.12837	0.69635
3990.19980	0.69818
3988.27124	0.70031
3986.34268	0.70129
3984.41411	0.70055
3982.48555	0.69842
3980.55698	0.69604
3978.62842	0.69401
3976.69985	0.69284
3974.77129	0.69322
3972.84272	0.69432
3970.91416	0.69479
3968.98560	0.69425
3967.05703	0.69339
3965.12847	0.69268
3963.19990	0.69194
3961.27134	0.69202
3959.34277	0.69285
3957.41421	0.69339
3955.48564	0.69391
3953.55708	0.69379
3951.62852	0.69241
3949.69995	0.69148
3947.77139	0.69142
3945.84282	0.68998
3943.91426	0.68810
3941.98569	0.68866
3940.05713	0.69008
3938.12856	0.69055
3936.20000	0.69055
3934.27144	0.69058
3932.34287	0.69178
3930.41431	0.69274
3928.48574	0.69085
3926.55718	0.68761
3924.62861	0.68541
3922.70005	0.68480
3920.77148	0.68522
3918.84292	0.68676
3916.91436	0.68753
3914.98579	0.68543
3913.05723	0.68288
3911.12866	0.68205
3909.20010	0.68273
3907.27153	0.68371
3905.34297	0.68352
3903.41440	0.68273
3901.48584	0.68395
3899.55728	0.68629
3897.62871	0.68681
3895.70015	0.68561
3893.77158	0.68459
3891.84302	0.68428
3889.91445	0.68372
3887.98589	0.68368
3886.05733	0.68513
3884.12876	0.68495
3882.20020	0.68234
3880.27163	0.68123
3878.34307	0.68032
3876.41450	0.67726
3874.48594	0.67496
3872.55737	0.67648
3870.62881	0.67918
3868.70025	0.67914
3866.77168	0.67822
3864.84312	0.67911
3862.91455	0.67934
3860.98599	0.67622
3859.05742	0.67227
3857.12886	0.66832
3855.20029	0.66469
3853.27173	0.66896
3851.34317	0.67652
3849.41460	0.67744
3847.48604	0.67579
3845.55747	0.67458
3843.62891	0.67462
3841.70034	0.67456
3839.77178	0.67490
3837.84321	0.67588
3835.91465	0.67433
3833.98609	0.67193
3832.05752	0.67047
3830.12896	0.66950
3828.20039	0.66972
3826.27183	0.67053
3824.34326	0.66811
3822.41470	0.66257
3820.48613	0.66007
3818.55757	0.66152
3816.62901	0.66469
3814.70044	0.66791
3812.77188	0.66707
3810.84331	0.66433
3808.91475	0.66306
3806.98618	0.66407
3805.05762	0.66423
3803.12905	0.66306
3801.20049	0.66339
3799.27193	0.66394
3797.34336	0.66421
3795.41480	0.66537
3793.48623	0.66594
3791.55767	0.66609
3789.62910	0.66642
3787.70054	0.66609
3785.77197	0.66528
3783.84341	0.66438
3781.91485	0.66356
3779.98628	0.66381
3778.05772	0.66383
3776.12915	0.66228
3774.20059	0.66080
3772.27202	0.66054
3770.34346	0.66123
3768.41489	0.66124
3766.48633	0.66120
3764.55777	0.66202
3762.62920	0.66189
3760.70064	0.66120
3758.77207	0.66162
3756.84351	0.66155
3754.91494	0.65964
3752.98638	0.65701
3751.05781	0.65735
3749.12925	0.65942
3747.20069	0.65781
3745.27212	0.65616
3743.34356	0.65846
3741.41499	0.66027
3739.48643	0.66018
3737.55786	0.65906
3735.62930	0.65633
3733.70074	0.65599
3731.77217	0.65822
3729.84361	0.65796
3727.91504	0.65619
3725.98648	0.65640
3724.05791	0.65901
3722.12935	0.66088
3720.20078	0.66085
3718.27222	0.65922
3716.34366	0.65642
3714.41509	0.65388
3712.48653	0.65445
3710.55796	0.65926
3708.62940	0.66200
3706.70083	0.66175
3704.77227	0.66108
3702.84370	0.66152
3700.91514	0.66306
3698.98658	0.66455
3697.05801	0.66583
3695.12945	0.66553
3693.20088	0.66241
3691.27232	0.65951
3689.34375	0.66346
3687.41519	0.66939
3685.48662	0.67054
3683.55806	0.67008
3681.62950	0.67055
3679.70093	0.67196
3677.77237	0.67328
3675.84380	0.67599
3673.91524	0.67792
3671.98667	0.67718
3670.05811	0.68033
3668.12954	0.68667
3666.20098	0.69065
3664.27242	0.69389
3662.34385	0.69618
3660.41529	0.69662
3658.48672	0.69788
3656.55816	0.70294
3654.62959	0.70696
3652.70103	0.70676
3650.77246	0.70704
3648.84390	0.71363
3646.91534	0.72158
3644.98677	0.72533
3643.05821	0.72724
3641.12964	0.72970
3639.20108	0.73342
3637.27251	0.73769
3635.34395	0.74170
3633.41538	0.74418
3631.48682	0.74497
3629.55826	0.74892
3627.62969	0.75708
3625.70113	0.76135
3623.77256	0.76342
3621.84400	0.76587
3619.91543	0.77201
3617.98687	0.78086
3616.05830	0.78593
3614.12974	0.78945
3612.20118	0.79322
3610.27261	0.79660
3608.34405	0.80254
3606.41548	0.81013
3604.48692	0.81526
3602.55835	0.81887
3600.62979	0.82208
3598.70123	0.82504
3596.77266	0.82936
3594.84410	0.83624
3592.91553	0.84242
3590.98697	0.84426
3589.05840	0.84490
3587.12984	0.85042
3585.20127	0.85751
3583.27271	0.86238
3581.34415	0.86761
3579.41558	0.87287
3577.48702	0.87698
3575.55845	0.88120
3573.62989	0.88548
3571.70132	0.88879
3569.77276	0.89152
3567.84419	0.89652
3565.91563	0.90584
3563.98707	0.91470
3562.05850	0.92147
3560.12994	0.92668
3558.20137	0.93041
3556.27281	0.93381
3554.34424	0.93752
3552.41568	0.94030
3550.48711	0.94247
3548.55855	0.94614
3546.62999	0.95170
3544.70142	0.95813
3542.77286	0.96393
3540.84429	0.96974
3538.91573	0.97641
3536.98716	0.98360
3535.05860	0.99078
3533.13003	0.99627
3531.20147	1.00021
3529.27291	1.00454
3527.34434	1.01017
3525.41578	1.01764
3523.48721	1.02547
3521.55865	1.03228
3519.63008	1.04051
3517.70152	1.05073
3515.77295	1.06026
3513.84439	1.06867
3511.91583	1.07634
3509.98726	1.08252
3508.05870	1.08892
3506.13013	1.09654
3504.20157	1.10320
3502.27300	1.10999
3500.34444	1.12055
3498.41587	1.13292
3496.48731	1.14299
3494.55875	1.14808
3492.63018	1.14871
3490.70162	1.14893
3488.77305	1.15112
3486.84449	1.15391
3484.91592	1.15603
3482.98736	1.16037
3481.05879	1.16890
3479.13023	1.17724
3477.20167	1.18192
3475.27310	1.18318
3473.34454	1.18411
3471.41597	1.18860
3469.48741	1.19613
3467.55884	1.20270
3465.63028	1.20606
3463.70171	1.20836
3461.77315	1.21180
3459.84459	1.21528
3457.91602	1.21737
3455.98746	1.21985
3454.05889	1.22364
3452.13033	1.22701
3450.20176	1.23058
3448.27320	1.23524
3446.34464	1.23956
3444.41607	1.24229
3442.48751	1.24327
3440.55894	1.24390
3438.63038	1.24641
3436.70181	1.24967
3434.77325	1.25118
3432.84468	1.25265
3430.91612	1.25427
3428.98756	1.25249
3427.05899	1.24941
3425.13043	1.25075
3423.20186	1.25560
3421.27330	1.25813
3419.34473	1.25751
3417.41617	1.25651
3415.48760	1.25720
3413.55904	1.26020
3411.63048	1.26183
3409.70191	1.26024
3407.77335	1.25753
3405.84478	1.25521
3403.91622	1.25628
3401.98765	1.26113
3400.05909	1.26482
3398.13052	1.26694
3396.20196	1.26988
3394.27340	1.27088
3392.34483	1.26905
3390.41627	1.26765
3388.48770	1.26797
3386.55914	1.27045
3384.63057	1.27491
3382.70201	1.27995
3380.77344	1.28511
3378.84488	1.28992
3376.91632	1.29265
3374.98775	1.29304
3373.05919	1.29372
3371.13062	1.29578
3369.20206	1.29635
3367.27349	1.29521
3365.34493	1.29667
3363.41636	1.30196
3361.48780	1.30868
3359.55924	1.31441
3357.63067	1.31775
3355.70211	1.32131
3353.77354	1.32722
3351.84498	1.33135
3349.91641	1.33220
3347.98785	1.33332
3346.05928	1.33346
3344.13072	1.33190
3342.20216	1.33381
3340.27359	1.33868
3338.34503	1.34144
3336.41646	1.34127
3334.48790	1.34051
3332.55933	1.34332
3330.63077	1.34923
3328.70220	1.35362
3326.77364	1.35662
3324.84508	1.35870
3322.91651	1.35960
3320.98795	1.36227
3319.05938	1.36871
3317.13082	1.37617
3315.20225	1.37943
3313.27369	1.37923
3311.34513	1.38048
3309.41656	1.38381
3307.48800	1.38828
3305.55943	1.39318
3303.63087	1.39595
3301.70230	1.39598
3299.77374	1.39665
3297.84517	1.40006
3295.91661	1.40548
3293.98805	1.41152
3292.05948	1.41409
3290.13092	1.41009
3288.20235	1.40595
3286.27379	1.40638
3284.34522	1.40481
3282.41666	1.39877
3280.48809	1.39450
3278.55953	1.39490
3276.63097	1.39634
3274.70240	1.39302
3272.77384	1.38650
3270.84527	1.38205
3268.91671	1.37914
3266.98814	1.37765
3265.05958	1.37818
3263.13101	1.37592
3261.20245	1.36673
3259.27389	1.35435
3257.34532	1.34465
3255.41676	1.33878
3253.48819	1.33511
3251.55963	1.33026
3249.63106	1.32297
3247.70250	1.31696
3245.77393	1.31310
3243.84537	1.30893
3241.91681	1.30430
3239.98824	1.29864
3238.05968	1.29179
3236.13111	1.28663
3234.20255	1.28295
3232.27398	1.27841
3230.34542	1.27504
3228.41685	1.27264
3226.48829	1.26948
3224.55973	1.26892
3222.63116	1.26969
3220.70260	1.26658
3218.77403	1.26059
3216.84547	1.25431
3214.91690	1.24899
3212.98834	1.24553
3211.05977	1.24311
3209.13121	1.24166
3207.20265	1.24085
3205.27408	1.23796
3203.34552	1.23326
3201.41695	1.23020
3199.48839	1.22885
3197.55982	1.22715
3195.63126	1.22452
3193.70269	1.22073
3191.77413	1.21516
3189.84557	1.20710
3187.91700	1.19906
3185.98844	1.19607
3184.05987	1.19727
3182.13131	1.19652
3180.20274	1.19277
3178.27418	1.18922
3176.34562	1.18517
3174.41705	1.17927
3172.48849	1.17443
3170.55992	1.17227
3168.63136	1.17135
3166.70279	1.16966
3164.77423	1.16662
3162.84566	1.16470
3160.91710	1.16432
3158.98854	1.16301
3157.05997	1.15980
3155.13141	1.15441
3153.20284	1.14888
3151.27428	1.14651
3149.34571	1.14641
3147.41715	1.14478
3145.48858	1.13941
3143.56002	1.13265
3141.63146	1.12954
3139.70289	1.13144
3137.77433	1.13402
3135.84576	1.13368
3133.91720	1.13313
3131.98863	1.13460
3130.06007	1.13436
3128.13150	1.13069
3126.20294	1.12798
3124.27438	1.12929
3122.34581	1.13204
3120.41725	1.13226
3118.48868	1.13011
3116.56012	1.12852
3114.63155	1.12846
3112.70299	1.12885
3110.77442	1.12910
3108.84586	1.12940
3106.91730	1.13032
3104.98873	1.13227
3103.06017	1.13448
3101.13160	1.13467
3099.20304	1.13228
3097.27447	1.13022
3095.34591	1.13028
3093.41734	1.13094
3091.48878	1.13007
3089.56022	1.12816
3087.63165	1.12727
3085.70309	1.12712
3083.77452	1.12647
3081.84596	1.12601
3079.91739	1.12606
3077.98883	1.12440
3076.06026	1.12034
3074.13170	1.11716
3072.20314	1.11623
3070.27457	1.11479
3068.34601	1.11151
3066.41744	1.10808
3064.48888	1.10458
3062.56031	1.10130
3060.63175	1.10022
3058.70318	1.09916
3056.77462	1.09547
3054.84606	1.09162
3052.91749	1.08961
3050.98893	1.08707
3049.06036	1.08134
3047.13180	1.07508
3045.20323	1.07174
3043.27467	1.06968
3041.34610	1.06618
3039.41754	1.06120
3037.48898	1.05636
3035.56041	1.05237
3033.63185	1.04879
3031.70328	1.04597
3029.77472	1.04337
3027.84615	1.04014
3025.91759	1.03756
3023.98903	1.03592
3022.06046	1.03385
3020.13190	1.03116
3018.20333	1.02797
3016.27477	1.02448
3014.34620	1.02158
3012.41764	1.02011
3010.48907	1.02050
3008.56051	1.02134
3006.63195	1.02042
3004.70338	1.01752
3002.77482	1.01436
3000.84625	1.01223
2998.91769	1.01100
2996.98912	1.01086
2995.06056	1.01217
2993.13199	1.01424
2991.20343	1.01680
2989.27487	1.02098
2987.34630	1.02712
2985.41774	1.03377
2983.48917	1.03984
2981.56061	1.04580
2979.63204	1.05233
2977.70348	1.05922
2975.77491	1.06632
2973.84635	1.07455
2971.91779	1.08373
2969.98922	1.09189
2968.06066	1.09866
2966.13209	1.10547
2964.20353	1.11123
2962.27496	1.11431
2960.34640	1.11549
2958.41783	1.11395
2956.48927	1.10832
2954.56071	1.10054
2952.63214	1.09369
2950.70358	1.08863
2948.77501	1.08529
2946.84645	1.08536
2944.91788	1.08918
2942.98932	1.09398
2941.06075	1.09922
2939.13219	1.10627
2937.20363	1.11499
2935.27506	1.12464
2933.34650	1.13436
2931.41793	1.14309
2929.48937	1.15082
2927.56080	1.15803
2925.63224	1.16504
2923.70367	1.17189
2921.77511	1.17775
2919.84655	1.18091
2917.91798	1.17795
2915.98942	1.16505
2914.06085	1.14343
2912.13229	1.11972
2910.20372	1.09941
2908.27516	1.08395
2906.34659	1.07329
2904.41803	1.06611
2902.48947	1.05978
2900.56090	1.05380
2898.63234	1.04956
2896.70377	1.04674
2894.77521	1.04386
2892.84664	1.04026
2890.91808	1.03610
2888.98952	1.03203
2887.06095	1.02834
2885.13239	1.02546
2883.20382	1.02477
2881.27526	1.02651
2879.34669	1.02891
2877.41813	1.03009
2875.48956	1.02953
2873.56100	1.02739
2871.63244	1.02333
2869.70387	1.01712
2867.77531	1.01028
2865.84674	1.00512
2863.91818	1.00220
2861.98961	1.00102
2860.06105	1.00178
2858.13248	1.00447
2856.20392	1.00890
2854.27536	1.01502
2852.34679	1.02092
2850.41823	1.02138
2848.48966	1.01045
2846.56110	0.98819
2844.63253	0.96289
2842.70397	0.94306
2840.77540	0.92982
2838.84684	0.91986
2836.91828	0.91176
2834.98971	0.90575
2833.06115	0.90082
2831.13258	0.89589
2829.20402	0.89159
2827.27545	0.88852
2825.34689	0.88577
2823.41832	0.88269
2821.48976	0.87981
2819.56120	0.87713
2817.63263	0.87369
2815.70407	0.86963
2813.77550	0.86614
2811.84694	0.86338
2809.91837	0.86065
2807.98981	0.85745
2806.06124	0.85348
2804.13268	0.84929
2802.20412	0.84615
2800.27555	0.84370
2798.34699	0.84090
2796.41842	0.83801
2794.48986	0.83545
2792.56129	0.83334
2790.63273	0.83159
2788.70416	0.82946
2786.77560	0.82629
2784.84704	0.82244
2782.91847	0.81908
2780.98991	0.81672
2779.06134	0.81476
2777.13278	0.81256
2775.20421	0.81014
2773.27565	0.80806
2771.34708	0.80623
2769.41852	0.80428
2767.48996	0.80259
2765.56139	0.80122
2763.63283	0.79931
2761.70426	0.79642
2759.77570	0.79324
2757.84713	0.79061
2755.91857	0.78855
2753.99001	0.78686
2752.06144	0.78566
2750.13288	0.78470
2748.20431	0.78301
2746.27575	0.78053
2744.34718	0.77827
2742.41862	0.77677
2740.49005	0.77599
2738.56149	0.77510
2736.63293	0.77324
2734.70436	0.77100
2732.77580	0.76884
2730.84723	0.76682
2728.91867	0.76516
2726.99010	0.76352
2725.06154	0.76182
2723.13297	0.76010
2721.20441	0.75798
2719.27585	0.75556
2717.34728	0.75336
2715.41872	0.75159
2713.49015	0.75015
2711.56159	0.74863
2709.63302	0.74680
2707.70446	0.74509
2705.77589	0.74339
2703.84733	0.74115
2701.91877	0.73892
2699.99020	0.73763
2698.06164	0.73718
2696.13307	0.73646
2694.20451	0.73498
2692.27594	0.73356
2690.34738	0.73250
2688.41881	0.73113
2686.49025	0.72912
2684.56169	0.72690
2682.63312	0.72529
2680.70456	0.72462
2678.77599	0.72388
2676.84743	0.72204
2674.91886	0.71979
2672.99030	0.71815
2671.06173	0.71684
2669.13317	0.71513
2667.20461	0.71327
2665.27604	0.71189
2663.34748	0.71077
2661.41891	0.70944
2659.49035	0.70801
2657.56178	0.70665
2655.63322	0.70523
2653.70465	0.70381
2651.77609	0.70267
2649.84753	0.70128
2647.91896	0.69923
2645.99040	0.69740
2644.06183	0.69630
2642.13327	0.69519
2640.20470	0.69392
2638.27614	0.69303
2636.34757	0.69213
2634.41901	0.69075
2632.49045	0.68936
2630.56188	0.68818
2628.63332	0.68696
2626.70475	0.68567
2624.77619	0.68449
2622.84762	0.68355
2620.91906	0.68264
2618.99049	0.68152
2617.06193	0.68053
2615.13337	0.67982
2613.20480	0.67891
2611.27624	0.67777
2609.34767	0.67663
2607.41911	0.67527
2605.49054	0.67360
2603.56198	0.67206
2601.63342	0.67106
2599.70485	0.67015
2597.77629	0.66886
2595.84772	0.66766
2593.91916	0.66654
2591.99059	0.66507
2590.06203	0.66355
2588.13346	0.66231
2586.20490	0.66103
2584.27634	0.65958
2582.34777	0.65819
2580.41921	0.65690
2578.49064	0.65568
2576.56208	0.65443
2574.63351	0.65317
2572.70495	0.65212
2570.77638	0.65092
2568.84782	0.64937
2566.91926	0.64790
2564.99069	0.64648
2563.06213	0.64488
2561.13356	0.64330
2559.20500	0.64192
2557.27643	0.64059
2555.34787	0.63902
2553.41930	0.63750
2551.49074	0.63677
2549.56218	0.63647
2547.63361	0.63575
2545.70505	0.63476
2543.77648	0.63392
2541.84792	0.63322
2539.91935	0.63261
2537.99079	0.63208
2536.06222	0.63182
2534.13366	0.63178
2532.20510	0.63163
2530.27653	0.63135
2528.34797	0.63101
2526.41940	0.63042
2524.49084	0.62955
2522.56227	0.62858
2520.63371	0.62765
2518.70514	0.62657
2516.77658	0.62521
2514.84802	0.62367
2512.91945	0.62208
2510.99089	0.62057
2509.06232	0.61928
2507.13376	0.61821
2505.20519	0.61709
2503.27663	0.61571
2501.34806	0.61431
2499.41950	0.61315
2497.49094	0.61214
2495.56237	0.61125
2493.63381	0.61054
2491.70524	0.60984
2489.77668	0.60895
2487.84811	0.60786
2485.91955	0.60687
2483.99098	0.60592
2482.06242	0.60467
2480.13386	0.60331
2478.20529	0.60220
2476.27673	0.60135
2474.34816	0.60046
2472.41960	0.59939
2470.49103	0.59830
2468.56247	0.59707
2466.63391	0.59574
2464.70534	0.59479
2462.77678	0.59406
2460.84821	0.59284
2458.91965	0.59138
2456.99108	0.59057
2455.06252	0.59017
2453.13395	0.58910
2451.20539	0.58765
2449.27683	0.58687
2447.34826	0.58660
2445.41970	0.58610
2443.49113	0.58531
2441.56257	0.58448
2439.63400	0.58384
2437.70544	0.58329
2435.77687	0.58251
2433.84831	0.58167
2431.91975	0.58094
2429.99118	0.58003
2428.06262	0.57897
2426.13405	0.57789
2424.20549	0.57670
2422.27692	0.57550
2420.34836	0.57452
2418.41979	0.57377
2416.49123	0.57329
2414.56267	0.57298
2412.63410	0.57259
2410.70554	0.57207
2408.77697	0.57153
2406.84841	0.57088
2404.91984	0.57022
2402.99128	0.56984
2401.06271	0.56976
2399.13415	0.56978
2397.20559	0.56969
2395.27702	0.56918
2393.34846	0.56828
2391.41989	0.56730
2389.49133	0.56624
2387.56276	0.56509
2385.63420	0.56419
2383.70563	0.56351
2381.77707	0.56262
2379.84851	0.56142
2377.91994	0.56002
2375.99138	0.55884
2374.06281	0.55845
2372.13425	0.55876
2370.20568	0.55916
2368.27712	0.55917
2366.34855	0.55823
2364.41999	0.55725
2362.49143	0.55714
2360.56286	0.55593
2358.63430	0.55426
2356.70573	0.55456
2354.77717	0.55540
2352.84860	0.55545
2350.92004	0.55499
2348.99147	0.55428
2347.06291	0.55353
2345.13435	0.55320
2343.20578	0.55324
2341.27722	0.55228
2339.34865	0.55050
2337.42009	0.54968
2335.49152	0.54985
2333.56296	0.55027
2331.63440	0.55097
2329.70583	0.55120
2327.77727	0.55051
2325.84870	0.55020
2323.92014	0.55060
2321.99157	0.55034
2320.06301	0.54913
2318.13444	0.54811
2316.20588	0.54750
2314.27732	0.54702
2312.34875	0.54686
2310.42019	0.54659
2308.49162	0.54597
2306.56306	0.54543
2304.63449	0.54469
2302.70593	0.54376
2300.77736	0.54314
2298.84880	0.54263
2296.92024	0.54191
2294.99167	0.54105
2293.06311	0.53992
2291.13454	0.53850
2289.20598	0.53708
2287.27741	0.53582
2285.34885	0.53480
2283.42028	0.53398
2281.49172	0.53319
2279.56316	0.53231
2277.63459	0.53144
2275.70603	0.53104
2273.77746	0.53106
2271.84890	0.53085
2269.92033	0.53021
2267.99177	0.52968
2266.06320	0.52944
2264.13464	0.52920
2262.20608	0.52901
2260.27751	0.52888
2258.34895	0.52855
2256.42038	0.52814
2254.49182	0.52786
2252.56325	0.52764
2250.63469	0.52737
2248.70612	0.52707
2246.77756	0.52670
2244.84900	0.52624
2242.92043	0.52589
2240.99187	0.52580
2239.06330	0.52588
2237.13474	0.52585
2235.20617	0.52548
2233.27761	0.52504
2231.34904	0.52474
2229.42048	0.52439
2227.49192	0.52385
2225.56335	0.52323
2223.63479	0.52272
2221.70622	0.52222
2219.77766	0.52160
2217.84909	0.52090
2215.92053	0.52027
2213.99196	0.51970
2212.06340	0.51909
2210.13484	0.51852
2208.20627	0.51801
2206.27771	0.51740
2204.34914	0.51678
2202.42058	0.51627
2200.49201	0.51596
2198.56345	0.51602
2196.63488	0.51624
2194.70632	0.51618
2192.77776	0.51595
2190.84919	0.51588
2188.92063	0.51592
2186.99206	0.51592
2185.06350	0.51577
2183.13493	0.51542
2181.20637	0.51498
2179.27781	0.51464
2177.34924	0.51459
2175.42068	0.51471
2173.49211	0.51465
2171.56355	0.51447
2169.63498	0.51437
2167.70642	0.51434
2165.77785	0.51440
2163.84929	0.51459
2161.92073	0.51482
2159.99216	0.51492
2158.06360	0.51490
2156.13503	0.51496
2154.20647	0.51511
2152.27790	0.51517
2150.34934	0.51505
2148.42077	0.51477
2146.49221	0.51453
2144.56365	0.51453
2142.63508	0.51443
2140.70652	0.51392
2138.77795	0.51344
2136.84939	0.51306
2134.92082	0.51227
2132.99226	0.51119
2131.06369	0.51034
2129.13513	0.50982
2127.20657	0.50923
2125.27800	0.50845
2123.34944	0.50780
2121.42087	0.50738
2119.49231	0.50701
2117.56374	0.50654
2115.63518	0.50595
2113.70661	0.50546
2111.77805	0.50537
2109.84949	0.50564
2107.92092	0.50580
2105.99236	0.50562
2104.06379	0.50541
2102.13523	0.50537
2100.20666	0.50532
2098.27810	0.50503
2096.34953	0.50458
2094.42097	0.50410
2092.49241	0.50365
2090.56384	0.50323
2088.63528	0.50273
2086.70671	0.50220
2084.77815	0.50196
2082.84958	0.50192
2080.92102	0.50161
2078.99245	0.50099
2077.06389	0.50056
2075.13533	0.50049
2073.20676	0.50054
2071.27820	0.50058
2069.34963	0.50061
2067.42107	0.50052
2065.49250	0.50031
2063.56394	0.50011
2061.63537	0.49979
2059.70681	0.49933
2057.77825	0.49889
2055.84968	0.49840
2053.92112	0.49779
2051.99255	0.49736
2050.06399	0.49704
2048.13542	0.49623
2046.20686	0.49498
2044.27830	0.49379
2042.34973	0.49274
2040.42117	0.49169
2038.49260	0.49068
2036.56404	0.48970
2034.63547	0.48859
2032.70691	0.48743
2030.77834	0.48644
2028.84978	0.48562
2026.92122	0.48503
2024.99265	0.48463
2023.06409	0.48420
2021.13552	0.48377
2019.20696	0.48365
2017.27839	0.48377
2015.34983	0.48366
2013.42126	0.48332
2011.49270	0.48320
2009.56414	0.48344
2007.63557	0.48375
2005.70701	0.48372
2003.77844	0.48341
2001.84988	0.48318
1999.92131	0.48317
1997.99275	0.48324
1996.06418	0.48318
1994.13562	0.48314
1992.20706	0.48332
1990.27849	0.48323
1988.34993	0.48263
1986.42136	0.48195
1984.49280	0.48144
1982.56423	0.48114
1980.63567	0.48093
1978.70710	0.48055
1976.77854	0.47987
1974.84998	0.47918
1972.92141	0.47878
1970.99285	0.47840
1969.06428	0.47807
1967.13572	0.47799
1965.20715	0.47775
1963.27859	0.47710
1961.35002	0.47640
1959.42146	0.47583
1957.49290	0.47519
1955.56433	0.47436
1953.63577	0.47342
1951.70720	0.47239
1949.77864	0.47127
1947.85007	0.47022
1945.92151	0.46948
1943.99294	0.46902
1942.06438	0.46857
1940.13582	0.46777
1938.20725	0.46675
1936.27869	0.46597
1934.35012	0.46556
1932.42156	0.46545
1930.49299	0.46544
1928.56443	0.46537
1926.63586	0.46529
1924.70730	0.46548
1922.77874	0.46602
1920.85017	0.46649
1918.92161	0.46698
1916.99304	0.46741
1915.06448	0.46713
1913.13591	0.46663
1911.20735	0.46662
1909.27878	0.46685
1907.35022	0.46666
1905.42166	0.46604
1903.49309	0.46546
1901.56453	0.46504
1899.63596	0.46456
1897.70740	0.46405
1895.77883	0.46368
1893.85027	0.46311
1891.92171	0.46238
1889.99314	0.46197
1888.06458	0.46145
1886.13601	0.46054
1884.20745	0.45972
1882.27888	0.45924
1880.35032	0.45912
1878.42175	0.45913
1876.49319	0.45895
1874.56463	0.45862
1872.63606	0.45834
1870.70750	0.45866
1868.77893	0.45984
1866.85037	0.46020
1864.92180	0.45929
1862.99324	0.45842
1861.06467	0.45797
1859.13611	0.45776
1857.20755	0.45761
1855.27898	0.45751
1853.35042	0.45740
1851.42185	0.45725
1849.49329	0.45716
1847.56472	0.45712
1845.63616	0.45754
1843.70759	0.45854
1841.77903	0.45869
1839.85047	0.45820
1837.92190	0.45817
1835.99334	0.45843
1834.06477	0.45829
1832.13621	0.45839
1830.20764	0.45945
1828.27908	0.46020
1826.35051	0.46020
1824.42195	0.46029
1822.49339	0.46006
1820.56482	0.45949
1818.63626	0.45923
1816.70769	0.45911
1814.77913	0.45880
1812.85056	0.45852
1810.92200	0.45839
1808.99343	0.45796
1807.06487	0.45718
1805.13631	0.45654
1803.20774	0.45617
1801.27918	0.45613
1799.35061	0.45618
1797.42205	0.45603
1795.49348	0.45584
1793.56492	0.45611
1791.63635	0.45703
1789.70779	0.45712
1787.77923	0.45663
1785.85066	0.45663
1783.92210	0.45711
1781.99353	0.45791
1780.06497	0.45908
1778.13640	0.46010
1776.20784	0.46093
1774.27927	0.46282
1772.35071	0.46656
1770.42215	0.46944
1768.49358	0.47060
1766.56502	0.47157
1764.63645	0.47272
1762.70789	0.47488
1760.77932	0.47781
1758.85076	0.48001
1756.92220	0.48256
1754.99363	0.48543
1753.06507	0.48847
1751.13650	0.49401
1749.20794	0.50181
1747.27937	0.50788
1745.35081	0.51215
1743.42224	0.51608
1741.49368	0.51979
1739.56512	0.52284
1737.63655	0.52439
1735.70799	0.52557
1733.77942	0.52903
1731.85086	0.53163
1729.92229	0.53238
1727.99373	0.53357
1726.06516	0.53558
1724.13660	0.53885
1722.20804	0.54227
1720.27947	0.54536
1718.35091	0.55133
1716.42234	0.56147
1714.49378	0.56817
1712.56521	0.57271
1710.63665	0.57898
1708.70808	0.58790
1706.77952	0.60290
1704.85096	0.62359
1702.92239	0.64292
1700.99383	0.67279
1699.06526	0.72172
1697.13670	0.76830
1695.20813	0.81531
1693.27957	0.85248
1691.35100	0.88452
1689.42244	0.92474
1687.49388	0.96279
1685.56531	1.00181
1683.63675	1.06618
1681.70818	1.11587
1679.77962	1.14353
1677.85105	1.16873
1675.92249	1.19936
1673.99392	1.23447
1672.06536	1.26310
1670.13680	1.29183
1668.20823	1.32223
1666.27967	1.34134
1664.35110	1.35868
1662.42254	1.38061
1660.49397	1.39769
1658.56541	1.40819
1656.63684	1.41714
1654.70828	1.42808
1652.77972	1.43248
1650.85115	1.42825
1648.92259	1.42681
1646.99402	1.42254
1645.06546	1.41581
1643.13689	1.41156
1641.20833	1.40788
1639.27976	1.40338
1637.35120	1.39965
1635.42264	1.39461
1633.49407	1.38770
1631.56551	1.38150
1629.63694	1.37276
1627.70838	1.36009
1625.77981	1.34493
1623.85125	1.32467
1621.92269	1.29960
1619.99412	1.27821
1618.06556	1.25314
1616.13699	1.21541
1614.20843	1.18409
1612.27986	1.15995
1610.35130	1.13412
1608.42273	1.10743
1606.49417	1.08505
1604.56561	1.06773
1602.63704	1.05282
1600.70848	1.04041
1598.77991	1.03153
1596.85135	1.02575
1594.92278	1.02214
1592.99422	1.02030
1591.06565	1.02026
1589.13709	1.02253
1587.20853	1.02794
1585.27996	1.03613
1583.35140	1.04617
1581.42283	1.05699
1579.49427	1.06753
1577.56570	1.08062
1575.63714	1.09966
1573.70857	1.11362
1571.78001	1.12317
1569.85145	1.13764
1567.92288	1.15369
1565.99432	1.16568
1564.06575	1.17670
1562.13719	1.18551
1560.20862	1.19610
1558.28006	1.21742
1556.35149	1.22844
1554.42293	1.23379
1552.49437	1.23847
1550.56580	1.24113
1548.63724	1.24231
1546.70867	1.24331
1544.78011	1.24407
1542.85154	1.24347
1540.92298	1.23809
1538.99441	1.22703
1537.06585	1.22067
1535.13729	1.21601
1533.20872	1.20982
1531.28016	1.20315
1529.35159	1.19735
1527.42303	1.19100
1525.49446	1.18473
1523.56590	1.18098
1521.63733	1.17841
1519.70877	1.17629
1517.78021	1.17168
1515.85164	1.16045
1513.92308	1.14555
1511.99451	1.13023
1510.06595	1.11563
1508.13738	1.09358
1506.20882	1.05362
1504.28025	1.03095
1502.35169	1.01747
1500.42313	1.00247
1498.49456	0.98345
1496.56600	0.95994
1494.63743	0.94042
1492.70887	0.92729
1490.78030	0.91375
1488.85174	0.89670
1486.92317	0.88293
1484.99461	0.87374
1483.06605	0.86766
1481.13748	0.86468
1479.20892	0.86469
1477.28035	0.86758
1475.35179	0.87420
1473.42322	0.88644
1471.49466	0.89949
1469.56610	0.90597
1467.63753	0.90965
1465.70897	0.91449
1463.78040	0.92020
1461.85184	0.92381
1459.92327	0.92651
1457.99471	0.93187
1456.06614	0.93689
1454.13758	0.93632
1452.20902	0.93418
1450.28045	0.93183
1448.35189	0.92915
1446.42332	0.92603
1444.49476	0.92307
1442.56619	0.92034
1440.63763	0.91759
1438.70906	0.91459
1436.78050	0.91015
1434.85194	0.90443
1432.92337	0.89929
1430.99481	0.89431
1429.06624	0.88978
1427.13768	0.88708
1425.20911	0.88619
1423.28055	0.88622
1421.35198	0.88650
1419.42342	0.88746
1417.49486	0.88828
1415.56629	0.88785
1413.63773	0.88716
1411.70916	0.88646
1409.78060	0.88575
1407.85203	0.88553
1405.92347	0.88629
1403.99490	0.88769
1402.06634	0.88909
1400.13778	0.89058
1398.20921	0.89187
1396.28065	0.89338
1394.35208	0.89558
1392.42352	0.89755
1390.49495	0.90016
1388.56639	0.90632
1386.63782	0.91698
1384.70926	0.92799
1382.78070	0.93723
1380.85213	0.94442
1378.92357	0.94801
1376.99500	0.94671
1375.06644	0.93998
1373.13787	0.92912
1371.20931	0.91673
1369.28074	0.90204
1367.35218	0.88543
1365.42362	0.86974
1363.49505	0.85457
1361.56649	0.84091
1359.63792	0.83175
1357.70936	0.82575
1355.78079	0.82137
1353.85223	0.81852
1351.92366	0.81703
1349.99510	0.81650
1348.06654	0.81680
1346.13797	0.81786
1344.20941	0.81964
1342.28084	0.82204
1340.35228	0.82509
1338.42371	0.82850
1336.49515	0.83227
1334.56659	0.83717
1332.63802	0.84350
1330.70946	0.85070
1328.78089	0.85722
1326.85233	0.86157
1324.92376	0.86372
1322.99520	0.86475
1321.06663	0.86581
1319.13807	0.86731
1317.20951	0.86887
1315.28094	0.86987
1313.35238	0.87033
1311.42381	0.87054
1309.49525	0.87050
1307.56668	0.86963
1305.63812	0.86773
1303.70955	0.86548
1301.78099	0.86331
1299.85243	0.86088
1297.92386	0.85747
1295.99530	0.85323
1294.06673	0.84949
1292.13817	0.84710
1290.20960	0.84602
1288.28104	0.84574
1286.35247	0.84567
1284.42391	0.84570
1282.49535	0.84578
1280.56678	0.84583
1278.63822	0.84631
1276.70965	0.84760
1274.78109	0.84966
1272.85252	0.85252
1270.92396	0.85605
1268.99539	0.85987
1267.06683	0.86366
1265.13827	0.86699
1263.20970	0.86927
1261.28114	0.87017
1259.35257	0.87012
1257.42401	0.86998
1255.49544	0.87030
1253.56688	0.87129
1251.63831	0.87270
1249.70975	0.87403
1247.78119	0.87544
1245.85262	0.87713
1243.92406	0.87876
1241.99549	0.88011
1240.06693	0.88098
1238.13836	0.88112
1236.20980	0.88048
1234.28123	0.87893
1232.35267	0.87650
1230.42411	0.87315
1228.49554	0.86862
1226.56698	0.86309
1224.63841	0.85683
1222.70985	0.85031
1220.78128	0.84409
1218.85272	0.83812
1216.92415	0.83259
1214.99559	0.82868
1213.06703	0.82721
1211.13846	0.82747
1209.20990	0.82815
1207.28133	0.82776
1205.35277	0.82530
1203.42420	0.82102
1201.49564	0.81556
1199.56708	0.80920
1197.63851	0.80215
1195.70995	0.79517
1193.78138	0.78940
1191.85282	0.78535
1189.92425	0.78277
1187.99569	0.78174
1186.06712	0.78258
1184.13856	0.78501
1182.21000	0.78859
1180.28143	0.79352
1178.35287	0.80006
1176.42430	0.80811
1174.49574	0.81710
1172.56717	0.82635
1170.63861	0.83585
1168.71004	0.84620
1166.78148	0.85795
1164.85292	0.87076
1162.92435	0.88239
1160.99579	0.89002
1159.06722	0.89281
1157.13866	0.89077
1155.21009	0.88369
1153.28153	0.87293
1151.35296	0.86087
1149.42440	0.84918
1147.49584	0.83902
1145.56727	0.83139
1143.63871	0.82708
1141.71014	0.82649
1139.78158	0.82967
1137.85301	0.83637
1135.92445	0.84568
1133.99588	0.85685
1132.06732	0.87019
1130.13876	0.88576
1128.21019	0.90209
1126.28163	0.91752
1124.35306	0.93125
1122.42450	0.94269
1120.49593	0.95136
1118.56737	0.95709
1116.63880	0.95922
1114.71024	0.95721
1112.78168	0.95254
1110.85311	0.94709
1108.92455	0.94180
1106.99598	0.93732
1105.06742	0.93436
1103.13885	0.93354
1101.21029	0.93515
1099.28172	0.93962
1097.35316	0.94786
1095.42460	0.95997
1093.49603	0.97447
1091.56747	0.99059
1089.63890	1.00941
1087.71034	1.03096
1085.78177	1.05258
1083.85321	1.07143
1081.92464	1.08546
1079.99608	1.09232
1078.06752	1.09126
1076.13895	1.08453
1074.21039	1.07450
1072.28182	1.06191
1070.35326	1.04698
1068.42469	1.03054
1066.49613	1.01412
1064.56756	0.99865
1062.63900	0.98383
1060.71044	0.97014
1058.78187	0.95897
1056.85331	0.94968
1054.92474	0.94178
1052.99618	0.93663
1051.06761	0.93459
1049.13905	0.93525
1047.21049	0.93953
1045.28192	0.94833
1043.35336	0.96049
1041.42479	0.97332
1039.49623	0.98467
1037.56766	0.99384
1035.63910	1.00017
1033.71053	1.00285
1031.78197	1.00226
1029.85341	0.99877
1027.92484	0.99165
1025.99628	0.98090
1024.06771	0.96775
1022.13915	0.95398
1020.21058	0.94083
1018.28202	0.92813
1016.35345	0.91533
1014.42489	0.90200
1012.49633	0.88716
1010.56776	0.87012
1008.63920	0.85132
1006.71063	0.83221
1004.78207	0.81452
1002.85350	0.79948
1000.92494	0.78753
998.99637	0.77841
997.06781	0.77181
995.13925	0.76726
993.21068	0.76379
991.28212	0.76012
989.35355	0.75544
987.42499	0.75013
985.49642	0.74484
983.56786	0.73980
981.63929	0.73499
979.71073	0.72994
977.78217	0.72391
975.85360	0.71627
973.92504	0.70650
971.99647	0.69473
970.06791	0.68202
968.13934	0.66943
966.21078	0.65766
964.28221	0.64782
962.35365	0.64164
960.42509	0.64102
958.49652	0.64657
956.56796	0.65572
954.63939	0.66353
952.71083	0.66691
950.78226	0.66704
948.85370	0.66662
946.92513	0.66731
944.99657	0.66964
943.06801	0.67349
941.13944	0.67830
939.21088	0.68272
937.28231	0.68542
935.35375	0.68631
933.42518	0.68537
931.49662	0.68220
929.56805	0.67708
927.63949	0.67091
925.71093	0.66421
923.78236	0.65737
921.85380	0.65080
919.92523	0.64442
917.99667	0.63811
916.06810	0.63267
914.13954	0.62954
912.21098	0.62953
910.28241	0.63221
908.35385	0.63714
906.42528	0.64444
904.49672	0.65350
902.56815	0.66334
900.63959	0.67340
898.71102	0.68289
896.78246	0.69035
894.85390	0.69478
892.92533	0.69658
890.99677	0.69647
889.06820	0.69441
887.13964	0.69021
885.21107	0.68439
883.28251	0.67747
881.35394	0.66960
879.42538	0.66133
877.49682	0.65342
875.56825	0.64603
873.63969	0.63951
871.71112	0.63445
869.78256	0.63129
867.85399	0.63026
865.92543	0.63156
863.99686	0.63526
862.06830	0.64124
860.13974	0.64919
858.21117	0.65854
856.28261	0.66883
854.35404	0.67981
852.42548	0.69091
850.49691	0.70105
848.56835	0.70910
846.63978	0.71451
844.71122	0.71757
842.78266	0.71858
840.85409	0.71691
838.92553	0.71248
836.99696	0.70653
835.06840	0.70013
833.13983	0.69339
831.21127	0.68649
829.28270	0.68057
827.35414	0.67648
825.42558	0.67433
823.49701	0.67429
821.56845	0.67609
819.63988	0.67906
817.71132	0.68336
815.78275	0.68957
813.85419	0.69765
811.92562	0.70698
809.99706	0.71672
808.06850	0.72599
806.13993	0.73420
804.21137	0.74121
802.28280	0.74719
800.35424	0.75175
798.42567	0.75412
796.49711	0.75409
794.56854	0.75181
792.63998	0.74775
790.71142	0.74251
788.78285	0.73704
786.85429	0.73250
784.92572	0.72906
782.99716	0.72612
781.06859	0.72389
779.14003	0.72367
777.21147	0.72630
775.28290	0.73107
773.35434	0.73686
771.42577	0.74352
769.49721	0.75151
767.56864	0.76072
765.64008	0.77032
763.71151	0.77931
761.78295	0.78724
759.85439	0.79392
757.92582	0.79921
755.99726	0.80350
754.06869	0.80681
752.14013	0.80798
750.21156	0.80657
748.28300	0.80357
746.35443	0.79957
744.42587	0.79471
742.49731	0.78977
740.56874	0.78577
738.64018	0.78274
736.71161	0.78020
734.78305	0.77876
732.85448	0.77948
730.92592	0.78229
728.99735	0.78699
727.06879	0.79393
725.14023	0.80240
723.21166	0.81085
721.28310	0.81876
719.35453	0.82608
717.42597	0.83234
715.49740	0.83747
713.56884	0.84137
711.64027	0.84394
709.71171	0.84543
707.78315	0.84597
705.85458	0.84566
703.92602	0.84440
701.99745	0.84204
700.06889	0.83900
698.14032	0.83576
696.21176	0.83257
694.28319	0.83012
692.35463	0.82892
690.42607	0.82873
688.49750	0.82922
686.56894	0.82962
684.64037	0.82975
682.71181	0.83078
680.78324	0.83246
678.85468	0.83408
676.92611	0.83695
674.99755	0.84108
673.06899	0.84502
671.14042	0.84833
669.21186	0.85119
667.28329	0.85326
665.35473	0.85418
663.42616	0.85442
661.49760	0.85405
659.56903	0.85265
657.64047	0.84971
655.71191	0.84594
653.78334	0.84293
651.85478	0.84105
649.92621	0.83888
647.99765	0.83594
646.06908	0.83428
644.14052	0.83610
642.21195	0.84160
640.28339	0.84910
638.35483	0.85653
636.42626	0.86312
634.49770	0.86882
632.56913	0.87274
630.64057	0.87458
628.71200	0.87578
626.78344	0.87747
624.85488	0.87873
622.92631	0.87825
620.99775	0.87673
619.06918	0.87513
617.14062	0.87206
615.21205	0.86732
613.28349	0.86255
611.35492	0.85754
609.42636	0.85296
607.49780	0.85108
605.56923	0.85186
603.64067	0.85353
601.71210	0.85569
599.78354	0.85925
