3997.91406	1.04834
3995.98550	1.05081
3994.05693	1.04932
3992.12837	1.04579
3990.19980	1.04091
3988.27124	1.03757
3986.34268	1.03917
3984.41411	1.04170
3982.48555	1.04105
3980.55698	1.03903
3978.62842	1.03728
3976.69985	1.03631
3974.77129	1.03628
3972.84272	1.03550
3970.91416	1.03481
3968.98560	1.03639
3967.05703	1.03985
3965.12847	1.04525
3963.19990	1.04998
3961.27134	1.04927
3959.34277	1.04510
3957.41421	1.04142
3955.48564	1.03748
3953.55708	1.03403
3951.62852	1.03361
3949.69995	1.03501
3947.77139	1.03595
3945.84282	1.03599
3943.91426	1.03478
3941.98569	1.03380
3940.05713	1.03522
3938.12856	1.03816
3936.20000	1.03868
3934.27144	1.03397
3932.34287	1.02838
3930.41431	1.02717
3928.48574	1.02730
3926.55718	1.02691
3924.62861	1.02815
3922.70005	1.03008
3920.77148	1.03043
3918.84292	1.02917
3916.91436	1.02753
3914.98579	1.02757
3913.05723	1.02760
3911.12866	1.02513
3909.20010	1.02209
3907.27153	1.01949
3905.34297	1.01646
3903.41440	1.01635
3901.48584	1.02050
3899.55728	1.02509
3897.62871	1.02710
3895.70015	1.02488
3893.77158	1.02166
3891.84302	1.02240
3889.91445	1.02551
3887.98589	1.02741
3886.05733	1.02746
3884.12876	1.02609
3882.20020	1.02598
3880.27163	1.02462
3878.34307	1.02159
3876.41450	1.01984
3874.48594	1.01847
3872.55737	1.01880
3870.62881	1.02212
3868.70025	1.02301
3866.77168	1.02004
3864.84312	1.01593
3862.91455	1.01338
3860.98599	1.01296
3859.05742	1.01170
3857.12886	1.00726
3855.20029	0.99774
3853.27173	0.99458
3851.34317	1.00931
3849.41460	1.01957
3847.48604	1.02151
3845.55747	1.01973
3843.62891	1.01886
3841.70034	1.02073
3839.77178	1.02304
3837.84321	1.02246
3835.91465	1.02044
3833.98609	1.01927
3832.05752	1.01858
3830.12896	1.01785
3828.20039	1.01581
3826.27183	1.01233
3824.34326	1.00940
3822.41470	1.00763
3820.48613	1.00992
3818.55757	1.01534
3816.62901	1.01654
3814.70044	1.01300
3812.77188	1.01018
3810.84331	1.00962
3808.91475	1.01128
3806.98618	1.01237
3805.05762	1.00986
3803.12905	1.00738
3801.20049	1.00803
3799.27193	1.00803
3797.34336	1.00423
3795.41480	1.00080
3793.48623	1.00044
3791.55767	1.00066
3789.62910	1.00038
3787.70054	0.99890
3785.77197	0.99577
3783.84341	0.99471
3781.91485	0.99788
3779.98628	1.00181
3778.05772	1.00284
3776.12915	1.00152
3774.20059	0.99901
3772.27202	0.99653
3770.34346	0.99663
3768.41489	0.99820
3766.48633	0.99799
3764.55777	0.99645
3762.62920	0.99363
3760.70064	0.98998
3758.77207	0.98965
3756.84351	0.99248
3754.91494	0.99312
3752.98638	0.99127
3751.05781	0.98846
3749.12925	0.98608
3747.20069	0.98476
3745.27212	0.98336
3743.34356	0.98392
3741.41499	0.98813
3739.48643	0.99255
3737.55786	0.99360
3735.62930	0.99108
3733.70074	0.99022
3731.77217	0.98966
3729.84361	0.98964
3727.91504	0.99334
3725.98648	0.99689
3724.05791	0.99419
3722.12935	0.99035
3720.20078	0.99000
3718.27222	0.99028
3716.34366	0.98928
3714.41509	0.98882
3712.48653	0.99138
3710.55796	0.99537
3708.62940	0.99587
3706.70083	0.99383
3704.77227	0.99254
3702.84370	0.99352
3700.91514	0.99353
3698.98658	0.99063
3697.05801	0.98772
3695.12945	0.98701
3693.20088	0.98841
3691.27232	0.99180
3689.34375	0.99628
3687.41519	0.99606
3685.48662	0.99330
3683.55806	0.99225
3681.62950	0.99388
3679.70093	0.99736
3677.77237	1.00107
3675.84380	1.00631
3673.91524	1.01080
3671.98667	1.01178
3670.05811	1.01433
3668.12954	1.01892
3666.20098	1.02207
3664.27242	1.02409
3662.34385	1.02464
3660.41529	1.02439
3658.48672	1.02704
3656.55816	1.03533
3654.62959	1.04227
3652.70103	1.04292
3650.77246	1.04125
3648.84390	1.04573
3646.91534	1.05486
3644.98677	1.05863
3643.05821	1.05959
3641.12964	1.06050
3639.20108	1.06117
3637.27251	1.06233
3635.34395	1.06535
3633.41538	1.06929
3631.48682	1.07191
3629.55826	1.07628
3627.62969	1.08594
3625.70113	1.09269
3623.77256	1.09698
3621.84400	1.10136
3619.91543	1.10529
3617.98687	1.10926
3616.05830	1.11325
3614.12974	1.11609
3612.20118	1.11869
3610.27261	1.12082
3608.34405	1.12284
3606.41548	1.12609
3604.48692	1.12853
3602.55835	1.13159
3600.62979	1.13889
3598.70123	1.14745
3596.77266	1.15330
3594.84410	1.15832
3592.91553	1.16323
3590.98697	1.16631
3589.05840	1.16974
3587.12984	1.17764
3585.20127	1.18614
3583.27271	1.19078
3581.34415	1.19159
3579.41558	1.19176
3577.48702	1.19619
3575.55845	1.20384
3573.62989	1.21029
3571.70132	1.21273
3569.77276	1.21184
3567.84419	1.21477
3565.91563	1.22362
3563.98707	1.22933
3562.05850	1.23409
3560.12994	1.23963
3558.20137	1.24359
3556.27281	1.24724
3554.34424	1.25266
3552.41568	1.25887
3550.48711	1.26478
3548.55855	1.27170
3546.62999	1.28037
3544.70142	1.28641
3542.77286	1.28693
3540.84429	1.28757
3538.91573	1.29061
3536.98716	1.29419
3535.05860	1.30035
3533.13003	1.30765
3531.20147	1.31021
3529.27291	1.31082
3527.34434	1.31917
3525.41578	1.33295
3523.48721	1.33935
3521.55865	1.33803
3519.63008	1.33905
3517.70152	1.34403
3515.77295	1.34964
3513.84439	1.35548
3511.91583	1.36059
3509.98726	1.36473
3508.05870	1.37190
3506.13013	1.38513
3504.20157	1.40143
3502.27300	1.41127
3500.34444	1.41370
3498.41587	1.41762
3496.48731	1.42580
3494.55875	1.43430
3492.63018	1.43986
3490.70162	1.44586
3488.77305	1.45161
3486.84449	1.45072
3484.91592	1.44882
3482.98736	1.45389
3481.05879	1.45826
3479.13023	1.45314
3477.20167	1.44614
3475.27310	1.44743
3473.34454	1.45714
3471.41597	1.46783
3469.48741	1.47590
3467.55884	1.48479
3465.63028	1.49145
3463.70171	1.48834
3461.77315	1.48068
3459.84459	1.47973
3457.91602	1.48721
3455.98746	1.49532
3454.05889	1.49701
3452.13033	1.49341
3450.20176	1.49121
3448.27320	1.49557
3446.34464	1.50098
3444.41607	1.49932
3442.48751	1.49705
3440.55894	1.49988
3438.63038	1.50192
3436.70181	1.50145
3434.77325	1.50446
3432.84468	1.51141
3430.91612	1.51638
3428.98756	1.51421
3427.05899	1.50661
3425.13043	1.50263
3423.20186	1.50591
3421.27330	1.50987
3419.34473	1.50889
3417.41617	1.50622
3415.48760	1.50698
3413.55904	1.50861
3411.63048	1.50795
3409.70191	1.51073
3407.77335	1.51777
3405.84478	1.51894
3403.91622	1.51307
3401.98765	1.51154
3400.05909	1.51659
3398.13052	1.51990
3396.20196	1.51833
3394.27340	1.51632
3392.34483	1.52048
3390.41627	1.52968
3388.48770	1.53367
3386.55914	1.53010
3384.63057	1.52802
3382.70201	1.53106
3380.77344	1.52917
3378.84488	1.52007
3376.91632	1.51669
3374.98775	1.52121
3373.05919	1.52595
3371.13062	1.53035
3369.20206	1.53539
3367.27349	1.53836
3365.34493	1.53913
3363.41636	1.53965
3361.48780	1.53598
3359.55924	1.52749
3357.63067	1.52384
3355.70211	1.53016
3353.77354	1.54246
3351.84498	1.54988
3349.91641	1.54405
3347.98785	1.53584
3346.05928	1.53831
3344.13072	1.54715
3342.20216	1.55478
3340.27359	1.55986
3338.34503	1.56268
3336.41646	1.56685
3334.48790	1.57307
3332.55933	1.57672
3330.63077	1.57844
3328.70220	1.58059
3326.77364	1.58135
3324.84508	1.57875
3322.91651	1.57351
3320.98795	1.57057
3319.05938	1.57401
3317.13082	1.58229
3315.20225	1.58914
3313.27369	1.58864
3311.34513	1.58441
3309.41656	1.58135
3307.48800	1.57833
3305.55943	1.58047
3303.63087	1.59192
3301.70230	1.60397
3299.77374	1.60765
3297.84517	1.60503
3295.91661	1.60515
3293.98805	1.61062
3292.05948	1.61361
3290.13092	1.61094
3288.20235	1.60644
3286.27379	1.60243
3284.34522	1.60114
3282.41666	1.59977
3280.48809	1.59501
3278.55953	1.59194
3276.63097	1.59305
3274.70240	1.59541
3272.77384	1.59866
3270.84527	1.60466
3268.91671	1.61168
3266.98814	1.61297
3265.05958	1.60742
3263.13101	1.60484
3261.20245	1.60986
3259.27389	1.61151
3257.34532	1.60190
3255.41676	1.58802
3253.48819	1.57662
3251.55963	1.56903
3249.63106	1.56477
3247.70250	1.55952
3245.77393	1.55124
3243.84537	1.54517
3241.91681	1.54196
3239.98824	1.53986
3238.05968	1.54081
3236.13111	1.53799
3234.20255	1.52789
3232.27398	1.52187
3230.34542	1.52261
3228.41685	1.51946
3226.48829	1.51004
3224.55973	1.50367
3222.63116	1.50325
3220.70260	1.50387
3218.77403	1.50389
3216.84547	1.50179
3214.91690	1.49397
3212.98834	1.48557
3211.05977	1.48502
3209.13121	1.48687
3207.20265	1.48269
3205.27408	1.47650
3203.34552	1.47287
3201.41695	1.47025
3199.48839	1.46703
3197.55982	1.46428
3195.63126	1.46342
3193.70269	1.46150
3191.77413	1.45412
3189.84557	1.44453
3187.91700	1.43957
3185.98844	1.43779
3184.05987	1.43432
3182.13131	1.43038
3180.20274	1.42810
3178.27418	1.42548
3176.34562	1.42131
3174.41705	1.41749
3172.48849	1.41391
3170.55992	1.40938
3168.63136	1.40517
3166.70279	1.40134
3164.77423	1.39759
3162.84566	1.39670
3160.91710	1.39922
3158.98854	1.40067
3157.05997	1.39695
3155.13141	1.38884
3153.20284	1.38148
3151.27428	1.37791
3149.34571	1.37633
3147.41715	1.37517
3145.48858	1.37418
3143.56002	1.37309
3141.63146	1.37300
3139.70289	1.37422
3137.77433	1.37408
3135.84576	1.37121
3133.91720	1.36724
3131.98863	1.36509
3130.06007	1.36802
3128.13150	1.37375
3126.20294	1.37523
3124.27438	1.37146
3122.34581	1.36623
3120.41725	1.36325
3118.48868	1.36380
3116.56012	1.36306
3114.63155	1.35926
3112.70299	1.35749
3110.77442	1.35934
3108.84586	1.36273
3106.91730	1.36578
3104.98873	1.36790
3103.06017	1.36918
3101.13160	1.36816
3099.20304	1.36627
3097.27447	1.36633
3095.34591	1.36601
3093.41734	1.36402
3091.48878	1.36262
3089.56022	1.36172
3087.63165	1.36109
3085.70309	1.36128
3083.77452	1.35933
3081.84596	1.35414
3079.91739	1.34973
3077.98883	1.34725
3076.06026	1.34398
3074.13170	1.33891
3072.20314	1.33450
3070.27457	1.33244
3068.34601	1.33109
3066.41744	1.32993
3064.48888	1.32905
3062.56031	1.32568
3060.63175	1.31882
3058.70318	1.31143
3056.77462	1.30525
3054.84606	1.30035
3052.91749	1.29776
3050.98893	1.29755
3049.06036	1.29730
3047.13180	1.29379
3045.20323	1.28740
3043.27467	1.28260
3041.34610	1.28169
3039.41754	1.28253
3037.48898	1.28200
3035.56041	1.27904
3033.63185	1.27459
3031.70328	1.26987
3029.77472	1.26565
3027.84615	1.26145
3025.91759	1.25714
3023.98903	1.25451
3022.06046	1.25325
3020.13190	1.25025
3018.20333	1.24605
3016.27477	1.24424
3014.34620	1.24407
3012.41764	1.24233
3010.48907	1.23987
3008.56051	1.23929
3006.63195	1.23993
3004.70338	1.23997
3002.77482	1.24005
3000.84625	1.24116
2998.91769	1.24142
2996.98912	1.23969
2995.06056	1.23829
2993.13199	1.23880
2991.20343	1.24094
2989.27487	1.24509
2987.34630	1.25064
2985.41774	1.25530
2983.48917	1.25915
2981.56061	1.26406
2979.63204	1.26947
2977.70348	1.27484
2975.77491	1.28157
2973.84635	1.29025
2971.91779	1.29996
2969.98922	1.30762
2968.06066	1.31172
2966.13209	1.31556
2964.20353	1.32135
2962.27496	1.32660
2960.34640	1.32715
2958.41783	1.32376
2956.48927	1.32128
2954.56071	1.31993
2952.63214	1.31700
2950.70358	1.31233
2948.77501	1.30674
2946.84645	1.30242
2944.91788	1.30284
2942.98932	1.30830
2941.06075	1.31619
2939.13219	1.32565
2937.20363	1.33591
2935.27506	1.34495
2933.34650	1.35373
2931.41793	1.36417
2929.48937	1.37526
2927.56080	1.38541
2925.63224	1.39372
2923.70367	1.39986
2921.77511	1.40380
2919.84655	1.40407
2917.91798	1.39926
2915.98942	1.38922
2914.06085	1.37416
2912.13229	1.35635
2910.20372	1.33980
2908.27516	1.32593
2906.34659	1.31488
2904.41803	1.30769
2902.48947	1.30282
2900.56090	1.29879
2898.63234	1.29657
2896.70377	1.29403
2894.77521	1.28922
2892.84664	1.28444
2890.91808	1.28087
2888.98952	1.27852
2887.06095	1.27780
2885.13239	1.27694
2883.20382	1.27477
2881.27526	1.27301
2879.34669	1.27223
2877.41813	1.27210
2875.48956	1.27307
2873.56100	1.27245
2871.63244	1.26774
2869.70387	1.26115
2867.77531	1.25471
2865.84674	1.25010
2863.91818	1.24925
2861.98961	1.25079
2860.06105	1.25241
2858.13248	1.25444
2856.20392	1.25813
2854.27536	1.26463
2852.34679	1.27433
2850.41823	1.28098
2848.48966	1.27368
2846.56110	1.25232
2844.63253	1.22828
2842.70397	1.20973
2840.77540	1.19695
2838.84684	1.18685
2836.91828	1.17798
2834.98971	1.17116
2833.06115	1.16648
2831.13258	1.16224
2829.20402	1.15776
2827.27545	1.15354
2825.34689	1.14906
2823.41832	1.14372
2821.48976	1.13846
2819.56120	1.13478
2817.63263	1.13327
2815.70407	1.13254
2813.77550	1.13037
2811.84694	1.12656
2809.91837	1.12294
2807.98981	1.12023
2806.06124	1.11752
2804.13268	1.11462
2802.20412	1.11193
2800.27555	1.10942
2798.34699	1.10714
2796.41842	1.10464
2794.48986	1.10213
2792.56129	1.10111
2790.63273	1.10088
2788.70416	1.09955
2786.77560	1.09718
2784.84704	1.09405
2782.91847	1.09080
2780.98991	1.08885
2779.06134	1.08789
2777.13278	1.08646
2775.20421	1.08379
2773.27565	1.08037
2771.34708	1.07727
2769.41852	1.07479
2767.48996	1.07317
2765.56139	1.07305
2763.63283	1.07331
2761.70426	1.07172
2759.77570	1.06909
2757.84713	1.06729
2755.91857	1.06613
2753.99001	1.06554
2752.06144	1.06542
2750.13288	1.06467
2748.20431	1.06303
2746.27575	1.06086
2744.34718	1.05892
2742.41862	1.05808
2740.49005	1.05744
2738.56149	1.05553
2736.63293	1.05324
2734.70436	1.05207
2732.77580	1.05134
2730.84723	1.04997
2728.91867	1.04902
2726.99010	1.04936
2725.06154	1.04952
2723.13297	1.04811
2721.20441	1.04583
2719.27585	1.04360
2717.34728	1.04147
2715.41872	1.03985
2713.49015	1.03906
2711.56159	1.03870
2709.63302	1.03864
2707.70446	1.03851
2705.77589	1.03750
2703.84733	1.03548
2701.91877	1.03366
2699.99020	1.03337
2698.06164	1.03398
2696.13307	1.03365
2694.20451	1.03219
2692.27594	1.03096
2690.34738	1.02997
2688.41881	1.02844
2686.49025	1.02711
2684.56169	1.02614
2682.63312	1.02421
2680.70456	1.02158
2678.77599	1.01999
2676.84743	1.02013
2674.91886	1.02055
2672.99030	1.01936
2671.06173	1.01723
2669.13317	1.01542
2667.20461	1.01317
2665.27604	1.01022
2663.34748	1.00803
2661.41891	1.00771
2659.49035	1.00842
2657.56178	1.00845
2655.63322	1.00750
2653.70465	1.00605
2651.77609	1.00441
2649.84753	1.00289
2647.91896	1.00183
2645.99040	1.00149
2644.06183	1.00146
2642.13327	1.00100
2640.20470	1.00007
2638.27614	0.99912
2636.34757	0.99827
2634.41901	0.99719
2632.49045	0.99567
2630.56188	0.99392
2628.63332	0.99253
2626.70475	0.99171
2624.77619	0.99107
2622.84762	0.99047
2620.91906	0.98958
2618.99049	0.98803
2617.06193	0.98676
2615.13337	0.98655
2613.20480	0.98641
2611.27624	0.98567
2609.34767	0.98456
2607.41911	0.98308
2605.49054	0.98164
2603.56198	0.98071
2601.63342	0.98013
2599.70485	0.97923
2597.77629	0.97786
2595.84772	0.97670
2593.91916	0.97574
2591.99059	0.97452
2590.06203	0.97392
2588.13346	0.97446
2586.20490	0.97427
2584.27634	0.97225
2582.34777	0.97020
2580.41921	0.96922
2578.49064	0.96845
2576.56208	0.96769
2574.63351	0.96713
2572.70495	0.96626
2570.77638	0.96534
2568.84782	0.96456
2566.91926	0.96295
2564.99069	0.96099
2563.06213	0.96043
2561.13356	0.96097
2559.20500	0.96091
2557.27643	0.95989
2555.34787	0.95862
2553.41930	0.95724
2551.49074	0.95544
2549.56218	0.95319
2547.63361	0.95092
2545.70505	0.94932
2543.77648	0.94849
2541.84792	0.94792
2539.91935	0.94770
2537.99079	0.94820
2536.06222	0.94874
2534.13366	0.94829
2532.20510	0.94708
2530.27653	0.94630
2528.34797	0.94638
2526.41940	0.94623
2524.49084	0.94513
2522.56227	0.94377
2520.63371	0.94280
2518.70514	0.94217
2516.77658	0.94123
2514.84802	0.93992
2512.91945	0.93905
2510.99089	0.93829
2509.06232	0.93727
2507.13376	0.93663
2505.20519	0.93599
2503.27663	0.93419
2501.34806	0.93179
2499.41950	0.93057
2497.49094	0.93080
2495.56237	0.93125
2493.63381	0.93084
2491.70524	0.92922
2489.77668	0.92715
2487.84811	0.92595
2485.91955	0.92583
2483.99098	0.92563
2482.06242	0.92464
2480.13386	0.92357
2478.20529	0.92308
2476.27673	0.92278
2474.34816	0.92232
2472.41960	0.92202
2470.49103	0.92189
2468.56247	0.92153
2466.63391	0.92093
2464.70534	0.92040
2462.77678	0.91982
2460.84821	0.91840
2458.91965	0.91635
2456.99108	0.91541
2455.06252	0.91577
2453.13395	0.91581
2451.20539	0.91493
2449.27683	0.91371
2447.34826	0.91255
2445.41970	0.91150
2443.49113	0.91040
2441.56257	0.90904
2439.63400	0.90752
2437.70544	0.90607
2435.77687	0.90487
2433.84831	0.90395
2431.91975	0.90316
2429.99118	0.90229
2428.06262	0.90159
2426.13405	0.90143
2424.20549	0.90134
2422.27692	0.90105
2420.34836	0.90083
2418.41979	0.90044
2416.49123	0.89975
2414.56267	0.89912
2412.63410	0.89863
2410.70554	0.89830
2408.77697	0.89821
2406.84841	0.89782
2404.91984	0.89679
2402.99128	0.89572
2401.06271	0.89494
2399.13415	0.89458
2397.20559	0.89447
2395.27702	0.89360
2393.34846	0.89203
2391.41989	0.89148
2389.49133	0.89232
2387.56276	0.89276
2385.63420	0.89206
2383.70563	0.89173
2381.77707	0.89270
2379.84851	0.89423
2377.91994	0.89618
2375.99138	0.89874
2374.06281	0.90074
2372.13425	0.90224
2370.20568	0.90401
2368.27712	0.90537
2366.34855	0.90735
2364.41999	0.90976
2362.49143	0.91044
2360.56286	0.91116
2358.63430	0.91275
2356.70573	0.91207
2354.77717	0.90833
2352.84860	0.90376
2350.92004	0.89940
2348.99147	0.89605
2347.06291	0.89530
2345.13435	0.89904
2343.20578	0.90500
2341.27722	0.90620
2339.34865	0.90229
2337.42009	0.89924
2335.49152	0.89999
2333.56296	0.90239
2331.63440	0.90379
2329.70583	0.90388
2327.77727	0.90262
2325.84870	0.89979
2323.92014	0.89698
2321.99157	0.89480
2320.06301	0.89225
2318.13444	0.88982
2316.20588	0.88792
2314.27732	0.88585
2312.34875	0.88387
2310.42019	0.88270
2308.49162	0.88170
2306.56306	0.87998
2304.63449	0.87772
2302.70593	0.87590
2300.77736	0.87506
2298.84880	0.87474
2296.92024	0.87425
2294.99167	0.87357
2293.06311	0.87278
2291.13454	0.87162
2289.20598	0.87031
2287.27741	0.86965
2285.34885	0.86951
2283.42028	0.86904
2281.49172	0.86844
2279.56316	0.86824
2277.63459	0.86829
2275.70603	0.86851
2273.77746	0.86841
2271.84890	0.86758
2269.92033	0.86656
2267.99177	0.86583
2266.06320	0.86511
2264.13464	0.86442
2262.20608	0.86392
2260.27751	0.86314
2258.34895	0.86205
2256.42038	0.86125
2254.49182	0.86069
2252.56325	0.85986
2250.63469	0.85879
2248.70612	0.85799
2246.77756	0.85760
2244.84900	0.85736
2242.92043	0.85685
2240.99187	0.85589
2239.06330	0.85509
2237.13474	0.85493
2235.20617	0.85532
2233.27761	0.85590
2231.34904	0.85617
2229.42048	0.85643
2227.49192	0.85712
2225.56335	0.85749
2223.63479	0.85722
2221.70622	0.85728
2219.77766	0.85796
2217.84909	0.85826
2215.92053	0.85794
2213.99196	0.85780
2212.06340	0.85770
2210.13484	0.85703
2208.20627	0.85608
2206.27771	0.85534
2204.34914	0.85481
2202.42058	0.85412
2200.49201	0.85303
2198.56345	0.85201
2196.63488	0.85147
2194.70632	0.85087
2192.77776	0.84970
2190.84919	0.84842
2188.92063	0.84746
2186.99206	0.84684
2185.06350	0.84645
2183.13493	0.84600
2181.20637	0.84542
2179.27781	0.84487
2177.34924	0.84446
2175.42068	0.84460
2173.49211	0.84533
2171.56355	0.84604
2169.63498	0.84648
2167.70642	0.84674
2165.77785	0.84673
2163.84929	0.84680
2161.92073	0.84723
2159.99216	0.84771
2158.06360	0.84791
2156.13503	0.84794
2154.20647	0.84804
2152.27790	0.84817
2150.34934	0.84830
2148.42077	0.84840
2146.49221	0.84825
2144.56365	0.84767
2142.63508	0.84690
2140.70652	0.84633
2138.77795	0.84595
2136.84939	0.84575
2134.92082	0.84574
2132.99226	0.84585
2131.06369	0.84619
2129.13513	0.84664
2127.20657	0.84668
2125.27800	0.84603
2123.34944	0.84512
2121.42087	0.84486
2119.49231	0.84527
2117.56374	0.84546
2115.63518	0.84512
2113.70661	0.84457
2111.77805	0.84417
2109.84949	0.84385
2107.92092	0.84349
2105.99236	0.84297
2104.06379	0.84207
2102.13523	0.84107
2100.20666	0.84019
2098.27810	0.83927
2096.34953	0.83843
2094.42097	0.83765
2092.49241	0.83696
2090.56384	0.83650
2088.63528	0.83597
2086.70671	0.83515
2084.77815	0.83403
2082.84958	0.83259
2080.92102	0.83118
2078.99245	0.83022
2077.06389	0.82958
2075.13533	0.82887
2073.20676	0.82798
2071.27820	0.82716
2069.34963	0.82665
2067.42107	0.82637
2065.49250	0.82608
2063.56394	0.82537
2061.63537	0.82401
2059.70681	0.82274
2057.77825	0.82215
2055.84968	0.82166
2053.92112	0.82077
2051.99255	0.81988
2050.06399	0.81920
2048.13542	0.81837
2046.20686	0.81734
2044.27830	0.81635
2042.34973	0.81564
2040.42117	0.81519
2038.49260	0.81479
2036.56404	0.81421
2034.63547	0.81326
2032.70691	0.81206
2030.77834	0.81083
2028.84978	0.80960
2026.92122	0.80857
2024.99265	0.80770
2023.06409	0.80656
2021.13552	0.80531
2019.20696	0.80435
2017.27839	0.80350
2015.34983	0.80252
2013.42126	0.80160
2011.49270	0.80097
2009.56414	0.80049
2007.63557	0.79994
2005.70701	0.79909
2003.77844	0.79807
2001.84988	0.79755
1999.92131	0.79772
1997.99275	0.79796
1996.06418	0.79809
1994.13562	0.79828
1992.20706	0.79824
1990.27849	0.79763
1988.34993	0.79663
1986.42136	0.79568
1984.49280	0.79496
1982.56423	0.79442
1980.63567	0.79391
1978.70710	0.79337
1976.77854	0.79288
1974.84998	0.79243
1972.92141	0.79184
1970.99285	0.79103
1969.06428	0.79044
1967.13572	0.79036
1965.20715	0.79020
1963.27859	0.78965
1961.35002	0.78908
1959.42146	0.78847
1957.49290	0.78799
1955.56433	0.78807
1953.63577	0.78853
1951.70720	0.78890
1949.77864	0.78908
1947.85007	0.78922
1945.92151	0.78934
1943.99294	0.78950
1942.06438	0.78959
1940.13582	0.78929
1938.20725	0.78892
1936.27869	0.78881
1934.35012	0.78855
1932.42156	0.78774
1930.49299	0.78669
1928.56443	0.78591
1926.63586	0.78554
1924.70730	0.78556
1922.77874	0.78534
1920.85017	0.78453
1918.92161	0.78411
1916.99304	0.78391
1915.06448	0.78285
1913.13591	0.78142
1911.20735	0.78024
1909.27878	0.77935
1907.35022	0.77856
1905.42166	0.77777
1903.49309	0.77704
1901.56453	0.77631
1899.63596	0.77568
1897.70740	0.77530
1895.77883	0.77503
1893.85027	0.77464
1891.92171	0.77412
1889.99314	0.77358
1888.06458	0.77277
1886.13601	0.77179
1884.20745	0.77076
1882.27888	0.76955
1880.35032	0.76846
1878.42175	0.76781
1876.49319	0.76729
1874.56463	0.76661
1872.63606	0.76630
1870.70750	0.76712
1868.77893	0.76842
1866.85037	0.76749
1864.92180	0.76481
1862.99324	0.76269
1861.06467	0.76139
1859.13611	0.76017
1857.20755	0.75892
1855.27898	0.75787
1853.35042	0.75666
1851.42185	0.75531
1849.49329	0.75461
1847.56472	0.75468
1845.63616	0.75482
1843.70759	0.75385
1841.77903	0.75177
1839.85047	0.74992
1837.92190	0.74857
1835.99334	0.74747
1834.06477	0.74659
1832.13621	0.74645
1830.20764	0.74697
1828.27908	0.74673
1826.35051	0.74583
1824.42195	0.74517
1822.49339	0.74441
1820.56482	0.74368
1818.63626	0.74333
1816.70769	0.74296
1814.77913	0.74254
1812.85056	0.74247
1810.92200	0.74256
1808.99343	0.74213
1807.06487	0.74120
1805.13631	0.74048
1803.20774	0.74048
1801.27918	0.74092
1799.35061	0.74070
1797.42205	0.73984
1795.49348	0.73933
1793.56492	0.73959
1791.63635	0.73952
1789.70779	0.73780
1787.77923	0.73613
1785.85066	0.73572
1783.92210	0.73615
1781.99353	0.73692
1780.06497	0.73772
1778.13640	0.73818
1776.20784	0.73882
1774.27927	0.74069
1772.35071	0.74357
1770.42215	0.74495
1768.49358	0.74488
1766.56502	0.74482
1764.63645	0.74571
1762.70789	0.74824
1760.77932	0.75105
1758.85076	0.75275
1756.92220	0.75455
1754.99363	0.75640
1753.06507	0.75897
1751.13650	0.76442
1749.20794	0.77103
1747.27937	0.77515
1745.35081	0.77854
1743.42224	0.78274
1741.49368	0.78760
1739.56512	0.79256
1737.63655	0.79615
1735.70799	0.79962
1733.77942	0.80592
1731.85086	0.81032
1729.92229	0.81215
1727.99373	0.81486
1726.06516	0.81901
1724.13660	0.82492
1722.20804	0.83098
1720.27947	0.83674
1718.35091	0.84670
1716.42234	0.86231
1714.49378	0.87286
1712.56521	0.88043
1710.63665	0.89001
1708.70808	0.90255
1706.77952	0.92142
1704.85096	0.94626
1702.92239	0.96924
1700.99383	1.00093
1699.06526	1.04751
1697.13670	1.08714
1695.20813	1.12424
1693.27957	1.15278
1691.35100	1.17686
1689.42244	1.20584
1687.49388	1.23107
1685.56531	1.25433
1683.63675	1.28955
1681.70818	1.31379
1679.77962	1.32639
1677.85105	1.33893
1675.92249	1.35522
1673.99392	1.37163
1672.06536	1.38202
1670.13680	1.39400
1668.20823	1.40960
1666.27967	1.41839
1664.35110	1.42490
1662.42254	1.43355
1660.49397	1.44047
1658.56541	1.44515
1656.63684	1.44906
1654.70828	1.45402
1652.77972	1.45828
1650.85115	1.45465
1648.92259	1.44905
1646.99402	1.44447
1645.06546	1.44278
1643.13689	1.44122
1641.20833	1.43960
1639.27976	1.43859
1637.35120	1.43972
1635.42264	1.44003
1633.49407	1.43409
1631.56551	1.42809
1629.63694	1.42353
1627.70838	1.41912
1625.77981	1.41305
1623.85125	1.40251
1621.92269	1.38723
1619.99412	1.37301
1618.06556	1.35741
1616.13699	1.33474
1614.20843	1.31427
1612.27986	1.29766
1610.35130	1.28039
1608.42273	1.26250
1606.49417	1.24725
1604.56561	1.23644
1602.63704	1.22840
1600.70848	1.22205
1598.77991	1.21810
1596.85135	1.21632
1594.92278	1.21538
1592.99422	1.21559
1591.06565	1.21828
1589.13709	1.22348
1587.20853	1.23018
1585.27996	1.23735
1583.35140	1.24538
1581.42283	1.25508
1579.49427	1.26614
1577.56570	1.28140
1575.63714	1.30065
1573.70857	1.31051
1571.78001	1.31643
1569.85145	1.32877
1567.92288	1.34358
1565.99432	1.35490
1564.06575	1.36515
1562.13719	1.37247
1560.20862	1.38114
1558.28006	1.39803
1556.35149	1.40210
1554.42293	1.40148
1552.49437	1.40234
1550.56580	1.40328
1548.63724	1.40252
1546.70867	1.40069
1544.78011	1.39994
1542.85154	1.40219
1540.92298	1.40485
1538.99441	1.39659
1537.06585	1.38678
1535.13729	1.37890
1533.20872	1.37154
1531.28016	1.36607
1529.35159	1.36233
1527.42303	1.35967
1525.49446	1.35781
1523.56590	1.35643
1521.63733	1.35547
1519.70877	1.35382
1517.78021	1.34855
1515.85164	1.33929
1513.92308	1.32950
1511.99451	1.32065
1510.06595	1.31304
1508.13738	1.30114
1506.20882	1.27321
1504.28025	1.25338
1502.35169	1.24142
1500.42313	1.22999
1498.49456	1.21622
1496.56600	1.19888
1494.63743	1.18389
1492.70887	1.17316
1490.78030	1.16227
1488.85174	1.14846
1486.92317	1.13604
1484.99461	1.12738
1483.06605	1.12187
1481.13748	1.11886
1479.20892	1.11834
1477.28035	1.12162
1475.35179	1.13008
1473.42322	1.14434
1471.49466	1.15763
1469.56610	1.16362
1467.63753	1.16800
1465.70897	1.17470
1463.78040	1.18117
1461.85184	1.18403
1459.92327	1.18617
1457.99471	1.19191
1456.06614	1.19820
1454.13758	1.19881
1452.20902	1.19846
1450.28045	1.19844
1448.35189	1.19752
1446.42332	1.19487
1444.49476	1.19170
1442.56619	1.18908
1440.63763	1.18672
1438.70906	1.18372
1436.78050	1.17903
1434.85194	1.17262
1432.92337	1.16590
1430.99481	1.15900
1429.06624	1.15195
1427.13768	1.14621
1425.20911	1.14320
1423.28055	1.14290
1421.35198	1.14405
1419.42342	1.14616
1417.49486	1.14730
1415.56629	1.14650
1413.63773	1.14537
1411.70916	1.14418
1409.78060	1.14345
1407.85203	1.14403
1405.92347	1.14559
1403.99490	1.14714
1402.06634	1.14854
1400.13778	1.15045
1398.20921	1.15281
1396.28065	1.15485
1394.35208	1.15541
1392.42352	1.15525
1390.49495	1.15722
1388.56639	1.16397
1386.63782	1.17555
1384.70926	1.18649
1382.78070	1.19481
1380.85213	1.20098
1378.92357	1.20336
1376.99500	1.20111
1375.06644	1.19411
1373.13787	1.18287
1371.20931	1.17050
1369.28074	1.15719
1367.35218	1.14279
1365.42362	1.12963
1363.49505	1.11778
1361.56649	1.10761
1359.63792	1.10120
1357.70936	1.09780
1355.78079	1.09579
1353.85223	1.09468
1351.92366	1.09461
1349.99510	1.09543
1348.06654	1.09657
1346.13797	1.09766
1344.20941	1.09907
1342.28084	1.10133
1340.35228	1.10501
1338.42371	1.10963
1336.49515	1.11387
1334.56659	1.11850
1332.63802	1.12466
1330.70946	1.13166
1328.78089	1.13747
1326.85233	1.14102
1324.92376	1.14325
1322.99520	1.14534
1321.06663	1.14734
1319.13807	1.14918
1317.20951	1.15099
1315.28094	1.15282
1313.35238	1.15478
1311.42381	1.15657
1309.49525	1.15740
1307.56668	1.15689
1305.63812	1.15551
1303.70955	1.15419
1301.78099	1.15314
1299.85243	1.15189
1297.92386	1.15008
1295.99530	1.14830
1294.06673	1.14750
1292.13817	1.14795
1290.20960	1.14994
1288.28104	1.15305
1286.35247	1.15558
1284.42391	1.15676
1282.49535	1.15745
1280.56678	1.15873
1278.63822	1.16096
1276.70965	1.16350
1274.78109	1.16582
1272.85252	1.16868
1270.92396	1.17251
1268.99539	1.17670
1267.06683	1.18113
1265.13827	1.18562
1263.20970	1.18924
1261.28114	1.19114
1259.35257	1.19101
1257.42401	1.18984
1255.49544	1.18939
1253.56688	1.19017
1251.63831	1.19127
1249.70975	1.19202
1247.78119	1.19270
1245.85262	1.19334
1243.92406	1.19354
1241.99549	1.19371
1240.06693	1.19460
1238.13836	1.19569
1236.20980	1.19549
1234.28123	1.19332
1232.35267	1.18978
1230.42411	1.18587
1228.49554	1.18203
1226.56698	1.17759
1224.63841	1.17235
1222.70985	1.16698
1220.78128	1.16132
1218.85272	1.15592
1216.92415	1.15230
1214.99559	1.15020
1213.06703	1.14887
1211.13846	1.14889
1209.20990	1.15003
1207.28133	1.15046
1205.35277	1.14818
1203.42420	1.14287
1201.49564	1.13576
1199.56708	1.12771
1197.63851	1.11934
1195.70995	1.11165
1193.78138	1.10566
1191.85282	1.10186
1189.92425	1.09976
1187.99569	1.09873
1186.06712	1.09901
1184.13856	1.10115
1182.21000	1.10491
1180.28143	1.11028
1178.35287	1.11789
1176.42430	1.12689
1174.49574	1.13605
1172.56717	1.14549
1170.63861	1.15522
1168.71004	1.16553
1166.78148	1.17696
1164.85292	1.18795
1162.92435	1.19576
1160.99579	1.20000
1159.06722	1.20184
1157.13866	1.20005
1155.21009	1.19292
1153.28153	1.18234
1151.35296	1.17123
1149.42440	1.16053
1147.49584	1.14987
1145.56727	1.13932
1143.63871	1.13097
1141.71014	1.12668
1139.78158	1.12589
1137.85301	1.12783
1135.92445	1.13238
1133.99588	1.13942
1132.06732	1.14947
1130.13876	1.16236
1128.21019	1.17647
1126.28163	1.19073
1124.35306	1.20447
1122.42450	1.21591
1120.49593	1.22427
1118.56737	1.23066
1116.63880	1.23436
1114.71024	1.23407
1112.78168	1.23093
1110.85311	1.22614
1108.92455	1.22063
1106.99598	1.21590
1105.06742	1.21315
1103.13885	1.21213
1101.21029	1.21157
1099.28172	1.21222
1097.35316	1.21561
1095.42460	1.22158
1093.49603	1.22953
1091.56747	1.23901
1089.63890	1.24927
1087.71034	1.25897
1085.78177	1.26835
1083.85321	1.27867
1081.92464	1.28828
1079.99608	1.29479
1078.06752	1.29840
1076.13895	1.29935
1074.21039	1.29572
1072.28182	1.28792
1070.35326	1.27930
1068.42469	1.27115
1066.49613	1.26315
1064.56756	1.25516
1062.63900	1.24698
1060.71044	1.23884
1058.78187	1.23107
1056.85331	1.22349
1054.92474	1.21693
1052.99618	1.21345
1051.06761	1.21308
1049.13905	1.21423
1047.21049	1.21635
1045.28192	1.22000
1043.35336	1.22619
1041.42479	1.23487
1039.49623	1.24368
1037.56766	1.25033
1035.63910	1.25461
1033.71053	1.25706
1031.78197	1.25760
1029.85341	1.25586
1027.92484	1.25149
1025.99628	1.24440
1024.06771	1.23638
1022.13915	1.23030
1020.21058	1.22573
1018.28202	1.22032
1016.35345	1.21358
1014.42489	1.20425
1012.49633	1.19130
1010.56776	1.17573
1008.63920	1.15842
1006.71063	1.14054
1004.78207	1.12381
1002.85350	1.10926
1000.92494	1.09640
998.99637	1.08510
997.06781	1.07652
995.13925	1.07006
993.21068	1.06414
991.28212	1.05839
989.35355	1.05285
987.42499	1.04805
985.49642	1.04501
983.56786	1.04388
981.63929	1.04390
979.71073	1.04483
977.78217	1.04639
975.85360	1.04739
973.92504	1.04695
971.99647	1.04511
970.06791	1.04204
968.13934	1.03821
966.21078	1.03505
964.28221	1.03419
962.35365	1.03653
960.42509	1.04216
958.49652	1.05045
956.56796	1.05882
954.63939	1.06340
952.71083	1.06243
950.78226	1.05634
948.85370	1.04713
946.92513	1.03802
944.99657	1.03045
943.06801	1.02384
941.13944	1.01812
939.21088	1.01349
937.28231	1.00964
935.35375	1.00677
933.42518	1.00509
931.49662	1.00401
929.56805	1.00343
927.63949	1.00330
925.71093	1.00349
923.78236	1.00459
921.85380	1.00640
919.92523	1.00795
917.99667	1.00896
916.06810	1.00985
914.13954	1.01135
912.21098	1.01385
910.28241	1.01716
908.35385	1.02089
906.42528	1.02465
904.49672	1.02838
902.56815	1.03232
900.63959	1.03623
898.71102	1.03913
896.78246	1.04036
894.85390	1.04046
892.92533	1.03964
890.99677	1.03727
889.06820	1.03317
887.13964	1.02828
885.21107	1.02411
883.28251	1.02119
881.35394	1.01889
879.42538	1.01635
877.49682	1.01326
875.56825	1.01033
873.63969	1.00772
871.71112	1.00494
869.78256	1.00242
867.85399	1.00109
865.92543	1.00079
863.99686	1.00029
862.06830	0.99955
860.13974	0.99955
858.21117	1.00068
856.28261	1.00284
854.35404	1.00558
852.42548	1.00838
850.49691	1.01122
848.56835	1.01388
846.63978	1.01568
844.71122	1.01649
842.78266	1.01716
840.85409	1.01848
838.92553	1.02034
836.99696	1.02232
835.06840	1.02375
833.13983	1.02387
831.21127	1.02343
829.28270	1.02319
827.35414	1.02227
825.42558	1.02034
823.49701	1.01779
821.56845	1.01406
819.63988	1.00900
817.71132	1.00416
815.78275	1.00057
813.85419	0.99722
811.92562	0.99320
809.99706	0.98894
808.06850	0.98511
806.13993	0.98166
804.21137	0.97808
802.28280	0.97475
800.35424	0.97233
798.42567	0.97071
796.49711	0.96995
794.56854	0.96990
792.63998	0.96999
790.71142	0.97107
788.78285	0.97436
786.85429	0.97886
784.92572	0.98286
782.99716	0.98667
781.06859	0.99133
779.14003	0.99592
777.21147	0.99904
775.28290	1.00183
773.35434	1.00566
771.42577	1.00941
769.49721	1.01207
767.56864	1.01432
765.64008	1.01671
763.71151	1.01898
761.78295	1.02085
759.85439	1.02223
757.92582	1.02283
755.99726	1.02304
754.06869	1.02422
752.14013	1.02619
750.21156	1.02768
748.28300	1.02823
746.35443	1.02827
744.42587	1.02839
742.49731	1.02817
740.56874	1.02802
738.64018	1.02894
736.71161	1.03063
734.78305	1.03289
732.85448	1.03535
730.92592	1.03734
728.99735	1.03929
727.06879	1.04180
725.14023	1.04476
723.21166	1.04788
721.28310	1.05078
719.35453	1.05291
717.42597	1.05418
715.49740	1.05519
713.56884	1.05733
711.64027	1.06107
709.71171	1.06464
707.78315	1.06624
705.85458	1.06589
703.92602	1.06558
701.99745	1.06662
700.06889	1.06784
698.14032	1.06797
696.21176	1.06700
694.28319	1.06501
692.35463	1.06232
690.42607	1.05949
688.49750	1.05587
686.56894	1.05173
684.64037	1.04962
682.71181	1.04994
680.78324	1.05024
678.85468	1.04820
676.92611	1.04366
674.99755	1.03916
673.06899	1.03702
671.14042	1.03690
669.21186	1.03903
667.28329	1.04389
665.35473	1.04714
663.42616	1.04961
661.49760	1.05280
659.56903	1.05562
657.64047	1.05806
655.71191	1.06047
653.78334	1.06151
651.85478	1.06117
649.92621	1.06176
647.99765	1.06532
646.06908	1.07107
644.14052	1.07586
642.21195	1.07874
640.28339	1.08155
638.35483	1.08385
636.42626	1.08404
634.49770	1.08301
632.56913	1.08265
630.64057	1.08308
628.71200	1.08217
626.78344	1.07902
624.85488	1.07532
622.92631	1.07159
620.99775	1.06693
619.06918	1.06243
617.14062	1.05953
615.21205	1.05734
613.28349	1.05503
611.35492	1.05401
609.42636	1.05507
607.49780	1.05506
605.56923	1.05144
603.64067	1.04794
601.71210	1.04847
599.78354	1.05085
