3997.91406	0.85441
3995.98550	0.85503
3994.05693	0.85511
3992.12837	0.85451
3990.19980	0.85193
3988.27124	0.84883
3986.34268	0.84887
3984.41411	0.85070
3982.48555	0.85047
3980.55698	0.84778
3978.62842	0.84550
3976.69985	0.84644
3974.77129	0.84987
3972.84272	0.85297
3970.91416	0.85449
3968.98560	0.85315
3967.05703	0.84945
3965.12847	0.84710
3963.19990	0.84752
3961.27134	0.85019
3959.34277	0.85420
3957.41421	0.85608
3955.48564	0.85353
3953.55708	0.84957
3951.62852	0.84805
3949.69995	0.84834
3947.77139	0.84717
3945.84282	0.84490
3943.91426	0.84384
3941.98569	0.84390
3940.05713	0.84410
3938.12856	0.84528
3936.20000	0.84728
3934.27144	0.84814
3932.34287	0.84768
3930.41431	0.84689
3928.48574	0.84600
3926.55718	0.84511
3924.62861	0.84388
3922.70005	0.84281
3920.77148	0.84210
3918.84292	0.84021
3916.91436	0.83825
3914.98579	0.83802
3913.05723	0.83770
3911.12866	0.83759
3909.20010	0.83963
3907.27153	0.84380
3905.34297	0.84797
3903.41440	0.84620
3901.48584	0.83894
3899.55728	0.83496
3897.62871	0.83595
3895.70015	0.83703
3893.77158	0.83502
3891.84302	0.83165
3889.91445	0.83085
3887.98589	0.83075
3886.05733	0.82880
3884.12876	0.82651
3882.20020	0.82705
3880.27163	0.82990
3878.34307	0.83087
3876.41450	0.82971
3874.48594	0.83029
3872.55737	0.83418
3870.62881	0.83732
3868.70025	0.83699
3866.77168	0.83539
3864.84312	0.83399
3862.91455	0.83362
3860.98599	0.83346
3859.05742	0.83311
3857.12886	0.83463
3855.20029	0.83732
3853.27173	0.83546
3851.34317	0.83430
3849.41460	0.83556
3847.48604	0.83516
3845.55747	0.83305
3843.62891	0.83107
3841.70034	0.83088
3839.77178	0.83168
3837.84321	0.83317
3835.91465	0.83504
3833.98609	0.83403
3832.05752	0.83020
3830.12896	0.82741
3828.20039	0.82628
3826.27183	0.82471
3824.34326	0.82231
3822.41470	0.81954
3820.48613	0.81923
3818.55757	0.82201
3816.62901	0.82398
3814.70044	0.82363
3812.77188	0.82126
3810.84331	0.81893
3808.91475	0.81898
3806.98618	0.82101
3805.05762	0.82189
3803.12905	0.82155
3801.20049	0.82238
3799.27193	0.82487
3797.34336	0.82528
3795.41480	0.82254
3793.48623	0.82043
3791.55767	0.82059
3789.62910	0.82156
3787.70054	0.82207
3785.77197	0.82188
3783.84341	0.82052
3781.91485	0.81830
3779.98628	0.81670
3778.05772	0.81528
3776.12915	0.81327
3774.20059	0.81274
3772.27202	0.81436
3770.34346	0.81587
3768.41489	0.81539
3766.48633	0.81358
3764.55777	0.81093
3762.62920	0.80799
3760.70064	0.80675
3758.77207	0.80931
3756.84351	0.81192
3754.91494	0.81152
3752.98638	0.81011
3751.05781	0.80998
3749.12925	0.81062
3747.20069	0.81034
3745.27212	0.81141
3743.34356	0.81613
3741.41499	0.81984
3739.48643	0.82010
3737.55786	0.81637
3735.62930	0.80906
3733.70074	0.80584
3731.77217	0.80847
3729.84361	0.81084
3727.91504	0.81159
3725.98648	0.81197
3724.05791	0.81257
3722.12935	0.81274
3720.20078	0.81174
3718.27222	0.80950
3716.34366	0.80764
3714.41509	0.80815
3712.48653	0.81068
3710.55796	0.81139
3708.62940	0.80950
3706.70083	0.80785
3704.77227	0.80689
3702.84370	0.80658
3700.91514	0.80745
3698.98658	0.80957
3697.05801	0.81213
3695.12945	0.81309
3693.20088	0.81260
3691.27232	0.81347
3689.34375	0.81447
3687.41519	0.81267
3685.48662	0.81146
3683.55806	0.81227
3681.62950	0.81376
3679.70093	0.81410
3677.77237	0.81373
3675.84380	0.81619
3673.91524	0.82150
3671.98667	0.82510
3670.05811	0.82862
3668.12954	0.83258
3666.20098	0.83550
3664.27242	0.83826
3662.34385	0.84064
3660.41529	0.84227
3658.48672	0.84430
3656.55816	0.84804
3654.62959	0.85248
3652.70103	0.85652
3650.77246	0.86157
3648.84390	0.86653
3646.91534	0.87042
3644.98677	0.87568
3643.05821	0.88067
3641.12964	0.88434
3639.20108	0.88782
3637.27251	0.89197
3635.34395	0.89666
3633.41538	0.90164
3631.48682	0.90703
3629.55826	0.91452
3627.62969	0.92154
3625.70113	0.92558
3623.77256	0.92975
3621.84400	0.93383
3619.91543	0.93848
3617.98687	0.94505
3616.05830	0.95029
3614.12974	0.95394
3612.20118	0.95674
3610.27261	0.95833
3608.34405	0.96187
3606.41548	0.96980
3604.48692	0.97936
3602.55835	0.98881
3600.62979	0.99645
3598.70123	1.00085
3596.77266	1.00408
3594.84410	1.00700
3592.91553	1.00858
3590.98697	1.01132
3589.05840	1.01906
3587.12984	1.03024
3585.20127	1.03743
3583.27271	1.04119
3581.34415	1.04396
3579.41558	1.04690
3577.48702	1.05130
3575.55845	1.05701
3573.62989	1.06258
3571.70132	1.06737
3569.77276	1.07198
3567.84419	1.07725
3565.91563	1.08140
3563.98707	1.08391
3562.05850	1.08782
3560.12994	1.09429
3558.20137	1.10275
3556.27281	1.11108
3554.34424	1.11823
3552.41568	1.12554
3550.48711	1.13243
3548.55855	1.13652
3546.62999	1.13860
3544.70142	1.14344
3542.77286	1.15141
3540.84429	1.15882
3538.91573	1.16481
3536.98716	1.16980
3535.05860	1.17464
3533.13003	1.18093
3531.20147	1.18897
3529.27291	1.19736
3527.34434	1.20433
3525.41578	1.20907
3523.48721	1.21419
3521.55865	1.22317
3519.63008	1.23281
3517.70152	1.23831
3515.77295	1.24113
3513.84439	1.24699
3511.91583	1.25857
3509.98726	1.27156
3508.05870	1.28211
3506.13013	1.29250
3504.20157	1.30231
3502.27300	1.30947
3500.34444	1.31750
3498.41587	1.32672
3496.48731	1.33265
3494.55875	1.33523
3492.63018	1.33870
3490.70162	1.34471
3488.77305	1.35289
3486.84449	1.36114
3484.91592	1.36565
3482.98736	1.37011
3481.05879	1.38047
3479.13023	1.39108
3477.20167	1.39746
3475.27310	1.40250
3473.34454	1.40617
3471.41597	1.40901
3469.48741	1.41014
3467.55884	1.40619
3465.63028	1.40554
3463.70171	1.41539
3461.77315	1.42439
3459.84459	1.42463
3457.91602	1.42215
3455.98746	1.42059
3454.05889	1.42467
3452.13033	1.43760
3450.20176	1.44778
3448.27320	1.44706
3446.34464	1.44569
3444.41607	1.44783
3442.48751	1.44801
3440.55894	1.44807
3438.63038	1.45110
3436.70181	1.45402
3434.77325	1.45568
3432.84468	1.45932
3430.91612	1.46208
3428.98756	1.45982
3427.05899	1.45635
3425.13043	1.45576
3423.20186	1.45708
3421.27330	1.45833
3419.34473	1.45944
3417.41617	1.46045
3415.48760	1.46279
3413.55904	1.46687
3411.63048	1.46947
3409.70191	1.46945
3407.77335	1.46541
3405.84478	1.45887
3403.91622	1.45854
3401.98765	1.46630
3400.05909	1.47596
3398.13052	1.48232
3396.20196	1.48095
3394.27340	1.47345
3392.34483	1.46749
3390.41627	1.46779
3388.48770	1.47275
3386.55914	1.47896
3384.63057	1.48743
3382.70201	1.49529
3380.77344	1.49402
3378.84488	1.49056
3376.91632	1.49758
3374.98775	1.50837
3373.05919	1.51035
3371.13062	1.50604
3369.20206	1.50520
3367.27349	1.50941
3365.34493	1.51094
3363.41636	1.50776
3361.48780	1.50757
3359.55924	1.51173
3357.63067	1.51480
3355.70211	1.51652
3353.77354	1.51883
3351.84498	1.51989
3349.91641	1.51952
3347.98785	1.52252
3346.05928	1.52775
3344.13072	1.52783
3342.20216	1.52763
3340.27359	1.53640
3338.34503	1.54815
3336.41646	1.55417
3334.48790	1.55689
3332.55933	1.55948
3330.63077	1.56149
3328.70220	1.56247
3326.77364	1.56272
3324.84508	1.56779
3322.91651	1.57999
3320.98795	1.58872
3319.05938	1.58929
3317.13082	1.59165
3315.20225	1.59928
3313.27369	1.60420
3311.34513	1.60526
3309.41656	1.60921
3307.48800	1.61482
3305.55943	1.61650
3303.63087	1.61727
3301.70230	1.62284
3299.77374	1.62879
3297.84517	1.63011
3295.91661	1.63119
3293.98805	1.63496
3292.05948	1.64187
3290.13092	1.64791
3288.20235	1.64447
3286.27379	1.63579
3284.34522	1.63469
3282.41666	1.64183
3280.48809	1.64760
3278.55953	1.64883
3276.63097	1.64823
3274.70240	1.64592
3272.77384	1.64013
3270.84527	1.63007
3268.91671	1.61839
3266.98814	1.61065
3265.05958	1.61219
3263.13101	1.61735
3261.20245	1.61038
3259.27389	1.59152
3257.34532	1.57659
3255.41676	1.56976
3253.48819	1.56616
3251.55963	1.56483
3249.63106	1.56231
3247.70250	1.55478
3245.77393	1.54453
3243.84537	1.53353
3241.91681	1.52257
3239.98824	1.51475
3238.05968	1.51124
3236.13111	1.50700
3234.20255	1.50020
3232.27398	1.49514
3230.34542	1.49396
3228.41685	1.49575
3226.48829	1.49407
3224.55973	1.48396
3222.63116	1.47190
3220.70260	1.46467
3218.77403	1.46202
3216.84547	1.45923
3214.91690	1.45260
3212.98834	1.44500
3211.05977	1.43896
3209.13121	1.43348
3207.20265	1.43058
3205.27408	1.42928
3203.34552	1.42443
3201.41695	1.41872
3199.48839	1.41679
3197.55982	1.41447
3195.63126	1.40764
3193.70269	1.40019
3191.77413	1.39773
3189.84557	1.40016
3187.91700	1.40095
3185.98844	1.39564
3184.05987	1.38842
3182.13131	1.38329
3180.20274	1.37957
3178.27418	1.37727
3176.34562	1.37530
3174.41705	1.37147
3172.48849	1.36558
3170.55992	1.35761
3168.63136	1.34852
3166.70279	1.34032
3164.77423	1.33308
3162.84566	1.32683
3160.91710	1.32302
3158.98854	1.32235
3157.05997	1.32244
3155.13141	1.31829
3153.20284	1.30969
3151.27428	1.30240
3149.34571	1.30011
3147.41715	1.30064
3145.48858	1.29779
3143.56002	1.29046
3141.63146	1.28560
3139.70289	1.28717
3137.77433	1.29146
3135.84576	1.29328
3133.91720	1.29191
3131.98863	1.29028
3130.06007	1.29169
3128.13150	1.29507
3126.20294	1.29393
3124.27438	1.28756
3122.34581	1.28318
3120.41725	1.28392
3118.48868	1.28666
3116.56012	1.28696
3114.63155	1.28481
3112.70299	1.28517
3110.77442	1.28805
3108.84586	1.28927
3106.91730	1.28882
3104.98873	1.28653
3103.06017	1.28265
3101.13160	1.28132
3099.20304	1.28154
3097.27447	1.27908
3095.34591	1.27571
3093.41734	1.27352
3091.48878	1.27180
3089.56022	1.27080
3087.63165	1.26978
3085.70309	1.26849
3083.77452	1.26933
3081.84596	1.27129
3079.91739	1.27058
3077.98883	1.26779
3076.06026	1.26605
3074.13170	1.26491
3072.20314	1.26220
3070.27457	1.25848
3068.34601	1.25573
3066.41744	1.25419
3064.48888	1.25298
3062.56031	1.25220
3060.63175	1.25010
3058.70318	1.24412
3056.77462	1.23667
3054.84606	1.23126
3052.91749	1.22783
3050.98893	1.22491
3049.06036	1.22169
3047.13180	1.21825
3045.20323	1.21452
3043.27467	1.21062
3041.34610	1.20637
3039.41754	1.20199
3037.48898	1.19911
3035.56041	1.19767
3033.63185	1.19584
3031.70328	1.19248
3029.77472	1.18890
3027.84615	1.18664
3025.91759	1.18363
3023.98903	1.17853
3022.06046	1.17385
3020.13190	1.17144
3018.20333	1.16985
3016.27477	1.16738
3014.34620	1.16484
3012.41764	1.16260
3010.48907	1.15958
3008.56051	1.15751
3006.63195	1.15812
3004.70338	1.15875
3002.77482	1.15699
3000.84625	1.15372
2998.91769	1.15138
2996.98912	1.15185
2995.06056	1.15448
2993.13199	1.15779
2991.20343	1.16032
2989.27487	1.16201
2987.34630	1.16571
2985.41774	1.17281
2983.48917	1.18115
2981.56061	1.18844
2979.63204	1.19422
2977.70348	1.19993
2975.77491	1.20681
2973.84635	1.21456
2971.91779	1.22287
2969.98922	1.23211
2968.06066	1.24214
2966.13209	1.25138
2964.20353	1.25783
2962.27496	1.26118
2960.34640	1.26141
2958.41783	1.25815
2956.48927	1.25285
2954.56071	1.24626
2952.63214	1.23835
2950.70358	1.23131
2948.77501	1.22688
2946.84645	1.22471
2944.91788	1.22530
2942.98932	1.23016
2941.06075	1.23750
2939.13219	1.24453
2937.20363	1.25362
2935.27506	1.26678
2933.34650	1.27954
2931.41793	1.28795
2929.48937	1.29291
2927.56080	1.29698
2925.63224	1.30235
2923.70367	1.30774
2921.77511	1.30875
2919.84655	1.30331
2917.91798	1.29306
2915.98942	1.27969
2914.06085	1.26368
2912.13229	1.24733
2910.20372	1.23296
2908.27516	1.22007
2906.34659	1.20956
2904.41803	1.20310
2902.48947	1.19888
2900.56090	1.19519
2898.63234	1.19176
2896.70377	1.18746
2894.77521	1.18252
2892.84664	1.17787
2890.91808	1.17340
2888.98952	1.16956
2887.06095	1.16714
2885.13239	1.16575
2883.20382	1.16411
2881.27526	1.16228
2879.34669	1.16067
2877.41813	1.15847
2875.48956	1.15657
2873.56100	1.15510
2871.63244	1.15157
2869.70387	1.14516
2867.77531	1.13743
2865.84674	1.13112
2863.91818	1.12816
2861.98961	1.12759
2860.06105	1.12860
2858.13248	1.13193
2856.20392	1.13694
2854.27536	1.14297
2852.34679	1.14912
2850.41823	1.15058
2848.48966	1.14199
2846.56110	1.12318
2844.63253	1.10083
2842.70397	1.08307
2840.77540	1.07124
2838.84684	1.06221
2836.91828	1.05491
2834.98971	1.04927
2833.06115	1.04385
2831.13258	1.03740
2829.20402	1.03131
2827.27545	1.02747
2825.34689	1.02477
2823.41832	1.02133
2821.48976	1.01731
2819.56120	1.01402
2817.63263	1.01194
2815.70407	1.00914
2813.77550	1.00395
2811.84694	0.99764
2809.91837	0.99264
2807.98981	0.98946
2806.06124	0.98666
2804.13268	0.98354
2802.20412	0.98072
2800.27555	0.97780
2798.34699	0.97395
2796.41842	0.97078
2794.48986	0.96957
2792.56129	0.96843
2790.63273	0.96656
2788.70416	0.96524
2786.77560	0.96462
2784.84704	0.96427
2782.91847	0.96419
2780.98991	0.96380
2779.06134	0.96261
2777.13278	0.96093
2775.20421	0.95878
2773.27565	0.95615
2771.34708	0.95391
2769.41852	0.95217
2767.48996	0.94998
2765.56139	0.94720
2763.63283	0.94477
2761.70426	0.94310
2759.77570	0.94183
2757.84713	0.94007
2755.91857	0.93702
2753.99001	0.93350
2752.06144	0.93064
2750.13288	0.92830
2748.20431	0.92608
2746.27575	0.92367
2744.34718	0.92112
2742.41862	0.91949
2740.49005	0.91893
2738.56149	0.91819
2736.63293	0.91693
2734.70436	0.91535
2732.77580	0.91339
2730.84723	0.91202
2728.91867	0.91213
2726.99010	0.91243
2725.06154	0.91158
2723.13297	0.91016
2721.20441	0.90894
2719.27585	0.90830
2717.34728	0.90796
2715.41872	0.90705
2713.49015	0.90585
2711.56159	0.90476
2709.63302	0.90344
2707.70446	0.90195
2705.77589	0.90050
2703.84733	0.89890
2701.91877	0.89693
2699.99020	0.89520
2698.06164	0.89414
2696.13307	0.89296
2694.20451	0.89104
2692.27594	0.88881
2690.34738	0.88693
2688.41881	0.88535
2686.49025	0.88369
2684.56169	0.88178
2682.63312	0.87998
2680.70456	0.87836
2678.77599	0.87632
2676.84743	0.87415
2674.91886	0.87279
2672.99030	0.87214
2671.06173	0.87130
2669.13317	0.86978
2667.20461	0.86823
2665.27604	0.86756
2663.34748	0.86744
2661.41891	0.86721
2659.49035	0.86705
2657.56178	0.86681
2655.63322	0.86613
2653.70465	0.86487
2651.77609	0.86329
2649.84753	0.86244
2647.91896	0.86207
2645.99040	0.86091
2644.06183	0.85950
2642.13327	0.85837
2640.20470	0.85677
2638.27614	0.85482
2636.34757	0.85307
2634.41901	0.85162
2632.49045	0.85075
2630.56188	0.85017
2628.63332	0.84934
2626.70475	0.84789
2624.77619	0.84588
2622.84762	0.84436
2620.91906	0.84364
2618.99049	0.84275
2617.06193	0.84122
2615.13337	0.83944
2613.20480	0.83817
2611.27624	0.83764
2609.34767	0.83716
2607.41911	0.83643
2605.49054	0.83574
2603.56198	0.83516
2601.63342	0.83482
2599.70485	0.83454
2597.77629	0.83347
2595.84772	0.83199
2593.91916	0.83117
2591.99059	0.83070
2590.06203	0.83016
2588.13346	0.82951
2586.20490	0.82860
2584.27634	0.82748
2582.34777	0.82615
2580.41921	0.82504
2578.49064	0.82478
2576.56208	0.82441
2574.63351	0.82274
2572.70495	0.82052
2570.77638	0.81900
2568.84782	0.81807
2566.91926	0.81701
2564.99069	0.81587
2563.06213	0.81499
2561.13356	0.81425
2559.20500	0.81365
2557.27643	0.81305
2555.34787	0.81206
2553.41930	0.81090
2551.49074	0.81021
2549.56218	0.80998
2547.63361	0.80954
2545.70505	0.80851
2543.77648	0.80718
2541.84792	0.80630
2539.91935	0.80603
2537.99079	0.80554
2536.06222	0.80433
2534.13366	0.80289
2532.20510	0.80181
2530.27653	0.80105
2528.34797	0.80018
2526.41940	0.79911
2524.49084	0.79801
2522.56227	0.79654
2520.63371	0.79472
2518.70514	0.79336
2516.77658	0.79245
2514.84802	0.79143
2512.91945	0.79014
2510.99089	0.78863
2509.06232	0.78713
2507.13376	0.78583
2505.20519	0.78463
2503.27663	0.78358
2501.34806	0.78262
2499.41950	0.78164
2497.49094	0.78062
2495.56237	0.77955
2493.63381	0.77872
2491.70524	0.77803
2489.77668	0.77712
2487.84811	0.77633
2485.91955	0.77584
2483.99098	0.77527
2482.06242	0.77429
2480.13386	0.77312
2478.20529	0.77219
2476.27673	0.77145
2474.34816	0.77060
2472.41960	0.76943
2470.49103	0.76815
2468.56247	0.76702
2466.63391	0.76596
2464.70534	0.76494
2462.77678	0.76397
2460.84821	0.76272
2458.91965	0.76103
2456.99108	0.75960
2455.06252	0.75904
2453.13395	0.75897
2451.20539	0.75895
2449.27683	0.75882
2447.34826	0.75837
2445.41970	0.75760
2443.49113	0.75677
2441.56257	0.75625
2439.63400	0.75601
2437.70544	0.75561
2435.77687	0.75514
2433.84831	0.75506
2431.91975	0.75529
2429.99118	0.75532
2428.06262	0.75505
2426.13405	0.75493
2424.20549	0.75503
2422.27692	0.75473
2420.34836	0.75377
2418.41979	0.75273
2416.49123	0.75224
2414.56267	0.75203
2412.63410	0.75144
2410.70554	0.75062
2408.77697	0.75013
2406.84841	0.74972
2404.91984	0.74868
2402.99128	0.74705
2401.06271	0.74539
2399.13415	0.74400
2397.20559	0.74290
2395.27702	0.74184
2393.34846	0.74081
2391.41989	0.73994
2389.49133	0.73910
2387.56276	0.73860
2385.63420	0.73901
2383.70563	0.73994
2381.77707	0.74081
2379.84851	0.74178
2377.91994	0.74288
2375.99138	0.74395
2374.06281	0.74501
2372.13425	0.74666
2370.20568	0.75038
2368.27712	0.75514
2366.34855	0.75770
2364.41999	0.75757
2362.49143	0.75613
2360.56286	0.75573
2358.63430	0.75585
2356.70573	0.75209
2354.77717	0.74568
2352.84860	0.74125
2350.92004	0.73935
2348.99147	0.73881
2347.06291	0.73942
2345.13435	0.74164
2343.20578	0.74497
2341.27722	0.74699
2339.34865	0.74685
2337.42009	0.74567
2335.49152	0.74399
2333.56296	0.74197
2331.63440	0.74024
2329.70583	0.73934
2327.77727	0.73948
2325.84870	0.74058
2323.92014	0.74142
2321.99157	0.74057
2320.06301	0.73826
2318.13444	0.73559
2316.20588	0.73336
2314.27732	0.73190
2312.34875	0.73152
2310.42019	0.73178
2308.49162	0.73142
2306.56306	0.73005
2304.63449	0.72802
2302.70593	0.72598
2300.77736	0.72483
2298.84880	0.72462
2296.92024	0.72437
2294.99167	0.72370
2293.06311	0.72292
2291.13454	0.72204
2289.20598	0.72133
2287.27741	0.72101
2285.34885	0.72069
2283.42028	0.71999
2281.49172	0.71895
2279.56316	0.71802
2277.63459	0.71760
2275.70603	0.71776
2273.77746	0.71828
2271.84890	0.71854
2269.92033	0.71825
2267.99177	0.71777
2266.06320	0.71729
2264.13464	0.71670
2262.20608	0.71625
2260.27751	0.71581
2258.34895	0.71502
2256.42038	0.71422
2254.49182	0.71375
2252.56325	0.71322
2250.63469	0.71224
2248.70612	0.71117
2246.77756	0.71029
2244.84900	0.70927
2242.92043	0.70812
2240.99187	0.70725
2239.06330	0.70662
2237.13474	0.70624
2235.20617	0.70596
2233.27761	0.70530
2231.34904	0.70446
2229.42048	0.70413
2227.49192	0.70424
2225.56335	0.70438
2223.63479	0.70471
2221.70622	0.70537
2219.77766	0.70615
2217.84909	0.70677
2215.92053	0.70727
2213.99196	0.70783
2212.06340	0.70850
2210.13484	0.70908
2208.20627	0.70952
2206.27771	0.70998
2204.34914	0.71033
2202.42058	0.71057
2200.49201	0.71084
2198.56345	0.71100
2196.63488	0.71100
2194.70632	0.71085
2192.77776	0.71065
2190.84919	0.71058
2188.92063	0.71043
2186.99206	0.70992
2185.06350	0.70917
2183.13493	0.70834
2181.20637	0.70772
2179.27781	0.70768
2177.34924	0.70794
2175.42068	0.70788
2173.49211	0.70772
2171.56355	0.70804
2169.63498	0.70886
2167.70642	0.70967
2165.77785	0.71022
2163.84929	0.71083
2161.92073	0.71172
2159.99216	0.71276
2158.06360	0.71381
2156.13503	0.71488
2154.20647	0.71611
2152.27790	0.71744
2150.34934	0.71866
2148.42077	0.71963
2146.49221	0.72014
2144.56365	0.72035
2142.63508	0.72045
2140.70652	0.72025
2138.77795	0.71962
2136.84939	0.71860
2134.92082	0.71739
2132.99226	0.71625
2131.06369	0.71509
2129.13513	0.71377
2127.20657	0.71229
2125.27800	0.71073
2123.34944	0.70920
2121.42087	0.70771
2119.49231	0.70594
2117.56374	0.70403
2115.63518	0.70262
2113.70661	0.70187
2111.77805	0.70138
2109.84949	0.70084
2107.92092	0.70038
2105.99236	0.70038
2104.06379	0.70088
2102.13523	0.70154
2100.20666	0.70224
2098.27810	0.70312
2096.34953	0.70424
2094.42097	0.70547
2092.49241	0.70679
2090.56384	0.70849
2088.63528	0.71038
2086.70671	0.71173
2084.77815	0.71258
2082.84958	0.71345
2080.92102	0.71437
2078.99245	0.71521
2077.06389	0.71579
2075.13533	0.71589
2073.20676	0.71563
2071.27820	0.71527
2069.34963	0.71500
2067.42107	0.71463
2065.49250	0.71365
2063.56394	0.71221
2061.63537	0.71120
2059.70681	0.71059
2057.77825	0.70960
2055.84968	0.70826
2053.92112	0.70712
2051.99255	0.70647
2050.06399	0.70640
2048.13542	0.70658
2046.20686	0.70655
2044.27830	0.70646
2042.34973	0.70672
2040.42117	0.70735
2038.49260	0.70834
2036.56404	0.70954
2034.63547	0.71065
2032.70691	0.71192
2030.77834	0.71345
2028.84978	0.71469
2026.92122	0.71557
2024.99265	0.71624
2023.06409	0.71686
2021.13552	0.71748
2019.20696	0.71789
2017.27839	0.71785
2015.34983	0.71727
2013.42126	0.71643
2011.49270	0.71562
2009.56414	0.71455
2007.63557	0.71288
2005.70701	0.71075
2003.77844	0.70852
2001.84988	0.70634
1999.92131	0.70422
1997.99275	0.70211
1996.06418	0.70036
1994.13562	0.69897
1992.20706	0.69725
1990.27849	0.69504
1988.34993	0.69284
1986.42136	0.69098
1984.49280	0.68967
1982.56423	0.68892
1980.63567	0.68859
1978.70710	0.68859
1976.77854	0.68891
1974.84998	0.68940
1972.92141	0.68990
1970.99285	0.69063
1969.06428	0.69176
1967.13572	0.69285
1965.20715	0.69351
1963.27859	0.69414
1961.35002	0.69503
1959.42146	0.69597
1957.49290	0.69666
1955.56433	0.69712
1953.63577	0.69754
1951.70720	0.69767
1949.77864	0.69751
1947.85007	0.69737
1945.92151	0.69741
1943.99294	0.69755
1942.06438	0.69714
1940.13582	0.69590
1938.20725	0.69440
1936.27869	0.69307
1934.35012	0.69204
1932.42156	0.69107
1930.49299	0.69014
1928.56443	0.68960
1926.63586	0.68965
1924.70730	0.69011
1922.77874	0.69053
1920.85017	0.69097
1918.92161	0.69199
1916.99304	0.69293
1915.06448	0.69323
1913.13591	0.69391
1911.20735	0.69554
1909.27878	0.69732
1907.35022	0.69830
1905.42166	0.69870
1903.49309	0.69910
1901.56453	0.69956
1899.63596	0.70006
1897.70740	0.70064
1895.77883	0.70114
1893.85027	0.70118
1891.92171	0.70087
1889.99314	0.70038
1888.06458	0.69934
1886.13601	0.69810
1884.20745	0.69698
1882.27888	0.69573
1880.35032	0.69420
1878.42175	0.69249
1876.49319	0.69059
1874.56463	0.68859
1872.63606	0.68711
1870.70750	0.68645
1868.77893	0.68538
1866.85037	0.68266
1864.92180	0.67984
1862.99324	0.67797
1861.06467	0.67672
1859.13611	0.67571
1857.20755	0.67504
1855.27898	0.67475
1853.35042	0.67450
1851.42185	0.67437
1849.49329	0.67488
1847.56472	0.67593
1845.63616	0.67702
1843.70759	0.67741
1841.77903	0.67709
1839.85047	0.67691
1837.92190	0.67703
1835.99334	0.67733
1834.06477	0.67790
1832.13621	0.67903
1830.20764	0.68011
1828.27908	0.68000
1826.35051	0.67931
1824.42195	0.67854
1822.49339	0.67780
1820.56482	0.67748
1818.63626	0.67729
1816.70769	0.67679
1814.77913	0.67645
1812.85056	0.67662
1810.92200	0.67671
1808.99343	0.67632
1807.06487	0.67571
1805.13631	0.67544
1803.20774	0.67589
1801.27918	0.67658
1799.35061	0.67680
1797.42205	0.67707
1795.49348	0.67799
1793.56492	0.67956
1791.63635	0.68071
1789.70779	0.68042
1787.77923	0.68033
1785.85066	0.68114
1783.92210	0.68239
1781.99353	0.68399
1780.06497	0.68569
1778.13640	0.68713
1776.20784	0.68887
1774.27927	0.69163
1772.35071	0.69424
1770.42215	0.69462
1768.49358	0.69421
1766.56502	0.69434
1764.63645	0.69538
1762.70789	0.69756
1760.77932	0.70021
1758.85076	0.70297
1756.92220	0.70686
1754.99363	0.71146
1753.06507	0.71687
1751.13650	0.72524
1749.20794	0.73564
1747.27937	0.74387
1745.35081	0.75004
1743.42224	0.75545
1741.49368	0.76021
1739.56512	0.76404
1737.63655	0.76687
1735.70799	0.76961
1733.77942	0.77224
1731.85086	0.77253
1729.92229	0.77218
1727.99373	0.77285
1726.06516	0.77501
1724.13660	0.77910
1722.20804	0.78408
1720.27947	0.78981
1718.35091	0.79966
1716.42234	0.81381
1714.49378	0.82357
1712.56521	0.83172
1710.63665	0.84289
1708.70808	0.85826
1706.77952	0.88193
1704.85096	0.91298
1702.92239	0.94137
1700.99383	0.98214
1699.06526	1.04693
1697.13670	1.10576
1695.20813	1.16074
1693.27957	1.20243
1691.35100	1.23688
1689.42244	1.27868
1687.49388	1.31702
1685.56531	1.35405
1683.63675	1.41082
1681.70818	1.45493
1679.77962	1.48120
1677.85105	1.50515
1675.92249	1.53303
1673.99392	1.56387
1672.06536	1.59052
1670.13680	1.61732
1668.20823	1.64070
1666.27967	1.65257
1664.35110	1.66298
1662.42254	1.67444
1660.49397	1.68022
1658.56541	1.68334
1656.63684	1.68829
1654.70828	1.69524
1652.77972	1.69621
1650.85115	1.69394
1648.92259	1.69175
1646.99402	1.68577
1645.06546	1.68223
1643.13689	1.68097
1641.20833	1.67857
1639.27976	1.67385
1637.35120	1.66704
1635.42264	1.65965
1633.49407	1.65569
1631.56551	1.65083
1629.63694	1.63995
1627.70838	1.62473
1625.77981	1.60922
1623.85125	1.59196
1621.92269	1.57432
1619.99412	1.56027
1618.06556	1.53985
1616.13699	1.50450
1614.20843	1.47426
1612.27986	1.45008
1610.35130	1.42359
1608.42273	1.39596
1606.49417	1.37184
1604.56561	1.35298
1602.63704	1.33791
1600.70848	1.32566
1598.77991	1.31705
1596.85135	1.31294
1594.92278	1.31141
1592.99422	1.30987
1591.06565	1.30914
1589.13709	1.31128
1587.20853	1.31724
1585.27996	1.32750
1583.35140	1.34174
1581.42283	1.35701
1579.49427	1.37176
1577.56570	1.39106
1575.63714	1.41734
1573.70857	1.43538
1571.78001	1.44871
1569.85145	1.46910
1567.92288	1.49039
1565.99432	1.50530
1564.06575	1.51915
1562.13719	1.53024
1560.20862	1.54180
1558.28006	1.56229
1556.35149	1.57164
1554.42293	1.57501
1552.49437	1.57781
1550.56580	1.57809
1548.63724	1.57484
1546.70867	1.57086
1544.78011	1.56790
1542.85154	1.56639
1540.92298	1.56451
1538.99441	1.55642
1537.06585	1.54929
1535.13729	1.54203
1533.20872	1.53157
1531.28016	1.52308
1529.35159	1.51970
1527.42303	1.51849
1525.49446	1.51822
1523.56590	1.51941
1521.63733	1.51760
1519.70877	1.51048
1517.78021	1.49859
1515.85164	1.48318
1513.92308	1.47063
1511.99451	1.46071
1510.06595	1.45229
1508.13738	1.43433
1506.20882	1.39034
1504.28025	1.36435
1502.35169	1.34915
1500.42313	1.33178
1498.49456	1.30964
1496.56600	1.28232
1494.63743	1.25964
1492.70887	1.24476
1490.78030	1.22922
1488.85174	1.20706
1486.92317	1.18763
1484.99461	1.17555
1483.06605	1.16697
1481.13748	1.15913
1479.20892	1.15367
1477.28035	1.15339
1475.35179	1.15952
1473.42322	1.17255
1471.49466	1.18499
1469.56610	1.19122
1467.63753	1.19619
1465.70897	1.20188
1463.78040	1.20727
1461.85184	1.21192
1459.92327	1.21792
1457.99471	1.22932
1456.06614	1.23953
1454.13758	1.24117
1452.20902	1.24221
1450.28045	1.24358
1448.35189	1.24312
1446.42332	1.24124
1444.49476	1.24008
1442.56619	1.23939
1440.63763	1.23885
1438.70906	1.23836
1436.78050	1.23622
1434.85194	1.23126
1432.92337	1.22547
1430.99481	1.21952
1429.06624	1.21407
1427.13768	1.21041
1425.20911	1.20912
1423.28055	1.21004
1421.35198	1.21193
1419.42342	1.21398
1417.49486	1.21446
1415.56629	1.21315
1413.63773	1.21140
1411.70916	1.20872
1409.78060	1.20548
1407.85203	1.20337
1405.92347	1.20227
1403.99490	1.20059
1402.06634	1.19860
1400.13778	1.19726
1398.20921	1.19681
1396.28065	1.19718
1394.35208	1.19734
1392.42352	1.19774
1390.49495	1.20083
1388.56639	1.20906
1386.63782	1.22210
1384.70926	1.23500
1382.78070	1.24679
1380.85213	1.25784
1378.92357	1.26558
1376.99500	1.26784
1375.06644	1.26293
1373.13787	1.25107
1371.20931	1.23769
1369.28074	1.22285
1367.35218	1.20494
1365.42362	1.18790
1363.49505	1.17303
1361.56649	1.15945
1359.63792	1.14860
1357.70936	1.14050
1355.78079	1.13408
1353.85223	1.12890
1351.92366	1.12424
1349.99510	1.11887
1348.06654	1.11263
1346.13797	1.10653
1344.20941	1.10175
1342.28084	1.09820
1340.35228	1.09462
1338.42371	1.09133
1336.49515	1.09059
1334.56659	1.09326
1332.63802	1.09914
1330.70946	1.10700
1328.78089	1.11483
1326.85233	1.12145
1324.92376	1.12661
1322.99520	1.13127
1321.06663	1.13766
1319.13807	1.14663
1317.20951	1.15589
1315.28094	1.16397
1313.35238	1.17205
1311.42381	1.17990
1309.49525	1.18661
1307.56668	1.19272
1305.63812	1.19804
1303.70955	1.20165
1301.78099	1.20322
1299.85243	1.20253
1297.92386	1.19933
1295.99530	1.19395
1294.06673	1.18772
1292.13817	1.18204
1290.20960	1.17749
1288.28104	1.17376
1286.35247	1.17007
1284.42391	1.16593
1282.49535	1.16138
1280.56678	1.15697
1278.63822	1.15370
1276.70965	1.15214
1274.78109	1.15257
1272.85252	1.15539
1270.92396	1.16042
1268.99539	1.16673
1267.06683	1.17372
1265.13827	1.18129
1263.20970	1.18851
1261.28114	1.19430
1259.35257	1.19898
1257.42401	1.20391
1255.49544	1.21009
1253.56688	1.21740
1251.63831	1.22483
1249.70975	1.23131
1247.78119	1.23720
1245.85262	1.24367
1243.92406	1.24998
1241.99549	1.25482
1240.06693	1.25801
1238.13836	1.25887
1236.20980	1.25648
1234.28123	1.25142
1232.35267	1.24443
1230.42411	1.23520
1228.49554	1.22344
1226.56698	1.20986
1224.63841	1.19506
1222.70985	1.17880
1220.78128	1.16206
1218.85272	1.14651
1216.92415	1.13288
1214.99559	1.12173
1213.06703	1.11352
1211.13846	1.10859
1209.20990	1.10627
1207.28133	1.10423
1205.35277	1.10044
1203.42420	1.09428
1201.49564	1.08631
1199.56708	1.07807
1197.63851	1.07161
1195.70995	1.06803
1193.78138	1.06699
1191.85282	1.06814
1189.92425	1.07164
1187.99569	1.07717
1186.06712	1.08381
1184.13856	1.09127
1182.21000	1.09993
1180.28143	1.11035
1178.35287	1.12273
1176.42430	1.13570
1174.49574	1.14786
1172.56717	1.16014
1170.63861	1.17410
1168.71004	1.18953
1166.78148	1.20480
1164.85292	1.21842
1162.92435	1.22900
1160.99579	1.23456
1159.06722	1.23353
1157.13866	1.22571
1155.21009	1.21184
1153.28153	1.19377
1151.35296	1.17386
1149.42440	1.15355
1147.49584	1.13457
1145.56727	1.11957
1143.63871	1.11089
1141.71014	1.10913
1139.78158	1.11233
1137.85301	1.11891
1135.92445	1.12856
1133.99588	1.14125
1132.06732	1.15818
1130.13876	1.18010
1128.21019	1.20508
1126.28163	1.22973
1124.35306	1.25218
1122.42450	1.27293
1120.49593	1.29157
1118.56737	1.30576
1116.63880	1.31402
1114.71024	1.31593
1112.78168	1.31320
1110.85311	1.30945
1108.92455	1.30551
1106.99598	1.29962
1105.06742	1.29261
1103.13885	1.28786
1101.21029	1.28674
1099.28172	1.28755
1097.35316	1.28891
1095.42460	1.29272
1093.49603	1.30265
1091.56747	1.31822
1089.63890	1.33473
1087.71034	1.35182
1085.78177	1.37133
1083.85321	1.39107
1081.92464	1.40887
1079.99608	1.42330
1078.06752	1.43194
1076.13895	1.43371
1074.21039	1.42970
1072.28182	1.42220
1070.35326	1.41310
1068.42469	1.40365
1066.49613	1.39430
1064.56756	1.38429
1062.63900	1.37302
1060.71044	1.36157
1058.78187	1.34995
1056.85331	1.33643
1054.92474	1.32264
1052.99618	1.31191
1051.06761	1.30498
1049.13905	1.30123
1047.21049	1.30011
1045.28192	1.30151
1043.35336	1.30467
1041.42479	1.30865
1039.49623	1.31346
1037.56766	1.31805
1035.63910	1.31982
1033.71053	1.31812
1031.78197	1.31418
1029.85341	1.30807
1027.92484	1.30012
1025.99628	1.29153
1024.06771	1.28221
1022.13915	1.27241
1020.21058	1.26351
1018.28202	1.25667
1016.35345	1.25130
1014.42489	1.24444
1012.49633	1.23358
1010.56776	1.21895
1008.63920	1.20233
1006.71063	1.18550
1004.78207	1.16926
1002.85350	1.15404
1000.92494	1.14091
998.99637	1.13093
997.06781	1.12341
995.13925	1.11679
993.21068	1.11032
991.28212	1.10360
989.35355	1.09626
987.42499	1.08857
985.49642	1.08138
983.56786	1.07580
981.63929	1.07235
979.71073	1.07001
977.78217	1.06751
975.85360	1.06442
973.92504	1.05961
971.99647	1.05207
970.06791	1.04288
968.13934	1.03379
966.21078	1.02613
964.28221	1.02148
962.35365	1.02154
960.42509	1.02787
958.49652	1.04000
956.56796	1.05311
954.63939	1.06182
952.71083	1.06424
950.78226	1.06095
948.85370	1.05473
946.92513	1.04905
944.99657	1.04524
943.06801	1.04290
941.13944	1.04062
939.21088	1.03730
937.28231	1.03371
935.35375	1.02984
933.42518	1.02426
931.49662	1.01750
929.56805	1.01120
927.63949	1.00560
925.71093	1.00089
923.78236	0.99746
921.85380	0.99419
919.92523	0.98981
917.99667	0.98496
916.06810	0.98101
914.13954	0.97874
912.21098	0.97834
910.28241	0.97941
908.35385	0.98213
906.42528	0.98671
904.49672	0.99214
902.56815	0.99771
900.63959	1.00321
898.71102	1.00793
896.78246	1.01188
894.85390	1.01579
892.92533	1.01938
890.99677	1.02179
889.06820	1.02367
887.13964	1.02654
885.21107	1.03014
883.28251	1.03337
881.35394	1.03651
879.42538	1.03978
877.49682	1.04316
875.56825	1.04740
873.63969	1.05207
871.71112	1.05568
869.78256	1.05821
867.85399	1.06006
865.92543	1.06067
863.99686	1.05990
862.06830	1.05926
860.13974	1.06069
858.21117	1.06427
856.28261	1.06811
854.35404	1.07093
852.42548	1.07340
850.49691	1.07669
848.56835	1.08069
846.63978	1.08447
844.71122	1.08791
842.78266	1.09133
840.85409	1.09515
838.92553	1.09987
836.99696	1.10475
835.06840	1.10844
833.13983	1.11052
831.21127	1.11207
829.28270	1.11434
827.35414	1.11581
825.42558	1.11413
823.49701	1.10953
821.56845	1.10329
819.63988	1.09559
817.71132	1.08682
815.78275	1.07813
813.85419	1.06911
811.92562	1.05902
809.99706	1.04913
808.06850	1.04032
806.13993	1.03207
804.21137	1.02533
802.28280	1.02145
800.35424	1.01929
798.42567	1.01815
796.49711	1.01946
794.56854	1.02344
792.63998	1.02873
790.71142	1.03481
788.78285	1.04257
786.85429	1.05282
784.92572	1.06442
782.99716	1.07584
781.06859	1.08775
779.14003	1.10031
777.21147	1.11204
775.28290	1.12252
773.35434	1.13212
771.42577	1.14070
769.49721	1.14841
767.56864	1.15542
765.64008	1.16139
763.71151	1.16639
761.78295	1.16977
759.85439	1.17013
757.92582	1.16855
755.99726	1.16721
754.06869	1.16586
752.14013	1.16288
750.21156	1.15880
748.28300	1.15591
746.35443	1.15478
744.42587	1.15461
742.49731	1.15459
740.56874	1.15511
738.64018	1.15830
736.71161	1.16402
734.78305	1.16952
732.85448	1.17392
730.92592	1.17865
728.99735	1.18377
727.06879	1.18767
725.14023	1.19056
723.21166	1.19319
721.28310	1.19390
719.35453	1.19050
717.42597	1.18299
715.49740	1.17371
713.56884	1.16387
711.64027	1.15203
709.71171	1.13884
707.78315	1.12647
705.85458	1.11356
703.92602	1.09945
701.99745	1.08615
700.06889	1.07402
698.14032	1.06319
696.21176	1.05379
694.28319	1.04530
692.35463	1.03874
690.42607	1.03505
688.49750	1.03286
686.56894	1.03125
684.64037	1.03153
682.71181	1.03483
680.78324	1.04076
678.85468	1.04893
676.92611	1.05920
674.99755	1.07113
673.06899	1.08444
671.14042	1.09887
669.21186	1.11754
667.28329	1.14026
665.35473	1.15841
663.42616	1.17571
661.49760	1.19376
659.56903	1.20988
657.64047	1.22234
655.71191	1.23193
653.78334	1.24110
651.85478	1.24914
649.92621	1.25459
647.99765	1.25718
646.06908	1.25711
644.14052	1.25358
642.21195	1.24563
640.28339	1.23664
638.35483	1.22910
636.42626	1.22051
634.49770	1.20743
632.56913	1.19142
630.64057	1.17889
628.71200	1.17182
626.78344	1.16740
624.85488	1.16382
622.92631	1.15929
620.99775	1.15538
619.06918	1.15684
617.14062	1.16390
615.21205	1.17313
613.28349	1.18199
611.35492	1.18976
609.42636	1.19816
607.49780	1.20706
605.56923	1.21344
603.64067	1.21716
601.71210	1.21916
599.78354	1.21728
