3997.91406	0.62960
3995.98550	0.62799
3994.05693	0.62655
3992.12837	0.62560
3990.19980	0.62460
3988.27124	0.62370
3986.34268	0.62337
3984.41411	0.62331
3982.48555	0.62300
3980.55698	0.62252
3978.62842	0.62255
3976.69985	0.62307
3974.77129	0.62306
3972.84272	0.62181
3970.91416	0.62031
3968.98560	0.61993
3967.05703	0.62063
3965.12847	0.62167
3963.19990	0.62275
3961.27134	0.62262
3959.34277	0.62015
3957.41421	0.61763
3955.48564	0.61723
3953.55708	0.61780
3951.62852	0.61845
3949.69995	0.61909
3947.77139	0.61882
3945.84282	0.61787
3943.91426	0.61679
3941.98569	0.61560
3940.05713	0.61464
3938.12856	0.61429
3936.20000	0.61540
3934.27144	0.61724
3932.34287	0.61692
3930.41431	0.61517
3928.48574	0.61477
3926.55718	0.61462
3924.62861	0.61350
3922.70005	0.61333
3920.77148	0.61497
3918.84292	0.61540
3916.91436	0.61380
3914.98579	0.61302
3913.05723	0.61253
3911.12866	0.61169
3909.20010	0.61173
3907.27153	0.61226
3905.34297	0.61130
3903.41440	0.60884
3901.48584	0.60780
3899.55728	0.60807
3897.62871	0.60910
3895.70015	0.61113
3893.77158	0.61251
3891.84302	0.61033
3889.91445	0.60656
3887.98589	0.60476
3886.05733	0.60325
3884.12876	0.60174
3882.20020	0.60183
3880.27163	0.60273
3878.34307	0.60327
3876.41450	0.60297
3874.48594	0.60212
3872.55737	0.60238
3870.62881	0.60396
3868.70025	0.60487
3866.77168	0.60500
3864.84312	0.60466
3862.91455	0.60346
3860.98599	0.60217
3859.05742	0.60112
3857.12886	0.60058
3855.20029	0.60116
3853.27173	0.60094
3851.34317	0.59988
3849.41460	0.60021
3847.48604	0.59998
3845.55747	0.59887
3843.62891	0.59885
3841.70034	0.60065
3839.77178	0.60280
3837.84321	0.60266
3835.91465	0.60065
3833.98609	0.60003
3832.05752	0.59966
3830.12896	0.59840
3828.20039	0.59765
3826.27183	0.59765
3824.34326	0.59747
3822.41470	0.59557
3820.48613	0.59181
3818.55757	0.59100
3816.62901	0.59191
3814.70044	0.59007
3812.77188	0.58748
3810.84331	0.58741
3808.91475	0.58955
3806.98618	0.59158
3805.05762	0.59283
3803.12905	0.59434
3801.20049	0.59360
3799.27193	0.59064
3797.34336	0.58931
3795.41480	0.58915
3793.48623	0.58810
3791.55767	0.58597
3789.62910	0.58497
3787.70054	0.58654
3785.77197	0.58804
3783.84341	0.58762
3781.91485	0.58771
3779.98628	0.58819
3778.05772	0.58731
3776.12915	0.58703
3774.20059	0.58798
3772.27202	0.58821
3770.34346	0.58710
3768.41489	0.58646
3766.48633	0.58627
3764.55777	0.58520
3762.62920	0.58338
3760.70064	0.58132
3758.77207	0.58079
3756.84351	0.58206
3754.91494	0.58254
3752.98638	0.58219
3751.05781	0.58190
3749.12925	0.58078
3747.20069	0.57968
3745.27212	0.57970
3743.34356	0.57984
3741.41499	0.57965
3739.48643	0.58028
3737.55786	0.58101
3735.62930	0.57945
3733.70074	0.57689
3731.77217	0.57522
3729.84361	0.57442
3727.91504	0.57522
3725.98648	0.57647
3724.05791	0.57637
3722.12935	0.57562
3720.20078	0.57473
3718.27222	0.57393
3716.34366	0.57420
3714.41509	0.57531
3712.48653	0.57414
3710.55796	0.56979
3708.62940	0.56956
3706.70083	0.57216
3704.77227	0.57383
3702.84370	0.57405
3700.91514	0.57361
3698.98658	0.57409
3697.05801	0.57596
3695.12945	0.57749
3693.20088	0.57727
3691.27232	0.57617
3689.34375	0.57691
3687.41519	0.57869
3685.48662	0.57781
3683.55806	0.57562
3681.62950	0.57552
3679.70093	0.57817
3677.77237	0.58048
3675.84380	0.58159
3673.91524	0.58492
3671.98667	0.58942
3670.05811	0.59310
3668.12954	0.59446
3666.20098	0.59539
3664.27242	0.59689
3662.34385	0.59851
3660.41529	0.59983
3658.48672	0.60112
3656.55816	0.60403
3654.62959	0.60824
3652.70103	0.61197
3650.77246	0.61598
3648.84390	0.61921
3646.91534	0.62082
3644.98677	0.62389
3643.05821	0.62689
3641.12964	0.62831
3639.20108	0.63011
3637.27251	0.63339
3635.34395	0.63693
3633.41538	0.64092
3631.48682	0.64557
3629.55826	0.65070
3627.62969	0.65504
3625.70113	0.65853
3623.77256	0.66228
3621.84400	0.66603
3619.91543	0.67018
3617.98687	0.67515
3616.05830	0.68052
3614.12974	0.68623
3612.20118	0.69063
3610.27261	0.69354
3608.34405	0.69661
3606.41548	0.69961
3604.48692	0.70297
3602.55835	0.70813
3600.62979	0.71435
3598.70123	0.71955
3596.77266	0.72349
3594.84410	0.72704
3592.91553	0.73068
3590.98697	0.73366
3589.05840	0.73606
3587.12984	0.74003
3585.20127	0.74533
3583.27271	0.74905
3581.34415	0.75172
3579.41558	0.75580
3577.48702	0.76126
3575.55845	0.76590
3573.62989	0.76990
3571.70132	0.77396
3569.77276	0.77742
3567.84419	0.78291
3565.91563	0.79093
3563.98707	0.79655
3562.05850	0.80217
3560.12994	0.80761
3558.20137	0.81110
3556.27281	0.81559
3554.34424	0.82233
3552.41568	0.82768
3550.48711	0.82952
3548.55855	0.83187
3546.62999	0.83780
3544.70142	0.84418
3542.77286	0.84787
3540.84429	0.85143
3538.91573	0.85816
3536.98716	0.86828
3535.05860	0.87672
3533.13003	0.88045
3531.20147	0.88400
3529.27291	0.89170
3527.34434	0.90184
3525.41578	0.90996
3523.48721	0.91508
3521.55865	0.91764
3519.63008	0.91928
3517.70152	0.92383
3515.77295	0.93177
3513.84439	0.94040
3511.91583	0.94912
3509.98726	0.96021
3508.05870	0.97254
3506.13013	0.98232
3504.20157	0.99128
3502.27300	1.00111
3500.34444	1.01089
3498.41587	1.01930
3496.48731	1.02501
3494.55875	1.03112
3492.63018	1.03870
3490.70162	1.04607
3488.77305	1.05479
3486.84449	1.06297
3484.91592	1.06754
3482.98736	1.07328
3481.05879	1.08234
3479.13023	1.08851
3477.20167	1.09050
3475.27310	1.09153
3473.34454	1.09481
3471.41597	1.10157
3469.48741	1.10553
3467.55884	1.10267
3465.63028	1.10109
3463.70171	1.10759
3461.77315	1.11736
3459.84459	1.12432
3457.91602	1.12942
3455.98746	1.13395
3454.05889	1.13637
3452.13033	1.13877
3450.20176	1.14495
3448.27320	1.15021
3446.34464	1.14854
3444.41607	1.14596
3442.48751	1.14892
3440.55894	1.15391
3438.63038	1.15523
3436.70181	1.15386
3434.77325	1.15214
3432.84468	1.15076
3430.91612	1.15208
3428.98756	1.15592
3427.05899	1.15866
3425.13043	1.15930
3423.20186	1.16037
3421.27330	1.16123
3419.34473	1.15812
3417.41617	1.15400
3415.48760	1.15537
3413.55904	1.16122
3411.63048	1.16369
3409.70191	1.16035
3407.77335	1.15603
3405.84478	1.15454
3403.91622	1.15718
3401.98765	1.16030
3400.05909	1.15862
3398.13052	1.15636
3396.20196	1.15941
3394.27340	1.16189
3392.34483	1.15721
3390.41627	1.15104
3388.48770	1.15000
3386.55914	1.15154
3384.63057	1.15190
3382.70201	1.15418
3380.77344	1.15882
3378.84488	1.15880
3376.91632	1.15415
3374.98775	1.15322
3373.05919	1.15916
3371.13062	1.16667
3369.20206	1.16968
3367.27349	1.16912
3365.34493	1.16970
3363.41636	1.17189
3361.48780	1.17159
3359.55924	1.16933
3357.63067	1.17133
3355.70211	1.17743
3353.77354	1.18109
3351.84498	1.18172
3349.91641	1.18324
3347.98785	1.18546
3346.05928	1.18846
3344.13072	1.19349
3342.20216	1.19769
3340.27359	1.20018
3338.34503	1.20273
3336.41646	1.20619
3334.48790	1.21265
3332.55933	1.21983
3330.63077	1.22185
3328.70220	1.22031
3326.77364	1.22260
3324.84508	1.22915
3322.91651	1.23422
3320.98795	1.23719
3319.05938	1.24044
3317.13082	1.24458
3315.20225	1.25172
3313.27369	1.26198
3311.34513	1.27071
3309.41656	1.27258
3307.48800	1.26830
3305.55943	1.26868
3303.63087	1.27928
3301.70230	1.29177
3299.77374	1.30013
3297.84517	1.30344
3295.91661	1.30058
3293.98805	1.29788
3292.05948	1.30143
3290.13092	1.30679
3288.20235	1.30853
3286.27379	1.30843
3284.34522	1.30919
3282.41666	1.30829
3280.48809	1.30372
3278.55953	1.30039
3276.63097	1.30408
3274.70240	1.31376
3272.77384	1.32033
3270.84527	1.31722
3268.91671	1.31003
3266.98814	1.30505
3265.05958	1.30028
3263.13101	1.29300
3261.20245	1.28541
3259.27389	1.27796
3257.34532	1.26593
3255.41676	1.25017
3253.48819	1.23805
3251.55963	1.23124
3249.63106	1.22481
3247.70250	1.21498
3245.77393	1.20382
3243.84537	1.19603
3241.91681	1.19071
3239.98824	1.18429
3238.05968	1.17822
3236.13111	1.17432
3234.20255	1.16835
3232.27398	1.15735
3230.34542	1.14603
3228.41685	1.13744
3226.48829	1.13136
3224.55973	1.13002
3222.63116	1.13047
3220.70260	1.12566
3218.77403	1.11707
3216.84547	1.10902
3214.91690	1.10086
3212.98834	1.09350
3211.05977	1.08811
3209.13121	1.08266
3207.20265	1.07720
3205.27408	1.07215
3203.34552	1.06652
3201.41695	1.06106
3199.48839	1.05528
3197.55982	1.04780
3195.63126	1.04024
3193.70269	1.03533
3191.77413	1.03271
3189.84557	1.02860
3187.91700	1.02213
3185.98844	1.01638
3184.05987	1.01188
3182.13131	1.00719
3180.20274	1.00169
3178.27418	0.99496
3176.34562	0.98803
3174.41705	0.98208
3172.48849	0.97591
3170.55992	0.96961
3168.63136	0.96568
3166.70279	0.96345
3164.77423	0.95957
3162.84566	0.95357
3160.91710	0.94774
3158.98854	0.94484
3157.05997	0.94474
3155.13141	0.94379
3153.20284	0.94094
3151.27428	0.93824
3149.34571	0.93605
3147.41715	0.93456
3145.48858	0.93436
3143.56002	0.93407
3141.63146	0.93175
3139.70289	0.92780
3137.77433	0.92514
3135.84576	0.92486
3133.91720	0.92468
3131.98863	0.92347
3130.06007	0.92183
3128.13150	0.92006
3126.20294	0.91920
3124.27438	0.91970
3122.34581	0.92012
3120.41725	0.91935
3118.48868	0.91849
3116.56012	0.91990
3114.63155	0.92306
3112.70299	0.92393
3110.77442	0.92139
3108.84586	0.91965
3106.91730	0.92121
3104.98873	0.92266
3103.06017	0.92087
3101.13160	0.91796
3099.20304	0.91636
3097.27447	0.91460
3095.34591	0.91195
3093.41734	0.91146
3091.48878	0.91380
3089.56022	0.91523
3087.63165	0.91394
3085.70309	0.91123
3083.77452	0.90784
3081.84596	0.90442
3079.91739	0.90127
3077.98883	0.89777
3076.06026	0.89457
3074.13170	0.89256
3072.20314	0.89067
3070.27457	0.88708
3068.34601	0.88228
3066.41744	0.87860
3064.48888	0.87532
3062.56031	0.87056
3060.63175	0.86595
3058.70318	0.86260
3056.77462	0.85853
3054.84606	0.85336
3052.91749	0.84886
3050.98893	0.84432
3049.06036	0.83886
3047.13180	0.83369
3045.20323	0.82874
3043.27467	0.82374
3041.34610	0.81986
3039.41754	0.81734
3037.48898	0.81484
3035.56041	0.81114
3033.63185	0.80687
3031.70328	0.80386
3029.77472	0.80224
3027.84615	0.80033
3025.91759	0.79743
3023.98903	0.79469
3022.06046	0.79338
3020.13190	0.79251
3018.20333	0.79071
3016.27477	0.78832
3014.34620	0.78604
3012.41764	0.78423
3010.48907	0.78246
3008.56051	0.78096
3006.63195	0.78098
3004.70338	0.78180
3002.77482	0.78187
3000.84625	0.78080
2998.91769	0.77933
2996.98912	0.77948
2995.06056	0.78217
2993.13199	0.78616
2991.20343	0.79068
2989.27487	0.79613
2987.34630	0.80199
2985.41774	0.80755
2983.48917	0.81369
2981.56061	0.82059
2979.63204	0.82704
2977.70348	0.83362
2975.77491	0.84153
2973.84635	0.84989
2971.91779	0.85806
2969.98922	0.86628
2968.06066	0.87343
2966.13209	0.87832
2964.20353	0.88192
2962.27496	0.88514
2960.34640	0.88640
2958.41783	0.88454
2956.48927	0.87986
2954.56071	0.87276
2952.63214	0.86544
2950.70358	0.86103
2948.77501	0.85952
2946.84645	0.85941
2944.91788	0.86145
2942.98932	0.86627
2941.06075	0.87326
2939.13219	0.88259
2937.20363	0.89376
2935.27506	0.90524
2933.34650	0.91550
2931.41793	0.92330
2929.48937	0.92929
2927.56080	0.93564
2925.63224	0.94254
2923.70367	0.94738
2921.77511	0.94838
2919.84655	0.94595
2917.91798	0.93954
2915.98942	0.92691
2914.06085	0.90804
2912.13229	0.88705
2910.20372	0.86854
2908.27516	0.85477
2906.34659	0.84491
2904.41803	0.83703
2902.48947	0.83043
2900.56090	0.82458
2898.63234	0.81956
2896.70377	0.81615
2894.77521	0.81349
2892.84664	0.81006
2890.91808	0.80607
2888.98952	0.80268
2887.06095	0.80016
2885.13239	0.79813
2883.20382	0.79641
2881.27526	0.79522
2879.34669	0.79503
2877.41813	0.79579
2875.48956	0.79629
2873.56100	0.79431
2871.63244	0.78927
2869.70387	0.78286
2867.77531	0.77611
2865.84674	0.77017
2863.91818	0.76674
2861.98961	0.76640
2860.06105	0.76898
2858.13248	0.77385
2856.20392	0.78039
2854.27536	0.78795
2852.34679	0.79416
2850.41823	0.79422
2848.48966	0.78314
2846.56110	0.76200
2844.63253	0.73893
2842.70397	0.72097
2840.77540	0.70902
2838.84684	0.69991
2836.91828	0.69167
2834.98971	0.68513
2833.06115	0.68048
2831.13258	0.67677
2829.20402	0.67363
2827.27545	0.67110
2825.34689	0.66871
2823.41832	0.66582
2821.48976	0.66263
2819.56120	0.65992
2817.63263	0.65816
2815.70407	0.65698
2813.77550	0.65557
2811.84694	0.65341
2809.91837	0.65069
2807.98981	0.64787
2806.06124	0.64507
2804.13268	0.64262
2802.20412	0.64022
2800.27555	0.63700
2798.34699	0.63386
2796.41842	0.63189
2794.48986	0.63044
2792.56129	0.62855
2790.63273	0.62622
2788.70416	0.62407
2786.77560	0.62206
2784.84704	0.62015
2782.91847	0.61836
2780.98991	0.61613
2779.06134	0.61382
2777.13278	0.61191
2775.20421	0.61018
2773.27565	0.60890
2771.34708	0.60803
2769.41852	0.60691
2767.48996	0.60519
2765.56139	0.60316
2763.63283	0.60135
2761.70426	0.59982
2759.77570	0.59835
2757.84713	0.59693
2755.91857	0.59576
2753.99001	0.59461
2752.06144	0.59296
2750.13288	0.59083
2748.20431	0.58910
2746.27575	0.58826
2744.34718	0.58744
2742.41862	0.58602
2740.49005	0.58426
2738.56149	0.58251
2736.63293	0.58088
2734.70436	0.57921
2732.77580	0.57773
2730.84723	0.57703
2728.91867	0.57666
2726.99010	0.57589
2725.06154	0.57498
2723.13297	0.57409
2721.20441	0.57264
2719.27585	0.57073
2717.34728	0.56915
2715.41872	0.56796
2713.49015	0.56671
2711.56159	0.56552
2709.63302	0.56481
2707.70446	0.56451
2705.77589	0.56407
2703.84733	0.56292
2701.91877	0.56131
2699.99020	0.56025
2698.06164	0.55982
2696.13307	0.55906
2694.20451	0.55756
2692.27594	0.55590
2690.34738	0.55494
2688.41881	0.55502
2686.49025	0.55526
2684.56169	0.55471
2682.63312	0.55359
2680.70456	0.55261
2678.77599	0.55187
2676.84743	0.55121
2674.91886	0.55073
2672.99030	0.55027
2671.06173	0.54986
2669.13317	0.54944
2667.20461	0.54852
2665.27604	0.54731
2663.34748	0.54655
2661.41891	0.54614
2659.49035	0.54549
2657.56178	0.54483
2655.63322	0.54474
2653.70465	0.54499
2651.77609	0.54478
2649.84753	0.54400
2647.91896	0.54335
2645.99040	0.54309
2644.06183	0.54250
2642.13327	0.54123
2640.20470	0.54001
2638.27614	0.53967
2636.34757	0.53995
2634.41901	0.54001
2632.49045	0.53947
2630.56188	0.53866
2628.63332	0.53798
2626.70475	0.53778
2624.77619	0.53811
2622.84762	0.53839
2620.91906	0.53841
2618.99049	0.53834
2617.06193	0.53807
2615.13337	0.53743
2613.20480	0.53659
2611.27624	0.53588
2609.34767	0.53543
2607.41911	0.53504
2605.49054	0.53471
2603.56198	0.53430
2601.63342	0.53345
2599.70485	0.53245
2597.77629	0.53175
2595.84772	0.53112
2593.91916	0.53034
2591.99059	0.52949
2590.06203	0.52893
2588.13346	0.52861
2586.20490	0.52815
2584.27634	0.52762
2582.34777	0.52720
2580.41921	0.52666
2578.49064	0.52613
2576.56208	0.52599
2574.63351	0.52571
2572.70495	0.52496
2570.77638	0.52424
2568.84782	0.52375
2566.91926	0.52354
2564.99069	0.52377
2563.06213	0.52388
2561.13356	0.52342
2559.20500	0.52276
2557.27643	0.52225
2555.34787	0.52179
2553.41930	0.52122
2551.49074	0.52044
2549.56218	0.51981
2547.63361	0.51981
2545.70505	0.51998
2543.77648	0.51984
2541.84792	0.51949
2539.91935	0.51893
2537.99079	0.51808
2536.06222	0.51738
2534.13366	0.51755
2532.20510	0.51823
2530.27653	0.51853
2528.34797	0.51846
2526.41940	0.51841
2524.49084	0.51851
2522.56227	0.51853
2520.63371	0.51818
2518.70514	0.51763
2516.77658	0.51701
2514.84802	0.51632
2512.91945	0.51610
2510.99089	0.51651
2509.06232	0.51688
2507.13376	0.51698
2505.20519	0.51715
2503.27663	0.51733
2501.34806	0.51706
2499.41950	0.51644
2497.49094	0.51621
2495.56237	0.51635
2493.63381	0.51640
2491.70524	0.51639
2489.77668	0.51638
2487.84811	0.51626
2485.91955	0.51610
2483.99098	0.51614
2482.06242	0.51636
2480.13386	0.51639
2478.20529	0.51649
2476.27673	0.51687
2474.34816	0.51714
2472.41960	0.51715
2470.49103	0.51701
2468.56247	0.51703
2466.63391	0.51738
2464.70534	0.51772
2462.77678	0.51791
2460.84821	0.51816
2458.91965	0.51825
2456.99108	0.51785
2455.06252	0.51726
2453.13395	0.51704
2451.20539	0.51698
2449.27683	0.51638
2447.34826	0.51555
2445.41970	0.51536
2443.49113	0.51555
2441.56257	0.51563
2439.63400	0.51563
2437.70544	0.51518
2435.77687	0.51416
2433.84831	0.51345
2431.91975	0.51332
2429.99118	0.51312
2428.06262	0.51273
2426.13405	0.51238
2424.20549	0.51194
2422.27692	0.51168
2420.34836	0.51203
2418.41979	0.51264
2416.49123	0.51304
2414.56267	0.51320
2412.63410	0.51319
2410.70554	0.51324
2408.77697	0.51365
2406.84841	0.51425
2404.91984	0.51480
2402.99128	0.51541
2401.06271	0.51585
2399.13415	0.51565
2397.20559	0.51512
2395.27702	0.51520
2393.34846	0.51579
2391.41989	0.51576
2389.49133	0.51512
2387.56276	0.51520
2385.63420	0.51633
2383.70563	0.51729
2381.77707	0.51767
2379.84851	0.51811
2377.91994	0.51884
2375.99138	0.51955
2374.06281	0.52043
2372.13425	0.52232
2370.20568	0.52473
2368.27712	0.52575
2366.34855	0.52502
2364.41999	0.52462
2362.49143	0.52650
2360.56286	0.52835
2358.63430	0.52685
2356.70573	0.52392
2354.77717	0.52229
2352.84860	0.52095
2350.92004	0.51935
2348.99147	0.51872
2347.06291	0.51924
2345.13435	0.51951
2343.20578	0.51910
2341.27722	0.51972
2339.34865	0.52080
2337.42009	0.52174
2335.49152	0.52292
2333.56296	0.52381
2331.63440	0.52404
2329.70583	0.52288
2327.77727	0.52095
2325.84870	0.52027
2323.92014	0.52060
2321.99157	0.52057
2320.06301	0.52038
2318.13444	0.52064
2316.20588	0.52074
2314.27732	0.52039
2312.34875	0.52030
2310.42019	0.52059
2308.49162	0.52098
2306.56306	0.52122
2304.63449	0.52111
2302.70593	0.52083
2300.77736	0.52046
2298.84880	0.52012
2296.92024	0.52011
2294.99167	0.52019
2293.06311	0.51996
2291.13454	0.51947
2289.20598	0.51911
2287.27741	0.51933
2285.34885	0.51982
2283.42028	0.51982
2281.49172	0.51944
2279.56316	0.51915
2277.63459	0.51891
2275.70603	0.51889
2273.77746	0.51918
2271.84890	0.51937
2269.92033	0.51927
2267.99177	0.51915
2266.06320	0.51928
2264.13464	0.51946
2262.20608	0.51953
2260.27751	0.51977
2258.34895	0.52009
2256.42038	0.52014
2254.49182	0.52015
2252.56325	0.52032
2250.63469	0.52037
2248.70612	0.52030
2246.77756	0.52021
2244.84900	0.52019
2242.92043	0.52032
2240.99187	0.52037
2239.06330	0.52009
2237.13474	0.51955
2235.20617	0.51909
2233.27761	0.51892
2231.34904	0.51893
2229.42048	0.51890
2227.49192	0.51902
2225.56335	0.51949
2223.63479	0.52000
2221.70622	0.52034
2219.77766	0.52062
2217.84909	0.52094
2215.92053	0.52140
2213.99196	0.52205
2212.06340	0.52284
2210.13484	0.52329
2208.20627	0.52314
2206.27771	0.52300
2204.34914	0.52338
2202.42058	0.52398
2200.49201	0.52440
2198.56345	0.52468
2196.63488	0.52498
2194.70632	0.52511
2192.77776	0.52484
2190.84919	0.52435
2188.92063	0.52390
2186.99206	0.52363
2185.06350	0.52375
2183.13493	0.52403
2181.20637	0.52401
2179.27781	0.52384
2177.34924	0.52378
2175.42068	0.52385
2173.49211	0.52394
2171.56355	0.52399
2169.63498	0.52398
2167.70642	0.52401
2165.77785	0.52415
2163.84929	0.52415
2161.92073	0.52404
2159.99216	0.52413
2158.06360	0.52451
2156.13503	0.52499
2154.20647	0.52525
2152.27790	0.52564
2150.34934	0.52627
2148.42077	0.52641
2146.49221	0.52610
2144.56365	0.52577
2142.63508	0.52533
2140.70652	0.52483
2138.77795	0.52453
2136.84939	0.52427
2134.92082	0.52373
2132.99226	0.52297
2131.06369	0.52226
2129.13513	0.52183
2127.20657	0.52165
2125.27800	0.52131
2123.34944	0.52044
2121.42087	0.51936
2119.49231	0.51862
2117.56374	0.51814
2115.63518	0.51762
2113.70661	0.51718
2111.77805	0.51687
2109.84949	0.51654
2107.92092	0.51639
2105.99236	0.51636
2104.06379	0.51614
2102.13523	0.51577
2100.20666	0.51540
2098.27810	0.51508
2096.34953	0.51475
2094.42097	0.51441
2092.49241	0.51439
2090.56384	0.51497
2088.63528	0.51564
2086.70671	0.51565
2084.77815	0.51525
2082.84958	0.51505
2080.92102	0.51510
2078.99245	0.51531
2077.06389	0.51560
2075.13533	0.51587
2073.20676	0.51608
2071.27820	0.51620
2069.34963	0.51629
2067.42107	0.51648
2065.49250	0.51695
2063.56394	0.51744
2061.63537	0.51771
2059.70681	0.51799
2057.77825	0.51849
2055.84968	0.51914
2053.92112	0.51961
2051.99255	0.51972
2050.06399	0.51985
2048.13542	0.52019
2046.20686	0.52040
2044.27830	0.52042
2042.34973	0.52053
2040.42117	0.52070
2038.49260	0.52101
2036.56404	0.52153
2034.63547	0.52190
2032.70691	0.52203
2030.77834	0.52218
2028.84978	0.52235
2026.92122	0.52243
2024.99265	0.52249
2023.06409	0.52250
2021.13552	0.52240
2019.20696	0.52237
2017.27839	0.52252
2015.34983	0.52253
2013.42126	0.52208
2011.49270	0.52132
2009.56414	0.52054
2007.63557	0.51992
2005.70701	0.51938
2003.77844	0.51876
2001.84988	0.51822
1999.92131	0.51778
1997.99275	0.51702
1996.06418	0.51596
1994.13562	0.51485
1992.20706	0.51351
1990.27849	0.51212
1988.34993	0.51100
1986.42136	0.51000
1984.49280	0.50887
1982.56423	0.50754
1980.63567	0.50618
1978.70710	0.50476
1976.77854	0.50306
1974.84998	0.50135
1972.92141	0.50002
1970.99285	0.49905
1969.06428	0.49804
1967.13572	0.49672
1965.20715	0.49544
1963.27859	0.49475
1961.35002	0.49425
1959.42146	0.49355
1957.49290	0.49300
1955.56433	0.49266
1953.63577	0.49212
1951.70720	0.49147
1949.77864	0.49097
1947.85007	0.49060
1945.92151	0.49045
1943.99294	0.49046
1942.06438	0.49018
1940.13582	0.48960
1938.20725	0.48910
1936.27869	0.48871
1934.35012	0.48812
1932.42156	0.48739
1930.49299	0.48689
1928.56443	0.48658
1926.63586	0.48620
1924.70730	0.48540
1922.77874	0.48426
1920.85017	0.48338
1918.92161	0.48262
1916.99304	0.48195
1915.06448	0.48170
1913.13591	0.48151
1911.20735	0.48129
1909.27878	0.48136
1907.35022	0.48148
1905.42166	0.48153
1903.49309	0.48170
1901.56453	0.48202
1899.63596	0.48260
1897.70740	0.48337
1895.77883	0.48402
1893.85027	0.48454
1891.92171	0.48528
1889.99314	0.48627
1888.06458	0.48704
1886.13601	0.48745
1884.20745	0.48758
1882.27888	0.48759
1880.35032	0.48761
1878.42175	0.48720
1876.49319	0.48616
1874.56463	0.48500
1872.63606	0.48425
1870.70750	0.48358
1868.77893	0.48245
1866.85037	0.48126
1864.92180	0.48039
1862.99324	0.47961
1861.06467	0.47867
1859.13611	0.47752
1857.20755	0.47627
1855.27898	0.47526
1853.35042	0.47447
1851.42185	0.47364
1849.49329	0.47297
1847.56472	0.47267
1845.63616	0.47247
1843.70759	0.47186
1841.77903	0.47135
1839.85047	0.47126
1837.92190	0.47102
1835.99334	0.47054
1834.06477	0.47027
1832.13621	0.47016
1830.20764	0.46964
1828.27908	0.46877
1826.35051	0.46809
1824.42195	0.46729
1822.49339	0.46617
1820.56482	0.46474
1818.63626	0.46305
1816.70769	0.46138
1814.77913	0.45991
1812.85056	0.45842
1810.92200	0.45675
1808.99343	0.45520
1807.06487	0.45405
1805.13631	0.45332
1803.20774	0.45258
1801.27918	0.45174
1799.35061	0.45114
1797.42205	0.45079
1795.49348	0.45077
1793.56492	0.45119
1791.63635	0.45212
1789.70779	0.45337
1787.77923	0.45458
1785.85066	0.45549
1783.92210	0.45627
1781.99353	0.45742
1780.06497	0.45902
1778.13640	0.46070
1776.20784	0.46195
1774.27927	0.46270
1772.35071	0.46284
1770.42215	0.46249
1768.49358	0.46229
1766.56502	0.46211
1764.63645	0.46184
1762.70789	0.46174
1760.77932	0.46256
1758.85076	0.46420
1756.92220	0.46645
1754.99363	0.46934
1753.06507	0.47301
1751.13650	0.47859
1749.20794	0.48585
1747.27937	0.49273
1745.35081	0.49900
1743.42224	0.50495
1741.49368	0.51008
1739.56512	0.51398
1737.63655	0.51673
1735.70799	0.51872
1733.77942	0.52037
1731.85086	0.52123
1729.92229	0.52204
1727.99373	0.52339
1726.06516	0.52526
1724.13660	0.52787
1722.20804	0.53087
1720.27947	0.53443
1718.35091	0.54033
1716.42234	0.54989
1714.49378	0.55886
1712.56521	0.56705
1710.63665	0.57694
1708.70808	0.58929
1706.77952	0.60765
1704.85096	0.63281
1702.92239	0.65718
1700.99383	0.69176
1699.06526	0.74550
1697.13670	0.79491
1695.20813	0.84080
1693.27957	0.87453
1691.35100	0.90237
1689.42244	0.93734
1687.49388	0.97107
1685.56531	1.00547
1683.63675	1.05911
1681.70818	1.10005
1679.77962	1.12434
1677.85105	1.14768
1675.92249	1.17628
1673.99392	1.20802
1672.06536	1.23428
1670.13680	1.26134
1668.20823	1.28733
1666.27967	1.30169
1664.35110	1.31419
1662.42254	1.32963
1660.49397	1.33997
1658.56541	1.34451
1656.63684	1.34823
1654.70828	1.35390
1652.77972	1.35598
1650.85115	1.35402
1648.92259	1.35419
1646.99402	1.35292
1645.06546	1.34842
1643.13689	1.34346
1641.20833	1.33959
1639.27976	1.33730
1637.35120	1.33720
1635.42264	1.33409
1633.49407	1.32595
1631.56551	1.31903
1629.63694	1.31203
1627.70838	1.30339
1625.77981	1.29123
1623.85125	1.27277
1621.92269	1.25214
1619.99412	1.23624
1618.06556	1.21483
1616.13699	1.17783
1614.20843	1.14654
1612.27986	1.12332
1610.35130	1.09880
1608.42273	1.07338
1606.49417	1.05215
1604.56561	1.03617
1602.63704	1.02276
1600.70848	1.01129
1598.77991	1.00266
1596.85135	0.99650
1594.92278	0.99242
1592.99422	0.99096
1591.06565	0.99159
1589.13709	0.99380
1587.20853	0.99862
1585.27996	1.00674
1583.35140	1.01776
1581.42283	1.02991
1579.49427	1.04162
1577.56570	1.05676
1575.63714	1.07997
1573.70857	1.09720
1571.78001	1.10827
1569.85145	1.12645
1567.92288	1.15093
1565.99432	1.17033
1564.06575	1.18532
1562.13719	1.19515
1560.20862	1.20569
1558.28006	1.23189
1556.35149	1.24603
1554.42293	1.24943
1552.49437	1.25163
1550.56580	1.25288
1548.63724	1.25348
1546.70867	1.25360
1544.78011	1.25122
1542.85154	1.24538
1540.92298	1.23717
1538.99441	1.22792
1537.06585	1.22391
1535.13729	1.22026
1533.20872	1.21431
1531.28016	1.21050
1529.35159	1.20911
1527.42303	1.20647
1525.49446	1.20313
1523.56590	1.20162
1521.63733	1.19926
1519.70877	1.19626
1517.78021	1.19212
1515.85164	1.18241
1513.92308	1.16876
1511.99451	1.15393
1510.06595	1.13939
1508.13738	1.11939
1506.20882	1.08403
1504.28025	1.06131
1502.35169	1.04580
1500.42313	1.02818
1498.49456	1.00526
1496.56600	0.97790
1494.63743	0.95731
1492.70887	0.94374
1490.78030	0.92675
1488.85174	0.90232
1486.92317	0.88366
1484.99461	0.87293
1483.06605	0.86515
1481.13748	0.85867
1479.20892	0.85501
1477.28035	0.85580
1475.35179	0.86171
1473.42322	0.87422
1471.49466	0.88960
1469.56610	0.90051
1467.63753	0.90944
1465.70897	0.91960
1463.78040	0.92955
1461.85184	0.93629
1459.92327	0.94208
1457.99471	0.95288
1456.06614	0.96793
1454.13758	0.97527
1452.20902	0.97812
1450.28045	0.97875
1448.35189	0.97790
1446.42332	0.97641
1444.49476	0.97373
1442.56619	0.96922
1440.63763	0.96465
1438.70906	0.96008
1436.78050	0.95068
1434.85194	0.93790
1432.92337	0.92807
1430.99481	0.91886
1429.06624	0.90875
1427.13768	0.90012
1425.20911	0.89382
1423.28055	0.88986
1421.35198	0.88773
1419.42342	0.88658
1417.49486	0.88694
1415.56629	0.88734
1413.63773	0.88631
1411.70916	0.88447
1409.78060	0.88353
1407.85203	0.88411
1405.92347	0.88624
1403.99490	0.89047
1402.06634	0.89558
1400.13778	0.90061
1398.20921	0.90589
1396.28065	0.91215
1394.35208	0.91934
1392.42352	0.92585
1390.49495	0.93236
1388.56639	0.94186
1386.63782	0.95586
1384.70926	0.97108
1382.78070	0.98579
1380.85213	0.99881
1378.92357	1.00597
1376.99500	1.00492
1375.06644	0.99534
1373.13787	0.97853
1371.20931	0.95901
1369.28074	0.93676
1367.35218	0.91294
1365.42362	0.89137
1363.49505	0.87053
1361.56649	0.85185
1359.63792	0.83978
1357.70936	0.83199
1355.78079	0.82607
1353.85223	0.82220
1351.92366	0.82021
1349.99510	0.81905
1348.06654	0.81850
1346.13797	0.81887
1344.20941	0.82003
1342.28084	0.82166
1340.35228	0.82429
1338.42371	0.82835
1336.49515	0.83362
1334.56659	0.84053
1332.63802	0.84951
1330.70946	0.85968
1328.78089	0.86856
1326.85233	0.87429
1324.92376	0.87698
1322.99520	0.87782
1321.06663	0.87831
1319.13807	0.87954
1317.20951	0.88142
1315.28094	0.88325
1313.35238	0.88468
1311.42381	0.88553
1309.49525	0.88601
1307.56668	0.88586
1305.63812	0.88444
1303.70955	0.88218
1301.78099	0.87969
1299.85243	0.87673
1297.92386	0.87285
1295.99530	0.86861
1294.06673	0.86558
1292.13817	0.86421
1290.20960	0.86370
1288.28104	0.86375
1286.35247	0.86431
1284.42391	0.86458
1282.49535	0.86431
1280.56678	0.86433
1278.63822	0.86537
1276.70965	0.86755
1274.78109	0.87070
1272.85252	0.87483
1270.92396	0.88017
1268.99539	0.88676
1267.06683	0.89428
1265.13827	0.90169
1263.20970	0.90732
1261.28114	0.91048
1259.35257	0.91233
1257.42401	0.91388
1255.49544	0.91540
1253.56688	0.91729
1251.63831	0.91956
1249.70975	0.92183
1247.78119	0.92426
1245.85262	0.92725
1243.92406	0.93016
1241.99549	0.93213
1240.06693	0.93330
1238.13836	0.93370
1236.20980	0.93285
1234.28123	0.93070
1232.35267	0.92689
1230.42411	0.92085
1228.49554	0.91335
1226.56698	0.90490
1224.63841	0.89465
1222.70985	0.88276
1220.78128	0.87089
1218.85272	0.86090
1216.92415	0.85332
1214.99559	0.84760
1213.06703	0.84403
1211.13846	0.84370
1209.20990	0.84589
1207.28133	0.84755
1205.35277	0.84602
1203.42420	0.84073
1201.49564	0.83243
1199.56708	0.82254
1197.63851	0.81262
1195.70995	0.80374
1193.78138	0.79612
1191.85282	0.78995
1189.92425	0.78600
1187.99569	0.78455
1186.06712	0.78463
1184.13856	0.78564
1182.21000	0.78795
1180.28143	0.79182
1178.35287	0.79753
1176.42430	0.80516
1174.49574	0.81443
1172.56717	0.82517
1170.63861	0.83776
1168.71004	0.85327
1166.78148	0.87108
1164.85292	0.88876
1162.92435	0.90474
1160.99579	0.91709
1159.06722	0.92301
1157.13866	0.92140
1155.21009	0.91301
1153.28153	0.89973
1151.35296	0.88402
1149.42440	0.86746
1147.49584	0.85167
1145.56727	0.83856
1143.63871	0.82904
1141.71014	0.82336
1139.78158	0.82130
1137.85301	0.82209
1135.92445	0.82534
1133.99588	0.83180
1132.06732	0.84236
1130.13876	0.85666
1128.21019	0.87420
1126.28163	0.89445
1124.35306	0.91460
1122.42450	0.93092
1120.49593	0.94262
1118.56737	0.95118
1116.63880	0.95686
1114.71024	0.95854
1112.78168	0.95544
1110.85311	0.94916
1108.92455	0.94279
1106.99598	0.93773
1105.06742	0.93342
1103.13885	0.92983
1101.21029	0.92867
1099.28172	0.93159
1097.35316	0.93849
1095.42460	0.94798
1093.49603	0.95899
1091.56747	0.97214
1089.63890	0.98765
1087.71034	1.00514
1085.78177	1.02585
1083.85321	1.04903
1081.92464	1.06970
1079.99608	1.08339
1078.06752	1.09094
1076.13895	1.09489
1074.21039	1.09431
1072.28182	1.08856
1070.35326	1.07879
1068.42469	1.06567
1066.49613	1.05023
1064.56756	1.03424
1062.63900	1.01952
1060.71044	1.00638
1058.78187	0.99375
1056.85331	0.98161
1054.92474	0.97151
1052.99618	0.96501
1051.06761	0.96213
1049.13905	0.96149
1047.21049	0.96242
1045.28192	0.96714
1043.35336	0.97703
1041.42479	0.98847
1039.49623	0.99829
1037.56766	1.00742
1035.63910	1.01597
1033.71053	1.02232
1031.78197	1.02549
1029.85341	1.02462
1027.92484	1.01919
1025.99628	1.00979
1024.06771	0.99751
1022.13915	0.98461
1020.21058	0.97362
1018.28202	0.96455
1016.35345	0.95465
1014.42489	0.94102
1012.49633	0.92345
1010.56776	0.90334
1008.63920	0.88121
1006.71063	0.85790
1004.78207	0.83560
1002.85350	0.81569
1000.92494	0.79808
998.99637	0.78344
997.06781	0.77257
995.13925	0.76460
993.21068	0.75810
991.28212	0.75187
989.35355	0.74522
987.42499	0.73909
985.49642	0.73488
983.56786	0.73260
981.63929	0.73139
979.71073	0.73054
977.78217	0.72976
975.85360	0.72862
973.92504	0.72587
971.99647	0.72026
970.06791	0.71202
968.13934	0.70250
966.21078	0.69318
964.28221	0.68577
962.35365	0.68134
960.42509	0.68057
958.49652	0.68387
956.56796	0.68817
954.63939	0.68824
952.71083	0.68254
950.78226	0.67283
948.85370	0.66076
946.92513	0.64810
944.99657	0.63732
943.06801	0.62931
941.13944	0.62318
939.21088	0.61879
937.28231	0.61665
935.35375	0.61633
933.42518	0.61735
931.49662	0.62002
929.56805	0.62418
927.63949	0.62893
925.71093	0.63420
923.78236	0.64017
921.85380	0.64594
919.92523	0.65052
917.99667	0.65370
916.06810	0.65544
914.13954	0.65620
912.21098	0.65709
910.28241	0.65832
908.35385	0.65954
906.42528	0.66126
904.49672	0.66371
902.56815	0.66592
900.63959	0.66744
898.71102	0.66863
896.78246	0.66941
894.85390	0.66954
892.92533	0.66912
890.99677	0.66868
889.06820	0.66885
887.13964	0.66956
885.21107	0.67054
883.28251	0.67203
881.35394	0.67422
879.42538	0.67710
877.49682	0.68006
875.56825	0.68210
873.63969	0.68306
871.71112	0.68340
869.78256	0.68331
867.85399	0.68214
865.92543	0.67930
863.99686	0.67559
862.06830	0.67212
860.13974	0.66859
858.21117	0.66412
856.28261	0.65917
854.35404	0.65447
852.42548	0.64945
850.49691	0.64374
848.56835	0.63794
846.63978	0.63273
844.71122	0.62897
842.78266	0.62695
840.85409	0.62595
838.92553	0.62515
836.99696	0.62465
835.06840	0.62543
833.13983	0.62761
831.21127	0.63034
829.28270	0.63333
827.35414	0.63651
825.42558	0.64018
823.49701	0.64473
821.56845	0.64933
819.63988	0.65357
817.71132	0.65807
815.78275	0.66267
813.85419	0.66710
811.92562	0.67122
809.99706	0.67393
808.06850	0.67486
806.13993	0.67500
804.21137	0.67492
802.28280	0.67427
800.35424	0.67264
798.42567	0.67061
796.49711	0.66893
794.56854	0.66721
792.63998	0.66467
790.71142	0.66111
788.78285	0.65752
786.85429	0.65497
784.92572	0.65353
782.99716	0.65256
781.06859	0.65162
779.14003	0.65103
777.21147	0.65177
775.28290	0.65460
773.35434	0.65843
771.42577	0.66157
769.49721	0.66450
767.56864	0.66820
765.64008	0.67221
763.71151	0.67616
761.78295	0.68049
759.85439	0.68519
757.92582	0.68967
755.99726	0.69319
754.06869	0.69540
752.14013	0.69716
750.21156	0.69949
748.28300	0.70173
746.35443	0.70262
744.42587	0.70207
742.49731	0.70048
740.56874	0.69797
738.64018	0.69542
736.71161	0.69376
734.78305	0.69276
732.85448	0.69205
730.92592	0.69152
728.99735	0.69077
727.06879	0.69002
725.14023	0.69028
723.21166	0.69224
721.28310	0.69521
719.35453	0.69765
717.42597	0.69891
715.49740	0.70022
713.56884	0.70321
711.64027	0.70744
709.71171	0.71113
707.78315	0.71455
705.85458	0.71889
703.92602	0.72268
701.99745	0.72405
700.06889	0.72417
698.14032	0.72440
696.21176	0.72440
694.28319	0.72395
692.35463	0.72285
690.42607	0.72034
688.49750	0.71652
686.56894	0.71278
684.64037	0.70990
682.71181	0.70703
680.78324	0.70306
678.85468	0.69804
676.92611	0.69297
674.99755	0.68818
673.06899	0.68346
671.14042	0.67940
669.21186	0.67607
667.28329	0.67339
665.35473	0.67249
663.42616	0.67275
661.49760	0.67315
659.56903	0.67406
657.64047	0.67593
655.71191	0.67755
653.78334	0.67933
651.85478	0.68238
649.92621	0.68575
647.99765	0.68853
646.06908	0.69232
644.14052	0.69957
642.21195	0.70892
640.28339	0.71719
638.35483	0.72473
636.42626	0.73259
634.49770	0.73920
632.56913	0.74430
630.64057	0.74953
628.71200	0.75453
626.78344	0.75803
624.85488	0.76009
622.92631	0.76209
620.99775	0.76427
619.06918	0.76449
617.14062	0.76076
615.21205	0.75427
613.28349	0.74867
611.35492	0.74583
609.42636	0.74470
607.49780	0.74310
605.56923	0.73974
603.64067	0.73686
601.71210	0.73728
599.78354	0.73722
