3997.91406	0.55353
3995.98550	0.55175
3994.05693	0.55207
3992.12837	0.55428
3990.19980	0.55472
3988.27124	0.55244
3986.34268	0.55047
3984.41411	0.55039
3982.48555	0.55055
3980.55698	0.54958
3978.62842	0.54933
3976.69985	0.55085
3974.77129	0.55173
3972.84272	0.55097
3970.91416	0.55037
3968.98560	0.55003
3967.05703	0.54867
3965.12847	0.54755
3963.19990	0.54764
3961.27134	0.54751
3959.34277	0.54706
3957.41421	0.54675
3955.48564	0.54634
3953.55708	0.54622
3951.62852	0.54635
3949.69995	0.54611
3947.77139	0.54584
3945.84282	0.54612
3943.91426	0.54544
3941.98569	0.54297
3940.05713	0.54102
3938.12856	0.54067
3936.20000	0.54104
3934.27144	0.54077
3932.34287	0.53910
3930.41431	0.53720
3928.48574	0.53629
3926.55718	0.53623
3924.62861	0.53688
3922.70005	0.53812
3920.77148	0.53909
3918.84292	0.53867
3916.91436	0.53671
3914.98579	0.53520
3913.05723	0.53525
3911.12866	0.53609
3909.20010	0.53725
3907.27153	0.53785
3905.34297	0.53664
3903.41440	0.53566
3901.48584	0.53667
3899.55728	0.53589
3897.62871	0.53306
3895.70015	0.53107
3893.77158	0.52999
3891.84302	0.52984
3889.91445	0.53128
3887.98589	0.53159
3886.05733	0.52948
3884.12876	0.52804
3882.20020	0.52739
3880.27163	0.52587
3878.34307	0.52585
3876.41450	0.52657
3874.48594	0.52649
3872.55737	0.52659
3870.62881	0.52662
3868.70025	0.52755
3866.77168	0.53016
3864.84312	0.53029
3862.91455	0.52548
3860.98599	0.52130
3859.05742	0.52113
3857.12886	0.52304
3855.20029	0.52360
3853.27173	0.52199
3851.34317	0.52050
3849.41460	0.51924
3847.48604	0.51860
3845.55747	0.51802
3843.62891	0.51651
3841.70034	0.51521
3839.77178	0.51567
3837.84321	0.51620
3835.91465	0.51544
3833.98609	0.51500
3832.05752	0.51511
3830.12896	0.51587
3828.20039	0.51744
3826.27183	0.51851
3824.34326	0.51884
3822.41470	0.51831
3820.48613	0.51525
3818.55757	0.51344
3816.62901	0.51385
3814.70044	0.51416
3812.77188	0.51392
3810.84331	0.51347
3808.91475	0.51347
3806.98618	0.51338
3805.05762	0.51172
3803.12905	0.50834
3801.20049	0.50462
3799.27193	0.50386
3797.34336	0.50398
3795.41480	0.50380
3793.48623	0.50435
3791.55767	0.50569
3789.62910	0.50722
3787.70054	0.50792
3785.77197	0.50714
3783.84341	0.50594
3781.91485	0.50563
3779.98628	0.50495
3778.05772	0.50340
3776.12915	0.50265
3774.20059	0.50265
3772.27202	0.50215
3770.34346	0.50081
3768.41489	0.50043
3766.48633	0.50034
3764.55777	0.49934
3762.62920	0.49878
3760.70064	0.49805
3758.77207	0.49716
3756.84351	0.49797
3754.91494	0.49881
3752.98638	0.49683
3751.05781	0.49147
3749.12925	0.48887
3747.20069	0.48974
3745.27212	0.49168
3743.34356	0.49386
3741.41499	0.49514
3739.48643	0.49547
3737.55786	0.49404
3735.62930	0.49201
3733.70074	0.49274
3731.77217	0.49397
3729.84361	0.49492
3727.91504	0.49524
3725.98648	0.49326
3724.05791	0.49154
3722.12935	0.49200
3720.20078	0.49176
3718.27222	0.49125
3716.34366	0.49190
3714.41509	0.49287
3712.48653	0.49237
3710.55796	0.49036
3708.62940	0.48987
3706.70083	0.49031
3704.77227	0.49057
3702.84370	0.49021
3700.91514	0.48922
3698.98658	0.48886
3697.05801	0.48951
3695.12945	0.49050
3693.20088	0.49114
3691.27232	0.49018
3689.34375	0.48772
3687.41519	0.48794
3685.48662	0.48936
3683.55806	0.49010
3681.62950	0.49048
3679.70093	0.49013
3677.77237	0.48827
3675.84380	0.48738
3673.91524	0.49215
3671.98667	0.49752
3670.05811	0.50040
3668.12954	0.50248
3666.20098	0.50469
3664.27242	0.50621
3662.34385	0.50785
3660.41529	0.51072
3658.48672	0.51397
3656.55816	0.51665
3654.62959	0.51927
3652.70103	0.52236
3650.77246	0.52557
3648.84390	0.52847
3646.91534	0.53173
3644.98677	0.53463
3643.05821	0.53709
3641.12964	0.53939
3639.20108	0.54151
3637.27251	0.54397
3635.34395	0.54782
3633.41538	0.55375
3631.48682	0.56040
3629.55826	0.56494
3627.62969	0.56663
3625.70113	0.56934
3623.77256	0.57268
3621.84400	0.57576
3619.91543	0.57885
3617.98687	0.58168
3616.05830	0.58471
3614.12974	0.58922
3612.20118	0.59504
3610.27261	0.60017
3608.34405	0.60381
3606.41548	0.60731
3604.48692	0.61100
3602.55835	0.61428
3600.62979	0.61757
3598.70123	0.62188
3596.77266	0.62653
3594.84410	0.63119
3592.91553	0.63642
3590.98697	0.64096
3589.05840	0.64516
3587.12984	0.65114
3585.20127	0.65588
3583.27271	0.65791
3581.34415	0.66034
3579.41558	0.66431
3577.48702	0.66902
3575.55845	0.67433
3573.62989	0.67965
3571.70132	0.68427
3569.77276	0.68848
3567.84419	0.69359
3565.91563	0.69969
3563.98707	0.70476
3562.05850	0.70915
3560.12994	0.71322
3558.20137	0.71771
3556.27281	0.72268
3554.34424	0.72738
3552.41568	0.73191
3550.48711	0.73566
3548.55855	0.73945
3546.62999	0.74599
3544.70142	0.75419
3542.77286	0.76005
3540.84429	0.76392
3538.91573	0.76718
3536.98716	0.77004
3535.05860	0.77378
3533.13003	0.77947
3531.20147	0.78548
3529.27291	0.78861
3527.34434	0.79041
3525.41578	0.79618
3523.48721	0.80486
3521.55865	0.81182
3519.63008	0.81719
3517.70152	0.82309
3515.77295	0.82893
3513.84439	0.83440
3511.91583	0.84021
3509.98726	0.84568
3508.05870	0.85144
3506.13013	0.85935
3504.20157	0.86915
3502.27300	0.87816
3500.34444	0.88422
3498.41587	0.88897
3496.48731	0.89505
3494.55875	0.90289
3492.63018	0.91146
3490.70162	0.91974
3488.77305	0.92567
3486.84449	0.92763
3484.91592	0.92715
3482.98736	0.92765
3481.05879	0.93096
3479.13023	0.93545
3477.20167	0.93866
3475.27310	0.94047
3473.34454	0.94334
3471.41597	0.94784
3469.48741	0.95234
3467.55884	0.95592
3465.63028	0.95740
3463.70171	0.95870
3461.77315	0.96379
3459.84459	0.97067
3457.91602	0.97443
3455.98746	0.97619
3454.05889	0.97997
3452.13033	0.98482
3450.20176	0.98783
3448.27320	0.99004
3446.34464	0.99228
3444.41607	0.99290
3442.48751	0.99368
3440.55894	0.99703
3438.63038	1.00068
3436.70181	1.00165
3434.77325	1.00135
3432.84468	1.00318
3430.91612	1.00590
3428.98756	1.00493
3427.05899	1.00015
3425.13043	0.99674
3423.20186	0.99828
3421.27330	1.00127
3419.34473	1.00123
3417.41617	1.00012
3415.48760	0.99993
3413.55904	0.99988
3411.63048	1.00199
3409.70191	1.00756
3407.77335	1.01289
3405.84478	1.01562
3403.91622	1.01575
3401.98765	1.01419
3400.05909	1.01412
3398.13052	1.01601
3396.20196	1.01741
3394.27340	1.01763
3392.34483	1.01775
3390.41627	1.01898
3388.48770	1.02092
3386.55914	1.02215
3384.63057	1.02248
3382.70201	1.02360
3380.77344	1.02603
3378.84488	1.02698
3376.91632	1.02571
3374.98775	1.02607
3373.05919	1.03022
3371.13062	1.03631
3369.20206	1.04090
3367.27349	1.04213
3365.34493	1.04245
3363.41636	1.04376
3361.48780	1.04331
3359.55924	1.04138
3357.63067	1.04289
3355.70211	1.04941
3353.77354	1.05693
3351.84498	1.05970
3349.91641	1.05686
3347.98785	1.05481
3346.05928	1.05763
3344.13072	1.06175
3342.20216	1.06447
3340.27359	1.06682
3338.34503	1.06799
3336.41646	1.06784
3334.48790	1.06823
3332.55933	1.07033
3330.63077	1.07564
3328.70220	1.08144
3326.77364	1.08279
3324.84508	1.08249
3322.91651	1.08466
3320.98795	1.08826
3319.05938	1.09158
3317.13082	1.09431
3315.20225	1.09783
3313.27369	1.10372
3311.34513	1.11223
3309.41656	1.12040
3307.48800	1.12336
3305.55943	1.12234
3303.63087	1.12356
3301.70230	1.12952
3299.77374	1.13571
3297.84517	1.13664
3295.91661	1.13265
3293.98805	1.12907
3292.05948	1.13024
3290.13092	1.13349
3288.20235	1.13414
3286.27379	1.13293
3284.34522	1.13245
3282.41666	1.13278
3280.48809	1.13129
3278.55953	1.12823
3276.63097	1.12691
3274.70240	1.12707
3272.77384	1.12600
3270.84527	1.12188
3268.91671	1.11563
3266.98814	1.11124
3265.05958	1.10907
3263.13101	1.10418
3261.20245	1.09584
3259.27389	1.09003
3257.34532	1.08884
3255.41676	1.08711
3253.48819	1.08112
3251.55963	1.07367
3249.63106	1.06839
3247.70250	1.06405
3245.77393	1.05704
3243.84537	1.04885
3241.91681	1.04432
3239.98824	1.04186
3238.05968	1.03649
3236.13111	1.03012
3234.20255	1.02621
3232.27398	1.02156
3230.34542	1.01415
3228.41685	1.00720
3226.48829	1.00157
3224.55973	0.99699
3222.63116	0.99474
3220.70260	0.99240
3218.77403	0.98707
3216.84547	0.98226
3214.91690	0.98092
3212.98834	0.98068
3211.05977	0.97930
3209.13121	0.97661
3207.20265	0.97279
3205.27408	0.96802
3203.34552	0.96260
3201.41695	0.95791
3199.48839	0.95498
3197.55982	0.95192
3195.63126	0.94764
3193.70269	0.94427
3191.77413	0.94128
3189.84557	0.93670
3187.91700	0.93157
3185.98844	0.92630
3184.05987	0.92024
3182.13131	0.91453
3180.20274	0.91105
3178.27418	0.90956
3176.34562	0.90793
3174.41705	0.90536
3172.48849	0.90183
3170.55992	0.89770
3168.63136	0.89441
3166.70279	0.89155
3164.77423	0.88788
3162.84566	0.88397
3160.91710	0.87963
3158.98854	0.87503
3157.05997	0.87229
3155.13141	0.87117
3153.20284	0.87024
3151.27428	0.86941
3149.34571	0.86774
3147.41715	0.86537
3145.48858	0.86349
3143.56002	0.86125
3141.63146	0.85758
3139.70289	0.85290
3137.77433	0.84925
3135.84576	0.84801
3133.91720	0.84728
3131.98863	0.84578
3130.06007	0.84460
3128.13150	0.84368
3126.20294	0.84205
3124.27438	0.83969
3122.34581	0.83761
3120.41725	0.83742
3118.48868	0.83936
3116.56012	0.84134
3114.63155	0.84202
3112.70299	0.84221
3110.77442	0.84262
3108.84586	0.84359
3106.91730	0.84497
3104.98873	0.84490
3103.06017	0.84234
3101.13160	0.83961
3099.20304	0.83868
3097.27447	0.83898
3095.34591	0.83935
3093.41734	0.83787
3091.48878	0.83393
3089.56022	0.82991
3087.63165	0.82755
3085.70309	0.82638
3083.77452	0.82532
3081.84596	0.82306
3079.91739	0.81985
3077.98883	0.81749
3076.06026	0.81598
3074.13170	0.81366
3072.20314	0.81010
3070.27457	0.80687
3068.34601	0.80502
3066.41744	0.80380
3064.48888	0.80280
3062.56031	0.80169
3060.63175	0.79917
3058.70318	0.79553
3056.77462	0.79254
3054.84606	0.79017
3052.91749	0.78703
3050.98893	0.78264
3049.06036	0.77768
3047.13180	0.77360
3045.20323	0.77113
3043.27467	0.76908
3041.34610	0.76604
3039.41754	0.76215
3037.48898	0.75793
3035.56041	0.75364
3033.63185	0.75022
3031.70328	0.74851
3029.77472	0.74753
3027.84615	0.74580
3025.91759	0.74328
3023.98903	0.74036
3022.06046	0.73715
3020.13190	0.73416
3018.20333	0.73165
3016.27477	0.72986
3014.34620	0.72900
3012.41764	0.72779
3010.48907	0.72509
3008.56051	0.72219
3006.63195	0.72065
3004.70338	0.72011
3002.77482	0.71965
3000.84625	0.71930
2998.91769	0.71939
2996.98912	0.71985
2995.06056	0.72078
2993.13199	0.72248
2991.20343	0.72493
2989.27487	0.72840
2987.34630	0.73311
2985.41774	0.73773
2983.48917	0.74196
2981.56061	0.74762
2979.63204	0.75445
2977.70348	0.76076
2975.77491	0.76625
2973.84635	0.77155
2971.91779	0.77797
2969.98922	0.78623
2968.06066	0.79476
2966.13209	0.80086
2964.20353	0.80424
2962.27496	0.80643
2960.34640	0.80666
2958.41783	0.80432
2956.48927	0.80053
2954.56071	0.79555
2952.63214	0.79005
2950.70358	0.78605
2948.77501	0.78481
2946.84645	0.78601
2944.91788	0.78987
2942.98932	0.79709
2941.06075	0.80612
2939.13219	0.81522
2937.20363	0.82466
2935.27506	0.83433
2933.34650	0.84412
2931.41793	0.85441
2929.48937	0.86366
2927.56080	0.87020
2925.63224	0.87510
2923.70367	0.88032
2921.77511	0.88634
2919.84655	0.89019
2917.91798	0.88650
2915.98942	0.87238
2914.06085	0.85121
2912.13229	0.83035
2910.20372	0.81352
2908.27516	0.79967
2906.34659	0.78817
2904.41803	0.77975
2902.48947	0.77438
2900.56090	0.77111
2898.63234	0.76867
2896.70377	0.76589
2894.77521	0.76271
2892.84664	0.75998
2890.91808	0.75819
2888.98952	0.75625
2887.06095	0.75260
2885.13239	0.74913
2883.20382	0.74804
2881.27526	0.74748
2879.34669	0.74609
2877.41813	0.74543
2875.48956	0.74557
2873.56100	0.74434
2871.63244	0.74057
2869.70387	0.73483
2867.77531	0.72839
2865.84674	0.72250
2863.91818	0.71845
2861.98961	0.71746
2860.06105	0.71915
2858.13248	0.72291
2856.20392	0.72955
2854.27536	0.73911
2852.34679	0.74885
2850.41823	0.75302
2848.48966	0.74519
2846.56110	0.72532
2844.63253	0.70245
2842.70397	0.68471
2840.77540	0.67233
2838.84684	0.66249
2836.91828	0.65482
2834.98971	0.64953
2833.06115	0.64486
2831.13258	0.63964
2829.20402	0.63482
2827.27545	0.63108
2825.34689	0.62791
2823.41832	0.62480
2821.48976	0.62170
2819.56120	0.61831
2817.63263	0.61465
2815.70407	0.61150
2813.77550	0.60913
2811.84694	0.60713
2809.91837	0.60522
2807.98981	0.60359
2806.06124	0.60214
2804.13268	0.60029
2802.20412	0.59818
2800.27555	0.59625
2798.34699	0.59432
2796.41842	0.59239
2794.48986	0.59096
2792.56129	0.58943
2790.63273	0.58727
2788.70416	0.58503
2786.77560	0.58270
2784.84704	0.58036
2782.91847	0.57858
2780.98991	0.57716
2779.06134	0.57553
2777.13278	0.57342
2775.20421	0.57095
2773.27565	0.56894
2771.34708	0.56766
2769.41852	0.56625
2767.48996	0.56463
2765.56139	0.56344
2763.63283	0.56291
2761.70426	0.56258
2759.77570	0.56176
2757.84713	0.56052
2755.91857	0.55929
2753.99001	0.55814
2752.06144	0.55692
2750.13288	0.55575
2748.20431	0.55483
2746.27575	0.55360
2744.34718	0.55171
2742.41862	0.54985
2740.49005	0.54831
2738.56149	0.54668
2736.63293	0.54492
2734.70436	0.54351
2732.77580	0.54280
2730.84723	0.54252
2728.91867	0.54197
2726.99010	0.54095
2725.06154	0.53985
2723.13297	0.53919
2721.20441	0.53878
2719.27585	0.53783
2717.34728	0.53612
2715.41872	0.53432
2713.49015	0.53303
2711.56159	0.53198
2709.63302	0.53079
2707.70446	0.52952
2705.77589	0.52818
2703.84733	0.52678
2701.91877	0.52529
2699.99020	0.52366
2698.06164	0.52203
2696.13307	0.52032
2694.20451	0.51851
2692.27594	0.51713
2690.34738	0.51632
2688.41881	0.51584
2686.49025	0.51525
2684.56169	0.51426
2682.63312	0.51322
2680.70456	0.51240
2678.77599	0.51184
2676.84743	0.51143
2674.91886	0.51063
2672.99030	0.50929
2671.06173	0.50802
2669.13317	0.50704
2667.20461	0.50557
2665.27604	0.50332
2663.34748	0.50130
2661.41891	0.50014
2659.49035	0.49921
2657.56178	0.49788
2655.63322	0.49665
2653.70465	0.49570
2651.77609	0.49429
2649.84753	0.49268
2647.91896	0.49174
2645.99040	0.49132
2644.06183	0.49085
2642.13327	0.49021
2640.20470	0.48958
2638.27614	0.48921
2636.34757	0.48916
2634.41901	0.48891
2632.49045	0.48818
2630.56188	0.48725
2628.63332	0.48621
2626.70475	0.48518
2624.77619	0.48458
2622.84762	0.48404
2620.91906	0.48282
2618.99049	0.48137
2617.06193	0.48023
2615.13337	0.47901
2613.20480	0.47757
2611.27624	0.47631
2609.34767	0.47533
2607.41911	0.47426
2605.49054	0.47321
2603.56198	0.47239
2601.63342	0.47128
2599.70485	0.46987
2597.77629	0.46900
2595.84772	0.46875
2593.91916	0.46844
2591.99059	0.46804
2590.06203	0.46779
2588.13346	0.46735
2586.20490	0.46667
2584.27634	0.46598
2582.34777	0.46511
2580.41921	0.46429
2578.49064	0.46378
2576.56208	0.46307
2574.63351	0.46175
2572.70495	0.46024
2570.77638	0.45899
2568.84782	0.45801
2566.91926	0.45698
2564.99069	0.45574
2563.06213	0.45429
2561.13356	0.45272
2559.20500	0.45125
2557.27643	0.45017
2555.34787	0.44941
2553.41930	0.44856
2551.49074	0.44731
2549.56218	0.44582
2547.63361	0.44471
2545.70505	0.44411
2543.77648	0.44346
2541.84792	0.44261
2539.91935	0.44172
2537.99079	0.44072
2536.06222	0.43967
2534.13366	0.43891
2532.20510	0.43838
2530.27653	0.43788
2528.34797	0.43735
2526.41940	0.43649
2524.49084	0.43522
2522.56227	0.43401
2520.63371	0.43296
2518.70514	0.43191
2516.77658	0.43071
2514.84802	0.42942
2512.91945	0.42824
2510.99089	0.42706
2509.06232	0.42577
2507.13376	0.42464
2505.20519	0.42382
2503.27663	0.42326
2501.34806	0.42276
2499.41950	0.42201
2497.49094	0.42112
2495.56237	0.42045
2493.63381	0.41963
2491.70524	0.41829
2489.77668	0.41684
2487.84811	0.41578
2485.91955	0.41477
2483.99098	0.41336
2482.06242	0.41203
2480.13386	0.41128
2478.20529	0.41094
2476.27673	0.41032
2474.34816	0.40906
2472.41960	0.40764
2470.49103	0.40645
2468.56247	0.40540
2466.63391	0.40462
2464.70534	0.40410
2462.77678	0.40374
2460.84821	0.40359
2458.91965	0.40327
2456.99108	0.40221
2455.06252	0.40091
2453.13395	0.40025
2451.20539	0.39999
2449.27683	0.39934
2447.34826	0.39843
2445.41970	0.39766
2443.49113	0.39687
2441.56257	0.39612
2439.63400	0.39543
2437.70544	0.39443
2435.77687	0.39325
2433.84831	0.39234
2431.91975	0.39164
2429.99118	0.39087
2428.06262	0.38984
2426.13405	0.38857
2424.20549	0.38716
2422.27692	0.38576
2420.34836	0.38461
2418.41979	0.38373
2416.49123	0.38313
2414.56267	0.38256
2412.63410	0.38165
2410.70554	0.38042
2408.77697	0.37905
2406.84841	0.37805
2404.91984	0.37778
2402.99128	0.37782
2401.06271	0.37765
2399.13415	0.37721
2397.20559	0.37677
2395.27702	0.37654
2393.34846	0.37629
2391.41989	0.37578
2389.49133	0.37539
2387.56276	0.37537
2385.63420	0.37543
2383.70563	0.37544
2381.77707	0.37569
2379.84851	0.37655
2377.91994	0.37795
2375.99138	0.37933
2374.06281	0.38071
2372.13425	0.38282
2370.20568	0.38497
2368.27712	0.38505
2366.34855	0.38324
2364.41999	0.38274
2362.49143	0.38492
2360.56286	0.38674
2358.63430	0.38498
2356.70573	0.38075
2354.77717	0.37676
2352.84860	0.37346
2350.92004	0.37082
2348.99147	0.36959
2347.06291	0.36992
2345.13435	0.37126
2343.20578	0.37249
2341.27722	0.37267
2339.34865	0.37196
2337.42009	0.37180
2335.49152	0.37273
2333.56296	0.37311
2331.63440	0.37175
2329.70583	0.36947
2327.77727	0.36707
2325.84870	0.36505
2323.92014	0.36346
2321.99157	0.36131
2320.06301	0.35852
2318.13444	0.35611
2316.20588	0.35453
2314.27732	0.35343
2312.34875	0.35233
2310.42019	0.35121
2308.49162	0.35016
2306.56306	0.34912
2304.63449	0.34816
2302.70593	0.34748
2300.77736	0.34706
2298.84880	0.34650
2296.92024	0.34563
2294.99167	0.34468
2293.06311	0.34378
2291.13454	0.34297
2289.20598	0.34229
2287.27741	0.34146
2285.34885	0.34041
2283.42028	0.33951
2281.49172	0.33871
2279.56316	0.33781
2277.63459	0.33706
2275.70603	0.33662
2273.77746	0.33610
2271.84890	0.33535
2269.92033	0.33465
2267.99177	0.33400
2266.06320	0.33342
2264.13464	0.33314
2262.20608	0.33310
2260.27751	0.33300
2258.34895	0.33273
2256.42038	0.33242
2254.49182	0.33226
2252.56325	0.33217
2250.63469	0.33199
2248.70612	0.33160
2246.77756	0.33094
2244.84900	0.33011
2242.92043	0.32934
2240.99187	0.32878
2239.06330	0.32826
2237.13474	0.32747
2235.20617	0.32645
2233.27761	0.32543
2231.34904	0.32446
2229.42048	0.32350
2227.49192	0.32265
2225.56335	0.32199
2223.63479	0.32148
2221.70622	0.32105
2219.77766	0.32080
2217.84909	0.32069
2215.92053	0.32049
2213.99196	0.32009
2212.06340	0.31960
2210.13484	0.31926
2208.20627	0.31911
2206.27771	0.31894
2204.34914	0.31868
2202.42058	0.31842
2200.49201	0.31810
2198.56345	0.31769
2196.63488	0.31734
2194.70632	0.31709
2192.77776	0.31680
2190.84919	0.31642
2188.92063	0.31602
2186.99206	0.31563
2185.06350	0.31523
2183.13493	0.31473
2181.20637	0.31418
2179.27781	0.31391
2177.34924	0.31400
2175.42068	0.31416
2173.49211	0.31435
2171.56355	0.31454
2169.63498	0.31462
2167.70642	0.31473
2165.77785	0.31494
2163.84929	0.31517
2161.92073	0.31539
2159.99216	0.31548
2158.06360	0.31529
2156.13503	0.31497
2154.20647	0.31465
2152.27790	0.31423
2150.34934	0.31373
2148.42077	0.31323
2146.49221	0.31271
2144.56365	0.31218
2142.63508	0.31166
2140.70652	0.31128
2138.77795	0.31122
2136.84939	0.31122
2134.92082	0.31090
2132.99226	0.31046
2131.06369	0.31019
2129.13513	0.31002
2127.20657	0.30989
2125.27800	0.30984
2123.34944	0.30968
2121.42087	0.30928
2119.49231	0.30886
2117.56374	0.30852
2115.63518	0.30809
2113.70661	0.30767
2111.77805	0.30741
2109.84949	0.30702
2107.92092	0.30638
2105.99236	0.30564
2104.06379	0.30487
2102.13523	0.30415
2100.20666	0.30353
2098.27810	0.30299
2096.34953	0.30255
2094.42097	0.30219
2092.49241	0.30190
2090.56384	0.30180
2088.63528	0.30166
2086.70671	0.30144
2084.77815	0.30147
2082.84958	0.30165
2080.92102	0.30163
2078.99245	0.30151
2077.06389	0.30140
2075.13533	0.30127
2073.20676	0.30116
2071.27820	0.30109
2069.34963	0.30085
2067.42107	0.30036
2065.49250	0.29979
2063.56394	0.29921
2061.63537	0.29855
2059.70681	0.29804
2057.77825	0.29780
2055.84968	0.29757
2053.92112	0.29714
2051.99255	0.29668
2050.06399	0.29642
2048.13542	0.29636
2046.20686	0.29639
2044.27830	0.29630
2042.34973	0.29600
2040.42117	0.29575
2038.49260	0.29588
2036.56404	0.29614
2034.63547	0.29621
2032.70691	0.29615
2030.77834	0.29611
2028.84978	0.29610
2026.92122	0.29618
2024.99265	0.29619
2023.06409	0.29578
2021.13552	0.29508
2019.20696	0.29461
2017.27839	0.29437
2015.34983	0.29417
2013.42126	0.29406
2011.49270	0.29385
2009.56414	0.29343
2007.63557	0.29316
2005.70701	0.29326
2003.77844	0.29346
2001.84988	0.29341
1999.92131	0.29310
1997.99275	0.29256
1996.06418	0.29189
1994.13562	0.29137
1992.20706	0.29099
1990.27849	0.29042
1988.34993	0.28974
1986.42136	0.28916
1984.49280	0.28858
1982.56423	0.28797
1980.63567	0.28744
1978.70710	0.28704
1976.77854	0.28665
1974.84998	0.28620
1972.92141	0.28578
1970.99285	0.28555
1969.06428	0.28539
1967.13572	0.28521
1965.20715	0.28522
1963.27859	0.28550
1961.35002	0.28585
1959.42146	0.28610
1957.49290	0.28626
1955.56433	0.28635
1953.63577	0.28628
1951.70720	0.28616
1949.77864	0.28613
1947.85007	0.28597
1945.92151	0.28552
1943.99294	0.28501
1942.06438	0.28465
1940.13582	0.28441
1938.20725	0.28412
1936.27869	0.28365
1934.35012	0.28307
1932.42156	0.28258
1930.49299	0.28219
1928.56443	0.28188
1926.63586	0.28178
1924.70730	0.28184
1922.77874	0.28190
1920.85017	0.28197
1918.92161	0.28219
1916.99304	0.28265
1915.06448	0.28311
1913.13591	0.28346
1911.20735	0.28369
1909.27878	0.28367
1907.35022	0.28339
1905.42166	0.28298
1903.49309	0.28247
1901.56453	0.28193
1899.63596	0.28134
1897.70740	0.28064
1895.77883	0.27983
1893.85027	0.27910
1891.92171	0.27858
1889.99314	0.27806
1888.06458	0.27752
1886.13601	0.27723
1884.20745	0.27715
1882.27888	0.27713
1880.35032	0.27706
1878.42175	0.27693
1876.49319	0.27686
1874.56463	0.27688
1872.63606	0.27705
1870.70750	0.27728
1868.77893	0.27727
1866.85037	0.27690
1864.92180	0.27647
1862.99324	0.27597
1861.06467	0.27527
1859.13611	0.27453
1857.20755	0.27386
1855.27898	0.27326
1853.35042	0.27266
1851.42185	0.27202
1849.49329	0.27139
1847.56472	0.27091
1845.63616	0.27055
1843.70759	0.27020
1841.77903	0.27006
1839.85047	0.27005
1837.92190	0.26994
1835.99334	0.26982
1834.06477	0.26991
1832.13621	0.27011
1830.20764	0.27021
1828.27908	0.27017
1826.35051	0.26999
1824.42195	0.26983
1822.49339	0.26978
1820.56482	0.26957
1818.63626	0.26911
1816.70769	0.26859
1814.77913	0.26817
1812.85056	0.26775
1810.92200	0.26717
1808.99343	0.26650
1807.06487	0.26600
1805.13631	0.26588
1803.20774	0.26586
1801.27918	0.26569
1799.35061	0.26555
1797.42205	0.26565
1795.49348	0.26593
1793.56492	0.26645
1791.63635	0.26728
1789.70779	0.26784
1787.77923	0.26803
1785.85066	0.26793
1783.92210	0.26780
1781.99353	0.26795
1780.06497	0.26794
1778.13640	0.26754
1776.20784	0.26701
1774.27927	0.26655
1772.35071	0.26615
1770.42215	0.26596
1768.49358	0.26593
1766.56502	0.26576
1764.63645	0.26586
1762.70789	0.26678
1760.77932	0.26854
1758.85076	0.27055
1756.92220	0.27351
1754.99363	0.27748
1753.06507	0.28193
1751.13650	0.28813
1749.20794	0.29614
1747.27937	0.30346
1745.35081	0.30965
1743.42224	0.31532
1741.49368	0.32048
1739.56512	0.32481
1737.63655	0.32786
1735.70799	0.33002
1733.77942	0.33214
1731.85086	0.33342
1729.92229	0.33459
1727.99373	0.33645
1726.06516	0.33889
1724.13660	0.34242
1722.20804	0.34653
1720.27947	0.35081
1718.35091	0.35748
1716.42234	0.36819
1714.49378	0.37707
1712.56521	0.38452
1710.63665	0.39363
1708.70808	0.40482
1706.77952	0.42126
1704.85096	0.44374
1702.92239	0.46538
1700.99383	0.49617
1699.06526	0.54466
1697.13670	0.59102
1695.20813	0.63655
1693.27957	0.67116
1691.35100	0.69961
1689.42244	0.73415
1687.49388	0.76667
1685.56531	0.79973
1683.63675	0.85248
1681.70818	0.89428
1679.77962	0.91958
1677.85105	0.94232
1675.92249	0.96864
1673.99392	0.99747
1672.06536	1.02029
1670.13680	1.04531
1668.20823	1.07365
1666.27967	1.09041
1664.35110	1.10451
1662.42254	1.12450
1660.49397	1.14201
1658.56541	1.15167
1656.63684	1.15667
1654.70828	1.16099
1652.77972	1.16678
1650.85115	1.17030
1648.92259	1.17130
1646.99402	1.16899
1645.06546	1.16726
1643.13689	1.16756
1641.20833	1.16737
1639.27976	1.16577
1637.35120	1.16464
1635.42264	1.16459
1633.49407	1.16195
1631.56551	1.15738
1629.63694	1.15150
1627.70838	1.14451
1625.77981	1.13455
1623.85125	1.11709
1621.92269	1.09455
1619.99412	1.07643
1618.06556	1.05434
1616.13699	1.01783
1614.20843	0.98737
1612.27986	0.96504
1610.35130	0.94136
1608.42273	0.91675
1606.49417	0.89618
1604.56561	0.88033
1602.63704	0.86710
1600.70848	0.85719
1598.77991	0.85108
1596.85135	0.84708
1594.92278	0.84386
1592.99422	0.84151
1591.06565	0.84066
1589.13709	0.84245
1587.20853	0.84753
1585.27996	0.85510
1583.35140	0.86451
1581.42283	0.87477
1579.49427	0.88486
1577.56570	0.89829
1575.63714	0.91884
1573.70857	0.93414
1571.78001	0.94432
1569.85145	0.95944
1567.92288	0.97791
1565.99432	0.99398
1564.06575	1.00928
1562.13719	1.02105
1560.20862	1.03324
1558.28006	1.05771
1556.35149	1.07188
1554.42293	1.07719
1552.49437	1.08075
1550.56580	1.08391
1548.63724	1.08603
1546.70867	1.08663
1544.78011	1.08703
1542.85154	1.08692
1540.92298	1.07848
1538.99441	1.06286
1537.06585	1.05641
1535.13729	1.05145
1533.20872	1.04324
1531.28016	1.03629
1529.35159	1.03281
1527.42303	1.02894
1525.49446	1.02220
1523.56590	1.01521
1521.63733	1.01173
1519.70877	1.01219
1517.78021	1.00894
1515.85164	0.99965
1513.92308	0.98680
1511.99451	0.97146
1510.06595	0.95585
1508.13738	0.93273
1506.20882	0.89246
1504.28025	0.87014
1502.35169	0.85589
1500.42313	0.83907
1498.49456	0.81712
1496.56600	0.79097
1494.63743	0.77132
1492.70887	0.75866
1490.78030	0.74372
1488.85174	0.72358
1486.92317	0.70878
1484.99461	0.69999
1483.06605	0.69375
1481.13748	0.68948
1479.20892	0.68836
1477.28035	0.69160
1475.35179	0.69961
1473.42322	0.71399
1471.49466	0.73098
1469.56610	0.74193
1467.63753	0.74989
1465.70897	0.75926
1463.78040	0.76899
1461.85184	0.77505
1459.92327	0.77882
1457.99471	0.78516
1456.06614	0.79572
1454.13758	0.80158
1452.20902	0.80339
1450.28045	0.80297
1448.35189	0.80137
1446.42332	0.79958
1444.49476	0.79719
1442.56619	0.79350
1440.63763	0.78908
1438.70906	0.78376
1436.78050	0.77537
1434.85194	0.76563
1432.92337	0.75756
1430.99481	0.74951
1429.06624	0.74173
1427.13768	0.73624
1425.20911	0.73284
1423.28055	0.73084
1421.35198	0.72986
1419.42342	0.72994
1417.49486	0.73079
1415.56629	0.73106
1413.63773	0.73057
1411.70916	0.72944
1409.78060	0.72828
1407.85203	0.72798
1405.92347	0.72859
1403.99490	0.72950
1402.06634	0.73057
1400.13778	0.73242
1398.20921	0.73466
1396.28065	0.73670
1394.35208	0.73911
1392.42352	0.74230
1390.49495	0.74708
1388.56639	0.75524
1386.63782	0.76714
1384.70926	0.77953
1382.78070	0.79087
1380.85213	0.79999
1378.92357	0.80464
1376.99500	0.80361
1375.06644	0.79550
1373.13787	0.78171
1371.20931	0.76705
1369.28074	0.75095
1367.35218	0.73313
1365.42362	0.71639
1363.49505	0.70016
1361.56649	0.68595
1359.63792	0.67704
1357.70936	0.67121
1355.78079	0.66643
1353.85223	0.66310
1351.92366	0.66142
1349.99510	0.66047
1348.06654	0.65957
1346.13797	0.65894
1344.20941	0.65906
1342.28084	0.65968
1340.35228	0.66049
1338.42371	0.66197
1336.49515	0.66523
1334.56659	0.67071
1332.63802	0.67785
1330.70946	0.68552
1328.78089	0.69232
1326.85233	0.69711
1324.92376	0.69967
1322.99520	0.70096
1321.06663	0.70233
1319.13807	0.70420
1317.20951	0.70619
1315.28094	0.70804
1313.35238	0.70969
1311.42381	0.71088
1309.49525	0.71154
1307.56668	0.71143
1305.63812	0.71022
1303.70955	0.70838
1301.78099	0.70606
1299.85243	0.70282
1297.92386	0.69878
1295.99530	0.69480
1294.06673	0.69161
1292.13817	0.68966
1290.20960	0.68939
1288.28104	0.69011
1286.35247	0.69054
1284.42391	0.69062
1282.49535	0.69072
1280.56678	0.69106
1278.63822	0.69216
1276.70965	0.69399
1274.78109	0.69636
1272.85252	0.69979
1270.92396	0.70457
1268.99539	0.71039
1267.06683	0.71675
1265.13827	0.72284
1263.20970	0.72752
1261.28114	0.73035
1259.35257	0.73178
1257.42401	0.73267
1255.49544	0.73384
1253.56688	0.73545
1251.63831	0.73684
1249.70975	0.73789
1247.78119	0.73898
1245.85262	0.74005
1243.92406	0.74102
1241.99549	0.74158
1240.06693	0.74107
1238.13836	0.73926
1236.20980	0.73629
1234.28123	0.73223
1232.35267	0.72723
1230.42411	0.72121
1228.49554	0.71420
1226.56698	0.70666
1224.63841	0.69900
1222.70985	0.69107
1220.78128	0.68287
1218.85272	0.67530
1216.92415	0.66930
1214.99559	0.66505
1213.06703	0.66266
1211.13846	0.66241
1209.20990	0.66339
1207.28133	0.66365
1205.35277	0.66156
1203.42420	0.65616
1201.49564	0.64777
1199.56708	0.63796
1197.63851	0.62785
1195.70995	0.61760
1193.78138	0.60764
1191.85282	0.59898
1189.92425	0.59206
1187.99569	0.58657
1186.06712	0.58237
1184.13856	0.57976
1182.21000	0.57901
1180.28143	0.58037
1178.35287	0.58452
1176.42430	0.59152
1174.49574	0.60049
1172.56717	0.61094
1170.63861	0.62330
1168.71004	0.63812
1166.78148	0.65505
1164.85292	0.67312
1162.92435	0.69059
1160.99579	0.70492
1159.06722	0.71363
1157.13866	0.71551
1155.21009	0.71098
1153.28153	0.70120
1151.35296	0.68789
1149.42440	0.67344
1147.49584	0.65952
1145.56727	0.64676
1143.63871	0.63602
1141.71014	0.62871
1139.78158	0.62551
1137.85301	0.62560
1135.92445	0.62824
1133.99588	0.63362
1132.06732	0.64208
1130.13876	0.65391
1128.21019	0.66903
1126.28163	0.68566
1124.35306	0.70140
1122.42450	0.71606
1120.49593	0.73040
1118.56737	0.74315
1116.63880	0.75253
1114.71024	0.75793
1112.78168	0.75943
1110.85311	0.75794
1108.92455	0.75490
1106.99598	0.75151
1105.06742	0.74864
1103.13885	0.74661
1101.21029	0.74548
1099.28172	0.74609
1097.35316	0.74854
1095.42460	0.75227
1093.49603	0.75864
1091.56747	0.76928
1089.63890	0.78318
1087.71034	0.79856
1085.78177	0.81527
1083.85321	0.83309
1081.92464	0.84971
1079.99608	0.86263
1078.06752	0.87059
1076.13895	0.87270
1074.21039	0.86874
1072.28182	0.86113
1070.35326	0.85223
1068.42469	0.84152
1066.49613	0.82930
1064.56756	0.81735
1062.63900	0.80541
1060.71044	0.79317
1058.78187	0.78161
1056.85331	0.77078
1054.92474	0.76045
1052.99618	0.75160
1051.06761	0.74513
1049.13905	0.74082
1047.21049	0.73871
1045.28192	0.73983
1043.35336	0.74474
1041.42479	0.75191
1039.49623	0.75859
1037.56766	0.76358
1035.63910	0.76770
1033.71053	0.77114
1031.78197	0.77243
1029.85341	0.77024
1027.92484	0.76492
1025.99628	0.75746
1024.06771	0.74838
1022.13915	0.73911
1020.21058	0.73140
1018.28202	0.72462
1016.35345	0.71626
1014.42489	0.70505
1012.49633	0.69104
1010.56776	0.67411
1008.63920	0.65454
1006.71063	0.63376
1004.78207	0.61350
1002.85350	0.59487
1000.92494	0.57877
998.99637	0.56597
997.06781	0.55633
995.13925	0.54890
993.21068	0.54252
991.28212	0.53605
989.35355	0.52904
987.42499	0.52219
985.49642	0.51632
983.56786	0.51175
981.63929	0.50872
979.71073	0.50736
977.78217	0.50669
975.85360	0.50522
973.92504	0.50223
971.99647	0.49790
970.06791	0.49273
968.13934	0.48701
966.21078	0.48140
964.28221	0.47747
962.35365	0.47672
960.42509	0.48002
958.49652	0.48715
956.56796	0.49517
954.63939	0.49949
952.71083	0.49792
950.78226	0.49168
948.85370	0.48342
946.92513	0.47532
944.99657	0.46852
943.06801	0.46341
941.13944	0.45976
939.21088	0.45708
937.28231	0.45486
935.35375	0.45284
933.42518	0.45112
931.49662	0.44995
929.56805	0.44949
927.63949	0.44936
925.71093	0.44905
923.78236	0.44878
921.85380	0.44864
919.92523	0.44784
917.99667	0.44591
916.06810	0.44359
914.13954	0.44170
912.21098	0.44048
910.28241	0.44004
908.35385	0.44036
906.42528	0.44158
904.49672	0.44382
902.56815	0.44685
900.63959	0.45031
898.71102	0.45360
896.78246	0.45600
894.85390	0.45729
892.92533	0.45786
890.99677	0.45831
889.06820	0.45883
887.13964	0.45934
885.21107	0.46001
883.28251	0.46096
881.35394	0.46181
879.42538	0.46208
877.49682	0.46196
875.56825	0.46189
873.63969	0.46176
871.71112	0.46112
869.78256	0.45969
867.85399	0.45766
865.92543	0.45550
863.99686	0.45347
862.06830	0.45199
860.13974	0.45173
858.21117	0.45268
856.28261	0.45429
854.35404	0.45640
852.42548	0.45889
850.49691	0.46154
848.56835	0.46465
846.63978	0.46856
844.71122	0.47323
842.78266	0.47867
840.85409	0.48485
838.92553	0.49122
836.99696	0.49689
835.06840	0.50171
833.13983	0.50616
831.21127	0.50971
829.28270	0.51177
827.35414	0.51294
825.42558	0.51358
823.49701	0.51340
821.56845	0.51252
819.63988	0.51127
817.71132	0.51002
815.78275	0.50932
813.85419	0.50908
811.92562	0.50870
809.99706	0.50820
808.06850	0.50843
806.13993	0.50960
804.21137	0.51068
802.28280	0.51100
800.35424	0.51088
798.42567	0.51086
796.49711	0.51108
794.56854	0.51114
792.63998	0.51093
790.71142	0.51101
788.78285	0.51147
786.85429	0.51183
784.92572	0.51218
782.99716	0.51294
781.06859	0.51423
779.14003	0.51586
777.21147	0.51729
775.28290	0.51875
773.35434	0.52133
771.42577	0.52517
769.49721	0.52968
767.56864	0.53455
765.64008	0.53938
763.71151	0.54419
761.78295	0.54948
759.85439	0.55545
757.92582	0.56177
755.99726	0.56816
754.06869	0.57475
752.14013	0.58066
750.21156	0.58467
748.28300	0.58727
746.35443	0.58902
744.42587	0.58960
742.49731	0.58932
740.56874	0.58805
738.64018	0.58520
736.71161	0.58164
734.78305	0.57861
732.85448	0.57658
730.92592	0.57559
728.99735	0.57541
727.06879	0.57549
725.14023	0.57548
723.21166	0.57599
721.28310	0.57828
719.35453	0.58215
717.42597	0.58512
715.49740	0.58667
713.56884	0.58860
711.64027	0.59136
709.71171	0.59469
707.78315	0.59849
705.85458	0.60172
703.92602	0.60377
701.99745	0.60509
700.06889	0.60557
698.14032	0.60476
696.21176	0.60361
694.28319	0.60288
692.35463	0.60206
690.42607	0.60169
688.49750	0.60206
686.56894	0.60218
684.64037	0.60168
682.71181	0.60101
680.78324	0.60090
678.85468	0.60156
676.92611	0.60223
674.99755	0.60245
673.06899	0.60311
671.14042	0.60479
669.21186	0.60544
667.28329	0.60095
665.35473	0.59541
663.42616	0.59124
661.49760	0.58721
659.56903	0.58264
657.64047	0.57701
655.71191	0.57049
653.78334	0.56390
651.85478	0.55820
649.92621	0.55357
647.99765	0.54977
646.06908	0.54795
644.14052	0.54921
642.21195	0.55317
640.28339	0.55877
638.35483	0.56489
636.42626	0.57124
634.49770	0.57842
632.56913	0.58606
630.64057	0.59317
628.71200	0.59952
626.78344	0.60471
624.85488	0.60861
622.92631	0.61302
620.99775	0.61817
619.06918	0.62153
617.14062	0.62191
615.21205	0.62006
613.28349	0.61665
611.35492	0.61194
609.42636	0.60692
607.49780	0.60248
605.56923	0.59784
603.64067	0.59232
601.71210	0.58769
599.78354	0.58519
