3997.91406	0.27959
3995.98550	0.27866
3994.05693	0.27781
3992.12837	0.27763
3990.19980	0.27775
3988.27124	0.27686
3986.34268	0.27535
3984.41411	0.27519
3982.48555	0.27587
3980.55698	0.27542
3978.62842	0.27477
3976.69985	0.27562
3974.77129	0.27620
3972.84272	0.27476
3970.91416	0.27325
3968.98560	0.27310
3967.05703	0.27304
3965.12847	0.27234
3963.19990	0.27194
3961.27134	0.27175
3959.34277	0.27088
3957.41421	0.27000
3955.48564	0.27004
3953.55708	0.27057
3951.62852	0.27124
3949.69995	0.27205
3947.77139	0.27166
3945.84282	0.26956
3943.91426	0.26794
3941.98569	0.26799
3940.05713	0.26843
3938.12856	0.26883
3936.20000	0.26940
3934.27144	0.26984
3932.34287	0.27030
3930.41431	0.27023
3928.48574	0.26923
3926.55718	0.26892
3924.62861	0.27011
3922.70005	0.27131
3920.77148	0.27203
3918.84292	0.27249
3916.91436	0.27161
3914.98579	0.26970
3913.05723	0.26813
3911.12866	0.26697
3909.20010	0.26610
3907.27153	0.26579
3905.34297	0.26631
3903.41440	0.26708
3901.48584	0.26738
3899.55728	0.26707
3897.62871	0.26587
3895.70015	0.26466
3893.77158	0.26443
3891.84302	0.26489
3889.91445	0.26395
3887.98589	0.26198
3886.05733	0.26150
3884.12876	0.26260
3882.20020	0.26274
3880.27163	0.26169
3878.34307	0.26013
3876.41450	0.25910
3874.48594	0.25931
3872.55737	0.25972
3870.62881	0.25925
3868.70025	0.25885
3866.77168	0.25945
3864.84312	0.26072
3862.91455	0.26068
3860.98599	0.25929
3859.05742	0.25821
3857.12886	0.25762
3855.20029	0.25827
3853.27173	0.26018
3851.34317	0.25842
3849.41460	0.25515
3847.48604	0.25235
3845.55747	0.24997
3843.62891	0.24833
3841.70034	0.24824
3839.77178	0.24992
3837.84321	0.25090
3835.91465	0.24860
3833.98609	0.24573
3832.05752	0.24451
3830.12896	0.24425
3828.20039	0.24409
3826.27183	0.24399
3824.34326	0.24387
3822.41470	0.24441
3820.48613	0.24525
3818.55757	0.24455
3816.62901	0.24329
3814.70044	0.24186
3812.77188	0.24050
3810.84331	0.23989
3808.91475	0.24058
3806.98618	0.24238
3805.05762	0.24347
3803.12905	0.24408
3801.20049	0.24438
3799.27193	0.24265
3797.34336	0.24044
3795.41480	0.23894
3793.48623	0.23820
3791.55767	0.23771
3789.62910	0.23656
3787.70054	0.23523
3785.77197	0.23501
3783.84341	0.23553
3781.91485	0.23607
3779.98628	0.23662
3778.05772	0.23639
3776.12915	0.23542
3774.20059	0.23460
3772.27202	0.23412
3770.34346	0.23406
3768.41489	0.23428
3766.48633	0.23459
3764.55777	0.23499
3762.62920	0.23483
3760.70064	0.23447
3758.77207	0.23523
3756.84351	0.23635
3754.91494	0.23686
3752.98638	0.23787
3751.05781	0.24017
3749.12925	0.24000
3747.20069	0.23862
3745.27212	0.24022
3743.34356	0.24223
3741.41499	0.24129
3739.48643	0.23995
3737.55786	0.24007
3735.62930	0.24130
3733.70074	0.24065
3731.77217	0.23883
3729.84361	0.23778
3727.91504	0.23783
3725.98648	0.23834
3724.05791	0.23778
3722.12935	0.23664
3720.20078	0.23644
3718.27222	0.23655
3716.34366	0.23581
3714.41509	0.23466
3712.48653	0.23430
3710.55796	0.23582
3708.62940	0.23778
3706.70083	0.23841
3704.77227	0.23817
3702.84370	0.23826
3700.91514	0.23844
3698.98658	0.23825
3697.05801	0.23844
3695.12945	0.23878
3693.20088	0.23931
3691.27232	0.24123
3689.34375	0.24472
3687.41519	0.24662
3685.48662	0.24623
3683.55806	0.24520
3681.62950	0.24498
3679.70093	0.24634
3677.77237	0.24923
3675.84380	0.25445
3673.91524	0.25880
3671.98667	0.26044
3670.05811	0.26302
3668.12954	0.26580
3666.20098	0.26722
3664.27242	0.26896
3662.34385	0.27203
3660.41529	0.27585
3658.48672	0.27981
3656.55816	0.28505
3654.62959	0.28952
3652.70103	0.29198
3650.77246	0.29768
3648.84390	0.30972
3646.91534	0.31514
3644.98677	0.31541
3643.05821	0.31671
3641.12964	0.32024
3639.20108	0.32533
3637.27251	0.33085
3635.34395	0.33604
3633.41538	0.34056
3631.48682	0.34529
3629.55826	0.35422
3627.62969	0.36416
3625.70113	0.36820
3623.77256	0.37100
3621.84400	0.37497
3619.91543	0.38147
3617.98687	0.38939
3616.05830	0.39606
3614.12974	0.40267
3612.20118	0.40846
3610.27261	0.41331
3608.34405	0.42085
3606.41548	0.42960
3604.48692	0.43542
3602.55835	0.44079
3600.62979	0.44820
3598.70123	0.45564
3596.77266	0.46184
3594.84410	0.46908
3592.91553	0.47671
3590.98697	0.48268
3589.05840	0.49050
3587.12984	0.50138
3585.20127	0.50808
3583.27271	0.51161
3581.34415	0.51618
3579.41558	0.52227
3577.48702	0.52889
3575.55845	0.53645
3573.62989	0.54523
3571.70132	0.55385
3569.77276	0.56141
3567.84419	0.57084
3565.91563	0.58266
3563.98707	0.59057
3562.05850	0.59673
3560.12994	0.60333
3558.20137	0.60960
3556.27281	0.61625
3554.34424	0.62442
3552.41568	0.63323
3550.48711	0.64027
3548.55855	0.64666
3546.62999	0.65519
3544.70142	0.66457
3542.77286	0.67181
3540.84429	0.67863
3538.91573	0.68732
3536.98716	0.69683
3535.05860	0.70486
3533.13003	0.71041
3531.20147	0.71534
3529.27291	0.72303
3527.34434	0.73378
3525.41578	0.74355
3523.48721	0.75095
3521.55865	0.75898
3519.63008	0.76804
3517.70152	0.77731
3515.77295	0.78730
3513.84439	0.79639
3511.91583	0.80301
3509.98726	0.81027
3508.05870	0.82067
3506.13013	0.83239
3504.20157	0.84640
3502.27300	0.86174
3500.34444	0.87328
3498.41587	0.88203
3496.48731	0.89149
3494.55875	0.90157
3492.63018	0.90998
3490.70162	0.91791
3488.77305	0.92713
3486.84449	0.93462
3484.91592	0.93830
3482.98736	0.94170
3481.05879	0.94692
3479.13023	0.95028
3477.20167	0.95193
3475.27310	0.95682
3473.34454	0.96334
3471.41597	0.96722
3469.48741	0.97211
3467.55884	0.98043
3465.63028	0.98760
3463.70171	0.99273
3461.77315	0.99875
3459.84459	1.00416
3457.91602	1.00641
3455.98746	1.00844
3454.05889	1.01371
3452.13033	1.01999
3450.20176	1.02512
3448.27320	1.02997
3446.34464	1.03232
3444.41607	1.03136
3442.48751	1.03244
3440.55894	1.03676
3438.63038	1.04146
3436.70181	1.04547
3434.77325	1.04804
3432.84468	1.04971
3430.91612	1.05013
3428.98756	1.04784
3427.05899	1.04415
3425.13043	1.04216
3423.20186	1.04384
3421.27330	1.04767
3419.34473	1.05110
3417.41617	1.05363
3415.48760	1.05513
3413.55904	1.05681
3411.63048	1.06088
3409.70191	1.06519
3407.77335	1.06572
3405.84478	1.06326
3403.91622	1.06142
3401.98765	1.06273
3400.05909	1.06659
3398.13052	1.07022
3396.20196	1.07149
3394.27340	1.07132
3392.34483	1.07273
3390.41627	1.07471
3388.48770	1.07525
3386.55914	1.07682
3384.63057	1.08037
3382.70201	1.08252
3380.77344	1.08311
3378.84488	1.08559
3376.91632	1.08953
3374.98775	1.09189
3373.05919	1.09066
3371.13062	1.08727
3369.20206	1.08702
3367.27349	1.09093
3365.34493	1.09481
3363.41636	1.09624
3361.48780	1.09620
3359.55924	1.09795
3357.63067	1.10160
3355.70211	1.10393
3353.77354	1.10651
3351.84498	1.11093
3349.91641	1.11357
3347.98785	1.11377
3346.05928	1.11461
3344.13072	1.11729
3342.20216	1.12064
3340.27359	1.12234
3338.34503	1.12229
3336.41646	1.12416
3334.48790	1.13079
3332.55933	1.13944
3330.63077	1.14419
3328.70220	1.14266
3326.77364	1.13908
3324.84508	1.13861
3322.91651	1.14253
3320.98795	1.14905
3319.05938	1.15305
3317.13082	1.15461
3315.20225	1.15949
3313.27369	1.16480
3311.34513	1.16720
3309.41656	1.17002
3307.48800	1.17214
3305.55943	1.17334
3303.63087	1.17479
3301.70230	1.17352
3299.77374	1.17248
3297.84517	1.17714
3295.91661	1.18199
3293.98805	1.17868
3292.05948	1.17186
3290.13092	1.17077
3288.20235	1.17385
3286.27379	1.17382
3284.34522	1.17032
3282.41666	1.16838
3280.48809	1.16895
3278.55953	1.16961
3276.63097	1.16921
3274.70240	1.16644
3272.77384	1.16077
3270.84527	1.15479
3268.91671	1.15088
3266.98814	1.14875
3265.05958	1.14661
3263.13101	1.14253
3261.20245	1.13773
3259.27389	1.13413
3257.34532	1.12951
3255.41676	1.12054
3253.48819	1.10903
3251.55963	1.10023
3249.63106	1.09418
3247.70250	1.08725
3245.77393	1.07885
3243.84537	1.07091
3241.91681	1.06436
3239.98824	1.05849
3238.05968	1.05344
3236.13111	1.04879
3234.20255	1.04430
3232.27398	1.04071
3230.34542	1.03664
3228.41685	1.03120
3226.48829	1.02522
3224.55973	1.02074
3222.63116	1.01785
3220.70260	1.01278
3218.77403	1.00715
3216.84547	1.00517
3214.91690	1.00365
3212.98834	0.99869
3211.05977	0.99251
3209.13121	0.98828
3207.20265	0.98492
3205.27408	0.97944
3203.34552	0.97283
3201.41695	0.96859
3199.48839	0.96596
3197.55982	0.96170
3195.63126	0.95653
3193.70269	0.95354
3191.77413	0.95225
3189.84557	0.94875
3187.91700	0.94249
3185.98844	0.93615
3184.05987	0.93049
3182.13131	0.92480
3180.20274	0.91889
3178.27418	0.91409
3176.34562	0.91114
3174.41705	0.90811
3172.48849	0.90378
3170.55992	0.89931
3168.63136	0.89571
3166.70279	0.89199
3164.77423	0.88740
3162.84566	0.88324
3160.91710	0.87921
3158.98854	0.87366
3157.05997	0.86768
3155.13141	0.86370
3153.20284	0.86203
3151.27428	0.86115
3149.34571	0.85938
3147.41715	0.85651
3145.48858	0.85367
3143.56002	0.85037
3141.63146	0.84648
3139.70289	0.84433
3137.77433	0.84410
3135.84576	0.84385
3133.91720	0.84313
3131.98863	0.84178
3130.06007	0.83974
3128.13150	0.83838
3126.20294	0.83849
3124.27438	0.83927
3122.34581	0.83932
3120.41725	0.83764
3118.48868	0.83548
3116.56012	0.83426
3114.63155	0.83427
3112.70299	0.83563
3110.77442	0.83680
3108.84586	0.83718
3106.91730	0.83789
3104.98873	0.83837
3103.06017	0.83791
3101.13160	0.83701
3099.20304	0.83615
3097.27447	0.83554
3095.34591	0.83527
3093.41734	0.83500
3091.48878	0.83370
3089.56022	0.83098
3087.63165	0.82784
3085.70309	0.82617
3083.77452	0.82618
3081.84596	0.82460
3079.91739	0.81981
3077.98883	0.81559
3076.06026	0.81433
3074.13170	0.81335
3072.20314	0.81059
3070.27457	0.80704
3068.34601	0.80359
3066.41744	0.80024
3064.48888	0.79719
3062.56031	0.79436
3060.63175	0.79100
3058.70318	0.78710
3056.77462	0.78327
3054.84606	0.77930
3052.91749	0.77468
3050.98893	0.76914
3049.06036	0.76299
3047.13180	0.75711
3045.20323	0.75248
3043.27467	0.74979
3041.34610	0.74759
3039.41754	0.74351
3037.48898	0.73789
3035.56041	0.73237
3033.63185	0.72771
3031.70328	0.72390
3029.77472	0.72037
3027.84615	0.71641
3025.91759	0.71224
3023.98903	0.70874
3022.06046	0.70578
3020.13190	0.70251
3018.20333	0.69973
3016.27477	0.69838
3014.34620	0.69718
3012.41764	0.69504
3010.48907	0.69283
3008.56051	0.69088
3006.63195	0.68859
3004.70338	0.68641
3002.77482	0.68507
3000.84625	0.68455
2998.91769	0.68511
2996.98912	0.68693
2995.06056	0.68969
2993.13199	0.69339
2991.20343	0.69793
2989.27487	0.70300
2987.34630	0.70834
2985.41774	0.71408
2983.48917	0.72148
2981.56061	0.73085
2979.63204	0.74034
2977.70348	0.74912
2975.77491	0.75820
2973.84635	0.76751
2971.91779	0.77672
2969.98922	0.78670
2968.06066	0.79679
2966.13209	0.80538
2964.20353	0.81268
2962.27496	0.81812
2960.34640	0.81892
2958.41783	0.81489
2956.48927	0.80942
2954.56071	0.80483
2952.63214	0.80115
2950.70358	0.79814
2948.77501	0.79576
2946.84645	0.79539
2944.91788	0.79968
2942.98932	0.80871
2941.06075	0.81946
2939.13219	0.82979
2937.20363	0.83991
2935.27506	0.85090
2933.34650	0.86242
2931.41793	0.87234
2929.48937	0.87975
2927.56080	0.88523
2925.63224	0.88886
2923.70367	0.89137
2921.77511	0.89332
2919.84655	0.89169
2917.91798	0.88299
2915.98942	0.86691
2914.06085	0.84524
2912.13229	0.82204
2910.20372	0.80133
2908.27516	0.78460
2906.34659	0.77155
2904.41803	0.76122
2902.48947	0.75301
2900.56090	0.74646
2898.63234	0.74087
2896.70377	0.73601
2894.77521	0.73146
2892.84664	0.72653
2890.91808	0.72164
2888.98952	0.71802
2887.06095	0.71562
2885.13239	0.71354
2883.20382	0.71223
2881.27526	0.71239
2879.34669	0.71344
2877.41813	0.71417
2875.48956	0.71407
2873.56100	0.71299
2871.63244	0.70952
2869.70387	0.70238
2867.77531	0.69323
2865.84674	0.68571
2863.91818	0.68178
2861.98961	0.68061
2860.06105	0.68130
2858.13248	0.68421
2856.20392	0.68986
2854.27536	0.69780
2852.34679	0.70528
2850.41823	0.70607
2848.48966	0.69276
2846.56110	0.66631
2844.63253	0.63765
2842.70397	0.61523
2840.77540	0.59941
2838.84684	0.58751
2836.91828	0.57819
2834.98971	0.57100
2833.06115	0.56499
2831.13258	0.55961
2829.20402	0.55494
2827.27545	0.55050
2825.34689	0.54607
2823.41832	0.54220
2821.48976	0.53902
2819.56120	0.53625
2817.63263	0.53383
2815.70407	0.53156
2813.77550	0.52891
2811.84694	0.52593
2809.91837	0.52315
2807.98981	0.52056
2806.06124	0.51738
2804.13268	0.51337
2802.20412	0.50949
2800.27555	0.50641
2798.34699	0.50379
2796.41842	0.50133
2794.48986	0.49876
2792.56129	0.49587
2790.63273	0.49305
2788.70416	0.49067
2786.77560	0.48847
2784.84704	0.48606
2782.91847	0.48364
2780.98991	0.48166
2779.06134	0.47984
2777.13278	0.47770
2775.20421	0.47541
2773.27565	0.47354
2771.34708	0.47204
2769.41852	0.47036
2767.48996	0.46867
2765.56139	0.46725
2763.63283	0.46547
2761.70426	0.46309
2759.77570	0.46073
2757.84713	0.45848
2755.91857	0.45623
2753.99001	0.45430
2752.06144	0.45257
2750.13288	0.45047
2748.20431	0.44789
2746.27575	0.44526
2744.34718	0.44322
2742.41862	0.44178
2740.49005	0.44018
2738.56149	0.43798
2736.63293	0.43548
2734.70436	0.43312
2732.77580	0.43095
2730.84723	0.42886
2728.91867	0.42704
2726.99010	0.42544
2725.06154	0.42363
2723.13297	0.42190
2721.20441	0.42052
2719.27585	0.41896
2717.34728	0.41698
2715.41872	0.41503
2713.49015	0.41363
2711.56159	0.41260
2709.63302	0.41145
2707.70446	0.41005
2705.77589	0.40852
2703.84733	0.40688
2701.91877	0.40520
2699.99020	0.40371
2698.06164	0.40240
2696.13307	0.40132
2694.20451	0.40054
2692.27594	0.39969
2690.34738	0.39863
2688.41881	0.39762
2686.49025	0.39649
2684.56169	0.39508
2682.63312	0.39379
2680.70456	0.39279
2678.77599	0.39184
2676.84743	0.39079
2674.91886	0.38965
2672.99030	0.38859
2671.06173	0.38782
2669.13317	0.38746
2667.20461	0.38724
2665.27604	0.38659
2663.34748	0.38559
2661.41891	0.38470
2659.49035	0.38394
2657.56178	0.38316
2655.63322	0.38230
2653.70465	0.38139
2651.77609	0.38068
2649.84753	0.38017
2647.91896	0.37937
2645.99040	0.37802
2644.06183	0.37672
2642.13327	0.37601
2640.20470	0.37559
2638.27614	0.37487
2636.34757	0.37379
2634.41901	0.37288
2632.49045	0.37223
2630.56188	0.37137
2628.63332	0.37020
2626.70475	0.36905
2624.77619	0.36786
2622.84762	0.36649
2620.91906	0.36503
2618.99049	0.36356
2617.06193	0.36214
2615.13337	0.36082
2613.20480	0.35966
2611.27624	0.35852
2609.34767	0.35720
2607.41911	0.35564
2605.49054	0.35391
2603.56198	0.35219
2601.63342	0.35075
2599.70485	0.34962
2597.77629	0.34855
2595.84772	0.34744
2593.91916	0.34630
2591.99059	0.34505
2590.06203	0.34365
2588.13346	0.34215
2586.20490	0.34052
2584.27634	0.33874
2582.34777	0.33710
2580.41921	0.33580
2578.49064	0.33445
2576.56208	0.33253
2574.63351	0.33019
2572.70495	0.32801
2570.77638	0.32613
2568.84782	0.32448
2566.91926	0.32300
2564.99069	0.32150
2563.06213	0.31989
2561.13356	0.31830
2559.20500	0.31688
2557.27643	0.31566
2555.34787	0.31463
2553.41930	0.31381
2551.49074	0.31305
2549.56218	0.31218
2547.63361	0.31152
2545.70505	0.31127
2543.77648	0.31102
2541.84792	0.31048
2539.91935	0.30982
2537.99079	0.30920
2536.06222	0.30901
2534.13366	0.30910
2532.20510	0.30871
2530.27653	0.30778
2528.34797	0.30688
2526.41940	0.30627
2524.49084	0.30571
2522.56227	0.30505
2520.63371	0.30437
2518.70514	0.30353
2516.77658	0.30233
2514.84802	0.30101
2512.91945	0.29995
2510.99089	0.29907
2509.06232	0.29816
2507.13376	0.29717
2505.20519	0.29609
2503.27663	0.29505
2501.34806	0.29410
2499.41950	0.29308
2497.49094	0.29202
2495.56237	0.29106
2493.63381	0.29012
2491.70524	0.28917
2489.77668	0.28838
2487.84811	0.28794
2485.91955	0.28759
2483.99098	0.28689
2482.06242	0.28609
2480.13386	0.28551
2478.20529	0.28490
2476.27673	0.28409
2474.34816	0.28316
2472.41960	0.28217
2470.49103	0.28110
2468.56247	0.27993
2466.63391	0.27860
2464.70534	0.27715
2462.77678	0.27572
2460.84821	0.27427
2458.91965	0.27269
2456.99108	0.27087
2455.06252	0.26891
2453.13395	0.26707
2451.20539	0.26529
2449.27683	0.26356
2447.34826	0.26195
2445.41970	0.26022
2443.49113	0.25818
2441.56257	0.25624
2439.63400	0.25496
2437.70544	0.25409
2435.77687	0.25302
2433.84831	0.25175
2431.91975	0.25048
2429.99118	0.24919
2428.06262	0.24799
2426.13405	0.24702
2424.20549	0.24599
2422.27692	0.24476
2420.34836	0.24372
2418.41979	0.24296
2416.49123	0.24216
2414.56267	0.24119
2412.63410	0.24016
2410.70554	0.23924
2408.77697	0.23824
2406.84841	0.23694
2404.91984	0.23552
2402.99128	0.23413
2401.06271	0.23261
2399.13415	0.23084
2397.20559	0.22907
2395.27702	0.22774
2393.34846	0.22677
2391.41989	0.22571
2389.49133	0.22435
2387.56276	0.22294
2385.63420	0.22172
2383.70563	0.22063
2381.77707	0.21989
2379.84851	0.21999
2377.91994	0.22069
2375.99138	0.22149
2374.06281	0.22237
2372.13425	0.22353
2370.20568	0.22484
2368.27712	0.22614
2366.34855	0.22747
2364.41999	0.22856
2362.49143	0.22981
2360.56286	0.23121
2358.63430	0.23071
2356.70573	0.22780
2354.77717	0.22515
2352.84860	0.22344
2350.92004	0.22135
2348.99147	0.21945
2347.06291	0.21877
2345.13435	0.21939
2343.20578	0.22062
2341.27722	0.22161
2339.34865	0.22159
2337.42009	0.22058
2335.49152	0.21949
2333.56296	0.21877
2331.63440	0.21816
2329.70583	0.21760
2327.77727	0.21719
2325.84870	0.21666
2323.92014	0.21576
2321.99157	0.21457
2320.06301	0.21295
2318.13444	0.21115
2316.20588	0.20990
2314.27732	0.20939
2312.34875	0.20915
2310.42019	0.20859
2308.49162	0.20760
2306.56306	0.20652
2304.63449	0.20557
2302.70593	0.20477
2300.77736	0.20406
2298.84880	0.20334
2296.92024	0.20250
2294.99167	0.20149
2293.06311	0.20036
2291.13454	0.19931
2289.20598	0.19841
2287.27741	0.19743
2285.34885	0.19626
2283.42028	0.19507
2281.49172	0.19382
2279.56316	0.19234
2277.63459	0.19086
2275.70603	0.18965
2273.77746	0.18853
2271.84890	0.18740
2269.92033	0.18637
2267.99177	0.18531
2266.06320	0.18410
2264.13464	0.18288
2262.20608	0.18178
2260.27751	0.18084
2258.34895	0.18003
2256.42038	0.17923
2254.49182	0.17855
2252.56325	0.17801
2250.63469	0.17736
2248.70612	0.17666
2246.77756	0.17605
2244.84900	0.17562
2242.92043	0.17537
2240.99187	0.17514
2239.06330	0.17476
2237.13474	0.17416
2235.20617	0.17358
2233.27761	0.17313
2231.34904	0.17273
2229.42048	0.17241
2227.49192	0.17217
2225.56335	0.17191
2223.63479	0.17156
2221.70622	0.17129
2219.77766	0.17122
2217.84909	0.17126
2215.92053	0.17120
2213.99196	0.17109
2212.06340	0.17114
2210.13484	0.17136
2208.20627	0.17158
2206.27771	0.17176
2204.34914	0.17205
2202.42058	0.17251
2200.49201	0.17298
2198.56345	0.17333
2196.63488	0.17365
2194.70632	0.17394
2192.77776	0.17401
2190.84919	0.17388
2188.92063	0.17364
2186.99206	0.17333
2185.06350	0.17310
2183.13493	0.17310
2181.20637	0.17309
2179.27781	0.17293
2177.34924	0.17279
2175.42068	0.17257
2173.49211	0.17218
2171.56355	0.17186
2169.63498	0.17153
2167.70642	0.17113
2165.77785	0.17086
2163.84929	0.17071
2161.92073	0.17058
2159.99216	0.17052
2158.06360	0.17070
2156.13503	0.17107
2154.20647	0.17134
2152.27790	0.17149
2150.34934	0.17185
2148.42077	0.17246
2146.49221	0.17312
2144.56365	0.17374
2142.63508	0.17431
2140.70652	0.17478
2138.77795	0.17520
2136.84939	0.17574
2134.92082	0.17625
2132.99226	0.17643
2131.06369	0.17632
2129.13513	0.17613
2127.20657	0.17591
2125.27800	0.17571
2123.34944	0.17546
2121.42087	0.17511
2119.49231	0.17475
2117.56374	0.17444
2115.63518	0.17412
2113.70661	0.17383
2111.77805	0.17359
2109.84949	0.17317
2107.92092	0.17251
2105.99236	0.17187
2104.06379	0.17145
2102.13523	0.17103
2100.20666	0.17034
2098.27810	0.16955
2096.34953	0.16896
2094.42097	0.16853
2092.49241	0.16814
2090.56384	0.16787
2088.63528	0.16767
2086.70671	0.16738
2084.77815	0.16705
2082.84958	0.16672
2080.92102	0.16646
2078.99245	0.16634
2077.06389	0.16618
2075.13533	0.16579
2073.20676	0.16515
2071.27820	0.16447
2069.34963	0.16397
2067.42107	0.16355
2065.49250	0.16301
2063.56394	0.16205
2061.63537	0.16072
2059.70681	0.15952
2057.77825	0.15872
2055.84968	0.15816
2053.92112	0.15764
2051.99255	0.15698
2050.06399	0.15624
2048.13542	0.15552
2046.20686	0.15480
2044.27830	0.15414
2042.34973	0.15368
2040.42117	0.15340
2038.49260	0.15314
2036.56404	0.15280
2034.63547	0.15245
2032.70691	0.15218
2030.77834	0.15200
2028.84978	0.15181
2026.92122	0.15157
2024.99265	0.15143
2023.06409	0.15138
2021.13552	0.15121
2019.20696	0.15103
2017.27839	0.15100
2015.34983	0.15096
2013.42126	0.15091
2011.49270	0.15090
2009.56414	0.15094
2007.63557	0.15109
2005.70701	0.15145
2003.77844	0.15191
2001.84988	0.15234
1999.92131	0.15282
1997.99275	0.15322
1996.06418	0.15341
1994.13562	0.15371
1992.20706	0.15419
1990.27849	0.15429
1988.34993	0.15388
1986.42136	0.15324
1984.49280	0.15253
1982.56423	0.15184
1980.63567	0.15113
1978.70710	0.15037
1976.77854	0.14935
1974.84998	0.14798
1972.92141	0.14652
1970.99285	0.14511
1969.06428	0.14381
1967.13572	0.14261
1965.20715	0.14144
1963.27859	0.14041
1961.35002	0.13955
1959.42146	0.13867
1957.49290	0.13780
1955.56433	0.13720
1953.63577	0.13666
1951.70720	0.13604
1949.77864	0.13554
1947.85007	0.13520
1945.92151	0.13499
1943.99294	0.13501
1942.06438	0.13512
1940.13582	0.13482
1938.20725	0.13425
1936.27869	0.13389
1934.35012	0.13367
1932.42156	0.13327
1930.49299	0.13255
1928.56443	0.13165
1926.63586	0.13072
1924.70730	0.12987
1922.77874	0.12904
1920.85017	0.12798
1918.92161	0.12674
1916.99304	0.12547
1915.06448	0.12409
1913.13591	0.12274
1911.20735	0.12179
1909.27878	0.12116
1907.35022	0.12048
1905.42166	0.11972
1903.49309	0.11910
1901.56453	0.11879
1899.63596	0.11884
1897.70740	0.11906
1895.77883	0.11928
1893.85027	0.11948
1891.92171	0.11988
1889.99314	0.12059
1888.06458	0.12103
1886.13601	0.12116
1884.20745	0.12146
1882.27888	0.12175
1880.35032	0.12179
1878.42175	0.12168
1876.49319	0.12153
1874.56463	0.12110
1872.63606	0.12042
1870.70750	0.11998
1868.77893	0.11979
1866.85037	0.11881
1864.92180	0.11722
1862.99324	0.11577
1861.06467	0.11452
1859.13611	0.11333
1857.20755	0.11223
1855.27898	0.11123
1853.35042	0.11029
1851.42185	0.10958
1849.49329	0.10932
1847.56472	0.10930
1845.63616	0.10960
1843.70759	0.11039
1841.77903	0.11074
1839.85047	0.11075
1837.92190	0.11117
1835.99334	0.11196
1834.06477	0.11267
1832.13621	0.11350
1830.20764	0.11493
1828.27908	0.11615
1826.35051	0.11684
1824.42195	0.11777
1822.49339	0.11835
1820.56482	0.11824
1818.63626	0.11808
1816.70769	0.11814
1814.77913	0.11830
1812.85056	0.11861
1810.92200	0.11898
1808.99343	0.11885
1807.06487	0.11822
1805.13631	0.11773
1803.20774	0.11766
1801.27918	0.11802
1799.35061	0.11832
1797.42205	0.11827
1795.49348	0.11824
1793.56492	0.11895
1791.63635	0.12050
1789.70779	0.12110
1787.77923	0.12099
1785.85066	0.12132
1783.92210	0.12221
1781.99353	0.12352
1780.06497	0.12508
1778.13640	0.12635
1776.20784	0.12731
1774.27927	0.12886
1772.35071	0.13145
1770.42215	0.13343
1768.49358	0.13428
1766.56502	0.13494
1764.63645	0.13587
1762.70789	0.13804
1760.77932	0.14146
1758.85076	0.14494
1756.92220	0.14959
1754.99363	0.15493
1753.06507	0.16052
1751.13650	0.16925
1749.20794	0.18102
1747.27937	0.19079
1745.35081	0.19881
1743.42224	0.20693
1741.49368	0.21508
1739.56512	0.22265
1737.63655	0.22792
1735.70799	0.23245
1733.77942	0.24053
1731.85086	0.24781
1729.92229	0.25276
1727.99373	0.25837
1726.06516	0.26457
1724.13660	0.27219
1722.20804	0.28015
1720.27947	0.28761
1718.35091	0.29923
1716.42234	0.31814
1714.49378	0.33332
1712.56521	0.34528
1710.63665	0.35935
1708.70808	0.37711
1706.77952	0.40383
1704.85096	0.43994
1702.92239	0.47338
1700.99383	0.51913
1699.06526	0.59245
1697.13670	0.66282
1695.20813	0.73239
1693.27957	0.78502
1691.35100	0.82540
1689.42244	0.87250
1687.49388	0.91575
1685.56531	0.95644
1683.63675	1.01202
1681.70818	1.05104
1679.77962	1.07292
1677.85105	1.09143
1675.92249	1.11089
1673.99392	1.12962
1672.06536	1.14277
1670.13680	1.15294
1668.20823	1.16112
1666.27967	1.16281
1664.35110	1.16247
1662.42254	1.16178
1660.49397	1.15866
1658.56541	1.15607
1656.63684	1.15534
1654.70828	1.15552
1652.77972	1.14471
1650.85115	1.13327
1648.92259	1.12884
1646.99402	1.12220
1645.06546	1.11413
1643.13689	1.10845
1641.20833	1.10478
1639.27976	1.10096
1637.35120	1.09541
1635.42264	1.08776
1633.49407	1.08049
1631.56551	1.07419
1629.63694	1.06575
1627.70838	1.05459
1625.77981	1.04219
1623.85125	1.02687
1621.92269	1.00922
1619.99412	0.99474
1618.06556	0.97710
1616.13699	0.94787
1614.20843	0.92183
1612.27986	0.90095
1610.35130	0.87875
1608.42273	0.85644
1606.49417	0.83787
1604.56561	0.82347
1602.63704	0.81179
1600.70848	0.80308
1598.77991	0.79773
1596.85135	0.79498
1594.92278	0.79353
1592.99422	0.79344
1591.06565	0.79570
1589.13709	0.80041
1587.20853	0.80780
1585.27996	0.81820
1583.35140	0.83108
1581.42283	0.84429
1579.49427	0.85595
1577.56570	0.86985
1575.63714	0.89115
1573.70857	0.90768
1571.78001	0.91871
1569.85145	0.93450
1567.92288	0.95283
1565.99432	0.96675
1564.06575	0.97807
1562.13719	0.98498
1560.20862	0.99025
1558.28006	1.00434
1556.35149	1.01419
1554.42293	1.01662
1552.49437	1.01652
1550.56580	1.01479
1548.63724	1.01130
1546.70867	1.00772
1544.78011	1.00483
1542.85154	1.00331
1540.92298	0.99612
1538.99441	0.97526
1537.06585	0.96348
1535.13729	0.95670
1533.20872	0.94839
1531.28016	0.93946
1529.35159	0.93183
1527.42303	0.92399
1525.49446	0.91624
1523.56590	0.90980
1521.63733	0.90303
1519.70877	0.89815
1517.78021	0.89262
1515.85164	0.88135
1513.92308	0.86692
1511.99451	0.85214
1510.06595	0.83818
1508.13738	0.81956
1506.20882	0.78728
1504.28025	0.76664
1502.35169	0.75256
1500.42313	0.73704
1498.49456	0.71777
1496.56600	0.69515
1494.63743	0.67744
1492.70887	0.66538
1490.78030	0.65205
1488.85174	0.63483
1486.92317	0.62170
1484.99461	0.61418
1483.06605	0.61007
1481.13748	0.60901
1479.20892	0.61136
1477.28035	0.61783
1475.35179	0.62934
1473.42322	0.64764
1471.49466	0.66731
1469.56610	0.67866
1467.63753	0.68648
1465.70897	0.69590
1463.78040	0.70527
1461.85184	0.71045
1459.92327	0.71373
1457.99471	0.72096
1456.06614	0.73118
1454.13758	0.73379
1452.20902	0.73277
1450.28045	0.73101
1448.35189	0.72827
1446.42332	0.72373
1444.49476	0.71833
1442.56619	0.71281
1440.63763	0.70741
1438.70906	0.70149
1436.78050	0.69275
1434.85194	0.68257
1432.92337	0.67445
1430.99481	0.66787
1429.06624	0.66306
1427.13768	0.66065
1425.20911	0.66063
1423.28055	0.66271
1421.35198	0.66582
1419.42342	0.67080
1417.49486	0.67662
1415.56629	0.67978
1413.63773	0.68182
1411.70916	0.68435
1409.78060	0.68788
1407.85203	0.69215
1405.92347	0.69737
1403.99490	0.70278
1402.06634	0.70662
1400.13778	0.71019
1398.20921	0.71492
1396.28065	0.71997
1394.35208	0.72391
1392.42352	0.72655
1390.49495	0.72970
1388.56639	0.73593
1386.63782	0.74551
1384.70926	0.75425
1382.78070	0.76075
1380.85213	0.76481
1378.92357	0.76494
1376.99500	0.76041
1375.06644	0.75040
1373.13787	0.73639
1371.20931	0.72256
1369.28074	0.70795
1367.35218	0.69209
1365.42362	0.67805
1363.49505	0.66604
1361.56649	0.65665
1359.63792	0.65156
1357.70936	0.64956
1355.78079	0.64962
1353.85223	0.65124
1351.92366	0.65363
1349.99510	0.65650
1348.06654	0.65975
1346.13797	0.66324
1344.20941	0.66692
1342.28084	0.67088
1340.35228	0.67571
1338.42371	0.68130
1336.49515	0.68697
1334.56659	0.69341
1332.63802	0.70126
1330.70946	0.71002
1328.78089	0.71774
1326.85233	0.72276
1324.92376	0.72582
1322.99520	0.72858
1321.06663	0.73193
1319.13807	0.73583
1317.20951	0.73954
1315.28094	0.74279
1313.35238	0.74597
1311.42381	0.74890
1309.49525	0.75124
1307.56668	0.75263
1305.63812	0.75292
1303.70955	0.75272
1301.78099	0.75217
1299.85243	0.75077
1297.92386	0.74827
1295.99530	0.74507
1294.06673	0.74223
1292.13817	0.74031
1290.20960	0.73937
1288.28104	0.73925
1286.35247	0.73923
1284.42391	0.73871
1282.49535	0.73782
1280.56678	0.73684
1278.63822	0.73607
1276.70965	0.73594
1274.78109	0.73700
1272.85252	0.73959
1270.92396	0.74346
1268.99539	0.74776
1267.06683	0.75174
1265.13827	0.75484
1263.20970	0.75705
1261.28114	0.75869
1259.35257	0.75976
1257.42401	0.76062
1255.49544	0.76185
1253.56688	0.76362
1251.63831	0.76584
1249.70975	0.76783
1247.78119	0.76904
1245.85262	0.76995
1243.92406	0.77087
1241.99549	0.77148
1240.06693	0.77138
1238.13836	0.77039
1236.20980	0.76855
1234.28123	0.76559
1232.35267	0.76126
1230.42411	0.75576
1228.49554	0.74952
1226.56698	0.74277
1224.63841	0.73544
1222.70985	0.72771
1220.78128	0.71994
1218.85272	0.71283
1216.92415	0.70754
1214.99559	0.70458
1213.06703	0.70375
1211.13846	0.70472
1209.20990	0.70653
1207.28133	0.70748
1205.35277	0.70623
1203.42420	0.70269
1201.49564	0.69781
1199.56708	0.69258
1197.63851	0.68763
1195.70995	0.68353
1193.78138	0.68074
1191.85282	0.67939
1189.92425	0.67916
1187.99569	0.67966
1186.06712	0.68090
1184.13856	0.68294
1182.21000	0.68577
1180.28143	0.68986
1178.35287	0.69605
1176.42430	0.70444
1174.49574	0.71348
1172.56717	0.72188
1170.63861	0.73055
1168.71004	0.74115
1166.78148	0.75358
1164.85292	0.76562
1162.92435	0.77473
1160.99579	0.78020
1159.06722	0.78186
1157.13866	0.77890
1155.21009	0.77130
1153.28153	0.76054
1151.35296	0.74822
1149.42440	0.73493
1147.49584	0.72200
1145.56727	0.71191
1143.63871	0.70575
1141.71014	0.70333
1139.78158	0.70468
1137.85301	0.70966
1135.92445	0.71775
1133.99588	0.72861
1132.06732	0.74231
1130.13876	0.75890
1128.21019	0.77737
1126.28163	0.79532
1124.35306	0.81108
1122.42450	0.82464
1120.49593	0.83530
1118.56737	0.84178
1116.63880	0.84460
1114.71024	0.84472
1112.78168	0.84215
1110.85311	0.83819
1108.92455	0.83484
1106.99598	0.83217
1105.06742	0.82944
1103.13885	0.82711
1101.21029	0.82640
1099.28172	0.82795
1097.35316	0.83168
1095.42460	0.83806
1093.49603	0.84749
1091.56747	0.85972
1089.63890	0.87468
1087.71034	0.89173
1085.78177	0.90908
1083.85321	0.92423
1081.92464	0.93504
1079.99608	0.94013
1078.06752	0.93845
1076.13895	0.93104
1074.21039	0.92012
1072.28182	0.90671
1070.35326	0.89271
1068.42469	0.87983
1066.49613	0.86765
1064.56756	0.85677
1062.63900	0.84774
1060.71044	0.83900
1058.78187	0.83093
1056.85331	0.82498
1054.92474	0.82002
1052.99618	0.81523
1051.06761	0.81125
1049.13905	0.80809
1047.21049	0.80595
1045.28192	0.80579
1043.35336	0.80809
1041.42479	0.81174
1039.49623	0.81439
1037.56766	0.81547
1035.63910	0.81582
1033.71053	0.81454
1031.78197	0.81017
1029.85341	0.80301
1027.92484	0.79408
1025.99628	0.78354
1024.06771	0.77193
1022.13915	0.76115
1020.21058	0.75192
1018.28202	0.74345
1016.35345	0.73523
1014.42489	0.72628
1012.49633	0.71551
1010.56776	0.70300
1008.63920	0.68928
1006.71063	0.67521
1004.78207	0.66201
1002.85350	0.65069
1000.92494	0.64157
998.99637	0.63432
997.06781	0.62874
995.13925	0.62421
993.21068	0.61913
991.28212	0.61193
989.35355	0.60221
987.42499	0.59057
985.49642	0.57792
983.56786	0.56534
981.63929	0.55384
979.71073	0.54402
977.78217	0.53542
975.85360	0.52667
973.92504	0.51687
971.99647	0.50566
970.06791	0.49333
968.13934	0.48125
966.21078	0.47079
964.28221	0.46267
962.35365	0.45788
960.42509	0.45758
958.49652	0.46152
956.56796	0.46690
954.63939	0.46949
952.71083	0.46707
950.78226	0.46094
948.85370	0.45376
946.92513	0.44742
944.99657	0.44266
943.06801	0.43954
941.13944	0.43775
939.21088	0.43667
937.28231	0.43567
935.35375	0.43480
933.42518	0.43468
931.49662	0.43542
929.56805	0.43679
927.63949	0.43873
925.71093	0.44145
923.78236	0.44493
921.85380	0.44840
919.92523	0.45071
917.99667	0.45144
916.06810	0.45121
914.13954	0.45080
912.21098	0.45053
910.28241	0.45070
908.35385	0.45175
906.42528	0.45354
904.49672	0.45563
902.56815	0.45813
900.63959	0.46078
898.71102	0.46246
896.78246	0.46281
894.85390	0.46248
892.92533	0.46205
890.99677	0.46158
889.06820	0.46115
887.13964	0.46113
885.21107	0.46172
883.28251	0.46294
881.35394	0.46468
879.42538	0.46706
877.49682	0.47004
875.56825	0.47303
873.63969	0.47533
871.71112	0.47663
869.78256	0.47725
867.85399	0.47744
865.92543	0.47681
863.99686	0.47543
862.06830	0.47396
860.13974	0.47284
858.21117	0.47213
856.28261	0.47149
854.35404	0.47049
852.42548	0.46923
850.49691	0.46810
848.56835	0.46724
846.63978	0.46661
844.71122	0.46643
842.78266	0.46705
840.85409	0.46851
838.92553	0.47028
836.99696	0.47215
835.06840	0.47458
833.13983	0.47752
831.21127	0.48011
829.28270	0.48212
827.35414	0.48398
825.42558	0.48581
823.49701	0.48733
821.56845	0.48816
819.63988	0.48859
817.71132	0.48929
815.78275	0.49045
813.85419	0.49229
811.92562	0.49471
809.99706	0.49656
808.06850	0.49761
806.13993	0.49875
804.21137	0.50008
802.28280	0.50111
800.35424	0.50180
798.42567	0.50246
796.49711	0.50365
794.56854	0.50594
792.63998	0.50954
790.71142	0.51406
788.78285	0.51956
786.85429	0.52637
784.92572	0.53386
782.99716	0.54143
781.06859	0.54983
779.14003	0.55952
777.21147	0.56968
775.28290	0.57956
773.35434	0.58888
771.42577	0.59736
769.49721	0.60469
767.56864	0.61108
765.64008	0.61721
763.71151	0.62307
761.78295	0.62829
759.85439	0.63315
757.92582	0.63764
755.99726	0.64118
754.06869	0.64391
752.14013	0.64643
750.21156	0.64901
748.28300	0.65172
746.35443	0.65414
744.42587	0.65584
742.49731	0.65693
740.56874	0.65721
738.64018	0.65616
736.71161	0.65446
734.78305	0.65328
732.85448	0.65301
730.92592	0.65366
728.99735	0.65444
727.06879	0.65444
725.14023	0.65414
723.21166	0.65456
721.28310	0.65591
719.35453	0.65698
717.42597	0.65637
715.49740	0.65436
713.56884	0.65225
711.64027	0.65138
709.71171	0.65183
707.78315	0.65203
705.85458	0.65112
703.92602	0.64950
701.99745	0.64731
700.06889	0.64456
698.14032	0.64154
696.21176	0.63837
694.28319	0.63483
692.35463	0.63103
690.42607	0.62715
688.49750	0.62342
686.56894	0.62134
684.64037	0.62100
682.71181	0.62059
680.78324	0.62039
678.85468	0.62071
676.92611	0.62015
674.99755	0.61935
673.06899	0.61994
671.14042	0.62215
669.21186	0.62659
667.28329	0.62997
665.35473	0.62895
663.42616	0.62778
661.49760	0.62804
659.56903	0.62945
657.64047	0.63105
655.71191	0.63227
653.78334	0.63355
651.85478	0.63400
649.92621	0.63220
647.99765	0.63068
646.06908	0.63254
644.14052	0.63608
642.21195	0.63933
640.28339	0.64319
638.35483	0.64800
636.42626	0.65255
634.49770	0.65642
632.56913	0.66004
630.64057	0.66314
628.71200	0.66522
626.78344	0.66594
624.85488	0.66556
622.92631	0.66584
620.99775	0.66763
619.06918	0.66982
617.14062	0.67182
615.21205	0.67293
613.28349	0.67145
611.35492	0.66789
609.42636	0.66469
607.49780	0.66214
605.56923	0.66026
603.64067	0.66016
601.71210	0.65996
599.78354	0.65718
