3997.91406	0.32152
3995.98550	0.32025
3994.05693	0.31866
3992.12837	0.31843
3990.19980	0.31944
3988.27124	0.31952
3986.34268	0.31812
3984.41411	0.31668
3982.48555	0.31624
3980.55698	0.31637
3978.62842	0.31624
3976.69985	0.31582
3974.77129	0.31503
3972.84272	0.31418
3970.91416	0.31425
3968.98560	0.31485
3967.05703	0.31501
3965.12847	0.31509
3963.19990	0.31531
3961.27134	0.31490
3959.34277	0.31395
3957.41421	0.31357
3955.48564	0.31372
3953.55708	0.31394
3951.62852	0.31450
3949.69995	0.31502
3947.77139	0.31426
3945.84282	0.31309
3943.91426	0.31313
3941.98569	0.31314
3940.05713	0.31246
3938.12856	0.31257
3936.20000	0.31265
3934.27144	0.31172
3932.34287	0.31112
3930.41431	0.31118
3928.48574	0.31088
3926.55718	0.31081
3924.62861	0.31161
3922.70005	0.31230
3920.77148	0.31269
3918.84292	0.31261
3916.91436	0.31123
3914.98579	0.31012
3913.05723	0.31023
3911.12866	0.31060
3909.20010	0.31040
3907.27153	0.30994
3905.34297	0.31065
3903.41440	0.31242
3901.48584	0.31313
3899.55728	0.31271
3897.62871	0.31122
3895.70015	0.30946
3893.77158	0.30912
3891.84302	0.31015
3889.91445	0.30923
3887.98589	0.30691
3886.05733	0.30663
3884.12876	0.30762
3882.20020	0.30796
3880.27163	0.30867
3878.34307	0.30743
3876.41450	0.30467
3874.48594	0.30362
3872.55737	0.30488
3870.62881	0.30688
3868.70025	0.30695
3866.77168	0.30524
3864.84312	0.30581
3862.91455	0.30779
3860.98599	0.30651
3859.05742	0.30378
3857.12886	0.30265
3855.20029	0.30619
3853.27173	0.31414
3851.34317	0.31274
3849.41460	0.30687
3847.48604	0.30250
3845.55747	0.30030
3843.62891	0.30021
3841.70034	0.30103
3839.77178	0.30251
3837.84321	0.30393
3835.91465	0.30286
3833.98609	0.30158
3832.05752	0.30176
3830.12896	0.30175
3828.20039	0.30114
3826.27183	0.30104
3824.34326	0.30119
3822.41470	0.30253
3820.48613	0.30510
3818.55757	0.30510
3816.62901	0.30450
3814.70044	0.30344
3812.77188	0.30104
3810.84331	0.29884
3808.91475	0.29840
3806.98618	0.30090
3805.05762	0.30285
3803.12905	0.30310
3801.20049	0.30360
3799.27193	0.30230
3797.34336	0.30062
3795.41480	0.29970
3793.48623	0.29833
3791.55767	0.29689
3789.62910	0.29604
3787.70054	0.29639
3785.77197	0.29784
3783.84341	0.29800
3781.91485	0.29699
3779.98628	0.29790
3778.05772	0.29944
3776.12915	0.29861
3774.20059	0.29675
3772.27202	0.29583
3770.34346	0.29677
3768.41489	0.29789
3766.48633	0.29793
3764.55777	0.29717
3762.62920	0.29516
3760.70064	0.29363
3758.77207	0.29462
3756.84351	0.29571
3754.91494	0.29520
3752.98638	0.29542
3751.05781	0.29877
3749.12925	0.29892
3747.20069	0.29550
3745.27212	0.29458
3743.34356	0.29477
3741.41499	0.29294
3739.48643	0.29169
3737.55786	0.29336
3735.62930	0.29731
3733.70074	0.29820
3731.77217	0.29568
3729.84361	0.29326
3727.91504	0.29208
3725.98648	0.29162
3724.05791	0.29110
3722.12935	0.29119
3720.20078	0.29171
3718.27222	0.29157
3716.34366	0.29088
3714.41509	0.29045
3712.48653	0.29188
3710.55796	0.29528
3708.62940	0.29610
3706.70083	0.29472
3704.77227	0.29357
3702.84370	0.29397
3700.91514	0.29517
3698.98658	0.29524
3697.05801	0.29489
3695.12945	0.29484
3693.20088	0.29526
3691.27232	0.29793
3689.34375	0.30310
3687.41519	0.30450
3685.48662	0.30256
3683.55806	0.30057
3681.62950	0.29942
3679.70093	0.29945
3677.77237	0.30140
3675.84380	0.30748
3673.91524	0.31247
3671.98667	0.31325
3670.05811	0.31536
3668.12954	0.31735
3666.20098	0.31699
3664.27242	0.31673
3662.34385	0.31729
3660.41529	0.31833
3658.48672	0.32058
3656.55816	0.32483
3654.62959	0.32746
3652.70103	0.32783
3650.77246	0.33135
3648.84390	0.34163
3646.91534	0.34782
3644.98677	0.34856
3643.05821	0.34905
3641.12964	0.35095
3639.20108	0.35408
3637.27251	0.35811
3635.34395	0.36285
3633.41538	0.36718
3631.48682	0.37058
3629.55826	0.37742
3627.62969	0.38575
3625.70113	0.38774
3623.77256	0.38800
3621.84400	0.38979
3619.91543	0.39579
3617.98687	0.40381
3616.05830	0.40816
3614.12974	0.41156
3612.20118	0.41511
3610.27261	0.41799
3608.34405	0.42257
3606.41548	0.42745
3604.48692	0.43006
3602.55835	0.43263
3600.62979	0.43662
3598.70123	0.44068
3596.77266	0.44436
3594.84410	0.44870
3592.91553	0.45300
3590.98697	0.45598
3589.05840	0.45961
3587.12984	0.46567
3585.20127	0.47022
3583.27271	0.47282
3581.34415	0.47641
3579.41558	0.48120
3577.48702	0.48577
3575.55845	0.49086
3573.62989	0.49673
3571.70132	0.50090
3569.77276	0.50280
3567.84419	0.50685
3565.91563	0.51592
3563.98707	0.52304
3562.05850	0.52711
3560.12994	0.53077
3558.20137	0.53469
3556.27281	0.53784
3554.34424	0.54070
3552.41568	0.54568
3550.48711	0.55179
3548.55855	0.55709
3546.62999	0.56252
3544.70142	0.56765
3542.77286	0.57117
3540.84429	0.57447
3538.91573	0.57920
3536.98716	0.58559
3535.05860	0.59190
3533.13003	0.59601
3531.20147	0.59870
3529.27291	0.60232
3527.34434	0.60853
3525.41578	0.61617
3523.48721	0.62224
3521.55865	0.62653
3519.63008	0.63120
3517.70152	0.63744
3515.77295	0.64482
3513.84439	0.65283
3511.91583	0.66081
3509.98726	0.66767
3508.05870	0.67413
3506.13013	0.68141
3504.20157	0.69001
3502.27300	0.69868
3500.34444	0.70525
3498.41587	0.71098
3496.48731	0.71777
3494.55875	0.72452
3492.63018	0.72972
3490.70162	0.73423
3488.77305	0.73893
3486.84449	0.74383
3484.91592	0.74897
3482.98736	0.75348
3481.05879	0.75636
3479.13023	0.75882
3477.20167	0.76221
3475.27310	0.76541
3473.34454	0.76754
3471.41597	0.76988
3469.48741	0.77276
3467.55884	0.77517
3465.63028	0.77802
3463.70171	0.78264
3461.77315	0.78717
3459.84459	0.78987
3457.91602	0.79193
3455.98746	0.79368
3454.05889	0.79481
3452.13033	0.79735
3450.20176	0.80161
3448.27320	0.80551
3446.34464	0.80901
3444.41607	0.81167
3442.48751	0.81274
3440.55894	0.81373
3438.63038	0.81564
3436.70181	0.81785
3434.77325	0.81910
3432.84468	0.81997
3430.91612	0.82156
3428.98756	0.82302
3427.05899	0.82353
3425.13043	0.82329
3423.20186	0.82321
3421.27330	0.82453
3419.34473	0.82723
3417.41617	0.82851
3415.48760	0.82717
3413.55904	0.82645
3411.63048	0.82777
3409.70191	0.82908
3407.77335	0.82920
3405.84478	0.82772
3403.91622	0.82516
3401.98765	0.82351
3400.05909	0.82357
3398.13052	0.82430
3396.20196	0.82499
3394.27340	0.82596
3392.34483	0.82800
3390.41627	0.83069
3388.48770	0.83289
3386.55914	0.83421
3384.63057	0.83400
3382.70201	0.83332
3380.77344	0.83458
3378.84488	0.83655
3376.91632	0.83726
3374.98775	0.83802
3373.05919	0.83931
3371.13062	0.84063
3369.20206	0.84301
3367.27349	0.84626
3365.34493	0.84817
3363.41636	0.84869
3361.48780	0.84962
3359.55924	0.85082
3357.63067	0.85148
3355.70211	0.85173
3353.77354	0.85243
3351.84498	0.85479
3349.91641	0.85756
3347.98785	0.85886
3346.05928	0.86029
3344.13072	0.86346
3342.20216	0.86718
3340.27359	0.87021
3338.34503	0.87226
3336.41646	0.87370
3334.48790	0.87641
3332.55933	0.88164
3330.63077	0.88645
3328.70220	0.88719
3326.77364	0.88610
3324.84508	0.88804
3322.91651	0.89314
3320.98795	0.89741
3319.05938	0.89949
3317.13082	0.90136
3315.20225	0.90304
3313.27369	0.90420
3311.34513	0.90746
3309.41656	0.91511
3307.48800	0.92474
3305.55943	0.93003
3303.63087	0.92946
3301.70230	0.92928
3299.77374	0.93204
3297.84517	0.93346
3295.91661	0.93285
3293.98805	0.93324
3292.05948	0.93503
3290.13092	0.93696
3288.20235	0.93802
3286.27379	0.93828
3284.34522	0.93861
3282.41666	0.93880
3280.48809	0.93753
3278.55953	0.93478
3276.63097	0.93330
3274.70240	0.93401
3272.77384	0.93371
3270.84527	0.93188
3268.91671	0.93059
3266.98814	0.92898
3265.05958	0.92558
3263.13101	0.92085
3261.20245	0.91539
3259.27389	0.90990
3257.34532	0.90529
3255.41676	0.90008
3253.48819	0.89325
3251.55963	0.88723
3249.63106	0.88244
3247.70250	0.87759
3245.77393	0.87255
3243.84537	0.86610
3241.91681	0.85741
3239.98824	0.84945
3238.05968	0.84557
3236.13111	0.84420
3234.20255	0.84130
3232.27398	0.83554
3230.34542	0.82998
3228.41685	0.82769
3226.48829	0.82601
3224.55973	0.82209
3222.63116	0.81719
3220.70260	0.81198
3218.77403	0.80670
3216.84547	0.80270
3214.91690	0.80035
3212.98834	0.79847
3211.05977	0.79583
3209.13121	0.79231
3207.20265	0.78829
3205.27408	0.78432
3203.34552	0.78072
3201.41695	0.77682
3199.48839	0.77239
3197.55982	0.76791
3195.63126	0.76329
3193.70269	0.75898
3191.77413	0.75586
3189.84557	0.75349
3187.91700	0.75078
3185.98844	0.74720
3184.05987	0.74276
3182.13131	0.73785
3180.20274	0.73329
3178.27418	0.72921
3176.34562	0.72481
3174.41705	0.72017
3172.48849	0.71627
3170.55992	0.71343
3168.63136	0.71060
3166.70279	0.70698
3164.77423	0.70256
3162.84566	0.69766
3160.91710	0.69402
3158.98854	0.69253
3157.05997	0.69149
3155.13141	0.68948
3153.20284	0.68660
3151.27428	0.68412
3149.34571	0.68298
3147.41715	0.68197
3145.48858	0.68007
3143.56002	0.67788
3141.63146	0.67568
3139.70289	0.67374
3137.77433	0.67278
3135.84576	0.67236
3133.91720	0.67212
3131.98863	0.67255
3130.06007	0.67307
3128.13150	0.67347
3126.20294	0.67441
3124.27438	0.67508
3122.34581	0.67439
3120.41725	0.67292
3118.48868	0.67211
3116.56012	0.67252
3114.63155	0.67408
3112.70299	0.67629
3110.77442	0.67777
3108.84586	0.67829
3106.91730	0.67871
3104.98873	0.67880
3103.06017	0.67839
3101.13160	0.67797
3099.20304	0.67719
3097.27447	0.67563
3095.34591	0.67398
3093.41734	0.67270
3091.48878	0.67127
3089.56022	0.66950
3087.63165	0.66776
3085.70309	0.66665
3083.77452	0.66608
3081.84596	0.66514
3079.91739	0.66319
3077.98883	0.66025
3076.06026	0.65717
3074.13170	0.65461
3072.20314	0.65227
3070.27457	0.65003
3068.34601	0.64802
3066.41744	0.64583
3064.48888	0.64298
3062.56031	0.63980
3060.63175	0.63713
3058.70318	0.63493
3056.77462	0.63254
3054.84606	0.62999
3052.91749	0.62741
3050.98893	0.62462
3049.06036	0.62195
3047.13180	0.62002
3045.20323	0.61834
3043.27467	0.61618
3041.34610	0.61371
3039.41754	0.61123
3037.48898	0.60866
3035.56041	0.60594
3033.63185	0.60303
3031.70328	0.60014
3029.77472	0.59804
3027.84615	0.59669
3025.91759	0.59487
3023.98903	0.59244
3022.06046	0.59026
3020.13190	0.58862
3018.20333	0.58780
3016.27477	0.58777
3014.34620	0.58711
3012.41764	0.58534
3010.48907	0.58382
3008.56051	0.58283
3006.63195	0.58177
3004.70338	0.58075
3002.77482	0.57972
3000.84625	0.57838
2998.91769	0.57752
2996.98912	0.57822
2995.06056	0.58011
2993.13199	0.58215
2991.20343	0.58408
2989.27487	0.58677
2987.34630	0.59113
2985.41774	0.59630
2983.48917	0.60127
2981.56061	0.60642
2979.63204	0.61208
2977.70348	0.61812
2975.77491	0.62441
2973.84635	0.63076
2971.91779	0.63718
2969.98922	0.64376
2968.06066	0.65036
2966.13209	0.65636
2964.20353	0.66113
2962.27496	0.66431
2960.34640	0.66529
2958.41783	0.66381
2956.48927	0.66075
2954.56071	0.65685
2952.63214	0.65247
2950.70358	0.64825
2948.77501	0.64528
2946.84645	0.64526
2944.91788	0.64878
2942.98932	0.65511
2941.06075	0.66330
2939.13219	0.67240
2937.20363	0.68180
2935.27506	0.69106
2933.34650	0.69976
2931.41793	0.70818
2929.48937	0.71688
2927.56080	0.72528
2925.63224	0.73200
2923.70367	0.73703
2921.77511	0.74091
2919.84655	0.74243
2917.91798	0.73894
2915.98942	0.72808
2914.06085	0.71071
2912.13229	0.69153
2910.20372	0.67477
2908.27516	0.66211
2906.34659	0.65406
2904.41803	0.64914
2902.48947	0.64478
2900.56090	0.64070
2898.63234	0.63798
2896.70377	0.63633
2894.77521	0.63472
2892.84664	0.63248
2890.91808	0.62964
2888.98952	0.62676
2887.06095	0.62389
2885.13239	0.62111
2883.20382	0.61944
2881.27526	0.61876
2879.34669	0.61754
2877.41813	0.61568
2875.48956	0.61393
2873.56100	0.61205
2871.63244	0.60901
2869.70387	0.60386
2867.77531	0.59728
2865.84674	0.59145
2863.91818	0.58803
2861.98961	0.58751
2860.06105	0.58974
2858.13248	0.59422
2856.20392	0.60056
2854.27536	0.60875
2852.34679	0.61717
2850.41823	0.61977
2848.48966	0.60983
2846.56110	0.58936
2844.63253	0.56746
2842.70397	0.54990
2840.77540	0.53697
2838.84684	0.52736
2836.91828	0.52008
2834.98971	0.51472
2833.06115	0.51101
2831.13258	0.50838
2829.20402	0.50623
2827.27545	0.50397
2825.34689	0.50117
2823.41832	0.49808
2821.48976	0.49512
2819.56120	0.49224
2817.63263	0.48928
2815.70407	0.48637
2813.77550	0.48363
2811.84694	0.48104
2809.91837	0.47888
2807.98981	0.47670
2806.06124	0.47347
2804.13268	0.46947
2802.20412	0.46602
2800.27555	0.46358
2798.34699	0.46171
2796.41842	0.45991
2794.48986	0.45772
2792.56129	0.45499
2790.63273	0.45248
2788.70416	0.45068
2786.77560	0.44914
2784.84704	0.44753
2782.91847	0.44578
2780.98991	0.44416
2779.06134	0.44310
2777.13278	0.44257
2775.20421	0.44237
2773.27565	0.44207
2771.34708	0.44110
2769.41852	0.44003
2767.48996	0.43953
2765.56139	0.43906
2763.63283	0.43823
2761.70426	0.43738
2759.77570	0.43685
2757.84713	0.43663
2755.91857	0.43639
2753.99001	0.43601
2752.06144	0.43546
2750.13288	0.43467
2748.20431	0.43384
2746.27575	0.43310
2744.34718	0.43231
2742.41862	0.43154
2740.49005	0.43090
2738.56149	0.43014
2736.63293	0.42917
2734.70436	0.42823
2732.77580	0.42715
2730.84723	0.42586
2728.91867	0.42474
2726.99010	0.42351
2725.06154	0.42198
2723.13297	0.42071
2721.20441	0.41976
2719.27585	0.41849
2717.34728	0.41668
2715.41872	0.41503
2713.49015	0.41390
2711.56159	0.41272
2709.63302	0.41124
2707.70446	0.40981
2705.77589	0.40829
2703.84733	0.40643
2701.91877	0.40469
2699.99020	0.40338
2698.06164	0.40200
2696.13307	0.40024
2694.20451	0.39840
2692.27594	0.39675
2690.34738	0.39546
2688.41881	0.39434
2686.49025	0.39289
2684.56169	0.39119
2682.63312	0.38962
2680.70456	0.38819
2678.77599	0.38693
2676.84743	0.38600
2674.91886	0.38509
2672.99030	0.38379
2671.06173	0.38245
2669.13317	0.38167
2667.20461	0.38133
2665.27604	0.38068
2663.34748	0.37964
2661.41891	0.37894
2659.49035	0.37865
2657.56178	0.37820
2655.63322	0.37780
2653.70465	0.37769
2651.77609	0.37744
2649.84753	0.37693
2647.91896	0.37603
2645.99040	0.37470
2644.06183	0.37358
2642.13327	0.37292
2640.20470	0.37238
2638.27614	0.37192
2636.34757	0.37172
2634.41901	0.37163
2632.49045	0.37122
2630.56188	0.37053
2628.63332	0.36992
2626.70475	0.36952
2624.77619	0.36926
2622.84762	0.36904
2620.91906	0.36878
2618.99049	0.36860
2617.06193	0.36827
2615.13337	0.36740
2613.20480	0.36633
2611.27624	0.36553
2609.34767	0.36485
2607.41911	0.36407
2605.49054	0.36323
2603.56198	0.36228
2601.63342	0.36126
2599.70485	0.36047
2597.77629	0.35978
2595.84772	0.35896
2593.91916	0.35807
2591.99059	0.35694
2590.06203	0.35546
2588.13346	0.35387
2586.20490	0.35257
2584.27634	0.35169
2582.34777	0.35076
2580.41921	0.34962
2578.49064	0.34851
2576.56208	0.34729
2574.63351	0.34587
2572.70495	0.34461
2570.77638	0.34367
2568.84782	0.34276
2566.91926	0.34174
2564.99069	0.34090
2563.06213	0.34035
2561.13356	0.33985
2559.20500	0.33924
2557.27643	0.33847
2555.34787	0.33767
2553.41930	0.33718
2551.49074	0.33714
2549.56218	0.33723
2547.63361	0.33698
2545.70505	0.33647
2543.77648	0.33607
2541.84792	0.33579
2539.91935	0.33553
2537.99079	0.33531
2536.06222	0.33504
2534.13366	0.33447
2532.20510	0.33356
2530.27653	0.33258
2528.34797	0.33166
2526.41940	0.33067
2524.49084	0.32970
2522.56227	0.32898
2520.63371	0.32827
2518.70514	0.32734
2516.77658	0.32634
2514.84802	0.32533
2512.91945	0.32429
2510.99089	0.32312
2509.06232	0.32183
2507.13376	0.32053
2505.20519	0.31944
2503.27663	0.31857
2501.34806	0.31765
2499.41950	0.31663
2497.49094	0.31558
2495.56237	0.31462
2493.63381	0.31406
2491.70524	0.31367
2489.77668	0.31293
2487.84811	0.31205
2485.91955	0.31126
2483.99098	0.31026
2482.06242	0.30924
2480.13386	0.30869
2478.20529	0.30847
2476.27673	0.30812
2474.34816	0.30750
2472.41960	0.30677
2470.49103	0.30584
2468.56247	0.30480
2466.63391	0.30395
2464.70534	0.30310
2462.77678	0.30207
2460.84821	0.30111
2458.91965	0.30019
2456.99108	0.29918
2455.06252	0.29800
2453.13395	0.29667
2451.20539	0.29558
2449.27683	0.29485
2447.34826	0.29419
2445.41970	0.29335
2443.49113	0.29225
2441.56257	0.29138
2439.63400	0.29113
2437.70544	0.29111
2435.77687	0.29084
2433.84831	0.29050
2431.91975	0.29046
2429.99118	0.29045
2428.06262	0.29017
2426.13405	0.28975
2424.20549	0.28948
2422.27692	0.28960
2420.34836	0.29005
2418.41979	0.29036
2416.49123	0.29043
2414.56267	0.29034
2412.63410	0.28999
2410.70554	0.28956
2408.77697	0.28923
2406.84841	0.28874
2404.91984	0.28804
2402.99128	0.28728
2401.06271	0.28631
2399.13415	0.28506
2397.20559	0.28376
2395.27702	0.28273
2393.34846	0.28202
2391.41989	0.28126
2389.49133	0.28021
2387.56276	0.27905
2385.63420	0.27803
2383.70563	0.27721
2381.77707	0.27661
2379.84851	0.27629
2377.91994	0.27626
2375.99138	0.27645
2374.06281	0.27686
2372.13425	0.27782
2370.20568	0.27908
2368.27712	0.27966
2366.34855	0.28000
2364.41999	0.28120
2362.49143	0.28285
2360.56286	0.28304
2358.63430	0.28173
2356.70573	0.28124
2354.77717	0.28106
2352.84860	0.27982
2350.92004	0.27758
2348.99147	0.27528
2347.06291	0.27384
2345.13435	0.27378
2343.20578	0.27484
2341.27722	0.27587
2339.34865	0.27649
2337.42009	0.27669
2335.49152	0.27614
2333.56296	0.27532
2331.63440	0.27486
2329.70583	0.27461
2327.77727	0.27440
2325.84870	0.27418
2323.92014	0.27389
2321.99157	0.27336
2320.06301	0.27232
2318.13444	0.27089
2316.20588	0.26988
2314.27732	0.26979
2312.34875	0.27006
2310.42019	0.27002
2308.49162	0.26960
2306.56306	0.26894
2304.63449	0.26841
2302.70593	0.26831
2300.77736	0.26852
2298.84880	0.26881
2296.92024	0.26900
2294.99167	0.26892
2293.06311	0.26867
2291.13454	0.26852
2289.20598	0.26848
2287.27741	0.26831
2285.34885	0.26797
2283.42028	0.26762
2281.49172	0.26732
2279.56316	0.26707
2277.63459	0.26690
2275.70603	0.26675
2273.77746	0.26660
2271.84890	0.26651
2269.92033	0.26646
2267.99177	0.26628
2266.06320	0.26605
2264.13464	0.26600
2262.20608	0.26609
2260.27751	0.26611
2258.34895	0.26611
2256.42038	0.26623
2254.49182	0.26633
2252.56325	0.26638
2250.63469	0.26661
2248.70612	0.26694
2246.77756	0.26720
2244.84900	0.26759
2242.92043	0.26815
2240.99187	0.26856
2239.06330	0.26876
2237.13474	0.26907
2235.20617	0.26956
2233.27761	0.27001
2231.34904	0.27032
2229.42048	0.27063
2227.49192	0.27127
2225.56335	0.27216
2223.63479	0.27272
2221.70622	0.27293
2219.77766	0.27315
2217.84909	0.27334
2215.92053	0.27341
2213.99196	0.27352
2212.06340	0.27387
2210.13484	0.27427
2208.20627	0.27436
2206.27771	0.27426
2204.34914	0.27433
2202.42058	0.27479
2200.49201	0.27538
2198.56345	0.27563
2196.63488	0.27560
2194.70632	0.27570
2192.77776	0.27594
2190.84919	0.27605
2188.92063	0.27617
2186.99206	0.27639
2185.06350	0.27658
2183.13493	0.27673
2181.20637	0.27679
2179.27781	0.27687
2177.34924	0.27715
2175.42068	0.27737
2173.49211	0.27745
2171.56355	0.27758
2169.63498	0.27760
2167.70642	0.27755
2165.77785	0.27771
2163.84929	0.27799
2161.92073	0.27805
2159.99216	0.27788
2158.06360	0.27779
2156.13503	0.27786
2154.20647	0.27788
2152.27790	0.27784
2150.34934	0.27780
2148.42077	0.27780
2146.49221	0.27805
2144.56365	0.27852
2142.63508	0.27900
2140.70652	0.27952
2138.77795	0.28002
2136.84939	0.28051
2134.92082	0.28118
2132.99226	0.28203
2131.06369	0.28305
2129.13513	0.28417
2127.20657	0.28531
2125.27800	0.28645
2123.34944	0.28760
2121.42087	0.28882
2119.49231	0.29007
2117.56374	0.29121
2115.63518	0.29239
2113.70661	0.29363
2111.77805	0.29463
2109.84949	0.29541
2107.92092	0.29629
2105.99236	0.29733
2104.06379	0.29848
2102.13523	0.29952
2100.20666	0.30021
2098.27810	0.30082
2096.34953	0.30161
2094.42097	0.30232
2092.49241	0.30283
2090.56384	0.30332
2088.63528	0.30377
2086.70671	0.30410
2084.77815	0.30449
2082.84958	0.30494
2080.92102	0.30529
2078.99245	0.30541
2077.06389	0.30547
2075.13533	0.30569
2073.20676	0.30597
2071.27820	0.30617
2069.34963	0.30645
2067.42107	0.30706
2065.49250	0.30769
2063.56394	0.30787
2061.63537	0.30791
2059.70681	0.30826
2057.77825	0.30875
2055.84968	0.30914
2053.92112	0.30940
2051.99255	0.30951
2050.06399	0.30954
2048.13542	0.30969
2046.20686	0.30996
2044.27830	0.31015
2042.34973	0.31016
2040.42117	0.30999
2038.49260	0.30958
2036.56404	0.30913
2034.63547	0.30882
2032.70691	0.30849
2030.77834	0.30815
2028.84978	0.30783
2026.92122	0.30746
2024.99265	0.30709
2023.06409	0.30668
2021.13552	0.30617
2019.20696	0.30577
2017.27839	0.30564
2015.34983	0.30556
2013.42126	0.30531
2011.49270	0.30499
2009.56414	0.30476
2007.63557	0.30480
2005.70701	0.30514
2003.77844	0.30557
2001.84988	0.30588
1999.92131	0.30611
1997.99275	0.30644
1996.06418	0.30696
1994.13562	0.30775
1992.20706	0.30885
1990.27849	0.30979
1988.34993	0.31038
1986.42136	0.31082
1984.49280	0.31126
1982.56423	0.31176
1980.63567	0.31229
1978.70710	0.31284
1976.77854	0.31330
1974.84998	0.31357
1972.92141	0.31392
1970.99285	0.31443
1969.06428	0.31501
1967.13572	0.31553
1965.20715	0.31573
1963.27859	0.31565
1961.35002	0.31567
1959.42146	0.31581
1957.49290	0.31618
1955.56433	0.31677
1953.63577	0.31701
1951.70720	0.31677
1949.77864	0.31657
1947.85007	0.31647
1945.92151	0.31637
1943.99294	0.31666
1942.06438	0.31737
1940.13582	0.31771
1938.20725	0.31767
1936.27869	0.31773
1934.35012	0.31787
1932.42156	0.31794
1930.49299	0.31795
1928.56443	0.31794
1926.63586	0.31803
1924.70730	0.31830
1922.77874	0.31881
1920.85017	0.31920
1918.92161	0.31959
1916.99304	0.32019
1915.06448	0.32048
1913.13591	0.32060
1911.20735	0.32114
1909.27878	0.32198
1907.35022	0.32240
1905.42166	0.32223
1903.49309	0.32206
1901.56453	0.32212
1899.63596	0.32214
1897.70740	0.32206
1895.77883	0.32190
1893.85027	0.32143
1891.92171	0.32068
1889.99314	0.31992
1888.06458	0.31893
1886.13601	0.31766
1884.20745	0.31639
1882.27888	0.31508
1880.35032	0.31369
1878.42175	0.31223
1876.49319	0.31065
1874.56463	0.30897
1872.63606	0.30741
1870.70750	0.30647
1868.77893	0.30638
1866.85037	0.30586
1864.92180	0.30452
1862.99324	0.30335
1861.06467	0.30268
1859.13611	0.30224
1857.20755	0.30186
1855.27898	0.30155
1853.35042	0.30126
1851.42185	0.30103
1849.49329	0.30102
1847.56472	0.30099
1845.63616	0.30092
1843.70759	0.30105
1841.77903	0.30067
1839.85047	0.29973
1837.92190	0.29871
1835.99334	0.29764
1834.06477	0.29651
1832.13621	0.29573
1830.20764	0.29536
1828.27908	0.29461
1826.35051	0.29353
1824.42195	0.29278
1822.49339	0.29190
1820.56482	0.29061
1818.63626	0.28957
1816.70769	0.28903
1814.77913	0.28882
1812.85056	0.28895
1810.92200	0.28939
1808.99343	0.28955
1807.06487	0.28933
1805.13631	0.28924
1803.20774	0.28947
1801.27918	0.29009
1799.35061	0.29052
1797.42205	0.29029
1795.49348	0.28994
1793.56492	0.29034
1791.63635	0.29141
1789.70779	0.29131
1787.77923	0.29045
1785.85066	0.28986
1783.92210	0.28964
1781.99353	0.28981
1780.06497	0.29008
1778.13640	0.28981
1776.20784	0.28924
1774.27927	0.28941
1772.35071	0.29094
1770.42215	0.29215
1768.49358	0.29225
1766.56502	0.29185
1764.63645	0.29134
1762.70789	0.29169
1760.77932	0.29291
1758.85076	0.29391
1756.92220	0.29532
1754.99363	0.29694
1753.06507	0.29865
1751.13650	0.30263
1749.20794	0.30906
1747.27937	0.31438
1745.35081	0.31827
1743.42224	0.32187
1741.49368	0.32558
1739.56512	0.32952
1737.63655	0.33232
1735.70799	0.33464
1733.77942	0.33952
1731.85086	0.34338
1729.92229	0.34489
1727.99373	0.34654
1726.06516	0.34868
1724.13660	0.35206
1722.20804	0.35576
1720.27947	0.35931
1718.35091	0.36664
1716.42234	0.38023
1714.49378	0.39057
1712.56521	0.39792
1710.63665	0.40680
1708.70808	0.41848
1706.77952	0.43652
1704.85096	0.46022
1702.92239	0.48079
1700.99383	0.50886
1699.06526	0.55293
1697.13670	0.59225
1695.20813	0.62872
1693.27957	0.65493
1691.35100	0.67498
1689.42244	0.69906
1687.49388	0.72081
1685.56531	0.74342
1683.63675	0.78196
1681.70818	0.80953
1679.77962	0.82377
1677.85105	0.83746
1675.92249	0.85471
1673.99392	0.87288
1672.06536	0.88670
1670.13680	0.90300
1668.20823	0.92074
1666.27967	0.92998
1664.35110	0.93767
1662.42254	0.94874
1660.49397	0.95823
1658.56541	0.96407
1656.63684	0.96788
1654.70828	0.97250
1652.77972	0.97969
1650.85115	0.98071
1648.92259	0.98029
1646.99402	0.98248
1645.06546	0.98267
1643.13689	0.97984
1641.20833	0.97791
1639.27976	0.97703
1637.35120	0.97700
1635.42264	0.97843
1633.49407	0.97810
1631.56551	0.97581
1629.63694	0.97296
1627.70838	0.96956
1625.77981	0.96441
1623.85125	0.95709
1621.92269	0.94799
1619.99412	0.93882
1618.06556	0.92775
1616.13699	0.91209
1614.20843	0.89848
1612.27986	0.88717
1610.35130	0.87497
1608.42273	0.86229
1606.49417	0.85102
1604.56561	0.84223
1602.63704	0.83577
1600.70848	0.83103
1598.77991	0.82734
1596.85135	0.82443
1594.92278	0.82170
1592.99422	0.81917
1591.06565	0.81759
1589.13709	0.81707
1587.20853	0.81803
1585.27996	0.82095
1583.35140	0.82573
1581.42283	0.83118
1579.49427	0.83622
1577.56570	0.84341
1575.63714	0.85474
1573.70857	0.86140
1571.78001	0.86510
1569.85145	0.87275
1567.92288	0.88187
1565.99432	0.88877
1564.06575	0.89522
1562.13719	0.89911
1560.20862	0.90433
1558.28006	0.92363
1556.35149	0.93461
1554.42293	0.93693
1552.49437	0.93809
1550.56580	0.93935
1548.63724	0.94103
1546.70867	0.94173
1544.78011	0.94183
1542.85154	0.94395
1540.92298	0.94896
1538.99441	0.94698
1537.06585	0.94166
1535.13729	0.93823
1533.20872	0.93608
1531.28016	0.93371
1529.35159	0.93109
1527.42303	0.92827
1525.49446	0.92452
1523.56590	0.92138
1521.63733	0.92194
1519.70877	0.92527
1517.78021	0.92533
1515.85164	0.91914
1513.92308	0.90928
1511.99451	0.89937
1510.06595	0.89082
1508.13738	0.87917
1506.20882	0.85527
1504.28025	0.83818
1502.35169	0.82659
1500.42313	0.81468
1498.49456	0.80051
1496.56600	0.78305
1494.63743	0.76808
1492.70887	0.75742
1490.78030	0.74585
1488.85174	0.73073
1486.92317	0.71792
1484.99461	0.70890
1483.06605	0.70224
1481.13748	0.69765
1479.20892	0.69552
1477.28035	0.69643
1475.35179	0.70108
1473.42322	0.71192
1471.49466	0.72534
1469.56610	0.73241
1467.63753	0.73681
1465.70897	0.74352
1463.78040	0.75137
1461.85184	0.75557
1459.92327	0.75808
1457.99471	0.76551
1456.06614	0.77716
1454.13758	0.78043
1452.20902	0.77992
1450.28045	0.77958
1448.35189	0.78011
1446.42332	0.77977
1444.49476	0.77755
1442.56619	0.77455
1440.63763	0.77147
1438.70906	0.76789
1436.78050	0.76238
1434.85194	0.75515
1432.92337	0.74793
1430.99481	0.74043
1429.06624	0.73311
1427.13768	0.72740
1425.20911	0.72334
1423.28055	0.72051
1421.35198	0.71901
1419.42342	0.71979
1417.49486	0.72127
1415.56629	0.72017
1413.63773	0.71777
1411.70916	0.71538
1409.78060	0.71344
1407.85203	0.71231
1405.92347	0.71261
1403.99490	0.71386
1402.06634	0.71464
1400.13778	0.71560
1398.20921	0.71764
1396.28065	0.72009
1394.35208	0.72182
1392.42352	0.72253
1390.49495	0.72395
1388.56639	0.72919
1386.63782	0.73948
1384.70926	0.75041
1382.78070	0.76023
1380.85213	0.76924
1378.92357	0.77552
1376.99500	0.77747
1375.06644	0.77441
1373.13787	0.76663
1371.20931	0.75628
1369.28074	0.74301
1367.35218	0.72717
1365.42362	0.71192
1363.49505	0.69710
1361.56649	0.68267
1359.63792	0.67135
1357.70936	0.66304
1355.78079	0.65707
1353.85223	0.65338
1351.92366	0.65104
1349.99510	0.64910
1348.06654	0.64759
1346.13797	0.64698
1344.20941	0.64734
1342.28084	0.64839
1340.35228	0.65055
1338.42371	0.65408
1336.49515	0.65806
1334.56659	0.66262
1332.63802	0.66881
1330.70946	0.67663
1328.78089	0.68438
1326.85233	0.69018
1324.92376	0.69359
1322.99520	0.69566
1321.06663	0.69778
1319.13807	0.70029
1317.20951	0.70281
1315.28094	0.70528
1313.35238	0.70765
1311.42381	0.70939
1309.49525	0.71052
1307.56668	0.71131
1305.63812	0.71142
1303.70955	0.71069
1301.78099	0.70926
1299.85243	0.70719
1297.92386	0.70451
1295.99530	0.70150
1294.06673	0.69890
1292.13817	0.69712
1290.20960	0.69630
1288.28104	0.69650
1286.35247	0.69716
1284.42391	0.69763
1282.49535	0.69787
1280.56678	0.69815
1278.63822	0.69903
1276.70965	0.70064
1274.78109	0.70284
1272.85252	0.70617
1270.92396	0.71095
1268.99539	0.71636
1267.06683	0.72140
1265.13827	0.72598
1263.20970	0.72977
1261.28114	0.73197
1259.35257	0.73274
1257.42401	0.73318
1255.49544	0.73371
1253.56688	0.73422
1251.63831	0.73496
1249.70975	0.73593
1247.78119	0.73668
1245.85262	0.73718
1243.92406	0.73728
1241.99549	0.73684
1240.06693	0.73611
1238.13836	0.73526
1236.20980	0.73403
1234.28123	0.73178
1232.35267	0.72824
1230.42411	0.72352
1228.49554	0.71775
1226.56698	0.71155
1224.63841	0.70526
1222.70985	0.69855
1220.78128	0.69149
1218.85272	0.68485
1216.92415	0.67938
1214.99559	0.67548
1213.06703	0.67350
1211.13846	0.67390
1209.20990	0.67610
1207.28133	0.67791
1205.35277	0.67715
1203.42420	0.67338
1201.49564	0.66753
1199.56708	0.66064
1197.63851	0.65343
1195.70995	0.64645
1193.78138	0.64025
1191.85282	0.63542
1189.92425	0.63222
1187.99569	0.63029
1186.06712	0.62906
1184.13856	0.62889
1182.21000	0.63019
1180.28143	0.63277
1178.35287	0.63688
1176.42430	0.64252
1174.49574	0.64898
1172.56717	0.65600
1170.63861	0.66394
1168.71004	0.67340
1166.78148	0.68467
1164.85292	0.69693
1162.92435	0.70842
1160.99579	0.71703
1159.06722	0.72125
1157.13866	0.72125
1155.21009	0.71711
1153.28153	0.70855
1151.35296	0.69722
1149.42440	0.68480
1147.49584	0.67184
1145.56727	0.66058
1143.63871	0.65340
1141.71014	0.65024
1139.78158	0.65038
1137.85301	0.65365
1135.92445	0.65967
1133.99588	0.66787
1132.06732	0.67794
1130.13876	0.68965
1128.21019	0.70264
1126.28163	0.71627
1124.35306	0.72938
1122.42450	0.74100
1120.49593	0.75061
1118.56737	0.75789
1116.63880	0.76258
1114.71024	0.76405
1112.78168	0.76239
1110.85311	0.75887
1108.92455	0.75442
1106.99598	0.74997
1105.06742	0.74683
1103.13885	0.74458
1101.21029	0.74175
1099.28172	0.73942
1097.35316	0.74012
1095.42460	0.74435
1093.49603	0.75097
1091.56747	0.75876
1089.63890	0.76673
1087.71034	0.77452
1085.78177	0.78287
1083.85321	0.79298
1081.92464	0.80443
1079.99608	0.81433
1078.06752	0.82034
1076.13895	0.82364
1074.21039	0.82550
1072.28182	0.82472
1070.35326	0.82074
1068.42469	0.81414
1066.49613	0.80531
1064.56756	0.79515
1062.63900	0.78481
1060.71044	0.77474
1058.78187	0.76505
1056.85331	0.75581
1054.92474	0.74735
1052.99618	0.73987
1051.06761	0.73368
1049.13905	0.72978
1047.21049	0.72887
1045.28192	0.73012
1043.35336	0.73312
1041.42479	0.73827
1039.49623	0.74460
1037.56766	0.75006
1035.63910	0.75348
1033.71053	0.75491
1031.78197	0.75460
1029.85341	0.75276
1027.92484	0.74977
1025.99628	0.74589
1024.06771	0.74149
1022.13915	0.73663
1020.21058	0.73154
1018.28202	0.72705
1016.35345	0.72247
1014.42489	0.71578
1012.49633	0.70638
1010.56776	0.69484
1008.63920	0.68128
1006.71063	0.66660
1004.78207	0.65286
1002.85350	0.64092
1000.92494	0.63019
998.99637	0.62040
997.06781	0.61212
995.13925	0.60562
993.21068	0.59992
991.28212	0.59401
989.35355	0.58795
987.42499	0.58238
985.49642	0.57783
983.56786	0.57502
981.63929	0.57443
979.71073	0.57543
977.78217	0.57661
975.85360	0.57700
973.92504	0.57649
971.99647	0.57494
970.06791	0.57202
968.13934	0.56835
966.21078	0.56547
964.28221	0.56486
962.35365	0.56769
960.42509	0.57465
958.49652	0.58511
956.56796	0.59577
954.63939	0.60211
952.71083	0.60254
950.78226	0.59923
948.85370	0.59503
946.92513	0.59144
944.99657	0.58896
943.06801	0.58793
941.13944	0.58840
939.21088	0.58981
937.28231	0.59125
935.35375	0.59199
933.42518	0.59232
931.49662	0.59291
929.56805	0.59361
927.63949	0.59413
925.71093	0.59455
923.78236	0.59488
921.85380	0.59483
919.92523	0.59391
917.99667	0.59223
916.06810	0.59054
914.13954	0.58941
912.21098	0.58900
910.28241	0.58936
908.35385	0.59074
906.42528	0.59342
904.49672	0.59705
902.56815	0.60118
900.63959	0.60545
898.71102	0.60876
896.78246	0.61064
894.85390	0.61223
892.92533	0.61407
890.99677	0.61581
889.06820	0.61746
887.13964	0.61931
885.21107	0.62150
883.28251	0.62383
881.35394	0.62566
879.42538	0.62640
877.49682	0.62578
875.56825	0.62368
873.63969	0.62051
871.71112	0.61732
869.78256	0.61414
867.85399	0.61048
865.92543	0.60654
863.99686	0.60238
862.06830	0.59829
860.13974	0.59533
858.21117	0.59396
856.28261	0.59312
854.35404	0.59203
852.42548	0.59139
850.49691	0.59181
848.56835	0.59294
846.63978	0.59461
844.71122	0.59716
842.78266	0.60085
840.85409	0.60507
838.92553	0.60910
836.99696	0.61305
835.06840	0.61732
833.13983	0.62223
831.21127	0.62765
829.28270	0.63280
827.35414	0.63730
825.42558	0.64187
823.49701	0.64689
821.56845	0.65180
819.63988	0.65634
817.71132	0.66116
815.78275	0.66603
813.85419	0.67043
811.92562	0.67475
809.99706	0.67896
808.06850	0.68303
806.13993	0.68764
804.21137	0.69249
802.28280	0.69640
800.35424	0.69942
798.42567	0.70295
796.49711	0.70739
794.56854	0.71157
792.63998	0.71444
790.71142	0.71537
788.78285	0.71493
786.85429	0.71482
784.92572	0.71565
782.99716	0.71650
781.06859	0.71624
779.14003	0.71438
777.21147	0.71149
775.28290	0.70865
773.35434	0.70561
771.42577	0.70097
769.49721	0.69516
767.56864	0.68983
765.64008	0.68429
763.71151	0.67756
761.78295	0.67138
759.85439	0.66709
757.92582	0.66356
755.99726	0.65986
754.06869	0.65639
752.14013	0.65358
750.21156	0.65153
748.28300	0.64995
746.35443	0.64851
744.42587	0.64779
742.49731	0.64838
740.56874	0.64977
738.64018	0.65114
736.71161	0.65240
734.78305	0.65399
732.85448	0.65575
730.92592	0.65740
728.99735	0.65937
727.06879	0.66191
725.14023	0.66464
723.21166	0.66700
721.28310	0.66880
719.35453	0.66945
717.42597	0.66820
715.49740	0.66515
713.56884	0.66085
711.64027	0.65690
709.71171	0.65434
707.78315	0.65178
705.85458	0.64827
703.92602	0.64425
701.99745	0.63999
700.06889	0.63592
698.14032	0.63238
696.21176	0.62905
694.28319	0.62586
692.35463	0.62336
690.42607	0.62172
688.49750	0.62105
686.56894	0.62198
684.64037	0.62373
682.71181	0.62548
680.78324	0.62811
678.85468	0.63167
676.92611	0.63529
674.99755	0.63953
673.06899	0.64496
671.14042	0.65135
669.21186	0.66153
667.28329	0.67262
665.35473	0.67579
663.42616	0.67778
661.49760	0.68305
659.56903	0.69077
657.64047	0.69769
655.71191	0.70176
653.78334	0.70409
651.85478	0.70593
649.92621	0.70741
647.99765	0.70869
646.06908	0.70939
644.14052	0.70925
642.21195	0.70890
640.28339	0.70842
638.35483	0.70749
636.42626	0.70657
634.49770	0.70627
632.56913	0.70609
630.64057	0.70378
628.71200	0.70013
626.78344	0.69906
624.85488	0.70091
622.92631	0.70277
620.99775	0.70354
619.06918	0.70516
617.14062	0.70821
615.21205	0.71097
613.28349	0.71435
611.35492	0.71954
609.42636	0.72566
607.49780	0.73214
605.56923	0.73790
603.64067	0.74066
601.71210	0.74085
599.78354	0.74131
