3997.91406	0.31489
3995.98550	0.31413
3994.05693	0.31313
3992.12837	0.31210
3990.19980	0.31136
3988.27124	0.31043
3986.34268	0.30923
3984.41411	0.30837
3982.48555	0.30768
3980.55698	0.30706
3978.62842	0.30743
3976.69985	0.30841
3974.77129	0.30814
3972.84272	0.30688
3970.91416	0.30656
3968.98560	0.30684
3967.05703	0.30648
3965.12847	0.30580
3963.19990	0.30489
3961.27134	0.30348
3959.34277	0.30256
3957.41421	0.30303
3955.48564	0.30381
3953.55708	0.30360
3951.62852	0.30330
3949.69995	0.30363
3947.77139	0.30315
3945.84282	0.30215
3943.91426	0.30275
3941.98569	0.30406
3940.05713	0.30359
3938.12856	0.30205
3936.20000	0.30113
3934.27144	0.30184
3932.34287	0.30405
3930.41431	0.30530
3928.48574	0.30442
3926.55718	0.30317
3924.62861	0.30275
3922.70005	0.30281
3920.77148	0.30319
3918.84292	0.30395
3916.91436	0.30437
3914.98579	0.30340
3913.05723	0.30119
3911.12866	0.29931
3909.20010	0.29829
3907.27153	0.29773
3905.34297	0.29821
3903.41440	0.29937
3901.48584	0.30018
3899.55728	0.30041
3897.62871	0.29902
3895.70015	0.29673
3893.77158	0.29488
3891.84302	0.29426
3889.91445	0.29379
3887.98589	0.29268
3886.05733	0.29279
3884.12876	0.29319
3882.20020	0.29279
3880.27163	0.29422
3878.34307	0.29478
3876.41450	0.29331
3874.48594	0.29244
3872.55737	0.29221
3870.62881	0.29270
3868.70025	0.29327
3866.77168	0.29261
3864.84312	0.29339
3862.91455	0.29523
3860.98599	0.29400
3859.05742	0.29068
3857.12886	0.28806
3855.20029	0.29006
3853.27173	0.29954
3851.34317	0.30130
3849.41460	0.29593
3847.48604	0.29052
3845.55747	0.28683
3843.62891	0.28606
3841.70034	0.28782
3839.77178	0.29093
3837.84321	0.29367
3835.91465	0.29246
3833.98609	0.29002
3832.05752	0.28971
3830.12896	0.28986
3828.20039	0.28880
3826.27183	0.28737
3824.34326	0.28619
3822.41470	0.28718
3820.48613	0.28991
3818.55757	0.28867
3816.62901	0.28704
3814.70044	0.28748
3812.77188	0.28695
3810.84331	0.28525
3808.91475	0.28408
3806.98618	0.28512
3805.05762	0.28670
3803.12905	0.28887
3801.20049	0.29134
3799.27193	0.28905
3797.34336	0.28580
3795.41480	0.28446
3793.48623	0.28350
3791.55767	0.28252
3789.62910	0.28167
3787.70054	0.28125
3785.77197	0.28204
3783.84341	0.28259
3781.91485	0.28155
3779.98628	0.28137
3778.05772	0.28249
3776.12915	0.28230
3774.20059	0.28083
3772.27202	0.27915
3770.34346	0.27916
3768.41489	0.28097
3766.48633	0.28200
3764.55777	0.28156
3762.62920	0.28006
3760.70064	0.27962
3758.77207	0.28125
3756.84351	0.28108
3754.91494	0.27799
3752.98638	0.27488
3751.05781	0.27639
3749.12925	0.27978
3747.20069	0.28016
3745.27212	0.28271
3743.34356	0.28574
3741.41499	0.28395
3739.48643	0.28105
3737.55786	0.27997
3735.62930	0.28111
3733.70074	0.28206
3731.77217	0.28100
3729.84361	0.27925
3727.91504	0.27806
3725.98648	0.27789
3724.05791	0.27820
3722.12935	0.27826
3720.20078	0.27785
3718.27222	0.27675
3716.34366	0.27492
3714.41509	0.27303
3712.48653	0.27372
3710.55796	0.27796
3708.62940	0.27941
3706.70083	0.27774
3704.77227	0.27569
3702.84370	0.27532
3700.91514	0.27641
3698.98658	0.27676
3697.05801	0.27695
3695.12945	0.27726
3693.20088	0.27780
3691.27232	0.28102
3689.34375	0.28714
3687.41519	0.28913
3685.48662	0.28739
3683.55806	0.28550
3681.62950	0.28462
3679.70093	0.28439
3677.77237	0.28460
3675.84380	0.28924
3673.91524	0.29468
3671.98667	0.29605
3670.05811	0.29978
3668.12954	0.30262
3666.20098	0.30106
3664.27242	0.29947
3662.34385	0.29958
3660.41529	0.30065
3658.48672	0.30281
3656.55816	0.30733
3654.62959	0.31041
3652.70103	0.31020
3650.77246	0.31210
3648.84390	0.32121
3646.91534	0.32759
3644.98677	0.32821
3643.05821	0.32842
3641.12964	0.33074
3639.20108	0.33491
3637.27251	0.33961
3635.34395	0.34434
3633.41538	0.34842
3631.48682	0.35205
3629.55826	0.35992
3627.62969	0.36797
3625.70113	0.36841
3623.77256	0.36866
3621.84400	0.37199
3619.91543	0.37898
3617.98687	0.38669
3616.05830	0.39053
3614.12974	0.39319
3612.20118	0.39749
3610.27261	0.40297
3608.34405	0.40959
3606.41548	0.41539
3604.48692	0.41874
3602.55835	0.42206
3600.62979	0.42650
3598.70123	0.43099
3596.77266	0.43651
3594.84410	0.44415
3592.91553	0.45028
3590.98697	0.45269
3589.05840	0.45630
3587.12984	0.46538
3585.20127	0.47311
3583.27271	0.47721
3581.34415	0.48142
3579.41558	0.48703
3577.48702	0.49348
3575.55845	0.49903
3573.62989	0.50304
3571.70132	0.50661
3569.77276	0.51098
3567.84419	0.52009
3565.91563	0.53332
3563.98707	0.54023
3562.05850	0.54279
3560.12994	0.54606
3558.20137	0.55068
3556.27281	0.55588
3554.34424	0.56265
3552.41568	0.57139
3550.48711	0.57914
3548.55855	0.58555
3546.62999	0.59308
3544.70142	0.60105
3542.77286	0.60780
3540.84429	0.61450
3538.91573	0.62188
3536.98716	0.62988
3535.05860	0.63735
3533.13003	0.64271
3531.20147	0.64776
3529.27291	0.65567
3527.34434	0.66569
3525.41578	0.67428
3523.48721	0.68105
3521.55865	0.68744
3519.63008	0.69423
3517.70152	0.70228
3515.77295	0.71134
3513.84439	0.72117
3511.91583	0.73172
3509.98726	0.74247
3508.05870	0.75178
3506.13013	0.75860
3504.20157	0.76727
3502.27300	0.78081
3500.34444	0.79422
3498.41587	0.80500
3496.48731	0.81538
3494.55875	0.82594
3492.63018	0.83597
3490.70162	0.84507
3488.77305	0.85252
3486.84449	0.86068
3484.91592	0.87030
3482.98736	0.87767
3481.05879	0.88118
3479.13023	0.88219
3477.20167	0.88496
3475.27310	0.89195
3473.34454	0.89957
3471.41597	0.90553
3469.48741	0.91147
3467.55884	0.91734
3465.63028	0.92216
3463.70171	0.92758
3461.77315	0.93607
3459.84459	0.94626
3457.91602	0.95324
3455.98746	0.95681
3454.05889	0.96201
3452.13033	0.96977
3450.20176	0.97519
3448.27320	0.97656
3446.34464	0.97934
3444.41607	0.98511
3442.48751	0.99014
3440.55894	0.99416
3438.63038	0.99711
3436.70181	0.99842
3434.77325	0.99983
3432.84468	1.00295
3430.91612	1.00651
3428.98756	1.00896
3427.05899	1.01133
3425.13043	1.01505
3423.20186	1.02112
3421.27330	1.02752
3419.34473	1.02882
3417.41617	1.02573
3415.48760	1.02368
3413.55904	1.02350
3411.63048	1.02388
3409.70191	1.02552
3407.77335	1.02913
3405.84478	1.03357
3403.91622	1.03765
3401.98765	1.04124
3400.05909	1.04335
3398.13052	1.04493
3396.20196	1.04914
3394.27340	1.05514
3392.34483	1.05905
3390.41627	1.05871
3388.48770	1.05678
3386.55914	1.05803
3384.63057	1.06306
3382.70201	1.06776
3380.77344	1.07011
3378.84488	1.07191
3376.91632	1.07285
3374.98775	1.07307
3373.05919	1.07582
3371.13062	1.08105
3369.20206	1.08582
3367.27349	1.08982
3365.34493	1.09447
3363.41636	1.09874
3361.48780	1.10043
3359.55924	1.10092
3357.63067	1.10537
3355.70211	1.11528
3353.77354	1.12508
3351.84498	1.13183
3349.91641	1.13614
3347.98785	1.13658
3346.05928	1.13570
3344.13072	1.13746
3342.20216	1.13992
3340.27359	1.14156
3338.34503	1.14600
3336.41646	1.15427
3334.48790	1.16125
3332.55933	1.16519
3330.63077	1.17022
3328.70220	1.17649
3326.77364	1.17945
3324.84508	1.18128
3322.91651	1.18709
3320.98795	1.19307
3319.05938	1.19802
3317.13082	1.20870
3315.20225	1.22239
3313.27369	1.22887
3311.34513	1.22926
3309.41656	1.23104
3307.48800	1.23377
3305.55943	1.23574
3303.63087	1.24034
3301.70230	1.24944
3299.77374	1.25827
3297.84517	1.26056
3295.91661	1.26026
3293.98805	1.26296
3292.05948	1.26517
3290.13092	1.26403
3288.20235	1.26211
3286.27379	1.26130
3284.34522	1.25938
3282.41666	1.25756
3280.48809	1.25975
3278.55953	1.26045
3276.63097	1.25584
3274.70240	1.25179
3272.77384	1.25007
3270.84527	1.24816
3268.91671	1.24509
3266.98814	1.24072
3265.05958	1.23551
3263.13101	1.22851
3261.20245	1.21828
3259.27389	1.20633
3257.34532	1.19509
3255.41676	1.18433
3253.48819	1.17384
3251.55963	1.16395
3249.63106	1.15393
3247.70250	1.14406
3245.77393	1.13414
3243.84537	1.12316
3241.91681	1.11144
3239.98824	1.10064
3238.05968	1.09351
3236.13111	1.08959
3234.20255	1.08613
3232.27398	1.08193
3230.34542	1.07461
3228.41685	1.06427
3226.48829	1.05539
3224.55973	1.04931
3222.63116	1.04487
3220.70260	1.04240
3218.77403	1.04050
3216.84547	1.03632
3214.91690	1.03007
3212.98834	1.02356
3211.05977	1.01768
3209.13121	1.01298
3207.20265	1.00950
3205.27408	1.00649
3203.34552	1.00260
3201.41695	0.99621
3199.48839	0.98790
3197.55982	0.98099
3195.63126	0.97674
3193.70269	0.97230
3191.77413	0.96586
3189.84557	0.95915
3187.91700	0.95408
3185.98844	0.95004
3184.05987	0.94424
3182.13131	0.93709
3180.20274	0.93326
3178.27418	0.93160
3176.34562	0.92599
3174.41705	0.91705
3172.48849	0.90948
3170.55992	0.90532
3168.63136	0.90296
3166.70279	0.89873
3164.77423	0.89290
3162.84566	0.88911
3160.91710	0.88728
3158.98854	0.88395
3157.05997	0.87846
3155.13141	0.87344
3153.20284	0.86911
3151.27428	0.86423
3149.34571	0.86050
3147.41715	0.85930
3145.48858	0.85826
3143.56002	0.85460
3141.63146	0.84893
3139.70289	0.84475
3137.77433	0.84323
3135.84576	0.84166
3133.91720	0.83844
3131.98863	0.83476
3130.06007	0.83218
3128.13150	0.83167
3126.20294	0.83234
3124.27438	0.83147
3122.34581	0.82866
3120.41725	0.82597
3118.48868	0.82514
3116.56012	0.82641
3114.63155	0.82748
3112.70299	0.82685
3110.77442	0.82572
3108.84586	0.82458
3106.91730	0.82326
3104.98873	0.82264
3103.06017	0.82308
3101.13160	0.82352
3099.20304	0.82320
3097.27447	0.82127
3095.34591	0.81783
3093.41734	0.81536
3091.48878	0.81430
3089.56022	0.81282
3087.63165	0.81069
3085.70309	0.80866
3083.77452	0.80701
3081.84596	0.80486
3079.91739	0.80121
3077.98883	0.79706
3076.06026	0.79403
3074.13170	0.79196
3072.20314	0.78946
3070.27457	0.78545
3068.34601	0.78053
3066.41744	0.77701
3064.48888	0.77516
3062.56031	0.77263
3060.63175	0.76894
3058.70318	0.76539
3056.77462	0.76237
3054.84606	0.75924
3052.91749	0.75523
3050.98893	0.75022
3049.06036	0.74471
3047.13180	0.73915
3045.20323	0.73408
3043.27467	0.72970
3041.34610	0.72545
3039.41754	0.72166
3037.48898	0.71846
3035.56041	0.71434
3033.63185	0.70944
3031.70328	0.70551
3029.77472	0.70252
3027.84615	0.69964
3025.91759	0.69636
3023.98903	0.69176
3022.06046	0.68640
3020.13190	0.68260
3018.20333	0.68081
3016.27477	0.67961
3014.34620	0.67823
3012.41764	0.67647
3010.48907	0.67382
3008.56051	0.67018
3006.63195	0.66691
3004.70338	0.66558
3002.77482	0.66592
3000.84625	0.66638
2998.91769	0.66589
2996.98912	0.66524
2995.06056	0.66620
2993.13199	0.66874
2991.20343	0.67177
2989.27487	0.67539
2987.34630	0.68001
2985.41774	0.68553
2983.48917	0.69174
2981.56061	0.69873
2979.63204	0.70667
2977.70348	0.71511
2975.77491	0.72379
2973.84635	0.73369
2971.91779	0.74491
2969.98922	0.75567
2968.06066	0.76562
2966.13209	0.77546
2964.20353	0.78426
2962.27496	0.79090
2960.34640	0.79474
2958.41783	0.79483
2956.48927	0.79073
2954.56071	0.78352
2952.63214	0.77607
2950.70358	0.77085
2948.77501	0.76864
2946.84645	0.77012
2944.91788	0.77539
2942.98932	0.78325
2941.06075	0.79264
2939.13219	0.80341
2937.20363	0.81540
2935.27506	0.82802
2933.34650	0.83986
2931.41793	0.84999
2929.48937	0.85991
2927.56080	0.86992
2925.63224	0.87733
2923.70367	0.88119
2921.77511	0.88241
2919.84655	0.88066
2917.91798	0.87306
2915.98942	0.85591
2914.06085	0.83117
2912.13229	0.80620
2910.20372	0.78539
2908.27516	0.76891
2906.34659	0.75636
2904.41803	0.74630
2902.48947	0.73679
2900.56090	0.72852
2898.63234	0.72298
2896.70377	0.71918
2894.77521	0.71538
2892.84664	0.71118
2890.91808	0.70687
2888.98952	0.70317
2887.06095	0.70053
2885.13239	0.69896
2883.20382	0.69863
2881.27526	0.69949
2879.34669	0.70098
2877.41813	0.70232
2875.48956	0.70287
2873.56100	0.70216
2871.63244	0.69982
2869.70387	0.69548
2867.77531	0.68898
2865.84674	0.68177
2863.91818	0.67689
2861.98961	0.67592
2860.06105	0.67807
2858.13248	0.68252
2856.20392	0.68930
2854.27536	0.69772
2852.34679	0.70475
2850.41823	0.70431
2848.48966	0.69031
2846.56110	0.66462
2844.63253	0.63722
2842.70397	0.61527
2840.77540	0.59908
2838.84684	0.58739
2836.91828	0.57948
2834.98971	0.57360
2833.06115	0.56808
2831.13258	0.56277
2829.20402	0.55776
2827.27545	0.55305
2825.34689	0.54910
2823.41832	0.54560
2821.48976	0.54177
2819.56120	0.53788
2817.63263	0.53439
2815.70407	0.53135
2813.77550	0.52856
2811.84694	0.52535
2809.91837	0.52206
2807.98981	0.51975
2806.06124	0.51797
2804.13268	0.51563
2802.20412	0.51243
2800.27555	0.50883
2798.34699	0.50588
2796.41842	0.50423
2794.48986	0.50306
2792.56129	0.50128
2790.63273	0.49907
2788.70416	0.49708
2786.77560	0.49522
2784.84704	0.49322
2782.91847	0.49134
2780.98991	0.49000
2779.06134	0.48899
2777.13278	0.48749
2775.20421	0.48530
2773.27565	0.48327
2771.34708	0.48155
2769.41852	0.47909
2767.48996	0.47587
2765.56139	0.47282
2763.63283	0.47015
2761.70426	0.46780
2759.77570	0.46565
2757.84713	0.46325
2755.91857	0.46040
2753.99001	0.45776
2752.06144	0.45570
2750.13288	0.45380
2748.20431	0.45194
2746.27575	0.45007
2744.34718	0.44813
2742.41862	0.44653
2740.49005	0.44524
2738.56149	0.44374
2736.63293	0.44222
2734.70436	0.44107
2732.77580	0.43989
2730.84723	0.43848
2728.91867	0.43747
2726.99010	0.43686
2725.06154	0.43605
2723.13297	0.43518
2721.20441	0.43443
2719.27585	0.43335
2717.34728	0.43189
2715.41872	0.43060
2713.49015	0.42972
2711.56159	0.42905
2709.63302	0.42838
2707.70446	0.42759
2705.77589	0.42666
2703.84733	0.42573
2701.91877	0.42481
2699.99020	0.42376
2698.06164	0.42266
2696.13307	0.42151
2694.20451	0.42008
2692.27594	0.41846
2690.34738	0.41684
2688.41881	0.41511
2686.49025	0.41310
2684.56169	0.41099
2682.63312	0.40887
2680.70456	0.40642
2678.77599	0.40364
2676.84743	0.40116
2674.91886	0.39923
2672.99030	0.39747
2671.06173	0.39546
2669.13317	0.39333
2667.20461	0.39143
2665.27604	0.38971
2663.34748	0.38790
2661.41891	0.38625
2659.49035	0.38516
2657.56178	0.38429
2655.63322	0.38329
2653.70465	0.38228
2651.77609	0.38125
2649.84753	0.38030
2647.91896	0.37945
2645.99040	0.37844
2644.06183	0.37749
2642.13327	0.37671
2640.20470	0.37576
2638.27614	0.37485
2636.34757	0.37435
2634.41901	0.37382
2632.49045	0.37301
2630.56188	0.37219
2628.63332	0.37127
2626.70475	0.37053
2624.77619	0.37039
2622.84762	0.37022
2620.91906	0.36927
2618.99049	0.36785
2617.06193	0.36670
2615.13337	0.36584
2613.20480	0.36478
2611.27624	0.36355
2609.34767	0.36236
2607.41911	0.36113
2605.49054	0.35972
2603.56198	0.35824
2601.63342	0.35671
2599.70485	0.35477
2597.77629	0.35260
2595.84772	0.35080
2593.91916	0.34921
2591.99059	0.34749
2590.06203	0.34573
2588.13346	0.34392
2586.20490	0.34218
2584.27634	0.34081
2582.34777	0.34002
2580.41921	0.33975
2578.49064	0.33942
2576.56208	0.33859
2574.63351	0.33760
2572.70495	0.33693
2570.77638	0.33646
2568.84782	0.33608
2566.91926	0.33585
2564.99069	0.33570
2563.06213	0.33544
2561.13356	0.33504
2559.20500	0.33435
2557.27643	0.33332
2555.34787	0.33227
2553.41930	0.33154
2551.49074	0.33095
2549.56218	0.33000
2547.63361	0.32870
2545.70505	0.32749
2543.77648	0.32639
2541.84792	0.32511
2539.91935	0.32357
2537.99079	0.32202
2536.06222	0.32076
2534.13366	0.31994
2532.20510	0.31929
2530.27653	0.31842
2528.34797	0.31729
2526.41940	0.31593
2524.49084	0.31459
2522.56227	0.31364
2520.63371	0.31295
2518.70514	0.31216
2516.77658	0.31099
2514.84802	0.30938
2512.91945	0.30778
2510.99089	0.30651
2509.06232	0.30522
2507.13376	0.30371
2505.20519	0.30223
2503.27663	0.30099
2501.34806	0.29995
2499.41950	0.29886
2497.49094	0.29755
2495.56237	0.29636
2493.63381	0.29561
2491.70524	0.29515
2489.77668	0.29489
2487.84811	0.29499
2485.91955	0.29526
2483.99098	0.29524
2482.06242	0.29493
2480.13386	0.29467
2478.20529	0.29479
2476.27673	0.29528
2474.34816	0.29570
2472.41960	0.29566
2470.49103	0.29529
2468.56247	0.29487
2466.63391	0.29434
2464.70534	0.29353
2462.77678	0.29256
2460.84821	0.29143
2458.91965	0.29006
2456.99108	0.28853
2455.06252	0.28694
2453.13395	0.28537
2451.20539	0.28362
2449.27683	0.28168
2447.34826	0.27989
2445.41970	0.27829
2443.49113	0.27685
2441.56257	0.27576
2439.63400	0.27491
2437.70544	0.27404
2435.77687	0.27308
2433.84831	0.27202
2431.91975	0.27091
2429.99118	0.26988
2428.06262	0.26907
2426.13405	0.26832
2424.20549	0.26735
2422.27692	0.26631
2420.34836	0.26535
2418.41979	0.26417
2416.49123	0.26287
2414.56267	0.26172
2412.63410	0.26051
2410.70554	0.25920
2408.77697	0.25801
2406.84841	0.25696
2404.91984	0.25610
2402.99128	0.25542
2401.06271	0.25457
2399.13415	0.25369
2397.20559	0.25336
2395.27702	0.25357
2393.34846	0.25398
2391.41989	0.25444
2389.49133	0.25477
2387.56276	0.25501
2385.63420	0.25523
2383.70563	0.25534
2381.77707	0.25549
2379.84851	0.25600
2377.91994	0.25652
2375.99138	0.25665
2374.06281	0.25658
2372.13425	0.25689
2370.20568	0.25774
2368.27712	0.25813
2366.34855	0.25704
2364.41999	0.25520
2362.49143	0.25446
2360.56286	0.25470
2358.63430	0.25427
2356.70573	0.25312
2354.77717	0.25195
2352.84860	0.25010
2350.92004	0.24741
2348.99147	0.24516
2347.06291	0.24420
2345.13435	0.24454
2343.20578	0.24575
2341.27722	0.24698
2339.34865	0.24731
2337.42009	0.24689
2335.49152	0.24677
2333.56296	0.24719
2331.63440	0.24760
2329.70583	0.24741
2327.77727	0.24635
2325.84870	0.24505
2323.92014	0.24412
2321.99157	0.24318
2320.06301	0.24147
2318.13444	0.23922
2316.20588	0.23720
2314.27732	0.23564
2312.34875	0.23431
2310.42019	0.23295
2308.49162	0.23172
2306.56306	0.23074
2304.63449	0.22965
2302.70593	0.22837
2300.77736	0.22734
2298.84880	0.22664
2296.92024	0.22609
2294.99167	0.22559
2293.06311	0.22508
2291.13454	0.22453
2289.20598	0.22395
2287.27741	0.22332
2285.34885	0.22263
2283.42028	0.22184
2281.49172	0.22098
2279.56316	0.22021
2277.63459	0.21957
2275.70603	0.21898
2273.77746	0.21851
2271.84890	0.21820
2269.92033	0.21792
2267.99177	0.21764
2266.06320	0.21740
2264.13464	0.21720
2262.20608	0.21709
2260.27751	0.21701
2258.34895	0.21689
2256.42038	0.21685
2254.49182	0.21699
2252.56325	0.21713
2250.63469	0.21710
2248.70612	0.21695
2246.77756	0.21684
2244.84900	0.21680
2242.92043	0.21667
2240.99187	0.21636
2239.06330	0.21599
2237.13474	0.21560
2235.20617	0.21509
2233.27761	0.21435
2231.34904	0.21355
2229.42048	0.21277
2227.49192	0.21205
2225.56335	0.21147
2223.63479	0.21092
2221.70622	0.21029
2219.77766	0.20969
2217.84909	0.20915
2215.92053	0.20853
2213.99196	0.20786
2212.06340	0.20721
2210.13484	0.20655
2208.20627	0.20588
2206.27771	0.20528
2204.34914	0.20478
2202.42058	0.20442
2200.49201	0.20417
2198.56345	0.20394
2196.63488	0.20360
2194.70632	0.20323
2192.77776	0.20302
2190.84919	0.20285
2188.92063	0.20252
2186.99206	0.20227
2185.06350	0.20243
2183.13493	0.20279
2181.20637	0.20282
2179.27781	0.20256
2177.34924	0.20241
2175.42068	0.20243
2173.49211	0.20251
2171.56355	0.20258
2169.63498	0.20246
2167.70642	0.20199
2165.77785	0.20127
2163.84929	0.20055
2161.92073	0.19988
2159.99216	0.19911
2158.06360	0.19822
2156.13503	0.19743
2154.20647	0.19674
2152.27790	0.19604
2150.34934	0.19534
2148.42077	0.19483
2146.49221	0.19460
2144.56365	0.19456
2142.63508	0.19460
2140.70652	0.19467
2138.77795	0.19487
2136.84939	0.19532
2134.92082	0.19588
2132.99226	0.19632
2131.06369	0.19666
2129.13513	0.19701
2127.20657	0.19745
2125.27800	0.19784
2123.34944	0.19790
2121.42087	0.19771
2119.49231	0.19746
2117.56374	0.19694
2115.63518	0.19605
2113.70661	0.19515
2111.77805	0.19423
2109.84949	0.19303
2107.92092	0.19162
2105.99236	0.19011
2104.06379	0.18863
2102.13523	0.18729
2100.20666	0.18611
2098.27810	0.18511
2096.34953	0.18434
2094.42097	0.18368
2092.49241	0.18321
2090.56384	0.18297
2088.63528	0.18271
2086.70671	0.18244
2084.77815	0.18232
2082.84958	0.18233
2080.92102	0.18242
2078.99245	0.18250
2077.06389	0.18250
2075.13533	0.18244
2073.20676	0.18230
2071.27820	0.18211
2069.34963	0.18185
2067.42107	0.18158
2065.49250	0.18133
2063.56394	0.18095
2061.63537	0.18040
2059.70681	0.17990
2057.77825	0.17949
2055.84968	0.17911
2053.92112	0.17869
2051.99255	0.17842
2050.06399	0.17832
2048.13542	0.17819
2046.20686	0.17801
2044.27830	0.17794
2042.34973	0.17796
2040.42117	0.17778
2038.49260	0.17732
2036.56404	0.17673
2034.63547	0.17602
2032.70691	0.17508
2030.77834	0.17390
2028.84978	0.17255
2026.92122	0.17103
2024.99265	0.16932
2023.06409	0.16741
2021.13552	0.16531
2019.20696	0.16338
2017.27839	0.16174
2015.34983	0.16021
2013.42126	0.15877
2011.49270	0.15756
2009.56414	0.15671
2007.63557	0.15641
2005.70701	0.15669
2003.77844	0.15734
2001.84988	0.15801
1999.92131	0.15860
1997.99275	0.15928
1996.06418	0.16014
1994.13562	0.16123
1992.20706	0.16253
1990.27849	0.16363
1988.34993	0.16448
1986.42136	0.16518
1984.49280	0.16563
1982.56423	0.16591
1980.63567	0.16604
1978.70710	0.16600
1976.77854	0.16578
1974.84998	0.16523
1972.92141	0.16441
1970.99285	0.16346
1969.06428	0.16256
1967.13572	0.16168
1965.20715	0.16057
1963.27859	0.15924
1961.35002	0.15795
1959.42146	0.15672
1957.49290	0.15551
1955.56433	0.15432
1953.63577	0.15295
1951.70720	0.15134
1949.77864	0.14970
1947.85007	0.14816
1945.92151	0.14673
1943.99294	0.14562
1942.06438	0.14466
1940.13582	0.14329
1938.20725	0.14180
1936.27869	0.14071
1934.35012	0.13996
1932.42156	0.13928
1930.49299	0.13863
1928.56443	0.13820
1926.63586	0.13804
1924.70730	0.13816
1922.77874	0.13856
1920.85017	0.13886
1918.92161	0.13943
1916.99304	0.14054
1915.06448	0.14137
1913.13591	0.14202
1911.20735	0.14306
1909.27878	0.14431
1907.35022	0.14517
1905.42166	0.14559
1903.49309	0.14592
1901.56453	0.14633
1899.63596	0.14677
1897.70740	0.14714
1895.77883	0.14756
1893.85027	0.14785
1891.92171	0.14790
1889.99314	0.14793
1888.06458	0.14757
1886.13601	0.14672
1884.20745	0.14576
1882.27888	0.14471
1880.35032	0.14352
1878.42175	0.14225
1876.49319	0.14093
1874.56463	0.13948
1872.63606	0.13795
1870.70750	0.13689
1868.77893	0.13658
1866.85037	0.13568
1864.92180	0.13388
1862.99324	0.13221
1861.06467	0.13094
1859.13611	0.12987
1857.20755	0.12887
1855.27898	0.12799
1853.35042	0.12723
1851.42185	0.12669
1849.49329	0.12651
1847.56472	0.12658
1845.63616	0.12713
1843.70759	0.12823
1841.77903	0.12850
1839.85047	0.12808
1837.92190	0.12808
1835.99334	0.12859
1834.06477	0.12905
1832.13621	0.12967
1830.20764	0.13113
1828.27908	0.13244
1826.35051	0.13300
1824.42195	0.13363
1822.49339	0.13381
1820.56482	0.13335
1818.63626	0.13308
1816.70769	0.13316
1814.77913	0.13323
1812.85056	0.13325
1810.92200	0.13333
1808.99343	0.13309
1807.06487	0.13242
1805.13631	0.13179
1803.20774	0.13153
1801.27918	0.13187
1799.35061	0.13222
1797.42205	0.13213
1795.49348	0.13210
1793.56492	0.13290
1791.63635	0.13443
1789.70779	0.13467
1787.77923	0.13407
1785.85066	0.13406
1783.92210	0.13482
1781.99353	0.13590
1780.06497	0.13687
1778.13640	0.13728
1776.20784	0.13729
1774.27927	0.13811
1772.35071	0.14068
1770.42215	0.14297
1768.49358	0.14390
1766.56502	0.14451
1764.63645	0.14540
1762.70789	0.14795
1760.77932	0.15220
1758.85076	0.15628
1756.92220	0.16121
1754.99363	0.16634
1753.06507	0.17122
1751.13650	0.17920
1749.20794	0.19063
1747.27937	0.20028
1745.35081	0.20745
1743.42224	0.21364
1741.49368	0.21952
1739.56512	0.22532
1737.63655	0.22932
1735.70799	0.23231
1733.77942	0.23765
1731.85086	0.24173
1729.92229	0.24365
1727.99373	0.24601
1726.06516	0.24916
1724.13660	0.25400
1722.20804	0.25928
1720.27947	0.26419
1718.35091	0.27340
1716.42234	0.29030
1714.49378	0.30352
1712.56521	0.31305
1710.63665	0.32410
1708.70808	0.33792
1706.77952	0.35913
1704.85096	0.38817
1702.92239	0.41491
1700.99383	0.45268
1699.06526	0.51424
1697.13670	0.57428
1695.20813	0.63457
1693.27957	0.68028
1691.35100	0.71759
1689.42244	0.76498
1687.49388	0.81070
1685.56531	0.85795
1683.63675	0.93672
1681.70818	0.99724
1679.77962	1.03052
1677.85105	1.06199
1675.92249	1.10093
1673.99392	1.14423
1672.06536	1.17744
1670.13680	1.20964
1668.20823	1.24663
1666.27967	1.26997
1664.35110	1.28795
1662.42254	1.30990
1660.49397	1.32699
1658.56541	1.33495
1656.63684	1.33765
1654.70828	1.34287
1652.77972	1.34927
1650.85115	1.34709
1648.92259	1.34309
1646.99402	1.33352
1645.06546	1.32277
1643.13689	1.31567
1641.20833	1.30954
1639.27976	1.30109
1637.35120	1.29054
1635.42264	1.28017
1633.49407	1.26931
1631.56551	1.25611
1629.63694	1.23879
1627.70838	1.22039
1625.77981	1.20179
1623.85125	1.17471
1621.92269	1.14112
1619.99412	1.11386
1618.06556	1.08262
1616.13699	1.03618
1614.20843	0.99799
1612.27986	0.96932
1610.35130	0.94066
1608.42273	0.91324
1606.49417	0.89123
1604.56561	0.87473
1602.63704	0.86183
1600.70848	0.85273
1598.77991	0.84787
1596.85135	0.84616
1594.92278	0.84579
1592.99422	0.84649
1591.06565	0.84966
1589.13709	0.85590
1587.20853	0.86461
1585.27996	0.87528
1583.35140	0.88889
1581.42283	0.90461
1579.49427	0.91947
1577.56570	0.93677
1575.63714	0.96153
1573.70857	0.97969
1571.78001	0.99287
1569.85145	1.01390
1567.92288	1.03693
1565.99432	1.05366
1564.06575	1.07011
1562.13719	1.08428
1560.20862	1.10163
1558.28006	1.13674
1556.35149	1.15241
1554.42293	1.15688
1552.49437	1.16115
1550.56580	1.16312
1548.63724	1.16084
1546.70867	1.15653
1544.78011	1.15267
1542.85154	1.14842
1540.92298	1.13307
1538.99441	1.10835
1537.06585	1.09661
1535.13729	1.08696
1533.20872	1.07333
1531.28016	1.06096
1529.35159	1.05172
1527.42303	1.04175
1525.49446	1.03109
1523.56590	1.02224
1521.63733	1.01415
1519.70877	1.00861
1517.78021	1.00073
1515.85164	0.98354
1513.92308	0.96146
1511.99451	0.93991
1510.06595	0.92114
1508.13738	0.89521
1506.20882	0.84711
1504.28025	0.81936
1502.35169	0.80341
1500.42313	0.78648
1498.49456	0.76548
1496.56600	0.74044
1494.63743	0.72017
1492.70887	0.70616
1490.78030	0.69117
1488.85174	0.67252
1486.92317	0.65799
1484.99461	0.64891
1483.06605	0.64347
1481.13748	0.64136
1479.20892	0.64270
1477.28035	0.64833
1475.35179	0.66000
1473.42322	0.68079
1471.49466	0.70306
1469.56610	0.71458
1467.63753	0.72203
1465.70897	0.73220
1463.78040	0.74386
1461.85184	0.75130
1459.92327	0.75668
1457.99471	0.76695
1456.06614	0.77976
1454.13758	0.78299
1452.20902	0.78232
1450.28045	0.78144
1448.35189	0.78051
1446.42332	0.77805
1444.49476	0.77403
1442.56619	0.76909
1440.63763	0.76367
1438.70906	0.75792
1436.78050	0.75026
1434.85194	0.74057
1432.92337	0.73167
1430.99481	0.72389
1429.06624	0.71787
1427.13768	0.71479
1425.20911	0.71516
1423.28055	0.71865
1421.35198	0.72344
1419.42342	0.73025
1417.49486	0.73732
1415.56629	0.74043
1413.63773	0.74230
1411.70916	0.74487
1409.78060	0.74765
1407.85203	0.74988
1405.92347	0.75250
1403.99490	0.75592
1402.06634	0.75857
1400.13778	0.76002
1398.20921	0.76017
1396.28065	0.75926
1394.35208	0.75786
1392.42352	0.75668
1390.49495	0.75678
1388.56639	0.76045
1386.63782	0.76876
1384.70926	0.77723
1382.78070	0.78373
1380.85213	0.78837
1378.92357	0.78956
1376.99500	0.78587
1375.06644	0.77683
1373.13787	0.76417
1371.20931	0.75119
1369.28074	0.73670
1367.35218	0.72020
1365.42362	0.70488
1363.49505	0.69096
1361.56649	0.67831
1359.63792	0.66883
1357.70936	0.66223
1355.78079	0.65772
1353.85223	0.65468
1351.92366	0.65189
1349.99510	0.64887
1348.06654	0.64629
1346.13797	0.64449
1344.20941	0.64337
1342.28084	0.64306
1340.35228	0.64380
1338.42371	0.64578
1336.49515	0.64925
1334.56659	0.65465
1332.63802	0.66238
1330.70946	0.67182
1328.78089	0.68077
1326.85233	0.68779
1324.92376	0.69352
1322.99520	0.69884
1321.06663	0.70415
1319.13807	0.70973
1317.20951	0.71500
1315.28094	0.71933
1313.35238	0.72293
1311.42381	0.72528
1309.49525	0.72588
1307.56668	0.72501
1305.63812	0.72289
1303.70955	0.71987
1301.78099	0.71600
1299.85243	0.71063
1297.92386	0.70346
1295.99530	0.69546
1294.06673	0.68824
1292.13817	0.68266
1290.20960	0.67846
1288.28104	0.67516
1286.35247	0.67240
1284.42391	0.67002
1282.49535	0.66823
1280.56678	0.66711
1278.63822	0.66642
1276.70965	0.66627
1274.78109	0.66698
1272.85252	0.66895
1270.92396	0.67250
1268.99539	0.67718
1267.06683	0.68215
1265.13827	0.68669
1263.20970	0.69022
1261.28114	0.69244
1259.35257	0.69356
1257.42401	0.69431
1255.49544	0.69563
1253.56688	0.69801
1251.63831	0.70098
1249.70975	0.70381
1247.78119	0.70643
1245.85262	0.70928
1243.92406	0.71248
1241.99549	0.71549
1240.06693	0.71777
1238.13836	0.71906
1236.20980	0.71929
1234.28123	0.71857
1232.35267	0.71658
1230.42411	0.71281
1228.49554	0.70777
1226.56698	0.70211
1224.63841	0.69551
1222.70985	0.68738
1220.78128	0.67815
1218.85272	0.66892
1216.92415	0.66051
1214.99559	0.65366
1213.06703	0.64877
1211.13846	0.64545
1209.20990	0.64308
1207.28133	0.64065
1205.35277	0.63658
1203.42420	0.62980
1201.49564	0.62076
1199.56708	0.61043
1197.63851	0.59897
1195.70995	0.58704
1193.78138	0.57621
1191.85282	0.56735
1189.92425	0.56028
1187.99569	0.55459
1186.06712	0.55039
1184.13856	0.54822
1182.21000	0.54854
1180.28143	0.55162
1178.35287	0.55755
1176.42430	0.56605
1174.49574	0.57655
1172.56717	0.58855
1170.63861	0.60211
1168.71004	0.61817
1166.78148	0.63749
1164.85292	0.65928
1162.92435	0.68111
1160.99579	0.69996
1159.06722	0.71327
1157.13866	0.71956
1155.21009	0.71913
1153.28153	0.71337
1151.35296	0.70372
1149.42440	0.69125
1147.49584	0.67707
1145.56727	0.66285
1143.63871	0.65023
1141.71014	0.64063
1139.78158	0.63502
1137.85301	0.63328
1135.92445	0.63479
1133.99588	0.63967
1132.06732	0.64833
1130.13876	0.66025
1128.21019	0.67494
1126.28163	0.69202
1124.35306	0.70945
1122.42450	0.72531
1120.49593	0.73979
1118.56737	0.75280
1116.63880	0.76343
1114.71024	0.77137
1112.78168	0.77620
1110.85311	0.77747
1108.92455	0.77635
1106.99598	0.77519
1105.06742	0.77509
1103.13885	0.77532
1101.21029	0.77572
1099.28172	0.77777
1097.35316	0.78227
1095.42460	0.78882
1093.49603	0.79825
1091.56747	0.81239
1089.63890	0.83121
1087.71034	0.85309
1085.78177	0.87656
1083.85321	0.89895
1081.92464	0.91678
1079.99608	0.92931
1078.06752	0.93622
1076.13895	0.93593
1074.21039	0.92884
1072.28182	0.91723
1070.35326	0.90407
1068.42469	0.89141
1066.49613	0.87924
1064.56756	0.86746
1062.63900	0.85660
1060.71044	0.84670
1058.78187	0.83722
1056.85331	0.82824
1054.92474	0.82087
1052.99618	0.81522
1051.06761	0.81023
1049.13905	0.80563
1047.21049	0.80291
1045.28192	0.80400
1043.35336	0.80883
1041.42479	0.81613
1039.49623	0.82468
1037.56766	0.83248
1035.63910	0.83770
1033.71053	0.84011
1031.78197	0.84001
1029.85341	0.83681
1027.92484	0.82955
1025.99628	0.81872
1024.06771	0.80688
1022.13915	0.79662
1020.21058	0.78909
1018.28202	0.78384
1016.35345	0.77851
1014.42489	0.77126
1012.49633	0.76165
1010.56776	0.74913
1008.63920	0.73399
1006.71063	0.71788
1004.78207	0.70219
1002.85350	0.68765
1000.92494	0.67465
998.99637	0.66356
997.06781	0.65402
995.13925	0.64508
993.21068	0.63567
991.28212	0.62415
989.35355	0.60934
987.42499	0.59193
985.49642	0.57369
983.56786	0.55622
981.63929	0.54045
979.71073	0.52707
977.78217	0.51615
975.85360	0.50673
973.92504	0.49757
971.99647	0.48737
970.06791	0.47517
968.13934	0.46166
966.21078	0.44858
964.28221	0.43703
962.35365	0.42794
960.42509	0.42306
958.49652	0.42339
956.56796	0.42640
954.63939	0.42736
952.71083	0.42394
950.78226	0.41699
948.85370	0.40827
946.92513	0.39991
944.99657	0.39364
943.06801	0.38972
941.13944	0.38762
939.21088	0.38692
937.28231	0.38741
935.35375	0.38903
933.42518	0.39189
931.49662	0.39607
929.56805	0.40133
927.63949	0.40726
925.71093	0.41374
923.78236	0.42073
921.85380	0.42711
919.92523	0.43114
917.99667	0.43187
916.06810	0.42979
914.13954	0.42614
912.21098	0.42169
910.28241	0.41678
908.35385	0.41192
906.42528	0.40767
904.49672	0.40459
902.56815	0.40297
900.63959	0.40241
898.71102	0.40217
896.78246	0.40165
894.85390	0.40069
892.92533	0.39973
890.99677	0.39887
889.06820	0.39776
887.13964	0.39649
885.21107	0.39540
883.28251	0.39429
881.35394	0.39235
879.42538	0.38945
877.49682	0.38613
875.56825	0.38270
873.63969	0.37906
871.71112	0.37495
869.78256	0.37061
867.85399	0.36694
865.92543	0.36432
863.99686	0.36276
862.06830	0.36241
860.13974	0.36309
858.21117	0.36454
856.28261	0.36700
854.35404	0.37092
852.42548	0.37636
850.49691	0.38254
848.56835	0.38875
846.63978	0.39526
844.71122	0.40292
842.78266	0.41210
840.85409	0.42185
838.92553	0.43114
836.99696	0.43955
835.06840	0.44657
833.13983	0.45170
831.21127	0.45482
829.28270	0.45593
827.35414	0.45450
825.42558	0.45026
823.49701	0.44432
821.56845	0.43740
819.63988	0.42973
817.71132	0.42255
815.78275	0.41677
813.85419	0.41217
811.92562	0.40892
809.99706	0.40756
808.06850	0.40801
806.13993	0.40952
804.21137	0.41153
802.28280	0.41424
800.35424	0.41775
798.42567	0.42167
796.49711	0.42557
794.56854	0.42914
792.63998	0.43218
790.71142	0.43474
788.78285	0.43688
786.85429	0.43842
784.92572	0.43917
782.99716	0.43873
781.06859	0.43736
779.14003	0.43607
777.21147	0.43527
775.28290	0.43501
773.35434	0.43528
771.42577	0.43588
769.49721	0.43665
767.56864	0.43764
765.64008	0.43962
763.71151	0.44280
761.78295	0.44663
759.85439	0.45126
757.92582	0.45712
755.99726	0.46411
754.06869	0.47215
752.14013	0.48102
750.21156	0.49002
748.28300	0.49861
746.35443	0.50645
744.42587	0.51299
742.49731	0.51769
740.56874	0.51984
738.64018	0.51917
736.71161	0.51663
734.78305	0.51343
732.85448	0.51002
730.92592	0.50639
728.99735	0.50262
727.06879	0.49930
725.14023	0.49699
723.21166	0.49599
721.28310	0.49684
719.35453	0.49902
717.42597	0.50132
715.49740	0.50436
713.56884	0.50950
711.64027	0.51685
709.71171	0.52528
707.78315	0.53343
705.85458	0.54100
703.92602	0.54781
701.99745	0.55298
700.06889	0.55637
698.14032	0.55831
696.21176	0.55858
694.28319	0.55726
692.35463	0.55476
690.42607	0.55104
688.49750	0.54657
686.56894	0.54250
684.64037	0.53869
682.71181	0.53423
680.78324	0.52959
678.85468	0.52557
676.92611	0.52214
674.99755	0.51943
673.06899	0.51800
671.14042	0.51873
669.21186	0.52126
667.28329	0.52160
665.35473	0.52055
663.42616	0.52183
661.49760	0.52551
659.56903	0.53089
657.64047	0.53681
655.71191	0.54136
653.78334	0.54463
651.85478	0.54831
649.92621	0.55196
647.99765	0.55402
646.06908	0.55524
644.14052	0.55727
642.21195	0.55976
640.28339	0.56163
638.35483	0.56241
636.42626	0.56203
634.49770	0.56117
632.56913	0.56060
630.64057	0.56030
628.71200	0.56079
626.78344	0.56266
624.85488	0.56465
622.92631	0.56599
620.99775	0.56766
619.06918	0.56961
617.14062	0.57114
615.21205	0.57213
613.28349	0.57264
611.35492	0.57293
609.42636	0.57324
607.49780	0.57376
605.56923	0.57523
603.64067	0.57784
601.71210	0.58050
599.78354	0.58201
