3997.91406	0.78347
3995.98550	0.78327
3994.05693	0.78306
3992.12837	0.78310
3990.19980	0.78416
3988.27124	0.78607
3986.34268	0.78748
3984.41411	0.78553
3982.48555	0.78053
3980.55698	0.77786
3978.62842	0.77981
3976.69985	0.78225
3974.77129	0.78180
3972.84272	0.77959
3970.91416	0.77773
3968.98560	0.77647
3967.05703	0.77583
3965.12847	0.77578
3963.19990	0.77459
3961.27134	0.77330
3959.34277	0.77502
3957.41421	0.77767
3955.48564	0.77812
3953.55708	0.77766
3951.62852	0.77850
3949.69995	0.77976
3947.77139	0.77986
3945.84282	0.77877
3943.91426	0.77506
3941.98569	0.77062
3940.05713	0.76921
3938.12856	0.76940
3936.20000	0.77074
3934.27144	0.77267
3932.34287	0.77275
3930.41431	0.77250
3928.48574	0.77337
3926.55718	0.77239
3924.62861	0.76895
3922.70005	0.76796
3920.77148	0.77042
3918.84292	0.77117
3916.91436	0.76823
3914.98579	0.76644
3913.05723	0.76697
3911.12866	0.76708
3909.20010	0.76854
3907.27153	0.77402
3905.34297	0.77773
3903.41440	0.77036
3901.48584	0.76035
3899.55728	0.75651
3897.62871	0.75582
3895.70015	0.75796
3893.77158	0.76039
3891.84302	0.75753
3889.91445	0.75614
3887.98589	0.76138
3886.05733	0.76623
3884.12876	0.76773
3882.20020	0.76565
3880.27163	0.75619
3878.34307	0.74964
3876.41450	0.75147
3874.48594	0.75465
3872.55737	0.75319
3870.62881	0.74571
3868.70025	0.74136
3866.77168	0.74592
3864.84312	0.75142
3862.91455	0.75256
3860.98599	0.75180
3859.05742	0.75275
3857.12886	0.75934
3855.20029	0.77061
3853.27173	0.76597
3851.34317	0.74902
3849.41460	0.74453
3847.48604	0.74761
3845.55747	0.75210
3843.62891	0.75355
3841.70034	0.75270
3839.77178	0.75107
3837.84321	0.74650
3835.91465	0.74279
3833.98609	0.74336
3832.05752	0.74651
3830.12896	0.74969
3828.20039	0.75041
3826.27183	0.74768
3824.34326	0.74565
3822.41470	0.74583
3820.48613	0.74487
3818.55757	0.74425
3816.62901	0.74126
3814.70044	0.73687
3812.77188	0.73714
3810.84331	0.74033
3808.91475	0.74410
3806.98618	0.74564
3805.05762	0.74542
3803.12905	0.74247
3801.20049	0.73304
3799.27193	0.72922
3797.34336	0.73030
3795.41480	0.72936
3793.48623	0.72984
3791.55767	0.73162
3789.62910	0.73179
3787.70054	0.73138
3785.77197	0.73140
3783.84341	0.73159
3781.91485	0.73217
3779.98628	0.73039
3778.05772	0.72637
3776.12915	0.72507
3774.20059	0.72607
3772.27202	0.72675
3770.34346	0.72601
3768.41489	0.72584
3766.48633	0.72593
3764.55777	0.72536
3762.62920	0.72665
3760.70064	0.72874
3758.77207	0.72906
3756.84351	0.72909
3754.91494	0.73064
3752.98638	0.73390
3751.05781	0.73668
3749.12925	0.73859
3747.20069	0.74106
3745.27212	0.73503
3743.34356	0.72323
3741.41499	0.72356
3739.48643	0.73213
3737.55786	0.74060
3735.62930	0.73885
3733.70074	0.72538
3731.77217	0.71848
3729.84361	0.72027
3727.91504	0.72265
3725.98648	0.72058
3724.05791	0.71840
3722.12935	0.72084
3720.20078	0.72177
3718.27222	0.71953
3716.34366	0.71948
3714.41509	0.72229
3712.48653	0.72271
3710.55796	0.71707
3708.62940	0.71213
3706.70083	0.71105
3704.77227	0.71296
3702.84370	0.71473
3700.91514	0.71379
3698.98658	0.71288
3697.05801	0.71349
3695.12945	0.71541
3693.20088	0.71849
3691.27232	0.72118
3689.34375	0.72009
3687.41519	0.71773
3685.48662	0.71842
3683.55806	0.72034
3681.62950	0.72220
3679.70093	0.72550
3677.77237	0.73072
3675.84380	0.73230
3673.91524	0.73198
3671.98667	0.73596
3670.05811	0.73819
3668.12954	0.73768
3666.20098	0.74012
3664.27242	0.74511
3662.34385	0.75098
3660.41529	0.75608
3658.48672	0.75961
3656.55816	0.76188
3654.62959	0.76591
3652.70103	0.77338
3650.77246	0.77993
3648.84390	0.77681
3646.91534	0.77372
3644.98677	0.77816
3643.05821	0.78544
3641.12964	0.79161
3639.20108	0.79493
3637.27251	0.79681
3635.34395	0.79937
3633.41538	0.80443
3631.48682	0.81108
3629.55826	0.81409
3627.62969	0.81468
3625.70113	0.82198
3623.77256	0.83211
3621.84400	0.83873
3619.91543	0.83888
3617.98687	0.84126
3616.05830	0.84944
3614.12974	0.85531
3612.20118	0.86176
3610.27261	0.87127
3608.34405	0.87501
3606.41548	0.87409
3604.48692	0.87738
3602.55835	0.88507
3600.62979	0.89399
3598.70123	0.90033
3596.77266	0.90330
3594.84410	0.90671
3592.91553	0.91279
3590.98697	0.92025
3589.05840	0.92950
3587.12984	0.94077
3585.20127	0.95003
3583.27271	0.95461
3581.34415	0.95591
3579.41558	0.95668
3577.48702	0.95789
3575.55845	0.96121
3573.62989	0.96904
3571.70132	0.98063
3569.77276	0.99289
3567.84419	1.00211
3565.91563	1.00698
3563.98707	1.01283
3562.05850	1.02036
3560.12994	1.02712
3558.20137	1.03389
3556.27281	1.04148
3554.34424	1.04655
3552.41568	1.04764
3550.48711	1.05172
3548.55855	1.06292
3546.62999	1.07576
3544.70142	1.08243
3542.77286	1.08425
3540.84429	1.09025
3538.91573	1.10124
3536.98716	1.10951
3535.05860	1.11427
3533.13003	1.11992
3531.20147	1.12582
3529.27291	1.13043
3527.34434	1.13491
3525.41578	1.14198
3523.48721	1.15174
3521.55865	1.16006
3519.63008	1.16466
3517.70152	1.16919
3515.77295	1.17611
3513.84439	1.18430
3511.91583	1.19319
3509.98726	1.20152
3508.05870	1.20938
3506.13013	1.21987
3504.20157	1.22934
3502.27300	1.23209
3500.34444	1.23696
3498.41587	1.24737
3496.48731	1.25558
3494.55875	1.26346
3492.63018	1.27553
3490.70162	1.28835
3488.77305	1.29765
3486.84449	1.30234
3484.91592	1.30522
3482.98736	1.30903
3481.05879	1.31324
3479.13023	1.31698
3477.20167	1.32148
3475.27310	1.32628
3473.34454	1.33011
3471.41597	1.33424
3469.48741	1.33774
3467.55884	1.33954
3465.63028	1.34163
3463.70171	1.34493
3461.77315	1.35234
3459.84459	1.36309
3457.91602	1.36584
3455.98746	1.35978
3454.05889	1.35863
3452.13033	1.36764
3450.20176	1.38086
3448.27320	1.38976
3446.34464	1.39006
3444.41607	1.38497
3442.48751	1.37937
3440.55894	1.38006
3438.63038	1.38913
3436.70181	1.39812
3434.77325	1.39797
3432.84468	1.38871
3430.91612	1.38068
3428.98756	1.38058
3427.05899	1.38367
3425.13043	1.38595
3423.20186	1.38700
3421.27330	1.38673
3419.34473	1.38524
3417.41617	1.38418
3415.48760	1.39007
3413.55904	1.39939
3411.63048	1.39785
3409.70191	1.39064
3407.77335	1.39455
3405.84478	1.40690
3403.91622	1.41303
3401.98765	1.41036
3400.05909	1.40730
3398.13052	1.40882
3396.20196	1.41089
3394.27340	1.40896
3392.34483	1.40812
3390.41627	1.41161
3388.48770	1.41312
3386.55914	1.41065
3384.63057	1.40980
3382.70201	1.41156
3380.77344	1.41301
3378.84488	1.41650
3376.91632	1.42173
3374.98775	1.42513
3373.05919	1.43061
3371.13062	1.44028
3369.20206	1.44730
3367.27349	1.44688
3365.34493	1.44023
3363.41636	1.43094
3361.48780	1.42803
3359.55924	1.43666
3357.63067	1.44658
3355.70211	1.45093
3353.77354	1.45408
3351.84498	1.45379
3349.91641	1.44578
3347.98785	1.43564
3346.05928	1.43400
3344.13072	1.44242
3342.20216	1.45421
3340.27359	1.46497
3338.34503	1.46824
3336.41646	1.46490
3334.48790	1.46613
3332.55933	1.47030
3330.63077	1.46874
3328.70220	1.46130
3326.77364	1.45355
3324.84508	1.45518
3322.91651	1.46991
3320.98795	1.48574
3319.05938	1.49244
3317.13082	1.49351
3315.20225	1.49196
3313.27369	1.49017
3311.34513	1.49283
3309.41656	1.49648
3307.48800	1.49438
3305.55943	1.48824
3303.63087	1.48490
3301.70230	1.48975
3299.77374	1.49889
3297.84517	1.50212
3295.91661	1.50166
3293.98805	1.50714
3292.05948	1.51428
3290.13092	1.50984
3288.20235	1.49480
3286.27379	1.48160
3284.34522	1.47705
3282.41666	1.48073
3280.48809	1.48555
3278.55953	1.48591
3276.63097	1.48588
3274.70240	1.48779
3272.77384	1.48803
3270.84527	1.48622
3268.91671	1.48580
3266.98814	1.48591
3265.05958	1.48054
3263.13101	1.46843
3261.20245	1.45647
3259.27389	1.44969
3257.34532	1.44514
3255.41676	1.43947
3253.48819	1.43488
3251.55963	1.43352
3249.63106	1.43187
3247.70250	1.42424
3245.77393	1.41230
3243.84537	1.40294
3241.91681	1.39563
3239.98824	1.38940
3238.05968	1.39127
3236.13111	1.39715
3234.20255	1.39400
3232.27398	1.38348
3230.34542	1.37327
3228.41685	1.36751
3226.48829	1.36622
3224.55973	1.36360
3222.63116	1.36023
3220.70260	1.36068
3218.77403	1.35919
3216.84547	1.34924
3214.91690	1.33890
3212.98834	1.33769
3211.05977	1.33941
3209.13121	1.33488
3207.20265	1.32766
3205.27408	1.32418
3203.34552	1.32307
3201.41695	1.32135
3199.48839	1.32020
3197.55982	1.31859
3195.63126	1.31266
3193.70269	1.30335
3191.77413	1.29409
3189.84557	1.28697
3187.91700	1.28246
3185.98844	1.27972
3184.05987	1.27929
3182.13131	1.28120
3180.20274	1.28187
3178.27418	1.27776
3176.34562	1.27009
3174.41705	1.26195
3172.48849	1.25355
3170.55992	1.24634
3168.63136	1.24258
3166.70279	1.23850
3164.77423	1.23106
3162.84566	1.22540
3160.91710	1.22580
3158.98854	1.22916
3157.05997	1.23113
3155.13141	1.23047
3153.20284	1.22707
3151.27428	1.22116
3149.34571	1.21315
3147.41715	1.20626
3145.48858	1.20414
3143.56002	1.20307
3141.63146	1.19849
3139.70289	1.19373
3137.77433	1.19273
3135.84576	1.19554
3133.91720	1.19886
3131.98863	1.19803
3130.06007	1.19505
3128.13150	1.19489
3126.20294	1.19641
3124.27438	1.19668
3122.34581	1.19675
3120.41725	1.19877
3118.48868	1.20035
3116.56012	1.19671
3114.63155	1.18914
3112.70299	1.18432
3110.77442	1.18473
3108.84586	1.18488
3106.91730	1.18105
3104.98873	1.17853
3103.06017	1.17995
3101.13160	1.18036
3099.20304	1.17821
3097.27447	1.17589
3095.34591	1.17518
3093.41734	1.17704
3091.48878	1.17817
3089.56022	1.17691
3087.63165	1.17692
3085.70309	1.17813
3083.77452	1.17745
3081.84596	1.17485
3079.91739	1.17089
3077.98883	1.16535
3076.06026	1.16001
3074.13170	1.15736
3072.20314	1.15596
3070.27457	1.15258
3068.34601	1.14729
3066.41744	1.14311
3064.48888	1.14132
3062.56031	1.13987
3060.63175	1.13719
3058.70318	1.13447
3056.77462	1.13205
3054.84606	1.12818
3052.91749	1.12390
3050.98893	1.12071
3049.06036	1.11709
3047.13180	1.11283
3045.20323	1.10859
3043.27467	1.10373
3041.34610	1.09687
3039.41754	1.08796
3037.48898	1.08043
3035.56041	1.07574
3033.63185	1.07132
3031.70328	1.06688
3029.77472	1.06368
3027.84615	1.06089
3025.91759	1.05844
3023.98903	1.05665
3022.06046	1.05477
3020.13190	1.05298
3018.20333	1.05178
3016.27477	1.05059
3014.34620	1.04788
3012.41764	1.04309
3010.48907	1.03867
3008.56051	1.03604
3006.63195	1.03431
3004.70338	1.03300
3002.77482	1.03154
3000.84625	1.02982
2998.91769	1.02814
2996.98912	1.02657
2995.06056	1.02721
2993.13199	1.03147
2991.20343	1.03656
2989.27487	1.03961
2987.34630	1.04198
2985.41774	1.04735
2983.48917	1.05610
2981.56061	1.06495
2979.63204	1.07241
2977.70348	1.07994
2975.77491	1.08859
2973.84635	1.09726
2971.91779	1.10601
2969.98922	1.11613
2968.06066	1.12454
2966.13209	1.12872
2964.20353	1.13234
2962.27496	1.13717
2960.34640	1.14081
2958.41783	1.14150
2956.48927	1.13733
2954.56071	1.12819
2952.63214	1.11817
2950.70358	1.11150
2948.77501	1.11066
2946.84645	1.11552
2944.91788	1.12313
2942.98932	1.13124
2941.06075	1.13924
2939.13219	1.14863
2937.20363	1.16153
2935.27506	1.17492
2933.34650	1.18453
2931.41793	1.19183
2929.48937	1.20025
2927.56080	1.20951
2925.63224	1.21427
2923.70367	1.21232
2921.77511	1.20976
2919.84655	1.20901
2917.91798	1.20331
2915.98942	1.18717
2914.06085	1.16296
2912.13229	1.13782
2910.20372	1.11647
2908.27516	1.09918
2906.34659	1.08648
2904.41803	1.07790
2902.48947	1.07019
2900.56090	1.06312
2898.63234	1.05853
2896.70377	1.05435
2894.77521	1.04844
2892.84664	1.04311
2890.91808	1.04001
2888.98952	1.03705
2887.06095	1.03357
2885.13239	1.03066
2883.20382	1.02787
2881.27526	1.02620
2879.34669	1.02704
2877.41813	1.02836
2875.48956	1.02827
2873.56100	1.02662
2871.63244	1.02343
2869.70387	1.01900
2867.77531	1.01287
2865.84674	1.00593
2863.91818	1.00165
2861.98961	1.00183
2860.06105	1.00563
2858.13248	1.01082
2856.20392	1.01595
2854.27536	1.02239
2852.34679	1.02910
2850.41823	1.02820
2848.48966	1.01272
2846.56110	0.98585
2844.63253	0.95731
2842.70397	0.93360
2840.77540	0.91564
2838.84684	0.90255
2836.91828	0.89315
2834.98971	0.88555
2833.06115	0.87882
2831.13258	0.87276
2829.20402	0.86704
2827.27545	0.86229
2825.34689	0.85859
2823.41832	0.85531
2821.48976	0.85293
2819.56120	0.85108
2817.63263	0.84807
2815.70407	0.84415
2813.77550	0.84067
2811.84694	0.83711
2809.91837	0.83269
2807.98981	0.82829
2806.06124	0.82468
2804.13268	0.82173
2802.20412	0.81918
2800.27555	0.81642
2798.34699	0.81265
2796.41842	0.80774
2794.48986	0.80252
2792.56129	0.79844
2790.63273	0.79608
2788.70416	0.79447
2786.77560	0.79308
2784.84704	0.79216
2782.91847	0.79096
2780.98991	0.78827
2779.06134	0.78457
2777.13278	0.78196
2775.20421	0.78100
2773.27565	0.77937
2771.34708	0.77572
2769.41852	0.77167
2767.48996	0.76844
2765.56139	0.76583
2763.63283	0.76402
2761.70426	0.76247
2759.77570	0.75967
2757.84713	0.75573
2755.91857	0.75190
2753.99001	0.74887
2752.06144	0.74687
2750.13288	0.74597
2748.20431	0.74537
2746.27575	0.74375
2744.34718	0.74154
2742.41862	0.74007
2740.49005	0.73901
2738.56149	0.73718
2736.63293	0.73442
2734.70436	0.73156
2732.77580	0.72926
2730.84723	0.72725
2728.91867	0.72541
2726.99010	0.72381
2725.06154	0.72197
2723.13297	0.71971
2721.20441	0.71729
2719.27585	0.71452
2717.34728	0.71147
2715.41872	0.70881
2713.49015	0.70690
2711.56159	0.70572
2709.63302	0.70517
2707.70446	0.70463
2705.77589	0.70354
2703.84733	0.70226
2701.91877	0.70087
2699.99020	0.69910
2698.06164	0.69756
2696.13307	0.69618
2694.20451	0.69430
2692.27594	0.69241
2690.34738	0.69115
2688.41881	0.69039
2686.49025	0.68908
2684.56169	0.68641
2682.63312	0.68358
2680.70456	0.68215
2678.77599	0.68179
2676.84743	0.68136
2674.91886	0.68018
2672.99030	0.67822
2671.06173	0.67606
2669.13317	0.67431
2667.20461	0.67271
2665.27604	0.67053
2663.34748	0.66818
2661.41891	0.66655
2659.49035	0.66536
2657.56178	0.66407
2655.63322	0.66279
2653.70465	0.66122
2651.77609	0.65920
2649.84753	0.65782
2647.91896	0.65698
2645.99040	0.65547
2644.06183	0.65390
2642.13327	0.65293
2640.20470	0.65213
2638.27614	0.65118
2636.34757	0.64975
2634.41901	0.64852
2632.49045	0.64813
2630.56188	0.64777
2628.63332	0.64705
2626.70475	0.64624
2624.77619	0.64502
2622.84762	0.64310
2620.91906	0.64081
2618.99049	0.63873
2617.06193	0.63685
2615.13337	0.63497
2613.20480	0.63350
2611.27624	0.63274
2609.34767	0.63209
2607.41911	0.63108
2605.49054	0.63004
2603.56198	0.62921
2601.63342	0.62839
2599.70485	0.62745
2597.77629	0.62648
2595.84772	0.62558
2593.91916	0.62469
2591.99059	0.62362
2590.06203	0.62230
2588.13346	0.62084
2586.20490	0.61930
2584.27634	0.61752
2582.34777	0.61544
2580.41921	0.61318
2578.49064	0.61090
2576.56208	0.60899
2574.63351	0.60785
2572.70495	0.60736
2570.77638	0.60691
2568.84782	0.60616
2566.91926	0.60551
2564.99069	0.60532
2563.06213	0.60504
2561.13356	0.60441
2559.20500	0.60357
2557.27643	0.60221
2555.34787	0.60045
2553.41930	0.59894
2551.49074	0.59746
2549.56218	0.59518
2547.63361	0.59232
2545.70505	0.58978
2543.77648	0.58765
2541.84792	0.58571
2539.91935	0.58409
2537.99079	0.58276
2536.06222	0.58163
2534.13366	0.58054
2532.20510	0.57968
2530.27653	0.57930
2528.34797	0.57920
2526.41940	0.57896
2524.49084	0.57846
2522.56227	0.57779
2520.63371	0.57686
2518.70514	0.57560
2516.77658	0.57431
2514.84802	0.57323
2512.91945	0.57214
2510.99089	0.57070
2509.06232	0.56911
2507.13376	0.56761
2505.20519	0.56608
2503.27663	0.56472
2501.34806	0.56380
2499.41950	0.56294
2497.49094	0.56167
2495.56237	0.56029
2493.63381	0.55953
2491.70524	0.55926
2489.77668	0.55871
2487.84811	0.55795
2485.91955	0.55760
2483.99098	0.55747
2482.06242	0.55668
2480.13386	0.55506
2478.20529	0.55318
2476.27673	0.55137
2474.34816	0.54966
2472.41960	0.54805
2470.49103	0.54650
2468.56247	0.54507
2466.63391	0.54346
2464.70534	0.54103
2462.77678	0.53842
2460.84821	0.53662
2458.91965	0.53534
2456.99108	0.53379
2455.06252	0.53186
2453.13395	0.53008
2451.20539	0.52886
2449.27683	0.52809
2447.34826	0.52724
2445.41970	0.52565
2443.49113	0.52340
2441.56257	0.52153
2439.63400	0.52043
2437.70544	0.51924
2435.77687	0.51742
2433.84831	0.51559
2431.91975	0.51414
2429.99118	0.51266
2428.06262	0.51128
2426.13405	0.51020
2424.20549	0.50895
2422.27692	0.50748
2420.34836	0.50624
2418.41979	0.50530
2416.49123	0.50460
2414.56267	0.50385
2412.63410	0.50299
2410.70554	0.50238
2408.77697	0.50175
2406.84841	0.50107
2404.91984	0.50081
2402.99128	0.50064
2401.06271	0.49985
2399.13415	0.49850
2397.20559	0.49712
2395.27702	0.49607
2393.34846	0.49555
2391.41989	0.49536
2389.49133	0.49478
2387.56276	0.49359
2385.63420	0.49250
2383.70563	0.49176
2381.77707	0.49106
2379.84851	0.49041
2377.91994	0.48982
2375.99138	0.48905
2374.06281	0.48792
2372.13425	0.48647
2370.20568	0.48524
2368.27712	0.48497
2366.34855	0.48516
2364.41999	0.48438
2362.49143	0.48255
2360.56286	0.48024
2358.63430	0.47727
2356.70573	0.47464
2354.77717	0.47412
2352.84860	0.47381
2350.92004	0.47199
2348.99147	0.47035
2347.06291	0.46945
2345.13435	0.46804
2343.20578	0.46593
2341.27722	0.46437
2339.34865	0.46285
2337.42009	0.46107
2335.49152	0.46035
2333.56296	0.46114
2331.63440	0.46243
2329.70583	0.46274
2327.77727	0.46183
2325.84870	0.46106
2323.92014	0.46051
2321.99157	0.45929
2320.06301	0.45790
2318.13444	0.45674
2316.20588	0.45557
2314.27732	0.45450
2312.34875	0.45340
2310.42019	0.45200
2308.49162	0.45061
2306.56306	0.44933
2304.63449	0.44772
2302.70593	0.44619
2300.77736	0.44555
2298.84880	0.44558
2296.92024	0.44532
2294.99167	0.44439
2293.06311	0.44325
2291.13454	0.44240
2289.20598	0.44181
2287.27741	0.44130
2285.34885	0.44074
2283.42028	0.44011
2281.49172	0.43936
2279.56316	0.43855
2277.63459	0.43779
2275.70603	0.43694
2273.77746	0.43585
2271.84890	0.43465
2269.92033	0.43350
2267.99177	0.43233
2266.06320	0.43102
2264.13464	0.42951
2262.20608	0.42784
2260.27751	0.42618
2258.34895	0.42449
2256.42038	0.42264
2254.49182	0.42102
2252.56325	0.41982
2250.63469	0.41842
2248.70612	0.41666
2246.77756	0.41516
2244.84900	0.41408
2242.92043	0.41326
2240.99187	0.41255
2239.06330	0.41171
2237.13474	0.41074
2235.20617	0.40996
2233.27761	0.40955
2231.34904	0.40908
2229.42048	0.40849
2227.49192	0.40840
2225.56335	0.40884
2223.63479	0.40916
2221.70622	0.40914
2219.77766	0.40912
2217.84909	0.40943
2215.92053	0.40994
2213.99196	0.41043
2212.06340	0.41089
2210.13484	0.41119
2208.20627	0.41111
2206.27771	0.41077
2204.34914	0.41056
2202.42058	0.41074
2200.49201	0.41097
2198.56345	0.41063
2196.63488	0.40998
2194.70632	0.40952
2192.77776	0.40922
2190.84919	0.40884
2188.92063	0.40820
2186.99206	0.40740
2185.06350	0.40672
2183.13493	0.40610
2181.20637	0.40525
2179.27781	0.40409
2177.34924	0.40269
2175.42068	0.40120
2173.49211	0.39980
2171.56355	0.39859
2169.63498	0.39732
2167.70642	0.39588
2165.77785	0.39458
2163.84929	0.39347
2161.92073	0.39245
2159.99216	0.39155
2158.06360	0.39059
2156.13503	0.38959
2154.20647	0.38880
2152.27790	0.38809
2150.34934	0.38721
2148.42077	0.38647
2146.49221	0.38613
2144.56365	0.38596
2142.63508	0.38572
2140.70652	0.38555
2138.77795	0.38551
2136.84939	0.38537
2134.92082	0.38514
2132.99226	0.38505
2131.06369	0.38510
2129.13513	0.38519
2127.20657	0.38534
2125.27800	0.38547
2123.34944	0.38548
2121.42087	0.38532
2119.49231	0.38506
2117.56374	0.38478
2115.63518	0.38453
2113.70661	0.38434
2111.77805	0.38402
2109.84949	0.38353
2107.92092	0.38315
2105.99236	0.38283
2104.06379	0.38217
2102.13523	0.38106
2100.20666	0.37980
2098.27810	0.37884
2096.34953	0.37829
2094.42097	0.37792
2092.49241	0.37746
2090.56384	0.37678
2088.63528	0.37590
2086.70671	0.37492
2084.77815	0.37409
2082.84958	0.37369
2080.92102	0.37357
2078.99245	0.37324
2077.06389	0.37259
2075.13533	0.37179
2073.20676	0.37095
2071.27820	0.37013
2069.34963	0.36922
2067.42107	0.36813
2065.49250	0.36686
2063.56394	0.36551
2061.63537	0.36423
2059.70681	0.36295
2057.77825	0.36158
2055.84968	0.36034
2053.92112	0.35936
2051.99255	0.35843
2050.06399	0.35734
2048.13542	0.35618
2046.20686	0.35528
2044.27830	0.35476
2042.34973	0.35438
2040.42117	0.35404
2038.49260	0.35368
2036.56404	0.35335
2034.63547	0.35313
2032.70691	0.35281
2030.77834	0.35227
2028.84978	0.35157
2026.92122	0.35079
2024.99265	0.35001
2023.06409	0.34931
2021.13552	0.34864
2019.20696	0.34796
2017.27839	0.34717
2015.34983	0.34640
2013.42126	0.34585
2011.49270	0.34526
2009.56414	0.34436
2007.63557	0.34342
2005.70701	0.34290
2003.77844	0.34275
2001.84988	0.34257
1999.92131	0.34215
1997.99275	0.34160
1996.06418	0.34100
1994.13562	0.34036
1992.20706	0.33947
1990.27849	0.33823
1988.34993	0.33701
1986.42136	0.33584
1984.49280	0.33456
1982.56423	0.33321
1980.63567	0.33183
1978.70710	0.33057
1976.77854	0.32965
1974.84998	0.32902
1972.92141	0.32845
1970.99285	0.32797
1969.06428	0.32774
1967.13572	0.32758
1965.20715	0.32733
1963.27859	0.32712
1961.35002	0.32705
1959.42146	0.32711
1957.49290	0.32712
1955.56433	0.32689
1953.63577	0.32639
1951.70720	0.32569
1949.77864	0.32486
1947.85007	0.32401
1945.92151	0.32314
1943.99294	0.32209
1942.06438	0.32073
1940.13582	0.31932
1938.20725	0.31821
1936.27869	0.31752
1934.35012	0.31708
1932.42156	0.31666
1930.49299	0.31623
1928.56443	0.31606
1926.63586	0.31636
1924.70730	0.31693
1922.77874	0.31725
1920.85017	0.31716
1918.92161	0.31683
1916.99304	0.31630
1915.06448	0.31576
1913.13591	0.31539
1911.20735	0.31510
1909.27878	0.31470
1907.35022	0.31396
1905.42166	0.31299
1903.49309	0.31207
1901.56453	0.31131
1899.63596	0.31080
1897.70740	0.31063
1895.77883	0.31067
1893.85027	0.31080
1891.92171	0.31118
1889.99314	0.31160
1888.06458	0.31165
1886.13601	0.31159
1884.20745	0.31166
1882.27888	0.31170
1880.35032	0.31144
1878.42175	0.31086
1876.49319	0.31016
1874.56463	0.30932
1872.63606	0.30859
1870.70750	0.30824
1868.77893	0.30760
1866.85037	0.30600
1864.92180	0.30433
1862.99324	0.30313
1861.06467	0.30223
1859.13611	0.30143
1857.20755	0.30080
1855.27898	0.30044
1853.35042	0.30033
1851.42185	0.30058
1849.49329	0.30127
1847.56472	0.30205
1845.63616	0.30252
1843.70759	0.30241
1841.77903	0.30210
1839.85047	0.30204
1837.92190	0.30211
1835.99334	0.30220
1834.06477	0.30231
1832.13621	0.30240
1830.20764	0.30205
1828.27908	0.30138
1826.35051	0.30080
1824.42195	0.30009
1822.49339	0.29932
1820.56482	0.29866
1818.63626	0.29810
1816.70769	0.29769
1814.77913	0.29768
1812.85056	0.29798
1810.92200	0.29812
1808.99343	0.29787
1807.06487	0.29739
1805.13631	0.29721
1803.20774	0.29763
1801.27918	0.29832
1799.35061	0.29848
1797.42205	0.29827
1795.49348	0.29830
1793.56492	0.29832
1791.63635	0.29759
1789.70779	0.29652
1787.77923	0.29593
1785.85066	0.29553
1783.92210	0.29522
1781.99353	0.29510
1780.06497	0.29467
1778.13640	0.29403
1776.20784	0.29390
1774.27927	0.29468
1772.35071	0.29559
1770.42215	0.29554
1768.49358	0.29532
1766.56502	0.29541
1764.63645	0.29615
1762.70789	0.29788
1760.77932	0.30028
1758.85076	0.30280
1756.92220	0.30621
1754.99363	0.31042
1753.06507	0.31530
1751.13650	0.32266
1749.20794	0.33212
1747.27937	0.34006
1745.35081	0.34625
1743.42224	0.35173
1741.49368	0.35639
1739.56512	0.35969
1737.63655	0.36155
1735.70799	0.36276
1733.77942	0.36386
1731.85086	0.36392
1729.92229	0.36397
1727.99373	0.36497
1726.06516	0.36694
1724.13660	0.37004
1722.20804	0.37363
1720.27947	0.37782
1718.35091	0.38498
1716.42234	0.39569
1714.49378	0.40424
1712.56521	0.41204
1710.63665	0.42236
1708.70808	0.43604
1706.77952	0.45674
1704.85096	0.48453
1702.92239	0.51119
1700.99383	0.54962
1699.06526	0.60994
1697.13670	0.66664
1695.20813	0.72218
1693.27957	0.76489
1691.35100	0.79974
1689.42244	0.84195
1687.49388	0.88261
1685.56531	0.92437
1683.63675	0.98763
1681.70818	1.03454
1679.77962	1.06236
1677.85105	1.08920
1675.92249	1.11994
1673.99392	1.15130
1672.06536	1.17614
1670.13680	1.20256
1668.20823	1.22970
1666.27967	1.24484
1664.35110	1.25743
1662.42254	1.27395
1660.49397	1.28791
1658.56541	1.29501
1656.63684	1.29653
1654.70828	1.29622
1652.77972	1.29683
1650.85115	1.29942
1648.92259	1.30195
1646.99402	1.30228
1645.06546	1.30036
1643.13689	1.29802
1641.20833	1.29667
1639.27976	1.29593
1637.35120	1.29557
1635.42264	1.29073
1633.49407	1.28277
1631.56551	1.27777
1629.63694	1.27229
1627.70838	1.26422
1625.77981	1.25275
1623.85125	1.23403
1621.92269	1.21069
1619.99412	1.19302
1618.06556	1.17156
1616.13699	1.13253
1614.20843	1.09722
1612.27986	1.06970
1610.35130	1.04033
1608.42273	1.01048
1606.49417	0.98515
1604.56561	0.96456
1602.63704	0.94758
1600.70848	0.93474
1598.77991	0.92538
1596.85135	0.91821
1594.92278	0.91237
1592.99422	0.90794
1591.06565	0.90541
1589.13709	0.90568
1587.20853	0.90928
1585.27996	0.91533
1583.35140	0.92388
1581.42283	0.93447
1579.49427	0.94516
1577.56570	0.95806
1575.63714	0.97664
1573.70857	0.99182
1571.78001	1.00410
1569.85145	1.02090
1567.92288	1.03788
1565.99432	1.05173
1564.06575	1.06677
1562.13719	1.07994
1560.20862	1.09595
1558.28006	1.13028
1556.35149	1.14919
1554.42293	1.15637
1552.49437	1.16244
1550.56580	1.16687
1548.63724	1.16841
1546.70867	1.16761
1544.78011	1.16603
1542.85154	1.16505
1540.92298	1.16308
1538.99441	1.15473
1537.06585	1.14801
1535.13729	1.14234
1533.20872	1.13526
1531.28016	1.12752
1529.35159	1.12063
1527.42303	1.11446
1525.49446	1.10994
1523.56590	1.10712
1521.63733	1.10201
1519.70877	1.09572
1517.78021	1.08922
1515.85164	1.07901
1513.92308	1.06514
1511.99451	1.04931
1510.06595	1.03362
1508.13738	1.00761
1506.20882	0.95976
1504.28025	0.93415
1502.35169	0.91848
1500.42313	0.90003
1498.49456	0.87592
1496.56600	0.84530
1494.63743	0.82022
1492.70887	0.80412
1490.78030	0.78684
1488.85174	0.76279
1486.92317	0.74329
1484.99461	0.73136
1483.06605	0.72306
1481.13748	0.71711
1479.20892	0.71461
1477.28035	0.71658
1475.35179	0.72367
1473.42322	0.73822
1471.49466	0.75515
1469.56610	0.76520
1467.63753	0.77256
1465.70897	0.78166
1463.78040	0.79142
1461.85184	0.79805
1459.92327	0.80300
1457.99471	0.81096
1456.06614	0.82082
1454.13758	0.82372
1452.20902	0.82314
1450.28045	0.82194
1448.35189	0.82034
1446.42332	0.81719
1444.49476	0.81268
1442.56619	0.80753
1440.63763	0.80261
1438.70906	0.79752
1436.78050	0.78915
1434.85194	0.77873
1432.92337	0.77037
1430.99481	0.76263
1429.06624	0.75551
1427.13768	0.75123
1425.20911	0.75003
1423.28055	0.75113
1421.35198	0.75348
1419.42342	0.75646
1417.49486	0.75850
1415.56629	0.75926
1413.63773	0.75996
1411.70916	0.76052
1409.78060	0.76120
1407.85203	0.76271
1405.92347	0.76526
1403.99490	0.76824
1402.06634	0.77091
1400.13778	0.77362
1398.20921	0.77623
1396.28065	0.77836
1394.35208	0.78002
1392.42352	0.78138
1390.49495	0.78381
1388.56639	0.78931
1386.63782	0.79834
1384.70926	0.80792
1382.78070	0.81636
1380.85213	0.82238
1378.92357	0.82401
1376.99500	0.82064
1375.06644	0.81131
1373.13787	0.79657
1371.20931	0.78060
1369.28074	0.76339
1367.35218	0.74485
1365.42362	0.72767
1363.49505	0.71097
1361.56649	0.69551
1359.63792	0.68497
1357.70936	0.67824
1355.78079	0.67340
1353.85223	0.66987
1351.92366	0.66742
1349.99510	0.66611
1348.06654	0.66578
1346.13797	0.66590
1344.20941	0.66649
1342.28084	0.66781
1340.35228	0.66969
1338.42371	0.67178
1336.49515	0.67465
1334.56659	0.67925
1332.63802	0.68582
1330.70946	0.69334
1328.78089	0.69985
1326.85233	0.70422
1324.92376	0.70685
1322.99520	0.70924
1321.06663	0.71256
1319.13807	0.71637
1317.20951	0.71970
1315.28094	0.72255
1313.35238	0.72514
1311.42381	0.72717
1309.49525	0.72841
1307.56668	0.72886
1305.63812	0.72848
1303.70955	0.72738
1301.78099	0.72572
1299.85243	0.72319
1297.92386	0.71925
1295.99530	0.71429
1294.06673	0.70970
1292.13817	0.70632
1290.20960	0.70410
1288.28104	0.70299
1286.35247	0.70246
1284.42391	0.70150
1282.49535	0.70019
1280.56678	0.69941
1278.63822	0.69975
1276.70965	0.70120
1274.78109	0.70325
1272.85252	0.70597
1270.92396	0.70998
1268.99539	0.71519
1267.06683	0.72063
1265.13827	0.72520
1263.20970	0.72828
1261.28114	0.72975
1259.35257	0.72980
1257.42401	0.72935
1255.49544	0.72949
1253.56688	0.73032
1251.63831	0.73167
1249.70975	0.73312
1247.78119	0.73399
1245.85262	0.73435
1243.92406	0.73455
1241.99549	0.73471
1240.06693	0.73489
1238.13836	0.73489
1236.20980	0.73369
1234.28123	0.73066
1232.35267	0.72678
1230.42411	0.72257
1228.49554	0.71764
1226.56698	0.71202
1224.63841	0.70564
1222.70985	0.69832
1220.78128	0.69070
1218.85272	0.68371
1216.92415	0.67779
1214.99559	0.67315
1213.06703	0.67001
1211.13846	0.66836
1209.20990	0.66745
1207.28133	0.66560
1205.35277	0.66122
1203.42420	0.65390
1201.49564	0.64448
1199.56708	0.63413
1197.63851	0.62375
1195.70995	0.61410
1193.78138	0.60586
1191.85282	0.59942
1189.92425	0.59464
1187.99569	0.59116
1186.06712	0.58860
1184.13856	0.58719
1182.21000	0.58802
1180.28143	0.59177
1178.35287	0.59816
1176.42430	0.60668
1174.49574	0.61677
1172.56717	0.62786
1170.63861	0.64036
1168.71004	0.65501
1166.78148	0.67184
1164.85292	0.68982
1162.92435	0.70627
1160.99579	0.71781
1159.06722	0.72286
1157.13866	0.72191
1155.21009	0.71570
1153.28153	0.70494
1151.35296	0.69170
1149.42440	0.67832
1147.49584	0.66591
1145.56727	0.65572
1143.63871	0.64898
1141.71014	0.64597
1139.78158	0.64684
1137.85301	0.65172
1135.92445	0.66007
1133.99588	0.67097
1132.06732	0.68432
1130.13876	0.70060
1128.21019	0.71926
1126.28163	0.73847
1124.35306	0.75652
1122.42450	0.77269
1120.49593	0.78696
1118.56737	0.79899
1116.63880	0.80737
1114.71024	0.81075
1112.78168	0.81008
1110.85311	0.80788
1108.92455	0.80529
1106.99598	0.80254
1105.06742	0.79981
1103.13885	0.79721
1101.21029	0.79519
1099.28172	0.79511
1097.35316	0.79846
1095.42460	0.80540
1093.49603	0.81565
1091.56747	0.82939
1089.63890	0.84683
1087.71034	0.86789
1085.78177	0.89141
1083.85321	0.91463
1081.92464	0.93384
1079.99608	0.94664
1078.06752	0.95242
1076.13895	0.95108
1074.21039	0.94328
1072.28182	0.93018
1070.35326	0.91378
1068.42469	0.89657
1066.49613	0.87982
1064.56756	0.86410
1062.63900	0.85027
1060.71044	0.83845
1058.78187	0.82774
1056.85331	0.81811
1054.92474	0.81083
1052.99618	0.80607
1051.06761	0.80313
1049.13905	0.80257
1047.21049	0.80552
1045.28192	0.81218
1043.35336	0.82173
1041.42479	0.83264
1039.49623	0.84290
1037.56766	0.85148
1035.63910	0.85842
1033.71053	0.86255
1031.78197	0.86256
1029.85341	0.85863
1027.92484	0.85069
1025.99628	0.83854
1024.06771	0.82363
1022.13915	0.80845
1020.21058	0.79471
1018.28202	0.78240
1016.35345	0.77028
1014.42489	0.75651
1012.49633	0.73980
1010.56776	0.72008
1008.63920	0.69814
1006.71063	0.67590
1004.78207	0.65545
1002.85350	0.63739
1000.92494	0.62202
998.99637	0.61006
997.06781	0.60086
995.13925	0.59277
993.21068	0.58442
991.28212	0.57438
989.35355	0.56203
987.42499	0.54840
985.49642	0.53501
983.56786	0.52337
981.63929	0.51452
979.71073	0.50821
977.78217	0.50304
975.85360	0.49752
973.92504	0.49086
971.99647	0.48303
970.06791	0.47448
968.13934	0.46622
966.21078	0.45930
964.28221	0.45434
962.35365	0.45255
960.42509	0.45580
958.49652	0.46406
956.56796	0.47342
954.63939	0.47850
952.71083	0.47722
950.78226	0.47123
948.85370	0.46288
946.92513	0.45453
944.99657	0.44827
943.06801	0.44458
941.13944	0.44246
939.21088	0.44102
937.28231	0.44016
935.35375	0.43991
933.42518	0.43991
931.49662	0.43989
929.56805	0.43985
927.63949	0.43994
925.71093	0.44075
923.78236	0.44271
921.85380	0.44500
919.92523	0.44625
917.99667	0.44627
916.06810	0.44588
914.13954	0.44579
912.21098	0.44634
910.28241	0.44755
908.35385	0.44922
906.42528	0.45131
904.49672	0.45394
902.56815	0.45689
900.63959	0.45917
898.71102	0.45985
896.78246	0.45900
894.85390	0.45689
892.92533	0.45344
890.99677	0.44907
889.06820	0.44462
887.13964	0.44044
885.21107	0.43686
883.28251	0.43452
881.35394	0.43345
879.42538	0.43325
877.49682	0.43367
875.56825	0.43457
873.63969	0.43600
871.71112	0.43781
869.78256	0.43971
867.85399	0.44184
865.92543	0.44452
863.99686	0.44765
862.06830	0.45100
860.13974	0.45494
858.21117	0.45975
856.28261	0.46490
854.35404	0.47007
852.42548	0.47548
850.49691	0.48104
848.56835	0.48647
846.63978	0.49194
844.71122	0.49766
842.78266	0.50352
840.85409	0.50920
838.92553	0.51414
836.99696	0.51801
835.06840	0.52121
833.13983	0.52387
831.21127	0.52553
829.28270	0.52634
827.35414	0.52702
825.42558	0.52741
823.49701	0.52704
821.56845	0.52656
819.63988	0.52659
817.71132	0.52703
815.78275	0.52785
813.85419	0.52913
811.92562	0.53091
809.99706	0.53306
808.06850	0.53527
806.13993	0.53729
804.21137	0.53901
802.28280	0.54075
800.35424	0.54229
798.42567	0.54302
796.49711	0.54393
794.56854	0.54610
792.63998	0.54867
790.71142	0.55109
788.78285	0.55437
786.85429	0.55929
784.92572	0.56518
782.99716	0.57076
781.06859	0.57630
779.14003	0.58266
777.21147	0.58931
775.28290	0.59586
773.35434	0.60259
771.42577	0.60889
769.49721	0.61371
767.56864	0.61684
765.64008	0.61888
763.71151	0.62070
761.78295	0.62306
759.85439	0.62583
757.92582	0.62861
755.99726	0.63087
754.06869	0.63225
752.14013	0.63376
750.21156	0.63650
748.28300	0.63972
746.35443	0.64221
744.42587	0.64457
742.49731	0.64776
740.56874	0.65088
738.64018	0.65268
736.71161	0.65363
734.78305	0.65508
732.85448	0.65709
730.92592	0.65852
728.99735	0.65905
727.06879	0.65976
725.14023	0.66142
723.21166	0.66410
721.28310	0.66770
719.35453	0.67118
717.42597	0.67335
715.49740	0.67502
713.56884	0.67795
711.64027	0.68257
709.71171	0.68747
707.78315	0.69140
705.85458	0.69457
703.92602	0.69713
701.99745	0.69890
700.06889	0.70021
698.14032	0.70074
696.21176	0.69984
694.28319	0.69840
692.35463	0.69736
690.42607	0.69624
688.49750	0.69492
686.56894	0.69448
684.64037	0.69491
682.71181	0.69495
680.78324	0.69459
678.85468	0.69500
676.92611	0.69681
674.99755	0.69954
673.06899	0.70190
671.14042	0.70360
669.21186	0.70762
667.28329	0.71466
665.35473	0.71855
663.42616	0.72175
661.49760	0.72548
659.56903	0.72757
657.64047	0.72867
655.71191	0.72923
653.78334	0.72803
651.85478	0.72615
649.92621	0.72468
647.99765	0.72386
646.06908	0.72512
644.14052	0.72835
642.21195	0.73113
640.28339	0.73319
638.35483	0.73588
636.42626	0.73847
634.49770	0.73902
632.56913	0.73736
630.64057	0.73610
628.71200	0.73692
626.78344	0.73730
624.85488	0.73520
622.92631	0.73236
620.99775	0.72969
619.06918	0.72684
617.14062	0.72434
615.21205	0.72187
613.28349	0.72002
611.35492	0.72063
609.42636	0.72287
607.49780	0.72527
605.56923	0.72781
603.64067	0.73099
601.71210	0.73560
599.78354	0.74032
