3997.91406	0.74926
3995.98550	0.74828
3994.05693	0.74690
3992.12837	0.74484
3990.19980	0.74190
3988.27124	0.74048
3986.34268	0.74128
3984.41411	0.74112
3982.48555	0.73952
3980.55698	0.73908
3978.62842	0.74028
3976.69985	0.74165
3974.77129	0.74217
3972.84272	0.74188
3970.91416	0.74088
3968.98560	0.73870
3967.05703	0.73614
3965.12847	0.73561
3963.19990	0.73736
3961.27134	0.73872
3959.34277	0.73808
3957.41421	0.73617
3955.48564	0.73500
3953.55708	0.73453
3951.62852	0.73203
3949.69995	0.72914
3947.77139	0.73043
3945.84282	0.73340
3943.91426	0.73279
3941.98569	0.72920
3940.05713	0.72729
3938.12856	0.72907
3936.20000	0.73307
3934.27144	0.73533
3932.34287	0.73315
3930.41431	0.73029
3928.48574	0.73193
3926.55718	0.73536
3924.62861	0.73473
3922.70005	0.73183
3920.77148	0.73113
3918.84292	0.73007
3916.91436	0.72681
3914.98579	0.72488
3913.05723	0.72587
3911.12866	0.72888
3909.20010	0.73354
3907.27153	0.73826
3905.34297	0.73876
3903.41440	0.73315
3901.48584	0.72717
3899.55728	0.72342
3897.62871	0.72318
3895.70015	0.72689
3893.77158	0.73061
3891.84302	0.72879
3889.91445	0.72511
3887.98589	0.72647
3886.05733	0.72940
3884.12876	0.72900
3882.20020	0.72668
3880.27163	0.72440
3878.34307	0.72475
3876.41450	0.72787
3874.48594	0.73201
3872.55737	0.73333
3870.62881	0.72642
3868.70025	0.71992
3866.77168	0.72399
3864.84312	0.73233
3862.91455	0.73586
3860.98599	0.73386
3859.05742	0.73141
3857.12886	0.73093
3855.20029	0.73115
3853.27173	0.72572
3851.34317	0.72027
3849.41460	0.72117
3847.48604	0.72373
3845.55747	0.72523
3843.62891	0.72588
3841.70034	0.72686
3839.77178	0.72634
3837.84321	0.72099
3835.91465	0.71494
3833.98609	0.71365
3832.05752	0.71674
3830.12896	0.72076
3828.20039	0.72298
3826.27183	0.72323
3824.34326	0.72260
3822.41470	0.71974
3820.48613	0.71507
3818.55757	0.71527
3816.62901	0.71588
3814.70044	0.71347
3812.77188	0.71296
3810.84331	0.71481
3808.91475	0.71604
3806.98618	0.71556
3805.05762	0.71894
3803.12905	0.72508
3801.20049	0.72164
3799.27193	0.71330
3797.34336	0.71005
3795.41480	0.70900
3793.48623	0.70984
3791.55767	0.71132
3789.62910	0.71101
3787.70054	0.70978
3785.77197	0.70847
3783.84341	0.70569
3781.91485	0.70377
3779.98628	0.70608
3778.05772	0.70841
3776.12915	0.70632
3774.20059	0.70410
3772.27202	0.70425
3770.34346	0.70414
3768.41489	0.70290
3766.48633	0.70218
3764.55777	0.70230
3762.62920	0.70389
3760.70064	0.70511
3758.77207	0.70443
3756.84351	0.70636
3754.91494	0.71335
3752.98638	0.72252
3751.05781	0.72387
3749.12925	0.71536
3747.20069	0.71171
3745.27212	0.70906
3743.34356	0.70309
3741.41499	0.70159
3739.48643	0.70519
3737.55786	0.70919
3735.62930	0.70793
3733.70074	0.70259
3731.77217	0.69867
3729.84361	0.69791
3727.91504	0.69959
3725.98648	0.69955
3724.05791	0.69733
3722.12935	0.69747
3720.20078	0.69944
3718.27222	0.70126
3716.34366	0.70333
3714.41509	0.70562
3712.48653	0.70497
3710.55796	0.70002
3708.62940	0.69838
3706.70083	0.70011
3704.77227	0.70104
3702.84370	0.69863
3700.91514	0.69625
3698.98658	0.69880
3697.05801	0.70268
3695.12945	0.70336
3693.20088	0.70165
3691.27232	0.69953
3689.34375	0.69766
3687.41519	0.69876
3685.48662	0.70121
3683.55806	0.70469
3681.62950	0.71002
3679.70093	0.71511
3677.77237	0.71827
3675.84380	0.72009
3673.91524	0.72420
3671.98667	0.73060
3670.05811	0.73330
3668.12954	0.73110
3666.20098	0.73151
3664.27242	0.73442
3662.34385	0.73762
3660.41529	0.74219
3658.48672	0.74885
3656.55816	0.75523
3654.62959	0.76144
3652.70103	0.76921
3650.77246	0.77590
3648.84390	0.77749
3646.91534	0.77970
3644.98677	0.78318
3643.05821	0.78627
3641.12964	0.79079
3639.20108	0.79780
3637.27251	0.80510
3635.34395	0.81156
3633.41538	0.81830
3631.48682	0.82403
3629.55826	0.82779
3627.62969	0.83350
3625.70113	0.84187
3623.77256	0.85115
3621.84400	0.86043
3619.91543	0.86683
3617.98687	0.86859
3616.05830	0.87064
3614.12974	0.87559
3612.20118	0.88213
3610.27261	0.88886
3608.34405	0.89685
3606.41548	0.90490
3604.48692	0.91021
3602.55835	0.91404
3600.62979	0.91812
3598.70123	0.92280
3596.77266	0.92889
3594.84410	0.93695
3592.91553	0.94528
3590.98697	0.95290
3589.05840	0.96020
3587.12984	0.96802
3585.20127	0.97663
3583.27271	0.98291
3581.34415	0.98740
3579.41558	0.99355
3577.48702	1.00196
3575.55845	1.01184
3573.62989	1.02019
3571.70132	1.02607
3569.77276	1.03341
3567.84419	1.04079
3565.91563	1.04436
3563.98707	1.05194
3562.05850	1.06489
3560.12994	1.07537
3558.20137	1.07833
3556.27281	1.08058
3554.34424	1.08991
3552.41568	1.10217
3550.48711	1.10968
3548.55855	1.11452
3546.62999	1.11890
3544.70142	1.12410
3542.77286	1.13153
3540.84429	1.13767
3538.91573	1.14070
3536.98716	1.14540
3535.05860	1.15511
3533.13003	1.16462
3531.20147	1.17309
3529.27291	1.18652
3527.34434	1.20168
3525.41578	1.20868
3523.48721	1.21113
3521.55865	1.21831
3519.63008	1.22805
3517.70152	1.23568
3515.77295	1.24255
3513.84439	1.24848
3511.91583	1.25296
3509.98726	1.26245
3508.05870	1.27815
3506.13013	1.29200
3504.20157	1.30216
3502.27300	1.30956
3500.34444	1.31489
3498.41587	1.32278
3496.48731	1.33457
3494.55875	1.34354
3492.63018	1.34698
3490.70162	1.34996
3488.77305	1.35347
3486.84449	1.35698
3484.91592	1.36070
3482.98736	1.36658
3481.05879	1.37678
3479.13023	1.38244
3477.20167	1.37750
3475.27310	1.37081
3473.34454	1.37265
3471.41597	1.38096
3469.48741	1.38537
3467.55884	1.38576
3465.63028	1.39237
3463.70171	1.40836
3461.77315	1.42004
3459.84459	1.41226
3457.91602	1.39806
3455.98746	1.39725
3454.05889	1.40512
3452.13033	1.40791
3450.20176	1.40759
3448.27320	1.41166
3446.34464	1.41508
3444.41607	1.41316
3442.48751	1.41765
3440.55894	1.43536
3438.63038	1.45229
3436.70181	1.45132
3434.77325	1.43752
3432.84468	1.43015
3430.91612	1.43447
3428.98756	1.43977
3427.05899	1.43823
3425.13043	1.43448
3423.20186	1.43461
3421.27330	1.43406
3419.34473	1.43053
3417.41617	1.43156
3415.48760	1.43646
3413.55904	1.43952
3411.63048	1.44142
3409.70191	1.44083
3407.77335	1.43388
3405.84478	1.42618
3403.91622	1.42571
3401.98765	1.43251
3400.05909	1.44353
3398.13052	1.45240
3396.20196	1.45522
3394.27340	1.45703
3392.34483	1.45502
3390.41627	1.44746
3388.48770	1.44359
3386.55914	1.44197
3384.63057	1.43921
3382.70201	1.44098
3380.77344	1.44544
3378.84488	1.44788
3376.91632	1.45185
3374.98775	1.45831
3373.05919	1.46278
3371.13062	1.46196
3369.20206	1.45788
3367.27349	1.45475
3365.34493	1.45070
3363.41636	1.44819
3361.48780	1.45359
3359.55924	1.46071
3357.63067	1.46175
3355.70211	1.45831
3353.77354	1.45570
3351.84498	1.45918
3349.91641	1.46485
3347.98785	1.46398
3346.05928	1.46154
3344.13072	1.46339
3342.20216	1.46072
3340.27359	1.45459
3338.34503	1.45989
3336.41646	1.47488
3334.48790	1.48085
3332.55933	1.47375
3330.63077	1.46575
3328.70220	1.46232
3326.77364	1.46441
3324.84508	1.47119
3322.91651	1.47595
3320.98795	1.47629
3319.05938	1.47641
3317.13082	1.47915
3315.20225	1.48594
3313.27369	1.49496
3311.34513	1.49857
3309.41656	1.49311
3307.48800	1.48571
3305.55943	1.48357
3303.63087	1.48370
3301.70230	1.48118
3299.77374	1.47921
3297.84517	1.48042
3295.91661	1.48397
3293.98805	1.48994
3292.05948	1.49529
3290.13092	1.49475
3288.20235	1.48775
3286.27379	1.48126
3284.34522	1.47659
3282.41666	1.47053
3280.48809	1.46992
3278.55953	1.47338
3276.63097	1.47149
3274.70240	1.46997
3272.77384	1.47326
3270.84527	1.47657
3268.91671	1.48141
3266.98814	1.48494
3265.05958	1.47465
3263.13101	1.45613
3261.20245	1.45249
3259.27389	1.46388
3257.34532	1.46515
3255.41676	1.45211
3253.48819	1.44511
3251.55963	1.44752
3249.63106	1.44378
3247.70250	1.42873
3245.77393	1.41524
3243.84537	1.41329
3241.91681	1.41647
3239.98824	1.41482
3238.05968	1.41068
3236.13111	1.41096
3234.20255	1.41447
3232.27398	1.41485
3230.34542	1.40678
3228.41685	1.39206
3226.48829	1.37964
3224.55973	1.37631
3222.63116	1.37867
3220.70260	1.37700
3218.77403	1.37221
3216.84547	1.36949
3214.91690	1.36567
3212.98834	1.36400
3211.05977	1.36753
3209.13121	1.36734
3207.20265	1.36034
3205.27408	1.35209
3203.34552	1.34417
3201.41695	1.33867
3199.48839	1.34014
3197.55982	1.34349
3195.63126	1.34005
3193.70269	1.33211
3191.77413	1.32327
3189.84557	1.31594
3187.91700	1.31420
3185.98844	1.31594
3184.05987	1.31476
3182.13131	1.30924
3180.20274	1.30296
3178.27418	1.29858
3176.34562	1.29624
3174.41705	1.29453
3172.48849	1.29353
3170.55992	1.29415
3168.63136	1.29353
3166.70279	1.29058
3164.77423	1.28776
3162.84566	1.28431
3160.91710	1.27895
3158.98854	1.27365
3157.05997	1.26926
3155.13141	1.26352
3153.20284	1.25795
3151.27428	1.25759
3149.34571	1.26039
3147.41715	1.26042
3145.48858	1.26027
3143.56002	1.26375
3141.63146	1.26379
3139.70289	1.25507
3137.77433	1.24674
3135.84576	1.24617
3133.91720	1.24738
3131.98863	1.24559
3130.06007	1.24462
3128.13150	1.24466
3126.20294	1.24334
3124.27438	1.24253
3122.34581	1.24348
3120.41725	1.24460
3118.48868	1.24449
3116.56012	1.24349
3114.63155	1.24162
3112.70299	1.23811
3110.77442	1.23456
3108.84586	1.23454
3106.91730	1.23865
3104.98873	1.24113
3103.06017	1.23834
3101.13160	1.23623
3099.20304	1.23849
3097.27447	1.24045
3095.34591	1.24062
3093.41734	1.24122
3091.48878	1.24020
3089.56022	1.23554
3087.63165	1.23045
3085.70309	1.22862
3083.77452	1.22943
3081.84596	1.22989
3079.91739	1.22807
3077.98883	1.22416
3076.06026	1.22008
3074.13170	1.21641
3072.20314	1.21215
3070.27457	1.20912
3068.34601	1.21066
3066.41744	1.21348
3064.48888	1.20922
3062.56031	1.19892
3060.63175	1.19160
3058.70318	1.19018
3056.77462	1.19107
3054.84606	1.19023
3052.91749	1.18504
3050.98893	1.17692
3049.06036	1.17042
3047.13180	1.16780
3045.20323	1.16796
3043.27467	1.16617
3041.34610	1.15987
3039.41754	1.15350
3037.48898	1.14954
3035.56041	1.14685
3033.63185	1.14425
3031.70328	1.14069
3029.77472	1.13711
3027.84615	1.13411
3025.91759	1.13194
3023.98903	1.13114
3022.06046	1.12924
3020.13190	1.12408
3018.20333	1.11861
3016.27477	1.11623
3014.34620	1.11509
3012.41764	1.11226
3010.48907	1.10864
3008.56051	1.10530
3006.63195	1.10255
3004.70338	1.10264
3002.77482	1.10558
3000.84625	1.10787
2998.91769	1.10744
2996.98912	1.10431
2995.06056	1.10150
2993.13199	1.10270
2991.20343	1.10696
2989.27487	1.11150
2987.34630	1.11533
2985.41774	1.11923
2983.48917	1.12429
2981.56061	1.12978
2979.63204	1.13584
2977.70348	1.14477
2975.77491	1.15458
2973.84635	1.16030
2971.91779	1.16311
2969.98922	1.16658
2968.06066	1.17223
2966.13209	1.18196
2964.20353	1.19272
2962.27496	1.19675
2960.34640	1.19311
2958.41783	1.18772
2956.48927	1.18280
2954.56071	1.17618
2952.63214	1.16892
2950.70358	1.16541
2948.77501	1.16622
2946.84645	1.16764
2944.91788	1.16916
2942.98932	1.17270
2941.06075	1.17752
2939.13219	1.18405
2937.20363	1.19413
2935.27506	1.20569
2933.34650	1.21549
2931.41793	1.22328
2929.48937	1.22826
2927.56080	1.22822
2925.63224	1.22559
2923.70367	1.22547
2921.77511	1.22806
2919.84655	1.22956
2917.91798	1.22545
2915.98942	1.21312
2914.06085	1.19536
2912.13229	1.17691
2910.20372	1.15997
2908.27516	1.14628
2906.34659	1.13745
2904.41803	1.13151
2902.48947	1.12511
2900.56090	1.11878
2898.63234	1.11428
2896.70377	1.11207
2894.77521	1.11181
2892.84664	1.11055
2890.91808	1.10650
2888.98952	1.10164
2887.06095	1.09741
2885.13239	1.09420
2883.20382	1.09258
2881.27526	1.09218
2879.34669	1.09226
2877.41813	1.09277
2875.48956	1.09256
2873.56100	1.09106
2871.63244	1.08917
2869.70387	1.08453
2867.77531	1.07619
2865.84674	1.06865
2863.91818	1.06464
2861.98961	1.06348
2860.06105	1.06421
2858.13248	1.06630
2856.20392	1.06974
2854.27536	1.07392
2852.34679	1.07668
2850.41823	1.07462
2848.48966	1.06366
2846.56110	1.04325
2844.63253	1.01980
2842.70397	1.00046
2840.77540	0.98755
2838.84684	0.97948
2836.91828	0.97268
2834.98971	0.96540
2833.06115	0.95935
2831.13258	0.95528
2829.20402	0.95180
2827.27545	0.94789
2825.34689	0.94315
2823.41832	0.93892
2821.48976	0.93721
2819.56120	0.93640
2817.63263	0.93408
2815.70407	0.93084
2813.77550	0.92751
2811.84694	0.92421
2809.91837	0.92122
2807.98981	0.91834
2806.06124	0.91593
2804.13268	0.91420
2802.20412	0.91158
2800.27555	0.90720
2798.34699	0.90195
2796.41842	0.89719
2794.48986	0.89442
2792.56129	0.89305
2790.63273	0.89088
2788.70416	0.88786
2786.77560	0.88495
2784.84704	0.88143
2782.91847	0.87729
2780.98991	0.87412
2779.06134	0.87220
2777.13278	0.87086
2775.20421	0.86988
2773.27565	0.86929
2771.34708	0.86899
2769.41852	0.86807
2767.48996	0.86616
2765.56139	0.86467
2763.63283	0.86395
2761.70426	0.86284
2759.77570	0.86092
2757.84713	0.85865
2755.91857	0.85707
2753.99001	0.85637
2752.06144	0.85485
2750.13288	0.85207
2748.20431	0.84974
2746.27575	0.84871
2744.34718	0.84821
2742.41862	0.84741
2740.49005	0.84601
2738.56149	0.84396
2736.63293	0.84173
2734.70436	0.83946
2732.77580	0.83721
2730.84723	0.83572
2728.91867	0.83542
2726.99010	0.83552
2725.06154	0.83452
2723.13297	0.83248
2721.20441	0.83068
2719.27585	0.82899
2717.34728	0.82636
2715.41872	0.82321
2713.49015	0.82108
2711.56159	0.82061
2709.63302	0.82058
2707.70446	0.81943
2705.77589	0.81761
2703.84733	0.81593
2701.91877	0.81396
2699.99020	0.81187
2698.06164	0.80991
2696.13307	0.80819
2694.20451	0.80666
2692.27594	0.80496
2690.34738	0.80325
2688.41881	0.80150
2686.49025	0.79941
2684.56169	0.79675
2682.63312	0.79377
2680.70456	0.79139
2678.77599	0.78931
2676.84743	0.78654
2674.91886	0.78294
2672.99030	0.77939
2671.06173	0.77649
2669.13317	0.77393
2667.20461	0.77202
2665.27604	0.77067
2663.34748	0.76832
2661.41891	0.76470
2659.49035	0.76145
2657.56178	0.75981
2655.63322	0.75931
2653.70465	0.75850
2651.77609	0.75655
2649.84753	0.75363
2647.91896	0.75071
2645.99040	0.74929
2644.06183	0.74907
2642.13327	0.74810
2640.20470	0.74600
2638.27614	0.74420
2636.34757	0.74359
2634.41901	0.74323
2632.49045	0.74218
2630.56188	0.74095
2628.63332	0.73975
2626.70475	0.73826
2624.77619	0.73691
2622.84762	0.73605
2620.91906	0.73566
2618.99049	0.73567
2617.06193	0.73560
2615.13337	0.73507
2613.20480	0.73380
2611.27624	0.73195
2609.34767	0.73049
2607.41911	0.72945
2605.49054	0.72781
2603.56198	0.72567
2601.63342	0.72417
2599.70485	0.72331
2597.77629	0.72211
2595.84772	0.72037
2593.91916	0.71819
2591.99059	0.71570
2590.06203	0.71330
2588.13346	0.71098
2586.20490	0.70922
2584.27634	0.70821
2582.34777	0.70705
2580.41921	0.70566
2578.49064	0.70471
2576.56208	0.70391
2574.63351	0.70271
2572.70495	0.70117
2570.77638	0.69958
2568.84782	0.69810
2566.91926	0.69703
2564.99069	0.69661
2563.06213	0.69625
2561.13356	0.69508
2559.20500	0.69343
2557.27643	0.69232
2555.34787	0.69204
2553.41930	0.69201
2551.49074	0.69154
2549.56218	0.69013
2547.63361	0.68799
2545.70505	0.68612
2543.77648	0.68489
2541.84792	0.68346
2539.91935	0.68116
2537.99079	0.67867
2536.06222	0.67689
2534.13366	0.67558
2532.20510	0.67396
2530.27653	0.67166
2528.34797	0.66894
2526.41940	0.66667
2524.49084	0.66508
2522.56227	0.66339
2520.63371	0.66131
2518.70514	0.65927
2516.77658	0.65770
2514.84802	0.65640
2512.91945	0.65492
2510.99089	0.65348
2509.06232	0.65225
2507.13376	0.65106
2505.20519	0.64993
2503.27663	0.64895
2501.34806	0.64801
2499.41950	0.64679
2497.49094	0.64531
2495.56237	0.64412
2493.63381	0.64307
2491.70524	0.64145
2489.77668	0.63935
2487.84811	0.63748
2485.91955	0.63587
2483.99098	0.63402
2482.06242	0.63161
2480.13386	0.62879
2478.20529	0.62600
2476.27673	0.62313
2474.34816	0.62033
2472.41960	0.61813
2470.49103	0.61599
2468.56247	0.61326
2466.63391	0.61042
2464.70534	0.60799
2462.77678	0.60613
2460.84821	0.60475
2458.91965	0.60335
2456.99108	0.60172
2455.06252	0.60050
2453.13395	0.60004
2451.20539	0.59978
2449.27683	0.59938
2447.34826	0.59909
2445.41970	0.59908
2443.49113	0.59915
2441.56257	0.59911
2439.63400	0.59924
2437.70544	0.59951
2435.77687	0.59939
2433.84831	0.59900
2431.91975	0.59873
2429.99118	0.59854
2428.06262	0.59814
2426.13405	0.59734
2424.20549	0.59636
2422.27692	0.59562
2420.34836	0.59516
2418.41979	0.59458
2416.49123	0.59347
2414.56267	0.59176
2412.63410	0.58988
2410.70554	0.58819
2408.77697	0.58663
2406.84841	0.58519
2404.91984	0.58388
2402.99128	0.58278
2401.06271	0.58199
2399.13415	0.58126
2397.20559	0.58035
2395.27702	0.57994
2393.34846	0.58032
2391.41989	0.58062
2389.49133	0.58074
2387.56276	0.58134
2385.63420	0.58190
2383.70563	0.58202
2381.77707	0.58242
2379.84851	0.58342
2377.91994	0.58444
2375.99138	0.58530
2374.06281	0.58615
2372.13425	0.58641
2370.20568	0.58591
2368.27712	0.58545
2366.34855	0.58540
2364.41999	0.58514
2362.49143	0.58309
2360.56286	0.57899
2358.63430	0.57544
2356.70573	0.57322
2354.77717	0.57083
2352.84860	0.56748
2350.92004	0.56401
2348.99147	0.56179
2347.06291	0.56067
2345.13435	0.56023
2343.20578	0.56120
2341.27722	0.56247
2339.34865	0.56180
2337.42009	0.55911
2335.49152	0.55631
2333.56296	0.55481
2331.63440	0.55378
2329.70583	0.55294
2327.77727	0.55263
2325.84870	0.55180
2323.92014	0.54985
2321.99157	0.54771
2320.06301	0.54622
2318.13444	0.54504
2316.20588	0.54362
2314.27732	0.54195
2312.34875	0.54023
2310.42019	0.53868
2308.49162	0.53750
2306.56306	0.53654
2304.63449	0.53541
2302.70593	0.53397
2300.77736	0.53255
2298.84880	0.53153
2296.92024	0.53038
2294.99167	0.52855
2293.06311	0.52656
2291.13454	0.52486
2289.20598	0.52347
2287.27741	0.52249
2285.34885	0.52182
2283.42028	0.52102
2281.49172	0.52006
2279.56316	0.51956
2277.63459	0.51981
2275.70603	0.52030
2273.77746	0.52059
2271.84890	0.52077
2269.92033	0.52096
2267.99177	0.52121
2266.06320	0.52148
2264.13464	0.52191
2262.20608	0.52257
2260.27751	0.52302
2258.34895	0.52282
2256.42038	0.52225
2254.49182	0.52182
2252.56325	0.52163
2250.63469	0.52150
2248.70612	0.52118
2246.77756	0.52065
2244.84900	0.52017
2242.92043	0.51975
2240.99187	0.51903
2239.06330	0.51798
2237.13474	0.51694
2235.20617	0.51585
2233.27761	0.51450
2231.34904	0.51314
2229.42048	0.51222
2227.49192	0.51169
2225.56335	0.51124
2223.63479	0.51093
2221.70622	0.51072
2219.77766	0.51043
2217.84909	0.51022
2215.92053	0.51010
2213.99196	0.50986
2212.06340	0.50953
2210.13484	0.50910
2208.20627	0.50871
2206.27771	0.50858
2204.34914	0.50839
2202.42058	0.50782
2200.49201	0.50712
2198.56345	0.50649
2196.63488	0.50585
2194.70632	0.50521
2192.77776	0.50443
2190.84919	0.50329
2188.92063	0.50191
2186.99206	0.50059
2185.06350	0.49928
2183.13493	0.49767
2181.20637	0.49576
2179.27781	0.49414
2177.34924	0.49309
2175.42068	0.49222
2173.49211	0.49132
2171.56355	0.49059
2169.63498	0.48999
2167.70642	0.48943
2165.77785	0.48890
2163.84929	0.48858
2161.92073	0.48859
2159.99216	0.48851
2158.06360	0.48803
2156.13503	0.48755
2154.20647	0.48718
2152.27790	0.48661
2150.34934	0.48597
2148.42077	0.48557
2146.49221	0.48556
2144.56365	0.48589
2142.63508	0.48600
2140.70652	0.48557
2138.77795	0.48520
2136.84939	0.48529
2134.92082	0.48533
2132.99226	0.48503
2131.06369	0.48463
2129.13513	0.48407
2127.20657	0.48308
2125.27800	0.48197
2123.34944	0.48109
2121.42087	0.48047
2119.49231	0.47986
2117.56374	0.47911
2115.63518	0.47844
2113.70661	0.47808
2111.77805	0.47789
2109.84949	0.47766
2107.92092	0.47721
2105.99236	0.47661
2104.06379	0.47637
2102.13523	0.47663
2100.20666	0.47681
2098.27810	0.47675
2096.34953	0.47671
2094.42097	0.47670
2092.49241	0.47668
2090.56384	0.47682
2088.63528	0.47710
2086.70671	0.47718
2084.77815	0.47710
2082.84958	0.47716
2080.92102	0.47712
2078.99245	0.47679
2077.06389	0.47670
2075.13533	0.47700
2073.20676	0.47717
2071.27820	0.47696
2069.34963	0.47655
2067.42107	0.47618
2065.49250	0.47571
2063.56394	0.47488
2061.63537	0.47372
2059.70681	0.47255
2057.77825	0.47164
2055.84968	0.47076
2053.92112	0.46965
2051.99255	0.46861
2050.06399	0.46784
2048.13542	0.46710
2046.20686	0.46625
2044.27830	0.46562
2042.34973	0.46520
2040.42117	0.46469
2038.49260	0.46419
2036.56404	0.46378
2034.63547	0.46346
2032.70691	0.46345
2030.77834	0.46360
2028.84978	0.46349
2026.92122	0.46340
2024.99265	0.46371
2023.06409	0.46415
2021.13552	0.46454
2019.20696	0.46500
2017.27839	0.46532
2015.34983	0.46533
2013.42126	0.46540
2011.49270	0.46554
2009.56414	0.46551
2007.63557	0.46553
2005.70701	0.46578
2003.77844	0.46603
2001.84988	0.46604
1999.92131	0.46575
1997.99275	0.46524
1996.06418	0.46489
1994.13562	0.46509
1992.20706	0.46539
1990.27849	0.46503
1988.34993	0.46442
1986.42136	0.46415
1984.49280	0.46402
1982.56423	0.46392
1980.63567	0.46373
1978.70710	0.46315
1976.77854	0.46234
1974.84998	0.46172
1972.92141	0.46130
1970.99285	0.46106
1969.06428	0.46089
1967.13572	0.46047
1965.20715	0.45995
1963.27859	0.45983
1961.35002	0.45997
1959.42146	0.45999
1957.49290	0.46003
1955.56433	0.46033
1953.63577	0.46061
1951.70720	0.46077
1949.77864	0.46118
1947.85007	0.46159
1945.92151	0.46181
1943.99294	0.46214
1942.06438	0.46232
1940.13582	0.46194
1938.20725	0.46133
1936.27869	0.46089
1934.35012	0.46088
1932.42156	0.46101
1930.49299	0.46063
1928.56443	0.45991
1926.63586	0.45953
1924.70730	0.45934
1922.77874	0.45886
1920.85017	0.45811
1918.92161	0.45690
1916.99304	0.45525
1915.06448	0.45401
1913.13591	0.45330
1911.20735	0.45268
1909.27878	0.45176
1907.35022	0.45028
1905.42166	0.44864
1903.49309	0.44746
1901.56453	0.44683
1899.63596	0.44631
1897.70740	0.44585
1895.77883	0.44567
1893.85027	0.44573
1891.92171	0.44600
1889.99314	0.44621
1888.06458	0.44632
1886.13601	0.44682
1884.20745	0.44749
1882.27888	0.44774
1880.35032	0.44768
1878.42175	0.44782
1876.49319	0.44829
1874.56463	0.44894
1872.63606	0.44982
1870.70750	0.45083
1868.77893	0.45129
1866.85037	0.45095
1864.92180	0.45057
1862.99324	0.45049
1861.06467	0.45059
1859.13611	0.45074
1857.20755	0.45097
1855.27898	0.45124
1853.35042	0.45138
1851.42185	0.45159
1849.49329	0.45220
1847.56472	0.45301
1845.63616	0.45333
1843.70759	0.45276
1841.77903	0.45229
1839.85047	0.45229
1837.92190	0.45221
1835.99334	0.45200
1834.06477	0.45223
1832.13621	0.45306
1830.20764	0.45365
1828.27908	0.45362
1826.35051	0.45368
1824.42195	0.45370
1822.49339	0.45355
1820.56482	0.45360
1818.63626	0.45380
1816.70769	0.45384
1814.77913	0.45389
1812.85056	0.45406
1810.92200	0.45400
1808.99343	0.45351
1807.06487	0.45295
1805.13631	0.45284
1803.20774	0.45306
1801.27918	0.45311
1799.35061	0.45288
1797.42205	0.45301
1795.49348	0.45380
1793.56492	0.45471
1791.63635	0.45470
1789.70779	0.45405
1787.77923	0.45401
1785.85066	0.45455
1783.92210	0.45552
1781.99353	0.45671
1780.06497	0.45766
1778.13640	0.45873
1776.20784	0.46042
1774.27927	0.46238
1772.35071	0.46359
1770.42215	0.46360
1768.49358	0.46338
1766.56502	0.46344
1764.63645	0.46394
1762.70789	0.46438
1760.77932	0.46469
1758.85076	0.46547
1756.92220	0.46685
1754.99363	0.46879
1753.06507	0.47146
1751.13650	0.47536
1749.20794	0.47979
1747.27937	0.48352
1745.35081	0.48720
1743.42224	0.49131
1741.49368	0.49550
1739.56512	0.49927
1737.63655	0.50238
1735.70799	0.50516
1733.77942	0.50768
1731.85086	0.50927
1729.92229	0.51116
1727.99373	0.51393
1726.06516	0.51775
1724.13660	0.52310
1722.20804	0.52894
1720.27947	0.53507
1718.35091	0.54450
1716.42234	0.55797
1714.49378	0.56893
1712.56521	0.57907
1710.63665	0.59155
1708.70808	0.60708
1706.77952	0.62979
1704.85096	0.66021
1702.92239	0.68924
1700.99383	0.72969
1699.06526	0.79195
1697.13670	0.84966
1695.20813	0.90575
1693.27957	0.94855
1691.35100	0.98231
1689.42244	1.02061
1687.49388	1.05462
1685.56531	1.08760
1683.63675	1.13729
1681.70818	1.17283
1679.77962	1.19187
1677.85105	1.20943
1675.92249	1.22871
1673.99392	1.24703
1672.06536	1.26182
1670.13680	1.27551
1668.20823	1.28660
1666.27967	1.29270
1664.35110	1.29779
1662.42254	1.30279
1660.49397	1.30498
1658.56541	1.30459
1656.63684	1.30423
1654.70828	1.30791
1652.77972	1.31040
1650.85115	1.30613
1648.92259	1.30204
1646.99402	1.29388
1645.06546	1.28729
1643.13689	1.28556
1641.20833	1.28373
1639.27976	1.28086
1637.35120	1.27780
1635.42264	1.27044
1633.49407	1.26208
1631.56551	1.25647
1629.63694	1.24951
1627.70838	1.24222
1625.77981	1.23671
1623.85125	1.22875
1621.92269	1.21756
1619.99412	1.20776
1618.06556	1.19462
1616.13699	1.17368
1614.20843	1.15608
1612.27986	1.14072
1610.35130	1.12242
1608.42273	1.10326
1606.49417	1.08765
1604.56561	1.07579
1602.63704	1.06569
1600.70848	1.05748
1598.77991	1.05239
1596.85135	1.05088
1594.92278	1.05080
1592.99422	1.05029
1591.06565	1.05107
1589.13709	1.05487
1587.20853	1.06183
1585.27996	1.07087
1583.35140	1.08093
1581.42283	1.09080
1579.49427	1.09983
1577.56570	1.11046
1575.63714	1.12329
1573.70857	1.13178
1571.78001	1.13826
1569.85145	1.14756
1567.92288	1.15679
1565.99432	1.16260
1564.06575	1.16819
1562.13719	1.17517
1560.20862	1.18689
1558.28006	1.20055
1556.35149	1.20123
1554.42293	1.20158
1552.49437	1.20243
1550.56580	1.20236
1548.63724	1.20271
1546.70867	1.20465
1544.78011	1.20644
1542.85154	1.20586
1540.92298	1.19958
1538.99441	1.18736
1537.06585	1.18141
1535.13729	1.17730
1533.20872	1.17108
1531.28016	1.16563
1529.35159	1.16248
1527.42303	1.15922
1525.49446	1.15618
1523.56590	1.15496
1521.63733	1.15160
1519.70877	1.14621
1517.78021	1.14053
1515.85164	1.13169
1513.92308	1.12134
1511.99451	1.11127
1510.06595	1.10156
1508.13738	1.08360
1506.20882	1.04944
1504.28025	1.03097
1502.35169	1.01920
1500.42313	1.00509
1498.49456	0.98590
1496.56600	0.96043
1494.63743	0.94013
1492.70887	0.92808
1490.78030	0.91471
1488.85174	0.89457
1486.92317	0.87832
1484.99461	0.86920
1483.06605	0.86396
1481.13748	0.86132
1479.20892	0.86147
1477.28035	0.86527
1475.35179	0.87384
1473.42322	0.88972
1471.49466	0.90717
1469.56610	0.91691
1467.63753	0.92438
1465.70897	0.93392
1463.78040	0.94287
1461.85184	0.94808
1459.92327	0.95276
1457.99471	0.96178
1456.06614	0.97162
1454.13758	0.97384
1452.20902	0.97370
1450.28045	0.97360
1448.35189	0.97284
1446.42332	0.96983
1444.49476	0.96544
1442.56619	0.96058
1440.63763	0.95559
1438.70906	0.95003
1436.78050	0.94125
1434.85194	0.93085
1432.92337	0.92271
1430.99481	0.91476
1429.06624	0.90636
1427.13768	0.90026
1425.20911	0.89728
1423.28055	0.89686
1421.35198	0.89801
1419.42342	0.89985
1417.49486	0.90163
1415.56629	0.90304
1413.63773	0.90442
1411.70916	0.90560
1409.78060	0.90694
1407.85203	0.90946
1405.92347	0.91315
1403.99490	0.91671
1402.06634	0.92000
1400.13778	0.92368
1398.20921	0.92671
1396.28065	0.92888
1394.35208	0.93137
1392.42352	0.93441
1390.49495	0.93870
1388.56639	0.94628
1386.63782	0.95742
1384.70926	0.96810
1382.78070	0.97720
1380.85213	0.98452
1378.92357	0.98841
1376.99500	0.98828
1375.06644	0.98320
1373.13787	0.97328
1371.20931	0.96168
1369.28074	0.94812
1367.35218	0.93317
1365.42362	0.92015
1363.49505	0.90771
1361.56649	0.89479
1359.63792	0.88477
1357.70936	0.87816
1355.78079	0.87359
1353.85223	0.86994
1351.92366	0.86674
1349.99510	0.86405
1348.06654	0.86191
1346.13797	0.86009
1344.20941	0.85852
1342.28084	0.85751
1340.35228	0.85733
1338.42371	0.85811
1336.49515	0.86004
1334.56659	0.86381
1332.63802	0.86985
1330.70946	0.87742
1328.78089	0.88457
1326.85233	0.88978
1324.92376	0.89329
1322.99520	0.89620
1321.06663	0.89945
1319.13807	0.90312
1317.20951	0.90625
1315.28094	0.90831
1313.35238	0.90979
1311.42381	0.91058
1309.49525	0.91012
1307.56668	0.90874
1305.63812	0.90656
1303.70955	0.90302
1301.78099	0.89842
1299.85243	0.89326
1297.92386	0.88710
1295.99530	0.87987
1294.06673	0.87281
1292.13817	0.86709
1290.20960	0.86281
1288.28104	0.85939
1286.35247	0.85628
1284.42391	0.85367
1282.49535	0.85183
1280.56678	0.85046
1278.63822	0.84966
1276.70965	0.85007
1274.78109	0.85202
1272.85252	0.85594
1270.92396	0.86197
1268.99539	0.86902
1267.06683	0.87582
1265.13827	0.88178
1263.20970	0.88661
1261.28114	0.89026
1259.35257	0.89286
1257.42401	0.89498
1255.49544	0.89761
1253.56688	0.90066
1251.63831	0.90339
1249.70975	0.90569
1247.78119	0.90750
1245.85262	0.90843
1243.92406	0.90857
1241.99549	0.90806
1240.06693	0.90654
1238.13836	0.90418
1236.20980	0.90142
1234.28123	0.89774
1232.35267	0.89274
1230.42411	0.88685
1228.49554	0.88043
1226.56698	0.87303
1224.63841	0.86435
1222.70985	0.85507
1220.78128	0.84632
1218.85272	0.83897
1216.92415	0.83341
1214.99559	0.83025
1213.06703	0.83003
1211.13846	0.83200
1209.20990	0.83494
1207.28133	0.83805
1205.35277	0.83982
1203.42420	0.83885
1201.49564	0.83549
1199.56708	0.83124
1197.63851	0.82740
1195.70995	0.82456
1193.78138	0.82256
1191.85282	0.82125
1189.92425	0.82105
1187.99569	0.82228
1186.06712	0.82499
1184.13856	0.82890
1182.21000	0.83318
1180.28143	0.83800
1178.35287	0.84467
1176.42430	0.85296
1174.49574	0.86181
1172.56717	0.87162
1170.63861	0.88290
1168.71004	0.89509
1166.78148	0.90803
1164.85292	0.92151
1162.92435	0.93352
1160.99579	0.94105
1159.06722	0.94274
1157.13866	0.93925
1155.21009	0.93179
1153.28153	0.92169
1151.35296	0.91051
1149.42440	0.89920
1147.49584	0.88800
1145.56727	0.87858
1143.63871	0.87360
1141.71014	0.87310
1139.78158	0.87558
1137.85301	0.88123
1135.92445	0.89117
1133.99588	0.90475
1132.06732	0.92008
1130.13876	0.93626
1128.21019	0.95277
1126.28163	0.96827
1124.35306	0.98163
1122.42450	0.99230
1120.49593	0.99983
1118.56737	1.00457
1116.63880	1.00699
1114.71024	1.00625
1112.78168	1.00244
1110.85311	0.99768
1108.92455	0.99369
1106.99598	0.99001
1105.06742	0.98604
1103.13885	0.98290
1101.21029	0.98204
1099.28172	0.98385
1097.35316	0.98815
1095.42460	0.99517
1093.49603	1.00525
1091.56747	1.01893
1089.63890	1.03555
1087.71034	1.05202
1085.78177	1.06696
1083.85321	1.07992
1081.92464	1.08901
1079.99608	1.09423
1078.06752	1.09499
1076.13895	1.09047
1074.21039	1.08226
1072.28182	1.07065
1070.35326	1.05667
1068.42469	1.04304
1066.49613	1.03073
1064.56756	1.01993
1062.63900	1.01033
1060.71044	1.00116
1058.78187	0.99195
1056.85331	0.98287
1054.92474	0.97530
1052.99618	0.97067
1051.06761	0.96853
1049.13905	0.96737
1047.21049	0.96757
1045.28192	0.97062
1043.35336	0.97651
1041.42479	0.98383
1039.49623	0.99060
1037.56766	0.99586
1035.63910	0.99999
1033.71053	1.00256
1031.78197	1.00282
1029.85341	1.00063
1027.92484	0.99642
1025.99628	0.99139
1024.06771	0.98658
1022.13915	0.98241
1020.21058	0.97976
1018.28202	0.97870
1016.35345	0.97698
1014.42489	0.97243
1012.49633	0.96412
1010.56776	0.95177
1008.63920	0.93670
1006.71063	0.92103
1004.78207	0.90574
1002.85350	0.89126
1000.92494	0.87804
998.99637	0.86664
997.06781	0.85704
995.13925	0.84762
993.21068	0.83792
991.28212	0.82854
989.35355	0.81810
987.42499	0.80608
985.49642	0.79426
983.56786	0.78370
981.63929	0.77512
979.71073	0.76915
977.78217	0.76443
975.85360	0.75889
973.92504	0.75201
971.99647	0.74404
970.06791	0.73517
968.13934	0.72588
966.21078	0.71720
964.28221	0.71023
962.35365	0.70569
960.42509	0.70430
958.49652	0.70597
956.56796	0.70784
954.63939	0.70548
952.71083	0.69668
950.78226	0.68275
948.85370	0.66672
946.92513	0.65132
944.99657	0.63802
943.06801	0.62727
941.13944	0.61908
939.21088	0.61334
937.28231	0.60936
935.35375	0.60615
933.42518	0.60395
931.49662	0.60355
929.56805	0.60472
927.63949	0.60687
925.71093	0.61011
923.78236	0.61443
921.85380	0.61928
919.92523	0.62400
917.99667	0.62811
916.06810	0.63190
914.13954	0.63660
912.21098	0.64254
910.28241	0.64897
908.35385	0.65588
906.42528	0.66374
904.49672	0.67182
902.56815	0.67920
900.63959	0.68577
898.71102	0.69040
896.78246	0.69159
894.85390	0.68966
892.92533	0.68563
890.99677	0.68041
889.06820	0.67432
887.13964	0.66737
885.21107	0.66045
883.28251	0.65428
881.35394	0.64878
879.42538	0.64478
877.49682	0.64309
875.56825	0.64253
873.63969	0.64260
871.71112	0.64450
869.78256	0.64819
867.85399	0.65293
865.92543	0.65917
863.99686	0.66749
862.06830	0.67800
860.13974	0.69056
858.21117	0.70422
856.28261	0.71799
854.35404	0.73251
852.42548	0.74800
850.49691	0.76309
848.56835	0.77768
846.63978	0.79307
844.71122	0.80907
842.78266	0.82440
840.85409	0.83954
838.92553	0.85495
836.99696	0.86814
835.06840	0.87716
833.13983	0.88317
831.21127	0.88820
829.28270	0.89280
827.35414	0.89595
825.42558	0.89771
823.49701	0.89880
821.56845	0.89810
819.63988	0.89510
817.71132	0.89195
815.78275	0.89044
813.85419	0.89066
811.92562	0.89234
809.99706	0.89386
808.06850	0.89427
806.13993	0.89543
804.21137	0.89825
802.28280	0.90143
800.35424	0.90374
798.42567	0.90516
796.49711	0.90669
794.56854	0.90866
792.63998	0.91073
790.71142	0.91282
788.78285	0.91453
786.85429	0.91538
784.92572	0.91604
782.99716	0.91688
781.06859	0.91636
779.14003	0.91376
777.21147	0.91023
775.28290	0.90708
773.35434	0.90521
771.42577	0.90385
769.49721	0.90211
767.56864	0.90121
765.64008	0.90119
763.71151	0.90084
761.78295	0.90047
759.85439	0.90125
757.92582	0.90359
755.99726	0.90661
754.06869	0.90997
752.14013	0.91476
750.21156	0.92107
748.28300	0.92825
746.35443	0.93547
744.42587	0.94232
742.49731	0.94931
740.56874	0.95511
738.64018	0.95907
736.71161	0.96435
734.78305	0.97155
732.85448	0.97874
730.92592	0.98690
728.99735	0.99599
727.06879	1.00381
725.14023	1.01026
723.21166	1.01611
721.28310	1.02301
719.35453	1.03177
717.42597	1.03955
715.49740	1.04526
713.56884	1.05007
711.64027	1.05426
709.71171	1.05925
707.78315	1.06588
705.85458	1.07125
703.92602	1.07189
701.99745	1.07022
700.06889	1.07065
698.14032	1.07198
696.21176	1.07292
694.28319	1.07523
692.35463	1.07794
690.42607	1.07932
688.49750	1.07964
686.56894	1.07931
684.64037	1.07901
682.71181	1.07963
680.78324	1.07997
678.85468	1.07587
676.92611	1.06622
674.99755	1.05718
673.06899	1.05206
671.14042	1.04693
669.21186	1.04006
667.28329	1.03690
665.35473	1.03499
663.42616	1.02971
661.49760	1.02504
659.56903	1.02460
657.64047	1.02458
655.71191	1.02150
653.78334	1.01763
651.85478	1.01677
649.92621	1.02094
647.99765	1.02723
646.06908	1.03013
644.14052	1.03171
642.21195	1.03831
640.28339	1.04820
638.35483	1.05755
636.42626	1.06770
634.49770	1.07691
632.56913	1.08113
630.64057	1.08188
628.71200	1.08196
626.78344	1.07951
624.85488	1.07322
622.92631	1.06565
620.99775	1.05723
619.06918	1.04851
617.14062	1.04074
615.21205	1.03344
613.28349	1.02789
611.35492	1.02425
609.42636	1.02078
607.49780	1.01800
605.56923	1.01765
603.64067	1.02007
601.71210	1.02183
599.78354	1.01972
