3997.91406	0.61596
3995.98550	0.61367
3994.05693	0.61272
3992.12837	0.61317
3990.19980	0.61264
3988.27124	0.61045
3986.34268	0.60989
3984.41411	0.61209
3982.48555	0.61515
3980.55698	0.61782
3978.62842	0.61918
3976.69985	0.61960
3974.77129	0.62036
3972.84272	0.62081
3970.91416	0.62029
3968.98560	0.61932
3967.05703	0.61735
3965.12847	0.61404
3963.19990	0.61142
3961.27134	0.61124
3959.34277	0.61206
3957.41421	0.61191
3955.48564	0.61105
3953.55708	0.61109
3951.62852	0.61197
3949.69995	0.61149
3947.77139	0.60884
3945.84282	0.60600
3943.91426	0.60527
3941.98569	0.60621
3940.05713	0.60587
3938.12856	0.60471
3936.20000	0.60513
3934.27144	0.60647
3932.34287	0.60532
3930.41431	0.60140
3928.48574	0.59918
3926.55718	0.59969
3924.62861	0.59976
3922.70005	0.59775
3920.77148	0.59619
3918.84292	0.59637
3916.91436	0.59766
3914.98579	0.59910
3913.05723	0.59899
3911.12866	0.59677
3909.20010	0.59381
3907.27153	0.59157
3905.34297	0.59108
3903.41440	0.59351
3901.48584	0.59711
3899.55728	0.59766
3897.62871	0.59516
3895.70015	0.59297
3893.77158	0.59216
3891.84302	0.59086
3889.91445	0.58767
3887.98589	0.58567
3886.05733	0.58704
3884.12876	0.58850
3882.20020	0.58716
3880.27163	0.58627
3878.34307	0.58639
3876.41450	0.58599
3874.48594	0.58527
3872.55737	0.58411
3870.62881	0.58425
3868.70025	0.58467
3866.77168	0.58251
3864.84312	0.58151
3862.91455	0.58268
3860.98599	0.58231
3859.05742	0.58131
3857.12886	0.58185
3855.20029	0.58758
3853.27173	0.59684
3851.34317	0.59386
3849.41460	0.58706
3847.48604	0.58135
3845.55747	0.57777
3843.62891	0.57850
3841.70034	0.58003
3839.77178	0.57847
3837.84321	0.57712
3835.91465	0.57590
3833.98609	0.57399
3832.05752	0.57335
3830.12896	0.57351
3828.20039	0.57288
3826.27183	0.57154
3824.34326	0.57111
3822.41470	0.57377
3820.48613	0.57820
3818.55757	0.57885
3816.62901	0.57698
3814.70044	0.57344
3812.77188	0.56997
3810.84331	0.56809
3808.91475	0.56780
3806.98618	0.56876
3805.05762	0.56897
3803.12905	0.56980
3801.20049	0.57313
3799.27193	0.57265
3797.34336	0.56971
3795.41480	0.56858
3793.48623	0.56800
3791.55767	0.56733
3789.62910	0.56686
3787.70054	0.56661
3785.77197	0.56692
3783.84341	0.56647
3781.91485	0.56505
3779.98628	0.56454
3778.05772	0.56479
3776.12915	0.56447
3774.20059	0.56350
3772.27202	0.56270
3770.34346	0.56267
3768.41489	0.56155
3766.48633	0.56080
3764.55777	0.56272
3762.62920	0.56398
3760.70064	0.56409
3758.77207	0.56476
3756.84351	0.56381
3754.91494	0.56134
3752.98638	0.56007
3751.05781	0.56256
3749.12925	0.56537
3747.20069	0.56546
3745.27212	0.56612
3743.34356	0.56596
3741.41499	0.56401
3739.48643	0.56278
3737.55786	0.56375
3735.62930	0.56796
3733.70074	0.57012
3731.77217	0.56691
3729.84361	0.56297
3727.91504	0.56078
3725.98648	0.56003
3724.05791	0.55872
3722.12935	0.55737
3720.20078	0.55674
3718.27222	0.55564
3716.34366	0.55491
3714.41509	0.55633
3712.48653	0.56073
3710.55796	0.56463
3708.62940	0.56406
3706.70083	0.56220
3704.77227	0.56170
3702.84370	0.56349
3700.91514	0.56446
3698.98658	0.56266
3697.05801	0.56228
3695.12945	0.56506
3693.20088	0.56782
3691.27232	0.56902
3689.34375	0.57213
3687.41519	0.57502
3685.48662	0.57421
3683.55806	0.57200
3681.62950	0.57013
3679.70093	0.56939
3677.77237	0.57162
3675.84380	0.58085
3673.91524	0.58847
3671.98667	0.59072
3670.05811	0.59506
3668.12954	0.59620
3666.20098	0.59338
3664.27242	0.59216
3662.34385	0.59396
3660.41529	0.59740
3658.48672	0.60151
3656.55816	0.60834
3654.62959	0.61468
3652.70103	0.61639
3650.77246	0.61952
3648.84390	0.63518
3646.91534	0.64801
3644.98677	0.64963
3643.05821	0.65018
3641.12964	0.65399
3639.20108	0.66045
3637.27251	0.66782
3635.34395	0.67542
3633.41538	0.68156
3631.48682	0.68486
3629.55826	0.69217
3627.62969	0.70622
3625.70113	0.71283
3623.77256	0.71367
3621.84400	0.71518
3619.91543	0.72340
3617.98687	0.73487
3616.05830	0.74129
3614.12974	0.74607
3612.20118	0.75104
3610.27261	0.75651
3608.34405	0.76398
3606.41548	0.77075
3604.48692	0.77570
3602.55835	0.78231
3600.62979	0.79162
3598.70123	0.80036
3596.77266	0.80726
3594.84410	0.81372
3592.91553	0.81924
3590.98697	0.82383
3589.05840	0.83130
3587.12984	0.84423
3585.20127	0.85440
3583.27271	0.85915
3581.34415	0.86500
3579.41558	0.87440
3577.48702	0.88231
3575.55845	0.88738
3573.62989	0.89370
3571.70132	0.90127
3569.77276	0.90818
3567.84419	0.91700
3565.91563	0.92852
3563.98707	0.93714
3562.05850	0.94384
3560.12994	0.94936
3558.20137	0.95422
3556.27281	0.96130
3554.34424	0.97235
3552.41568	0.98530
3550.48711	0.99279
3548.55855	0.99543
3546.62999	1.00342
3544.70142	1.01613
3542.77286	1.02136
3540.84429	1.02303
3538.91573	1.03160
3536.98716	1.04690
3535.05860	1.06126
3533.13003	1.06975
3531.20147	1.07489
3529.27291	1.08291
3527.34434	1.09748
3525.41578	1.11491
3523.48721	1.12559
3521.55865	1.12676
3519.63008	1.12863
3517.70152	1.13684
3515.77295	1.14679
3513.84439	1.15497
3511.91583	1.16315
3509.98726	1.17265
3508.05870	1.18186
3506.13013	1.19136
3504.20157	1.20448
3502.27300	1.21932
3500.34444	1.23008
3498.41587	1.23622
3496.48731	1.24416
3494.55875	1.25643
3492.63018	1.26436
3490.70162	1.26672
3488.77305	1.26980
3486.84449	1.27325
3484.91592	1.27672
3482.98736	1.28462
3481.05879	1.29914
3479.13023	1.31455
3477.20167	1.32374
3475.27310	1.32590
3473.34454	1.32606
3471.41597	1.32775
3469.48741	1.32961
3467.55884	1.33434
3465.63028	1.34451
3463.70171	1.35130
3461.77315	1.35124
3459.84459	1.35343
3457.91602	1.35782
3455.98746	1.36132
3454.05889	1.36783
3452.13033	1.37468
3450.20176	1.37688
3448.27320	1.38040
3446.34464	1.39073
3444.41607	1.39955
3442.48751	1.39965
3440.55894	1.39680
3438.63038	1.39894
3436.70181	1.40508
3434.77325	1.40894
3432.84468	1.40850
3430.91612	1.40674
3428.98756	1.40775
3427.05899	1.41287
3425.13043	1.42061
3423.20186	1.42942
3421.27330	1.43635
3419.34473	1.43731
3417.41617	1.43170
3415.48760	1.42610
3413.55904	1.42591
3411.63048	1.42503
3409.70191	1.41958
3407.77335	1.41614
3405.84478	1.42061
3403.91622	1.43313
3401.98765	1.44161
3400.05909	1.43636
3398.13052	1.42971
3396.20196	1.43088
3394.27340	1.43636
3392.34483	1.44242
3390.41627	1.44357
3388.48770	1.43999
3386.55914	1.43775
3384.63057	1.43661
3382.70201	1.43350
3380.77344	1.42993
3378.84488	1.43099
3376.91632	1.44074
3374.98775	1.45371
3373.05919	1.45952
3371.13062	1.45722
3369.20206	1.45035
3367.27349	1.44191
3365.34493	1.43685
3363.41636	1.43768
3361.48780	1.44357
3359.55924	1.45182
3357.63067	1.46036
3355.70211	1.46635
3353.77354	1.46646
3351.84498	1.46425
3349.91641	1.46595
3347.98785	1.47192
3346.05928	1.47497
3344.13072	1.47168
3342.20216	1.46961
3340.27359	1.47410
3338.34503	1.48508
3336.41646	1.49589
3334.48790	1.49655
3332.55933	1.49333
3330.63077	1.49567
3328.70220	1.50127
3326.77364	1.50504
3324.84508	1.49966
3322.91651	1.48905
3320.98795	1.48923
3319.05938	1.50102
3317.13082	1.50877
3315.20225	1.50286
3313.27369	1.49203
3311.34513	1.48822
3309.41656	1.49022
3307.48800	1.49713
3305.55943	1.51050
3303.63087	1.51845
3301.70230	1.51628
3299.77374	1.51909
3297.84517	1.52867
3295.91661	1.53276
3293.98805	1.53200
3292.05948	1.52970
3290.13092	1.51913
3288.20235	1.50161
3286.27379	1.48773
3284.34522	1.48168
3282.41666	1.48514
3280.48809	1.50016
3278.55953	1.51520
3276.63097	1.51200
3274.70240	1.49597
3272.77384	1.48408
3270.84527	1.47787
3268.91671	1.47784
3266.98814	1.48415
3265.05958	1.48394
3263.13101	1.47461
3261.20245	1.46773
3259.27389	1.46447
3257.34532	1.45920
3255.41676	1.44785
3253.48819	1.43299
3251.55963	1.42396
3249.63106	1.42146
3247.70250	1.41831
3245.77393	1.41370
3243.84537	1.41020
3241.91681	1.40618
3239.98824	1.40262
3238.05968	1.40110
3236.13111	1.39720
3234.20255	1.39069
3232.27398	1.38325
3230.34542	1.37140
3228.41685	1.36039
3226.48829	1.35876
3224.55973	1.36237
3222.63116	1.36588
3220.70260	1.36998
3218.77403	1.37132
3216.84547	1.36615
3214.91690	1.35633
3212.98834	1.34553
3211.05977	1.33598
3209.13121	1.32815
3207.20265	1.32294
3205.27408	1.32249
3203.34552	1.32601
3201.41695	1.32710
3199.48839	1.32263
3197.55982	1.31643
3195.63126	1.31050
3193.70269	1.30399
3191.77413	1.29647
3189.84557	1.28939
3187.91700	1.28516
3185.98844	1.28397
3184.05987	1.28209
3182.13131	1.27701
3180.20274	1.27425
3178.27418	1.27566
3176.34562	1.27367
3174.41705	1.26621
3172.48849	1.25955
3170.55992	1.25887
3168.63136	1.26025
3166.70279	1.25647
3164.77423	1.25068
3162.84566	1.24748
3160.91710	1.24505
3158.98854	1.24403
3157.05997	1.24537
3155.13141	1.24432
3153.20284	1.23710
3151.27428	1.22702
3149.34571	1.22049
3147.41715	1.21985
3145.48858	1.22226
3143.56002	1.22304
3141.63146	1.21967
3139.70289	1.21510
3137.77433	1.21234
3135.84576	1.20969
3133.91720	1.20573
3131.98863	1.20089
3130.06007	1.19708
3128.13150	1.19742
3126.20294	1.20042
3124.27438	1.20047
3122.34581	1.19870
3120.41725	1.20122
3118.48868	1.20537
3116.56012	1.20362
3114.63155	1.19747
3112.70299	1.19240
3110.77442	1.18880
3108.84586	1.18586
3106.91730	1.18369
3104.98873	1.18253
3103.06017	1.18313
3101.13160	1.18381
3099.20304	1.18256
3097.27447	1.18154
3095.34591	1.18218
3093.41734	1.18263
3091.48878	1.18251
3089.56022	1.18273
3087.63165	1.18131
3085.70309	1.17757
3083.77452	1.17513
3081.84596	1.17460
3079.91739	1.17371
3077.98883	1.17259
3076.06026	1.17004
3074.13170	1.16478
3072.20314	1.16005
3070.27457	1.15849
3068.34601	1.16007
3066.41744	1.16298
3064.48888	1.16184
3062.56031	1.15479
3060.63175	1.14699
3058.70318	1.14177
3056.77462	1.13828
3054.84606	1.13484
3052.91749	1.13060
3050.98893	1.12638
3049.06036	1.12267
3047.13180	1.11896
3045.20323	1.11638
3043.27467	1.11535
3041.34610	1.11370
3039.41754	1.11062
3037.48898	1.10688
3035.56041	1.10299
3033.63185	1.09876
3031.70328	1.09464
3029.77472	1.09201
3027.84615	1.08916
3025.91759	1.08388
3023.98903	1.07806
3022.06046	1.07395
3020.13190	1.07187
3018.20333	1.07009
3016.27477	1.06710
3014.34620	1.06518
3012.41764	1.06496
3010.48907	1.06327
3008.56051	1.05970
3006.63195	1.05695
3004.70338	1.05572
3002.77482	1.05321
3000.84625	1.04943
2998.91769	1.04820
2996.98912	1.04921
2995.06056	1.05051
2993.13199	1.05406
2991.20343	1.06002
2989.27487	1.06470
2987.34630	1.06753
2985.41774	1.07174
2983.48917	1.07842
2981.56061	1.08658
2979.63204	1.09607
2977.70348	1.10639
2975.77491	1.11690
2973.84635	1.12692
2971.91779	1.13517
2969.98922	1.14265
2968.06066	1.15044
2966.13209	1.15809
2964.20353	1.16568
2962.27496	1.16974
2960.34640	1.16815
2958.41783	1.16577
2956.48927	1.16295
2954.56071	1.15605
2952.63214	1.14875
2950.70358	1.14505
2948.77501	1.14358
2946.84645	1.14510
2944.91788	1.15052
2942.98932	1.15726
2941.06075	1.16437
2939.13219	1.17354
2937.20363	1.18527
2935.27506	1.19545
2933.34650	1.20049
2931.41793	1.20473
2929.48937	1.21178
2927.56080	1.21743
2925.63224	1.21943
2923.70367	1.22309
2921.77511	1.23035
2919.84655	1.23309
2917.91798	1.22220
2915.98942	1.19861
2914.06085	1.17238
2912.13229	1.15166
2910.20372	1.13631
2908.27516	1.12254
2906.34659	1.10997
2904.41803	1.09994
2902.48947	1.09143
2900.56090	1.08356
2898.63234	1.07665
2896.70377	1.07118
2894.77521	1.06718
2892.84664	1.06328
2890.91808	1.05872
2888.98952	1.05470
2887.06095	1.05297
2885.13239	1.05397
2883.20382	1.05550
2881.27526	1.05525
2879.34669	1.05440
2877.41813	1.05495
2875.48956	1.05588
2873.56100	1.05497
2871.63244	1.05153
2869.70387	1.04612
2867.77531	1.03929
2865.84674	1.03225
2863.91818	1.02689
2861.98961	1.02467
2860.06105	1.02617
2858.13248	1.03042
2856.20392	1.03576
2854.27536	1.04148
2852.34679	1.04710
2850.41823	1.04825
2848.48966	1.03673
2846.56110	1.01166
2844.63253	0.98312
2842.70397	0.96049
2840.77540	0.94498
2838.84684	0.93318
2836.91828	0.92343
2834.98971	0.91631
2833.06115	0.91132
2831.13258	0.90666
2829.20402	0.90162
2827.27545	0.89682
2825.34689	0.89218
2823.41832	0.88799
2821.48976	0.88540
2819.56120	0.88303
2817.63263	0.87857
2815.70407	0.87320
2813.77550	0.86882
2811.84694	0.86527
2809.91837	0.86222
2807.98981	0.85986
2806.06124	0.85824
2804.13268	0.85633
2802.20412	0.85306
2800.27555	0.84940
2798.34699	0.84631
2796.41842	0.84328
2794.48986	0.83967
2792.56129	0.83518
2790.63273	0.83028
2788.70416	0.82572
2786.77560	0.82183
2784.84704	0.81857
2782.91847	0.81491
2780.98991	0.81092
2779.06134	0.80782
2777.13278	0.80549
2775.20421	0.80348
2773.27565	0.80155
2771.34708	0.79888
2769.41852	0.79560
2767.48996	0.79223
2765.56139	0.78906
2763.63283	0.78672
2761.70426	0.78537
2759.77570	0.78429
2757.84713	0.78318
2755.91857	0.78212
2753.99001	0.78059
2752.06144	0.77833
2750.13288	0.77588
2748.20431	0.77348
2746.27575	0.77093
2744.34718	0.76857
2742.41862	0.76710
2740.49005	0.76579
2738.56149	0.76349
2736.63293	0.76072
2734.70436	0.75828
2732.77580	0.75573
2730.84723	0.75263
2728.91867	0.74931
2726.99010	0.74616
2725.06154	0.74383
2723.13297	0.74274
2721.20441	0.74160
2719.27585	0.73937
2717.34728	0.73689
2715.41872	0.73484
2713.49015	0.73295
2711.56159	0.73110
2709.63302	0.72953
2707.70446	0.72824
2705.77589	0.72715
2703.84733	0.72638
2701.91877	0.72590
2699.99020	0.72523
2698.06164	0.72442
2696.13307	0.72382
2694.20451	0.72262
2692.27594	0.72044
2690.34738	0.71816
2688.41881	0.71613
2686.49025	0.71373
2684.56169	0.71089
2682.63312	0.70835
2680.70456	0.70585
2678.77599	0.70293
2676.84743	0.70022
2674.91886	0.69766
2672.99030	0.69423
2671.06173	0.69038
2669.13317	0.68736
2667.20461	0.68482
2665.27604	0.68208
2663.34748	0.67957
2661.41891	0.67758
2659.49035	0.67585
2657.56178	0.67407
2655.63322	0.67279
2653.70465	0.67271
2651.77609	0.67297
2649.84753	0.67205
2647.91896	0.67007
2645.99040	0.66848
2644.06183	0.66760
2642.13327	0.66649
2640.20470	0.66498
2638.27614	0.66387
2636.34757	0.66335
2634.41901	0.66226
2632.49045	0.65996
2630.56188	0.65754
2628.63332	0.65572
2626.70475	0.65404
2624.77619	0.65201
2622.84762	0.64944
2620.91906	0.64657
2618.99049	0.64390
2617.06193	0.64134
2615.13337	0.63903
2613.20480	0.63721
2611.27624	0.63552
2609.34767	0.63384
2607.41911	0.63212
2605.49054	0.63018
2603.56198	0.62808
2601.63342	0.62601
2599.70485	0.62425
2597.77629	0.62339
2595.84772	0.62356
2593.91916	0.62343
2591.99059	0.62214
2590.06203	0.62081
2588.13346	0.62030
2586.20490	0.61997
2584.27634	0.61914
2582.34777	0.61811
2580.41921	0.61733
2578.49064	0.61626
2576.56208	0.61439
2574.63351	0.61266
2572.70495	0.61187
2570.77638	0.61084
2568.84782	0.60892
2566.91926	0.60672
2564.99069	0.60457
2563.06213	0.60265
2561.13356	0.60057
2559.20500	0.59798
2557.27643	0.59551
2555.34787	0.59385
2553.41930	0.59248
2551.49074	0.59084
2549.56218	0.58926
2547.63361	0.58797
2545.70505	0.58685
2543.77648	0.58582
2541.84792	0.58457
2539.91935	0.58282
2537.99079	0.58125
2536.06222	0.58067
2534.13366	0.58053
2532.20510	0.57991
2530.27653	0.57880
2528.34797	0.57774
2526.41940	0.57718
2524.49084	0.57682
2522.56227	0.57609
2520.63371	0.57492
2518.70514	0.57357
2516.77658	0.57209
2514.84802	0.57025
2512.91945	0.56819
2510.99089	0.56643
2509.06232	0.56486
2507.13376	0.56296
2505.20519	0.56097
2503.27663	0.55941
2501.34806	0.55778
2499.41950	0.55554
2497.49094	0.55311
2495.56237	0.55091
2493.63381	0.54916
2491.70524	0.54799
2489.77668	0.54680
2487.84811	0.54510
2485.91955	0.54333
2483.99098	0.54170
2482.06242	0.54008
2480.13386	0.53878
2478.20529	0.53807
2476.27673	0.53756
2474.34816	0.53669
2472.41960	0.53552
2470.49103	0.53438
2468.56247	0.53345
2466.63391	0.53279
2464.70534	0.53224
2462.77678	0.53156
2460.84821	0.53082
2458.91965	0.53003
2456.99108	0.52874
2455.06252	0.52700
2453.13395	0.52536
2451.20539	0.52380
2449.27683	0.52210
2447.34826	0.52040
2445.41970	0.51863
2443.49113	0.51661
2441.56257	0.51482
2439.63400	0.51384
2437.70544	0.51308
2435.77687	0.51185
2433.84831	0.51060
2431.91975	0.50964
2429.99118	0.50868
2428.06262	0.50783
2426.13405	0.50720
2424.20549	0.50642
2422.27692	0.50571
2420.34836	0.50568
2418.41979	0.50573
2416.49123	0.50514
2414.56267	0.50440
2412.63410	0.50390
2410.70554	0.50313
2408.77697	0.50164
2406.84841	0.49975
2404.91984	0.49829
2402.99128	0.49739
2401.06271	0.49617
2399.13415	0.49430
2397.20559	0.49275
2395.27702	0.49190
2393.34846	0.49084
2391.41989	0.48923
2389.49133	0.48790
2387.56276	0.48737
2385.63420	0.48755
2383.70563	0.48825
2381.77707	0.48907
2379.84851	0.48975
2377.91994	0.49116
2375.99138	0.49423
2374.06281	0.49807
2372.13425	0.50179
2370.20568	0.50619
2368.27712	0.51147
2366.34855	0.51648
2364.41999	0.52018
2362.49143	0.52114
2360.56286	0.51891
2358.63430	0.51581
2356.70573	0.51232
2354.77717	0.50844
2352.84860	0.50363
2350.92004	0.49737
2348.99147	0.49326
2347.06291	0.49410
2345.13435	0.49843
2343.20578	0.50069
2341.27722	0.49935
2339.34865	0.49752
2337.42009	0.49698
2335.49152	0.49751
2333.56296	0.49755
2331.63440	0.49609
2329.70583	0.49369
2327.77727	0.49167
2325.84870	0.48984
2323.92014	0.48695
2321.99157	0.48325
2320.06301	0.48007
2318.13444	0.47752
2316.20588	0.47505
2314.27732	0.47284
2312.34875	0.47141
2310.42019	0.47033
2308.49162	0.46879
2306.56306	0.46689
2304.63449	0.46497
2302.70593	0.46340
2300.77736	0.46237
2298.84880	0.46158
2296.92024	0.46065
2294.99167	0.45933
2293.06311	0.45773
2291.13454	0.45637
2289.20598	0.45537
2287.27741	0.45431
2285.34885	0.45303
2283.42028	0.45171
2281.49172	0.45051
2279.56316	0.44942
2277.63459	0.44843
2275.70603	0.44767
2273.77746	0.44682
2271.84890	0.44553
2269.92033	0.44418
2267.99177	0.44314
2266.06320	0.44227
2264.13464	0.44136
2262.20608	0.44031
2260.27751	0.43916
2258.34895	0.43807
2256.42038	0.43721
2254.49182	0.43664
2252.56325	0.43602
2250.63469	0.43516
2248.70612	0.43421
2246.77756	0.43322
2244.84900	0.43251
2242.92043	0.43230
2240.99187	0.43188
2239.06330	0.43088
2237.13474	0.42985
2235.20617	0.42904
2233.27761	0.42827
2231.34904	0.42748
2229.42048	0.42657
2227.49192	0.42561
2225.56335	0.42474
2223.63479	0.42401
2221.70622	0.42344
2219.77766	0.42296
2217.84909	0.42256
2215.92053	0.42249
2213.99196	0.42271
2212.06340	0.42286
2210.13484	0.42268
2208.20627	0.42217
2206.27771	0.42148
2204.34914	0.42092
2202.42058	0.42075
2200.49201	0.42079
2198.56345	0.42080
2196.63488	0.42088
2194.70632	0.42123
2192.77776	0.42153
2190.84919	0.42143
2188.92063	0.42113
2186.99206	0.42086
2185.06350	0.42068
2183.13493	0.42056
2181.20637	0.42022
2179.27781	0.41965
2177.34924	0.41898
2175.42068	0.41816
2173.49211	0.41721
2171.56355	0.41641
2169.63498	0.41578
2167.70642	0.41502
2165.77785	0.41400
2163.84929	0.41297
2161.92073	0.41215
2159.99216	0.41152
2158.06360	0.41107
2156.13503	0.41058
2154.20647	0.40981
2152.27790	0.40889
2150.34934	0.40802
2148.42077	0.40732
2146.49221	0.40685
2144.56365	0.40645
2142.63508	0.40595
2140.70652	0.40537
2138.77795	0.40473
2136.84939	0.40411
2134.92082	0.40355
2132.99226	0.40291
2131.06369	0.40228
2129.13513	0.40175
2127.20657	0.40118
2125.27800	0.40060
2123.34944	0.40006
2121.42087	0.39947
2119.49231	0.39891
2117.56374	0.39845
2115.63518	0.39795
2113.70661	0.39742
2111.77805	0.39694
2109.84949	0.39636
2107.92092	0.39569
2105.99236	0.39506
2104.06379	0.39447
2102.13523	0.39383
2100.20666	0.39309
2098.27810	0.39237
2096.34953	0.39176
2094.42097	0.39121
2092.49241	0.39067
2090.56384	0.39026
2088.63528	0.38992
2086.70671	0.38932
2084.77815	0.38852
2082.84958	0.38800
2080.92102	0.38790
2078.99245	0.38782
2077.06389	0.38754
2075.13533	0.38727
2073.20676	0.38706
2071.27820	0.38673
2069.34963	0.38633
2067.42107	0.38592
2065.49250	0.38533
2063.56394	0.38441
2061.63537	0.38322
2059.70681	0.38183
2057.77825	0.38037
2055.84968	0.37889
2053.92112	0.37748
2051.99255	0.37606
2050.06399	0.37438
2048.13542	0.37256
2046.20686	0.37087
2044.27830	0.36925
2042.34973	0.36762
2040.42117	0.36607
2038.49260	0.36455
2036.56404	0.36307
2034.63547	0.36179
2032.70691	0.36068
2030.77834	0.35962
2028.84978	0.35863
2026.92122	0.35773
2024.99265	0.35683
2023.06409	0.35595
2021.13552	0.35513
2019.20696	0.35444
2017.27839	0.35410
2015.34983	0.35403
2013.42126	0.35397
2011.49270	0.35365
2009.56414	0.35318
2007.63557	0.35315
2005.70701	0.35365
2003.77844	0.35419
2001.84988	0.35443
1999.92131	0.35436
1997.99275	0.35423
1996.06418	0.35414
1994.13562	0.35405
1992.20706	0.35405
1990.27849	0.35398
1988.34993	0.35365
1986.42136	0.35314
1984.49280	0.35241
1982.56423	0.35149
1980.63567	0.35066
1978.70710	0.34998
1976.77854	0.34931
1974.84998	0.34855
1972.92141	0.34777
1970.99285	0.34711
1969.06428	0.34673
1967.13572	0.34642
1965.20715	0.34587
1963.27859	0.34537
1961.35002	0.34527
1959.42146	0.34526
1957.49290	0.34506
1955.56433	0.34488
1953.63577	0.34479
1951.70720	0.34463
1949.77864	0.34429
1947.85007	0.34376
1945.92151	0.34329
1943.99294	0.34299
1942.06438	0.34229
1940.13582	0.34086
1938.20725	0.33936
1936.27869	0.33807
1934.35012	0.33657
1932.42156	0.33475
1930.49299	0.33295
1928.56443	0.33136
1926.63586	0.32987
1924.70730	0.32825
1922.77874	0.32650
1920.85017	0.32495
1918.92161	0.32368
1916.99304	0.32226
1915.06448	0.32061
1913.13591	0.31931
1911.20735	0.31857
1909.27878	0.31800
1907.35022	0.31725
1905.42166	0.31659
1903.49309	0.31621
1901.56453	0.31598
1899.63596	0.31595
1897.70740	0.31626
1895.77883	0.31671
1893.85027	0.31687
1891.92171	0.31694
1889.99314	0.31735
1888.06458	0.31779
1886.13601	0.31809
1884.20745	0.31843
1882.27888	0.31860
1880.35032	0.31845
1878.42175	0.31824
1876.49319	0.31817
1874.56463	0.31802
1872.63606	0.31780
1870.70750	0.31822
1868.77893	0.31950
1866.85037	0.32001
1864.92180	0.31936
1862.99324	0.31885
1861.06467	0.31879
1859.13611	0.31889
1857.20755	0.31913
1855.27898	0.31957
1853.35042	0.32016
1851.42185	0.32097
1849.49329	0.32212
1847.56472	0.32351
1845.63616	0.32533
1843.70759	0.32732
1841.77903	0.32797
1839.85047	0.32777
1837.92190	0.32766
1835.99334	0.32748
1834.06477	0.32718
1832.13621	0.32732
1830.20764	0.32790
1828.27908	0.32781
1826.35051	0.32685
1824.42195	0.32560
1822.49339	0.32408
1820.56482	0.32240
1818.63626	0.32087
1816.70769	0.31936
1814.77913	0.31792
1812.85056	0.31684
1810.92200	0.31592
1808.99343	0.31455
1807.06487	0.31290
1805.13631	0.31150
1803.20774	0.31066
1801.27918	0.31061
1799.35061	0.31049
1797.42205	0.30977
1795.49348	0.30932
1793.56492	0.30999
1791.63635	0.31139
1789.70779	0.31148
1787.77923	0.31103
1785.85066	0.31142
1783.92210	0.31272
1781.99353	0.31461
1780.06497	0.31668
1778.13640	0.31827
1776.20784	0.31956
1774.27927	0.32174
1772.35071	0.32554
1770.42215	0.32883
1768.49358	0.33068
1766.56502	0.33210
1764.63645	0.33377
1762.70789	0.33700
1760.77932	0.34149
1758.85076	0.34549
1756.92220	0.35009
1754.99363	0.35506
1753.06507	0.36053
1751.13650	0.36962
1749.20794	0.38174
1747.27937	0.39142
1745.35081	0.39898
1743.42224	0.40640
1741.49368	0.41393
1739.56512	0.42110
1737.63655	0.42610
1735.70799	0.43031
1733.77942	0.43725
1731.85086	0.44253
1729.92229	0.44537
1727.99373	0.44877
1726.06516	0.45305
1724.13660	0.45921
1722.20804	0.46617
1720.27947	0.47293
1718.35091	0.48426
1716.42234	0.50378
1714.49378	0.51920
1712.56521	0.53072
1710.63665	0.54448
1708.70808	0.56234
1706.77952	0.58930
1704.85096	0.62526
1702.92239	0.65828
1700.99383	0.70413
1699.06526	0.77753
1697.13670	0.84674
1695.20813	0.91484
1693.27957	0.96616
1691.35100	1.00531
1689.42244	1.05052
1687.49388	1.09031
1685.56531	1.12655
1683.63675	1.17833
1681.70818	1.21237
1679.77962	1.22716
1677.85105	1.23963
1675.92249	1.25390
1673.99392	1.26618
1672.06536	1.27479
1670.13680	1.28350
1668.20823	1.28986
1666.27967	1.29007
1664.35110	1.28970
1662.42254	1.29030
1660.49397	1.29000
1658.56541	1.28909
1656.63684	1.28634
1654.70828	1.28337
1652.77972	1.28148
1650.85115	1.27807
1648.92259	1.27400
1646.99402	1.27045
1645.06546	1.26796
1643.13689	1.26220
1641.20833	1.25523
1639.27976	1.25051
1637.35120	1.24752
1635.42264	1.23997
1633.49407	1.23169
1631.56551	1.22623
1629.63694	1.21858
1627.70838	1.20802
1625.77981	1.19732
1623.85125	1.18663
1621.92269	1.17509
1619.99412	1.16417
1618.06556	1.15068
1616.13699	1.13055
1614.20843	1.11268
1612.27986	1.09817
1610.35130	1.08303
1608.42273	1.06708
1606.49417	1.05319
1604.56561	1.04261
1602.63704	1.03368
1600.70848	1.02647
1598.77991	1.02140
1596.85135	1.01843
1594.92278	1.01725
1592.99422	1.01699
1591.06565	1.01784
1589.13709	1.02055
1587.20853	1.02517
1585.27996	1.03073
1583.35140	1.03704
1581.42283	1.04435
1579.49427	1.05259
1577.56570	1.06458
1575.63714	1.08009
1573.70857	1.08807
1571.78001	1.09281
1569.85145	1.10310
1567.92288	1.11612
1565.99432	1.12595
1564.06575	1.13423
1562.13719	1.13912
1560.20862	1.14370
1558.28006	1.15800
1556.35149	1.16485
1554.42293	1.16467
1552.49437	1.16443
1550.56580	1.16423
1548.63724	1.16218
1546.70867	1.15898
1544.78011	1.15611
1542.85154	1.15480
1540.92298	1.15645
1538.99441	1.15146
1537.06585	1.14292
1535.13729	1.13546
1533.20872	1.12699
1531.28016	1.11894
1529.35159	1.11451
1527.42303	1.11249
1525.49446	1.10866
1523.56590	1.10200
1521.63733	1.09559
1519.70877	1.09110
1517.78021	1.08323
1515.85164	1.06924
1513.92308	1.05405
1511.99451	1.04035
1510.06595	1.02785
1508.13738	1.00841
1506.20882	0.97440
1504.28025	0.95574
1502.35169	0.94460
1500.42313	0.93242
1498.49456	0.91727
1496.56600	0.89863
1494.63743	0.88237
1492.70887	0.87065
1490.78030	0.85884
1488.85174	0.84385
1486.92317	0.83070
1484.99461	0.82202
1483.06605	0.81712
1481.13748	0.81576
1479.20892	0.81725
1477.28035	0.82113
1475.35179	0.82859
1473.42322	0.84235
1471.49466	0.85741
1469.56610	0.86524
1467.63753	0.87000
1465.70897	0.87602
1463.78040	0.88246
1461.85184	0.88555
1459.92327	0.88705
1457.99471	0.89264
1456.06614	0.90026
1454.13758	0.89993
1452.20902	0.89691
1450.28045	0.89426
1448.35189	0.89167
1446.42332	0.88777
1444.49476	0.88292
1442.56619	0.87776
1440.63763	0.87246
1438.70906	0.86735
1436.78050	0.86164
1434.85194	0.85465
1432.92337	0.84797
1430.99481	0.84292
1429.06624	0.84052
1427.13768	0.84024
1425.20911	0.84184
1423.28055	0.84545
1421.35198	0.85037
1419.42342	0.85816
1417.49486	0.86569
1415.56629	0.86846
1413.63773	0.87031
1411.70916	0.87280
1409.78060	0.87530
1407.85203	0.87803
1405.92347	0.88203
1403.99490	0.88594
1402.06634	0.88778
1400.13778	0.88924
1398.20921	0.89122
1396.28065	0.89271
1394.35208	0.89318
1392.42352	0.89243
1390.49495	0.89165
1388.56639	0.89321
1386.63782	0.89801
1384.70926	0.90295
1382.78070	0.90644
1380.85213	0.90818
1378.92357	0.90731
1376.99500	0.90361
1375.06644	0.89682
1373.13787	0.88723
1371.20931	0.87661
1369.28074	0.86492
1367.35218	0.85268
1365.42362	0.84158
1363.49505	0.83055
1361.56649	0.81959
1359.63792	0.81115
1357.70936	0.80531
1355.78079	0.80113
1353.85223	0.79788
1351.92366	0.79526
1349.99510	0.79313
1348.06654	0.79131
1346.13797	0.78971
1344.20941	0.78843
1342.28084	0.78812
1340.35228	0.78919
1338.42371	0.79049
1336.49515	0.79168
1334.56659	0.79456
1332.63802	0.79977
1330.70946	0.80637
1328.78089	0.81295
1326.85233	0.81834
1324.92376	0.82231
1322.99520	0.82591
1321.06663	0.82991
1319.13807	0.83414
1317.20951	0.83776
1315.28094	0.84021
1313.35238	0.84170
1311.42381	0.84250
1309.49525	0.84292
1307.56668	0.84285
1305.63812	0.84178
1303.70955	0.84005
1301.78099	0.83769
1299.85243	0.83382
1297.92386	0.82860
1295.99530	0.82330
1294.06673	0.81852
1292.13817	0.81419
1290.20960	0.81079
1288.28104	0.80863
1286.35247	0.80716
1284.42391	0.80590
1282.49535	0.80502
1280.56678	0.80503
1278.63822	0.80602
1276.70965	0.80774
1274.78109	0.81017
1272.85252	0.81406
1270.92396	0.82014
1268.99539	0.82764
1267.06683	0.83513
1265.13827	0.84174
1263.20970	0.84712
1261.28114	0.85153
1259.35257	0.85511
1257.42401	0.85766
1255.49544	0.85962
1253.56688	0.86157
1251.63831	0.86339
1249.70975	0.86432
1247.78119	0.86381
1245.85262	0.86224
1243.92406	0.86032
1241.99549	0.85818
1240.06693	0.85507
1238.13836	0.85017
1236.20980	0.84371
1234.28123	0.83639
1232.35267	0.82885
1230.42411	0.82146
1228.49554	0.81349
1226.56698	0.80435
1224.63841	0.79475
1222.70985	0.78558
1220.78128	0.77715
1218.85272	0.76988
1216.92415	0.76405
1214.99559	0.75956
1213.06703	0.75711
1211.13846	0.75740
1209.20990	0.75940
1207.28133	0.76095
1205.35277	0.76061
1203.42420	0.75762
1201.49564	0.75218
1199.56708	0.74590
1197.63851	0.73982
1195.70995	0.73367
1193.78138	0.72759
1191.85282	0.72224
1189.92425	0.71744
1187.99569	0.71272
1186.06712	0.70847
1184.13856	0.70541
1182.21000	0.70411
1180.28143	0.70484
1178.35287	0.70792
1176.42430	0.71378
1174.49574	0.72178
1172.56717	0.73094
1170.63861	0.74142
1168.71004	0.75412
1166.78148	0.76950
1164.85292	0.78677
1162.92435	0.80368
1160.99579	0.81723
1159.06722	0.82505
1157.13866	0.82710
1155.21009	0.82500
1153.28153	0.82063
1151.35296	0.81526
1149.42440	0.80949
1147.49584	0.80482
1145.56727	0.80285
1143.63871	0.80361
1141.71014	0.80733
1139.78158	0.81419
1137.85301	0.82295
1135.92445	0.83296
1133.99588	0.84413
1132.06732	0.85580
1130.13876	0.86731
1128.21019	0.87786
1126.28163	0.88711
1124.35306	0.89549
1122.42450	0.90328
1120.49593	0.91001
1118.56737	0.91375
1116.63880	0.91334
1114.71024	0.90991
1112.78168	0.90502
1110.85311	0.90017
1108.92455	0.89630
1106.99598	0.89260
1105.06742	0.88841
1103.13885	0.88515
1101.21029	0.88475
1099.28172	0.88805
1097.35316	0.89509
1095.42460	0.90490
1093.49603	0.91622
1091.56747	0.92897
1089.63890	0.94389
1087.71034	0.96071
1085.78177	0.97694
1083.85321	0.98959
1081.92464	0.99766
1079.99608	1.00143
1078.06752	0.99949
1076.13895	0.99116
1074.21039	0.98064
1072.28182	0.97066
1070.35326	0.96024
1068.42469	0.95068
1066.49613	0.94382
1064.56756	0.93825
1062.63900	0.93145
1060.71044	0.92380
1058.78187	0.91713
1056.85331	0.91070
1054.92474	0.90368
1052.99618	0.89756
1051.06761	0.89299
1049.13905	0.88901
1047.21049	0.88637
1045.28192	0.88677
1043.35336	0.88958
1041.42479	0.89314
1039.49623	0.89607
1037.56766	0.89718
1035.63910	0.89642
1033.71053	0.89456
1031.78197	0.89181
1029.85341	0.88760
1027.92484	0.88134
1025.99628	0.87322
1024.06771	0.86439
1022.13915	0.85634
1020.21058	0.84988
1018.28202	0.84454
1016.35345	0.83876
1014.42489	0.83086
1012.49633	0.82032
1010.56776	0.80743
1008.63920	0.79271
1006.71063	0.77682
1004.78207	0.75987
1002.85350	0.74273
1000.92494	0.72764
998.99637	0.71508
997.06781	0.70335
995.13925	0.69176
993.21068	0.68042
991.28212	0.66820
989.35355	0.65411
987.42499	0.63902
985.49642	0.62452
983.56786	0.61161
981.63929	0.60020
979.71073	0.59028
977.78217	0.58215
975.85360	0.57501
973.92504	0.56773
971.99647	0.56018
970.06791	0.55320
968.13934	0.54772
966.21078	0.54457
964.28221	0.54450
962.35365	0.54821
960.42509	0.55639
958.49652	0.56806
956.56796	0.57949
954.63939	0.58678
952.71083	0.58871
950.78226	0.58641
948.85370	0.58208
946.92513	0.57739
944.99657	0.57273
943.06801	0.56826
941.13944	0.56406
939.21088	0.55977
937.28231	0.55536
935.35375	0.55109
933.42518	0.54696
931.49662	0.54287
929.56805	0.53919
927.63949	0.53658
925.71093	0.53521
923.78236	0.53497
921.85380	0.53569
919.92523	0.53683
917.99667	0.53798
916.06810	0.53960
914.13954	0.54257
912.21098	0.54700
910.28241	0.55270
908.35385	0.55976
906.42528	0.56778
904.49672	0.57585
902.56815	0.58351
900.63959	0.59028
898.71102	0.59502
896.78246	0.59693
894.85390	0.59658
892.92533	0.59461
890.99677	0.59074
889.06820	0.58548
887.13964	0.57969
885.21107	0.57349
883.28251	0.56710
881.35394	0.56096
879.42538	0.55512
877.49682	0.54967
875.56825	0.54479
873.63969	0.54012
871.71112	0.53537
869.78256	0.53119
867.85399	0.52816
865.92543	0.52688
863.99686	0.52768
862.06830	0.52969
860.13974	0.53268
858.21117	0.53746
856.28261	0.54415
854.35404	0.55214
852.42548	0.56101
850.49691	0.57039
848.56835	0.58012
846.63978	0.58997
844.71122	0.59872
842.78266	0.60610
840.85409	0.61311
838.92553	0.61959
836.99696	0.62462
835.06840	0.62786
833.13983	0.62981
831.21127	0.63070
829.28270	0.63001
827.35414	0.62776
825.42558	0.62496
823.49701	0.62228
821.56845	0.61881
819.63988	0.61414
817.71132	0.60974
815.78275	0.60632
813.85419	0.60343
811.92562	0.60114
809.99706	0.59973
808.06850	0.59893
806.13993	0.59851
804.21137	0.59871
802.28280	0.60028
800.35424	0.60397
798.42567	0.60894
796.49711	0.61396
794.56854	0.61928
792.63998	0.62536
790.71142	0.63213
788.78285	0.63959
786.85429	0.64735
784.92572	0.65510
782.99716	0.66290
781.06859	0.67021
779.14003	0.67629
777.21147	0.68123
775.28290	0.68539
773.35434	0.68863
771.42577	0.69054
769.49721	0.69070
767.56864	0.68919
765.64008	0.68650
763.71151	0.68295
761.78295	0.67908
759.85439	0.67573
757.92582	0.67363
755.99726	0.67297
754.06869	0.67345
752.14013	0.67494
750.21156	0.67779
748.28300	0.68208
746.35443	0.68680
744.42587	0.69187
742.49731	0.69815
740.56874	0.70473
738.64018	0.71052
736.71161	0.71645
734.78305	0.72394
732.85448	0.73308
730.92592	0.74226
728.99735	0.75014
727.06879	0.75703
725.14023	0.76321
723.21166	0.76830
721.28310	0.77194
719.35453	0.77337
717.42597	0.77268
715.49740	0.77124
713.56884	0.76951
711.64027	0.76713
709.71171	0.76402
707.78315	0.76105
705.85458	0.75901
703.92602	0.75653
701.99745	0.75200
700.06889	0.74622
698.14032	0.74117
696.21176	0.73773
694.28319	0.73500
692.35463	0.73229
690.42607	0.73023
688.49750	0.72966
686.56894	0.73110
684.64037	0.73449
682.71181	0.73931
680.78324	0.74543
678.85468	0.75253
676.92611	0.75965
674.99755	0.76662
673.06899	0.77403
671.14042	0.78162
669.21186	0.79096
667.28329	0.80032
665.35473	0.80335
663.42616	0.80413
661.49760	0.80630
659.56903	0.80920
657.64047	0.80815
655.71191	0.80216
653.78334	0.79629
651.85478	0.79255
649.92621	0.78806
647.99765	0.78172
646.06908	0.77639
644.14052	0.77291
642.21195	0.76926
640.28339	0.76588
638.35483	0.76447
636.42626	0.76481
634.49770	0.76628
632.56913	0.76829
630.64057	0.77120
628.71200	0.77660
626.78344	0.78476
624.85488	0.79310
622.92631	0.79912
620.99775	0.80449
619.06918	0.81162
617.14062	0.81888
615.21205	0.82455
613.28349	0.82889
611.35492	0.83051
609.42636	0.83042
607.49780	0.83257
605.56923	0.83544
603.64067	0.83301
601.71210	0.82501
599.78354	0.81632
