3997.91406	0.66548
3995.98550	0.66136
3994.05693	0.65930
3992.12837	0.65955
3990.19980	0.65818
3988.27124	0.65512
3986.34268	0.65280
3984.41411	0.65186
3982.48555	0.65099
3980.55698	0.64913
3978.62842	0.64754
3976.69985	0.64763
3974.77129	0.64773
3972.84272	0.64677
3970.91416	0.64650
3968.98560	0.64690
3967.05703	0.64653
3965.12847	0.64597
3963.19990	0.64565
3961.27134	0.64421
3959.34277	0.64181
3957.41421	0.64046
3955.48564	0.64152
3953.55708	0.64435
3951.62852	0.64683
3949.69995	0.64794
3947.77139	0.64740
3945.84282	0.64511
3943.91426	0.64262
3941.98569	0.64159
3940.05713	0.64173
3938.12856	0.64191
3936.20000	0.64191
3934.27144	0.64178
3932.34287	0.64079
3930.41431	0.63859
3928.48574	0.63680
3926.55718	0.63698
3924.62861	0.63895
3922.70005	0.64049
3920.77148	0.64036
3918.84292	0.63830
3916.91436	0.63433
3914.98579	0.63169
3913.05723	0.63179
3911.12866	0.63226
3909.20010	0.63211
3907.27153	0.63196
3905.34297	0.63170
3903.41440	0.63210
3901.48584	0.63350
3899.55728	0.63312
3897.62871	0.63097
3895.70015	0.62994
3893.77158	0.63032
3891.84302	0.63037
3889.91445	0.62993
3887.98589	0.63050
3886.05733	0.63183
3884.12876	0.63183
3882.20020	0.62951
3880.27163	0.62713
3878.34307	0.62749
3876.41450	0.62983
3874.48594	0.63215
3872.55737	0.63239
3870.62881	0.63071
3868.70025	0.62871
3866.77168	0.62815
3864.84312	0.62976
3862.91455	0.63111
3860.98599	0.63034
3859.05742	0.63043
3857.12886	0.63328
3855.20029	0.63776
3853.27173	0.63622
3851.34317	0.62915
3849.41460	0.62617
3847.48604	0.62522
3845.55747	0.62464
3843.62891	0.62523
3841.70034	0.62777
3839.77178	0.63137
3837.84321	0.63104
3835.91465	0.62422
3833.98609	0.61801
3832.05752	0.61544
3830.12896	0.61451
3828.20039	0.61409
3826.27183	0.61515
3824.34326	0.61792
3822.41470	0.62068
3820.48613	0.61993
3818.55757	0.61669
3816.62901	0.61481
3814.70044	0.61434
3812.77188	0.61341
3810.84331	0.61236
3808.91475	0.61318
3806.98618	0.61597
3805.05762	0.61678
3803.12905	0.61528
3801.20049	0.61557
3799.27193	0.61775
3797.34336	0.61708
3795.41480	0.61361
3793.48623	0.61180
3791.55767	0.61198
3789.62910	0.61190
3787.70054	0.61200
3785.77197	0.61243
3783.84341	0.61160
3781.91485	0.61097
3779.98628	0.61225
3778.05772	0.61327
3776.12915	0.61139
3774.20059	0.60815
3772.27202	0.60616
3770.34346	0.60604
3768.41489	0.60554
3766.48633	0.60436
3764.55777	0.60510
3762.62920	0.60722
3760.70064	0.60830
3758.77207	0.60783
3756.84351	0.60671
3754.91494	0.60614
3752.98638	0.60631
3751.05781	0.60447
3749.12925	0.60213
3747.20069	0.60315
3745.27212	0.60362
3743.34356	0.60065
3741.41499	0.59752
3739.48643	0.59516
3737.55786	0.59245
3735.62930	0.58976
3733.70074	0.59006
3731.77217	0.59102
3729.84361	0.59076
3727.91504	0.59040
3725.98648	0.59026
3724.05791	0.59073
3722.12935	0.59101
3720.20078	0.59052
3718.27222	0.59121
3716.34366	0.59348
3714.41509	0.59614
3712.48653	0.59781
3710.55796	0.59596
3708.62940	0.59299
3706.70083	0.59249
3704.77227	0.59369
3702.84370	0.59410
3700.91514	0.59220
3698.98658	0.59028
3697.05801	0.59017
3695.12945	0.59125
3693.20088	0.59306
3691.27232	0.59598
3689.34375	0.59755
3687.41519	0.59682
3685.48662	0.59681
3683.55806	0.59737
3681.62950	0.59837
3679.70093	0.60013
3677.77237	0.60193
3675.84380	0.60423
3673.91524	0.60890
3671.98667	0.61294
3670.05811	0.61425
3668.12954	0.61528
3666.20098	0.61812
3664.27242	0.62103
3662.34385	0.62403
3660.41529	0.62848
3658.48672	0.63341
3656.55816	0.63724
3654.62959	0.64061
3652.70103	0.64477
3650.77246	0.64888
3648.84390	0.65189
3646.91534	0.65566
3644.98677	0.65859
3643.05821	0.66041
3641.12964	0.66247
3639.20108	0.66578
3637.27251	0.66952
3635.34395	0.67257
3633.41538	0.67578
3631.48682	0.67925
3629.55826	0.68188
3627.62969	0.68503
3625.70113	0.69010
3623.77256	0.69541
3621.84400	0.69959
3619.91543	0.70219
3617.98687	0.70402
3616.05830	0.70686
3614.12974	0.71044
3612.20118	0.71445
3610.27261	0.71948
3608.34405	0.72342
3606.41548	0.72447
3604.48692	0.72666
3602.55835	0.73222
3600.62979	0.73843
3598.70123	0.74257
3596.77266	0.74476
3594.84410	0.74598
3592.91553	0.74848
3590.98697	0.75216
3589.05840	0.75712
3587.12984	0.76450
3585.20127	0.77090
3583.27271	0.77516
3581.34415	0.77842
3579.41558	0.78103
3577.48702	0.78414
3575.55845	0.78967
3573.62989	0.79719
3571.70132	0.80306
3569.77276	0.80726
3567.84419	0.81565
3565.91563	0.82614
3563.98707	0.82963
3562.05850	0.83172
3560.12994	0.83631
3558.20137	0.84072
3556.27281	0.84335
3554.34424	0.84705
3552.41568	0.85470
3550.48711	0.86471
3548.55855	0.87393
3546.62999	0.87882
3544.70142	0.87868
3542.77286	0.87959
3540.84429	0.88360
3538.91573	0.88872
3536.98716	0.89389
3535.05860	0.89871
3533.13003	0.90301
3531.20147	0.90816
3529.27291	0.91586
3527.34434	0.92415
3525.41578	0.93078
3523.48721	0.93756
3521.55865	0.94458
3519.63008	0.95003
3517.70152	0.95492
3515.77295	0.96006
3513.84439	0.96549
3511.91583	0.97297
3509.98726	0.98291
3508.05870	0.99200
3506.13013	0.99871
3504.20157	1.00465
3502.27300	1.00869
3500.34444	1.01120
3498.41587	1.01740
3496.48731	1.02678
3494.55875	1.03206
3492.63018	1.03407
3490.70162	1.04024
3488.77305	1.04916
3486.84449	1.05462
3484.91592	1.05702
3482.98736	1.05912
3481.05879	1.06035
3479.13023	1.06061
3477.20167	1.06194
3475.27310	1.06499
3473.34454	1.06870
3471.41597	1.07138
3469.48741	1.07356
3467.55884	1.07623
3465.63028	1.07667
3463.70171	1.07543
3461.77315	1.07889
3459.84459	1.08753
3457.91602	1.09416
3455.98746	1.09715
3454.05889	1.10138
3452.13033	1.10754
3450.20176	1.11307
3448.27320	1.11667
3446.34464	1.11873
3444.41607	1.12108
3442.48751	1.12380
3440.55894	1.12564
3438.63038	1.12724
3436.70181	1.12908
3434.77325	1.12942
3432.84468	1.12906
3430.91612	1.13093
3428.98756	1.13372
3427.05899	1.13267
3425.13043	1.12743
3423.20186	1.12549
3421.27330	1.13103
3419.34473	1.13678
3417.41617	1.13568
3415.48760	1.13146
3413.55904	1.13012
3411.63048	1.13077
3409.70191	1.13093
3407.77335	1.13141
3405.84478	1.13281
3403.91622	1.13529
3401.98765	1.13802
3400.05909	1.13975
3398.13052	1.14179
3396.20196	1.14365
3394.27340	1.14230
3392.34483	1.13953
3390.41627	1.13940
3388.48770	1.14225
3386.55914	1.14737
3384.63057	1.15220
3382.70201	1.15273
3380.77344	1.15076
3378.84488	1.14941
3376.91632	1.14901
3374.98775	1.15211
3373.05919	1.15759
3371.13062	1.16046
3369.20206	1.16332
3367.27349	1.16805
3365.34493	1.16962
3363.41636	1.16758
3361.48780	1.16591
3359.55924	1.16589
3357.63067	1.16643
3355.70211	1.16817
3353.77354	1.17388
3351.84498	1.18174
3349.91641	1.18651
3347.98785	1.18857
3346.05928	1.19039
3344.13072	1.19041
3342.20216	1.18868
3340.27359	1.18844
3338.34503	1.19225
3336.41646	1.19794
3334.48790	1.20029
3332.55933	1.20081
3330.63077	1.20292
3328.70220	1.20576
3326.77364	1.21048
3324.84508	1.21853
3322.91651	1.22797
3320.98795	1.23629
3319.05938	1.24188
3317.13082	1.24558
3315.20225	1.24939
3313.27369	1.25192
3311.34513	1.25052
3309.41656	1.24812
3307.48800	1.25214
3305.55943	1.26080
3303.63087	1.26337
3301.70230	1.26123
3299.77374	1.26227
3297.84517	1.26412
3295.91661	1.26454
3293.98805	1.26679
3292.05948	1.26935
3290.13092	1.26679
3288.20235	1.26207
3286.27379	1.26220
3284.34522	1.26505
3282.41666	1.26443
3280.48809	1.26039
3278.55953	1.25890
3276.63097	1.26186
3274.70240	1.26310
3272.77384	1.25961
3270.84527	1.25696
3268.91671	1.25932
3266.98814	1.26115
3265.05958	1.25591
3263.13101	1.24686
3261.20245	1.24014
3259.27389	1.23595
3257.34532	1.23169
3255.41676	1.22864
3253.48819	1.22671
3251.55963	1.22072
3249.63106	1.21112
3247.70250	1.20278
3245.77393	1.19550
3243.84537	1.18987
3241.91681	1.19005
3239.98824	1.19144
3238.05968	1.18421
3236.13111	1.17155
3234.20255	1.16379
3232.27398	1.16171
3230.34542	1.15940
3228.41685	1.15588
3226.48829	1.15427
3224.55973	1.15229
3222.63116	1.14568
3220.70260	1.13604
3218.77403	1.12803
3216.84547	1.12393
3214.91690	1.12189
3212.98834	1.11984
3211.05977	1.11747
3209.13121	1.11337
3207.20265	1.10837
3205.27408	1.10478
3203.34552	1.10005
3201.41695	1.09256
3199.48839	1.08661
3197.55982	1.08409
3195.63126	1.08185
3193.70269	1.07825
3191.77413	1.07298
3189.84557	1.06646
3187.91700	1.06235
3185.98844	1.06071
3184.05987	1.05624
3182.13131	1.04879
3180.20274	1.04203
3178.27418	1.03708
3176.34562	1.03517
3174.41705	1.03636
3172.48849	1.03695
3170.55992	1.03421
3168.63136	1.02864
3166.70279	1.02197
3164.77423	1.01687
3162.84566	1.01435
3160.91710	1.01254
3158.98854	1.01089
3157.05997	1.00925
3155.13141	1.00722
3153.20284	1.00569
3151.27428	1.00394
3149.34571	1.00080
3147.41715	0.99738
3145.48858	0.99479
3143.56002	0.99219
3141.63146	0.98878
3139.70289	0.98645
3137.77433	0.98609
3135.84576	0.98587
3133.91720	0.98496
3131.98863	0.98383
3130.06007	0.98290
3128.13150	0.98106
3126.20294	0.97844
3124.27438	0.97790
3122.34581	0.97821
3120.41725	0.97649
3118.48868	0.97494
3116.56012	0.97628
3114.63155	0.97918
3112.70299	0.98014
3110.77442	0.97846
3108.84586	0.97731
3106.91730	0.97925
3104.98873	0.98221
3103.06017	0.98166
3101.13160	0.97871
3099.20304	0.97801
3097.27447	0.97890
3095.34591	0.97931
3093.41734	0.97823
3091.48878	0.97467
3089.56022	0.97140
3087.63165	0.97084
3085.70309	0.97034
3083.77452	0.96793
3081.84596	0.96507
3079.91739	0.96278
3077.98883	0.96094
3076.06026	0.95950
3074.13170	0.95767
3072.20314	0.95578
3070.27457	0.95475
3068.34601	0.95298
3066.41744	0.94991
3064.48888	0.94719
3062.56031	0.94458
3060.63175	0.94163
3058.70318	0.93941
3056.77462	0.93824
3054.84606	0.93719
3052.91749	0.93582
3050.98893	0.93379
3049.06036	0.93012
3047.13180	0.92541
3045.20323	0.92117
3043.27467	0.91742
3041.34610	0.91395
3039.41754	0.91090
3037.48898	0.90845
3035.56041	0.90600
3033.63185	0.90219
3031.70328	0.89811
3029.77472	0.89650
3027.84615	0.89637
3025.91759	0.89433
3023.98903	0.89004
3022.06046	0.88535
3020.13190	0.88114
3018.20333	0.87777
3016.27477	0.87566
3014.34620	0.87427
3012.41764	0.87172
3010.48907	0.86805
3008.56051	0.86559
3006.63195	0.86439
3004.70338	0.86308
3002.77482	0.86120
3000.84625	0.85936
2998.91769	0.85933
2996.98912	0.86137
2995.06056	0.86366
2993.13199	0.86600
2991.20343	0.86940
2989.27487	0.87391
2987.34630	0.87934
2985.41774	0.88470
2983.48917	0.88969
2981.56061	0.89607
2979.63204	0.90330
2977.70348	0.90906
2975.77491	0.91406
2973.84635	0.92012
2971.91779	0.92735
2969.98922	0.93546
2968.06066	0.94396
2966.13209	0.95135
2964.20353	0.95672
2962.27496	0.96002
2960.34640	0.96124
2958.41783	0.96104
2956.48927	0.95976
2954.56071	0.95708
2952.63214	0.95298
2950.70358	0.94829
2948.77501	0.94553
2946.84645	0.94613
2944.91788	0.94859
2942.98932	0.95284
2941.06075	0.96034
2939.13219	0.96957
2937.20363	0.97852
2935.27506	0.98801
2933.34650	0.99948
2931.41793	1.01209
2929.48937	1.02379
2927.56080	1.03500
2925.63224	1.04568
2923.70367	1.05400
2921.77511	1.06078
2919.84655	1.06577
2917.91798	1.06364
2915.98942	1.04911
2914.06085	1.02440
2912.13229	0.99780
2910.20372	0.97563
2908.27516	0.96043
2906.34659	0.95100
2904.41803	0.94382
2902.48947	0.93781
2900.56090	0.93374
2898.63234	0.93111
2896.70377	0.92866
2894.77521	0.92608
2892.84664	0.92312
2890.91808	0.91918
2888.98952	0.91533
2887.06095	0.91292
2885.13239	0.91089
2883.20382	0.90797
2881.27526	0.90543
2879.34669	0.90513
2877.41813	0.90635
2875.48956	0.90681
2873.56100	0.90550
2871.63244	0.90291
2869.70387	0.89956
2867.77531	0.89523
2865.84674	0.88948
2863.91818	0.88382
2861.98961	0.88232
2860.06105	0.88693
2858.13248	0.89495
2856.20392	0.90424
2854.27536	0.91624
2852.34679	0.92971
2850.41823	0.93604
2848.48966	0.92613
2846.56110	0.90140
2844.63253	0.87336
2842.70397	0.85067
2840.77540	0.83388
2838.84684	0.82219
2836.91828	0.81505
2834.98971	0.81001
2833.06115	0.80519
2831.13258	0.80041
2829.20402	0.79633
2827.27545	0.79351
2825.34689	0.79122
2823.41832	0.78840
2821.48976	0.78503
2819.56120	0.78210
2817.63263	0.78038
2815.70407	0.77924
2813.77550	0.77752
2811.84694	0.77565
2809.91837	0.77424
2807.98981	0.77243
2806.06124	0.76952
2804.13268	0.76581
2802.20412	0.76266
2800.27555	0.76114
2798.34699	0.76011
2796.41842	0.75851
2794.48986	0.75643
2792.56129	0.75376
2790.63273	0.75069
2788.70416	0.74763
2786.77560	0.74468
2784.84704	0.74218
2782.91847	0.73987
2780.98991	0.73676
2779.06134	0.73307
2777.13278	0.73038
2775.20421	0.72897
2773.27565	0.72753
2771.34708	0.72553
2769.41852	0.72313
2767.48996	0.72046
2765.56139	0.71840
2763.63283	0.71748
2761.70426	0.71722
2759.77570	0.71681
2757.84713	0.71583
2755.91857	0.71522
2753.99001	0.71556
2752.06144	0.71558
2750.13288	0.71483
2748.20431	0.71448
2746.27575	0.71471
2744.34718	0.71427
2742.41862	0.71345
2740.49005	0.71308
2738.56149	0.71223
2736.63293	0.71078
2734.70436	0.70969
2732.77580	0.70919
2730.84723	0.70903
2728.91867	0.70865
2726.99010	0.70818
2725.06154	0.70809
2723.13297	0.70776
2721.20441	0.70646
2719.27585	0.70443
2717.34728	0.70221
2715.41872	0.70007
2713.49015	0.69862
2711.56159	0.69785
2709.63302	0.69648
2707.70446	0.69430
2705.77589	0.69243
2703.84733	0.69146
2701.91877	0.69028
2699.99020	0.68786
2698.06164	0.68560
2696.13307	0.68455
2694.20451	0.68386
2692.27594	0.68297
2690.34738	0.68199
2688.41881	0.68127
2686.49025	0.68080
2684.56169	0.67980
2682.63312	0.67821
2680.70456	0.67701
2678.77599	0.67652
2676.84743	0.67620
2674.91886	0.67578
2672.99030	0.67519
2671.06173	0.67444
2669.13317	0.67375
2667.20461	0.67316
2665.27604	0.67263
2663.34748	0.67242
2661.41891	0.67253
2659.49035	0.67237
2657.56178	0.67148
2655.63322	0.66974
2653.70465	0.66753
2651.77609	0.66574
2649.84753	0.66462
2647.91896	0.66331
2645.99040	0.66135
2644.06183	0.65931
2642.13327	0.65718
2640.20470	0.65454
2638.27614	0.65197
2636.34757	0.64996
2634.41901	0.64843
2632.49045	0.64726
2630.56188	0.64608
2628.63332	0.64451
2626.70475	0.64236
2624.77619	0.63988
2622.84762	0.63786
2620.91906	0.63674
2618.99049	0.63606
2617.06193	0.63491
2615.13337	0.63326
2613.20480	0.63199
2611.27624	0.63104
2609.34767	0.62963
2607.41911	0.62816
2605.49054	0.62726
2603.56198	0.62677
2601.63342	0.62647
2599.70485	0.62607
2597.77629	0.62573
2595.84772	0.62575
2593.91916	0.62570
2591.99059	0.62515
2590.06203	0.62411
2588.13346	0.62278
2586.20490	0.62174
2584.27634	0.62135
2582.34777	0.62078
2580.41921	0.61953
2578.49064	0.61831
2576.56208	0.61738
2574.63351	0.61662
2572.70495	0.61591
2570.77638	0.61494
2568.84782	0.61363
2566.91926	0.61200
2564.99069	0.61018
2563.06213	0.60865
2561.13356	0.60752
2559.20500	0.60610
2557.27643	0.60422
2555.34787	0.60283
2553.41930	0.60218
2551.49074	0.60157
2549.56218	0.60066
2547.63361	0.59998
2545.70505	0.59992
2543.77648	0.59981
2541.84792	0.59929
2539.91935	0.59865
2537.99079	0.59800
2536.06222	0.59766
2534.13366	0.59773
2532.20510	0.59770
2530.27653	0.59753
2528.34797	0.59752
2526.41940	0.59753
2524.49084	0.59746
2522.56227	0.59717
2520.63371	0.59660
2518.70514	0.59605
2516.77658	0.59552
2514.84802	0.59476
2512.91945	0.59376
2510.99089	0.59277
2509.06232	0.59180
2507.13376	0.59034
2505.20519	0.58854
2503.27663	0.58712
2501.34806	0.58621
2499.41950	0.58516
2497.49094	0.58341
2495.56237	0.58119
2493.63381	0.57914
2491.70524	0.57722
2489.77668	0.57497
2487.84811	0.57248
2485.91955	0.57038
2483.99098	0.56908
2482.06242	0.56830
2480.13386	0.56726
2478.20529	0.56576
2476.27673	0.56436
2474.34816	0.56296
2472.41960	0.56115
2470.49103	0.55936
2468.56247	0.55811
2466.63391	0.55712
2464.70534	0.55595
2462.77678	0.55493
2460.84821	0.55461
2458.91965	0.55473
2456.99108	0.55440
2455.06252	0.55335
2453.13395	0.55230
2451.20539	0.55180
2449.27683	0.55149
2447.34826	0.55109
2445.41970	0.55071
2443.49113	0.55048
2441.56257	0.55039
2439.63400	0.55040
2437.70544	0.55012
2435.77687	0.54919
2433.84831	0.54805
2431.91975	0.54726
2429.99118	0.54678
2428.06262	0.54642
2426.13405	0.54611
2424.20549	0.54548
2422.27692	0.54426
2420.34836	0.54300
2418.41979	0.54233
2416.49123	0.54192
2414.56267	0.54119
2412.63410	0.54014
2410.70554	0.53896
2408.77697	0.53762
2406.84841	0.53619
2404.91984	0.53479
2402.99128	0.53359
2401.06271	0.53236
2399.13415	0.53077
2397.20559	0.52901
2395.27702	0.52740
2393.34846	0.52588
2391.41989	0.52425
2389.49133	0.52291
2387.56276	0.52228
2385.63420	0.52216
2383.70563	0.52260
2381.77707	0.52381
2379.84851	0.52546
2377.91994	0.52748
2375.99138	0.53001
2374.06281	0.53291
2372.13425	0.53661
2370.20568	0.54137
2368.27712	0.54583
2366.34855	0.54856
2364.41999	0.54951
2362.49143	0.55059
2360.56286	0.55342
2358.63430	0.55454
2356.70573	0.55010
2354.77717	0.54284
2352.84860	0.53563
2350.92004	0.52993
2348.99147	0.52803
2347.06291	0.53020
2345.13435	0.53432
2343.20578	0.53694
2341.27722	0.53700
2339.34865	0.53596
2337.42009	0.53447
2335.49152	0.53274
2333.56296	0.53167
2331.63440	0.53123
2329.70583	0.53086
2327.77727	0.53025
2325.84870	0.52925
2323.92014	0.52822
2321.99157	0.52669
2320.06301	0.52381
2318.13444	0.52019
2316.20588	0.51733
2314.27732	0.51611
2312.34875	0.51571
2310.42019	0.51436
2308.49162	0.51188
2306.56306	0.50943
2304.63449	0.50756
2302.70593	0.50617
2300.77736	0.50484
2298.84880	0.50320
2296.92024	0.50144
2294.99167	0.49972
2293.06311	0.49800
2291.13454	0.49653
2289.20598	0.49535
2287.27741	0.49400
2285.34885	0.49255
2283.42028	0.49145
2281.49172	0.49073
2279.56316	0.49045
2277.63459	0.49059
2275.70603	0.49041
2273.77746	0.48939
2271.84890	0.48821
2269.92033	0.48772
2267.99177	0.48722
2266.06320	0.48595
2264.13464	0.48479
2262.20608	0.48432
2260.27751	0.48374
2258.34895	0.48274
2256.42038	0.48164
2254.49182	0.48059
2252.56325	0.47944
2250.63469	0.47818
2248.70612	0.47710
2246.77756	0.47610
2244.84900	0.47499
2242.92043	0.47398
2240.99187	0.47307
2239.06330	0.47201
2237.13474	0.47082
2235.20617	0.46972
2233.27761	0.46881
2231.34904	0.46821
2229.42048	0.46771
2227.49192	0.46706
2225.56335	0.46652
2223.63479	0.46631
2221.70622	0.46617
2219.77766	0.46609
2217.84909	0.46650
2215.92053	0.46728
2213.99196	0.46800
2212.06340	0.46852
2210.13484	0.46908
2208.20627	0.46981
2206.27771	0.47046
2204.34914	0.47119
2202.42058	0.47243
2200.49201	0.47391
2198.56345	0.47506
2196.63488	0.47585
2194.70632	0.47645
2192.77776	0.47696
2190.84919	0.47753
2188.92063	0.47822
2186.99206	0.47902
2185.06350	0.47978
2183.13493	0.48017
2181.20637	0.48005
2179.27781	0.47985
2177.34924	0.47996
2175.42068	0.48018
2173.49211	0.48021
2171.56355	0.48006
2169.63498	0.47976
2167.70642	0.47921
2165.77785	0.47852
2163.84929	0.47799
2161.92073	0.47781
2159.99216	0.47776
2158.06360	0.47730
2156.13503	0.47636
2154.20647	0.47549
2152.27790	0.47506
2150.34934	0.47487
2148.42077	0.47457
2146.49221	0.47405
2144.56365	0.47339
2142.63508	0.47276
2140.70652	0.47227
2138.77795	0.47192
2136.84939	0.47193
2134.92082	0.47216
2132.99226	0.47207
2131.06369	0.47164
2129.13513	0.47133
2127.20657	0.47123
2125.27800	0.47087
2123.34944	0.47004
2121.42087	0.46927
2119.49231	0.46894
2117.56374	0.46882
2115.63518	0.46880
2113.70661	0.46896
2111.77805	0.46909
2109.84949	0.46905
2107.92092	0.46892
2105.99236	0.46893
2104.06379	0.46942
2102.13523	0.47018
2100.20666	0.47070
2098.27810	0.47087
2096.34953	0.47108
2094.42097	0.47158
2092.49241	0.47226
2090.56384	0.47313
2088.63528	0.47399
2086.70671	0.47456
2084.77815	0.47486
2082.84958	0.47516
2080.92102	0.47567
2078.99245	0.47635
2077.06389	0.47692
2075.13533	0.47710
2073.20676	0.47677
2071.27820	0.47632
2069.34963	0.47595
2067.42107	0.47529
2065.49250	0.47418
2063.56394	0.47274
2061.63537	0.47108
2059.70681	0.46930
2057.77825	0.46750
2055.84968	0.46576
2053.92112	0.46393
2051.99255	0.46194
2050.06399	0.45989
2048.13542	0.45784
2046.20686	0.45599
2044.27830	0.45435
2042.34973	0.45253
2040.42117	0.45074
2038.49260	0.44949
2036.56404	0.44856
2034.63547	0.44770
2032.70691	0.44723
2030.77834	0.44724
2028.84978	0.44738
2026.92122	0.44749
2024.99265	0.44781
2023.06409	0.44841
2021.13552	0.44901
2019.20696	0.44974
2017.27839	0.45089
2015.34983	0.45224
2013.42126	0.45335
2011.49270	0.45405
2009.56414	0.45466
2007.63557	0.45541
2005.70701	0.45629
2003.77844	0.45734
2001.84988	0.45853
1999.92131	0.45965
1997.99275	0.46051
1996.06418	0.46122
1994.13562	0.46226
1992.20706	0.46372
1990.27849	0.46484
1988.34993	0.46535
1986.42136	0.46565
1984.49280	0.46594
1982.56423	0.46619
1980.63567	0.46645
1978.70710	0.46680
1976.77854	0.46689
1974.84998	0.46657
1972.92141	0.46627
1970.99285	0.46626
1969.06428	0.46639
1967.13572	0.46630
1965.20715	0.46575
1963.27859	0.46507
1961.35002	0.46483
1959.42146	0.46506
1957.49290	0.46524
1955.56433	0.46523
1953.63577	0.46522
1951.70720	0.46535
1949.77864	0.46563
1947.85007	0.46590
1945.92151	0.46629
1943.99294	0.46707
1942.06438	0.46799
1940.13582	0.46851
1938.20725	0.46871
1936.27869	0.46890
1934.35012	0.46925
1932.42156	0.46955
1930.49299	0.46949
1928.56443	0.46925
1926.63586	0.46910
1924.70730	0.46894
1922.77874	0.46854
1920.85017	0.46802
1918.92161	0.46760
1916.99304	0.46692
1915.06448	0.46591
1913.13591	0.46506
1911.20735	0.46432
1909.27878	0.46335
1907.35022	0.46222
1905.42166	0.46118
1903.49309	0.45997
1901.56453	0.45852
1899.63596	0.45738
1897.70740	0.45679
1895.77883	0.45630
1893.85027	0.45556
1891.92171	0.45482
1889.99314	0.45394
1888.06458	0.45304
1886.13601	0.45291
1884.20745	0.45342
1882.27888	0.45403
1880.35032	0.45477
1878.42175	0.45579
1876.49319	0.45716
1874.56463	0.45879
1872.63606	0.46067
1870.70750	0.46328
1868.77893	0.46663
1866.85037	0.46913
1864.92180	0.47056
1862.99324	0.47223
1861.06467	0.47432
1859.13611	0.47621
1857.20755	0.47782
1855.27898	0.47951
1853.35042	0.48118
1851.42185	0.48262
1849.49329	0.48385
1847.56472	0.48459
1845.63616	0.48478
1843.70759	0.48414
1841.77903	0.48267
1839.85047	0.48119
1837.92190	0.47973
1835.99334	0.47798
1834.06477	0.47615
1832.13621	0.47466
1830.20764	0.47289
1828.27908	0.47046
1826.35051	0.46840
1824.42195	0.46693
1822.49339	0.46586
1820.56482	0.46512
1818.63626	0.46457
1816.70769	0.46421
1814.77913	0.46444
1812.85056	0.46555
1810.92200	0.46695
1808.99343	0.46782
1807.06487	0.46864
1805.13631	0.47021
1803.20774	0.47254
1801.27918	0.47512
1799.35061	0.47702
1797.42205	0.47838
1795.49348	0.48001
1793.56492	0.48256
1791.63635	0.48536
1789.70779	0.48622
1787.77923	0.48611
1785.85066	0.48640
1783.92210	0.48713
1781.99353	0.48768
1780.06497	0.48747
1778.13640	0.48678
1776.20784	0.48636
1774.27927	0.48648
1772.35071	0.48654
1770.42215	0.48589
1768.49358	0.48494
1766.56502	0.48383
1764.63645	0.48333
1762.70789	0.48403
1760.77932	0.48532
1758.85076	0.48646
1756.92220	0.48810
1754.99363	0.49047
1753.06507	0.49392
1751.13650	0.49973
1749.20794	0.50677
1747.27937	0.51221
1745.35081	0.51654
1743.42224	0.52075
1741.49368	0.52552
1739.56512	0.53083
1737.63655	0.53469
1735.70799	0.53772
1733.77942	0.54268
1731.85086	0.54654
1729.92229	0.54843
1727.99373	0.55081
1726.06516	0.55425
1724.13660	0.55909
1722.20804	0.56444
1720.27947	0.57018
1718.35091	0.57925
1716.42234	0.59172
1714.49378	0.60014
1712.56521	0.60678
1710.63665	0.61496
1708.70808	0.62523
1706.77952	0.64006
1704.85096	0.65870
1702.92239	0.67575
1700.99383	0.70153
1699.06526	0.74214
1697.13670	0.77861
1695.20813	0.81276
1693.27957	0.83799
1691.35100	0.85820
1689.42244	0.88245
1687.49388	0.90529
1685.56531	0.92985
1683.63675	0.96864
1681.70818	0.99576
1679.77962	1.01054
1677.85105	1.02491
1675.92249	1.04280
1673.99392	1.06328
1672.06536	1.08224
1670.13680	1.10369
1668.20823	1.12239
1666.27967	1.13172
1664.35110	1.14244
1662.42254	1.15877
1660.49397	1.17104
1658.56541	1.17762
1656.63684	1.18410
1654.70828	1.19566
1652.77972	1.20792
1650.85115	1.20497
1648.92259	1.20131
1646.99402	1.20095
1645.06546	1.20045
1643.13689	1.19924
1641.20833	1.19994
1639.27976	1.20185
1637.35120	1.20322
1635.42264	1.20242
1633.49407	1.19980
1631.56551	1.19679
1629.63694	1.19219
1627.70838	1.18700
1625.77981	1.18234
1623.85125	1.17393
1621.92269	1.16132
1619.99412	1.15122
1618.06556	1.13912
1616.13699	1.11757
1614.20843	1.09854
1612.27986	1.08447
1610.35130	1.06956
1608.42273	1.05340
1606.49417	1.03878
1604.56561	1.02674
1602.63704	1.01612
1600.70848	1.00746
1598.77991	1.00187
1596.85135	0.99872
1594.92278	0.99666
1592.99422	0.99554
1591.06565	0.99623
1589.13709	0.99943
1587.20853	1.00537
1585.27996	1.01318
1583.35140	1.02160
1581.42283	1.02974
1579.49427	1.03767
1577.56570	1.04811
1575.63714	1.06341
1573.70857	1.07580
1571.78001	1.08594
1569.85145	1.09906
1567.92288	1.11065
1565.99432	1.11834
1564.06575	1.12529
1562.13719	1.13041
1560.20862	1.13820
1558.28006	1.15701
1556.35149	1.16456
1554.42293	1.16512
1552.49437	1.16577
1550.56580	1.16702
1548.63724	1.16767
1546.70867	1.16794
1544.78011	1.16887
1542.85154	1.16887
1540.92298	1.16478
1538.99441	1.15710
1537.06585	1.15302
1535.13729	1.15121
1533.20872	1.14839
1531.28016	1.14348
1529.35159	1.13939
1527.42303	1.13600
1525.49446	1.13222
1523.56590	1.12989
1521.63733	1.12911
1519.70877	1.12761
1517.78021	1.12174
1515.85164	1.10920
1513.92308	1.09604
1511.99451	1.08621
1510.06595	1.07897
1508.13738	1.06584
1506.20882	1.03495
1504.28025	1.01553
1502.35169	1.00349
1500.42313	0.99016
1498.49456	0.97356
1496.56600	0.95366
1494.63743	0.93777
1492.70887	0.92832
1490.78030	0.92038
1488.85174	0.90908
1486.92317	0.89724
1484.99461	0.88885
1483.06605	0.88384
1481.13748	0.88165
1479.20892	0.88219
1477.28035	0.88603
1475.35179	0.89403
1473.42322	0.90711
1471.49466	0.91987
1469.56610	0.92661
1467.63753	0.93189
1465.70897	0.93906
1463.78040	0.94652
1461.85184	0.95137
1459.92327	0.95541
1457.99471	0.96253
1456.06614	0.97101
1454.13758	0.97348
1452.20902	0.97345
1450.28045	0.97342
1448.35189	0.97289
1446.42332	0.96995
1444.49476	0.96549
1442.56619	0.96120
1440.63763	0.95732
1438.70906	0.95286
1436.78050	0.94518
1434.85194	0.93585
1432.92337	0.92873
1430.99481	0.92157
1429.06624	0.91330
1427.13768	0.90640
1425.20911	0.90165
1423.28055	0.89902
1421.35198	0.89812
1419.42342	0.89678
1417.49486	0.89403
1415.56629	0.89218
1413.63773	0.89065
1411.70916	0.88806
1409.78060	0.88587
1407.85203	0.88552
1405.92347	0.88580
1403.99490	0.88562
1402.06634	0.88608
1400.13778	0.88834
1398.20921	0.89169
1396.28065	0.89505
1394.35208	0.89858
1392.42352	0.90251
1390.49495	0.90783
1388.56639	0.91702
1386.63782	0.93126
1384.70926	0.94642
1382.78070	0.96030
1380.85213	0.97258
1378.92357	0.98113
1376.99500	0.98452
1375.06644	0.98202
1373.13787	0.97425
1371.20931	0.96431
1369.28074	0.95231
1367.35218	0.93882
1365.42362	0.92692
1363.49505	0.91632
1361.56649	0.90673
1359.63792	0.89993
1357.70936	0.89494
1355.78079	0.89068
1353.85223	0.88735
1351.92366	0.88474
1349.99510	0.88191
1348.06654	0.87857
1346.13797	0.87563
1344.20941	0.87369
1342.28084	0.87239
1340.35228	0.87107
1338.42371	0.86968
1336.49515	0.86939
1334.56659	0.87101
1332.63802	0.87471
1330.70946	0.88013
1328.78089	0.88548
1326.85233	0.88888
1324.92376	0.89036
1322.99520	0.89154
1321.06663	0.89390
1319.13807	0.89758
1317.20951	0.90132
1315.28094	0.90444
1313.35238	0.90771
1311.42381	0.91172
1309.49525	0.91639
1307.56668	0.92107
1305.63812	0.92494
1303.70955	0.92783
1301.78099	0.93024
1299.85243	0.93253
1297.92386	0.93430
1295.99530	0.93498
1294.06673	0.93493
1292.13817	0.93555
1290.20960	0.93774
1288.28104	0.94048
1286.35247	0.94238
1284.42391	0.94324
1282.49535	0.94281
1280.56678	0.94100
1278.63822	0.93872
1276.70965	0.93704
1274.78109	0.93647
1272.85252	0.93680
1270.92396	0.93755
1268.99539	0.93851
1267.06683	0.93962
1265.13827	0.94052
1263.20970	0.94038
1261.28114	0.93849
1259.35257	0.93539
1257.42401	0.93264
1255.49544	0.93104
1253.56688	0.93047
1251.63831	0.93089
1249.70975	0.93201
1247.78119	0.93329
1245.85262	0.93481
1243.92406	0.93671
1241.99549	0.93892
1240.06693	0.94122
1238.13836	0.94264
1236.20980	0.94285
1234.28123	0.94321
1232.35267	0.94434
1230.42411	0.94447
1228.49554	0.94253
1226.56698	0.93971
1224.63841	0.93669
1222.70985	0.93257
1220.78128	0.92790
1218.85272	0.92449
1216.92415	0.92177
1214.99559	0.91861
1213.06703	0.91617
1211.13846	0.91525
1209.20990	0.91477
1207.28133	0.91338
1205.35277	0.90999
1203.42420	0.90332
1201.49564	0.89348
1199.56708	0.88235
1197.63851	0.87088
1195.70995	0.85960
1193.78138	0.84976
1191.85282	0.84182
1189.92425	0.83575
1187.99569	0.83171
1186.06712	0.82917
1184.13856	0.82747
1182.21000	0.82726
1180.28143	0.82968
1178.35287	0.83481
1176.42430	0.84166
1174.49574	0.84913
1172.56717	0.85713
1170.63861	0.86673
1168.71004	0.87864
1166.78148	0.89250
1164.85292	0.90710
1162.92435	0.92113
1160.99579	0.93299
1159.06722	0.94012
1157.13866	0.94070
1155.21009	0.93441
1153.28153	0.92273
1151.35296	0.90874
1149.42440	0.89415
1147.49584	0.87859
1145.56727	0.86292
1143.63871	0.84943
1141.71014	0.83900
1139.78158	0.83160
1137.85301	0.82714
1135.92445	0.82458
1133.99588	0.82314
1132.06732	0.82424
1130.13876	0.82971
1128.21019	0.83880
1126.28163	0.84894
1124.35306	0.85806
1122.42450	0.86576
1120.49593	0.87299
1118.56737	0.87905
1116.63880	0.88170
1114.71024	0.88073
1112.78168	0.87733
1110.85311	0.87238
1108.92455	0.86691
1106.99598	0.86186
1105.06742	0.85799
1103.13885	0.85569
1101.21029	0.85424
1099.28172	0.85413
1097.35316	0.85735
1095.42460	0.86416
1093.49603	0.87377
1091.56747	0.88557
1089.63890	0.89919
1087.71034	0.91410
1085.78177	0.92939
1083.85321	0.94555
1081.92464	0.96286
1079.99608	0.97877
1078.06752	0.99009
1076.13895	0.99566
1074.21039	0.99614
1072.28182	0.99208
1070.35326	0.98372
1068.42469	0.97276
1066.49613	0.96167
1064.56756	0.95117
1062.63900	0.93975
1060.71044	0.92666
1058.78187	0.91323
1056.85331	0.90117
1054.92474	0.89124
1052.99618	0.88288
1051.06761	0.87549
1049.13905	0.86910
1047.21049	0.86480
1045.28192	0.86466
1043.35336	0.86821
1041.42479	0.87251
1039.49623	0.87700
1037.56766	0.88306
1035.63910	0.88965
1033.71053	0.89356
1031.78197	0.89419
1029.85341	0.89360
1027.92484	0.89219
1025.99628	0.88883
1024.06771	0.88372
1022.13915	0.87861
1020.21058	0.87476
1018.28202	0.87239
1016.35345	0.87067
1014.42489	0.86756
1012.49633	0.86157
1010.56776	0.85222
1008.63920	0.83953
1006.71063	0.82502
1004.78207	0.81034
1002.85350	0.79608
1000.92494	0.78313
998.99637	0.77234
997.06781	0.76363
995.13925	0.75599
993.21068	0.74786
991.28212	0.73816
989.35355	0.72697
987.42499	0.71495
985.49642	0.70291
983.56786	0.69187
981.63929	0.68290
979.71073	0.67628
977.78217	0.67093
975.85360	0.66534
973.92504	0.65897
971.99647	0.65175
970.06791	0.64388
968.13934	0.63615
966.21078	0.62941
964.28221	0.62464
962.35365	0.62327
960.42509	0.62638
958.49652	0.63377
956.56796	0.64278
954.63939	0.64917
952.71083	0.65104
950.78226	0.64931
948.85370	0.64559
946.92513	0.64100
944.99657	0.63597
943.06801	0.63101
941.13944	0.62677
939.21088	0.62313
937.28231	0.61954
935.35375	0.61564
933.42518	0.61112
931.49662	0.60606
929.56805	0.60090
927.63949	0.59579
925.71093	0.59079
923.78236	0.58621
921.85380	0.58175
919.92523	0.57642
917.99667	0.56987
916.06810	0.56250
914.13954	0.55491
912.21098	0.54779
910.28241	0.54178
908.35385	0.53723
906.42528	0.53413
904.49672	0.53227
902.56815	0.53154
900.63959	0.53177
898.71102	0.53233
896.78246	0.53264
894.85390	0.53280
892.92533	0.53322
890.99677	0.53392
889.06820	0.53506
887.13964	0.53720
885.21107	0.54035
883.28251	0.54387
881.35394	0.54768
879.42538	0.55230
877.49682	0.55748
875.56825	0.56249
873.63969	0.56723
871.71112	0.57149
869.78256	0.57492
867.85399	0.57781
865.92543	0.58049
863.99686	0.58300
862.06830	0.58524
860.13974	0.58713
858.21117	0.58862
856.28261	0.58954
854.35404	0.59002
852.42548	0.59014
850.49691	0.58928
848.56835	0.58694
846.63978	0.58375
844.71122	0.58052
842.78266	0.57709
840.85409	0.57352
838.92553	0.57065
836.99696	0.56838
835.06840	0.56565
833.13983	0.56194
831.21127	0.55799
829.28270	0.55481
827.35414	0.55202
825.42558	0.54912
823.49701	0.54703
821.56845	0.54560
819.63988	0.54377
817.71132	0.54231
815.78275	0.54162
813.85419	0.54098
811.92562	0.54078
809.99706	0.54134
808.06850	0.54207
806.13993	0.54285
804.21137	0.54372
802.28280	0.54457
800.35424	0.54553
798.42567	0.54651
796.49711	0.54758
794.56854	0.54894
792.63998	0.55024
790.71142	0.55144
788.78285	0.55297
786.85429	0.55481
784.92572	0.55642
782.99716	0.55778
781.06859	0.55923
779.14003	0.56043
777.21147	0.56116
775.28290	0.56139
773.35434	0.56119
771.42577	0.56093
769.49721	0.56046
767.56864	0.55965
765.64008	0.55862
763.71151	0.55723
761.78295	0.55577
759.85439	0.55436
757.92582	0.55274
755.99726	0.55113
754.06869	0.54951
752.14013	0.54779
750.21156	0.54631
748.28300	0.54501
746.35443	0.54399
744.42587	0.54363
742.49731	0.54319
740.56874	0.54224
738.64018	0.54185
736.71161	0.54275
734.78305	0.54466
732.85448	0.54761
730.92592	0.55169
728.99735	0.55622
727.06879	0.56096
725.14023	0.56638
723.21166	0.57294
721.28310	0.58076
719.35453	0.58809
717.42597	0.59313
715.49740	0.59710
713.56884	0.60110
711.64027	0.60437
709.71171	0.60765
707.78315	0.61224
705.85458	0.61630
703.92602	0.61711
701.99745	0.61487
700.06889	0.61118
698.14032	0.60661
696.21176	0.60086
694.28319	0.59427
692.35463	0.58766
690.42607	0.58060
688.49750	0.57253
686.56894	0.56426
684.64037	0.55627
682.71181	0.54805
680.78324	0.53988
678.85468	0.53219
676.92611	0.52452
674.99755	0.51694
673.06899	0.51110
671.14042	0.50885
669.21186	0.50815
667.28329	0.50291
665.35473	0.49759
663.42616	0.49578
661.49760	0.49586
659.56903	0.49713
657.64047	0.49931
655.71191	0.50192
653.78334	0.50549
651.85478	0.51060
649.92621	0.51697
647.99765	0.52462
646.06908	0.53324
644.14052	0.54214
642.21195	0.55159
640.28339	0.56256
638.35483	0.57404
636.42626	0.58296
634.49770	0.58766
632.56913	0.59005
630.64057	0.59285
628.71200	0.59648
626.78344	0.60029
624.85488	0.60377
622.92631	0.60522
620.99775	0.60317
619.06918	0.59966
617.14062	0.59731
615.21205	0.59497
613.28349	0.59089
611.35492	0.58576
609.42636	0.58077
607.49780	0.57578
605.56923	0.56973
603.64067	0.56320
601.71210	0.55813
599.78354	0.55432
