3997.91406	0.42689
3995.98550	0.42555
3994.05693	0.42445
3992.12837	0.42508
3990.19980	0.42624
3988.27124	0.42576
3986.34268	0.42464
3984.41411	0.42443
3982.48555	0.42496
3980.55698	0.42543
3978.62842	0.42585
3976.69985	0.42677
3974.77129	0.42754
3972.84272	0.42728
3970.91416	0.42698
3968.98560	0.42720
3967.05703	0.42684
3965.12847	0.42585
3963.19990	0.42480
3961.27134	0.42361
3959.34277	0.42288
3957.41421	0.42238
3955.48564	0.42157
3953.55708	0.42201
3951.62852	0.42397
3949.69995	0.42473
3947.77139	0.42292
3945.84282	0.42028
3943.91426	0.41772
3941.98569	0.41588
3940.05713	0.41569
3938.12856	0.41671
3936.20000	0.41807
3934.27144	0.41889
3932.34287	0.41896
3930.41431	0.41894
3928.48574	0.41853
3926.55718	0.41676
3924.62861	0.41469
3922.70005	0.41526
3920.77148	0.41760
3918.84292	0.41788
3916.91436	0.41585
3914.98579	0.41528
3913.05723	0.41608
3911.12866	0.41601
3909.20010	0.41568
3907.27153	0.41620
3905.34297	0.41658
3903.41440	0.41577
3901.48584	0.41475
3899.55728	0.41364
3897.62871	0.41242
3895.70015	0.41267
3893.77158	0.41413
3891.84302	0.41413
3889.91445	0.41292
3887.98589	0.41229
3886.05733	0.41041
3884.12876	0.40853
3882.20020	0.40879
3880.27163	0.40900
3878.34307	0.40998
3876.41450	0.41216
3874.48594	0.41300
3872.55737	0.41177
3870.62881	0.41030
3868.70025	0.41052
3866.77168	0.41214
3864.84312	0.41136
3862.91455	0.40753
3860.98599	0.40586
3859.05742	0.40672
3857.12886	0.40826
3855.20029	0.40991
3853.27173	0.40892
3851.34317	0.40647
3849.41460	0.40626
3847.48604	0.40643
3845.55747	0.40615
3843.62891	0.40607
3841.70034	0.40719
3839.77178	0.40878
3837.84321	0.40819
3835.91465	0.40553
3833.98609	0.40339
3832.05752	0.40255
3830.12896	0.40296
3828.20039	0.40414
3826.27183	0.40560
3824.34326	0.40777
3822.41470	0.40968
3820.48613	0.40795
3818.55757	0.40512
3816.62901	0.40290
3814.70044	0.40111
3812.77188	0.40026
3810.84331	0.39995
3808.91475	0.40105
3806.98618	0.40307
3805.05762	0.40463
3803.12905	0.40517
3801.20049	0.40299
3799.27193	0.40065
3797.34336	0.39887
3795.41480	0.39702
3793.48623	0.39670
3791.55767	0.39732
3789.62910	0.39806
3787.70054	0.39854
3785.77197	0.39753
3783.84341	0.39585
3781.91485	0.39645
3779.98628	0.39802
3778.05772	0.39756
3776.12915	0.39653
3774.20059	0.39651
3772.27202	0.39703
3770.34346	0.39749
3768.41489	0.39777
3766.48633	0.39732
3764.55777	0.39680
3762.62920	0.39766
3760.70064	0.39851
3758.77207	0.39795
3756.84351	0.39773
3754.91494	0.39848
3752.98638	0.39930
3751.05781	0.39844
3749.12925	0.39679
3747.20069	0.39783
3745.27212	0.39916
3743.34356	0.39837
3741.41499	0.39842
3739.48643	0.39968
3737.55786	0.40063
3735.62930	0.40085
3733.70074	0.40049
3731.77217	0.39903
3729.84361	0.39811
3727.91504	0.39834
3725.98648	0.39779
3724.05791	0.39567
3722.12935	0.39364
3720.20078	0.39285
3718.27222	0.39295
3716.34366	0.39352
3714.41509	0.39464
3712.48653	0.39489
3710.55796	0.39461
3708.62940	0.39560
3706.70083	0.39607
3704.77227	0.39618
3702.84370	0.39574
3700.91514	0.39464
3698.98658	0.39498
3697.05801	0.39645
3695.12945	0.39791
3693.20088	0.40025
3691.27232	0.40367
3689.34375	0.40471
3687.41519	0.40362
3685.48662	0.40385
3683.55806	0.40498
3681.62950	0.40686
3679.70093	0.40997
3677.77237	0.41360
3675.84380	0.41585
3673.91524	0.41824
3671.98667	0.42174
3670.05811	0.42267
3668.12954	0.42125
3666.20098	0.42235
3664.27242	0.42539
3662.34385	0.42835
3660.41529	0.43082
3658.48672	0.43348
3656.55816	0.43633
3654.62959	0.43934
3652.70103	0.44315
3650.77246	0.44761
3648.84390	0.45093
3646.91534	0.45409
3644.98677	0.45809
3643.05821	0.46210
3641.12964	0.46597
3639.20108	0.46976
3637.27251	0.47336
3635.34395	0.47705
3633.41538	0.48171
3631.48682	0.48703
3629.55826	0.49186
3627.62969	0.49568
3625.70113	0.49968
3623.77256	0.50410
3621.84400	0.50919
3619.91543	0.51517
3617.98687	0.52073
3616.05830	0.52614
3614.12974	0.53163
3612.20118	0.53601
3610.27261	0.54044
3608.34405	0.54591
3606.41548	0.55051
3604.48692	0.55388
3602.55835	0.55769
3600.62979	0.56277
3598.70123	0.56819
3596.77266	0.57229
3594.84410	0.57603
3592.91553	0.58183
3590.98697	0.58894
3589.05840	0.59586
3587.12984	0.60096
3585.20127	0.60466
3583.27271	0.60894
3581.34415	0.61333
3579.41558	0.61683
3577.48702	0.61935
3575.55845	0.62229
3573.62989	0.62742
3571.70132	0.63433
3569.77276	0.64060
3567.84419	0.64596
3565.91563	0.65175
3563.98707	0.65731
3562.05850	0.66263
3560.12994	0.66689
3558.20137	0.67018
3556.27281	0.67418
3554.34424	0.67965
3552.41568	0.68628
3550.48711	0.69240
3548.55855	0.69837
3546.62999	0.70586
3544.70142	0.71345
3542.77286	0.71851
3540.84429	0.72192
3538.91573	0.72593
3536.98716	0.73116
3535.05860	0.73643
3533.13003	0.74131
3531.20147	0.74626
3529.27291	0.75023
3527.34434	0.75399
3525.41578	0.76024
3523.48721	0.76787
3521.55865	0.77443
3519.63008	0.78066
3517.70152	0.78843
3515.77295	0.79663
3513.84439	0.80284
3511.91583	0.80791
3509.98726	0.81371
3508.05870	0.81989
3506.13013	0.82617
3504.20157	0.83340
3502.27300	0.84217
3500.34444	0.85288
3498.41587	0.86379
3496.48731	0.87133
3494.55875	0.87569
3492.63018	0.88112
3490.70162	0.88876
3488.77305	0.89557
3486.84449	0.89952
3484.91592	0.90226
3482.98736	0.90584
3481.05879	0.90925
3479.13023	0.91184
3477.20167	0.91492
3475.27310	0.91820
3473.34454	0.92287
3471.41597	0.92820
3469.48741	0.92937
3467.55884	0.92744
3465.63028	0.92877
3463.70171	0.93617
3461.77315	0.94617
3459.84459	0.95162
3457.91602	0.95171
3455.98746	0.95205
3454.05889	0.95390
3452.13033	0.95646
3450.20176	0.96017
3448.27320	0.96345
3446.34464	0.96634
3444.41607	0.96898
3442.48751	0.97008
3440.55894	0.97233
3438.63038	0.97745
3436.70181	0.98097
3434.77325	0.97997
3432.84468	0.97817
3430.91612	0.97753
3428.98756	0.97584
3427.05899	0.97417
3425.13043	0.97589
3423.20186	0.98047
3421.27330	0.98284
3419.34473	0.97995
3417.41617	0.97682
3415.48760	0.97809
3413.55904	0.98200
3411.63048	0.98611
3409.70191	0.98865
3407.77335	0.98864
3405.84478	0.98926
3403.91622	0.99253
3401.98765	0.99517
3400.05909	0.99311
3398.13052	0.98898
3396.20196	0.98992
3394.27340	0.99537
3392.34483	0.99974
3390.41627	1.00223
3388.48770	1.00377
3386.55914	1.00413
3384.63057	1.00436
3382.70201	1.00545
3380.77344	1.00728
3378.84488	1.01011
3376.91632	1.01217
3374.98775	1.01181
3373.05919	1.01211
3371.13062	1.01489
3369.20206	1.01842
3367.27349	1.02140
3365.34493	1.02221
3363.41636	1.02075
3361.48780	1.02063
3359.55924	1.02371
3357.63067	1.02683
3355.70211	1.02836
3353.77354	1.03037
3351.84498	1.03325
3349.91641	1.03710
3347.98785	1.04180
3346.05928	1.04523
3344.13072	1.04725
3342.20216	1.04998
3340.27359	1.05456
3338.34503	1.05916
3336.41646	1.06138
3334.48790	1.06159
3332.55933	1.06201
3330.63077	1.06513
3328.70220	1.07067
3326.77364	1.07674
3324.84508	1.08163
3322.91651	1.08373
3320.98795	1.08473
3319.05938	1.08648
3317.13082	1.08979
3315.20225	1.09602
3313.27369	1.10251
3311.34513	1.10627
3309.41656	1.10935
3307.48800	1.11367
3305.55943	1.11858
3303.63087	1.12270
3301.70230	1.12448
3299.77374	1.12341
3297.84517	1.12175
3295.91661	1.12331
3293.98805	1.12835
3292.05948	1.13227
3290.13092	1.13278
3288.20235	1.13278
3286.27379	1.13348
3284.34522	1.13366
3282.41666	1.13311
3280.48809	1.13028
3278.55953	1.12469
3276.63097	1.12041
3274.70240	1.11880
3272.77384	1.11678
3270.84527	1.11401
3268.91671	1.11148
3266.98814	1.10750
3265.05958	1.10021
3263.13101	1.09207
3261.20245	1.08719
3259.27389	1.08385
3257.34532	1.07819
3255.41676	1.07044
3253.48819	1.06308
3251.55963	1.05782
3249.63106	1.05161
3247.70250	1.04234
3245.77393	1.03503
3243.84537	1.03048
3241.91681	1.02330
3239.98824	1.01414
3238.05968	1.00734
3236.13111	1.00430
3234.20255	1.00423
3232.27398	1.00337
3230.34542	0.99849
3228.41685	0.99125
3226.48829	0.98417
3224.55973	0.97846
3222.63116	0.97545
3220.70260	0.97493
3218.77403	0.97369
3216.84547	0.96926
3214.91690	0.96337
3212.98834	0.95945
3211.05977	0.95747
3209.13121	0.95502
3207.20265	0.95267
3205.27408	0.95119
3203.34552	0.94910
3201.41695	0.94659
3199.48839	0.94379
3197.55982	0.93998
3195.63126	0.93555
3193.70269	0.93075
3191.77413	0.92664
3189.84557	0.92371
3187.91700	0.91996
3185.98844	0.91525
3184.05987	0.91101
3182.13131	0.90608
3180.20274	0.89979
3178.27418	0.89290
3176.34562	0.88590
3174.41705	0.88059
3172.48849	0.87838
3170.55992	0.87737
3168.63136	0.87437
3166.70279	0.86926
3164.77423	0.86526
3162.84566	0.86353
3160.91710	0.86179
3158.98854	0.85939
3157.05997	0.85804
3155.13141	0.85708
3153.20284	0.85445
3151.27428	0.85113
3149.34571	0.84934
3147.41715	0.84890
3145.48858	0.84794
3143.56002	0.84586
3141.63146	0.84382
3139.70289	0.84275
3137.77433	0.84231
3135.84576	0.84088
3133.91720	0.83856
3131.98863	0.83835
3130.06007	0.83975
3128.13150	0.83849
3126.20294	0.83546
3124.27438	0.83480
3122.34581	0.83550
3120.41725	0.83460
3118.48868	0.83239
3116.56012	0.83082
3114.63155	0.83129
3112.70299	0.83299
3110.77442	0.83373
3108.84586	0.83293
3106.91730	0.83182
3104.98873	0.83177
3103.06017	0.83260
3101.13160	0.83166
3099.20304	0.82862
3097.27447	0.82723
3095.34591	0.82845
3093.41734	0.83003
3091.48878	0.83010
3089.56022	0.82815
3087.63165	0.82553
3085.70309	0.82343
3083.77452	0.82208
3081.84596	0.82126
3079.91739	0.81955
3077.98883	0.81612
3076.06026	0.81201
3074.13170	0.80878
3072.20314	0.80740
3070.27457	0.80661
3068.34601	0.80452
3066.41744	0.80195
3064.48888	0.79998
3062.56031	0.79833
3060.63175	0.79710
3058.70318	0.79539
3056.77462	0.79193
3054.84606	0.78773
3052.91749	0.78442
3050.98893	0.78223
3049.06036	0.78060
3047.13180	0.77865
3045.20323	0.77600
3043.27467	0.77329
3041.34610	0.77059
3039.41754	0.76760
3037.48898	0.76474
3035.56041	0.76187
3033.63185	0.75836
3031.70328	0.75469
3029.77472	0.75162
3027.84615	0.74940
3025.91759	0.74768
3023.98903	0.74522
3022.06046	0.74159
3020.13190	0.73830
3018.20333	0.73655
3016.27477	0.73517
3014.34620	0.73256
3012.41764	0.72991
3010.48907	0.72888
3008.56051	0.72822
3006.63195	0.72676
3004.70338	0.72493
3002.77482	0.72339
3000.84625	0.72320
2998.91769	0.72413
2996.98912	0.72421
2995.06056	0.72432
2993.13199	0.72709
2991.20343	0.73136
2989.27487	0.73541
2987.34630	0.74010
2985.41774	0.74575
2983.48917	0.75163
2981.56061	0.75733
2979.63204	0.76274
2977.70348	0.76778
2975.77491	0.77334
2973.84635	0.78022
2971.91779	0.78759
2969.98922	0.79544
2968.06066	0.80389
2966.13209	0.81100
2964.20353	0.81584
2962.27496	0.81915
2960.34640	0.82109
2958.41783	0.82058
2956.48927	0.81678
2954.56071	0.81123
2952.63214	0.80595
2950.70358	0.80175
2948.77501	0.79993
2946.84645	0.80111
2944.91788	0.80439
2942.98932	0.80939
2941.06075	0.81628
2939.13219	0.82511
2937.20363	0.83527
2935.27506	0.84519
2933.34650	0.85403
2931.41793	0.86274
2929.48937	0.87205
2927.56080	0.88058
2925.63224	0.88731
2923.70367	0.89259
2921.77511	0.89573
2919.84655	0.89580
2917.91798	0.89011
2915.98942	0.87487
2914.06085	0.85210
2912.13229	0.82866
2910.20372	0.80938
2908.27516	0.79512
2906.34659	0.78475
2904.41803	0.77734
2902.48947	0.77141
2900.56090	0.76512
2898.63234	0.75926
2896.70377	0.75522
2894.77521	0.75184
2892.84664	0.74817
2890.91808	0.74485
2888.98952	0.74198
2887.06095	0.73924
2885.13239	0.73711
2883.20382	0.73630
2881.27526	0.73621
2879.34669	0.73603
2877.41813	0.73601
2875.48956	0.73674
2873.56100	0.73707
2871.63244	0.73445
2869.70387	0.72920
2867.77531	0.72387
2865.84674	0.71970
2863.91818	0.71711
2861.98961	0.71658
2860.06105	0.71866
2858.13248	0.72333
2856.20392	0.72980
2854.27536	0.73725
2852.34679	0.74390
2850.41823	0.74523
2848.48966	0.73505
2846.56110	0.71318
2844.63253	0.68823
2842.70397	0.66752
2840.77540	0.65243
2838.84684	0.64219
2836.91828	0.63524
2834.98971	0.62978
2833.06115	0.62517
2831.13258	0.62108
2829.20402	0.61717
2827.27545	0.61349
2825.34689	0.60979
2823.41832	0.60601
2821.48976	0.60292
2819.56120	0.60084
2817.63263	0.59927
2815.70407	0.59757
2813.77550	0.59531
2811.84694	0.59312
2809.91837	0.59193
2807.98981	0.59076
2806.06124	0.58813
2804.13268	0.58487
2802.20412	0.58248
2800.27555	0.58090
2798.34699	0.57923
2796.41842	0.57694
2794.48986	0.57403
2792.56129	0.57113
2790.63273	0.56889
2788.70416	0.56678
2786.77560	0.56422
2784.84704	0.56208
2782.91847	0.56080
2780.98991	0.55935
2779.06134	0.55735
2777.13278	0.55527
2775.20421	0.55304
2773.27565	0.55065
2771.34708	0.54841
2769.41852	0.54634
2767.48996	0.54471
2765.56139	0.54353
2763.63283	0.54199
2761.70426	0.53984
2759.77570	0.53786
2757.84713	0.53620
2755.91857	0.53427
2753.99001	0.53234
2752.06144	0.53079
2750.13288	0.52894
2748.20431	0.52669
2746.27575	0.52465
2744.34718	0.52280
2742.41862	0.52109
2740.49005	0.51967
2738.56149	0.51827
2736.63293	0.51665
2734.70436	0.51502
2732.77580	0.51384
2730.84723	0.51346
2728.91867	0.51352
2726.99010	0.51298
2725.06154	0.51142
2723.13297	0.50975
2721.20441	0.50849
2719.27585	0.50752
2717.34728	0.50735
2715.41872	0.50760
2713.49015	0.50677
2711.56159	0.50471
2709.63302	0.50258
2707.70446	0.50094
2705.77589	0.49964
2703.84733	0.49835
2701.91877	0.49672
2699.99020	0.49500
2698.06164	0.49333
2696.13307	0.49141
2694.20451	0.48959
2692.27594	0.48803
2690.34738	0.48637
2688.41881	0.48468
2686.49025	0.48303
2684.56169	0.48140
2682.63312	0.48031
2680.70456	0.47981
2678.77599	0.47927
2676.84743	0.47829
2674.91886	0.47694
2672.99030	0.47566
2671.06173	0.47474
2669.13317	0.47395
2667.20461	0.47315
2665.27604	0.47238
2663.34748	0.47130
2661.41891	0.46990
2659.49035	0.46853
2657.56178	0.46714
2655.63322	0.46582
2653.70465	0.46482
2651.77609	0.46384
2649.84753	0.46251
2647.91896	0.46089
2645.99040	0.45914
2644.06183	0.45745
2642.13327	0.45598
2640.20470	0.45494
2638.27614	0.45424
2636.34757	0.45361
2634.41901	0.45288
2632.49045	0.45222
2630.56188	0.45169
2628.63332	0.45116
2626.70475	0.45078
2624.77619	0.45033
2622.84762	0.44931
2620.91906	0.44828
2618.99049	0.44774
2617.06193	0.44693
2615.13337	0.44536
2613.20480	0.44356
2611.27624	0.44200
2609.34767	0.44054
2607.41911	0.43890
2605.49054	0.43725
2603.56198	0.43581
2601.63342	0.43437
2599.70485	0.43261
2597.77629	0.43071
2595.84772	0.42933
2593.91916	0.42865
2591.99059	0.42802
2590.06203	0.42706
2588.13346	0.42592
2586.20490	0.42505
2584.27634	0.42477
2582.34777	0.42487
2580.41921	0.42485
2578.49064	0.42446
2576.56208	0.42397
2574.63351	0.42347
2572.70495	0.42277
2570.77638	0.42197
2568.84782	0.42124
2566.91926	0.42045
2564.99069	0.41948
2563.06213	0.41829
2561.13356	0.41676
2559.20500	0.41488
2557.27643	0.41296
2555.34787	0.41125
2553.41930	0.40979
2551.49074	0.40843
2549.56218	0.40692
2547.63361	0.40527
2545.70505	0.40377
2543.77648	0.40275
2541.84792	0.40205
2539.91935	0.40120
2537.99079	0.40023
2536.06222	0.39957
2534.13366	0.39935
2532.20510	0.39918
2530.27653	0.39858
2528.34797	0.39787
2526.41940	0.39727
2524.49084	0.39633
2522.56227	0.39507
2520.63371	0.39384
2518.70514	0.39268
2516.77658	0.39135
2514.84802	0.38983
2512.91945	0.38836
2510.99089	0.38701
2509.06232	0.38563
2507.13376	0.38410
2505.20519	0.38243
2503.27663	0.38089
2501.34806	0.37965
2499.41950	0.37847
2497.49094	0.37719
2495.56237	0.37594
2493.63381	0.37497
2491.70524	0.37439
2489.77668	0.37409
2487.84811	0.37404
2485.91955	0.37407
2483.99098	0.37386
2482.06242	0.37361
2480.13386	0.37365
2478.20529	0.37367
2476.27673	0.37311
2474.34816	0.37207
2472.41960	0.37107
2470.49103	0.37015
2468.56247	0.36910
2466.63391	0.36799
2464.70534	0.36671
2462.77678	0.36504
2460.84821	0.36329
2458.91965	0.36194
2456.99108	0.36068
2455.06252	0.35904
2453.13395	0.35725
2451.20539	0.35571
2449.27683	0.35456
2447.34826	0.35377
2445.41970	0.35319
2443.49113	0.35247
2441.56257	0.35166
2439.63400	0.35103
2437.70544	0.35023
2435.77687	0.34901
2433.84831	0.34777
2431.91975	0.34686
2429.99118	0.34613
2428.06262	0.34525
2426.13405	0.34415
2424.20549	0.34312
2422.27692	0.34246
2420.34836	0.34197
2418.41979	0.34133
2416.49123	0.34053
2414.56267	0.33965
2412.63410	0.33881
2410.70554	0.33812
2408.77697	0.33742
2406.84841	0.33654
2404.91984	0.33568
2402.99128	0.33502
2401.06271	0.33423
2399.13415	0.33302
2397.20559	0.33172
2395.27702	0.33093
2393.34846	0.33067
2391.41989	0.33049
2389.49133	0.33015
2387.56276	0.33000
2385.63420	0.33065
2383.70563	0.33201
2381.77707	0.33367
2379.84851	0.33572
2377.91994	0.33821
2375.99138	0.34092
2374.06281	0.34390
2372.13425	0.34717
2370.20568	0.35018
2368.27712	0.35228
2366.34855	0.35401
2364.41999	0.35625
2362.49143	0.35883
2360.56286	0.36070
2358.63430	0.35965
2356.70573	0.35571
2354.77717	0.35138
2352.84860	0.34676
2350.92004	0.34221
2348.99147	0.33986
2347.06291	0.34038
2345.13435	0.34263
2343.20578	0.34411
2341.27722	0.34342
2339.34865	0.34191
2337.42009	0.34113
2335.49152	0.34081
2333.56296	0.34022
2331.63440	0.33904
2329.70583	0.33757
2327.77727	0.33660
2325.84870	0.33567
2323.92014	0.33384
2321.99157	0.33162
2320.06301	0.32995
2318.13444	0.32864
2316.20588	0.32733
2314.27732	0.32600
2312.34875	0.32467
2310.42019	0.32341
2308.49162	0.32226
2306.56306	0.32090
2304.63449	0.31912
2302.70593	0.31725
2300.77736	0.31549
2298.84880	0.31380
2296.92024	0.31224
2294.99167	0.31103
2293.06311	0.31002
2291.13454	0.30895
2289.20598	0.30796
2287.27741	0.30716
2285.34885	0.30646
2283.42028	0.30606
2281.49172	0.30613
2279.56316	0.30635
2277.63459	0.30660
2275.70603	0.30709
2273.77746	0.30770
2271.84890	0.30807
2269.92033	0.30806
2267.99177	0.30789
2266.06320	0.30776
2264.13464	0.30765
2262.20608	0.30740
2260.27751	0.30691
2258.34895	0.30634
2256.42038	0.30582
2254.49182	0.30517
2252.56325	0.30426
2250.63469	0.30322
2248.70612	0.30216
2246.77756	0.30108
2244.84900	0.30019
2242.92043	0.29960
2240.99187	0.29922
2239.06330	0.29899
2237.13474	0.29888
2235.20617	0.29895
2233.27761	0.29929
2231.34904	0.29966
2229.42048	0.29978
2227.49192	0.29992
2225.56335	0.30052
2223.63479	0.30117
2221.70622	0.30141
2219.77766	0.30157
2217.84909	0.30185
2215.92053	0.30203
2213.99196	0.30193
2212.06340	0.30149
2210.13484	0.30074
2208.20627	0.29994
2206.27771	0.29916
2204.34914	0.29829
2202.42058	0.29738
2200.49201	0.29652
2198.56345	0.29571
2196.63488	0.29500
2194.70632	0.29430
2192.77776	0.29345
2190.84919	0.29265
2188.92063	0.29217
2186.99206	0.29195
2185.06350	0.29208
2183.13493	0.29262
2181.20637	0.29325
2179.27781	0.29394
2177.34924	0.29491
2175.42068	0.29585
2173.49211	0.29647
2171.56355	0.29701
2169.63498	0.29755
2167.70642	0.29799
2165.77785	0.29837
2163.84929	0.29862
2161.92073	0.29866
2159.99216	0.29851
2158.06360	0.29818
2156.13503	0.29768
2154.20647	0.29699
2152.27790	0.29619
2150.34934	0.29544
2148.42077	0.29486
2146.49221	0.29441
2144.56365	0.29388
2142.63508	0.29321
2140.70652	0.29251
2138.77795	0.29178
2136.84939	0.29098
2134.92082	0.29021
2132.99226	0.28948
2131.06369	0.28886
2129.13513	0.28842
2127.20657	0.28793
2125.27800	0.28739
2123.34944	0.28692
2121.42087	0.28648
2119.49231	0.28606
2117.56374	0.28557
2115.63518	0.28499
2113.70661	0.28458
2111.77805	0.28439
2109.84949	0.28408
2107.92092	0.28358
2105.99236	0.28315
2104.06379	0.28306
2102.13523	0.28314
2100.20666	0.28304
2098.27810	0.28280
2096.34953	0.28258
2094.42097	0.28243
2092.49241	0.28234
2090.56384	0.28213
2088.63528	0.28165
2086.70671	0.28108
2084.77815	0.28054
2082.84958	0.27987
2080.92102	0.27923
2078.99245	0.27884
2077.06389	0.27857
2075.13533	0.27824
2073.20676	0.27786
2071.27820	0.27767
2069.34963	0.27771
2067.42107	0.27763
2065.49250	0.27716
2063.56394	0.27650
2061.63537	0.27586
2059.70681	0.27519
2057.77825	0.27464
2055.84968	0.27429
2053.92112	0.27377
2051.99255	0.27297
2050.06399	0.27201
2048.13542	0.27093
2046.20686	0.26974
2044.27830	0.26856
2042.34973	0.26742
2040.42117	0.26628
2038.49260	0.26518
2036.56404	0.26413
2034.63547	0.26305
2032.70691	0.26191
2030.77834	0.26087
2028.84978	0.26011
2026.92122	0.25936
2024.99265	0.25852
2023.06409	0.25782
2021.13552	0.25737
2019.20696	0.25706
2017.27839	0.25682
2015.34983	0.25656
2013.42126	0.25625
2011.49270	0.25576
2009.56414	0.25500
2007.63557	0.25424
2005.70701	0.25380
2003.77844	0.25363
2001.84988	0.25338
1999.92131	0.25292
1997.99275	0.25222
1996.06418	0.25139
1994.13562	0.25068
1992.20706	0.25006
1990.27849	0.24927
1988.34993	0.24819
1986.42136	0.24688
1984.49280	0.24565
1982.56423	0.24469
1980.63567	0.24371
1978.70710	0.24261
1976.77854	0.24151
1974.84998	0.24050
1972.92141	0.23968
1970.99285	0.23913
1969.06428	0.23864
1967.13572	0.23786
1965.20715	0.23700
1963.27859	0.23647
1961.35002	0.23603
1959.42146	0.23546
1957.49290	0.23489
1955.56433	0.23438
1953.63577	0.23388
1951.70720	0.23347
1949.77864	0.23316
1947.85007	0.23291
1945.92151	0.23273
1943.99294	0.23240
1942.06438	0.23143
1940.13582	0.23001
1938.20725	0.22875
1936.27869	0.22785
1934.35012	0.22710
1932.42156	0.22616
1930.49299	0.22503
1928.56443	0.22393
1926.63586	0.22309
1924.70730	0.22233
1922.77874	0.22130
1920.85017	0.22017
1918.92161	0.21903
1916.99304	0.21767
1915.06448	0.21652
1913.13591	0.21583
1911.20735	0.21532
1909.27878	0.21460
1907.35022	0.21370
1905.42166	0.21305
1903.49309	0.21278
1901.56453	0.21274
1899.63596	0.21285
1897.70740	0.21291
1895.77883	0.21259
1893.85027	0.21197
1891.92171	0.21159
1889.99314	0.21124
1888.06458	0.21054
1886.13601	0.20983
1884.20745	0.20908
1882.27888	0.20818
1880.35032	0.20725
1878.42175	0.20617
1876.49319	0.20496
1874.56463	0.20382
1872.63606	0.20306
1870.70750	0.20273
1868.77893	0.20202
1866.85037	0.20037
1864.92180	0.19885
1862.99324	0.19792
1861.06467	0.19724
1859.13611	0.19659
1857.20755	0.19612
1855.27898	0.19590
1853.35042	0.19584
1851.42185	0.19597
1849.49329	0.19634
1847.56472	0.19672
1845.63616	0.19685
1843.70759	0.19628
1841.77903	0.19523
1839.85047	0.19437
1837.92190	0.19361
1835.99334	0.19262
1834.06477	0.19173
1832.13621	0.19137
1830.20764	0.19078
1828.27908	0.18928
1826.35051	0.18758
1824.42195	0.18584
1822.49339	0.18421
1820.56482	0.18292
1818.63626	0.18192
1816.70769	0.18113
1814.77913	0.18088
1812.85056	0.18124
1810.92200	0.18161
1808.99343	0.18162
1807.06487	0.18170
1805.13631	0.18224
1803.20774	0.18319
1801.27918	0.18429
1799.35061	0.18505
1797.42205	0.18570
1795.49348	0.18677
1793.56492	0.18805
1791.63635	0.18861
1789.70779	0.18832
1787.77923	0.18837
1785.85066	0.18869
1783.92210	0.18905
1781.99353	0.18963
1780.06497	0.19009
1778.13640	0.19034
1776.20784	0.19099
1774.27927	0.19238
1772.35071	0.19371
1770.42215	0.19408
1768.49358	0.19460
1766.56502	0.19587
1764.63645	0.19791
1762.70789	0.20125
1760.77932	0.20574
1758.85076	0.21051
1756.92220	0.21670
1754.99363	0.22386
1753.06507	0.23160
1751.13650	0.24231
1749.20794	0.25526
1747.27937	0.26579
1745.35081	0.27381
1743.42224	0.28078
1741.49368	0.28686
1739.56512	0.29159
1737.63655	0.29464
1735.70799	0.29708
1733.77942	0.29952
1731.85086	0.30017
1729.92229	0.30025
1727.99373	0.30122
1726.06516	0.30344
1724.13660	0.30730
1722.20804	0.31207
1720.27947	0.31757
1718.35091	0.32651
1716.42234	0.33945
1714.49378	0.34936
1712.56521	0.35805
1710.63665	0.36887
1708.70808	0.38222
1706.77952	0.40125
1704.85096	0.42600
1702.92239	0.44891
1700.99383	0.48043
1699.06526	0.52834
1697.13670	0.57198
1695.20813	0.61407
1693.27957	0.64633
1691.35100	0.67333
1689.42244	0.70659
1687.49388	0.73818
1685.56531	0.76991
1683.63675	0.81937
1681.70818	0.85910
1679.77962	0.88428
1677.85105	0.90798
1675.92249	0.93672
1673.99392	0.96912
1672.06536	0.99561
1670.13680	1.02288
1668.20823	1.05101
1666.27967	1.06799
1664.35110	1.08320
1662.42254	1.10356
1660.49397	1.12151
1658.56541	1.13340
1656.63684	1.14182
1654.70828	1.15018
1652.77972	1.15757
1650.85115	1.15914
1648.92259	1.15927
1646.99402	1.15446
1645.06546	1.14619
1643.13689	1.14198
1641.20833	1.14111
1639.27976	1.14066
1637.35120	1.13929
1635.42264	1.13402
1633.49407	1.12694
1631.56551	1.12150
1629.63694	1.11347
1627.70838	1.10177
1625.77981	1.08868
1623.85125	1.07021
1621.92269	1.04604
1619.99412	1.02626
1618.06556	1.00333
1616.13699	0.96651
1614.20843	0.93558
1612.27986	0.91271
1610.35130	0.88850
1608.42273	0.86280
1606.49417	0.84081
1604.56561	0.82462
1602.63704	0.81204
1600.70848	0.80205
1598.77991	0.79500
1596.85135	0.79037
1594.92278	0.78680
1592.99422	0.78421
1591.06565	0.78361
1589.13709	0.78539
1587.20853	0.78959
1585.27996	0.79619
1583.35140	0.80528
1581.42283	0.81570
1579.49427	0.82588
1577.56570	0.83811
1575.63714	0.85469
1573.70857	0.86657
1571.78001	0.87513
1569.85145	0.88871
1567.92288	0.90545
1565.99432	0.91929
1564.06575	0.93228
1562.13719	0.94375
1560.20862	0.95883
1558.28006	0.98510
1556.35149	0.99723
1554.42293	1.00450
1552.49437	1.01144
1550.56580	1.01506
1548.63724	1.01603
1546.70867	1.01714
1544.78011	1.01885
1542.85154	1.01900
1540.92298	1.01290
1538.99441	1.00266
1537.06585	0.99839
1535.13729	0.99434
1533.20872	0.98685
1531.28016	0.98000
1529.35159	0.97632
1527.42303	0.97310
1525.49446	0.97027
1523.56590	0.97012
1521.63733	0.96926
1519.70877	0.96525
1517.78021	0.95893
1515.85164	0.94853
1513.92308	0.93539
1511.99451	0.92043
1510.06595	0.90457
1508.13738	0.88015
1506.20882	0.83885
1504.28025	0.81643
1502.35169	0.80250
1500.42313	0.78590
1498.49456	0.76359
1496.56600	0.73621
1494.63743	0.71495
1492.70887	0.70159
1490.78030	0.68686
1488.85174	0.66545
1486.92317	0.64773
1484.99461	0.63715
1483.06605	0.63034
1481.13748	0.62597
1479.20892	0.62480
1477.28035	0.62774
1475.35179	0.63542
1473.42322	0.65015
1471.49466	0.66660
1469.56610	0.67546
1467.63753	0.68135
1465.70897	0.68865
1463.78040	0.69625
1461.85184	0.70132
1459.92327	0.70584
1457.99471	0.71265
1456.06614	0.71792
1454.13758	0.71831
1452.20902	0.71740
1450.28045	0.71593
1448.35189	0.71334
1446.42332	0.70907
1444.49476	0.70410
1442.56619	0.69911
1440.63763	0.69463
1438.70906	0.69006
1436.78050	0.68220
1434.85194	0.67239
1432.92337	0.66491
1430.99481	0.65825
1429.06624	0.65208
1427.13768	0.64817
1425.20911	0.64670
1423.28055	0.64750
1421.35198	0.65028
1419.42342	0.65425
1417.49486	0.65641
1415.56629	0.65615
1413.63773	0.65597
1411.70916	0.65639
1409.78060	0.65741
1407.85203	0.65927
1405.92347	0.66252
1403.99490	0.66683
1402.06634	0.67061
1400.13778	0.67372
1398.20921	0.67639
1396.28065	0.67880
1394.35208	0.68138
1392.42352	0.68430
1390.49495	0.68810
1388.56639	0.69430
1386.63782	0.70351
1384.70926	0.71281
1382.78070	0.72084
1380.85213	0.72692
1378.92357	0.72912
1376.99500	0.72674
1375.06644	0.71899
1373.13787	0.70606
1371.20931	0.69205
1369.28074	0.67730
1367.35218	0.66149
1365.42362	0.64692
1363.49505	0.63288
1361.56649	0.61961
1359.63792	0.61001
1357.70936	0.60344
1355.78079	0.59861
1353.85223	0.59502
1351.92366	0.59222
1349.99510	0.59019
1348.06654	0.58900
1346.13797	0.58837
1344.20941	0.58855
1342.28084	0.58979
1340.35228	0.59170
1338.42371	0.59377
1336.49515	0.59625
1334.56659	0.60027
1332.63802	0.60652
1330.70946	0.61414
1328.78089	0.62108
1326.85233	0.62618
1324.92376	0.62962
1322.99520	0.63226
1321.06663	0.63521
1319.13807	0.63857
1317.20951	0.64135
1315.28094	0.64317
1313.35238	0.64421
1311.42381	0.64445
1309.49525	0.64404
1307.56668	0.64292
1305.63812	0.64101
1303.70955	0.63868
1301.78099	0.63597
1299.85243	0.63249
1297.92386	0.62815
1295.99530	0.62388
1294.06673	0.62091
1292.13817	0.61948
1290.20960	0.61913
1288.28104	0.61957
1286.35247	0.62078
1284.42391	0.62277
1282.49535	0.62520
1280.56678	0.62786
1278.63822	0.63145
1276.70965	0.63635
1274.78109	0.64212
1272.85252	0.64881
1270.92396	0.65632
1268.99539	0.66393
1267.06683	0.67112
1265.13827	0.67747
1263.20970	0.68225
1261.28114	0.68528
1259.35257	0.68697
1257.42401	0.68745
1255.49544	0.68721
1253.56688	0.68682
1251.63831	0.68628
1249.70975	0.68533
1247.78119	0.68361
1245.85262	0.68106
1243.92406	0.67825
1241.99549	0.67576
1240.06693	0.67355
1238.13836	0.67100
1236.20980	0.66762
1234.28123	0.66349
1232.35267	0.65904
1230.42411	0.65456
1228.49554	0.65020
1226.56698	0.64568
1224.63841	0.64064
1222.70985	0.63544
1220.78128	0.63053
1218.85272	0.62592
1216.92415	0.62175
1214.99559	0.61872
1213.06703	0.61733
1211.13846	0.61683
1209.20990	0.61591
1207.28133	0.61354
1205.35277	0.60888
1203.42420	0.60178
1201.49564	0.59306
1199.56708	0.58348
1197.63851	0.57366
1195.70995	0.56464
1193.78138	0.55719
1191.85282	0.55153
1189.92425	0.54766
1187.99569	0.54547
1186.06712	0.54524
1184.13856	0.54729
1182.21000	0.55160
1180.28143	0.55849
1178.35287	0.56812
1176.42430	0.57989
1174.49574	0.59311
1172.56717	0.60748
1170.63861	0.62295
1168.71004	0.63898
1166.78148	0.65472
1164.85292	0.66941
1162.92435	0.68161
1160.99579	0.68948
1159.06722	0.69150
1157.13866	0.68714
1155.21009	0.67716
1153.28153	0.66312
1151.35296	0.64731
1149.42440	0.63162
1147.49584	0.61687
1145.56727	0.60388
1143.63871	0.59399
1141.71014	0.58792
1139.78158	0.58535
1137.85301	0.58600
1135.92445	0.58995
1133.99588	0.59716
1132.06732	0.60740
1130.13876	0.62060
1128.21019	0.63651
1126.28163	0.65381
1124.35306	0.67061
1122.42450	0.68570
1120.49593	0.69855
1118.56737	0.70859
1116.63880	0.71468
1114.71024	0.71575
1112.78168	0.71281
1110.85311	0.70781
1108.92455	0.70149
1106.99598	0.69439
1105.06742	0.68734
1103.13885	0.68093
1101.21029	0.67575
1099.28172	0.67255
1097.35316	0.67156
1095.42460	0.67295
1093.49603	0.67744
1091.56747	0.68585
1089.63890	0.69832
1087.71034	0.71375
1085.78177	0.73127
1083.85321	0.75044
1081.92464	0.76885
1079.99608	0.78395
1078.06752	0.79461
1076.13895	0.79913
1074.21039	0.79742
1072.28182	0.79223
1070.35326	0.78560
1068.42469	0.77843
1066.49613	0.77157
1064.56756	0.76491
1062.63900	0.75769
1060.71044	0.74942
1058.78187	0.73987
1056.85331	0.72946
1054.92474	0.71903
1052.99618	0.70921
1051.06761	0.69987
1049.13905	0.69109
1047.21049	0.68430
1045.28192	0.68078
1043.35336	0.68046
1041.42479	0.68259
1039.49623	0.68582
1037.56766	0.68874
1035.63910	0.69124
1033.71053	0.69406
1031.78197	0.69707
1029.85341	0.69914
1027.92484	0.69933
1025.99628	0.69781
1024.06771	0.69540
1022.13915	0.69317
1020.21058	0.69193
1018.28202	0.69121
1016.35345	0.68984
1014.42489	0.68692
1012.49633	0.68082
1010.56776	0.67017
1008.63920	0.65534
1006.71063	0.63762
1004.78207	0.61851
1002.85350	0.59931
1000.92494	0.58045
998.99637	0.56255
997.06781	0.54683
995.13925	0.53348
993.21068	0.52133
991.28212	0.50932
989.35355	0.49736
987.42499	0.48635
985.49642	0.47738
983.56786	0.47082
981.63929	0.46668
979.71073	0.46484
977.78217	0.46447
975.85360	0.46403
973.92504	0.46249
971.99647	0.45996
970.06791	0.45688
968.13934	0.45346
966.21078	0.45011
964.28221	0.44753
962.35365	0.44647
960.42509	0.44759
958.49652	0.45083
956.56796	0.45403
954.63939	0.45374
952.71083	0.44839
950.78226	0.43910
948.85370	0.42798
946.92513	0.41680
944.99657	0.40681
943.06801	0.39899
941.13944	0.39363
939.21088	0.39014
937.28231	0.38815
935.35375	0.38770
933.42518	0.38858
931.49662	0.39066
929.56805	0.39395
927.63949	0.39828
925.71093	0.40352
923.78236	0.40939
921.85380	0.41514
919.92523	0.42009
917.99667	0.42399
916.06810	0.42673
914.13954	0.42813
912.21098	0.42829
910.28241	0.42808
908.35385	0.42817
906.42528	0.42828
904.49672	0.42804
902.56815	0.42745
900.63959	0.42598
898.71102	0.42311
896.78246	0.41900
894.85390	0.41408
892.92533	0.40881
890.99677	0.40314
889.06820	0.39693
887.13964	0.39088
885.21107	0.38579
883.28251	0.38168
881.35394	0.37811
879.42538	0.37482
877.49682	0.37179
875.56825	0.36903
873.63969	0.36656
871.71112	0.36441
869.78256	0.36243
867.85399	0.36027
865.92543	0.35817
863.99686	0.35645
862.06830	0.35484
860.13974	0.35357
858.21117	0.35335
856.28261	0.35387
854.35404	0.35434
852.42548	0.35471
850.49691	0.35528
848.56835	0.35603
846.63978	0.35704
844.71122	0.35873
842.78266	0.36129
840.85409	0.36438
838.92553	0.36756
836.99696	0.37108
835.06840	0.37555
833.13983	0.38110
831.21127	0.38702
829.28270	0.39250
827.35414	0.39752
825.42558	0.40268
823.49701	0.40853
821.56845	0.41491
819.63988	0.42106
817.71132	0.42686
815.78275	0.43260
813.85419	0.43791
811.92562	0.44241
809.99706	0.44609
808.06850	0.44887
806.13993	0.45029
804.21137	0.45031
802.28280	0.44963
800.35424	0.44856
798.42567	0.44702
796.49711	0.44546
794.56854	0.44391
792.63998	0.44176
790.71142	0.43910
788.78285	0.43684
786.85429	0.43554
784.92572	0.43503
782.99716	0.43477
781.06859	0.43436
779.14003	0.43385
777.21147	0.43356
775.28290	0.43370
773.35434	0.43398
771.42577	0.43416
769.49721	0.43428
767.56864	0.43405
765.64008	0.43330
763.71151	0.43270
761.78295	0.43317
759.85439	0.43455
757.92582	0.43599
755.99726	0.43731
754.06869	0.43928
752.14013	0.44210
750.21156	0.44537
748.28300	0.44904
746.35443	0.45265
744.42587	0.45557
742.49731	0.45820
740.56874	0.46080
738.64018	0.46325
736.71161	0.46576
734.78305	0.46839
732.85448	0.47119
730.92592	0.47407
728.99735	0.47662
727.06879	0.47914
725.14023	0.48218
723.21166	0.48560
721.28310	0.48889
719.35453	0.49153
717.42597	0.49373
715.49740	0.49620
713.56884	0.49897
711.64027	0.50214
709.71171	0.50598
707.78315	0.51004
705.85458	0.51376
703.92602	0.51710
701.99745	0.52055
700.06889	0.52455
698.14032	0.52814
696.21176	0.53035
694.28319	0.53216
692.35463	0.53466
690.42607	0.53715
688.49750	0.53856
686.56894	0.53913
684.64037	0.53958
682.71181	0.53953
680.78324	0.53833
678.85468	0.53620
676.92611	0.53377
674.99755	0.53101
673.06899	0.52773
671.14042	0.52464
669.21186	0.51931
667.28329	0.50900
665.35473	0.50196
663.42616	0.49831
661.49760	0.49555
659.56903	0.49406
657.64047	0.49382
655.71191	0.49386
653.78334	0.49474
651.85478	0.49781
649.92621	0.50245
647.99765	0.50774
646.06908	0.51416
644.14052	0.52182
642.21195	0.52967
640.28339	0.53725
638.35483	0.54400
636.42626	0.54805
634.49770	0.54933
632.56913	0.54911
630.64057	0.54680
628.71200	0.54266
626.78344	0.53812
624.85488	0.53250
622.92631	0.52454
620.99775	0.51531
619.06918	0.50650
617.14062	0.49834
615.21205	0.49075
613.28349	0.48411
611.35492	0.47869
609.42636	0.47525
607.49780	0.47452
605.56923	0.47618
603.64067	0.48005
601.71210	0.48650
599.78354	0.49531
