3997.91406	0.62482
3995.98550	0.62599
3994.05693	0.62762
3992.12837	0.62658
3990.19980	0.62318
3988.27124	0.62049
3986.34268	0.61992
3984.41411	0.62013
3982.48555	0.61928
3980.55698	0.61785
3978.62842	0.61755
3976.69985	0.61888
3974.77129	0.62099
3972.84272	0.62231
3970.91416	0.62215
3968.98560	0.62063
3967.05703	0.61843
3965.12847	0.61636
3963.19990	0.61406
3961.27134	0.61159
3959.34277	0.61078
3957.41421	0.61218
3955.48564	0.61364
3953.55708	0.61458
3951.62852	0.61649
3949.69995	0.61824
3947.77139	0.61646
3945.84282	0.61293
3943.91426	0.61241
3941.98569	0.61358
3940.05713	0.61221
3938.12856	0.60972
3936.20000	0.60818
3934.27144	0.60752
3932.34287	0.60796
3930.41431	0.60885
3928.48574	0.60836
3926.55718	0.60736
3924.62861	0.60672
3922.70005	0.60524
3920.77148	0.60351
3918.84292	0.60245
3916.91436	0.60107
3914.98579	0.59852
3913.05723	0.59673
3911.12866	0.59702
3909.20010	0.59740
3907.27153	0.59775
3905.34297	0.60088
3903.41440	0.60459
3901.48584	0.60532
3899.55728	0.60521
3897.62871	0.60234
3895.70015	0.59664
3893.77158	0.59204
3891.84302	0.59134
3889.91445	0.59161
3887.98589	0.59041
3886.05733	0.59036
3884.12876	0.58982
3882.20020	0.58815
3880.27163	0.59020
3878.34307	0.59084
3876.41450	0.58745
3874.48594	0.58518
3872.55737	0.58529
3870.62881	0.58836
3868.70025	0.59342
3866.77168	0.59614
3864.84312	0.59851
3862.91455	0.59830
3860.98599	0.59323
3859.05742	0.58738
3857.12886	0.58242
3855.20029	0.58265
3853.27173	0.59535
3851.34317	0.59952
3849.41460	0.59352
3847.48604	0.58728
3845.55747	0.58287
3843.62891	0.58222
3841.70034	0.58416
3839.77178	0.58725
3837.84321	0.59147
3835.91465	0.59067
3833.98609	0.58620
3832.05752	0.58255
3830.12896	0.57911
3828.20039	0.57629
3826.27183	0.57605
3824.34326	0.57690
3822.41470	0.57899
3820.48613	0.58247
3818.55757	0.58308
3816.62901	0.58352
3814.70044	0.58198
3812.77188	0.57720
3810.84331	0.57282
3808.91475	0.57155
3806.98618	0.57438
3805.05762	0.57523
3803.12905	0.57367
3801.20049	0.57445
3799.27193	0.57420
3797.34336	0.57261
3795.41480	0.57070
3793.48623	0.56808
3791.55767	0.56667
3789.62910	0.56734
3787.70054	0.56946
3785.77197	0.57134
3783.84341	0.57018
3781.91485	0.56723
3779.98628	0.56660
3778.05772	0.56814
3776.12915	0.56883
3774.20059	0.56818
3772.27202	0.56721
3770.34346	0.56797
3768.41489	0.56867
3766.48633	0.56739
3764.55777	0.56624
3762.62920	0.56511
3760.70064	0.56448
3758.77207	0.56437
3756.84351	0.56220
3754.91494	0.56039
3752.98638	0.56354
3751.05781	0.57146
3749.12925	0.57286
3747.20069	0.57036
3745.27212	0.57180
3743.34356	0.57265
3741.41499	0.56824
3739.48643	0.56443
3737.55786	0.56561
3735.62930	0.56970
3733.70074	0.56919
3731.77217	0.56525
3729.84361	0.56109
3727.91504	0.55850
3725.98648	0.55818
3724.05791	0.55888
3722.12935	0.56046
3720.20078	0.56093
3718.27222	0.55728
3716.34366	0.55218
3714.41509	0.54995
3712.48653	0.55207
3710.55796	0.55562
3708.62940	0.55696
3706.70083	0.55649
3704.77227	0.55537
3702.84370	0.55595
3700.91514	0.55695
3698.98658	0.55552
3697.05801	0.55389
3695.12945	0.55323
3693.20088	0.55317
3691.27232	0.55615
3689.34375	0.56358
3687.41519	0.56496
3685.48662	0.56032
3683.55806	0.55662
3681.62950	0.55594
3679.70093	0.55763
3677.77237	0.56120
3675.84380	0.56959
3673.91524	0.57501
3671.98667	0.57488
3670.05811	0.57931
3668.12954	0.58282
3666.20098	0.57977
3664.27242	0.57661
3662.34385	0.57694
3660.41529	0.57959
3658.48672	0.58287
3656.55816	0.58883
3654.62959	0.59442
3652.70103	0.59665
3650.77246	0.60316
3648.84390	0.61847
3646.91534	0.62142
3644.98677	0.61618
3643.05821	0.61465
3641.12964	0.61813
3639.20108	0.62279
3637.27251	0.62686
3635.34395	0.63185
3633.41538	0.63713
3631.48682	0.64238
3629.55826	0.65358
3627.62969	0.66396
3625.70113	0.66332
3623.77256	0.66162
3621.84400	0.66354
3619.91543	0.67061
3617.98687	0.67819
3616.05830	0.68211
3614.12974	0.68789
3612.20118	0.69582
3610.27261	0.70339
3608.34405	0.71283
3606.41548	0.71959
3604.48692	0.72002
3602.55835	0.72079
3600.62979	0.72683
3598.70123	0.73479
3596.77266	0.74111
3594.84410	0.74828
3592.91553	0.75544
3590.98697	0.75951
3589.05840	0.76538
3587.12984	0.77702
3585.20127	0.78482
3583.27271	0.78747
3581.34415	0.79111
3579.41558	0.79727
3577.48702	0.80444
3575.55845	0.81152
3573.62989	0.81766
3571.70132	0.82292
3569.77276	0.82899
3567.84419	0.83936
3565.91563	0.85280
3563.98707	0.86132
3562.05850	0.86630
3560.12994	0.86996
3558.20137	0.87442
3556.27281	0.88137
3554.34424	0.88974
3552.41568	0.89890
3550.48711	0.90628
3548.55855	0.91152
3546.62999	0.91920
3544.70142	0.93041
3542.77286	0.94114
3540.84429	0.94981
3538.91573	0.95713
3536.98716	0.96341
3535.05860	0.96948
3533.13003	0.97697
3531.20147	0.98478
3529.27291	0.99029
3527.34434	0.99578
3525.41578	1.00656
3523.48721	1.02223
3521.55865	1.03683
3519.63008	1.04674
3517.70152	1.05362
3515.77295	1.05997
3513.84439	1.06848
3511.91583	1.07934
3509.98726	1.08922
3508.05870	1.09756
3506.13013	1.10543
3504.20157	1.11476
3502.27300	1.12793
3500.34444	1.14090
3498.41587	1.15125
3496.48731	1.16075
3494.55875	1.16894
3492.63018	1.17804
3490.70162	1.19174
3488.77305	1.20821
3486.84449	1.22345
3484.91592	1.23332
3482.98736	1.23694
3481.05879	1.23954
3479.13023	1.24502
3477.20167	1.25286
3475.27310	1.25895
3473.34454	1.26209
3471.41597	1.26900
3469.48741	1.28160
3467.55884	1.29451
3465.63028	1.30517
3463.70171	1.31149
3461.77315	1.30970
3459.84459	1.30689
3457.91602	1.31296
3455.98746	1.32142
3454.05889	1.32138
3452.13033	1.31764
3450.20176	1.32123
3448.27320	1.33266
3446.34464	1.34388
3444.41607	1.35096
3442.48751	1.35488
3440.55894	1.35726
3438.63038	1.36184
3436.70181	1.36778
3434.77325	1.37189
3432.84468	1.37607
3430.91612	1.38033
3428.98756	1.38102
3427.05899	1.37696
3425.13043	1.37287
3423.20186	1.37556
3421.27330	1.38120
3419.34473	1.38076
3417.41617	1.37816
3415.48760	1.38129
3413.55904	1.38942
3411.63048	1.39562
3409.70191	1.39669
3407.77335	1.39899
3405.84478	1.40528
3403.91622	1.40856
3401.98765	1.40651
3400.05909	1.40469
3398.13052	1.40708
3396.20196	1.41281
3394.27340	1.41847
3392.34483	1.42155
3390.41627	1.42235
3388.48770	1.42541
3386.55914	1.43172
3384.63057	1.43635
3382.70201	1.44196
3380.77344	1.44845
3378.84488	1.44507
3376.91632	1.43761
3374.98775	1.44107
3373.05919	1.45148
3371.13062	1.45762
3369.20206	1.45974
3367.27349	1.46434
3365.34493	1.47303
3363.41636	1.48275
3361.48780	1.49117
3359.55924	1.49683
3357.63067	1.49816
3355.70211	1.49602
3353.77354	1.49620
3351.84498	1.50348
3349.91641	1.51595
3347.98785	1.52814
3346.05928	1.53538
3344.13072	1.53683
3342.20216	1.53701
3340.27359	1.54150
3338.34503	1.54536
3336.41646	1.54008
3334.48790	1.53682
3332.55933	1.54626
3330.63077	1.55420
3328.70220	1.55209
3326.77364	1.55255
3324.84508	1.55843
3322.91651	1.56105
3320.98795	1.56336
3319.05938	1.57563
3317.13082	1.59625
3315.20225	1.61097
3313.27369	1.61097
3311.34513	1.60191
3309.41656	1.59639
3307.48800	1.60530
3305.55943	1.62551
3303.63087	1.63775
3301.70230	1.63279
3299.77374	1.62442
3297.84517	1.62543
3295.91661	1.63746
3293.98805	1.65116
3292.05948	1.65075
3290.13092	1.63923
3288.20235	1.63039
3286.27379	1.62424
3284.34522	1.62050
3282.41666	1.62026
3280.48809	1.62279
3278.55953	1.62801
3276.63097	1.62293
3274.70240	1.60738
3272.77384	1.60241
3270.84527	1.60691
3268.91671	1.60730
3266.98814	1.60153
3265.05958	1.59058
3263.13101	1.58084
3261.20245	1.58015
3259.27389	1.58162
3257.34532	1.57168
3255.41676	1.55156
3253.48819	1.53413
3251.55963	1.52496
3249.63106	1.51755
3247.70250	1.50533
3245.77393	1.49145
3243.84537	1.48147
3241.91681	1.47372
3239.98824	1.46537
3238.05968	1.45983
3236.13111	1.45990
3234.20255	1.46099
3232.27398	1.45898
3230.34542	1.45570
3228.41685	1.44947
3226.48829	1.43837
3224.55973	1.42796
3222.63116	1.42274
3220.70260	1.42040
3218.77403	1.41393
3216.84547	1.40281
3214.91690	1.39298
3212.98834	1.38429
3211.05977	1.37649
3209.13121	1.37380
3207.20265	1.37243
3205.27408	1.36390
3203.34552	1.35412
3201.41695	1.35104
3199.48839	1.34792
3197.55982	1.34188
3195.63126	1.33758
3193.70269	1.33325
3191.77413	1.32481
3189.84557	1.31372
3187.91700	1.30572
3185.98844	1.30185
3184.05987	1.29852
3182.13131	1.29686
3180.20274	1.29742
3178.27418	1.29286
3176.34562	1.27951
3174.41705	1.26585
3172.48849	1.26079
3170.55992	1.26315
3168.63136	1.26321
3166.70279	1.25425
3164.77423	1.24114
3162.84566	1.23181
3160.91710	1.22629
3158.98854	1.22247
3157.05997	1.22069
3155.13141	1.21762
3153.20284	1.21117
3151.27428	1.20511
3149.34571	1.20065
3147.41715	1.19567
3145.48858	1.19069
3143.56002	1.18756
3141.63146	1.18624
3139.70289	1.18577
3137.77433	1.18469
3135.84576	1.18228
3133.91720	1.17937
3131.98863	1.17733
3130.06007	1.17714
3128.13150	1.17675
3126.20294	1.17433
3124.27438	1.17129
3122.34581	1.16808
3120.41725	1.16557
3118.48868	1.16560
3116.56012	1.16618
3114.63155	1.16645
3112.70299	1.16903
3110.77442	1.17220
3108.84586	1.17311
3106.91730	1.17284
3104.98873	1.17164
3103.06017	1.16796
3101.13160	1.16364
3099.20304	1.16358
3097.27447	1.16657
3095.34591	1.16739
3093.41734	1.16512
3091.48878	1.16034
3089.56022	1.15490
3087.63165	1.15208
3085.70309	1.15176
3083.77452	1.15218
3081.84596	1.15252
3079.91739	1.15178
3077.98883	1.15008
3076.06026	1.14763
3074.13170	1.14276
3072.20314	1.13673
3070.27457	1.13174
3068.34601	1.12775
3066.41744	1.12529
3064.48888	1.12275
3062.56031	1.11873
3060.63175	1.11466
3058.70318	1.11017
3056.77462	1.10505
3054.84606	1.10022
3052.91749	1.09554
3050.98893	1.09038
3049.06036	1.08420
3047.13180	1.07677
3045.20323	1.06869
3043.27467	1.06049
3041.34610	1.05278
3039.41754	1.04780
3037.48898	1.04575
3035.56041	1.04315
3033.63185	1.03830
3031.70328	1.03310
3029.77472	1.02880
3027.84615	1.02455
3025.91759	1.02035
3023.98903	1.01654
3022.06046	1.01251
3020.13190	1.00811
3018.20333	1.00337
3016.27477	0.99879
3014.34620	0.99562
3012.41764	0.99384
3010.48907	0.99212
3008.56051	0.98951
3006.63195	0.98670
3004.70338	0.98564
3002.77482	0.98617
3000.84625	0.98567
2998.91769	0.98403
2996.98912	0.98348
2995.06056	0.98441
2993.13199	0.98677
2991.20343	0.99154
2989.27487	0.99921
2987.34630	1.00867
2985.41774	1.01734
2983.48917	1.02460
2981.56061	1.03296
2979.63204	1.04363
2977.70348	1.05522
2975.77491	1.06642
2973.84635	1.07662
2971.91779	1.08627
2969.98922	1.09758
2968.06066	1.11195
2966.13209	1.12624
2964.20353	1.13485
2962.27496	1.13702
2960.34640	1.13686
2958.41783	1.13598
2956.48927	1.13205
2954.56071	1.12363
2952.63214	1.11371
2950.70358	1.10776
2948.77501	1.10656
2946.84645	1.10753
2944.91788	1.11100
2942.98932	1.11700
2941.06075	1.12578
2939.13219	1.13942
2937.20363	1.15503
2935.27506	1.16833
2933.34650	1.17918
2931.41793	1.18669
2929.48937	1.19084
2927.56080	1.19448
2925.63224	1.19897
2923.70367	1.20280
2921.77511	1.20257
2919.84655	1.19605
2917.91798	1.18378
2915.98942	1.16590
2914.06085	1.14330
2912.13229	1.11925
2910.20372	1.09645
2908.27516	1.07743
2906.34659	1.06354
2904.41803	1.05263
2902.48947	1.04325
2900.56090	1.03652
2898.63234	1.03212
2896.70377	1.02848
2894.77521	1.02490
2892.84664	1.02026
2890.91808	1.01407
2888.98952	1.00873
2887.06095	1.00613
2885.13239	1.00575
2883.20382	1.00658
2881.27526	1.00751
2879.34669	1.00808
2877.41813	1.00906
2875.48956	1.00981
2873.56100	1.00841
2871.63244	1.00413
2869.70387	0.99706
2867.77531	0.98817
2865.84674	0.98026
2863.91818	0.97546
2861.98961	0.97389
2860.06105	0.97485
2858.13248	0.97712
2856.20392	0.97992
2854.27536	0.98360
2852.34679	0.98618
2850.41823	0.98088
2848.48966	0.96274
2846.56110	0.93625
2844.63253	0.90998
2842.70397	0.88843
2840.77540	0.87220
2838.84684	0.86064
2836.91828	0.85240
2834.98971	0.84551
2833.06115	0.83911
2831.13258	0.83342
2829.20402	0.82823
2827.27545	0.82384
2825.34689	0.81991
2823.41832	0.81470
2821.48976	0.80894
2819.56120	0.80471
2817.63263	0.80133
2815.70407	0.79796
2813.77550	0.79507
2811.84694	0.79170
2809.91837	0.78686
2807.98981	0.78160
2806.06124	0.77722
2804.13268	0.77375
2802.20412	0.77038
2800.27555	0.76714
2798.34699	0.76434
2796.41842	0.76137
2794.48986	0.75821
2792.56129	0.75562
2790.63273	0.75315
2788.70416	0.74943
2786.77560	0.74489
2784.84704	0.74175
2782.91847	0.73995
2780.98991	0.73742
2779.06134	0.73395
2777.13278	0.73060
2775.20421	0.72774
2773.27565	0.72545
2771.34708	0.72344
2769.41852	0.72096
2767.48996	0.71774
2765.56139	0.71474
2763.63283	0.71280
2761.70426	0.71092
2759.77570	0.70834
2757.84713	0.70590
2755.91857	0.70410
2753.99001	0.70231
2752.06144	0.69991
2750.13288	0.69784
2748.20431	0.69716
2746.27575	0.69642
2744.34718	0.69400
2742.41862	0.69095
2740.49005	0.68876
2738.56149	0.68706
2736.63293	0.68491
2734.70436	0.68265
2732.77580	0.68128
2730.84723	0.68033
2728.91867	0.67854
2726.99010	0.67621
2725.06154	0.67414
2723.13297	0.67211
2721.20441	0.66981
2719.27585	0.66744
2717.34728	0.66524
2715.41872	0.66340
2713.49015	0.66177
2711.56159	0.65993
2709.63302	0.65808
2707.70446	0.65652
2705.77589	0.65499
2703.84733	0.65358
2701.91877	0.65260
2699.99020	0.65184
2698.06164	0.65068
2696.13307	0.64864
2694.20451	0.64618
2692.27594	0.64435
2690.34738	0.64335
2688.41881	0.64229
2686.49025	0.64060
2684.56169	0.63878
2682.63312	0.63740
2680.70456	0.63603
2678.77599	0.63468
2676.84743	0.63375
2674.91886	0.63258
2672.99030	0.63084
2671.06173	0.62916
2669.13317	0.62771
2667.20461	0.62635
2665.27604	0.62482
2663.34748	0.62292
2661.41891	0.62113
2659.49035	0.61993
2657.56178	0.61881
2655.63322	0.61742
2653.70465	0.61596
2651.77609	0.61409
2649.84753	0.61211
2647.91896	0.61082
2645.99040	0.60964
2644.06183	0.60801
2642.13327	0.60648
2640.20470	0.60525
2638.27614	0.60403
2636.34757	0.60321
2634.41901	0.60305
2632.49045	0.60267
2630.56188	0.60153
2628.63332	0.60021
2626.70475	0.59944
2624.77619	0.59895
2622.84762	0.59785
2620.91906	0.59646
2618.99049	0.59539
2617.06193	0.59428
2615.13337	0.59296
2613.20480	0.59156
2611.27624	0.59012
2609.34767	0.58869
2607.41911	0.58721
2605.49054	0.58556
2603.56198	0.58389
2601.63342	0.58216
2599.70485	0.58034
2597.77629	0.57880
2595.84772	0.57779
2593.91916	0.57713
2591.99059	0.57645
2590.06203	0.57545
2588.13346	0.57404
2586.20490	0.57247
2584.27634	0.57126
2582.34777	0.57049
2580.41921	0.56979
2578.49064	0.56882
2576.56208	0.56732
2574.63351	0.56551
2572.70495	0.56402
2570.77638	0.56298
2568.84782	0.56171
2566.91926	0.55999
2564.99069	0.55832
2563.06213	0.55681
2561.13356	0.55543
2559.20500	0.55403
2557.27643	0.55256
2555.34787	0.55145
2553.41930	0.55063
2551.49074	0.54958
2549.56218	0.54818
2547.63361	0.54650
2545.70505	0.54472
2543.77648	0.54328
2541.84792	0.54231
2539.91935	0.54147
2537.99079	0.54059
2536.06222	0.53946
2534.13366	0.53789
2532.20510	0.53675
2530.27653	0.53642
2528.34797	0.53575
2526.41940	0.53440
2524.49084	0.53331
2522.56227	0.53246
2520.63371	0.53145
2518.70514	0.53024
2516.77658	0.52870
2514.84802	0.52718
2512.91945	0.52625
2510.99089	0.52587
2509.06232	0.52558
2507.13376	0.52492
2505.20519	0.52352
2503.27663	0.52166
2501.34806	0.51993
2499.41950	0.51846
2497.49094	0.51722
2495.56237	0.51609
2493.63381	0.51459
2491.70524	0.51270
2489.77668	0.51088
2487.84811	0.50936
2485.91955	0.50813
2483.99098	0.50691
2482.06242	0.50535
2480.13386	0.50343
2478.20529	0.50148
2476.27673	0.49988
2474.34816	0.49840
2472.41960	0.49679
2470.49103	0.49536
2468.56247	0.49428
2466.63391	0.49340
2464.70534	0.49225
2462.77678	0.49070
2460.84821	0.48950
2458.91965	0.48872
2456.99108	0.48751
2455.06252	0.48575
2453.13395	0.48379
2451.20539	0.48191
2449.27683	0.48040
2447.34826	0.47930
2445.41970	0.47830
2443.49113	0.47719
2441.56257	0.47620
2439.63400	0.47541
2437.70544	0.47438
2435.77687	0.47311
2433.84831	0.47215
2431.91975	0.47147
2429.99118	0.47056
2428.06262	0.46946
2426.13405	0.46869
2424.20549	0.46805
2422.27692	0.46707
2420.34836	0.46586
2418.41979	0.46463
2416.49123	0.46337
2414.56267	0.46210
2412.63410	0.46101
2410.70554	0.46016
2408.77697	0.45912
2406.84841	0.45774
2404.91984	0.45654
2402.99128	0.45566
2401.06271	0.45440
2399.13415	0.45263
2397.20559	0.45101
2395.27702	0.44977
2393.34846	0.44876
2391.41989	0.44786
2389.49133	0.44704
2387.56276	0.44619
2385.63420	0.44512
2383.70563	0.44408
2381.77707	0.44357
2379.84851	0.44378
2377.91994	0.44481
2375.99138	0.44656
2374.06281	0.44808
2372.13425	0.44880
2370.20568	0.44948
2368.27712	0.45051
2366.34855	0.45130
2364.41999	0.45210
2362.49143	0.45366
2360.56286	0.45520
2358.63430	0.45607
2356.70573	0.45652
2354.77717	0.45598
2352.84860	0.45321
2350.92004	0.44819
2348.99147	0.44358
2347.06291	0.44190
2345.13435	0.44298
2343.20578	0.44322
2341.27722	0.44287
2339.34865	0.44424
2337.42009	0.44436
2335.49152	0.44217
2333.56296	0.44018
2331.63440	0.43883
2329.70583	0.43765
2327.77727	0.43713
2325.84870	0.43706
2323.92014	0.43636
2321.99157	0.43442
2320.06301	0.43214
2318.13444	0.43060
2316.20588	0.42903
2314.27732	0.42672
2312.34875	0.42447
2310.42019	0.42267
2308.49162	0.42100
2306.56306	0.41932
2304.63449	0.41738
2302.70593	0.41552
2300.77736	0.41432
2298.84880	0.41374
2296.92024	0.41356
2294.99167	0.41338
2293.06311	0.41273
2291.13454	0.41179
2289.20598	0.41123
2287.27741	0.41121
2285.34885	0.41102
2283.42028	0.41028
2281.49172	0.40954
2279.56316	0.40931
2277.63459	0.40945
2275.70603	0.40930
2273.77746	0.40838
2271.84890	0.40716
2269.92033	0.40624
2267.99177	0.40549
2266.06320	0.40465
2264.13464	0.40378
2262.20608	0.40283
2260.27751	0.40165
2258.34895	0.40026
2256.42038	0.39890
2254.49182	0.39790
2252.56325	0.39727
2250.63469	0.39669
2248.70612	0.39610
2246.77756	0.39567
2244.84900	0.39530
2242.92043	0.39478
2240.99187	0.39420
2239.06330	0.39350
2237.13474	0.39259
2235.20617	0.39175
2233.27761	0.39112
2231.34904	0.39029
2229.42048	0.38906
2227.49192	0.38804
2225.56335	0.38755
2223.63479	0.38705
2221.70622	0.38634
2219.77766	0.38567
2217.84909	0.38503
2215.92053	0.38437
2213.99196	0.38407
2212.06340	0.38421
2210.13484	0.38430
2208.20627	0.38425
2206.27771	0.38437
2204.34914	0.38461
2202.42058	0.38480
2200.49201	0.38505
2198.56345	0.38527
2196.63488	0.38511
2194.70632	0.38444
2192.77776	0.38348
2190.84919	0.38242
2188.92063	0.38122
2186.99206	0.37977
2185.06350	0.37841
2183.13493	0.37740
2181.20637	0.37649
2179.27781	0.37563
2177.34924	0.37487
2175.42068	0.37385
2173.49211	0.37260
2171.56355	0.37159
2169.63498	0.37082
2167.70642	0.37002
2165.77785	0.36930
2163.84929	0.36880
2161.92073	0.36828
2159.99216	0.36771
2158.06360	0.36736
2156.13503	0.36700
2154.20647	0.36620
2152.27790	0.36512
2150.34934	0.36412
2148.42077	0.36346
2146.49221	0.36308
2144.56365	0.36266
2142.63508	0.36196
2140.70652	0.36119
2138.77795	0.36081
2136.84939	0.36077
2134.92082	0.36051
2132.99226	0.36006
2131.06369	0.35977
2129.13513	0.35946
2127.20657	0.35894
2125.27800	0.35836
2123.34944	0.35775
2121.42087	0.35712
2119.49231	0.35671
2117.56374	0.35656
2115.63518	0.35637
2113.70661	0.35592
2111.77805	0.35525
2109.84949	0.35430
2107.92092	0.35305
2105.99236	0.35170
2104.06379	0.35053
2102.13523	0.34954
2100.20666	0.34850
2098.27810	0.34733
2096.34953	0.34620
2094.42097	0.34499
2092.49241	0.34366
2090.56384	0.34257
2088.63528	0.34169
2086.70671	0.34065
2084.77815	0.33953
2082.84958	0.33863
2080.92102	0.33793
2078.99245	0.33728
2077.06389	0.33672
2075.13533	0.33629
2073.20676	0.33574
2071.27820	0.33499
2069.34963	0.33418
2067.42107	0.33348
2065.49250	0.33284
2063.56394	0.33198
2061.63537	0.33095
2059.70681	0.33018
2057.77825	0.32973
2055.84968	0.32925
2053.92112	0.32863
2051.99255	0.32804
2050.06399	0.32765
2048.13542	0.32723
2046.20686	0.32674
2044.27830	0.32635
2042.34973	0.32601
2040.42117	0.32570
2038.49260	0.32551
2036.56404	0.32538
2034.63547	0.32503
2032.70691	0.32426
2030.77834	0.32321
2028.84978	0.32217
2026.92122	0.32119
2024.99265	0.32008
2023.06409	0.31876
2021.13552	0.31729
2019.20696	0.31595
2017.27839	0.31491
2015.34983	0.31381
2013.42126	0.31237
2011.49270	0.31075
2009.56414	0.30918
2007.63557	0.30798
2005.70701	0.30718
2003.77844	0.30648
2001.84988	0.30563
1999.92131	0.30467
1997.99275	0.30370
1996.06418	0.30268
1994.13562	0.30201
1992.20706	0.30194
1990.27849	0.30178
1988.34993	0.30126
1986.42136	0.30070
1984.49280	0.29995
1982.56423	0.29898
1980.63567	0.29796
1978.70710	0.29704
1976.77854	0.29622
1974.84998	0.29537
1972.92141	0.29454
1970.99285	0.29399
1969.06428	0.29388
1967.13572	0.29390
1965.20715	0.29350
1963.27859	0.29295
1961.35002	0.29263
1959.42146	0.29227
1957.49290	0.29188
1955.56433	0.29157
1953.63577	0.29092
1951.70720	0.28997
1949.77864	0.28910
1947.85007	0.28824
1945.92151	0.28726
1943.99294	0.28648
1942.06438	0.28566
1940.13582	0.28406
1938.20725	0.28225
1936.27869	0.28097
1934.35012	0.27996
1932.42156	0.27879
1930.49299	0.27753
1928.56443	0.27638
1926.63586	0.27532
1924.70730	0.27450
1922.77874	0.27397
1920.85017	0.27328
1918.92161	0.27270
1916.99304	0.27232
1915.06448	0.27133
1913.13591	0.27010
1911.20735	0.26956
1909.27878	0.26954
1907.35022	0.26909
1905.42166	0.26804
1903.49309	0.26698
1901.56453	0.26633
1899.63596	0.26605
1897.70740	0.26584
1895.77883	0.26566
1893.85027	0.26525
1891.92171	0.26462
1889.99314	0.26440
1888.06458	0.26417
1886.13601	0.26350
1884.20745	0.26304
1882.27888	0.26289
1880.35032	0.26268
1878.42175	0.26220
1876.49319	0.26153
1874.56463	0.26076
1872.63606	0.25998
1870.70750	0.25986
1868.77893	0.26079
1866.85037	0.26074
1864.92180	0.25896
1862.99324	0.25704
1861.06467	0.25565
1859.13611	0.25453
1857.20755	0.25341
1855.27898	0.25242
1853.35042	0.25147
1851.42185	0.25022
1849.49329	0.24898
1847.56472	0.24822
1845.63616	0.24835
1843.70759	0.24894
1841.77903	0.24810
1839.85047	0.24643
1837.92190	0.24540
1835.99334	0.24504
1834.06477	0.24467
1832.13621	0.24484
1830.20764	0.24619
1828.27908	0.24689
1826.35051	0.24643
1824.42195	0.24659
1822.49339	0.24680
1820.56482	0.24639
1818.63626	0.24620
1816.70769	0.24646
1814.77913	0.24675
1812.85056	0.24717
1810.92200	0.24789
1808.99343	0.24811
1807.06487	0.24764
1805.13631	0.24729
1803.20774	0.24762
1801.27918	0.24876
1799.35061	0.24958
1797.42205	0.24930
1795.49348	0.24900
1793.56492	0.25026
1791.63635	0.25283
1789.70779	0.25331
1787.77923	0.25232
1785.85066	0.25189
1783.92210	0.25230
1781.99353	0.25324
1780.06497	0.25435
1778.13640	0.25480
1776.20784	0.25462
1774.27927	0.25532
1772.35071	0.25802
1770.42215	0.26007
1768.49358	0.26049
1766.56502	0.26084
1764.63645	0.26169
1762.70789	0.26444
1760.77932	0.26868
1758.85076	0.27228
1756.92220	0.27705
1754.99363	0.28260
1753.06507	0.28813
1751.13650	0.29715
1749.20794	0.30974
1747.27937	0.31974
1745.35081	0.32684
1743.42224	0.33329
1741.49368	0.34006
1739.56512	0.34697
1737.63655	0.35145
1735.70799	0.35504
1733.77942	0.36292
1731.85086	0.36973
1729.92229	0.37301
1727.99373	0.37650
1726.06516	0.38092
1724.13660	0.38755
1722.20804	0.39500
1720.27947	0.40217
1718.35091	0.41495
1716.42234	0.43728
1714.49378	0.45473
1712.56521	0.46795
1710.63665	0.48374
1708.70808	0.50384
1706.77952	0.53394
1704.85096	0.57437
1702.92239	0.61081
1700.99383	0.66081
1699.06526	0.74454
1697.13670	0.82534
1695.20813	0.90304
1693.27957	0.96228
1691.35100	1.00942
1689.42244	1.06676
1687.49388	1.12013
1685.56531	1.17108
1683.63675	1.24969
1681.70818	1.30955
1679.77962	1.34097
1677.85105	1.36799
1675.92249	1.39827
1673.99392	1.42652
1672.06536	1.44408
1670.13680	1.45718
1668.20823	1.47240
1666.27967	1.47838
1664.35110	1.47892
1662.42254	1.47921
1660.49397	1.47334
1658.56541	1.46322
1656.63684	1.45350
1654.70828	1.44652
1652.77972	1.43674
1650.85115	1.43089
1648.92259	1.42940
1646.99402	1.42277
1645.06546	1.41125
1643.13689	1.40134
1641.20833	1.39550
1639.27976	1.39313
1637.35120	1.39037
1635.42264	1.37768
1633.49407	1.36265
1631.56551	1.35215
1629.63694	1.33793
1627.70838	1.31892
1625.77981	1.30102
1623.85125	1.28383
1621.92269	1.26166
1619.99412	1.23764
1618.06556	1.20941
1616.13699	1.17156
1614.20843	1.13884
1612.27986	1.11142
1610.35130	1.08318
1608.42273	1.05445
1606.49417	1.02904
1604.56561	1.00990
1602.63704	0.99657
1600.70848	0.98799
1598.77991	0.98261
1596.85135	0.97992
1594.92278	0.98015
1592.99422	0.98279
1591.06565	0.98780
1589.13709	0.99546
1587.20853	1.00636
1585.27996	1.02074
1583.35140	1.03756
1581.42283	1.05487
1579.49427	1.07199
1577.56570	1.09412
1575.63714	1.12346
1573.70857	1.14290
1571.78001	1.15754
1569.85145	1.18060
1567.92288	1.20316
1565.99432	1.21669
1564.06575	1.22901
1562.13719	1.23921
1560.20862	1.25382
1558.28006	1.28937
1556.35149	1.30335
1554.42293	1.30246
1552.49437	1.30080
1550.56580	1.29772
1548.63724	1.29275
1546.70867	1.28806
1544.78011	1.28238
1542.85154	1.27449
1540.92298	1.26163
1538.99441	1.24022
1537.06585	1.22866
1535.13729	1.22168
1533.20872	1.21069
1531.28016	1.19606
1529.35159	1.18420
1527.42303	1.17441
1525.49446	1.16465
1523.56590	1.15652
1521.63733	1.15126
1519.70877	1.14705
1517.78021	1.13732
1515.85164	1.11992
1513.92308	1.09955
1511.99451	1.07855
1510.06595	1.05814
1508.13738	1.02873
1506.20882	0.97782
1504.28025	0.94809
1502.35169	0.92935
1500.42313	0.90879
1498.49456	0.88347
1496.56600	0.85383
1494.63743	0.82970
1492.70887	0.81278
1490.78030	0.79567
1488.85174	0.77573
1486.92317	0.76045
1484.99461	0.75110
1483.06605	0.74612
1481.13748	0.74509
1479.20892	0.74784
1477.28035	0.75540
1475.35179	0.76931
1473.42322	0.79274
1471.49466	0.81856
1469.56610	0.83201
1467.63753	0.84026
1465.70897	0.85162
1463.78040	0.86413
1461.85184	0.87163
1459.92327	0.87805
1457.99471	0.89186
1456.06614	0.90653
1454.13758	0.90774
1452.20902	0.90531
1450.28045	0.90368
1448.35189	0.90260
1446.42332	0.89944
1444.49476	0.89427
1442.56619	0.88922
1440.63763	0.88472
1438.70906	0.87943
1436.78050	0.87142
1434.85194	0.86164
1432.92337	0.85292
1430.99481	0.84487
1429.06624	0.83805
1427.13768	0.83455
1425.20911	0.83528
1423.28055	0.83952
1421.35198	0.84473
1419.42342	0.85100
1417.49486	0.85540
1415.56629	0.85511
1413.63773	0.85466
1411.70916	0.85605
1409.78060	0.85846
1407.85203	0.86116
1405.92347	0.86514
1403.99490	0.86973
1402.06634	0.87257
1400.13778	0.87465
1398.20921	0.87675
1396.28065	0.87812
1394.35208	0.87818
1392.42352	0.87701
1390.49495	0.87689
1388.56639	0.88133
1386.63782	0.89129
1384.70926	0.90144
1382.78070	0.90954
1380.85213	0.91522
1378.92357	0.91568
1376.99500	0.90990
1375.06644	0.89802
1373.13787	0.88147
1371.20931	0.86468
1369.28074	0.84693
1367.35218	0.82713
1365.42362	0.80851
1363.49505	0.79190
1361.56649	0.77797
1359.63792	0.76822
1357.70936	0.76149
1355.78079	0.75691
1353.85223	0.75413
1351.92366	0.75261
1349.99510	0.75200
1348.06654	0.75190
1346.13797	0.75211
1344.20941	0.75272
1342.28084	0.75356
1340.35228	0.75534
1338.42371	0.75857
1336.49515	0.76265
1334.56659	0.76843
1332.63802	0.77677
1330.70946	0.78661
1328.78089	0.79561
1326.85233	0.80256
1324.92376	0.80809
1322.99520	0.81308
1321.06663	0.81811
1319.13807	0.82331
1317.20951	0.82768
1315.28094	0.83081
1313.35238	0.83353
1311.42381	0.83556
1309.49525	0.83639
1307.56668	0.83632
1305.63812	0.83548
1303.70955	0.83384
1301.78099	0.83112
1299.85243	0.82705
1297.92386	0.82141
1295.99530	0.81460
1294.06673	0.80826
1292.13817	0.80381
1290.20960	0.80164
1288.28104	0.80100
1286.35247	0.80059
1284.42391	0.80035
1282.49535	0.80110
1280.56678	0.80275
1278.63822	0.80492
1276.70965	0.80790
1274.78109	0.81204
1272.85252	0.81736
1270.92396	0.82385
1268.99539	0.83114
1267.06683	0.83793
1265.13827	0.84286
1263.20970	0.84567
1261.28114	0.84684
1259.35257	0.84716
1257.42401	0.84743
1255.49544	0.84812
1253.56688	0.84897
1251.63831	0.84959
1249.70975	0.85057
1247.78119	0.85206
1245.85262	0.85323
1243.92406	0.85360
1241.99549	0.85293
1240.06693	0.85144
1238.13836	0.84982
1236.20980	0.84769
1234.28123	0.84410
1232.35267	0.83909
1230.42411	0.83323
1228.49554	0.82639
1226.56698	0.81807
1224.63841	0.80858
1222.70985	0.79861
1220.78128	0.78859
1218.85272	0.77929
1216.92415	0.77159
1214.99559	0.76634
1213.06703	0.76390
1211.13846	0.76336
1209.20990	0.76370
1207.28133	0.76424
1205.35277	0.76324
1203.42420	0.75881
1201.49564	0.75099
1199.56708	0.74133
1197.63851	0.73121
1195.70995	0.72175
1193.78138	0.71401
1191.85282	0.70816
1189.92425	0.70387
1187.99569	0.70095
1186.06712	0.69926
1184.13856	0.69901
1182.21000	0.70112
1180.28143	0.70689
1178.35287	0.71658
1176.42430	0.72885
1174.49574	0.74261
1172.56717	0.75792
1170.63861	0.77530
1168.71004	0.79561
1166.78148	0.81903
1164.85292	0.84368
1162.92435	0.86567
1160.99579	0.88171
1159.06722	0.89062
1157.13866	0.89227
1155.21009	0.88725
1153.28153	0.87744
1151.35296	0.86440
1149.42440	0.84944
1147.49584	0.83541
1145.56727	0.82451
1143.63871	0.81708
1141.71014	0.81408
1139.78158	0.81635
1137.85301	0.82295
1135.92445	0.83283
1133.99588	0.84635
1132.06732	0.86441
1130.13876	0.88664
1128.21019	0.91064
1126.28163	0.93408
1124.35306	0.95694
1122.42450	0.97888
1120.49593	0.99746
1118.56737	1.01123
1116.63880	1.02036
1114.71024	1.02443
1112.78168	1.02357
1110.85311	1.01957
1108.92455	1.01469
1106.99598	1.01089
1105.06742	1.00845
1103.13885	1.00561
1101.21029	1.00231
1099.28172	1.00163
1097.35316	1.00567
1095.42460	1.01490
1093.49603	1.02942
1091.56747	1.04793
1089.63890	1.06941
1087.71034	1.09398
1085.78177	1.12090
1083.85321	1.14683
1081.92464	1.16595
1079.99608	1.17496
1078.06752	1.17547
1076.13895	1.16967
1074.21039	1.15922
1072.28182	1.14537
1070.35326	1.12896
1068.42469	1.11246
1066.49613	1.09760
1064.56756	1.08382
1062.63900	1.07198
1060.71044	1.06285
1058.78187	1.05508
1056.85331	1.04755
1054.92474	1.04013
1052.99618	1.03371
1051.06761	1.02983
1049.13905	1.02902
1047.21049	1.03129
1045.28192	1.03696
1043.35336	1.04478
1041.42479	1.05263
1039.49623	1.06072
1037.56766	1.06958
1035.63910	1.07667
1033.71053	1.07886
1031.78197	1.07524
1029.85341	1.06703
1027.92484	1.05528
1025.99628	1.03947
1024.06771	1.02100
1022.13915	1.00392
1020.21058	0.98966
1018.28202	0.97646
1016.35345	0.96269
1014.42489	0.94733
1012.49633	0.92916
1010.56776	0.90671
1008.63920	0.88018
1006.71063	0.85277
1004.78207	0.82709
1002.85350	0.80404
1000.92494	0.78486
998.99637	0.77019
997.06781	0.75946
995.13925	0.75179
993.21068	0.74465
991.28212	0.73478
989.35355	0.72192
987.42499	0.70795
985.49642	0.69385
983.56786	0.68049
981.63929	0.66935
979.71073	0.66052
977.78217	0.65271
975.85360	0.64524
973.92504	0.63756
971.99647	0.62867
970.06791	0.61847
968.13934	0.60803
966.21078	0.59862
964.28221	0.59163
962.35365	0.58916
960.42509	0.59309
958.49652	0.60297
956.56796	0.61450
954.63939	0.62141
952.71083	0.62040
950.78226	0.61312
948.85370	0.60313
946.92513	0.59321
944.99657	0.58465
943.06801	0.57775
941.13944	0.57254
939.21088	0.56880
937.28231	0.56607
935.35375	0.56417
933.42518	0.56299
931.49662	0.56244
929.56805	0.56268
927.63949	0.56381
925.71093	0.56598
923.78236	0.56929
921.85380	0.57315
919.92523	0.57658
917.99667	0.57880
916.06810	0.57996
914.13954	0.58101
912.21098	0.58280
910.28241	0.58598
908.35385	0.59050
906.42528	0.59558
904.49672	0.60084
902.56815	0.60602
900.63959	0.60999
898.71102	0.61163
896.78246	0.61095
894.85390	0.60816
892.92533	0.60349
890.99677	0.59806
889.06820	0.59248
887.13964	0.58675
885.21107	0.58145
883.28251	0.57692
881.35394	0.57317
879.42538	0.57038
877.49682	0.56851
875.56825	0.56754
873.63969	0.56700
871.71112	0.56644
869.78256	0.56642
867.85399	0.56734
865.92543	0.56906
863.99686	0.57129
862.06830	0.57378
860.13974	0.57728
858.21117	0.58254
856.28261	0.58858
854.35404	0.59378
852.42548	0.59794
850.49691	0.60156
848.56835	0.60496
846.63978	0.60849
844.71122	0.61187
842.78266	0.61507
840.85409	0.61900
838.92553	0.62362
836.99696	0.62777
835.06840	0.63118
833.13983	0.63460
831.21127	0.63874
829.28270	0.64378
827.35414	0.64845
825.42558	0.65194
823.49701	0.65549
821.56845	0.65888
819.63988	0.66062
817.71132	0.66130
815.78275	0.66207
813.85419	0.66272
811.92562	0.66268
809.99706	0.66164
808.06850	0.65957
806.13993	0.65619
804.21137	0.65121
802.28280	0.64565
800.35424	0.64086
798.42567	0.63740
796.49711	0.63521
794.56854	0.63391
792.63998	0.63407
790.71142	0.63589
788.78285	0.63830
786.85429	0.64161
784.92572	0.64723
782.99716	0.65481
781.06859	0.66288
779.14003	0.67086
777.21147	0.67915
775.28290	0.68768
773.35434	0.69501
771.42577	0.70023
769.49721	0.70464
767.56864	0.70927
765.64008	0.71279
763.71151	0.71471
761.78295	0.71644
759.85439	0.71813
757.92582	0.71928
755.99726	0.72074
754.06869	0.72352
752.14013	0.72730
750.21156	0.73114
748.28300	0.73484
746.35443	0.73851
744.42587	0.74194
742.49731	0.74497
740.56874	0.74797
738.64018	0.75165
736.71161	0.75547
734.78305	0.75825
732.85448	0.76011
730.92592	0.76188
728.99735	0.76397
727.06879	0.76592
725.14023	0.76698
723.21166	0.76754
721.28310	0.76846
719.35453	0.76899
717.42597	0.76811
715.49740	0.76678
713.56884	0.76680
711.64027	0.76846
709.71171	0.77049
707.78315	0.77289
705.85458	0.77676
703.92602	0.78208
701.99745	0.78790
700.06889	0.79203
698.14032	0.79260
696.21176	0.79125
694.28319	0.79107
692.35463	0.79289
690.42607	0.79493
688.49750	0.79563
686.56894	0.79540
684.64037	0.79472
682.71181	0.79436
680.78324	0.79516
678.85468	0.79502
676.92611	0.79247
674.99755	0.79034
673.06899	0.79069
671.14042	0.79344
669.21186	0.79796
667.28329	0.79811
665.35473	0.79349
663.42616	0.79007
661.49760	0.78882
659.56903	0.79007
657.64047	0.79367
655.71191	0.79775
653.78334	0.80005
651.85478	0.80031
649.92621	0.79960
647.99765	0.80006
646.06908	0.80261
644.14052	0.80541
642.21195	0.80860
640.28339	0.81309
638.35483	0.81639
636.42626	0.81641
634.49770	0.81462
632.56913	0.81313
630.64057	0.81107
628.71200	0.80741
626.78344	0.80340
624.85488	0.79973
622.92631	0.79642
620.99775	0.79307
619.06918	0.79002
617.14062	0.78806
615.21205	0.78645
613.28349	0.78714
611.35492	0.79119
609.42636	0.79380
607.49780	0.79372
605.56923	0.79404
603.64067	0.79543
601.71210	0.79737
599.78354	0.80007
