3997.91406	0.62147
3995.98550	0.62105
3994.05693	0.62155
3992.12837	0.62169
3990.19980	0.62089
3988.27124	0.61922
3986.34268	0.61769
3984.41411	0.61726
3982.48555	0.61720
3980.55698	0.61674
3978.62842	0.61771
3976.69985	0.62030
3974.77129	0.62022
3972.84272	0.61674
3970.91416	0.61414
3968.98560	0.61364
3967.05703	0.61396
3965.12847	0.61423
3963.19990	0.61364
3961.27134	0.61262
3959.34277	0.61171
3957.41421	0.61070
3955.48564	0.61077
3953.55708	0.61227
3951.62852	0.61296
3949.69995	0.61135
3947.77139	0.60918
3945.84282	0.60944
3943.91426	0.61095
3941.98569	0.61019
3940.05713	0.60813
3938.12856	0.60703
3936.20000	0.60728
3934.27144	0.60897
3932.34287	0.61025
3930.41431	0.60828
3928.48574	0.60532
3926.55718	0.60580
3924.62861	0.60965
3922.70005	0.61258
3920.77148	0.61299
3918.84292	0.61108
3916.91436	0.60742
3914.98579	0.60466
3913.05723	0.60331
3911.12866	0.60210
3909.20010	0.60194
3907.27153	0.60409
3905.34297	0.60660
3903.41440	0.60707
3901.48584	0.60667
3899.55728	0.60424
3897.62871	0.60060
3895.70015	0.59930
3893.77158	0.59926
3891.84302	0.59749
3889.91445	0.59644
3887.98589	0.59796
3886.05733	0.59725
3884.12876	0.59340
3882.20020	0.59212
3880.27163	0.59195
3878.34307	0.59086
3876.41450	0.59127
3874.48594	0.59327
3872.55737	0.59501
3870.62881	0.59481
3868.70025	0.59318
3866.77168	0.59263
3864.84312	0.59101
3862.91455	0.58643
3860.98599	0.58416
3859.05742	0.58589
3857.12886	0.59003
3855.20029	0.59422
3853.27173	0.58901
3851.34317	0.58038
3849.41460	0.57884
3847.48604	0.57961
3845.55747	0.58032
3843.62891	0.58093
3841.70034	0.58234
3839.77178	0.58355
3837.84321	0.58195
3835.91465	0.57949
3833.98609	0.57840
3832.05752	0.57864
3830.12896	0.57985
3828.20039	0.58066
3826.27183	0.57986
3824.34326	0.57931
3822.41470	0.57981
3820.48613	0.57837
3818.55757	0.57597
3816.62901	0.57299
3814.70044	0.57061
3812.77188	0.57164
3810.84331	0.57362
3808.91475	0.57374
3806.98618	0.57182
3805.05762	0.57171
3803.12905	0.57355
3801.20049	0.57433
3799.27193	0.57387
3797.34336	0.57181
3795.41480	0.56812
3793.48623	0.56564
3791.55767	0.56514
3789.62910	0.56531
3787.70054	0.56522
3785.77197	0.56546
3783.84341	0.56655
3781.91485	0.56776
3779.98628	0.56755
3778.05772	0.56540
3776.12915	0.56329
3774.20059	0.56255
3772.27202	0.56302
3770.34346	0.56303
3768.41489	0.56197
3766.48633	0.56055
3764.55777	0.55882
3762.62920	0.55830
3760.70064	0.55890
3758.77207	0.55961
3756.84351	0.56147
3754.91494	0.56472
3752.98638	0.56665
3751.05781	0.56302
3749.12925	0.55952
3747.20069	0.56013
3745.27212	0.55988
3743.34356	0.55956
3741.41499	0.56117
3739.48643	0.56338
3737.55786	0.56598
3735.62930	0.56618
3733.70074	0.56138
3731.77217	0.55896
3729.84361	0.56045
3727.91504	0.56142
3725.98648	0.55949
3724.05791	0.55683
3722.12935	0.55497
3720.20078	0.55337
3718.27222	0.55197
3716.34366	0.55094
3714.41509	0.55094
3712.48653	0.55048
3710.55796	0.54804
3708.62940	0.54749
3706.70083	0.54937
3704.77227	0.55215
3702.84370	0.55286
3700.91514	0.54945
3698.98658	0.54695
3697.05801	0.54826
3695.12945	0.55049
3693.20088	0.55065
3691.27232	0.54851
3689.34375	0.54653
3687.41519	0.54855
3685.48662	0.55184
3683.55806	0.55416
3681.62950	0.55588
3679.70093	0.55822
3677.77237	0.56184
3675.84380	0.56457
3673.91524	0.56609
3671.98667	0.56935
3670.05811	0.57208
3668.12954	0.57204
3666.20098	0.57212
3664.27242	0.57388
3662.34385	0.57814
3660.41529	0.58392
3658.48672	0.58842
3656.55816	0.59128
3654.62959	0.59495
3652.70103	0.60037
3650.77246	0.60726
3648.84390	0.61133
3646.91534	0.61098
3644.98677	0.61338
3643.05821	0.61799
3641.12964	0.62220
3639.20108	0.62705
3637.27251	0.63375
3635.34395	0.63888
3633.41538	0.64122
3631.48682	0.64439
3629.55826	0.65120
3627.62969	0.65919
3625.70113	0.66459
3623.77256	0.66966
3621.84400	0.67583
3619.91543	0.68168
3617.98687	0.68568
3616.05830	0.69000
3614.12974	0.69440
3612.20118	0.69751
3610.27261	0.69987
3608.34405	0.70318
3606.41548	0.70817
3604.48692	0.71328
3602.55835	0.71874
3600.62979	0.72522
3598.70123	0.73158
3596.77266	0.73623
3594.84410	0.73996
3592.91553	0.74572
3590.98697	0.75299
3589.05840	0.75917
3587.12984	0.76297
3585.20127	0.76722
3583.27271	0.77230
3581.34415	0.77603
3579.41558	0.77886
3577.48702	0.78334
3575.55845	0.79035
3573.62989	0.79720
3571.70132	0.80260
3569.77276	0.80799
3567.84419	0.81442
3565.91563	0.82339
3563.98707	0.83402
3562.05850	0.84303
3560.12994	0.84882
3558.20137	0.85264
3556.27281	0.85563
3554.34424	0.85972
3552.41568	0.86796
3550.48711	0.87857
3548.55855	0.88828
3546.62999	0.89710
3544.70142	0.90500
3542.77286	0.91027
3540.84429	0.91303
3538.91573	0.91619
3536.98716	0.92219
3535.05860	0.92999
3533.13003	0.93722
3531.20147	0.94538
3529.27291	0.95564
3527.34434	0.96672
3525.41578	0.97806
3523.48721	0.98612
3521.55865	0.98833
3519.63008	0.99033
3517.70152	0.99710
3515.77295	1.00674
3513.84439	1.01546
3511.91583	1.02319
3509.98726	1.03452
3508.05870	1.05141
3506.13013	1.06636
3504.20157	1.07504
3502.27300	1.08237
3500.34444	1.09257
3498.41587	1.10324
3496.48731	1.11115
3494.55875	1.11852
3492.63018	1.12781
3490.70162	1.13750
3488.77305	1.14697
3486.84449	1.15310
3484.91592	1.15385
3482.98736	1.15709
3481.05879	1.16562
3479.13023	1.17089
3477.20167	1.17158
3475.27310	1.17119
3473.34454	1.17337
3471.41597	1.18296
3469.48741	1.19647
3467.55884	1.20484
3465.63028	1.20464
3463.70171	1.20159
3461.77315	1.20417
3459.84459	1.21260
3457.91602	1.22109
3455.98746	1.22698
3454.05889	1.23049
3452.13033	1.23215
3450.20176	1.23245
3448.27320	1.23261
3446.34464	1.23527
3444.41607	1.24215
3442.48751	1.25105
3440.55894	1.25752
3438.63038	1.25900
3436.70181	1.25556
3434.77325	1.25169
3432.84468	1.25191
3430.91612	1.25292
3428.98756	1.25282
3427.05899	1.25430
3425.13043	1.25741
3423.20186	1.25933
3421.27330	1.25721
3419.34473	1.25555
3417.41617	1.25887
3415.48760	1.26316
3413.55904	1.26596
3411.63048	1.26715
3409.70191	1.26464
3407.77335	1.25973
3405.84478	1.25802
3403.91622	1.26028
3401.98765	1.26190
3400.05909	1.26346
3398.13052	1.26837
3396.20196	1.27294
3394.27340	1.27047
3392.34483	1.26439
3390.41627	1.26386
3388.48770	1.26883
3386.55914	1.27440
3384.63057	1.27686
3382.70201	1.27415
3380.77344	1.27066
3378.84488	1.27157
3376.91632	1.27520
3374.98775	1.27807
3373.05919	1.28052
3371.13062	1.28327
3369.20206	1.28561
3367.27349	1.28599
3365.34493	1.28431
3363.41636	1.28467
3361.48780	1.28872
3359.55924	1.29357
3357.63067	1.29591
3355.70211	1.29746
3353.77354	1.30500
3351.84498	1.31403
3349.91641	1.31456
3347.98785	1.31165
3346.05928	1.31254
3344.13072	1.31568
3342.20216	1.31912
3340.27359	1.32197
3338.34503	1.32221
3336.41646	1.32167
3334.48790	1.32654
3332.55933	1.33613
3330.63077	1.34442
3328.70220	1.35139
3326.77364	1.35793
3324.84508	1.36156
3322.91651	1.36428
3320.98795	1.37038
3319.05938	1.37766
3317.13082	1.38311
3315.20225	1.39057
3313.27369	1.39981
3311.34513	1.40415
3309.41656	1.40509
3307.48800	1.40900
3305.55943	1.41287
3303.63087	1.41028
3301.70230	1.40851
3299.77374	1.41626
3297.84517	1.42240
3295.91661	1.41904
3293.98805	1.41917
3292.05948	1.42789
3290.13092	1.43378
3288.20235	1.43065
3286.27379	1.42555
3284.34522	1.42678
3282.41666	1.43257
3280.48809	1.43851
3278.55953	1.44688
3276.63097	1.45411
3274.70240	1.45255
3272.77384	1.44441
3270.84527	1.43426
3268.91671	1.42490
3266.98814	1.41745
3265.05958	1.41008
3263.13101	1.40329
3261.20245	1.39875
3259.27389	1.39409
3257.34532	1.38516
3255.41676	1.37364
3253.48819	1.36499
3251.55963	1.35548
3249.63106	1.33958
3247.70250	1.32487
3245.77393	1.31547
3243.84537	1.30456
3241.91681	1.29299
3239.98824	1.28521
3238.05968	1.27896
3236.13111	1.27264
3234.20255	1.26563
3232.27398	1.25560
3230.34542	1.24485
3228.41685	1.23834
3226.48829	1.23505
3224.55973	1.23138
3222.63116	1.22657
3220.70260	1.22106
3218.77403	1.21594
3216.84547	1.21109
3214.91690	1.20493
3212.98834	1.19708
3211.05977	1.18721
3209.13121	1.17581
3207.20265	1.16783
3205.27408	1.16695
3203.34552	1.16681
3201.41695	1.15977
3199.48839	1.14941
3197.55982	1.14288
3195.63126	1.13973
3193.70269	1.13574
3191.77413	1.13121
3189.84557	1.12804
3187.91700	1.12455
3185.98844	1.11746
3184.05987	1.10679
3182.13131	1.09695
3180.20274	1.08924
3178.27418	1.08120
3176.34562	1.07380
3174.41705	1.06889
3172.48849	1.06369
3170.55992	1.05572
3168.63136	1.04960
3166.70279	1.04818
3164.77423	1.04608
3162.84566	1.04111
3160.91710	1.03665
3158.98854	1.03280
3157.05997	1.02736
3155.13141	1.02155
3153.20284	1.01829
3151.27428	1.01699
3149.34571	1.01437
3147.41715	1.00994
3145.48858	1.00681
3143.56002	1.00540
3141.63146	1.00326
3139.70289	1.00087
3137.77433	0.99965
3135.84576	0.99926
3133.91720	0.99980
3131.98863	1.00123
3130.06007	1.00133
3128.13150	0.99839
3126.20294	0.99526
3124.27438	0.99576
3122.34581	0.99900
3120.41725	1.00188
3118.48868	1.00305
3116.56012	1.00185
3114.63155	0.99940
3112.70299	0.99872
3110.77442	0.99947
3108.84586	0.99867
3106.91730	0.99710
3104.98873	0.99808
3103.06017	1.00100
3101.13160	1.00265
3099.20304	1.00232
3097.27447	1.00070
3095.34591	0.99819
3093.41734	0.99552
3091.48878	0.99239
3089.56022	0.98855
3087.63165	0.98593
3085.70309	0.98542
3083.77452	0.98441
3081.84596	0.98093
3079.91739	0.97641
3077.98883	0.97321
3076.06026	0.97122
3074.13170	0.96795
3072.20314	0.96352
3070.27457	0.95964
3068.34601	0.95538
3066.41744	0.94992
3064.48888	0.94342
3062.56031	0.93702
3060.63175	0.93270
3058.70318	0.93005
3056.77462	0.92698
3054.84606	0.92261
3052.91749	0.91726
3050.98893	0.91110
3049.06036	0.90530
3047.13180	0.90160
3045.20323	0.89863
3043.27467	0.89481
3041.34610	0.89114
3039.41754	0.88804
3037.48898	0.88441
3035.56041	0.87953
3033.63185	0.87485
3031.70328	0.87249
3029.77472	0.87178
3027.84615	0.86999
3025.91759	0.86640
3023.98903	0.86303
3022.06046	0.86073
3020.13190	0.85879
3018.20333	0.85724
3016.27477	0.85532
3014.34620	0.85198
3012.41764	0.84890
3010.48907	0.84725
3008.56051	0.84540
3006.63195	0.84323
3004.70338	0.84183
3002.77482	0.84069
3000.84625	0.83948
2998.91769	0.83919
2996.98912	0.84068
2995.06056	0.84344
2993.13199	0.84632
2991.20343	0.84896
2989.27487	0.85156
2987.34630	0.85474
2985.41774	0.86017
2983.48917	0.86843
2981.56061	0.87656
2979.63204	0.88292
2977.70348	0.88997
2975.77491	0.89806
2973.84635	0.90528
2971.91779	0.91217
2969.98922	0.92033
2968.06066	0.92915
2966.13209	0.93646
2964.20353	0.94154
2962.27496	0.94418
2960.34640	0.94352
2958.41783	0.93983
2956.48927	0.93401
2954.56071	0.92707
2952.63214	0.92049
2950.70358	0.91530
2948.77501	0.91146
2946.84645	0.90941
2944.91788	0.91090
2942.98932	0.91589
2941.06075	0.92326
2939.13219	0.93328
2937.20363	0.94522
2935.27506	0.95735
2933.34650	0.96870
2931.41793	0.97839
2929.48937	0.98628
2927.56080	0.99327
2925.63224	0.99974
2923.70367	1.00496
2921.77511	1.00878
2919.84655	1.01063
2917.91798	1.00618
2915.98942	0.99174
2914.06085	0.97056
2912.13229	0.94915
2910.20372	0.93102
2908.27516	0.91655
2906.34659	0.90546
2904.41803	0.89719
2902.48947	0.89078
2900.56090	0.88601
2898.63234	0.88329
2896.70377	0.88193
2894.77521	0.88034
2892.84664	0.87727
2890.91808	0.87281
2888.98952	0.86817
2887.06095	0.86394
2885.13239	0.86114
2883.20382	0.86089
2881.27526	0.86157
2879.34669	0.86103
2877.41813	0.85958
2875.48956	0.85812
2873.56100	0.85528
2871.63244	0.84970
2869.70387	0.84229
2867.77531	0.83397
2865.84674	0.82577
2863.91818	0.81990
2861.98961	0.81799
2860.06105	0.81994
2858.13248	0.82505
2856.20392	0.83304
2854.27536	0.84293
2852.34679	0.85221
2850.41823	0.85539
2848.48966	0.84547
2846.56110	0.82281
2844.63253	0.79746
2842.70397	0.77760
2840.77540	0.76309
2838.84684	0.75176
2836.91828	0.74326
2834.98971	0.73678
2833.06115	0.73127
2831.13258	0.72630
2829.20402	0.72177
2827.27545	0.71767
2825.34689	0.71401
2823.41832	0.71080
2821.48976	0.70779
2819.56120	0.70452
2817.63263	0.70087
2815.70407	0.69734
2813.77550	0.69411
2811.84694	0.69056
2809.91837	0.68665
2807.98981	0.68300
2806.06124	0.67952
2804.13268	0.67582
2802.20412	0.67228
2800.27555	0.66924
2798.34699	0.66656
2796.41842	0.66394
2794.48986	0.66123
2792.56129	0.65847
2790.63273	0.65525
2788.70416	0.65174
2786.77560	0.64880
2784.84704	0.64660
2782.91847	0.64518
2780.98991	0.64451
2779.06134	0.64399
2777.13278	0.64303
2775.20421	0.64145
2773.27565	0.63951
2771.34708	0.63747
2769.41852	0.63543
2767.48996	0.63368
2765.56139	0.63205
2763.63283	0.63001
2761.70426	0.62801
2759.77570	0.62653
2757.84713	0.62492
2755.91857	0.62322
2753.99001	0.62190
2752.06144	0.62042
2750.13288	0.61858
2748.20431	0.61683
2746.27575	0.61488
2744.34718	0.61267
2742.41862	0.61101
2740.49005	0.61010
2738.56149	0.60903
2736.63293	0.60740
2734.70436	0.60591
2732.77580	0.60494
2730.84723	0.60430
2728.91867	0.60381
2726.99010	0.60294
2725.06154	0.60189
2723.13297	0.60115
2721.20441	0.60009
2719.27585	0.59872
2717.34728	0.59775
2715.41872	0.59654
2713.49015	0.59486
2711.56159	0.59359
2709.63302	0.59245
2707.70446	0.59079
2705.77589	0.58910
2703.84733	0.58776
2701.91877	0.58635
2699.99020	0.58485
2698.06164	0.58353
2696.13307	0.58211
2694.20451	0.58045
2692.27594	0.57858
2690.34738	0.57658
2688.41881	0.57460
2686.49025	0.57260
2684.56169	0.57067
2682.63312	0.56918
2680.70456	0.56797
2678.77599	0.56642
2676.84743	0.56456
2674.91886	0.56288
2672.99030	0.56142
2671.06173	0.55999
2669.13317	0.55854
2667.20461	0.55746
2665.27604	0.55676
2663.34748	0.55563
2661.41891	0.55420
2659.49035	0.55341
2657.56178	0.55309
2655.63322	0.55251
2653.70465	0.55160
2651.77609	0.55074
2649.84753	0.55018
2647.91896	0.54971
2645.99040	0.54898
2644.06183	0.54818
2642.13327	0.54750
2640.20470	0.54679
2638.27614	0.54626
2636.34757	0.54590
2634.41901	0.54514
2632.49045	0.54402
2630.56188	0.54306
2628.63332	0.54233
2626.70475	0.54158
2624.77619	0.54076
2622.84762	0.53986
2620.91906	0.53872
2618.99049	0.53756
2617.06193	0.53692
2615.13337	0.53672
2613.20480	0.53629
2611.27624	0.53548
2609.34767	0.53429
2607.41911	0.53253
2605.49054	0.53096
2603.56198	0.53020
2601.63342	0.52959
2599.70485	0.52864
2597.77629	0.52770
2595.84772	0.52683
2593.91916	0.52587
2591.99059	0.52503
2590.06203	0.52427
2588.13346	0.52323
2586.20490	0.52212
2584.27634	0.52095
2582.34777	0.51965
2580.41921	0.51887
2578.49064	0.51843
2576.56208	0.51727
2574.63351	0.51544
2572.70495	0.51374
2570.77638	0.51220
2568.84782	0.51071
2566.91926	0.50937
2564.99069	0.50820
2563.06213	0.50731
2561.13356	0.50645
2559.20500	0.50536
2557.27643	0.50426
2555.34787	0.50348
2553.41930	0.50283
2551.49074	0.50177
2549.56218	0.50038
2547.63361	0.49920
2545.70505	0.49831
2543.77648	0.49741
2541.84792	0.49649
2539.91935	0.49567
2537.99079	0.49484
2536.06222	0.49393
2534.13366	0.49304
2532.20510	0.49232
2530.27653	0.49184
2528.34797	0.49131
2526.41940	0.49050
2524.49084	0.48960
2522.56227	0.48873
2520.63371	0.48802
2518.70514	0.48753
2516.77658	0.48691
2514.84802	0.48604
2512.91945	0.48507
2510.99089	0.48410
2509.06232	0.48330
2507.13376	0.48259
2505.20519	0.48172
2503.27663	0.48082
2501.34806	0.48008
2499.41950	0.47942
2497.49094	0.47850
2495.56237	0.47714
2493.63381	0.47579
2491.70524	0.47480
2489.77668	0.47387
2487.84811	0.47285
2485.91955	0.47181
2483.99098	0.47070
2482.06242	0.46963
2480.13386	0.46869
2478.20529	0.46798
2476.27673	0.46757
2474.34816	0.46727
2472.41960	0.46653
2470.49103	0.46530
2468.56247	0.46444
2466.63391	0.46415
2464.70534	0.46381
2462.77678	0.46324
2460.84821	0.46259
2458.91965	0.46187
2456.99108	0.46119
2455.06252	0.46068
2453.13395	0.46015
2451.20539	0.45937
2449.27683	0.45871
2447.34826	0.45843
2445.41970	0.45840
2443.49113	0.45834
2441.56257	0.45796
2439.63400	0.45725
2437.70544	0.45619
2435.77687	0.45485
2433.84831	0.45373
2431.91975	0.45301
2429.99118	0.45223
2428.06262	0.45109
2426.13405	0.44973
2424.20549	0.44833
2422.27692	0.44693
2420.34836	0.44581
2418.41979	0.44516
2416.49123	0.44466
2414.56267	0.44370
2412.63410	0.44206
2410.70554	0.44058
2408.77697	0.43998
2406.84841	0.43992
2404.91984	0.43976
2402.99128	0.43931
2401.06271	0.43862
2399.13415	0.43813
2397.20559	0.43810
2395.27702	0.43825
2393.34846	0.43826
2391.41989	0.43799
2389.49133	0.43748
2387.56276	0.43720
2385.63420	0.43736
2383.70563	0.43771
2381.77707	0.43819
2379.84851	0.43909
2377.91994	0.44092
2375.99138	0.44396
2374.06281	0.44740
2372.13425	0.44995
2370.20568	0.45145
2368.27712	0.45261
2366.34855	0.45324
2364.41999	0.45356
2362.49143	0.45588
2360.56286	0.45947
2358.63430	0.45931
2356.70573	0.45476
2354.77717	0.45045
2352.84860	0.44793
2350.92004	0.44603
2348.99147	0.44489
2347.06291	0.44496
2345.13435	0.44617
2343.20578	0.44784
2341.27722	0.44921
2339.34865	0.45015
2337.42009	0.45040
2335.49152	0.45017
2333.56296	0.45097
2331.63440	0.45197
2329.70583	0.45004
2327.77727	0.44650
2325.84870	0.44479
2323.92014	0.44442
2321.99157	0.44343
2320.06301	0.44153
2318.13444	0.43919
2316.20588	0.43713
2314.27732	0.43566
2312.34875	0.43410
2310.42019	0.43225
2308.49162	0.43058
2306.56306	0.42923
2304.63449	0.42809
2302.70593	0.42719
2300.77736	0.42643
2298.84880	0.42569
2296.92024	0.42511
2294.99167	0.42459
2293.06311	0.42390
2291.13454	0.42325
2289.20598	0.42302
2287.27741	0.42317
2285.34885	0.42322
2283.42028	0.42312
2281.49172	0.42324
2279.56316	0.42360
2277.63459	0.42398
2275.70603	0.42404
2273.77746	0.42373
2271.84890	0.42345
2269.92033	0.42345
2267.99177	0.42338
2266.06320	0.42283
2264.13464	0.42194
2262.20608	0.42114
2260.27751	0.42066
2258.34895	0.42030
2256.42038	0.41979
2254.49182	0.41927
2252.56325	0.41885
2250.63469	0.41846
2248.70612	0.41806
2246.77756	0.41774
2244.84900	0.41769
2242.92043	0.41789
2240.99187	0.41814
2239.06330	0.41854
2237.13474	0.41923
2235.20617	0.42008
2233.27761	0.42087
2231.34904	0.42136
2229.42048	0.42148
2227.49192	0.42160
2225.56335	0.42216
2223.63479	0.42326
2221.70622	0.42420
2219.77766	0.42437
2217.84909	0.42424
2215.92053	0.42434
2213.99196	0.42447
2212.06340	0.42441
2210.13484	0.42421
2208.20627	0.42406
2206.27771	0.42392
2204.34914	0.42365
2202.42058	0.42349
2200.49201	0.42346
2198.56345	0.42316
2196.63488	0.42271
2194.70632	0.42246
2192.77776	0.42234
2190.84919	0.42216
2188.92063	0.42196
2186.99206	0.42176
2185.06350	0.42175
2183.13493	0.42209
2181.20637	0.42266
2179.27781	0.42319
2177.34924	0.42359
2175.42068	0.42401
2173.49211	0.42461
2171.56355	0.42522
2169.63498	0.42553
2167.70642	0.42565
2165.77785	0.42588
2163.84929	0.42603
2161.92073	0.42599
2159.99216	0.42598
2158.06360	0.42626
2156.13503	0.42677
2154.20647	0.42699
2152.27790	0.42672
2150.34934	0.42624
2148.42077	0.42582
2146.49221	0.42564
2144.56365	0.42557
2142.63508	0.42535
2140.70652	0.42512
2138.77795	0.42494
2136.84939	0.42480
2134.92082	0.42493
2132.99226	0.42534
2131.06369	0.42569
2129.13513	0.42601
2127.20657	0.42645
2125.27800	0.42688
2123.34944	0.42739
2121.42087	0.42793
2119.49231	0.42830
2117.56374	0.42872
2115.63518	0.42944
2113.70661	0.43025
2111.77805	0.43085
2109.84949	0.43127
2107.92092	0.43168
2105.99236	0.43206
2104.06379	0.43229
2102.13523	0.43224
2100.20666	0.43201
2098.27810	0.43177
2096.34953	0.43163
2094.42097	0.43147
2092.49241	0.43110
2090.56384	0.43057
2088.63528	0.42995
2086.70671	0.42917
2084.77815	0.42841
2082.84958	0.42777
2080.92102	0.42729
2078.99245	0.42708
2077.06389	0.42692
2075.13533	0.42641
2073.20676	0.42553
2071.27820	0.42465
2069.34963	0.42406
2067.42107	0.42400
2065.49250	0.42425
2063.56394	0.42436
2061.63537	0.42429
2059.70681	0.42416
2057.77825	0.42409
2055.84968	0.42430
2053.92112	0.42471
2051.99255	0.42503
2050.06399	0.42534
2048.13542	0.42570
2046.20686	0.42598
2044.27830	0.42609
2042.34973	0.42615
2040.42117	0.42643
2038.49260	0.42679
2036.56404	0.42686
2034.63547	0.42656
2032.70691	0.42612
2030.77834	0.42576
2028.84978	0.42551
2026.92122	0.42536
2024.99265	0.42522
2023.06409	0.42480
2021.13552	0.42400
2019.20696	0.42317
2017.27839	0.42253
2015.34983	0.42203
2013.42126	0.42156
2011.49270	0.42104
2009.56414	0.42050
2007.63557	0.42004
2005.70701	0.41976
2003.77844	0.41970
2001.84988	0.41965
1999.92131	0.41959
1997.99275	0.41965
1996.06418	0.41989
1994.13562	0.42044
1992.20706	0.42105
1990.27849	0.42111
1988.34993	0.42093
1986.42136	0.42119
1984.49280	0.42153
1982.56423	0.42141
1980.63567	0.42127
1978.70710	0.42169
1976.77854	0.42225
1974.84998	0.42257
1972.92141	0.42276
1970.99285	0.42296
1969.06428	0.42329
1967.13572	0.42343
1965.20715	0.42296
1963.27859	0.42223
1961.35002	0.42157
1959.42146	0.42090
1957.49290	0.42027
1955.56433	0.41976
1953.63577	0.41919
1951.70720	0.41855
1949.77864	0.41794
1947.85007	0.41722
1945.92151	0.41660
1943.99294	0.41627
1942.06438	0.41561
1940.13582	0.41458
1938.20725	0.41380
1936.27869	0.41328
1934.35012	0.41285
1932.42156	0.41255
1930.49299	0.41221
1928.56443	0.41194
1926.63586	0.41213
1924.70730	0.41256
1922.77874	0.41272
1920.85017	0.41266
1918.92161	0.41272
1916.99304	0.41268
1915.06448	0.41229
1913.13591	0.41192
1911.20735	0.41186
1909.27878	0.41175
1907.35022	0.41119
1905.42166	0.41024
1903.49309	0.40903
1901.56453	0.40777
1899.63596	0.40691
1897.70740	0.40635
1895.77883	0.40541
1893.85027	0.40408
1891.92171	0.40299
1889.99314	0.40179
1888.06458	0.40008
1886.13601	0.39872
1884.20745	0.39791
1882.27888	0.39733
1880.35032	0.39692
1878.42175	0.39657
1876.49319	0.39614
1874.56463	0.39566
1872.63606	0.39557
1870.70750	0.39618
1868.77893	0.39689
1866.85037	0.39673
1864.92180	0.39637
1862.99324	0.39647
1861.06467	0.39666
1859.13611	0.39654
1857.20755	0.39626
1855.27898	0.39616
1853.35042	0.39614
1851.42185	0.39602
1849.49329	0.39596
1847.56472	0.39612
1845.63616	0.39610
1843.70759	0.39514
1841.77903	0.39387
1839.85047	0.39310
1837.92190	0.39245
1835.99334	0.39188
1834.06477	0.39177
1832.13621	0.39214
1830.20764	0.39216
1828.27908	0.39134
1826.35051	0.39067
1824.42195	0.39034
1822.49339	0.38997
1820.56482	0.38964
1818.63626	0.38934
1816.70769	0.38892
1814.77913	0.38885
1812.85056	0.38933
1810.92200	0.38939
1808.99343	0.38846
1807.06487	0.38738
1805.13631	0.38700
1803.20774	0.38744
1801.27918	0.38796
1799.35061	0.38757
1797.42205	0.38684
1795.49348	0.38654
1793.56492	0.38645
1791.63635	0.38583
1789.70779	0.38479
1787.77923	0.38434
1785.85066	0.38437
1783.92210	0.38455
1781.99353	0.38479
1780.06497	0.38484
1778.13640	0.38499
1776.20784	0.38574
1774.27927	0.38698
1772.35071	0.38758
1770.42215	0.38697
1768.49358	0.38648
1766.56502	0.38656
1764.63645	0.38738
1762.70789	0.38892
1760.77932	0.39068
1758.85076	0.39244
1756.92220	0.39486
1754.99363	0.39793
1753.06507	0.40188
1751.13650	0.40804
1749.20794	0.41536
1747.27937	0.42105
1745.35081	0.42584
1743.42224	0.43086
1741.49368	0.43595
1739.56512	0.44050
1737.63655	0.44375
1735.70799	0.44620
1733.77942	0.44856
1731.85086	0.44958
1729.92229	0.45007
1727.99373	0.45133
1726.06516	0.45381
1724.13660	0.45775
1722.20804	0.46231
1720.27947	0.46761
1718.35091	0.47626
1716.42234	0.48833
1714.49378	0.49738
1712.56521	0.50574
1710.63665	0.51705
1708.70808	0.53198
1706.77952	0.55423
1704.85096	0.58394
1702.92239	0.61230
1700.99383	0.65186
1699.06526	0.71179
1697.13670	0.76574
1695.20813	0.81659
1693.27957	0.85489
1691.35100	0.88690
1689.42244	0.92679
1687.49388	0.96472
1685.56531	1.00351
1683.63675	1.06553
1681.70818	1.11411
1679.77962	1.14408
1677.85105	1.17367
1675.92249	1.20856
1673.99392	1.24458
1672.06536	1.27381
1670.13680	1.30464
1668.20823	1.33393
1666.27967	1.35075
1664.35110	1.36705
1662.42254	1.38716
1660.49397	1.40244
1658.56541	1.41269
1656.63684	1.42104
1654.70828	1.42950
1652.77972	1.42867
1650.85115	1.42286
1648.92259	1.42320
1646.99402	1.42181
1645.06546	1.41675
1643.13689	1.41470
1641.20833	1.41583
1639.27976	1.41594
1637.35120	1.41344
1635.42264	1.40954
1633.49407	1.40628
1631.56551	1.40365
1629.63694	1.39929
1627.70838	1.39391
1625.77981	1.38591
1623.85125	1.36701
1621.92269	1.34030
1619.99412	1.31955
1618.06556	1.29512
1616.13699	1.25533
1614.20843	1.22104
1612.27986	1.19336
1610.35130	1.16323
1608.42273	1.13171
1606.49417	1.10385
1604.56561	1.08151
1602.63704	1.06315
1600.70848	1.04862
1598.77991	1.03813
1596.85135	1.03082
1594.92278	1.02509
1592.99422	1.01972
1591.06565	1.01579
1589.13709	1.01552
1587.20853	1.01982
1585.27996	1.02795
1583.35140	1.03889
1581.42283	1.05090
1579.49427	1.06300
1577.56570	1.07989
1575.63714	1.10484
1573.70857	1.12212
1571.78001	1.13465
1569.85145	1.15533
1567.92288	1.17893
1565.99432	1.19688
1564.06575	1.21344
1562.13719	1.22690
1560.20862	1.24178
1558.28006	1.26895
1556.35149	1.28169
1554.42293	1.28514
1552.49437	1.28786
1550.56580	1.28963
1548.63724	1.28962
1546.70867	1.28941
1544.78011	1.28998
1542.85154	1.29089
1540.92298	1.28813
1538.99441	1.27695
1537.06585	1.26918
1535.13729	1.26272
1533.20872	1.25416
1531.28016	1.24651
1529.35159	1.24233
1527.42303	1.23975
1525.49446	1.23641
1523.56590	1.23351
1521.63733	1.23274
1519.70877	1.23272
1517.78021	1.22858
1515.85164	1.21836
1513.92308	1.20587
1511.99451	1.19293
1510.06595	1.17841
1508.13738	1.14790
1506.20882	1.09386
1504.28025	1.06822
1502.35169	1.05361
1500.42313	1.03611
1498.49456	1.01301
1496.56600	0.98381
1494.63743	0.96000
1492.70887	0.94460
1490.78030	0.92810
1488.85174	0.90618
1486.92317	0.88841
1484.99461	0.87601
1483.06605	0.86686
1481.13748	0.86116
1479.20892	0.85932
1477.28035	0.86120
1475.35179	0.86748
1473.42322	0.88078
1471.49466	0.89618
1469.56610	0.90541
1467.63753	0.91277
1465.70897	0.92212
1463.78040	0.93162
1461.85184	0.93807
1459.92327	0.94409
1457.99471	0.95443
1456.06614	0.96686
1454.13758	0.97214
1452.20902	0.97382
1450.28045	0.97488
1448.35189	0.97585
1446.42332	0.97451
1444.49476	0.97028
1442.56619	0.96528
1440.63763	0.96107
1438.70906	0.95641
1436.78050	0.94736
1434.85194	0.93609
1432.92337	0.92714
1430.99481	0.91726
1429.06624	0.90559
1427.13768	0.89630
1425.20911	0.89026
1423.28055	0.88631
1421.35198	0.88380
1419.42342	0.88079
1417.49486	0.87571
1415.56629	0.87094
1413.63773	0.86640
1411.70916	0.86077
1409.78060	0.85499
1407.85203	0.85086
1405.92347	0.84841
1403.99490	0.84726
1402.06634	0.84769
1400.13778	0.84970
1398.20921	0.85243
1396.28065	0.85479
1394.35208	0.85780
1392.42352	0.86300
1390.49495	0.87143
1388.56639	0.88578
1386.63782	0.90642
1384.70926	0.92711
1382.78070	0.94631
1380.85213	0.96384
1378.92357	0.97554
1376.99500	0.97888
1375.06644	0.97270
1373.13787	0.95783
1371.20931	0.93980
1369.28074	0.91842
1367.35218	0.89382
1365.42362	0.87076
1363.49505	0.84847
1361.56649	0.82729
1359.63792	0.81183
1357.70936	0.80098
1355.78079	0.79244
1353.85223	0.78569
1351.92366	0.78086
1349.99510	0.77766
1348.06654	0.77543
1346.13797	0.77406
1344.20941	0.77365
1342.28084	0.77415
1340.35228	0.77594
1338.42371	0.77931
1336.49515	0.78455
1334.56659	0.79274
1332.63802	0.80412
1330.70946	0.81735
1328.78089	0.82941
1326.85233	0.83786
1324.92376	0.84310
1322.99520	0.84688
1321.06663	0.85047
1319.13807	0.85437
1317.20951	0.85814
1315.28094	0.86107
1313.35238	0.86318
1311.42381	0.86448
1309.49525	0.86461
1307.56668	0.86335
1305.63812	0.86067
1303.70955	0.85680
1301.78099	0.85200
1299.85243	0.84604
1297.92386	0.83865
1295.99530	0.83064
1294.06673	0.82365
1292.13817	0.81881
1290.20960	0.81616
1288.28104	0.81506
1286.35247	0.81464
1284.42391	0.81413
1282.49535	0.81374
1280.56678	0.81421
1278.63822	0.81582
1276.70965	0.81876
1274.78109	0.82338
1272.85252	0.82980
1270.92396	0.83784
1268.99539	0.84725
1267.06683	0.85717
1265.13827	0.86585
1263.20970	0.87209
1261.28114	0.87588
1259.35257	0.87758
1257.42401	0.87806
1255.49544	0.87833
1253.56688	0.87847
1251.63831	0.87850
1249.70975	0.87831
1247.78119	0.87780
1245.85262	0.87744
1243.92406	0.87695
1241.99549	0.87579
1240.06693	0.87398
1238.13836	0.87125
1236.20980	0.86738
1234.28123	0.86234
1232.35267	0.85644
1230.42411	0.84962
1228.49554	0.84148
1226.56698	0.83221
1224.63841	0.82216
1222.70985	0.81164
1220.78128	0.80131
1218.85272	0.79203
1216.92415	0.78489
1214.99559	0.78080
1213.06703	0.78012
1211.13846	0.78265
1209.20990	0.78688
1207.28133	0.79021
1205.35277	0.79005
1203.42420	0.78491
1201.49564	0.77541
1199.56708	0.76366
1197.63851	0.75179
1195.70995	0.74129
1193.78138	0.73289
1191.85282	0.72700
1189.92425	0.72360
1187.99569	0.72221
1186.06712	0.72247
1184.13856	0.72425
1182.21000	0.72799
1180.28143	0.73417
1178.35287	0.74250
1176.42430	0.75294
1174.49574	0.76576
1172.56717	0.78074
1170.63861	0.79817
1168.71004	0.81881
1166.78148	0.84193
1164.85292	0.86522
1162.92435	0.88551
1160.99579	0.90001
1159.06722	0.90679
1157.13866	0.90426
1155.21009	0.89271
1153.28153	0.87516
1151.35296	0.85512
1149.42440	0.83491
1147.49584	0.81579
1145.56727	0.79899
1143.63871	0.78650
1141.71014	0.77973
1139.78158	0.77850
1137.85301	0.78184
1135.92445	0.78873
1133.99588	0.79891
1132.06732	0.81306
1130.13876	0.83195
1128.21019	0.85535
1126.28163	0.88071
1124.35306	0.90418
1122.42450	0.92391
1120.49593	0.93972
1118.56737	0.95052
1116.63880	0.95503
1114.71024	0.95368
1112.78168	0.94827
1110.85311	0.94069
1108.92455	0.93237
1106.99598	0.92417
1105.06742	0.91718
1103.13885	0.91262
1101.21029	0.91038
1099.28172	0.91113
1097.35316	0.91775
1095.42460	0.93092
1093.49603	0.94709
1091.56747	0.96424
1089.63890	0.98434
1087.71034	1.00801
1085.78177	1.03428
1083.85321	1.06166
1081.92464	1.08535
1079.99608	1.10203
1078.06752	1.11150
1076.13895	1.11299
1074.21039	1.10764
1072.28182	1.09769
1070.35326	1.08443
1068.42469	1.06952
1066.49613	1.05408
1064.56756	1.03806
1062.63900	1.02177
1060.71044	1.00580
1058.78187	0.98870
1056.85331	0.97035
1054.92474	0.95502
1052.99618	0.94544
1051.06761	0.94029
1049.13905	0.93827
1047.21049	0.93974
1045.28192	0.94641
1043.35336	0.95851
1041.42479	0.97309
1039.49623	0.98735
1037.56766	0.99945
1035.63910	1.00701
1033.71053	1.00974
1031.78197	1.00985
1029.85341	1.00741
1027.92484	1.00044
1025.99628	0.98945
1024.06771	0.97680
1022.13915	0.96391
1020.21058	0.95218
1018.28202	0.94259
1016.35345	0.93318
1014.42489	0.92028
1012.49633	0.90176
1010.56776	0.87816
1008.63920	0.85151
1006.71063	0.82378
1004.78207	0.79718
1002.85350	0.77387
1000.92494	0.75435
998.99637	0.73883
997.06781	0.72780
995.13925	0.71978
993.21068	0.71227
991.28212	0.70422
989.35355	0.69602
987.42499	0.68895
985.49642	0.68402
983.56786	0.68148
981.63929	0.68144
979.71073	0.68336
977.78217	0.68575
975.85360	0.68655
973.92504	0.68394
971.99647	0.67793
970.06791	0.66989
968.13934	0.66117
966.21078	0.65362
964.28221	0.64937
962.35365	0.65007
960.42509	0.65720
958.49652	0.66979
956.56796	0.68209
954.63939	0.68769
952.71083	0.68447
950.78226	0.67456
948.85370	0.66222
946.92513	0.65101
944.99657	0.64233
943.06801	0.63647
941.13944	0.63339
939.21088	0.63201
937.28231	0.63132
935.35375	0.63158
933.42518	0.63322
931.49662	0.63579
929.56805	0.63855
927.63949	0.64143
925.71093	0.64491
923.78236	0.64902
921.85380	0.65300
919.92523	0.65588
917.99667	0.65763
916.06810	0.65936
914.13954	0.66187
912.21098	0.66510
910.28241	0.66903
908.35385	0.67412
906.42528	0.68023
904.49672	0.68669
902.56815	0.69305
900.63959	0.69861
898.71102	0.70276
896.78246	0.70557
894.85390	0.70715
892.92533	0.70765
890.99677	0.70786
889.06820	0.70808
887.13964	0.70808
885.21107	0.70847
883.28251	0.70987
881.35394	0.71191
879.42538	0.71387
877.49682	0.71601
875.56825	0.71921
873.63969	0.72294
871.71112	0.72601
869.78256	0.72847
867.85399	0.73089
865.92543	0.73320
863.99686	0.73498
862.06830	0.73665
860.13974	0.73918
858.21117	0.74216
856.28261	0.74530
854.35404	0.74865
852.42548	0.75062
850.49691	0.75054
848.56835	0.74991
846.63978	0.74939
844.71122	0.74890
842.78266	0.74842
840.85409	0.74810
838.92553	0.74846
836.99696	0.74997
835.06840	0.75228
833.13983	0.75409
831.21127	0.75522
829.28270	0.75696
827.35414	0.75963
825.42558	0.76259
823.49701	0.76502
821.56845	0.76598
819.63988	0.76593
817.71132	0.76688
815.78275	0.76974
813.85419	0.77241
811.92562	0.77245
809.99706	0.77068
808.06850	0.76888
806.13993	0.76687
804.21137	0.76466
802.28280	0.76301
800.35424	0.76130
798.42567	0.75903
796.49711	0.75644
794.56854	0.75346
792.63998	0.75098
790.71142	0.75019
788.78285	0.75052
786.85429	0.75071
784.92572	0.75069
782.99716	0.75082
781.06859	0.75154
779.14003	0.75359
777.21147	0.75665
775.28290	0.76008
773.35434	0.76428
771.42577	0.76927
769.49721	0.77439
767.56864	0.77939
765.64008	0.78454
763.71151	0.79023
761.78295	0.79651
759.85439	0.80278
757.92582	0.80787
755.99726	0.81168
754.06869	0.81542
752.14013	0.81914
750.21156	0.82139
748.28300	0.82128
746.35443	0.81957
744.42587	0.81826
742.49731	0.81777
740.56874	0.81663
738.64018	0.81370
736.71161	0.80920
734.78305	0.80505
732.85448	0.80274
730.92592	0.80203
728.99735	0.80250
727.06879	0.80353
725.14023	0.80468
723.21166	0.80666
721.28310	0.80927
719.35453	0.81141
717.42597	0.81397
715.49740	0.81797
713.56884	0.82284
711.64027	0.82863
709.71171	0.83494
707.78315	0.84050
705.85458	0.84533
703.92602	0.84991
701.99745	0.85339
700.06889	0.85493
698.14032	0.85558
696.21176	0.85583
694.28319	0.85383
692.35463	0.84911
690.42607	0.84385
688.49750	0.83907
686.56894	0.83279
684.64037	0.82468
682.71181	0.81691
680.78324	0.80924
678.85468	0.80093
676.92611	0.79313
674.99755	0.78555
673.06899	0.77841
671.14042	0.77424
669.21186	0.77346
667.28329	0.77244
665.35473	0.77026
663.42616	0.76985
661.49760	0.77236
659.56903	0.77743
657.64047	0.78322
655.71191	0.78874
653.78334	0.79497
651.85478	0.80075
649.92621	0.80370
647.99765	0.80719
646.06908	0.81417
644.14052	0.82113
642.21195	0.82622
640.28339	0.83054
638.35483	0.83313
636.42626	0.83271
634.49770	0.82889
632.56913	0.82212
630.64057	0.81299
628.71200	0.80310
626.78344	0.79498
624.85488	0.78771
622.92631	0.77874
620.99775	0.76895
619.06918	0.76019
617.14062	0.75317
615.21205	0.74866
613.28349	0.74503
611.35492	0.73989
609.42636	0.73586
607.49780	0.73637
605.56923	0.74082
603.64067	0.74842
601.71210	0.75892
599.78354	0.77060
