3997.91406	0.67695
3995.98550	0.67544
3994.05693	0.67351
3992.12837	0.67340
3990.19980	0.67379
3988.27124	0.67308
3986.34268	0.67276
3984.41411	0.67292
3982.48555	0.67131
3980.55698	0.66949
3978.62842	0.67029
3976.69985	0.67194
3974.77129	0.67207
3972.84272	0.67114
3970.91416	0.67000
3968.98560	0.66887
3967.05703	0.66764
3965.12847	0.66632
3963.19990	0.66512
3961.27134	0.66528
3959.34277	0.66784
3957.41421	0.66999
3955.48564	0.66921
3953.55708	0.66790
3951.62852	0.66828
3949.69995	0.66861
3947.77139	0.66680
3945.84282	0.66459
3943.91426	0.66362
3941.98569	0.66338
3940.05713	0.66372
3938.12856	0.66486
3936.20000	0.66616
3934.27144	0.66551
3932.34287	0.66166
3930.41431	0.65788
3928.48574	0.65723
3926.55718	0.65867
3924.62861	0.66080
3922.70005	0.66314
3920.77148	0.66482
3918.84292	0.66403
3916.91436	0.65975
3914.98579	0.65492
3913.05723	0.65290
3911.12866	0.65257
3909.20010	0.65179
3907.27153	0.65146
3905.34297	0.65213
3903.41440	0.65164
3901.48584	0.65009
3899.55728	0.64851
3897.62871	0.64655
3895.70015	0.64513
3893.77158	0.64368
3891.84302	0.64060
3889.91445	0.63863
3887.98589	0.63978
3886.05733	0.64155
3884.12876	0.64191
3882.20020	0.64074
3880.27163	0.63725
3878.34307	0.63501
3876.41450	0.63648
3874.48594	0.63955
3872.55737	0.64135
3870.62881	0.63952
3868.70025	0.63577
3866.77168	0.63416
3864.84312	0.63312
3862.91455	0.63092
3860.98599	0.62877
3859.05742	0.62720
3857.12886	0.62634
3855.20029	0.62582
3853.27173	0.62439
3851.34317	0.62477
3849.41460	0.62738
3847.48604	0.62941
3845.55747	0.62888
3843.62891	0.62629
3841.70034	0.62514
3839.77178	0.62719
3837.84321	0.62930
3835.91465	0.62784
3833.98609	0.62486
3832.05752	0.62329
3830.12896	0.62348
3828.20039	0.62392
3826.27183	0.62463
3824.34326	0.62682
3822.41470	0.62938
3820.48613	0.62849
3818.55757	0.62562
3816.62901	0.62321
3814.70044	0.62233
3812.77188	0.62292
3810.84331	0.62384
3808.91475	0.62583
3806.98618	0.62721
3805.05762	0.62577
3803.12905	0.62330
3801.20049	0.61998
3799.27193	0.61824
3797.34336	0.61755
3795.41480	0.61598
3793.48623	0.61442
3791.55767	0.61376
3789.62910	0.61523
3787.70054	0.61832
3785.77197	0.61924
3783.84341	0.61765
3781.91485	0.61726
3779.98628	0.61686
3778.05772	0.61431
3776.12915	0.61203
3774.20059	0.61149
3772.27202	0.61241
3770.34346	0.61262
3768.41489	0.61034
3766.48633	0.60816
3764.55777	0.60840
3762.62920	0.61018
3760.70064	0.61130
3758.77207	0.61048
3756.84351	0.60876
3754.91494	0.60832
3752.98638	0.60880
3751.05781	0.60654
3749.12925	0.60352
3747.20069	0.60457
3745.27212	0.60730
3743.34356	0.60899
3741.41499	0.61022
3739.48643	0.61252
3737.55786	0.61621
3735.62930	0.61821
3733.70074	0.61457
3731.77217	0.61049
3729.84361	0.60950
3727.91504	0.61126
3725.98648	0.61299
3724.05791	0.61180
3722.12935	0.61018
3720.20078	0.60949
3718.27222	0.60866
3716.34366	0.60959
3714.41509	0.61320
3712.48653	0.61457
3710.55796	0.61014
3708.62940	0.60832
3706.70083	0.61002
3704.77227	0.61207
3702.84370	0.61292
3700.91514	0.61243
3698.98658	0.61240
3697.05801	0.61453
3695.12945	0.61865
3693.20088	0.62295
3691.27232	0.62586
3689.34375	0.62498
3687.41519	0.62299
3685.48662	0.62326
3683.55806	0.62476
3681.62950	0.62739
3679.70093	0.63096
3677.77237	0.63496
3675.84380	0.63911
3673.91524	0.64204
3671.98667	0.64430
3670.05811	0.64692
3668.12954	0.65106
3666.20098	0.65672
3664.27242	0.66237
3662.34385	0.66716
3660.41529	0.67153
3658.48672	0.67664
3656.55816	0.68490
3654.62959	0.69438
3652.70103	0.70164
3650.77246	0.70854
3648.84390	0.71653
3646.91534	0.72200
3644.98677	0.72554
3643.05821	0.73108
3641.12964	0.74008
3639.20108	0.74936
3637.27251	0.75612
3635.34395	0.76302
3633.41538	0.77261
3631.48682	0.78363
3629.55826	0.79628
3627.62969	0.80638
3625.70113	0.81454
3623.77256	0.82637
3621.84400	0.83923
3619.91543	0.84909
3617.98687	0.85702
3616.05830	0.86596
3614.12974	0.87503
3612.20118	0.88416
3610.27261	0.89548
3608.34405	0.90814
3606.41548	0.92011
3604.48692	0.93270
3602.55835	0.94688
3600.62979	0.96003
3598.70123	0.97099
3596.77266	0.98212
3594.84410	0.99359
3592.91553	1.00482
3590.98697	1.01667
3589.05840	1.03299
3587.12984	1.05448
3585.20127	1.06935
3583.27271	1.07852
3581.34415	1.09041
3579.41558	1.10500
3577.48702	1.11787
3575.55845	1.12948
3573.62989	1.14211
3571.70132	1.15570
3569.77276	1.16943
3567.84419	1.18560
3565.91563	1.20214
3563.98707	1.21349
3562.05850	1.22623
3560.12994	1.23926
3558.20137	1.24488
3556.27281	1.24660
3554.34424	1.25568
3552.41568	1.27592
3550.48711	1.29765
3548.55855	1.31479
3546.62999	1.32789
3544.70142	1.33762
3542.77286	1.34857
3540.84429	1.36100
3538.91573	1.37274
3536.98716	1.38796
3535.05860	1.40529
3533.13003	1.41469
3531.20147	1.41901
3529.27291	1.42616
3527.34434	1.43653
3525.41578	1.44872
3523.48721	1.46007
3521.55865	1.46586
3519.63008	1.47080
3517.70152	1.48609
3515.77295	1.50713
3513.84439	1.52128
3511.91583	1.52621
3509.98726	1.52536
3508.05870	1.52837
3506.13013	1.54148
3504.20157	1.55704
3502.27300	1.56519
3500.34444	1.57676
3498.41587	1.59664
3496.48731	1.60377
3494.55875	1.59791
3492.63018	1.60299
3490.70162	1.61843
3488.77305	1.62891
3486.84449	1.62942
3484.91592	1.62002
3482.98736	1.60962
3481.05879	1.61158
3479.13023	1.61877
3477.20167	1.61615
3475.27310	1.60335
3473.34454	1.59606
3471.41597	1.60709
3469.48741	1.63006
3467.55884	1.65303
3465.63028	1.66249
3463.70171	1.65256
3461.77315	1.64409
3459.84459	1.65028
3457.91602	1.65582
3455.98746	1.64984
3454.05889	1.63815
3452.13033	1.63399
3450.20176	1.64476
3448.27320	1.65383
3446.34464	1.65045
3444.41607	1.65632
3442.48751	1.67425
3440.55894	1.68230
3438.63038	1.68104
3436.70181	1.68346
3434.77325	1.68628
3432.84468	1.68539
3430.91612	1.68368
3428.98756	1.68046
3427.05899	1.67335
3425.13043	1.66880
3423.20186	1.67063
3421.27330	1.66885
3419.34473	1.66199
3417.41617	1.65691
3415.48760	1.65400
3413.55904	1.65470
3411.63048	1.65993
3409.70191	1.66527
3407.77335	1.66490
3405.84478	1.66014
3403.91622	1.65514
3401.98765	1.65132
3400.05909	1.65207
3398.13052	1.65944
3396.20196	1.67322
3394.27340	1.68142
3392.34483	1.66586
3390.41627	1.64294
3388.48770	1.64134
3386.55914	1.65685
3384.63057	1.67118
3382.70201	1.67420
3380.77344	1.66169
3378.84488	1.64868
3376.91632	1.65359
3374.98775	1.66817
3373.05919	1.67319
3371.13062	1.66565
3369.20206	1.66042
3367.27349	1.66761
3365.34493	1.67818
3363.41636	1.68320
3361.48780	1.68616
3359.55924	1.68802
3357.63067	1.68581
3355.70211	1.67976
3353.77354	1.67253
3351.84498	1.67102
3349.91641	1.67744
3347.98785	1.68625
3346.05928	1.69156
3344.13072	1.68841
3342.20216	1.68464
3340.27359	1.68733
3338.34503	1.68874
3336.41646	1.68927
3334.48790	1.69384
3332.55933	1.69732
3330.63077	1.69300
3328.70220	1.68175
3326.77364	1.67127
3324.84508	1.66939
3322.91651	1.68121
3320.98795	1.69423
3319.05938	1.68789
3317.13082	1.67694
3315.20225	1.68634
3313.27369	1.70755
3311.34513	1.71815
3309.41656	1.71485
3307.48800	1.71260
3305.55943	1.72149
3303.63087	1.73346
3301.70230	1.73620
3299.77374	1.72829
3297.84517	1.71791
3295.91661	1.70796
3293.98805	1.69202
3292.05948	1.67493
3290.13092	1.66800
3288.20235	1.66866
3286.27379	1.66477
3284.34522	1.65265
3282.41666	1.63912
3280.48809	1.62952
3278.55953	1.63437
3276.63097	1.65677
3274.70240	1.66870
3272.77384	1.65709
3270.84527	1.64848
3268.91671	1.65150
3266.98814	1.65579
3265.05958	1.65788
3263.13101	1.65867
3261.20245	1.66249
3259.27389	1.66683
3257.34532	1.66291
3255.41676	1.65407
3253.48819	1.64833
3251.55963	1.64682
3249.63106	1.64570
3247.70250	1.64201
3245.77393	1.63614
3243.84537	1.63170
3241.91681	1.62902
3239.98824	1.62334
3238.05968	1.62051
3236.13111	1.62379
3234.20255	1.62135
3232.27398	1.61406
3230.34542	1.61265
3228.41685	1.61232
3226.48829	1.60624
3224.55973	1.60518
3222.63116	1.61149
3220.70260	1.60830
3218.77403	1.59767
3216.84547	1.59266
3214.91690	1.58965
3212.98834	1.58864
3211.05977	1.59783
3209.13121	1.61163
3207.20265	1.61251
3205.27408	1.59873
3203.34552	1.58640
3201.41695	1.58072
3199.48839	1.57376
3197.55982	1.56846
3195.63126	1.57247
3193.70269	1.57891
3191.77413	1.58315
3189.84557	1.58726
3187.91700	1.58357
3185.98844	1.57068
3184.05987	1.56026
3182.13131	1.55822
3180.20274	1.56131
3178.27418	1.56413
3176.34562	1.56633
3174.41705	1.56623
3172.48849	1.56007
3170.55992	1.55740
3168.63136	1.56370
3166.70279	1.56558
3164.77423	1.55606
3162.84566	1.54230
3160.91710	1.53099
3158.98854	1.52725
3157.05997	1.53194
3155.13141	1.53460
3153.20284	1.52923
3151.27428	1.52568
3149.34571	1.52468
3147.41715	1.51900
3145.48858	1.51409
3143.56002	1.51420
3141.63146	1.51541
3139.70289	1.51623
3137.77433	1.51802
3135.84576	1.52123
3133.91720	1.52368
3131.98863	1.52241
3130.06007	1.51893
3128.13150	1.51796
3126.20294	1.51763
3124.27438	1.51480
3122.34581	1.51462
3120.41725	1.51591
3118.48868	1.51416
3116.56012	1.51457
3114.63155	1.51700
3112.70299	1.51641
3110.77442	1.51445
3108.84586	1.51209
3106.91730	1.50724
3104.98873	1.50227
3103.06017	1.50126
3101.13160	1.50221
3099.20304	1.50445
3097.27447	1.50647
3095.34591	1.49967
3093.41734	1.48869
3091.48878	1.48424
3089.56022	1.48251
3087.63165	1.47995
3085.70309	1.47868
3083.77452	1.47756
3081.84596	1.47672
3079.91739	1.48018
3077.98883	1.48547
3076.06026	1.48525
3074.13170	1.48263
3072.20314	1.47973
3070.27457	1.47004
3068.34601	1.45864
3066.41744	1.45709
3064.48888	1.46410
3062.56031	1.46917
3060.63175	1.46526
3058.70318	1.45442
3056.77462	1.44503
3054.84606	1.44116
3052.91749	1.43644
3050.98893	1.42741
3049.06036	1.41997
3047.13180	1.41711
3045.20323	1.41542
3043.27467	1.41257
3041.34610	1.41091
3039.41754	1.41068
3037.48898	1.40795
3035.56041	1.40313
3033.63185	1.39853
3031.70328	1.39393
3029.77472	1.38890
3027.84615	1.38338
3025.91759	1.38055
3023.98903	1.38239
3022.06046	1.38428
3020.13190	1.38211
3018.20333	1.37678
3016.27477	1.37082
3014.34620	1.36603
3012.41764	1.36284
3010.48907	1.36072
3008.56051	1.35806
3006.63195	1.35593
3004.70338	1.35860
3002.77482	1.36287
3000.84625	1.36060
2998.91769	1.35369
2996.98912	1.35066
2995.06056	1.35340
2993.13199	1.35683
2991.20343	1.35871
2989.27487	1.36080
2987.34630	1.36380
2985.41774	1.36806
2983.48917	1.37266
2981.56061	1.37629
2979.63204	1.38062
2977.70348	1.38897
2975.77491	1.40121
2973.84635	1.41258
2971.91779	1.41973
2969.98922	1.42370
2968.06066	1.42863
2966.13209	1.43610
2964.20353	1.44161
2962.27496	1.44034
2960.34640	1.43192
2958.41783	1.42262
2956.48927	1.41960
2954.56071	1.42286
2952.63214	1.42842
2950.70358	1.43274
2948.77501	1.43282
2946.84645	1.42844
2944.91788	1.42446
2942.98932	1.42636
2941.06075	1.43524
2939.13219	1.44714
2937.20363	1.45672
2935.27506	1.46409
2933.34650	1.47092
2931.41793	1.47709
2929.48937	1.48310
2927.56080	1.48696
2925.63224	1.48834
2923.70367	1.48961
2921.77511	1.49127
2919.84655	1.49247
2917.91798	1.48810
2915.98942	1.47344
2914.06085	1.45226
2912.13229	1.43391
2910.20372	1.42367
2908.27516	1.41750
2906.34659	1.40966
2904.41803	1.39974
2902.48947	1.39127
2900.56090	1.38663
2898.63234	1.38329
2896.70377	1.37936
2894.77521	1.37681
2892.84664	1.37465
2890.91808	1.36910
2888.98952	1.36209
2887.06095	1.35806
2885.13239	1.35669
2883.20382	1.35699
2881.27526	1.35801
2879.34669	1.35824
2877.41813	1.35958
2875.48956	1.36125
2873.56100	1.35885
2871.63244	1.35375
2869.70387	1.34859
2867.77531	1.34264
2865.84674	1.33785
2863.91818	1.33519
2861.98961	1.33258
2860.06105	1.33296
2858.13248	1.33936
2856.20392	1.34429
2854.27536	1.33998
2852.34679	1.33255
2850.41823	1.32782
2848.48966	1.31982
2846.56110	1.30387
2844.63253	1.28217
2842.70397	1.26043
2840.77540	1.24493
2838.84684	1.23616
2836.91828	1.23037
2834.98971	1.22353
2833.06115	1.21382
2831.13258	1.20459
2829.20402	1.19965
2827.27545	1.19752
2825.34689	1.19407
2823.41832	1.18834
2821.48976	1.18249
2819.56120	1.17755
2817.63263	1.17281
2815.70407	1.16834
2813.77550	1.16476
2811.84694	1.16097
2809.91837	1.15597
2807.98981	1.15100
2806.06124	1.14626
2804.13268	1.14045
2802.20412	1.13443
2800.27555	1.12986
2798.34699	1.12645
2796.41842	1.12403
2794.48986	1.12263
2792.56129	1.12084
2790.63273	1.11762
2788.70416	1.11386
2786.77560	1.11062
2784.84704	1.10753
2782.91847	1.10427
2780.98991	1.10114
2779.06134	1.09798
2777.13278	1.09413
2775.20421	1.09013
2773.27565	1.08772
2771.34708	1.08655
2769.41852	1.08449
2767.48996	1.08062
2765.56139	1.07597
2763.63283	1.07247
2761.70426	1.07006
2759.77570	1.06757
2757.84713	1.06511
2755.91857	1.06345
2753.99001	1.06226
2752.06144	1.05978
2750.13288	1.05656
2748.20431	1.05511
2746.27575	1.05443
2744.34718	1.05279
2742.41862	1.05162
2740.49005	1.05043
2738.56149	1.04702
2736.63293	1.04365
2734.70436	1.04374
2732.77580	1.04570
2730.84723	1.04509
2728.91867	1.04095
2726.99010	1.03696
2725.06154	1.03601
2723.13297	1.03629
2721.20441	1.03379
2719.27585	1.02835
2717.34728	1.02337
2715.41872	1.01999
2713.49015	1.01729
2711.56159	1.01540
2709.63302	1.01364
2707.70446	1.01057
2705.77589	1.00723
2703.84733	1.00498
2701.91877	1.00270
2699.99020	1.00014
2698.06164	0.99842
2696.13307	0.99692
2694.20451	0.99363
2692.27594	0.98871
2690.34738	0.98510
2688.41881	0.98388
2686.49025	0.98200
2684.56169	0.97782
2682.63312	0.97431
2680.70456	0.97274
2678.77599	0.97037
2676.84743	0.96602
2674.91886	0.96129
2672.99030	0.95734
2671.06173	0.95402
2669.13317	0.95084
2667.20461	0.94781
2665.27604	0.94501
2663.34748	0.94205
2661.41891	0.93841
2659.49035	0.93417
2657.56178	0.93002
2655.63322	0.92658
2653.70465	0.92346
2651.77609	0.92045
2649.84753	0.91853
2647.91896	0.91762
2645.99040	0.91592
2644.06183	0.91244
2642.13327	0.90823
2640.20470	0.90477
2638.27614	0.90217
2636.34757	0.89950
2634.41901	0.89655
2632.49045	0.89449
2630.56188	0.89366
2628.63332	0.89251
2626.70475	0.89004
2624.77619	0.88731
2622.84762	0.88563
2620.91906	0.88399
2618.99049	0.88122
2617.06193	0.87852
2615.13337	0.87642
2613.20480	0.87428
2611.27624	0.87250
2609.34767	0.87115
2607.41911	0.86919
2605.49054	0.86619
2603.56198	0.86261
2601.63342	0.85949
2599.70485	0.85748
2597.77629	0.85555
2595.84772	0.85288
2593.91916	0.85016
2591.99059	0.84799
2590.06203	0.84603
2588.13346	0.84355
2586.20490	0.84030
2584.27634	0.83704
2582.34777	0.83474
2580.41921	0.83340
2578.49064	0.83185
2576.56208	0.82922
2574.63351	0.82630
2572.70495	0.82390
2570.77638	0.82170
2568.84782	0.81984
2566.91926	0.81839
2564.99069	0.81635
2563.06213	0.81369
2561.13356	0.81122
2559.20500	0.80872
2557.27643	0.80572
2555.34787	0.80227
2553.41930	0.79887
2551.49074	0.79629
2549.56218	0.79437
2547.63361	0.79224
2545.70505	0.78978
2543.77648	0.78753
2541.84792	0.78567
2539.91935	0.78361
2537.99079	0.78134
2536.06222	0.77995
2534.13366	0.77945
2532.20510	0.77860
2530.27653	0.77674
2528.34797	0.77449
2526.41940	0.77269
2524.49084	0.77118
2522.56227	0.76961
2520.63371	0.76812
2518.70514	0.76656
2516.77658	0.76496
2514.84802	0.76390
2512.91945	0.76343
2510.99089	0.76249
2509.06232	0.76036
2507.13376	0.75794
2505.20519	0.75609
2503.27663	0.75452
2501.34806	0.75276
2499.41950	0.75067
2497.49094	0.74866
2495.56237	0.74719
2493.63381	0.74545
2491.70524	0.74246
2489.77668	0.73917
2487.84811	0.73707
2485.91955	0.73586
2483.99098	0.73378
2482.06242	0.73025
2480.13386	0.72684
2478.20529	0.72422
2476.27673	0.72156
2474.34816	0.71904
2472.41960	0.71723
2470.49103	0.71568
2468.56247	0.71397
2466.63391	0.71219
2464.70534	0.71002
2462.77678	0.70743
2460.84821	0.70512
2458.91965	0.70323
2456.99108	0.70144
2455.06252	0.69931
2453.13395	0.69661
2451.20539	0.69387
2449.27683	0.69132
2447.34826	0.68871
2445.41970	0.68640
2443.49113	0.68468
2441.56257	0.68292
2439.63400	0.68061
2437.70544	0.67810
2435.77687	0.67591
2433.84831	0.67403
2431.91975	0.67209
2429.99118	0.67011
2428.06262	0.66805
2426.13405	0.66590
2424.20549	0.66397
2422.27692	0.66217
2420.34836	0.66031
2418.41979	0.65904
2416.49123	0.65848
2414.56267	0.65731
2412.63410	0.65505
2410.70554	0.65258
2408.77697	0.65026
2406.84841	0.64820
2404.91984	0.64656
2402.99128	0.64487
2401.06271	0.64262
2399.13415	0.64025
2397.20559	0.63816
2395.27702	0.63615
2393.34846	0.63415
2391.41989	0.63194
2389.49133	0.62946
2387.56276	0.62731
2385.63420	0.62615
2383.70563	0.62597
2381.77707	0.62621
2379.84851	0.62655
2377.91994	0.62745
2375.99138	0.62938
2374.06281	0.63169
2372.13425	0.63341
2370.20568	0.63540
2368.27712	0.63766
2366.34855	0.63792
2364.41999	0.63626
2362.49143	0.63434
2360.56286	0.63210
2358.63430	0.62949
2356.70573	0.62706
2354.77717	0.62428
2352.84860	0.61985
2350.92004	0.61487
2348.99147	0.61171
2347.06291	0.61049
2345.13435	0.60982
2343.20578	0.60948
2341.27722	0.61000
2339.34865	0.61019
2337.42009	0.60943
2335.49152	0.60795
2333.56296	0.60620
2331.63440	0.60450
2329.70583	0.60317
2327.77727	0.60260
2325.84870	0.60174
2323.92014	0.59955
2321.99157	0.59666
2320.06301	0.59325
2318.13444	0.58976
2316.20588	0.58716
2314.27732	0.58495
2312.34875	0.58263
2310.42019	0.58012
2308.49162	0.57701
2306.56306	0.57370
2304.63449	0.57074
2302.70593	0.56822
2300.77736	0.56595
2298.84880	0.56356
2296.92024	0.56138
2294.99167	0.55993
2293.06311	0.55868
2291.13454	0.55702
2289.20598	0.55520
2287.27741	0.55370
2285.34885	0.55245
2283.42028	0.55107
2281.49172	0.54956
2279.56316	0.54846
2277.63459	0.54783
2275.70603	0.54718
2273.77746	0.54623
2271.84890	0.54496
2269.92033	0.54324
2267.99177	0.54136
2266.06320	0.53990
2264.13464	0.53875
2262.20608	0.53771
2260.27751	0.53693
2258.34895	0.53618
2256.42038	0.53534
2254.49182	0.53462
2252.56325	0.53413
2250.63469	0.53382
2248.70612	0.53352
2246.77756	0.53322
2244.84900	0.53300
2242.92043	0.53267
2240.99187	0.53235
2239.06330	0.53221
2237.13474	0.53208
2235.20617	0.53192
2233.27761	0.53175
2231.34904	0.53141
2229.42048	0.53097
2227.49192	0.53075
2225.56335	0.53079
2223.63479	0.53079
2221.70622	0.53051
2219.77766	0.53021
2217.84909	0.53036
2215.92053	0.53079
2213.99196	0.53114
2212.06340	0.53122
2210.13484	0.53073
2208.20627	0.52987
2206.27771	0.52923
2204.34914	0.52909
2202.42058	0.52929
2200.49201	0.52947
2198.56345	0.52943
2196.63488	0.52918
2194.70632	0.52894
2192.77776	0.52857
2190.84919	0.52781
2188.92063	0.52693
2186.99206	0.52625
2185.06350	0.52567
2183.13493	0.52520
2181.20637	0.52486
2179.27781	0.52457
2177.34924	0.52415
2175.42068	0.52344
2173.49211	0.52259
2171.56355	0.52223
2169.63498	0.52246
2167.70642	0.52267
2165.77785	0.52268
2163.84929	0.52275
2161.92073	0.52285
2159.99216	0.52277
2158.06360	0.52249
2156.13503	0.52226
2154.20647	0.52231
2152.27790	0.52245
2150.34934	0.52240
2148.42077	0.52242
2146.49221	0.52272
2144.56365	0.52297
2142.63508	0.52299
2140.70652	0.52290
2138.77795	0.52277
2136.84939	0.52263
2134.92082	0.52250
2132.99226	0.52246
2131.06369	0.52282
2129.13513	0.52340
2127.20657	0.52362
2125.27800	0.52362
2123.34944	0.52360
2121.42087	0.52344
2119.49231	0.52326
2117.56374	0.52310
2115.63518	0.52278
2113.70661	0.52239
2111.77805	0.52217
2109.84949	0.52207
2107.92092	0.52166
2105.99236	0.52097
2104.06379	0.52064
2102.13523	0.52053
2100.20666	0.52008
2098.27810	0.51960
2096.34953	0.51952
2094.42097	0.51977
2092.49241	0.51996
2090.56384	0.51983
2088.63528	0.51947
2086.70671	0.51916
2084.77815	0.51909
2082.84958	0.51922
2080.92102	0.51931
2078.99245	0.51909
2077.06389	0.51887
2075.13533	0.51894
2073.20676	0.51880
2071.27820	0.51809
2069.34963	0.51746
2067.42107	0.51732
2065.49250	0.51708
2063.56394	0.51618
2061.63537	0.51508
2059.70681	0.51432
2057.77825	0.51387
2055.84968	0.51334
2053.92112	0.51257
2051.99255	0.51188
2050.06399	0.51136
2048.13542	0.51069
2046.20686	0.50983
2044.27830	0.50907
2042.34973	0.50864
2040.42117	0.50839
2038.49260	0.50775
2036.56404	0.50676
2034.63547	0.50585
2032.70691	0.50490
2030.77834	0.50375
2028.84978	0.50270
2026.92122	0.50180
2024.99265	0.50084
2023.06409	0.49984
2021.13552	0.49882
2019.20696	0.49772
2017.27839	0.49646
2015.34983	0.49511
2013.42126	0.49388
2011.49270	0.49286
2009.56414	0.49197
2007.63557	0.49115
2005.70701	0.49046
2003.77844	0.48986
2001.84988	0.48935
1999.92131	0.48896
1997.99275	0.48871
1996.06418	0.48856
1994.13562	0.48831
1992.20706	0.48789
1990.27849	0.48741
1988.34993	0.48693
1986.42136	0.48637
1984.49280	0.48563
1982.56423	0.48482
1980.63567	0.48398
1978.70710	0.48302
1976.77854	0.48204
1974.84998	0.48117
1972.92141	0.48052
1970.99285	0.48015
1969.06428	0.47990
1967.13572	0.47939
1965.20715	0.47856
1963.27859	0.47792
1961.35002	0.47764
1959.42146	0.47739
1957.49290	0.47699
1955.56433	0.47649
1953.63577	0.47593
1951.70720	0.47551
1949.77864	0.47539
1947.85007	0.47517
1945.92151	0.47459
1943.99294	0.47392
1942.06438	0.47291
1940.13582	0.47120
1938.20725	0.46949
1936.27869	0.46829
1934.35012	0.46721
1932.42156	0.46581
1930.49299	0.46414
1928.56443	0.46259
1926.63586	0.46166
1924.70730	0.46115
1922.77874	0.46040
1920.85017	0.45966
1918.92161	0.45936
1916.99304	0.45902
1915.06448	0.45846
1913.13591	0.45809
1911.20735	0.45784
1909.27878	0.45728
1907.35022	0.45626
1905.42166	0.45478
1903.49309	0.45309
1901.56453	0.45149
1899.63596	0.45003
1897.70740	0.44863
1895.77883	0.44696
1893.85027	0.44486
1891.92171	0.44297
1889.99314	0.44133
1888.06458	0.43925
1886.13601	0.43702
1884.20745	0.43513
1882.27888	0.43375
1880.35032	0.43269
1878.42175	0.43173
1876.49319	0.43085
1874.56463	0.42999
1872.63606	0.42952
1870.70750	0.42987
1868.77893	0.43028
1866.85037	0.42951
1864.92180	0.42845
1862.99324	0.42784
1861.06467	0.42717
1859.13611	0.42597
1857.20755	0.42464
1855.27898	0.42359
1853.35042	0.42245
1851.42185	0.42109
1849.49329	0.42011
1847.56472	0.41978
1845.63616	0.41945
1843.70759	0.41761
1841.77903	0.41513
1839.85047	0.41381
1837.92190	0.41337
1835.99334	0.41307
1834.06477	0.41297
1832.13621	0.41367
1830.20764	0.41468
1828.27908	0.41467
1826.35051	0.41386
1824.42195	0.41286
1822.49339	0.41176
1820.56482	0.41068
1818.63626	0.40972
1816.70769	0.40885
1814.77913	0.40812
1812.85056	0.40732
1810.92200	0.40600
1808.99343	0.40410
1807.06487	0.40203
1805.13631	0.40033
1803.20774	0.39926
1801.27918	0.39854
1799.35061	0.39773
1797.42205	0.39692
1795.49348	0.39654
1793.56492	0.39645
1791.63635	0.39570
1789.70779	0.39449
1787.77923	0.39406
1785.85066	0.39409
1783.92210	0.39421
1781.99353	0.39468
1780.06497	0.39520
1778.13640	0.39556
1776.20784	0.39631
1774.27927	0.39773
1772.35071	0.39917
1770.42215	0.39995
1768.49358	0.40067
1766.56502	0.40160
1764.63645	0.40331
1762.70789	0.40691
1760.77932	0.41228
1758.85076	0.41845
1756.92220	0.42670
1754.99363	0.43594
1753.06507	0.44562
1751.13650	0.45951
1749.20794	0.47754
1747.27937	0.49308
1745.35081	0.50541
1743.42224	0.51632
1741.49368	0.52578
1739.56512	0.53320
1737.63655	0.53778
1735.70799	0.54138
1733.77942	0.54653
1731.85086	0.55008
1729.92229	0.55208
1727.99373	0.55509
1726.06516	0.55966
1724.13660	0.56649
1722.20804	0.57451
1720.27947	0.58303
1718.35091	0.59681
1716.42234	0.61867
1714.49378	0.63689
1712.56521	0.65285
1710.63665	0.67183
1708.70808	0.69466
1706.77952	0.72675
1704.85096	0.76915
1702.92239	0.80802
1700.99383	0.85838
1699.06526	0.93674
1697.13670	1.00916
1695.20813	1.07642
1693.27957	1.12408
1691.35100	1.15751
1689.42244	1.19503
1687.49388	1.22835
1685.56531	1.25758
1683.63675	1.29422
1681.70818	1.31811
1679.77962	1.32937
1677.85105	1.33652
1675.92249	1.34281
1673.99392	1.34945
1672.06536	1.35530
1670.13680	1.36019
1668.20823	1.36303
1666.27967	1.36097
1664.35110	1.35787
1662.42254	1.35617
1660.49397	1.35438
1658.56541	1.35298
1656.63684	1.35167
1654.70828	1.34992
1652.77972	1.34695
1650.85115	1.34724
1648.92259	1.34994
1646.99402	1.35067
1645.06546	1.34632
1643.13689	1.34206
1641.20833	1.34016
1639.27976	1.33869
1637.35120	1.33599
1635.42264	1.32799
1633.49407	1.31844
1631.56551	1.31332
1629.63694	1.30938
1627.70838	1.30417
1625.77981	1.29841
1623.85125	1.29252
1621.92269	1.28545
1619.99412	1.28041
1618.06556	1.27713
1616.13699	1.26835
1614.20843	1.25592
1612.27986	1.24592
1610.35130	1.23824
1608.42273	1.23189
1606.49417	1.22605
1604.56561	1.22079
1602.63704	1.21548
1600.70848	1.21055
1598.77991	1.20754
1596.85135	1.20698
1594.92278	1.20659
1592.99422	1.20546
1591.06565	1.20595
1589.13709	1.20864
1587.20853	1.21230
1585.27996	1.21590
1583.35140	1.22024
1581.42283	1.22590
1579.49427	1.23136
1577.56570	1.23733
1575.63714	1.24509
1573.70857	1.25053
1571.78001	1.25536
1569.85145	1.26169
1567.92288	1.26521
1565.99432	1.26703
1564.06575	1.26975
1562.13719	1.27158
1560.20862	1.27658
1558.28006	1.29046
1556.35149	1.29334
1554.42293	1.29175
1552.49437	1.29142
1550.56580	1.29214
1548.63724	1.29338
1546.70867	1.29446
1544.78011	1.29533
1542.85154	1.29625
1540.92298	1.29233
1538.99441	1.28170
1537.06585	1.27612
1535.13729	1.27236
1533.20872	1.26853
1531.28016	1.26486
1529.35159	1.26066
1527.42303	1.25605
1525.49446	1.25207
1523.56590	1.24907
1521.63733	1.24554
1519.70877	1.24023
1517.78021	1.23230
1515.85164	1.22366
1513.92308	1.21680
1511.99451	1.21003
1510.06595	1.20342
1508.13738	1.19418
1506.20882	1.17096
1504.28025	1.15293
1502.35169	1.14201
1500.42313	1.13255
1498.49456	1.12108
1496.56600	1.10223
1494.63743	1.08410
1492.70887	1.07241
1490.78030	1.06016
1488.85174	1.04189
1486.92317	1.02693
1484.99461	1.01936
1483.06605	1.01608
1481.13748	1.01569
1479.20892	1.01857
1477.28035	1.02609
1475.35179	1.03924
1473.42322	1.05817
1471.49466	1.07505
1469.56610	1.08297
1467.63753	1.08866
1465.70897	1.09582
1463.78040	1.10215
1461.85184	1.10665
1459.92327	1.11297
1457.99471	1.12377
1456.06614	1.12858
1454.13758	1.12498
1452.20902	1.12256
1450.28045	1.12205
1448.35189	1.12175
1446.42332	1.12030
1444.49476	1.11789
1442.56619	1.11502
1440.63763	1.11251
1438.70906	1.11076
1436.78050	1.10878
1434.85194	1.10547
1432.92337	1.10178
1430.99481	1.09837
1429.06624	1.09602
1427.13768	1.09547
1425.20911	1.09665
1423.28055	1.09888
1421.35198	1.10098
1419.42342	1.10388
1417.49486	1.10708
1415.56629	1.10793
1413.63773	1.10728
1411.70916	1.10606
1409.78060	1.10494
1407.85203	1.10458
1405.92347	1.10549
1403.99490	1.10691
1402.06634	1.10738
1400.13778	1.10702
1398.20921	1.10632
1396.28065	1.10524
1394.35208	1.10334
1392.42352	1.10150
1390.49495	1.10111
1388.56639	1.10274
1386.63782	1.10581
1384.70926	1.10858
1382.78070	1.11058
1380.85213	1.11127
1378.92357	1.10991
1376.99500	1.10653
1375.06644	1.10060
1373.13787	1.09122
1371.20931	1.08043
1369.28074	1.06939
1367.35218	1.05861
1365.42362	1.04926
1363.49505	1.04008
1361.56649	1.03085
1359.63792	1.02409
1357.70936	1.01933
1355.78079	1.01573
1353.85223	1.01406
1351.92366	1.01419
1349.99510	1.01449
1348.06654	1.01410
1346.13797	1.01408
1344.20941	1.01529
1342.28084	1.01704
1340.35228	1.01866
1338.42371	1.01979
1336.49515	1.02076
1334.56659	1.02232
1332.63802	1.02463
1330.70946	1.02726
1328.78089	1.02966
1326.85233	1.03110
1324.92376	1.03102
1322.99520	1.03033
1321.06663	1.03050
1319.13807	1.03171
1317.20951	1.03329
1315.28094	1.03478
1313.35238	1.03618
1311.42381	1.03788
1309.49525	1.04004
1307.56668	1.04217
1305.63812	1.04398
1303.70955	1.04542
1301.78099	1.04584
1299.85243	1.04497
1297.92386	1.04356
1295.99530	1.04224
1294.06673	1.04083
1292.13817	1.03920
1290.20960	1.03777
1288.28104	1.03588
1286.35247	1.03256
1284.42391	1.02874
1282.49535	1.02499
1280.56678	1.02047
1278.63822	1.01575
1276.70965	1.01231
1274.78109	1.01052
1272.85252	1.00990
1270.92396	1.01009
1268.99539	1.01134
1267.06683	1.01399
1265.13827	1.01782
1263.20970	1.02244
1261.28114	1.02713
1259.35257	1.03122
1257.42401	1.03504
1255.49544	1.03942
1253.56688	1.04427
1251.63831	1.04861
1249.70975	1.05156
1247.78119	1.05296
1245.85262	1.05303
1243.92406	1.05202
1241.99549	1.04957
1240.06693	1.04496
1238.13836	1.03919
1236.20980	1.03334
1234.28123	1.02630
1232.35267	1.01786
1230.42411	1.00956
1228.49554	1.00124
1226.56698	0.99209
1224.63841	0.98314
1222.70985	0.97485
1220.78128	0.96628
1218.85272	0.95795
1216.92415	0.95185
1214.99559	0.94947
1213.06703	0.95053
1211.13846	0.95370
1209.20990	0.95765
1207.28133	0.96104
1205.35277	0.96298
1203.42420	0.96264
1201.49564	0.95961
1199.56708	0.95480
1197.63851	0.94854
1195.70995	0.94042
1193.78138	0.93122
1191.85282	0.92213
1189.92425	0.91342
1187.99569	0.90515
1186.06712	0.89827
1184.13856	0.89373
1182.21000	0.89196
1180.28143	0.89335
1178.35287	0.89798
1176.42430	0.90587
1174.49574	0.91704
1172.56717	0.93036
1170.63861	0.94486
1168.71004	0.96077
1166.78148	0.97741
1164.85292	0.99357
1162.92435	1.00891
1160.99579	1.02239
1159.06722	1.03184
1157.13866	1.03632
1155.21009	1.03642
1153.28153	1.03351
1151.35296	1.02904
1149.42440	1.02248
1147.49584	1.01344
1145.56727	1.00446
1143.63871	0.99751
1141.71014	0.99290
1139.78158	0.99136
1137.85301	0.99342
1135.92445	0.99818
1133.99588	1.00485
1132.06732	1.01435
1130.13876	1.02677
1128.21019	1.04036
1126.28163	1.05406
1124.35306	1.06731
1122.42450	1.07911
1120.49593	1.08876
1118.56737	1.09612
1116.63880	1.10181
1114.71024	1.10660
1112.78168	1.10994
1110.85311	1.11143
1108.92455	1.11238
1106.99598	1.11312
1105.06742	1.11240
1103.13885	1.10990
1101.21029	1.10680
1099.28172	1.10420
1097.35316	1.10232
1095.42460	1.10198
1093.49603	1.10478
1091.56747	1.11142
1089.63890	1.12128
1087.71034	1.13246
1085.78177	1.14217
1083.85321	1.14795
1081.92464	1.15007
1079.99608	1.15089
1078.06752	1.15024
1076.13895	1.14650
1074.21039	1.14014
1072.28182	1.13288
1070.35326	1.12641
1068.42469	1.12204
1066.49613	1.11921
1064.56756	1.11583
1062.63900	1.11292
1060.71044	1.11222
1058.78187	1.11131
1056.85331	1.10918
1054.92474	1.10739
1052.99618	1.10562
1051.06761	1.10431
1049.13905	1.10406
1047.21049	1.10298
1045.28192	1.10120
1043.35336	1.10135
1041.42479	1.10269
1039.49623	1.10198
1037.56766	1.09950
1035.63910	1.09763
1033.71053	1.09620
1031.78197	1.09376
1029.85341	1.09014
1027.92484	1.08593
1025.99628	1.08095
1024.06771	1.07457
1022.13915	1.06753
1020.21058	1.06139
1018.28202	1.05632
1016.35345	1.05118
1014.42489	1.04591
1012.49633	1.04141
1010.56776	1.03622
1008.63920	1.02789
1006.71063	1.01739
1004.78207	1.00692
1002.85350	0.99651
1000.92494	0.98574
998.99637	0.97538
997.06781	0.96662
995.13925	0.95924
993.21068	0.95146
991.28212	0.94209
989.35355	0.93010
987.42499	0.91434
985.49642	0.89563
983.56786	0.87593
981.63929	0.85668
979.71073	0.83875
977.78217	0.82248
975.85360	0.80777
973.92504	0.79396
971.99647	0.78071
970.06791	0.76782
968.13934	0.75508
966.21078	0.74311
964.28221	0.73280
962.35365	0.72479
960.42509	0.72021
958.49652	0.71994
956.56796	0.72163
954.63939	0.72010
952.71083	0.71306
950.78226	0.70232
948.85370	0.68974
946.92513	0.67717
944.99657	0.66688
943.06801	0.65917
941.13944	0.65275
939.21088	0.64722
937.28231	0.64287
935.35375	0.63995
933.42518	0.63862
931.49662	0.63877
929.56805	0.64041
927.63949	0.64343
925.71093	0.64766
923.78236	0.65291
921.85380	0.65796
919.92523	0.66126
917.99667	0.66279
916.06810	0.66321
914.13954	0.66265
912.21098	0.66140
910.28241	0.66003
908.35385	0.65895
906.42528	0.65848
904.49672	0.65867
902.56815	0.65875
900.63959	0.65810
898.71102	0.65643
896.78246	0.65311
894.85390	0.64776
892.92533	0.64064
890.99677	0.63240
889.06820	0.62402
887.13964	0.61625
885.21107	0.60985
883.28251	0.60591
881.35394	0.60447
879.42538	0.60478
877.49682	0.60646
875.56825	0.60913
873.63969	0.61243
871.71112	0.61628
869.78256	0.62049
867.85399	0.62462
865.92543	0.62846
863.99686	0.63201
862.06830	0.63542
860.13974	0.63887
858.21117	0.64220
856.28261	0.64467
854.35404	0.64577
852.42548	0.64575
850.49691	0.64490
848.56835	0.64322
846.63978	0.64148
844.71122	0.64069
842.78266	0.64054
840.85409	0.63974
838.92553	0.63838
836.99696	0.63795
835.06840	0.63909
833.13983	0.64191
831.21127	0.64577
829.28270	0.64910
827.35414	0.65175
825.42558	0.65527
823.49701	0.65968
821.56845	0.66310
819.63988	0.66531
817.71132	0.66752
815.78275	0.66922
813.85419	0.66951
811.92562	0.66887
809.99706	0.66772
808.06850	0.66582
806.13993	0.66345
804.21137	0.66135
802.28280	0.66007
800.35424	0.65975
798.42567	0.66019
796.49711	0.66150
794.56854	0.66472
792.63998	0.67091
790.71142	0.67978
788.78285	0.69007
786.85429	0.70133
784.92572	0.71405
782.99716	0.72838
781.06859	0.74337
779.14003	0.75810
777.21147	0.77265
775.28290	0.78655
773.35434	0.79799
771.42577	0.80522
769.49721	0.80748
767.56864	0.80568
765.64008	0.80185
763.71151	0.79691
761.78295	0.79111
759.85439	0.78597
757.92582	0.78232
755.99726	0.77934
754.06869	0.77753
752.14013	0.77803
750.21156	0.78062
748.28300	0.78505
746.35443	0.79099
744.42587	0.79776
742.49731	0.80510
740.56874	0.81269
738.64018	0.82059
736.71161	0.82965
734.78305	0.84005
732.85448	0.85026
730.92592	0.85901
728.99735	0.86650
727.06879	0.87333
725.14023	0.87991
723.21166	0.88529
721.28310	0.88752
719.35453	0.88640
717.42597	0.88368
715.49740	0.88152
713.56884	0.88104
711.64027	0.88118
709.71171	0.88011
707.78315	0.87779
705.85458	0.87645
703.92602	0.87742
701.99745	0.87920
700.06889	0.88086
698.14032	0.88364
696.21176	0.88737
694.28319	0.88999
692.35463	0.89156
690.42607	0.89512
688.49750	0.90222
686.56894	0.91012
684.64037	0.91509
682.71181	0.91604
680.78324	0.91538
678.85468	0.91608
676.92611	0.91740
674.99755	0.91653
673.06899	0.91244
671.14042	0.90717
669.21186	0.90204
667.28329	0.89525
665.35473	0.88878
663.42616	0.88429
661.49760	0.88196
659.56903	0.88192
657.64047	0.88331
655.71191	0.88592
653.78334	0.89135
651.85478	0.90060
649.92621	0.91052
647.99765	0.92023
646.06908	0.93350
644.14052	0.94813
642.21195	0.95866
640.28339	0.96539
638.35483	0.97056
636.42626	0.97482
634.49770	0.97716
632.56913	0.97811
630.64057	0.98007
628.71200	0.98053
626.78344	0.97513
624.85488	0.96454
622.92631	0.95245
620.99775	0.94164
619.06918	0.93221
617.14062	0.92199
615.21205	0.91236
613.28349	0.90885
611.35492	0.91195
609.42636	0.91692
607.49780	0.92115
605.56923	0.92442
603.64067	0.92830
601.71210	0.93624
599.78354	0.94792
