3997.91406	0.67358
3995.98550	0.67271
3994.05693	0.67201
3992.12837	0.67338
3990.19980	0.67565
3988.27124	0.67597
3986.34268	0.67496
3984.41411	0.67487
3982.48555	0.67532
3980.55698	0.67501
3978.62842	0.67492
3976.69985	0.67477
3974.77129	0.67264
3972.84272	0.66953
3970.91416	0.66851
3968.98560	0.67021
3967.05703	0.67046
3965.12847	0.66699
3963.19990	0.66373
3961.27134	0.66350
3959.34277	0.66510
3957.41421	0.66757
3955.48564	0.67013
3953.55708	0.67112
3951.62852	0.67013
3949.69995	0.66841
3947.77139	0.66711
3945.84282	0.66646
3943.91426	0.66640
3941.98569	0.66637
3940.05713	0.66561
3938.12856	0.66560
3936.20000	0.66760
3934.27144	0.66913
3932.34287	0.66693
3930.41431	0.66307
3928.48574	0.66240
3926.55718	0.66381
3924.62861	0.66388
3922.70005	0.66351
3920.77148	0.66483
3918.84292	0.66673
3916.91436	0.66655
3914.98579	0.66465
3913.05723	0.66410
3911.12866	0.66492
3909.20010	0.66629
3907.27153	0.66917
3905.34297	0.67221
3903.41440	0.67006
3901.48584	0.66455
3899.55728	0.66078
3897.62871	0.65875
3895.70015	0.65898
3893.77158	0.66018
3891.84302	0.65907
3889.91445	0.65825
3887.98589	0.66129
3886.05733	0.66286
3884.12876	0.65906
3882.20020	0.65595
3880.27163	0.65467
3878.34307	0.65482
3876.41450	0.65628
3874.48594	0.65640
3872.55737	0.65456
3870.62881	0.65150
3868.70025	0.65079
3866.77168	0.65458
3864.84312	0.65750
3862.91455	0.65550
3860.98599	0.65270
3859.05742	0.65302
3857.12886	0.65664
3855.20029	0.66112
3853.27173	0.65830
3851.34317	0.65104
3849.41460	0.64844
3847.48604	0.64834
3845.55747	0.64934
3843.62891	0.65058
3841.70034	0.65154
3839.77178	0.65221
3837.84321	0.65215
3835.91465	0.65136
3833.98609	0.64855
3832.05752	0.64409
3830.12896	0.64234
3828.20039	0.64346
3826.27183	0.64511
3824.34326	0.64903
3822.41470	0.65391
3820.48613	0.65334
3818.55757	0.65085
3816.62901	0.64707
3814.70044	0.64247
3812.77188	0.64312
3810.84331	0.64701
3808.91475	0.65007
3806.98618	0.64978
3805.05762	0.65049
3803.12905	0.65215
3801.20049	0.64649
3799.27193	0.64056
3797.34336	0.63903
3795.41480	0.63715
3793.48623	0.63636
3791.55767	0.63789
3789.62910	0.64023
3787.70054	0.64152
3785.77197	0.64037
3783.84341	0.63900
3781.91485	0.64043
3779.98628	0.64118
3778.05772	0.63904
3776.12915	0.63821
3774.20059	0.63968
3772.27202	0.64200
3770.34346	0.64275
3768.41489	0.64030
3766.48633	0.63675
3764.55777	0.63556
3762.62920	0.63864
3760.70064	0.64203
3758.77207	0.64030
3756.84351	0.63698
3754.91494	0.63762
3752.98638	0.64058
3751.05781	0.64054
3749.12925	0.63890
3747.20069	0.64050
3745.27212	0.64107
3743.34356	0.63930
3741.41499	0.63984
3739.48643	0.64231
3737.55786	0.64497
3735.62930	0.64511
3733.70074	0.64030
3731.77217	0.63635
3729.84361	0.63652
3727.91504	0.63860
3725.98648	0.63932
3724.05791	0.63739
3722.12935	0.63432
3720.20078	0.63203
3718.27222	0.63120
3716.34366	0.63157
3714.41509	0.63374
3712.48653	0.63531
3710.55796	0.63173
3708.62940	0.62932
3706.70083	0.63034
3704.77227	0.63162
3702.84370	0.63147
3700.91514	0.63074
3698.98658	0.63188
3697.05801	0.63420
3695.12945	0.63582
3693.20088	0.63755
3691.27232	0.64112
3689.34375	0.64236
3687.41519	0.63812
3685.48662	0.63508
3683.55806	0.63551
3681.62950	0.63860
3679.70093	0.64311
3677.77237	0.64807
3675.84380	0.64955
3673.91524	0.64953
3671.98667	0.65340
3670.05811	0.65390
3668.12954	0.65017
3666.20098	0.64980
3664.27242	0.65173
3662.34385	0.65610
3660.41529	0.66310
3658.48672	0.66823
3656.55816	0.66831
3654.62959	0.66962
3652.70103	0.67732
3650.77246	0.68750
3648.84390	0.68886
3646.91534	0.68465
3644.98677	0.68387
3643.05821	0.68508
3641.12964	0.68864
3639.20108	0.69431
3637.27251	0.70033
3635.34395	0.70619
3633.41538	0.71295
3631.48682	0.71997
3629.55826	0.72258
3627.62969	0.71989
3625.70113	0.72096
3623.77256	0.72621
3621.84400	0.73432
3619.91543	0.74176
3617.98687	0.74445
3616.05830	0.74664
3614.12974	0.75005
3612.20118	0.75325
3610.27261	0.75540
3608.34405	0.75660
3606.41548	0.76027
3604.48692	0.76714
3602.55835	0.77353
3600.62979	0.77616
3598.70123	0.77706
3596.77266	0.77957
3594.84410	0.78282
3592.91553	0.78644
3590.98697	0.79200
3589.05840	0.79903
3587.12984	0.80303
3585.20127	0.80421
3583.27271	0.80796
3581.34415	0.81399
3579.41558	0.81958
3577.48702	0.82348
3575.55845	0.82613
3573.62989	0.82859
3571.70132	0.83259
3569.77276	0.83792
3567.84419	0.84401
3565.91563	0.85158
3563.98707	0.85872
3562.05850	0.86383
3560.12994	0.86730
3558.20137	0.87108
3556.27281	0.87531
3554.34424	0.87965
3552.41568	0.88459
3550.48711	0.88871
3548.55855	0.89295
3546.62999	0.89849
3544.70142	0.90242
3542.77286	0.90497
3540.84429	0.90906
3538.91573	0.91494
3536.98716	0.92117
3535.05860	0.92632
3533.13003	0.93092
3531.20147	0.93596
3529.27291	0.94067
3527.34434	0.94509
3525.41578	0.94997
3523.48721	0.95433
3521.55865	0.95871
3519.63008	0.96425
3517.70152	0.97000
3515.77295	0.97684
3513.84439	0.98547
3511.91583	0.99221
3509.98726	0.99687
3508.05870	1.00411
3506.13013	1.01597
3504.20157	1.03153
3502.27300	1.04351
3500.34444	1.04710
3498.41587	1.04884
3496.48731	1.05259
3494.55875	1.05551
3492.63018	1.05711
3490.70162	1.06228
3488.77305	1.07300
3486.84449	1.08372
3484.91592	1.08965
3482.98736	1.09364
3481.05879	1.09788
3479.13023	1.09993
3477.20167	1.09935
3475.27310	1.09870
3473.34454	1.10195
3471.41597	1.11057
3469.48741	1.12109
3467.55884	1.12802
3465.63028	1.13092
3463.70171	1.13420
3461.77315	1.13775
3459.84459	1.13868
3457.91602	1.13688
3455.98746	1.13538
3454.05889	1.13723
3452.13033	1.14197
3450.20176	1.14875
3448.27320	1.15585
3446.34464	1.15842
3444.41607	1.15540
3442.48751	1.15342
3440.55894	1.15707
3438.63038	1.16156
3436.70181	1.16275
3434.77325	1.16367
3432.84468	1.16683
3430.91612	1.17077
3428.98756	1.17303
3427.05899	1.17358
3425.13043	1.17358
3423.20186	1.17236
3421.27330	1.16866
3419.34473	1.16340
3417.41617	1.16098
3415.48760	1.16258
3413.55904	1.16392
3411.63048	1.16409
3409.70191	1.16503
3407.77335	1.16557
3405.84478	1.16572
3403.91622	1.16771
3401.98765	1.17141
3400.05909	1.17481
3398.13052	1.17739
3396.20196	1.17965
3394.27340	1.18164
3392.34483	1.18206
3390.41627	1.18088
3388.48770	1.18104
3386.55914	1.18065
3384.63057	1.17679
3382.70201	1.17445
3380.77344	1.17603
3378.84488	1.17843
3376.91632	1.17997
3374.98775	1.17891
3373.05919	1.17791
3371.13062	1.18175
3369.20206	1.18767
3367.27349	1.19179
3365.34493	1.19385
3363.41636	1.19314
3361.48780	1.19138
3359.55924	1.19246
3357.63067	1.19610
3355.70211	1.19976
3353.77354	1.20307
3351.84498	1.20446
3349.91641	1.20177
3347.98785	1.19755
3346.05928	1.19653
3344.13072	1.19904
3342.20216	1.20327
3340.27359	1.21085
3338.34503	1.21916
3336.41646	1.22228
3334.48790	1.22401
3332.55933	1.23042
3330.63077	1.23905
3328.70220	1.24416
3326.77364	1.24498
3324.84508	1.24514
3322.91651	1.24689
3320.98795	1.25071
3319.05938	1.25571
3317.13082	1.26038
3315.20225	1.26453
3313.27369	1.26851
3311.34513	1.27324
3309.41656	1.27846
3307.48800	1.28011
3305.55943	1.27877
3303.63087	1.28178
3301.70230	1.28932
3299.77374	1.29664
3297.84517	1.30176
3295.91661	1.30345
3293.98805	1.30523
3292.05948	1.30761
3290.13092	1.30710
3288.20235	1.30655
3286.27379	1.30581
3284.34522	1.30497
3282.41666	1.30616
3280.48809	1.30370
3278.55953	1.29803
3276.63097	1.29452
3274.70240	1.29261
3272.77384	1.29323
3270.84527	1.29428
3268.91671	1.29222
3266.98814	1.28845
3265.05958	1.28399
3263.13101	1.28012
3261.20245	1.27674
3259.27389	1.27070
3257.34532	1.26021
3255.41676	1.24869
3253.48819	1.24255
3251.55963	1.24037
3249.63106	1.23515
3247.70250	1.22668
3245.77393	1.21840
3243.84537	1.20919
3241.91681	1.19947
3239.98824	1.19491
3238.05968	1.19485
3236.13111	1.19165
3234.20255	1.18441
3232.27398	1.17742
3230.34542	1.17005
3228.41685	1.16107
3226.48829	1.15207
3224.55973	1.14392
3222.63116	1.13906
3220.70260	1.13597
3218.77403	1.12939
3216.84547	1.12288
3214.91690	1.11909
3212.98834	1.11430
3211.05977	1.10808
3209.13121	1.10119
3207.20265	1.09525
3205.27408	1.09181
3203.34552	1.08889
3201.41695	1.08466
3199.48839	1.07937
3197.55982	1.07495
3195.63126	1.07255
3193.70269	1.07049
3191.77413	1.06620
3189.84557	1.05981
3187.91700	1.05440
3185.98844	1.04956
3184.05987	1.04223
3182.13131	1.03438
3180.20274	1.02956
3178.27418	1.02633
3176.34562	1.02205
3174.41705	1.01745
3172.48849	1.01361
3170.55992	1.01035
3168.63136	1.00678
3166.70279	1.00105
3164.77423	0.99428
3162.84566	0.98928
3160.91710	0.98455
3158.98854	0.97865
3157.05997	0.97430
3155.13141	0.97273
3153.20284	0.97137
3151.27428	0.96789
3149.34571	0.96341
3147.41715	0.96052
3145.48858	0.95937
3143.56002	0.95786
3141.63146	0.95486
3139.70289	0.95162
3137.77433	0.94921
3135.84576	0.94830
3133.91720	0.94958
3131.98863	0.95167
3130.06007	0.95274
3128.13150	0.95269
3126.20294	0.95226
3124.27438	0.95159
3122.34581	0.95003
3120.41725	0.94865
3118.48868	0.94955
3116.56012	0.95206
3114.63155	0.95325
3112.70299	0.95318
3110.77442	0.95456
3108.84586	0.95646
3106.91730	0.95722
3104.98873	0.95908
3103.06017	0.96116
3101.13160	0.95814
3099.20304	0.95210
3097.27447	0.94901
3095.34591	0.94753
3093.41734	0.94598
3091.48878	0.94523
3089.56022	0.94380
3087.63165	0.94082
3085.70309	0.93686
3083.77452	0.93346
3081.84596	0.93196
3079.91739	0.93066
3077.98883	0.92754
3076.06026	0.92255
3074.13170	0.91695
3072.20314	0.91312
3070.27457	0.91081
3068.34601	0.90704
3066.41744	0.90183
3064.48888	0.89712
3062.56031	0.89367
3060.63175	0.89175
3058.70318	0.89039
3056.77462	0.88781
3054.84606	0.88373
3052.91749	0.87980
3050.98893	0.87665
3049.06036	0.87315
3047.13180	0.86915
3045.20323	0.86502
3043.27467	0.86023
3041.34610	0.85516
3039.41754	0.85103
3037.48898	0.84761
3035.56041	0.84366
3033.63185	0.83939
3031.70328	0.83609
3029.77472	0.83339
3027.84615	0.82972
3025.91759	0.82604
3023.98903	0.82360
3022.06046	0.82073
3020.13190	0.81709
3018.20333	0.81427
3016.27477	0.81264
3014.34620	0.81213
3012.41764	0.81159
3010.48907	0.80903
3008.56051	0.80526
3006.63195	0.80279
3004.70338	0.80180
3002.77482	0.80112
3000.84625	0.80046
2998.91769	0.79982
2996.98912	0.79972
2995.06056	0.80132
2993.13199	0.80474
2991.20343	0.80892
2989.27487	0.81303
2987.34630	0.81667
2985.41774	0.82020
2983.48917	0.82519
2981.56061	0.83199
2979.63204	0.83878
2977.70348	0.84459
2975.77491	0.85014
2973.84635	0.85569
2971.91779	0.86077
2969.98922	0.86565
2968.06066	0.87106
2966.13209	0.87693
2964.20353	0.88245
2962.27496	0.88573
2960.34640	0.88440
2958.41783	0.87914
2956.48927	0.87329
2954.56071	0.86788
2952.63214	0.86221
2950.70358	0.85761
2948.77501	0.85591
2946.84645	0.85692
2944.91788	0.85932
2942.98932	0.86344
2941.06075	0.87123
2939.13219	0.88137
2937.20363	0.88960
2935.27506	0.89530
2933.34650	0.90131
2931.41793	0.90873
2929.48937	0.91636
2927.56080	0.92292
2925.63224	0.92747
2923.70367	0.92926
2921.77511	0.92920
2919.84655	0.92811
2917.91798	0.92371
2915.98942	0.91380
2914.06085	0.89933
2912.13229	0.88291
2910.20372	0.86728
2908.27516	0.85423
2906.34659	0.84412
2904.41803	0.83663
2902.48947	0.83176
2900.56090	0.82945
2898.63234	0.82816
2896.70377	0.82629
2894.77521	0.82378
2892.84664	0.82093
2890.91808	0.81740
2888.98952	0.81348
2887.06095	0.81040
2885.13239	0.80840
2883.20382	0.80741
2881.27526	0.80751
2879.34669	0.80802
2877.41813	0.80866
2875.48956	0.80905
2873.56100	0.80754
2871.63244	0.80261
2869.70387	0.79518
2867.77531	0.78760
2865.84674	0.78068
2863.91818	0.77521
2861.98961	0.77257
2860.06105	0.77320
2858.13248	0.77601
2856.20392	0.77910
2854.27536	0.78231
2852.34679	0.78557
2850.41823	0.78490
2848.48966	0.77582
2846.56110	0.75945
2844.63253	0.74133
2842.70397	0.72570
2840.77540	0.71373
2838.84684	0.70524
2836.91828	0.69903
2834.98971	0.69358
2833.06115	0.68838
2831.13258	0.68357
2829.20402	0.67965
2827.27545	0.67724
2825.34689	0.67552
2823.41832	0.67306
2821.48976	0.66975
2819.56120	0.66622
2817.63263	0.66318
2815.70407	0.66122
2813.77550	0.65939
2811.84694	0.65663
2809.91837	0.65378
2807.98981	0.65147
2806.06124	0.64899
2804.13268	0.64608
2802.20412	0.64274
2800.27555	0.63939
2798.34699	0.63693
2796.41842	0.63520
2794.48986	0.63326
2792.56129	0.63103
2790.63273	0.62887
2788.70416	0.62673
2786.77560	0.62459
2784.84704	0.62294
2782.91847	0.62222
2780.98991	0.62207
2779.06134	0.62156
2777.13278	0.62025
2775.20421	0.61863
2773.27565	0.61736
2771.34708	0.61622
2769.41852	0.61512
2767.48996	0.61395
2765.56139	0.61188
2763.63283	0.60959
2761.70426	0.60825
2759.77570	0.60706
2757.84713	0.60500
2755.91857	0.60280
2753.99001	0.60157
2752.06144	0.60106
2750.13288	0.59979
2748.20431	0.59711
2746.27575	0.59443
2744.34718	0.59299
2742.41862	0.59205
2740.49005	0.59070
2738.56149	0.58901
2736.63293	0.58738
2734.70436	0.58607
2732.77580	0.58504
2730.84723	0.58400
2728.91867	0.58285
2726.99010	0.58195
2725.06154	0.58114
2723.13297	0.57998
2721.20441	0.57858
2719.27585	0.57710
2717.34728	0.57562
2715.41872	0.57389
2713.49015	0.57210
2711.56159	0.57098
2709.63302	0.57035
2707.70446	0.56932
2705.77589	0.56768
2703.84733	0.56612
2701.91877	0.56498
2699.99020	0.56390
2698.06164	0.56240
2696.13307	0.56051
2694.20451	0.55887
2692.27594	0.55772
2690.34738	0.55689
2688.41881	0.55611
2686.49025	0.55502
2684.56169	0.55377
2682.63312	0.55277
2680.70456	0.55190
2678.77599	0.55109
2676.84743	0.55048
2674.91886	0.54991
2672.99030	0.54936
2671.06173	0.54910
2669.13317	0.54880
2667.20461	0.54784
2665.27604	0.54664
2663.34748	0.54582
2661.41891	0.54530
2659.49035	0.54508
2657.56178	0.54497
2655.63322	0.54452
2653.70465	0.54368
2651.77609	0.54281
2649.84753	0.54245
2647.91896	0.54208
2645.99040	0.54088
2644.06183	0.53967
2642.13327	0.53904
2640.20470	0.53831
2638.27614	0.53766
2636.34757	0.53757
2634.41901	0.53722
2632.49045	0.53628
2630.56188	0.53543
2628.63332	0.53489
2626.70475	0.53464
2624.77619	0.53477
2622.84762	0.53471
2620.91906	0.53399
2618.99049	0.53322
2617.06193	0.53278
2615.13337	0.53218
2613.20480	0.53112
2611.27624	0.52988
2609.34767	0.52878
2607.41911	0.52784
2605.49054	0.52700
2603.56198	0.52591
2601.63342	0.52440
2599.70485	0.52305
2597.77629	0.52201
2595.84772	0.52116
2593.91916	0.52072
2591.99059	0.52024
2590.06203	0.51901
2588.13346	0.51711
2586.20490	0.51528
2584.27634	0.51416
2582.34777	0.51367
2580.41921	0.51324
2578.49064	0.51267
2576.56208	0.51201
2574.63351	0.51121
2572.70495	0.51020
2570.77638	0.50906
2568.84782	0.50829
2566.91926	0.50797
2564.99069	0.50765
2563.06213	0.50718
2561.13356	0.50660
2559.20500	0.50575
2557.27643	0.50454
2555.34787	0.50355
2553.41930	0.50325
2551.49074	0.50307
2549.56218	0.50252
2547.63361	0.50180
2545.70505	0.50127
2543.77648	0.50093
2541.84792	0.50050
2539.91935	0.49975
2537.99079	0.49883
2536.06222	0.49800
2534.13366	0.49720
2532.20510	0.49642
2530.27653	0.49564
2528.34797	0.49489
2526.41940	0.49446
2524.49084	0.49413
2522.56227	0.49358
2520.63371	0.49323
2518.70514	0.49327
2516.77658	0.49287
2514.84802	0.49191
2512.91945	0.49110
2510.99089	0.49068
2509.06232	0.49065
2507.13376	0.49082
2505.20519	0.49061
2503.27663	0.49008
2501.34806	0.48984
2499.41950	0.48992
2497.49094	0.48960
2495.56237	0.48859
2493.63381	0.48759
2491.70524	0.48692
2489.77668	0.48622
2487.84811	0.48555
2485.91955	0.48504
2483.99098	0.48450
2482.06242	0.48383
2480.13386	0.48296
2478.20529	0.48198
2476.27673	0.48103
2474.34816	0.48020
2472.41960	0.47951
2470.49103	0.47868
2468.56247	0.47786
2466.63391	0.47734
2464.70534	0.47684
2462.77678	0.47628
2460.84821	0.47595
2458.91965	0.47542
2456.99108	0.47420
2455.06252	0.47284
2453.13395	0.47208
2451.20539	0.47173
2449.27683	0.47119
2447.34826	0.47055
2445.41970	0.47016
2443.49113	0.46970
2441.56257	0.46880
2439.63400	0.46774
2437.70544	0.46696
2435.77687	0.46627
2433.84831	0.46520
2431.91975	0.46382
2429.99118	0.46263
2428.06262	0.46194
2426.13405	0.46151
2424.20549	0.46092
2422.27692	0.46032
2420.34836	0.46017
2418.41979	0.46032
2416.49123	0.46024
2414.56267	0.45988
2412.63410	0.45944
2410.70554	0.45927
2408.77697	0.45947
2406.84841	0.45957
2404.91984	0.45945
2402.99128	0.45931
2401.06271	0.45917
2399.13415	0.45908
2397.20559	0.45899
2395.27702	0.45890
2393.34846	0.45874
2391.41989	0.45834
2389.49133	0.45777
2387.56276	0.45740
2385.63420	0.45757
2383.70563	0.45828
2381.77707	0.45959
2379.84851	0.46159
2377.91994	0.46392
2375.99138	0.46614
2374.06281	0.46854
2372.13425	0.47191
2370.20568	0.47598
2368.27712	0.47900
2366.34855	0.48015
2364.41999	0.47972
2362.49143	0.47799
2360.56286	0.47547
2358.63430	0.47299
2356.70573	0.47157
2354.77717	0.47035
2352.84860	0.46756
2350.92004	0.46490
2348.99147	0.46479
2347.06291	0.46684
2345.13435	0.46877
2343.20578	0.46962
2341.27722	0.47061
2339.34865	0.47055
2337.42009	0.46913
2335.49152	0.46832
2333.56296	0.46780
2331.63440	0.46607
2329.70583	0.46388
2327.77727	0.46218
2325.84870	0.46080
2323.92014	0.45961
2321.99157	0.45748
2320.06301	0.45390
2318.13444	0.45064
2316.20588	0.44858
2314.27732	0.44687
2312.34875	0.44516
2310.42019	0.44389
2308.49162	0.44322
2306.56306	0.44271
2304.63449	0.44171
2302.70593	0.44041
2300.77736	0.43958
2298.84880	0.43905
2296.92024	0.43830
2294.99167	0.43751
2293.06311	0.43668
2291.13454	0.43557
2289.20598	0.43452
2287.27741	0.43377
2285.34885	0.43314
2283.42028	0.43247
2281.49172	0.43182
2279.56316	0.43122
2277.63459	0.43067
2275.70603	0.43020
2273.77746	0.42969
2271.84890	0.42919
2269.92033	0.42892
2267.99177	0.42868
2266.06320	0.42811
2264.13464	0.42735
2262.20608	0.42690
2260.27751	0.42694
2258.34895	0.42680
2256.42038	0.42614
2254.49182	0.42557
2252.56325	0.42536
2250.63469	0.42530
2248.70612	0.42515
2246.77756	0.42484
2244.84900	0.42453
2242.92043	0.42430
2240.99187	0.42411
2239.06330	0.42399
2237.13474	0.42395
2235.20617	0.42399
2233.27761	0.42417
2231.34904	0.42423
2229.42048	0.42385
2227.49192	0.42337
2225.56335	0.42315
2223.63479	0.42295
2221.70622	0.42245
2219.77766	0.42192
2217.84909	0.42157
2215.92053	0.42125
2213.99196	0.42098
2212.06340	0.42062
2210.13484	0.42009
2208.20627	0.41964
2206.27771	0.41915
2204.34914	0.41847
2202.42058	0.41800
2200.49201	0.41786
2198.56345	0.41756
2196.63488	0.41708
2194.70632	0.41676
2192.77776	0.41662
2190.84919	0.41644
2188.92063	0.41601
2186.99206	0.41549
2185.06350	0.41518
2183.13493	0.41489
2181.20637	0.41441
2179.27781	0.41402
2177.34924	0.41380
2175.42068	0.41349
2173.49211	0.41314
2171.56355	0.41290
2169.63498	0.41249
2167.70642	0.41182
2165.77785	0.41132
2163.84929	0.41116
2161.92073	0.41093
2159.99216	0.41047
2158.06360	0.40994
2156.13503	0.40944
2154.20647	0.40901
2152.27790	0.40858
2150.34934	0.40793
2148.42077	0.40705
2146.49221	0.40633
2144.56365	0.40601
2142.63508	0.40592
2140.70652	0.40576
2138.77795	0.40553
2136.84939	0.40557
2134.92082	0.40572
2132.99226	0.40545
2131.06369	0.40490
2129.13513	0.40447
2127.20657	0.40415
2125.27800	0.40378
2123.34944	0.40323
2121.42087	0.40267
2119.49231	0.40226
2117.56374	0.40186
2115.63518	0.40139
2113.70661	0.40108
2111.77805	0.40097
2109.84949	0.40070
2107.92092	0.40002
2105.99236	0.39907
2104.06379	0.39826
2102.13523	0.39764
2100.20666	0.39691
2098.27810	0.39589
2096.34953	0.39472
2094.42097	0.39378
2092.49241	0.39327
2090.56384	0.39306
2088.63528	0.39281
2086.70671	0.39217
2084.77815	0.39128
2082.84958	0.39061
2080.92102	0.39034
2078.99245	0.39008
2077.06389	0.38956
2075.13533	0.38896
2073.20676	0.38846
2071.27820	0.38811
2069.34963	0.38792
2067.42107	0.38789
2065.49250	0.38777
2063.56394	0.38735
2061.63537	0.38692
2059.70681	0.38657
2057.77825	0.38616
2055.84968	0.38593
2053.92112	0.38591
2051.99255	0.38557
2050.06399	0.38472
2048.13542	0.38382
2046.20686	0.38320
2044.27830	0.38282
2042.34973	0.38217
2040.42117	0.38102
2038.49260	0.37986
2036.56404	0.37900
2034.63547	0.37815
2032.70691	0.37711
2030.77834	0.37604
2028.84978	0.37508
2026.92122	0.37403
2024.99265	0.37282
2023.06409	0.37176
2021.13552	0.37095
2019.20696	0.37018
2017.27839	0.36932
2015.34983	0.36848
2013.42126	0.36758
2011.49270	0.36645
2009.56414	0.36528
2007.63557	0.36426
2005.70701	0.36333
2003.77844	0.36259
2001.84988	0.36217
1999.92131	0.36183
1997.99275	0.36129
1996.06418	0.36073
1994.13562	0.36028
1992.20706	0.35967
1990.27849	0.35882
1988.34993	0.35789
1986.42136	0.35684
1984.49280	0.35585
1982.56423	0.35506
1980.63567	0.35441
1978.70710	0.35390
1976.77854	0.35325
1974.84998	0.35221
1972.92141	0.35098
1970.99285	0.34995
1969.06428	0.34913
1967.13572	0.34821
1965.20715	0.34716
1963.27859	0.34608
1961.35002	0.34483
1959.42146	0.34356
1957.49290	0.34272
1955.56433	0.34227
1953.63577	0.34181
1951.70720	0.34131
1949.77864	0.34096
1947.85007	0.34074
1945.92151	0.34058
1943.99294	0.34029
1942.06438	0.33937
1940.13582	0.33817
1938.20725	0.33753
1936.27869	0.33736
1934.35012	0.33707
1932.42156	0.33640
1930.49299	0.33558
1928.56443	0.33469
1926.63586	0.33396
1924.70730	0.33346
1922.77874	0.33272
1920.85017	0.33185
1918.92161	0.33095
1916.99304	0.32980
1915.06448	0.32889
1913.13591	0.32850
1911.20735	0.32832
1909.27878	0.32789
1907.35022	0.32712
1905.42166	0.32642
1903.49309	0.32584
1901.56453	0.32534
1899.63596	0.32520
1897.70740	0.32554
1895.77883	0.32590
1893.85027	0.32596
1891.92171	0.32608
1889.99314	0.32603
1888.06458	0.32525
1886.13601	0.32435
1884.20745	0.32358
1882.27888	0.32255
1880.35032	0.32117
1878.42175	0.31958
1876.49319	0.31796
1874.56463	0.31631
1872.63606	0.31505
1870.70750	0.31433
1868.77893	0.31294
1866.85037	0.31027
1864.92180	0.30790
1862.99324	0.30630
1861.06467	0.30493
1859.13611	0.30342
1857.20755	0.30196
1855.27898	0.30085
1853.35042	0.29992
1851.42185	0.29924
1849.49329	0.29922
1847.56472	0.29959
1845.63616	0.29950
1843.70759	0.29805
1841.77903	0.29646
1839.85047	0.29569
1837.92190	0.29491
1835.99334	0.29390
1834.06477	0.29344
1832.13621	0.29358
1830.20764	0.29306
1828.27908	0.29164
1826.35051	0.29028
1824.42195	0.28863
1822.49339	0.28697
1820.56482	0.28571
1818.63626	0.28466
1816.70769	0.28371
1814.77913	0.28315
1812.85056	0.28300
1810.92200	0.28262
1808.99343	0.28174
1807.06487	0.28109
1805.13631	0.28120
1803.20774	0.28175
1801.27918	0.28199
1799.35061	0.28183
1797.42205	0.28201
1795.49348	0.28272
1793.56492	0.28336
1791.63635	0.28287
1789.70779	0.28177
1787.77923	0.28139
1785.85066	0.28126
1783.92210	0.28107
1781.99353	0.28113
1780.06497	0.28094
1778.13640	0.28067
1776.20784	0.28126
1774.27927	0.28271
1772.35071	0.28327
1770.42215	0.28205
1768.49358	0.28101
1766.56502	0.28091
1764.63645	0.28188
1762.70789	0.28348
1760.77932	0.28511
1758.85076	0.28701
1756.92220	0.28954
1754.99363	0.29248
1753.06507	0.29635
1751.13650	0.30237
1749.20794	0.30945
1747.27937	0.31487
1745.35081	0.31914
1743.42224	0.32329
1741.49368	0.32732
1739.56512	0.33081
1737.63655	0.33367
1735.70799	0.33657
1733.77942	0.33967
1731.85086	0.34120
1729.92229	0.34230
1727.99373	0.34433
1726.06516	0.34745
1724.13660	0.35170
1722.20804	0.35646
1720.27947	0.36203
1718.35091	0.37069
1716.42234	0.38267
1714.49378	0.39231
1712.56521	0.40120
1710.63665	0.41257
1708.70808	0.42720
1706.77952	0.44873
1704.85096	0.47738
1702.92239	0.50475
1700.99383	0.54201
1699.06526	0.59671
1697.13670	0.64442
1695.20813	0.68960
1693.27957	0.72502
1691.35100	0.75480
1689.42244	0.79064
1687.49388	0.82486
1685.56531	0.86095
1683.63675	0.91696
1681.70818	0.95954
1679.77962	0.98546
1677.85105	1.01076
1675.92249	1.04244
1673.99392	1.07680
1672.06536	1.10242
1670.13680	1.12813
1668.20823	1.15654
1666.27967	1.17406
1664.35110	1.18829
1662.42254	1.20577
1660.49397	1.21961
1658.56541	1.22791
1656.63684	1.23451
1654.70828	1.24493
1652.77972	1.25658
1650.85115	1.25488
1648.92259	1.25045
1646.99402	1.24452
1645.06546	1.23998
1643.13689	1.23946
1641.20833	1.24145
1639.27976	1.24356
1637.35120	1.24560
1635.42264	1.24359
1633.49407	1.23593
1631.56551	1.22979
1629.63694	1.22301
1627.70838	1.21376
1625.77981	1.20255
1623.85125	1.18412
1621.92269	1.15732
1619.99412	1.13413
1618.06556	1.10561
1616.13699	1.05821
1614.20843	1.01822
1612.27986	0.98895
1610.35130	0.95799
1608.42273	0.92477
1606.49417	0.89557
1604.56561	0.87309
1602.63704	0.85586
1600.70848	0.84330
1598.77991	0.83475
1596.85135	0.82899
1594.92278	0.82472
1592.99422	0.82194
1591.06565	0.82197
1589.13709	0.82519
1587.20853	0.83110
1585.27996	0.83961
1583.35140	0.85120
1581.42283	0.86512
1579.49427	0.87976
1577.56570	0.89761
1575.63714	0.92076
1573.70857	0.93760
1571.78001	0.95077
1569.85145	0.97063
1567.92288	0.99263
1565.99432	1.00966
1564.06575	1.02570
1562.13719	1.03886
1560.20862	1.05156
1558.28006	1.07324
1556.35149	1.08685
1554.42293	1.09424
1552.49437	1.10072
1550.56580	1.10469
1548.63724	1.10411
1546.70867	1.10221
1544.78011	1.10233
1542.85154	1.10338
1540.92298	1.09655
1538.99441	1.08227
1537.06585	1.07760
1535.13729	1.07439
1533.20872	1.06610
1531.28016	1.05734
1529.35159	1.05229
1527.42303	1.04809
1525.49446	1.04499
1523.56590	1.04450
1521.63733	1.04238
1519.70877	1.03845
1517.78021	1.03235
1515.85164	1.02105
1513.92308	1.00751
1511.99451	0.99344
1510.06595	0.97996
1508.13738	0.95511
1506.20882	0.90110
1504.28025	0.86982
1502.35169	0.85188
1500.42313	0.83209
1498.49456	0.80661
1496.56600	0.77603
1494.63743	0.75272
1492.70887	0.73832
1490.78030	0.72244
1488.85174	0.69950
1486.92317	0.68079
1484.99461	0.66974
1483.06605	0.66250
1481.13748	0.65748
1479.20892	0.65548
1477.28035	0.65799
1475.35179	0.66591
1473.42322	0.68082
1471.49466	0.69752
1469.56610	0.70784
1467.63753	0.71555
1465.70897	0.72439
1463.78040	0.73367
1461.85184	0.74083
1459.92327	0.74780
1457.99471	0.75955
1456.06614	0.77234
1454.13758	0.77642
1452.20902	0.77796
1450.28045	0.78017
1448.35189	0.78211
1446.42332	0.78127
1444.49476	0.77843
1442.56619	0.77528
1440.63763	0.77260
1438.70906	0.76963
1436.78050	0.76258
1434.85194	0.75209
1432.92337	0.74331
1430.99481	0.73430
1429.06624	0.72418
1427.13768	0.71636
1425.20911	0.71121
1423.28055	0.70790
1421.35198	0.70649
1419.42342	0.70532
1417.49486	0.70199
1415.56629	0.69801
1413.63773	0.69442
1411.70916	0.69048
1409.78060	0.68623
1407.85203	0.68315
1405.92347	0.68231
1403.99490	0.68299
1402.06634	0.68434
1400.13778	0.68691
1398.20921	0.69052
1396.28065	0.69403
1394.35208	0.69747
1392.42352	0.70179
1390.49495	0.70847
1388.56639	0.72045
1386.63782	0.73865
1384.70926	0.75749
1382.78070	0.77454
1380.85213	0.78883
1378.92357	0.79701
1376.99500	0.79755
1375.06644	0.78870
1373.13787	0.77100
1371.20931	0.75103
1369.28074	0.72891
1367.35218	0.70466
1365.42362	0.68275
1363.49505	0.66191
1361.56649	0.64206
1359.63792	0.62791
1357.70936	0.61881
1355.78079	0.61260
1353.85223	0.60847
1351.92366	0.60583
1349.99510	0.60427
1348.06654	0.60383
1346.13797	0.60470
1344.20941	0.60679
1342.28084	0.60996
1340.35228	0.61442
1338.42371	0.61999
1336.49515	0.62654
1334.56659	0.63496
1332.63802	0.64569
1330.70946	0.65768
1328.78089	0.66827
1326.85233	0.67528
1324.92376	0.67884
1322.99520	0.68072
1321.06663	0.68269
1319.13807	0.68539
1317.20951	0.68820
1315.28094	0.69049
1313.35238	0.69225
1311.42381	0.69285
1309.49525	0.69184
1307.56668	0.68955
1305.63812	0.68662
1303.70955	0.68358
1301.78099	0.68008
1299.85243	0.67555
1297.92386	0.67006
1295.99530	0.66456
1294.06673	0.66052
1292.13817	0.65849
1290.20960	0.65819
1288.28104	0.65912
1286.35247	0.66053
1284.42391	0.66189
1282.49535	0.66345
1280.56678	0.66562
1278.63822	0.66855
1276.70965	0.67234
1274.78109	0.67715
1272.85252	0.68313
1270.92396	0.69028
1268.99539	0.69844
1267.06683	0.70691
1265.13827	0.71400
1263.20970	0.71839
1261.28114	0.72036
1259.35257	0.72094
1257.42401	0.72103
1255.49544	0.72107
1253.56688	0.72078
1251.63831	0.72013
1249.70975	0.71984
1247.78119	0.72015
1245.85262	0.72043
1243.92406	0.72014
1241.99549	0.71923
1240.06693	0.71784
1238.13836	0.71619
1236.20980	0.71426
1234.28123	0.71127
1232.35267	0.70671
1230.42411	0.70076
1228.49554	0.69388
1226.56698	0.68637
1224.63841	0.67836
1222.70985	0.67009
1220.78128	0.66188
1218.85272	0.65436
1216.92415	0.64830
1214.99559	0.64441
1213.06703	0.64336
1211.13846	0.64495
1209.20990	0.64741
1207.28133	0.64846
1205.35277	0.64635
1203.42420	0.64059
1201.49564	0.63212
1199.56708	0.62257
1197.63851	0.61292
1195.70995	0.60354
1193.78138	0.59530
1191.85282	0.58932
1189.92425	0.58597
1187.99569	0.58494
1186.06712	0.58567
1184.13856	0.58780
1182.21000	0.59136
1180.28143	0.59682
1178.35287	0.60492
1176.42430	0.61563
1174.49574	0.62781
1172.56717	0.64052
1170.63861	0.65414
1168.71004	0.66983
1166.78148	0.68792
1164.85292	0.70688
1162.92435	0.72416
1160.99579	0.73701
1159.06722	0.74342
1157.13866	0.74309
1155.21009	0.73642
1153.28153	0.72465
1151.35296	0.71017
1149.42440	0.69436
1147.49584	0.67828
1145.56727	0.66429
1143.63871	0.65448
1141.71014	0.64974
1139.78158	0.65018
1137.85301	0.65475
1135.92445	0.66216
1133.99588	0.67224
1132.06732	0.68535
1130.13876	0.70176
1128.21019	0.72102
1126.28163	0.74148
1124.35306	0.76090
1122.42450	0.77786
1120.49593	0.79218
1118.56737	0.80351
1116.63880	0.81042
1114.71024	0.81144
1112.78168	0.80742
1110.85311	0.80128
1108.92455	0.79501
1106.99598	0.78888
1105.06742	0.78298
1103.13885	0.77815
1101.21029	0.77550
1099.28172	0.77593
1097.35316	0.78007
1095.42460	0.78765
1093.49603	0.79775
1091.56747	0.81034
1089.63890	0.82609
1087.71034	0.84524
1085.78177	0.86690
1083.85321	0.88886
1081.92464	0.90901
1079.99608	0.92510
1078.06752	0.93447
1076.13895	0.93759
1074.21039	0.93641
1072.28182	0.93135
1070.35326	0.92288
1068.42469	0.91171
1066.49613	0.89892
1064.56756	0.88566
1062.63900	0.87175
1060.71044	0.85675
1058.78187	0.84144
1056.85331	0.82696
1054.92474	0.81399
1052.99618	0.80373
1051.06761	0.79731
1049.13905	0.79434
1047.21049	0.79514
1045.28192	0.80070
1043.35336	0.80975
1041.42479	0.82003
1039.49623	0.83026
1037.56766	0.83924
1035.63910	0.84557
1033.71053	0.84873
1031.78197	0.84922
1029.85341	0.84700
1027.92484	0.84106
1025.99628	0.83187
1024.06771	0.82182
1022.13915	0.81243
1020.21058	0.80420
1018.28202	0.79754
1016.35345	0.79085
1014.42489	0.78077
1012.49633	0.76569
1010.56776	0.74611
1008.63920	0.72316
1006.71063	0.69954
1004.78207	0.67787
1002.85350	0.65835
1000.92494	0.64108
998.99637	0.62699
997.06781	0.61585
995.13925	0.60655
993.21068	0.59815
991.28212	0.59012
989.35355	0.58219
987.42499	0.57450
985.49642	0.56762
983.56786	0.56217
981.63929	0.55847
979.71073	0.55656
977.78217	0.55593
975.85360	0.55521
973.92504	0.55283
971.99647	0.54834
970.06791	0.54242
968.13934	0.53585
966.21078	0.52976
964.28221	0.52583
962.35365	0.52563
960.42509	0.53066
958.49652	0.54059
956.56796	0.55123
954.63939	0.55722
952.71083	0.55624
950.78226	0.54956
948.85370	0.54037
946.92513	0.53152
944.99657	0.52414
943.06801	0.51860
941.13944	0.51518
939.21088	0.51298
937.28231	0.51091
935.35375	0.50916
933.42518	0.50818
931.49662	0.50797
929.56805	0.50810
927.63949	0.50820
925.71093	0.50867
923.78236	0.50974
921.85380	0.51060
919.92523	0.51044
917.99667	0.50932
916.06810	0.50788
914.13954	0.50690
912.21098	0.50679
910.28241	0.50777
908.35385	0.50985
906.42528	0.51258
904.49672	0.51590
902.56815	0.51995
900.63959	0.52414
898.71102	0.52755
896.78246	0.52973
894.85390	0.53068
892.92533	0.53052
890.99677	0.52954
889.06820	0.52844
887.13964	0.52799
885.21107	0.52817
883.28251	0.52851
881.35394	0.52877
879.42538	0.52905
877.49682	0.52959
875.56825	0.53007
873.63969	0.53017
871.71112	0.53040
869.78256	0.53111
867.85399	0.53204
865.92543	0.53303
863.99686	0.53406
862.06830	0.53521
860.13974	0.53693
858.21117	0.53953
856.28261	0.54257
854.35404	0.54558
852.42548	0.54858
850.49691	0.55130
848.56835	0.55337
846.63978	0.55528
844.71122	0.55764
842.78266	0.56035
840.85409	0.56321
838.92553	0.56613
836.99696	0.56892
835.06840	0.57153
833.13983	0.57398
831.21127	0.57592
829.28270	0.57675
827.35414	0.57680
825.42558	0.57718
823.49701	0.57771
821.56845	0.57715
819.63988	0.57589
817.71132	0.57529
815.78275	0.57515
813.85419	0.57475
811.92562	0.57407
809.99706	0.57317
808.06850	0.57239
806.13993	0.57196
804.21137	0.57113
802.28280	0.56967
800.35424	0.56841
798.42567	0.56808
796.49711	0.56864
794.56854	0.56928
792.63998	0.56943
790.71142	0.56957
788.78285	0.57027
786.85429	0.57126
784.92572	0.57232
782.99716	0.57381
781.06859	0.57547
779.14003	0.57652
777.21147	0.57727
775.28290	0.57874
773.35434	0.58090
771.42577	0.58326
769.49721	0.58584
767.56864	0.58864
765.64008	0.59114
763.71151	0.59279
761.78295	0.59362
759.85439	0.59452
757.92582	0.59667
755.99726	0.59968
754.06869	0.60217
752.14013	0.60409
750.21156	0.60631
748.28300	0.60933
746.35443	0.61259
744.42587	0.61486
742.49731	0.61590
740.56874	0.61617
738.64018	0.61601
736.71161	0.61585
734.78305	0.61613
732.85448	0.61716
730.92592	0.61888
728.99735	0.62081
727.06879	0.62243
725.14023	0.62384
723.21166	0.62624
721.28310	0.63024
719.35453	0.63451
717.42597	0.63746
715.49740	0.63937
713.56884	0.64164
711.64027	0.64501
709.71171	0.64874
707.78315	0.65211
705.85458	0.65566
703.92602	0.65895
701.99745	0.66154
700.06889	0.66375
698.14032	0.66450
696.21176	0.66374
694.28319	0.66343
692.35463	0.66404
690.42607	0.66407
688.49750	0.66264
686.56894	0.66083
684.64037	0.65896
682.71181	0.65580
680.78324	0.65161
678.85468	0.64786
676.92611	0.64528
674.99755	0.64316
673.06899	0.64089
671.14042	0.63896
669.21186	0.63690
667.28329	0.63362
665.35473	0.63116
663.42616	0.62948
661.49760	0.62807
659.56903	0.62731
657.64047	0.62652
655.71191	0.62490
653.78334	0.62346
651.85478	0.62390
649.92621	0.62498
647.99765	0.62374
646.06908	0.62117
644.14052	0.61993
642.21195	0.62051
640.28339	0.62259
638.35483	0.62486
636.42626	0.62523
634.49770	0.62373
632.56913	0.62237
630.64057	0.62183
628.71200	0.62152
626.78344	0.62208
624.85488	0.62397
622.92631	0.62598
620.99775	0.62841
619.06918	0.63307
617.14062	0.63822
615.21205	0.64109
613.28349	0.64326
611.35492	0.64648
609.42636	0.64951
607.49780	0.65121
605.56923	0.65325
603.64067	0.65639
601.71210	0.65820
599.78354	0.65786
