3997.91406	0.52805
3995.98550	0.52676
3994.05693	0.52610
3992.12837	0.52587
3990.19980	0.52671
3988.27124	0.52734
3986.34268	0.52596
3984.41411	0.52439
3982.48555	0.52462
3980.55698	0.52534
3978.62842	0.52493
3976.69985	0.52464
3974.77129	0.52577
3972.84272	0.52639
3970.91416	0.52580
3968.98560	0.52536
3967.05703	0.52449
3965.12847	0.52309
3963.19990	0.52303
3961.27134	0.52385
3959.34277	0.52361
3957.41421	0.52325
3955.48564	0.52372
3953.55708	0.52389
3951.62852	0.52305
3949.69995	0.52232
3947.77139	0.52172
3945.84282	0.51960
3943.91426	0.51949
3941.98569	0.52349
3940.05713	0.52559
3938.12856	0.52333
3936.20000	0.51856
3934.27144	0.51501
3932.34287	0.51675
3930.41431	0.51980
3928.48574	0.51802
3926.55718	0.51631
3924.62861	0.51998
3922.70005	0.52173
3920.77148	0.51769
3918.84292	0.51640
3916.91436	0.52050
3914.98579	0.52040
3913.05723	0.51514
3911.12866	0.51126
3909.20010	0.50747
3907.27153	0.50087
3905.34297	0.49773
3903.41440	0.50232
3901.48584	0.50820
3899.55728	0.51529
3897.62871	0.51795
3895.70015	0.51067
3893.77158	0.50281
3891.84302	0.50671
3889.91445	0.51028
3887.98589	0.50368
3886.05733	0.50228
3884.12876	0.50533
3882.20020	0.50205
3880.27163	0.50505
3878.34307	0.50772
3876.41450	0.50198
3874.48594	0.49719
3872.55737	0.49565
3870.62881	0.50042
3868.70025	0.50601
3866.77168	0.50060
3864.84312	0.49939
3862.91455	0.50895
3860.98599	0.50989
3859.05742	0.49901
3857.12886	0.48264
3855.20029	0.47275
3853.27173	0.49806
3851.34317	0.51981
3849.41460	0.51397
3847.48604	0.50246
3845.55747	0.49384
3843.62891	0.49067
3841.70034	0.49029
3839.77178	0.49413
3837.84321	0.50493
3835.91465	0.50954
3833.98609	0.50767
3832.05752	0.50671
3830.12896	0.50474
3828.20039	0.50168
3826.27183	0.49852
3824.34326	0.48954
3822.41470	0.48325
3820.48613	0.49210
3818.55757	0.49391
3816.62901	0.49508
3814.70044	0.50249
3812.77188	0.50003
3810.84331	0.49078
3808.91475	0.48539
3806.98618	0.49007
3805.05762	0.48916
3803.12905	0.48290
3801.20049	0.49258
3799.27193	0.50069
3797.34336	0.50087
3795.41480	0.50308
3793.48623	0.50114
3791.55767	0.49682
3789.62910	0.49443
3787.70054	0.49237
3785.77197	0.49253
3783.84341	0.49380
3781.91485	0.49145
3779.98628	0.49222
3778.05772	0.49709
3776.12915	0.49595
3774.20059	0.48934
3772.27202	0.48297
3770.34346	0.48326
3768.41489	0.48589
3766.48633	0.48627
3764.55777	0.48760
3762.62920	0.48405
3760.70064	0.47841
3758.77207	0.47998
3756.84351	0.48064
3754.91494	0.47277
3752.98638	0.46263
3751.05781	0.46633
3749.12925	0.47528
3747.20069	0.47227
3745.27212	0.47753
3743.34356	0.49021
3741.41499	0.48530
3739.48643	0.47015
3737.55786	0.45864
3735.62930	0.46465
3733.70074	0.48287
3731.77217	0.48948
3729.84361	0.48366
3727.91504	0.47558
3725.98648	0.47448
3724.05791	0.47943
3722.12935	0.48363
3720.20078	0.48545
3718.27222	0.48370
3716.34366	0.47724
3714.41509	0.46837
3712.48653	0.47033
3710.55796	0.49002
3708.62940	0.49762
3706.70083	0.49054
3704.77227	0.48124
3702.84370	0.48011
3700.91514	0.48711
3698.98658	0.48891
3697.05801	0.48548
3695.12945	0.48046
3693.20088	0.47309
3691.27232	0.46898
3689.34375	0.48328
3687.41519	0.49924
3685.48662	0.49883
3683.55806	0.49252
3681.62950	0.48710
3679.70093	0.48115
3677.77237	0.47599
3675.84380	0.48909
3673.91524	0.50222
3671.98667	0.49634
3670.05811	0.50173
3668.12954	0.51449
3666.20098	0.51416
3664.27242	0.51070
3662.34385	0.50957
3660.41529	0.50804
3658.48672	0.50751
3656.55816	0.51438
3654.62959	0.51695
3652.70103	0.50591
3650.77246	0.50048
3648.84390	0.53038
3646.91534	0.55335
3644.98677	0.55221
3643.05821	0.54829
3641.12964	0.54774
3639.20108	0.54877
3637.27251	0.55002
3635.34395	0.55200
3633.41538	0.55135
3631.48682	0.54608
3629.55826	0.55384
3627.62969	0.57731
3625.70113	0.58139
3623.77256	0.57397
3621.84400	0.56722
3619.91543	0.57211
3617.98687	0.58644
3616.05830	0.59158
3614.12974	0.59331
3612.20118	0.59621
3610.27261	0.59767
3608.34405	0.60610
3606.41548	0.61726
3604.48692	0.61934
3602.55835	0.61941
3600.62979	0.62444
3598.70123	0.62897
3596.77266	0.63135
3594.84410	0.63757
3592.91553	0.64202
3590.98697	0.63780
3589.05840	0.63672
3587.12984	0.65235
3585.20127	0.66583
3583.27271	0.66796
3581.34415	0.66897
3579.41558	0.67263
3577.48702	0.67744
3575.55845	0.68219
3573.62989	0.68618
3571.70132	0.68681
3569.77276	0.68556
3567.84419	0.69545
3565.91563	0.71670
3563.98707	0.72537
3562.05850	0.72614
3560.12994	0.72856
3558.20137	0.73319
3556.27281	0.73767
3554.34424	0.74083
3552.41568	0.74487
3550.48711	0.74815
3548.55855	0.74885
3546.62999	0.75457
3544.70142	0.76728
3542.77286	0.77644
3540.84429	0.78006
3538.91573	0.78302
3536.98716	0.78860
3535.05860	0.79654
3533.13003	0.80343
3531.20147	0.80758
3529.27291	0.81142
3527.34434	0.81714
3525.41578	0.82327
3523.48721	0.83030
3521.55865	0.83928
3519.63008	0.84853
3517.70152	0.85699
3515.77295	0.86376
3513.84439	0.86871
3511.91583	0.87371
3509.98726	0.88181
3508.05870	0.89225
3506.13013	0.90074
3504.20157	0.90923
3502.27300	0.92045
3500.34444	0.93049
3498.41587	0.93721
3496.48731	0.94347
3494.55875	0.95237
3492.63018	0.96192
3490.70162	0.96926
3488.77305	0.97598
3486.84449	0.98364
3484.91592	0.99006
3482.98736	0.99558
3481.05879	1.00224
3479.13023	1.00704
3477.20167	1.00896
3475.27310	1.00968
3473.34454	1.00933
3471.41597	1.01183
3469.48741	1.02041
3467.55884	1.02988
3465.63028	1.03464
3463.70171	1.03717
3461.77315	1.04028
3459.84459	1.04273
3457.91602	1.04597
3455.98746	1.05283
3454.05889	1.06063
3452.13033	1.06483
3450.20176	1.06590
3448.27320	1.06770
3446.34464	1.07163
3444.41607	1.07491
3442.48751	1.07576
3440.55894	1.07357
3438.63038	1.07082
3436.70181	1.07400
3434.77325	1.08242
3432.84468	1.08637
3430.91612	1.08230
3428.98756	1.07954
3427.05899	1.08601
3425.13043	1.09492
3423.20186	1.09537
3421.27330	1.09003
3419.34473	1.08974
3417.41617	1.09418
3415.48760	1.09477
3413.55904	1.09181
3411.63048	1.09224
3409.70191	1.09628
3407.77335	1.09885
3405.84478	1.09763
3403.91622	1.09512
3401.98765	1.09448
3400.05909	1.09542
3398.13052	1.09734
3396.20196	1.09911
3394.27340	1.09833
3392.34483	1.09771
3390.41627	1.10145
3388.48770	1.10519
3386.55914	1.10317
3384.63057	1.10033
3382.70201	1.10321
3380.77344	1.10952
3378.84488	1.11337
3376.91632	1.11374
3374.98775	1.11603
3373.05919	1.11932
3371.13062	1.11709
3369.20206	1.11210
3367.27349	1.11150
3365.34493	1.11666
3363.41636	1.12556
3361.48780	1.13501
3359.55924	1.13978
3357.63067	1.14121
3355.70211	1.14535
3353.77354	1.14903
3351.84498	1.14779
3349.91641	1.14661
3347.98785	1.14952
3346.05928	1.15242
3344.13072	1.15325
3342.20216	1.15629
3340.27359	1.16144
3338.34503	1.16471
3336.41646	1.16781
3334.48790	1.17253
3332.55933	1.17454
3330.63077	1.17488
3328.70220	1.17858
3326.77364	1.18295
3324.84508	1.18680
3322.91651	1.19310
3320.98795	1.19925
3319.05938	1.20230
3317.13082	1.20488
3315.20225	1.20928
3313.27369	1.21390
3311.34513	1.21675
3309.41656	1.21641
3307.48800	1.21579
3305.55943	1.22264
3303.63087	1.23663
3301.70230	1.24942
3299.77374	1.25525
3297.84517	1.25229
3295.91661	1.24632
3293.98805	1.24658
3292.05948	1.25139
3290.13092	1.25512
3288.20235	1.25835
3286.27379	1.25882
3284.34522	1.25408
3282.41666	1.24872
3280.48809	1.24734
3278.55953	1.24976
3276.63097	1.25174
3274.70240	1.24830
3272.77384	1.23993
3270.84527	1.23137
3268.91671	1.22450
3266.98814	1.21998
3265.05958	1.21836
3263.13101	1.21510
3261.20245	1.20698
3259.27389	1.19883
3257.34532	1.19335
3255.41676	1.18747
3253.48819	1.18039
3251.55963	1.17231
3249.63106	1.16107
3247.70250	1.14788
3245.77393	1.13895
3243.84537	1.13537
3241.91681	1.13027
3239.98824	1.12197
3238.05968	1.11372
3236.13111	1.10475
3234.20255	1.09606
3232.27398	1.09166
3230.34542	1.09057
3228.41685	1.08907
3226.48829	1.08679
3224.55973	1.08424
3222.63116	1.08161
3220.70260	1.07907
3218.77403	1.07475
3216.84547	1.06830
3214.91690	1.06249
3212.98834	1.05799
3211.05977	1.05301
3209.13121	1.04743
3207.20265	1.04213
3205.27408	1.03706
3203.34552	1.03250
3201.41695	1.02880
3199.48839	1.02552
3197.55982	1.02146
3195.63126	1.01632
3193.70269	1.01108
3191.77413	1.00545
3189.84557	0.99978
3187.91700	0.99543
3185.98844	0.99174
3184.05987	0.98701
3182.13131	0.98139
3180.20274	0.97596
3178.27418	0.97109
3176.34562	0.96673
3174.41705	0.96210
3172.48849	0.95730
3170.55992	0.95297
3168.63136	0.94926
3166.70279	0.94702
3164.77423	0.94469
3162.84566	0.94056
3160.91710	0.93643
3158.98854	0.93279
3157.05997	0.92836
3155.13141	0.92373
3153.20284	0.92000
3151.27428	0.91748
3149.34571	0.91572
3147.41715	0.91341
3145.48858	0.91079
3143.56002	0.90875
3141.63146	0.90620
3139.70289	0.90381
3137.77433	0.90283
3135.84576	0.90155
3133.91720	0.90016
3131.98863	0.90087
3130.06007	0.90304
3128.13150	0.90434
3126.20294	0.90413
3124.27438	0.90322
3122.34581	0.90164
3120.41725	0.89956
3118.48868	0.89864
3116.56012	0.89959
3114.63155	0.90173
3112.70299	0.90346
3110.77442	0.90321
3108.84586	0.90248
3106.91730	0.90306
3104.98873	0.90401
3103.06017	0.90402
3101.13160	0.90310
3099.20304	0.90335
3097.27447	0.90541
3095.34591	0.90646
3093.41734	0.90526
3091.48878	0.90398
3089.56022	0.90316
3087.63165	0.90020
3085.70309	0.89635
3083.77452	0.89512
3081.84596	0.89406
3079.91739	0.89087
3077.98883	0.88809
3076.06026	0.88640
3074.13170	0.88451
3072.20314	0.88231
3070.27457	0.87971
3068.34601	0.87669
3066.41744	0.87408
3064.48888	0.87226
3062.56031	0.87019
3060.63175	0.86688
3058.70318	0.86323
3056.77462	0.85998
3054.84606	0.85630
3052.91749	0.85255
3050.98893	0.84974
3049.06036	0.84690
3047.13180	0.84290
3045.20323	0.83893
3043.27467	0.83626
3041.34610	0.83400
3039.41754	0.83124
3037.48898	0.82822
3035.56041	0.82501
3033.63185	0.82166
3031.70328	0.81908
3029.77472	0.81726
3027.84615	0.81457
3025.91759	0.81119
3023.98903	0.80896
3022.06046	0.80758
3020.13190	0.80530
3018.20333	0.80230
3016.27477	0.80024
3014.34620	0.79933
3012.41764	0.79888
3010.48907	0.79878
3008.56051	0.79798
3006.63195	0.79560
3004.70338	0.79352
3002.77482	0.79385
3000.84625	0.79527
2998.91769	0.79551
2996.98912	0.79497
2995.06056	0.79540
2993.13199	0.79826
2991.20343	0.80364
2989.27487	0.80945
2987.34630	0.81477
2985.41774	0.81990
2983.48917	0.82432
2981.56061	0.82918
2979.63204	0.83634
2977.70348	0.84532
2975.77491	0.85450
2973.84635	0.86289
2971.91779	0.87106
2969.98922	0.87949
2968.06066	0.88773
2966.13209	0.89520
2964.20353	0.90029
2962.27496	0.90242
2960.34640	0.90291
2958.41783	0.90159
2956.48927	0.89812
2954.56071	0.89362
2952.63214	0.88856
2950.70358	0.88271
2948.77501	0.87757
2946.84645	0.87650
2944.91788	0.88100
2942.98932	0.88984
2941.06075	0.90146
2939.13219	0.91359
2937.20363	0.92397
2935.27506	0.93259
2933.34650	0.94090
2931.41793	0.95013
2929.48937	0.95974
2927.56080	0.96842
2925.63224	0.97610
2923.70367	0.98189
2921.77511	0.98444
2919.84655	0.98326
2917.91798	0.97574
2915.98942	0.95981
2914.06085	0.93886
2912.13229	0.91748
2910.20372	0.89798
2908.27516	0.88179
2906.34659	0.87034
2904.41803	0.86317
2902.48947	0.85723
2900.56090	0.85187
2898.63234	0.84864
2896.70377	0.84611
2894.77521	0.84241
2892.84664	0.83786
2890.91808	0.83354
2888.98952	0.83041
2887.06095	0.82869
2885.13239	0.82807
2883.20382	0.82745
2881.27526	0.82698
2879.34669	0.82814
2877.41813	0.82982
2875.48956	0.82981
2873.56100	0.82800
2871.63244	0.82512
2869.70387	0.82124
2867.77531	0.81598
2865.84674	0.81046
2863.91818	0.80722
2861.98961	0.80707
2860.06105	0.80937
2858.13248	0.81385
2856.20392	0.81989
2854.27536	0.82681
2852.34679	0.83383
2850.41823	0.83628
2848.48966	0.82665
2846.56110	0.80515
2844.63253	0.78141
2842.70397	0.76245
2840.77540	0.74862
2838.84684	0.73895
2836.91828	0.73278
2834.98971	0.72871
2833.06115	0.72537
2831.13258	0.72205
2829.20402	0.71873
2827.27545	0.71519
2825.34689	0.71123
2823.41832	0.70776
2821.48976	0.70567
2819.56120	0.70437
2817.63263	0.70274
2815.70407	0.70043
2813.77550	0.69773
2811.84694	0.69503
2809.91837	0.69271
2807.98981	0.69075
2806.06124	0.68855
2804.13268	0.68617
2802.20412	0.68454
2800.27555	0.68358
2798.34699	0.68245
2796.41842	0.68106
2794.48986	0.67952
2792.56129	0.67798
2790.63273	0.67684
2788.70416	0.67566
2786.77560	0.67371
2784.84704	0.67147
2782.91847	0.66973
2780.98991	0.66834
2779.06134	0.66661
2777.13278	0.66445
2775.20421	0.66221
2773.27565	0.66019
2771.34708	0.65853
2769.41852	0.65717
2767.48996	0.65605
2765.56139	0.65505
2763.63283	0.65371
2761.70426	0.65172
2759.77570	0.64957
2757.84713	0.64819
2755.91857	0.64766
2753.99001	0.64691
2752.06144	0.64529
2750.13288	0.64330
2748.20431	0.64165
2746.27575	0.64102
2744.34718	0.64111
2742.41862	0.64061
2740.49005	0.63983
2738.56149	0.63977
2736.63293	0.63988
2734.70436	0.63955
2732.77580	0.63872
2730.84723	0.63744
2728.91867	0.63614
2726.99010	0.63556
2725.06154	0.63561
2723.13297	0.63496
2721.20441	0.63345
2719.27585	0.63202
2717.34728	0.63058
2715.41872	0.62925
2713.49015	0.62865
2711.56159	0.62807
2709.63302	0.62676
2707.70446	0.62532
2705.77589	0.62414
2703.84733	0.62303
2701.91877	0.62200
2699.99020	0.62092
2698.06164	0.61979
2696.13307	0.61901
2694.20451	0.61831
2692.27594	0.61734
2690.34738	0.61649
2688.41881	0.61607
2686.49025	0.61591
2684.56169	0.61542
2682.63312	0.61400
2680.70456	0.61212
2678.77599	0.61083
2676.84743	0.61045
2674.91886	0.61071
2672.99030	0.61115
2671.06173	0.61124
2669.13317	0.61094
2667.20461	0.61065
2665.27604	0.61054
2663.34748	0.61030
2661.41891	0.60983
2659.49035	0.60950
2657.56178	0.60931
2655.63322	0.60895
2653.70465	0.60838
2651.77609	0.60792
2649.84753	0.60783
2647.91896	0.60755
2645.99040	0.60657
2644.06183	0.60542
2642.13327	0.60455
2640.20470	0.60339
2638.27614	0.60197
2636.34757	0.60114
2634.41901	0.60089
2632.49045	0.60048
2630.56188	0.59941
2628.63332	0.59802
2626.70475	0.59707
2624.77619	0.59667
2622.84762	0.59648
2620.91906	0.59613
2618.99049	0.59523
2617.06193	0.59391
2615.13337	0.59272
2613.20480	0.59192
2611.27624	0.59118
2609.34767	0.59040
2607.41911	0.58991
2605.49054	0.58976
2603.56198	0.58945
2601.63342	0.58889
2599.70485	0.58845
2597.77629	0.58796
2595.84772	0.58700
2593.91916	0.58558
2591.99059	0.58437
2590.06203	0.58360
2588.13346	0.58264
2586.20490	0.58145
2584.27634	0.58048
2582.34777	0.57961
2580.41921	0.57865
2578.49064	0.57752
2576.56208	0.57622
2574.63351	0.57512
2572.70495	0.57440
2570.77638	0.57370
2568.84782	0.57294
2566.91926	0.57227
2564.99069	0.57163
2563.06213	0.57094
2561.13356	0.57017
2559.20500	0.56946
2557.27643	0.56905
2555.34787	0.56883
2553.41930	0.56846
2551.49074	0.56786
2549.56218	0.56739
2547.63361	0.56759
2545.70505	0.56806
2543.77648	0.56799
2541.84792	0.56766
2539.91935	0.56754
2537.99079	0.56758
2536.06222	0.56787
2534.13366	0.56854
2532.20510	0.56933
2530.27653	0.56961
2528.34797	0.56947
2526.41940	0.56929
2524.49084	0.56883
2522.56227	0.56800
2520.63371	0.56714
2518.70514	0.56646
2516.77658	0.56574
2514.84802	0.56493
2512.91945	0.56434
2510.99089	0.56390
2509.06232	0.56338
2507.13376	0.56308
2505.20519	0.56317
2503.27663	0.56293
2501.34806	0.56190
2499.41950	0.56082
2497.49094	0.55994
2495.56237	0.55863
2493.63381	0.55702
2491.70524	0.55570
2489.77668	0.55490
2487.84811	0.55465
2485.91955	0.55458
2483.99098	0.55411
2482.06242	0.55349
2480.13386	0.55303
2478.20529	0.55230
2476.27673	0.55100
2474.34816	0.54963
2472.41960	0.54840
2470.49103	0.54672
2468.56247	0.54475
2466.63391	0.54314
2464.70534	0.54170
2462.77678	0.54026
2460.84821	0.53898
2458.91965	0.53768
2456.99108	0.53647
2455.06252	0.53556
2453.13395	0.53476
2451.20539	0.53385
2449.27683	0.53288
2447.34826	0.53220
2445.41970	0.53192
2443.49113	0.53150
2441.56257	0.53086
2439.63400	0.53029
2437.70544	0.52949
2435.77687	0.52855
2433.84831	0.52794
2431.91975	0.52723
2429.99118	0.52623
2428.06262	0.52533
2426.13405	0.52446
2424.20549	0.52387
2422.27692	0.52389
2420.34836	0.52406
2418.41979	0.52410
2416.49123	0.52425
2414.56267	0.52451
2412.63410	0.52487
2410.70554	0.52562
2408.77697	0.52658
2406.84841	0.52744
2404.91984	0.52822
2402.99128	0.52889
2401.06271	0.52921
2399.13415	0.52916
2397.20559	0.52905
2395.27702	0.52907
2393.34846	0.52890
2391.41989	0.52796
2389.49133	0.52648
2387.56276	0.52508
2385.63420	0.52348
2383.70563	0.52150
2381.77707	0.51982
2379.84851	0.51848
2377.91994	0.51685
2375.99138	0.51548
2374.06281	0.51577
2372.13425	0.51725
2370.20568	0.51836
2368.27712	0.51971
2366.34855	0.52241
2364.41999	0.52620
2362.49143	0.52963
2360.56286	0.53038
2358.63430	0.52925
2356.70573	0.52927
2354.77717	0.53010
2352.84860	0.53003
2350.92004	0.52756
2348.99147	0.52318
2347.06291	0.51959
2345.13435	0.51953
2343.20578	0.52194
2341.27722	0.52278
2339.34865	0.52172
2337.42009	0.52010
2335.49152	0.51786
2333.56296	0.51557
2331.63440	0.51489
2329.70583	0.51567
2327.77727	0.51574
2325.84870	0.51454
2323.92014	0.51389
2321.99157	0.51463
2320.06301	0.51527
2318.13444	0.51464
2316.20588	0.51339
2314.27732	0.51240
2312.34875	0.51170
2310.42019	0.51098
2308.49162	0.51007
2306.56306	0.50924
2304.63449	0.50843
2302.70593	0.50721
2300.77736	0.50601
2298.84880	0.50525
2296.92024	0.50452
2294.99167	0.50367
2293.06311	0.50301
2291.13454	0.50263
2289.20598	0.50229
2287.27741	0.50182
2285.34885	0.50140
2283.42028	0.50119
2281.49172	0.50126
2279.56316	0.50158
2277.63459	0.50187
2275.70603	0.50193
2273.77746	0.50198
2271.84890	0.50208
2269.92033	0.50213
2267.99177	0.50218
2266.06320	0.50241
2264.13464	0.50245
2262.20608	0.50194
2260.27751	0.50129
2258.34895	0.50089
2256.42038	0.50063
2254.49182	0.50022
2252.56325	0.49970
2250.63469	0.49941
2248.70612	0.49940
2246.77756	0.49938
2244.84900	0.49912
2242.92043	0.49869
2240.99187	0.49851
2239.06330	0.49892
2237.13474	0.49966
2235.20617	0.50010
2233.27761	0.50031
2231.34904	0.50059
2229.42048	0.50084
2227.49192	0.50106
2225.56335	0.50119
2223.63479	0.50104
2221.70622	0.50088
2219.77766	0.50079
2217.84909	0.50052
2215.92053	0.50040
2213.99196	0.50048
2212.06340	0.49998
2210.13484	0.49890
2208.20627	0.49806
2206.27771	0.49775
2204.34914	0.49763
2202.42058	0.49760
2200.49201	0.49775
2198.56345	0.49786
2196.63488	0.49791
2194.70632	0.49826
2192.77776	0.49883
2190.84919	0.49922
2188.92063	0.49948
2186.99206	0.49982
2185.06350	0.50011
2183.13493	0.50006
2181.20637	0.49953
2179.27781	0.49861
2177.34924	0.49769
2175.42068	0.49704
2173.49211	0.49647
2171.56355	0.49590
2169.63498	0.49549
2167.70642	0.49512
2165.77785	0.49464
2163.84929	0.49408
2161.92073	0.49366
2159.99216	0.49380
2158.06360	0.49439
2156.13503	0.49488
2154.20647	0.49516
2152.27790	0.49525
2150.34934	0.49533
2148.42077	0.49553
2146.49221	0.49562
2144.56365	0.49554
2142.63508	0.49533
2140.70652	0.49478
2138.77795	0.49400
2136.84939	0.49332
2134.92082	0.49257
2132.99226	0.49149
2131.06369	0.49016
2129.13513	0.48889
2127.20657	0.48782
2125.27800	0.48682
2123.34944	0.48591
2121.42087	0.48539
2119.49231	0.48509
2117.56374	0.48466
2115.63518	0.48451
2113.70661	0.48514
2111.77805	0.48633
2109.84949	0.48752
2107.92092	0.48841
2105.99236	0.48923
2104.06379	0.49013
2102.13523	0.49072
2100.20666	0.49085
2098.27810	0.49088
2096.34953	0.49086
2094.42097	0.49037
2092.49241	0.48938
2090.56384	0.48851
2088.63528	0.48789
2086.70671	0.48721
2084.77815	0.48637
2082.84958	0.48525
2080.92102	0.48422
2078.99245	0.48387
2077.06389	0.48394
2075.13533	0.48406
2073.20676	0.48440
2071.27820	0.48501
2069.34963	0.48557
2067.42107	0.48638
2065.49250	0.48790
2063.56394	0.48948
2061.63537	0.49048
2059.70681	0.49141
2057.77825	0.49248
2055.84968	0.49301
2053.92112	0.49269
2051.99255	0.49198
2050.06399	0.49128
2048.13542	0.49055
2046.20686	0.48944
2044.27830	0.48787
2042.34973	0.48626
2040.42117	0.48482
2038.49260	0.48354
2036.56404	0.48266
2034.63547	0.48217
2032.70691	0.48181
2030.77834	0.48166
2028.84978	0.48166
2026.92122	0.48151
2024.99265	0.48151
2023.06409	0.48207
2021.13552	0.48290
2019.20696	0.48380
2017.27839	0.48471
2015.34983	0.48493
2013.42126	0.48433
2011.49270	0.48375
2009.56414	0.48328
2007.63557	0.48254
2005.70701	0.48142
2003.77844	0.47982
2001.84988	0.47789
1999.92131	0.47616
1997.99275	0.47452
1996.06418	0.47247
1994.13562	0.47066
1992.20706	0.46999
1990.27849	0.46955
1988.34993	0.46871
1986.42136	0.46804
1984.49280	0.46751
1982.56423	0.46701
1980.63567	0.46681
1978.70710	0.46702
1976.77854	0.46733
1974.84998	0.46743
1972.92141	0.46740
1970.99285	0.46715
1969.06428	0.46704
1967.13572	0.46769
1965.20715	0.46808
1963.27859	0.46745
1961.35002	0.46659
1959.42146	0.46570
1957.49290	0.46480
1955.56433	0.46436
1953.63577	0.46418
1951.70720	0.46372
1949.77864	0.46310
1947.85007	0.46272
1945.92151	0.46265
1943.99294	0.46346
1942.06438	0.46543
1940.13582	0.46663
1938.20725	0.46689
1936.27869	0.46759
1934.35012	0.46875
1932.42156	0.47004
1930.49299	0.47121
1928.56443	0.47204
1926.63586	0.47234
1924.70730	0.47264
1922.77874	0.47345
1920.85017	0.47352
1918.92161	0.47346
1916.99304	0.47416
1915.06448	0.47375
1913.13591	0.47248
1911.20735	0.47204
1909.27878	0.47253
1907.35022	0.47283
1905.42166	0.47255
1903.49309	0.47231
1901.56453	0.47223
1899.63596	0.47197
1897.70740	0.47166
1895.77883	0.47193
1893.85027	0.47210
1891.92171	0.47159
1889.99314	0.47214
1888.06458	0.47314
1886.13601	0.47268
1884.20745	0.47184
1882.27888	0.47122
1880.35032	0.47046
1878.42175	0.46966
1876.49319	0.46882
1874.56463	0.46753
1872.63606	0.46560
1870.70750	0.46445
1868.77893	0.46602
1866.85037	0.46715
1864.92180	0.46527
1862.99324	0.46324
1861.06467	0.46260
1859.13611	0.46268
1857.20755	0.46262
1855.27898	0.46228
1853.35042	0.46196
1851.42185	0.46159
1849.49329	0.46100
1847.56472	0.46017
1845.63616	0.46047
1843.70759	0.46255
1841.77903	0.46232
1839.85047	0.45980
1837.92190	0.45808
1835.99334	0.45735
1834.06477	0.45569
1832.13621	0.45379
1830.20764	0.45412
1828.27908	0.45477
1826.35051	0.45381
1824.42195	0.45382
1822.49339	0.45409
1820.56482	0.45353
1818.63626	0.45361
1816.70769	0.45458
1814.77913	0.45538
1812.85056	0.45646
1810.92200	0.45920
1808.99343	0.46224
1807.06487	0.46359
1805.13631	0.46359
1803.20774	0.46380
1801.27918	0.46618
1799.35061	0.46926
1797.42205	0.47003
1795.49348	0.46928
1793.56492	0.47047
1791.63635	0.47518
1789.70779	0.47710
1787.77923	0.47576
1785.85066	0.47547
1783.92210	0.47651
1781.99353	0.47738
1780.06497	0.47847
1778.13640	0.47898
1776.20784	0.47818
1774.27927	0.47866
1772.35071	0.48347
1770.42215	0.48775
1768.49358	0.48848
1766.56502	0.48820
1764.63645	0.48743
1762.70789	0.48887
1760.77932	0.49302
1758.85076	0.49615
1756.92220	0.50004
1754.99363	0.50367
1753.06507	0.50581
1751.13650	0.51169
1749.20794	0.52261
1747.27937	0.53074
1745.35081	0.53508
1743.42224	0.53856
1741.49368	0.54249
1739.56512	0.54654
1737.63655	0.54759
1735.70799	0.54760
1733.77942	0.55352
1731.85086	0.55861
1729.92229	0.55905
1727.99373	0.55976
1726.06516	0.56131
1724.13660	0.56461
1722.20804	0.56772
1720.27947	0.56951
1718.35091	0.57672
1716.42234	0.59475
1714.49378	0.60749
1712.56521	0.61372
1710.63665	0.62058
1708.70808	0.63041
1706.77952	0.64853
1704.85096	0.67494
1702.92239	0.69786
1700.99383	0.73064
1699.06526	0.78632
1697.13670	0.83960
1695.20813	0.89111
1693.27957	0.92738
1691.35100	0.95543
1689.42244	0.99237
1687.49388	1.02837
1685.56531	1.06717
1683.63675	1.13213
1681.70818	1.17704
1679.77962	1.19910
1677.85105	1.21990
1675.92249	1.24834
1673.99392	1.28362
1672.06536	1.31198
1670.13680	1.33885
1668.20823	1.36439
1666.27967	1.37643
1664.35110	1.38767
1662.42254	1.40701
1660.49397	1.42176
1658.56541	1.42648
1656.63684	1.42801
1654.70828	1.43515
1652.77972	1.44670
1650.85115	1.44140
1648.92259	1.43290
1646.99402	1.42712
1645.06546	1.42211
1643.13689	1.41542
1641.20833	1.40927
1639.27976	1.40318
1637.35120	1.39776
1635.42264	1.39584
1633.49407	1.39102
1631.56551	1.38206
1629.63694	1.37145
1627.70838	1.36024
1625.77981	1.34794
1623.85125	1.33128
1621.92269	1.30951
1619.99412	1.28897
1618.06556	1.26523
1616.13699	1.23106
1614.20843	1.20073
1612.27986	1.17602
1610.35130	1.15068
1608.42273	1.12505
1606.49417	1.10281
1604.56561	1.08515
1602.63704	1.07132
1600.70848	1.06174
1598.77991	1.05512
1596.85135	1.04966
1594.92278	1.04570
1592.99422	1.04383
1591.06565	1.04386
1589.13709	1.04641
1587.20853	1.05206
1585.27996	1.06047
1583.35140	1.07133
1581.42283	1.08292
1579.49427	1.09322
1577.56570	1.10717
1575.63714	1.12983
1573.70857	1.14404
1571.78001	1.15211
1569.85145	1.16918
1567.92288	1.19050
1565.99432	1.20521
1564.06575	1.21694
1562.13719	1.22439
1560.20862	1.23537
1558.28006	1.26538
1556.35149	1.27727
1554.42293	1.27916
1552.49437	1.28013
1550.56580	1.27849
1548.63724	1.27504
1546.70867	1.27107
1544.78011	1.26824
1542.85154	1.26882
1540.92298	1.27054
1538.99441	1.26355
1537.06585	1.25471
1535.13729	1.24691
1533.20872	1.23803
1531.28016	1.22840
1529.35159	1.22038
1527.42303	1.21377
1525.49446	1.20747
1523.56590	1.20345
1521.63733	1.20494
1519.70877	1.20631
1517.78021	1.20020
1515.85164	1.18814
1513.92308	1.17341
1511.99451	1.15702
1510.06595	1.14107
1508.13738	1.12306
1506.20882	1.09281
1504.28025	1.06933
1502.35169	1.05167
1500.42313	1.03365
1498.49456	1.01447
1496.56600	0.99487
1494.63743	0.97820
1492.70887	0.96509
1490.78030	0.95264
1488.85174	0.94025
1486.92317	0.93078
1484.99461	0.92378
1483.06605	0.91885
1481.13748	0.91597
1479.20892	0.91485
1477.28035	0.91678
1475.35179	0.92423
1473.42322	0.94082
1471.49466	0.95946
1469.56610	0.96732
1467.63753	0.97060
1465.70897	0.97667
1463.78040	0.98457
1461.85184	0.98742
1459.92327	0.98770
1457.99471	0.99521
1456.06614	1.00792
1454.13758	1.00942
1452.20902	1.00734
1450.28045	1.00512
1448.35189	1.00296
1446.42332	1.00035
1444.49476	0.99629
1442.56619	0.99148
1440.63763	0.98665
1438.70906	0.98134
1436.78050	0.97405
1434.85194	0.96375
1432.92337	0.95289
1430.99481	0.94294
1429.06624	0.93441
1427.13768	0.92749
1425.20911	0.92244
1423.28055	0.91910
1421.35198	0.91672
1419.42342	0.91765
1417.49486	0.92099
1415.56629	0.92028
1413.63773	0.91748
1411.70916	0.91568
1409.78060	0.91529
1407.85203	0.91565
1405.92347	0.91765
1403.99490	0.92108
1402.06634	0.92342
1400.13778	0.92584
1398.20921	0.93003
1396.28065	0.93539
1394.35208	0.94137
1392.42352	0.94594
1390.49495	0.94992
1388.56639	0.95851
1386.63782	0.97440
1384.70926	0.99022
1382.78070	1.00228
1380.85213	1.01147
1378.92357	1.01580
1376.99500	1.01416
1375.06644	1.00692
1373.13787	0.99448
1371.20931	0.97951
1369.28074	0.96289
1367.35218	0.94457
1365.42362	0.92647
1363.49505	0.91010
1361.56649	0.89755
1359.63792	0.88930
1357.70936	0.88380
1355.78079	0.88079
1353.85223	0.87987
1351.92366	0.87984
1349.99510	0.88038
1348.06654	0.88160
1346.13797	0.88315
1344.20941	0.88487
1342.28084	0.88700
1340.35228	0.89093
1338.42371	0.89702
1336.49515	0.90315
1334.56659	0.90926
1332.63802	0.91647
1330.70946	0.92478
1328.78089	0.93300
1326.85233	0.93922
1324.92376	0.94260
1322.99520	0.94470
1321.06663	0.94714
1319.13807	0.94985
1317.20951	0.95214
1315.28094	0.95386
1313.35238	0.95521
1311.42381	0.95564
1309.49525	0.95504
1307.56668	0.95421
1305.63812	0.95303
1303.70955	0.95117
1301.78099	0.94906
1299.85243	0.94649
1297.92386	0.94297
1295.99530	0.93967
1294.06673	0.93773
1292.13817	0.93707
1290.20960	0.93782
1288.28104	0.93979
1286.35247	0.94163
1284.42391	0.94257
1282.49535	0.94355
1280.56678	0.94550
1278.63822	0.94830
1276.70965	0.95190
1274.78109	0.95648
1272.85252	0.96230
1270.92396	0.96944
1268.99539	0.97732
1267.06683	0.98520
1265.13827	0.99231
1263.20970	0.99775
1261.28114	1.00103
1259.35257	1.00219
1257.42401	1.00270
1255.49544	1.00427
1253.56688	1.00668
1251.63831	1.00907
1249.70975	1.01124
1247.78119	1.01259
1245.85262	1.01288
1243.92406	1.01308
1241.99549	1.01335
1240.06693	1.01303
1238.13836	1.01258
1236.20980	1.01202
1234.28123	1.01010
1232.35267	1.00612
1230.42411	0.99998
1228.49554	0.99209
1226.56698	0.98387
1224.63841	0.97607
1222.70985	0.96789
1220.78128	0.95928
1218.85272	0.95147
1216.92415	0.94472
1214.99559	0.93941
1213.06703	0.93699
1211.13846	0.93702
1209.20990	0.93771
1207.28133	0.93785
1205.35277	0.93564
1203.42420	0.92988
1201.49564	0.92175
1199.56708	0.91256
1197.63851	0.90265
1195.70995	0.89269
1193.78138	0.88354
1191.85282	0.87595
1189.92425	0.87070
1187.99569	0.86718
1186.06712	0.86428
1184.13856	0.86255
1182.21000	0.86283
1180.28143	0.86537
1178.35287	0.87058
1176.42430	0.87841
1174.49574	0.88827
1172.56717	0.89999
1170.63861	0.91364
1168.71004	0.92906
1166.78148	0.94628
1164.85292	0.96485
1162.92435	0.98243
1160.99579	0.99585
1159.06722	1.00328
1157.13866	1.00443
1155.21009	0.99934
1153.28153	0.98848
1151.35296	0.97327
1149.42440	0.95622
1147.49584	0.93992
1145.56727	0.92574
1143.63871	0.91445
1141.71014	0.90718
1139.78158	0.90406
1137.85301	0.90429
1135.92445	0.90789
1133.99588	0.91488
1132.06732	0.92464
1130.13876	0.93744
1128.21019	0.95321
1126.28163	0.97000
1124.35306	0.98628
1122.42450	1.00184
1120.49593	1.01539
1118.56737	1.02563
1116.63880	1.03355
1114.71024	1.03908
1112.78168	1.04035
1110.85311	1.03722
1108.92455	1.03168
1106.99598	1.02653
1105.06742	1.02294
1103.13885	1.01989
1101.21029	1.01697
1099.28172	1.01579
1097.35316	1.01821
1095.42460	1.02406
1093.49603	1.03241
1091.56747	1.04392
1089.63890	1.05889
1087.71034	1.07499
1085.78177	1.09049
1083.85321	1.10632
1081.92464	1.12209
1079.99608	1.13473
1078.06752	1.14275
1076.13895	1.14661
1074.21039	1.14532
1072.28182	1.13815
1070.35326	1.12733
1068.42469	1.11626
1066.49613	1.10691
1064.56756	1.09844
1062.63900	1.08927
1060.71044	1.07903
1058.78187	1.06812
1056.85331	1.05768
1054.92474	1.04892
1052.99618	1.04208
1051.06761	1.03654
1049.13905	1.03260
1047.21049	1.03188
1045.28192	1.03490
1043.35336	1.04057
1041.42479	1.04701
1039.49623	1.05270
1037.56766	1.05770
1035.63910	1.06189
1033.71053	1.06465
1031.78197	1.06510
1029.85341	1.06214
1027.92484	1.05648
1025.99628	1.05017
1024.06771	1.04362
1022.13915	1.03620
1020.21058	1.02838
1018.28202	1.02144
1016.35345	1.01491
1014.42489	1.00608
1012.49633	0.99289
1010.56776	0.97601
1008.63920	0.95700
1006.71063	0.93658
1004.78207	0.91563
1002.85350	0.89590
1000.92494	0.87857
998.99637	0.86395
997.06781	0.85193
995.13925	0.84187
993.21068	0.83278
991.28212	0.82376
989.35355	0.81438
987.42499	0.80540
985.49642	0.79806
983.56786	0.79242
981.63929	0.78790
979.71073	0.78467
977.78217	0.78210
975.85360	0.77853
973.92504	0.77333
971.99647	0.76655
970.06791	0.75789
968.13934	0.74832
966.21078	0.73983
964.28221	0.73361
962.35365	0.73113
960.42509	0.73431
958.49652	0.74297
956.56796	0.75319
954.63939	0.75989
952.71083	0.76110
950.78226	0.75791
948.85370	0.75229
946.92513	0.74649
944.99657	0.74213
943.06801	0.73939
941.13944	0.73771
939.21088	0.73638
937.28231	0.73492
935.35375	0.73398
933.42518	0.73406
931.49662	0.73417
929.56805	0.73398
927.63949	0.73451
925.71093	0.73628
923.78236	0.73922
921.85380	0.74304
919.92523	0.74706
917.99667	0.75108
916.06810	0.75549
914.13954	0.76064
912.21098	0.76634
910.28241	0.77209
908.35385	0.77800
906.42528	0.78417
904.49672	0.78988
902.56815	0.79418
900.63959	0.79617
898.71102	0.79547
896.78246	0.79194
894.85390	0.78562
892.92533	0.77755
890.99677	0.76871
889.06820	0.75962
887.13964	0.75114
885.21107	0.74380
883.28251	0.73746
881.35394	0.73210
879.42538	0.72818
877.49682	0.72587
875.56825	0.72456
873.63969	0.72417
871.71112	0.72514
869.78256	0.72719
867.85399	0.72978
865.92543	0.73262
863.99686	0.73533
862.06830	0.73763
860.13974	0.73949
858.21117	0.74057
856.28261	0.74059
854.35404	0.73975
852.42548	0.73767
850.49691	0.73398
848.56835	0.72941
846.63978	0.72477
844.71122	0.72071
842.78266	0.71804
840.85409	0.71679
838.92553	0.71615
836.99696	0.71558
835.06840	0.71577
833.13983	0.71769
831.21127	0.72128
829.28270	0.72628
827.35414	0.73270
825.42558	0.74008
823.49701	0.74754
821.56845	0.75419
819.63988	0.76006
817.71132	0.76574
815.78275	0.77122
813.85419	0.77644
811.92562	0.78069
809.99706	0.78248
808.06850	0.78199
806.13993	0.78028
804.21137	0.77743
802.28280	0.77384
800.35424	0.77095
798.42567	0.76972
796.49711	0.76959
794.56854	0.76983
792.63998	0.77076
790.71142	0.77325
788.78285	0.77769
786.85429	0.78359
784.92572	0.79029
782.99716	0.79759
781.06859	0.80548
779.14003	0.81300
777.21147	0.81838
775.28290	0.82138
773.35434	0.82312
771.42577	0.82353
769.49721	0.82129
767.56864	0.81614
765.64008	0.80906
763.71151	0.80112
761.78295	0.79278
759.85439	0.78403
757.92582	0.77545
755.99726	0.76721
754.06869	0.75917
752.14013	0.75230
750.21156	0.74691
748.28300	0.74291
746.35443	0.74044
744.42587	0.73860
742.49731	0.73691
740.56874	0.73616
738.64018	0.73665
736.71161	0.73778
734.78305	0.73950
732.85448	0.74192
730.92592	0.74443
728.99735	0.74659
727.06879	0.74918
725.14023	0.75251
723.21166	0.75544
721.28310	0.75754
719.35453	0.75885
717.42597	0.75912
715.49740	0.75856
713.56884	0.75732
711.64027	0.75598
709.71171	0.75587
707.78315	0.75753
705.85458	0.76034
703.92602	0.76388
701.99745	0.76755
700.06889	0.77042
698.14032	0.77337
696.21176	0.77742
694.28319	0.78105
692.35463	0.78310
690.42607	0.78520
688.49750	0.78931
686.56894	0.79497
684.64037	0.79994
682.71181	0.80308
680.78324	0.80495
678.85468	0.80645
676.92611	0.80770
674.99755	0.80824
673.06899	0.80777
671.14042	0.80695
669.21186	0.80744
667.28329	0.80864
665.35473	0.80808
663.42616	0.80804
661.49760	0.80914
659.56903	0.80921
657.64047	0.80791
655.71191	0.80694
653.78334	0.80735
651.85478	0.80858
649.92621	0.80906
647.99765	0.80905
646.06908	0.81030
644.14052	0.81216
642.21195	0.81281
640.28339	0.81250
638.35483	0.81173
636.42626	0.81047
634.49770	0.80884
632.56913	0.80451
630.64057	0.79666
628.71200	0.78955
626.78344	0.78576
624.85488	0.78330
622.92631	0.78063
620.99775	0.77757
619.06918	0.77285
617.14062	0.76725
615.21205	0.76271
613.28349	0.75735
611.35492	0.75116
609.42636	0.74692
607.49780	0.74403
605.56923	0.74127
603.64067	0.73975
601.71210	0.73929
599.78354	0.73900
