3997.91406	0.59393
3995.98550	0.59594
3994.05693	0.59802
3992.12837	0.59853
3990.19980	0.59778
3988.27124	0.59736
3986.34268	0.59754
3984.41411	0.59803
3982.48555	0.59914
3980.55698	0.60087
3978.62842	0.60131
3976.69985	0.59891
3974.77129	0.59584
3972.84272	0.59457
3970.91416	0.59543
3968.98560	0.59768
3967.05703	0.59891
3965.12847	0.59812
3963.19990	0.59717
3961.27134	0.59668
3959.34277	0.59617
3957.41421	0.59661
3955.48564	0.59757
3953.55708	0.59714
3951.62852	0.59560
3949.69995	0.59455
3947.77139	0.59369
3945.84282	0.59246
3943.91426	0.59344
3941.98569	0.59637
3940.05713	0.59690
3938.12856	0.59556
3936.20000	0.59323
3934.27144	0.59007
3932.34287	0.59002
3930.41431	0.59287
3928.48574	0.59206
3926.55718	0.58861
3924.62861	0.58892
3922.70005	0.59211
3920.77148	0.59327
3918.84292	0.59449
3916.91436	0.59718
3914.98579	0.59665
3913.05723	0.59277
3911.12866	0.58880
3909.20010	0.58400
3907.27153	0.57839
3905.34297	0.57813
3903.41440	0.58615
3901.48584	0.59368
3899.55728	0.59667
3897.62871	0.59479
3895.70015	0.58884
3893.77158	0.58318
3891.84302	0.58270
3889.91445	0.58286
3887.98589	0.57948
3886.05733	0.57807
3884.12876	0.57785
3882.20020	0.57670
3880.27163	0.58122
3878.34307	0.58256
3876.41450	0.57554
3874.48594	0.56928
3872.55737	0.56801
3870.62881	0.57146
3868.70025	0.57642
3866.77168	0.57515
3864.84312	0.57284
3862.91455	0.57533
3860.98599	0.57640
3859.05742	0.57183
3857.12886	0.56109
3855.20029	0.54968
3853.27173	0.56180
3851.34317	0.57990
3849.41460	0.58038
3847.48604	0.57595
3845.55747	0.57269
3843.62891	0.57149
3841.70034	0.57019
3839.77178	0.56859
3837.84321	0.57035
3835.91465	0.57337
3833.98609	0.57544
3832.05752	0.57755
3830.12896	0.57735
3828.20039	0.57490
3826.27183	0.57346
3824.34326	0.57094
3822.41470	0.56786
3820.48613	0.57022
3818.55757	0.57132
3816.62901	0.57289
3814.70044	0.57718
3812.77188	0.57642
3810.84331	0.57134
3808.91475	0.56697
3806.98618	0.56904
3805.05762	0.57121
3803.12905	0.56994
3801.20049	0.57372
3799.27193	0.57602
3797.34336	0.57588
3795.41480	0.57774
3793.48623	0.57664
3791.55767	0.57306
3789.62910	0.57068
3787.70054	0.56961
3785.77197	0.57014
3783.84341	0.57076
3781.91485	0.56940
3779.98628	0.57092
3778.05772	0.57524
3776.12915	0.57553
3774.20059	0.57248
3772.27202	0.56923
3770.34346	0.56983
3768.41489	0.57319
3766.48633	0.57516
3764.55777	0.57590
3762.62920	0.57278
3760.70064	0.56791
3758.77207	0.56700
3756.84351	0.56577
3754.91494	0.55958
3752.98638	0.55266
3751.05781	0.55647
3749.12925	0.56488
3747.20069	0.56237
3745.27212	0.56050
3743.34356	0.56709
3741.41499	0.56767
3739.48643	0.55851
3737.55786	0.54676
3735.62930	0.54613
3733.70074	0.55803
3731.77217	0.56459
3729.84361	0.56254
3727.91504	0.55693
3725.98648	0.55428
3724.05791	0.55653
3722.12935	0.55993
3720.20078	0.56276
3718.27222	0.56321
3716.34366	0.55971
3714.41509	0.55352
3712.48653	0.55186
3710.55796	0.56109
3708.62940	0.56690
3706.70083	0.56487
3704.77227	0.56011
3702.84370	0.55877
3700.91514	0.56295
3698.98658	0.56472
3697.05801	0.56268
3695.12945	0.56012
3693.20088	0.55687
3691.27232	0.55375
3689.34375	0.55844
3687.41519	0.56824
3685.48662	0.57285
3683.55806	0.57243
3681.62950	0.56865
3679.70093	0.56213
3677.77237	0.55587
3675.84380	0.56252
3673.91524	0.57228
3671.98667	0.57095
3670.05811	0.57753
3668.12954	0.58933
3666.20098	0.59172
3664.27242	0.59151
3662.34385	0.59255
3660.41529	0.59269
3658.48672	0.59231
3656.55816	0.59640
3654.62959	0.59946
3652.70103	0.59418
3650.77246	0.58909
3648.84390	0.60493
3646.91534	0.62329
3644.98677	0.62728
3643.05821	0.62801
3641.12964	0.63084
3639.20108	0.63453
3637.27251	0.63732
3635.34395	0.64024
3633.41538	0.64226
3631.48682	0.64053
3629.55826	0.64415
3627.62969	0.65941
3625.70113	0.66642
3623.77256	0.66674
3621.84400	0.66635
3619.91543	0.66950
3617.98687	0.67614
3616.05830	0.68063
3614.12974	0.68591
3612.20118	0.69126
3610.27261	0.69342
3608.34405	0.69884
3606.41548	0.70707
3604.48692	0.71067
3602.55835	0.71267
3600.62979	0.71756
3598.70123	0.72371
3596.77266	0.72953
3594.84410	0.73578
3592.91553	0.74016
3590.98697	0.74101
3589.05840	0.74319
3587.12984	0.75204
3585.20127	0.75991
3583.27271	0.76323
3581.34415	0.76611
3579.41558	0.76933
3577.48702	0.77227
3575.55845	0.77665
3573.62989	0.78224
3571.70132	0.78559
3569.77276	0.78724
3567.84419	0.79461
3565.91563	0.80802
3563.98707	0.81475
3562.05850	0.81699
3560.12994	0.82042
3558.20137	0.82498
3556.27281	0.82802
3554.34424	0.82962
3552.41568	0.83275
3550.48711	0.83723
3548.55855	0.84176
3546.62999	0.84946
3544.70142	0.85922
3542.77286	0.86411
3540.84429	0.86574
3538.91573	0.86959
3536.98716	0.87705
3535.05860	0.88595
3533.13003	0.89500
3531.20147	0.90481
3529.27291	0.91244
3527.34434	0.91442
3525.41578	0.91574
3523.48721	0.92287
3521.55865	0.93338
3519.63008	0.93979
3517.70152	0.94122
3515.77295	0.94467
3513.84439	0.95562
3511.91583	0.97104
3509.98726	0.98489
3508.05870	0.99364
3506.13013	0.99801
3504.20157	1.00489
3502.27300	1.01556
3500.34444	1.02172
3498.41587	1.02494
3496.48731	1.03250
3494.55875	1.04416
3492.63018	1.05499
3490.70162	1.06245
3488.77305	1.06628
3486.84449	1.06880
3484.91592	1.07265
3482.98736	1.07737
3481.05879	1.08165
3479.13023	1.08548
3477.20167	1.08949
3475.27310	1.09282
3473.34454	1.09678
3471.41597	1.10272
3469.48741	1.10836
3467.55884	1.11489
3465.63028	1.12102
3463.70171	1.12201
3461.77315	1.12267
3459.84459	1.12674
3457.91602	1.12848
3455.98746	1.12872
3454.05889	1.13542
3452.13033	1.14758
3450.20176	1.15566
3448.27320	1.15692
3446.34464	1.15893
3444.41607	1.16459
3442.48751	1.16859
3440.55894	1.17036
3438.63038	1.17331
3436.70181	1.17592
3434.77325	1.17531
3432.84468	1.17211
3430.91612	1.16616
3428.98756	1.16044
3427.05899	1.16113
3425.13043	1.16495
3423.20186	1.16425
3421.27330	1.16060
3419.34473	1.16012
3417.41617	1.16384
3415.48760	1.16956
3413.55904	1.17512
3411.63048	1.17677
3409.70191	1.17214
3407.77335	1.16483
3405.84478	1.15939
3403.91622	1.15646
3401.98765	1.15589
3400.05909	1.15725
3398.13052	1.15893
3396.20196	1.16131
3394.27340	1.16546
3392.34483	1.16943
3390.41627	1.17081
3388.48770	1.17141
3386.55914	1.17352
3384.63057	1.17519
3382.70201	1.17590
3380.77344	1.17939
3378.84488	1.18659
3376.91632	1.19371
3374.98775	1.19779
3373.05919	1.19811
3371.13062	1.19378
3369.20206	1.18538
3367.27349	1.17721
3365.34493	1.17485
3363.41636	1.17963
3361.48780	1.18829
3359.55924	1.19584
3357.63067	1.19844
3355.70211	1.19890
3353.77354	1.20344
3351.84498	1.21039
3349.91641	1.21353
3347.98785	1.21459
3346.05928	1.21698
3344.13072	1.21889
3342.20216	1.22010
3340.27359	1.21942
3338.34503	1.21815
3336.41646	1.22302
3334.48790	1.23210
3332.55933	1.24078
3330.63077	1.25103
3328.70220	1.25955
3326.77364	1.25992
3324.84508	1.25638
3322.91651	1.25806
3320.98795	1.26226
3319.05938	1.25986
3317.13082	1.25657
3315.20225	1.26397
3313.27369	1.27868
3311.34513	1.29130
3309.41656	1.29918
3307.48800	1.30151
3305.55943	1.29968
3303.63087	1.29999
3301.70230	1.30604
3299.77374	1.31259
3297.84517	1.31388
3295.91661	1.31227
3293.98805	1.31299
3292.05948	1.31793
3290.13092	1.32093
3288.20235	1.31726
3286.27379	1.31553
3284.34522	1.32030
3282.41666	1.32292
3280.48809	1.31759
3278.55953	1.30731
3276.63097	1.29943
3274.70240	1.29818
3272.77384	1.29897
3270.84527	1.29832
3268.91671	1.29716
3266.98814	1.29464
3265.05958	1.29126
3263.13101	1.28737
3261.20245	1.28081
3259.27389	1.27052
3257.34532	1.25907
3255.41676	1.24937
3253.48819	1.24056
3251.55963	1.23296
3249.63106	1.22751
3247.70250	1.22105
3245.77393	1.21338
3243.84537	1.20744
3241.91681	1.20097
3239.98824	1.19238
3238.05968	1.18508
3236.13111	1.17841
3234.20255	1.17009
3232.27398	1.16513
3230.34542	1.16672
3228.41685	1.16831
3226.48829	1.16498
3224.55973	1.15993
3222.63116	1.15374
3220.70260	1.14545
3218.77403	1.13932
3216.84547	1.13714
3214.91690	1.13684
3212.98834	1.13535
3211.05977	1.13034
3209.13121	1.12574
3207.20265	1.12380
3205.27408	1.11997
3203.34552	1.11274
3201.41695	1.10507
3199.48839	1.09875
3197.55982	1.09320
3195.63126	1.08768
3193.70269	1.08333
3191.77413	1.08150
3189.84557	1.07994
3187.91700	1.07448
3185.98844	1.06706
3184.05987	1.06162
3182.13131	1.05655
3180.20274	1.05109
3178.27418	1.04721
3176.34562	1.04427
3174.41705	1.04142
3172.48849	1.03937
3170.55992	1.03699
3168.63136	1.03385
3166.70279	1.03120
3164.77423	1.02683
3162.84566	1.01980
3160.91710	1.01488
3158.98854	1.01415
3157.05997	1.01411
3155.13141	1.01287
3153.20284	1.01100
3151.27428	1.00723
3149.34571	1.00214
3147.41715	0.99845
3145.48858	0.99561
3143.56002	0.99269
3141.63146	0.99109
3139.70289	0.99083
3137.77433	0.99067
3135.84576	0.99041
3133.91720	0.98970
3131.98863	0.98859
3130.06007	0.98799
3128.13150	0.98718
3126.20294	0.98608
3124.27438	0.98638
3122.34581	0.98774
3120.41725	0.98804
3118.48868	0.98678
3116.56012	0.98544
3114.63155	0.98565
3112.70299	0.98805
3110.77442	0.99105
3108.84586	0.99191
3106.91730	0.99050
3104.98873	0.98895
3103.06017	0.98754
3101.13160	0.98449
3099.20304	0.98087
3097.27447	0.98035
3095.34591	0.98314
3093.41734	0.98547
3091.48878	0.98533
3089.56022	0.98457
3087.63165	0.98471
3085.70309	0.98536
3083.77452	0.98555
3081.84596	0.98401
3079.91739	0.98112
3077.98883	0.97905
3076.06026	0.97760
3074.13170	0.97503
3072.20314	0.97184
3070.27457	0.96925
3068.34601	0.96685
3066.41744	0.96365
3064.48888	0.96067
3062.56031	0.95988
3060.63175	0.95973
3058.70318	0.95695
3056.77462	0.95221
3054.84606	0.94817
3052.91749	0.94455
3050.98893	0.94035
3049.06036	0.93613
3047.13180	0.93243
3045.20323	0.92996
3043.27467	0.92890
3041.34610	0.92700
3039.41754	0.92271
3037.48898	0.91800
3035.56041	0.91472
3033.63185	0.91119
3031.70328	0.90661
3029.77472	0.90403
3027.84615	0.90425
3025.91759	0.90414
3023.98903	0.90189
3022.06046	0.89894
3020.13190	0.89744
3018.20333	0.89742
3016.27477	0.89744
3014.34620	0.89689
3012.41764	0.89620
3010.48907	0.89570
3008.56051	0.89553
3006.63195	0.89538
3004.70338	0.89423
3002.77482	0.89254
3000.84625	0.89239
2998.91769	0.89459
2996.98912	0.89761
2995.06056	0.89890
2993.13199	0.89860
2991.20343	0.90026
2989.27487	0.90517
2987.34630	0.91126
2985.41774	0.91756
2983.48917	0.92380
2981.56061	0.92925
2979.63204	0.93522
2977.70348	0.94229
2975.77491	0.94840
2973.84635	0.95356
2971.91779	0.95929
2969.98922	0.96528
2968.06066	0.97096
2966.13209	0.97643
2964.20353	0.98196
2962.27496	0.98641
2960.34640	0.98767
2958.41783	0.98656
2956.48927	0.98490
2954.56071	0.98130
2952.63214	0.97532
2950.70358	0.97050
2948.77501	0.96895
2946.84645	0.96985
2944.91788	0.97350
2942.98932	0.98017
2941.06075	0.98907
2939.13219	1.00017
2937.20363	1.01311
2935.27506	1.02618
2933.34650	1.03682
2931.41793	1.04461
2929.48937	1.05271
2927.56080	1.06206
2925.63224	1.07039
2923.70367	1.07707
2921.77511	1.08175
2919.84655	1.08147
2917.91798	1.07360
2915.98942	1.05799
2914.06085	1.03661
2912.13229	1.01490
2910.20372	0.99719
2908.27516	0.98302
2906.34659	0.97158
2904.41803	0.96336
2902.48947	0.95808
2900.56090	0.95450
2898.63234	0.95156
2896.70377	0.94813
2894.77521	0.94355
2892.84664	0.93987
2890.91808	0.93847
2888.98952	0.93707
2887.06095	0.93390
2885.13239	0.93064
2883.20382	0.92961
2881.27526	0.93043
2879.34669	0.93176
2877.41813	0.93277
2875.48956	0.93187
2873.56100	0.92896
2871.63244	0.92594
2869.70387	0.92281
2867.77531	0.91875
2865.84674	0.91432
2863.91818	0.91087
2861.98961	0.91087
2860.06105	0.91554
2858.13248	0.92254
2856.20392	0.92964
2854.27536	0.93744
2852.34679	0.94593
2850.41823	0.94936
2848.48966	0.93924
2846.56110	0.91600
2844.63253	0.89070
2842.70397	0.87197
2840.77540	0.85909
2838.84684	0.84859
2836.91828	0.84001
2834.98971	0.83335
2833.06115	0.82744
2831.13258	0.82225
2829.20402	0.81845
2827.27545	0.81493
2825.34689	0.81065
2823.41832	0.80719
2821.48976	0.80595
2819.56120	0.80555
2817.63263	0.80416
2815.70407	0.80144
2813.77550	0.79808
2811.84694	0.79532
2809.91837	0.79359
2807.98981	0.79181
2806.06124	0.78955
2804.13268	0.78740
2802.20412	0.78540
2800.27555	0.78343
2798.34699	0.78161
2796.41842	0.77962
2794.48986	0.77728
2792.56129	0.77494
2790.63273	0.77277
2788.70416	0.77099
2786.77560	0.76957
2784.84704	0.76782
2782.91847	0.76569
2780.98991	0.76388
2779.06134	0.76248
2777.13278	0.76099
2775.20421	0.75914
2773.27565	0.75692
2771.34708	0.75433
2769.41852	0.75160
2767.48996	0.74930
2765.56139	0.74765
2763.63283	0.74624
2761.70426	0.74470
2759.77570	0.74314
2757.84713	0.74181
2755.91857	0.74086
2753.99001	0.73981
2752.06144	0.73816
2750.13288	0.73681
2748.20431	0.73644
2746.27575	0.73618
2744.34718	0.73560
2742.41862	0.73528
2740.49005	0.73571
2738.56149	0.73660
2736.63293	0.73707
2734.70436	0.73677
2732.77580	0.73609
2730.84723	0.73561
2728.91867	0.73523
2726.99010	0.73410
2725.06154	0.73229
2723.13297	0.73121
2721.20441	0.73121
2719.27585	0.73082
2717.34728	0.72930
2715.41872	0.72794
2713.49015	0.72741
2711.56159	0.72676
2709.63302	0.72574
2707.70446	0.72466
2705.77589	0.72335
2703.84733	0.72200
2701.91877	0.72081
2699.99020	0.71915
2698.06164	0.71714
2696.13307	0.71576
2694.20451	0.71443
2692.27594	0.71240
2690.34738	0.71024
2688.41881	0.70828
2686.49025	0.70691
2684.56169	0.70611
2682.63312	0.70495
2680.70456	0.70361
2678.77599	0.70289
2676.84743	0.70255
2674.91886	0.70185
2672.99030	0.70060
2671.06173	0.69930
2669.13317	0.69857
2667.20461	0.69846
2665.27604	0.69817
2663.34748	0.69701
2661.41891	0.69537
2659.49035	0.69425
2657.56178	0.69381
2655.63322	0.69329
2653.70465	0.69240
2651.77609	0.69132
2649.84753	0.69013
2647.91896	0.68893
2645.99040	0.68800
2644.06183	0.68732
2642.13327	0.68629
2640.20470	0.68484
2638.27614	0.68389
2636.34757	0.68381
2634.41901	0.68379
2632.49045	0.68292
2630.56188	0.68132
2628.63332	0.68010
2626.70475	0.68006
2624.77619	0.68032
2622.84762	0.67943
2620.91906	0.67772
2618.99049	0.67685
2617.06193	0.67712
2615.13337	0.67747
2613.20480	0.67735
2611.27624	0.67707
2609.34767	0.67686
2607.41911	0.67670
2605.49054	0.67655
2603.56198	0.67652
2601.63342	0.67680
2599.70485	0.67734
2597.77629	0.67776
2595.84772	0.67765
2593.91916	0.67683
2591.99059	0.67595
2590.06203	0.67581
2588.13346	0.67617
2586.20490	0.67641
2584.27634	0.67612
2582.34777	0.67511
2580.41921	0.67385
2578.49064	0.67288
2576.56208	0.67187
2574.63351	0.67076
2572.70495	0.66998
2570.77638	0.66897
2568.84782	0.66725
2566.91926	0.66580
2564.99069	0.66484
2563.06213	0.66331
2561.13356	0.66101
2559.20500	0.65857
2557.27643	0.65627
2555.34787	0.65401
2553.41930	0.65170
2551.49074	0.64968
2549.56218	0.64804
2547.63361	0.64645
2545.70505	0.64479
2543.77648	0.64301
2541.84792	0.64151
2539.91935	0.64071
2537.99079	0.64031
2536.06222	0.64016
2534.13366	0.64007
2532.20510	0.63947
2530.27653	0.63858
2528.34797	0.63820
2526.41940	0.63823
2524.49084	0.63803
2522.56227	0.63776
2520.63371	0.63775
2518.70514	0.63752
2516.77658	0.63707
2514.84802	0.63681
2512.91945	0.63680
2510.99089	0.63691
2509.06232	0.63685
2507.13376	0.63647
2505.20519	0.63588
2503.27663	0.63538
2501.34806	0.63500
2499.41950	0.63440
2497.49094	0.63369
2495.56237	0.63308
2493.63381	0.63217
2491.70524	0.63079
2489.77668	0.62939
2487.84811	0.62827
2485.91955	0.62735
2483.99098	0.62683
2482.06242	0.62674
2480.13386	0.62653
2478.20529	0.62607
2476.27673	0.62550
2474.34816	0.62470
2472.41960	0.62367
2470.49103	0.62271
2468.56247	0.62216
2466.63391	0.62209
2464.70534	0.62225
2462.77678	0.62260
2460.84821	0.62301
2458.91965	0.62312
2456.99108	0.62291
2455.06252	0.62271
2453.13395	0.62268
2451.20539	0.62263
2449.27683	0.62224
2447.34826	0.62181
2445.41970	0.62169
2443.49113	0.62133
2441.56257	0.62038
2439.63400	0.61894
2437.70544	0.61694
2435.77687	0.61483
2433.84831	0.61337
2431.91975	0.61238
2429.99118	0.61117
2428.06262	0.60963
2426.13405	0.60807
2424.20549	0.60647
2422.27692	0.60497
2420.34836	0.60369
2418.41979	0.60206
2416.49123	0.59981
2414.56267	0.59753
2412.63410	0.59568
2410.70554	0.59407
2408.77697	0.59247
2406.84841	0.59101
2404.91984	0.58980
2402.99128	0.58885
2401.06271	0.58805
2399.13415	0.58732
2397.20559	0.58675
2395.27702	0.58596
2393.34846	0.58478
2391.41989	0.58382
2389.49133	0.58313
2387.56276	0.58257
2385.63420	0.58256
2383.70563	0.58322
2381.77707	0.58391
2379.84851	0.58396
2377.91994	0.58368
2375.99138	0.58401
2374.06281	0.58558
2372.13425	0.58867
2370.20568	0.59213
2368.27712	0.59449
2366.34855	0.59656
2364.41999	0.59822
2362.49143	0.59872
2360.56286	0.59812
2358.63430	0.59647
2356.70573	0.59610
2354.77717	0.59676
2352.84860	0.59613
2350.92004	0.59389
2348.99147	0.59111
2347.06291	0.58910
2345.13435	0.58920
2343.20578	0.59121
2341.27722	0.59196
2339.34865	0.59028
2337.42009	0.58850
2335.49152	0.58792
2333.56296	0.58777
2331.63440	0.58738
2329.70583	0.58635
2327.77727	0.58498
2325.84870	0.58399
2323.92014	0.58307
2321.99157	0.58159
2320.06301	0.58037
2318.13444	0.57958
2316.20588	0.57842
2314.27732	0.57708
2312.34875	0.57578
2310.42019	0.57388
2308.49162	0.57121
2306.56306	0.56855
2304.63449	0.56654
2302.70593	0.56517
2300.77736	0.56408
2298.84880	0.56286
2296.92024	0.56139
2294.99167	0.55987
2293.06311	0.55837
2291.13454	0.55693
2289.20598	0.55550
2287.27741	0.55399
2285.34885	0.55267
2283.42028	0.55158
2281.49172	0.55042
2279.56316	0.54938
2277.63459	0.54883
2275.70603	0.54823
2273.77746	0.54679
2271.84890	0.54464
2269.92033	0.54253
2267.99177	0.54101
2266.06320	0.54001
2264.13464	0.53876
2262.20608	0.53717
2260.27751	0.53613
2258.34895	0.53576
2256.42038	0.53542
2254.49182	0.53488
2252.56325	0.53445
2250.63469	0.53415
2248.70612	0.53357
2246.77756	0.53290
2244.84900	0.53279
2242.92043	0.53348
2240.99187	0.53459
2239.06330	0.53558
2237.13474	0.53631
2235.20617	0.53680
2233.27761	0.53734
2231.34904	0.53833
2229.42048	0.53955
2227.49192	0.54069
2225.56335	0.54193
2223.63479	0.54340
2221.70622	0.54489
2219.77766	0.54601
2217.84909	0.54659
2215.92053	0.54686
2213.99196	0.54694
2212.06340	0.54682
2210.13484	0.54686
2208.20627	0.54725
2206.27771	0.54740
2204.34914	0.54681
2202.42058	0.54593
2200.49201	0.54518
2198.56345	0.54440
2196.63488	0.54340
2194.70632	0.54202
2192.77776	0.54032
2190.84919	0.53877
2188.92063	0.53780
2186.99206	0.53686
2185.06350	0.53511
2183.13493	0.53298
2181.20637	0.53117
2179.27781	0.52956
2177.34924	0.52810
2175.42068	0.52699
2173.49211	0.52612
2171.56355	0.52544
2169.63498	0.52465
2167.70642	0.52346
2165.77785	0.52232
2163.84929	0.52145
2161.92073	0.52055
2159.99216	0.51968
2158.06360	0.51887
2156.13503	0.51803
2154.20647	0.51740
2152.27790	0.51703
2150.34934	0.51650
2148.42077	0.51571
2146.49221	0.51506
2144.56365	0.51458
2142.63508	0.51404
2140.70652	0.51356
2138.77795	0.51327
2136.84939	0.51308
2134.92082	0.51276
2132.99226	0.51224
2131.06369	0.51166
2129.13513	0.51113
2127.20657	0.51066
2125.27800	0.51010
2123.34944	0.50945
2121.42087	0.50900
2119.49231	0.50879
2117.56374	0.50869
2115.63518	0.50883
2113.70661	0.50909
2111.77805	0.50927
2109.84949	0.50952
2107.92092	0.50997
2105.99236	0.51058
2104.06379	0.51144
2102.13523	0.51246
2100.20666	0.51323
2098.27810	0.51362
2096.34953	0.51427
2094.42097	0.51564
2092.49241	0.51736
2090.56384	0.51872
2088.63528	0.51933
2086.70671	0.51961
2084.77815	0.52025
2082.84958	0.52122
2080.92102	0.52189
2078.99245	0.52210
2077.06389	0.52221
2075.13533	0.52216
2073.20676	0.52176
2071.27820	0.52133
2069.34963	0.52092
2067.42107	0.52023
2065.49250	0.51933
2063.56394	0.51844
2061.63537	0.51752
2059.70681	0.51656
2057.77825	0.51539
2055.84968	0.51385
2053.92112	0.51223
2051.99255	0.51071
2050.06399	0.50908
2048.13542	0.50735
2046.20686	0.50569
2044.27830	0.50392
2042.34973	0.50199
2040.42117	0.50031
2038.49260	0.49898
2036.56404	0.49772
2034.63547	0.49644
2032.70691	0.49520
2030.77834	0.49409
2028.84978	0.49303
2026.92122	0.49202
2024.99265	0.49127
2023.06409	0.49074
2021.13552	0.49025
2019.20696	0.48995
2017.27839	0.48982
2015.34983	0.48937
2013.42126	0.48870
2011.49270	0.48839
2009.56414	0.48848
2007.63557	0.48880
2005.70701	0.48915
2003.77844	0.48921
2001.84988	0.48909
1999.92131	0.48920
1997.99275	0.48969
1996.06418	0.49042
1994.13562	0.49119
1992.20706	0.49195
1990.27849	0.49273
1988.34993	0.49342
1986.42136	0.49391
1984.49280	0.49411
1982.56423	0.49425
1980.63567	0.49464
1978.70710	0.49527
1976.77854	0.49587
1974.84998	0.49621
1972.92141	0.49643
1970.99285	0.49663
1969.06428	0.49699
1967.13572	0.49760
1965.20715	0.49816
1963.27859	0.49859
1961.35002	0.49903
1959.42146	0.49918
1957.49290	0.49906
1955.56433	0.49922
1953.63577	0.49963
1951.70720	0.49987
1949.77864	0.49984
1947.85007	0.49953
1945.92151	0.49898
1943.99294	0.49877
1942.06438	0.49917
1940.13582	0.49933
1938.20725	0.49907
1936.27869	0.49890
1934.35012	0.49889
1932.42156	0.49897
1930.49299	0.49913
1928.56443	0.49925
1926.63586	0.49906
1924.70730	0.49880
1922.77874	0.49877
1920.85017	0.49853
1918.92161	0.49832
1916.99304	0.49803
1915.06448	0.49700
1913.13591	0.49575
1911.20735	0.49498
1909.27878	0.49465
1907.35022	0.49408
1905.42166	0.49315
1903.49309	0.49231
1901.56453	0.49145
1899.63596	0.49029
1897.70740	0.48904
1895.77883	0.48816
1893.85027	0.48762
1891.92171	0.48709
1889.99314	0.48662
1888.06458	0.48603
1886.13601	0.48514
1884.20745	0.48430
1882.27888	0.48351
1880.35032	0.48267
1878.42175	0.48190
1876.49319	0.48123
1874.56463	0.48052
1872.63606	0.47976
1870.70750	0.47945
1868.77893	0.48012
1866.85037	0.48055
1864.92180	0.48015
1862.99324	0.47995
1861.06467	0.48020
1859.13611	0.48062
1857.20755	0.48107
1855.27898	0.48160
1853.35042	0.48228
1851.42185	0.48313
1849.49329	0.48425
1847.56472	0.48551
1845.63616	0.48712
1843.70759	0.48936
1841.77903	0.49098
1839.85047	0.49184
1837.92190	0.49294
1835.99334	0.49430
1834.06477	0.49525
1832.13621	0.49606
1830.20764	0.49773
1828.27908	0.49957
1826.35051	0.50086
1824.42195	0.50230
1822.49339	0.50295
1820.56482	0.50257
1818.63626	0.50219
1816.70769	0.50196
1814.77913	0.50163
1812.85056	0.50148
1810.92200	0.50171
1808.99343	0.50163
1807.06487	0.50076
1805.13631	0.49959
1803.20774	0.49871
1801.27918	0.49848
1799.35061	0.49840
1797.42205	0.49784
1795.49348	0.49702
1793.56492	0.49646
1791.63635	0.49637
1789.70779	0.49558
1787.77923	0.49434
1785.85066	0.49355
1783.92210	0.49319
1781.99353	0.49301
1780.06497	0.49300
1778.13640	0.49288
1776.20784	0.49247
1774.27927	0.49261
1772.35071	0.49412
1770.42215	0.49524
1768.49358	0.49527
1766.56502	0.49524
1764.63645	0.49565
1762.70789	0.49760
1760.77932	0.50108
1758.85076	0.50450
1756.92220	0.50891
1754.99363	0.51354
1753.06507	0.51785
1751.13650	0.52508
1749.20794	0.53550
1747.27937	0.54414
1745.35081	0.55020
1743.42224	0.55474
1741.49368	0.55823
1739.56512	0.56130
1737.63655	0.56337
1735.70799	0.56508
1733.77942	0.56871
1731.85086	0.57107
1729.92229	0.57169
1727.99373	0.57304
1726.06516	0.57557
1724.13660	0.58029
1722.20804	0.58594
1720.27947	0.59150
1718.35091	0.60138
1716.42234	0.61863
1714.49378	0.63269
1712.56521	0.64375
1710.63665	0.65667
1708.70808	0.67287
1706.77952	0.69689
1704.85096	0.72861
1702.92239	0.75712
1700.99383	0.79577
1699.06526	0.85577
1697.13670	0.90997
1695.20813	0.95942
1693.27957	0.99370
1691.35100	1.02017
1689.42244	1.05329
1687.49388	1.08343
1685.56531	1.11318
1683.63675	1.16254
1681.70818	1.19814
1679.77962	1.21730
1677.85105	1.23736
1675.92249	1.26310
1673.99392	1.28807
1672.06536	1.30560
1670.13680	1.32762
1668.20823	1.35151
1666.27967	1.36230
1664.35110	1.37068
1662.42254	1.38219
1660.49397	1.39004
1658.56541	1.39384
1656.63684	1.39522
1654.70828	1.39531
1652.77972	1.39723
1650.85115	1.39922
1648.92259	1.39962
1646.99402	1.39944
1645.06546	1.39665
1643.13689	1.39216
1641.20833	1.38918
1639.27976	1.38755
1637.35120	1.38745
1635.42264	1.38723
1633.49407	1.38293
1631.56551	1.37666
1629.63694	1.36785
1627.70838	1.35773
1625.77981	1.34687
1623.85125	1.32994
1621.92269	1.30827
1619.99412	1.29074
1618.06556	1.27020
1616.13699	1.23541
1614.20843	1.20260
1612.27986	1.17628
1610.35130	1.14997
1608.42273	1.12442
1606.49417	1.10285
1604.56561	1.08543
1602.63704	1.07115
1600.70848	1.06069
1598.77991	1.05407
1596.85135	1.04949
1594.92278	1.04530
1592.99422	1.04244
1591.06565	1.04311
1589.13709	1.04750
1587.20853	1.05420
1585.27996	1.06264
1583.35140	1.07347
1581.42283	1.08583
1579.49427	1.09765
1577.56570	1.11255
1575.63714	1.13580
1573.70857	1.15351
1571.78001	1.16614
1569.85145	1.18611
1567.92288	1.20852
1565.99432	1.22456
1564.06575	1.23827
1562.13719	1.24841
1560.20862	1.26146
1558.28006	1.29067
1556.35149	1.30400
1554.42293	1.30831
1552.49437	1.31176
1550.56580	1.31414
1548.63724	1.31557
1546.70867	1.31544
1544.78011	1.31352
1542.85154	1.30847
1540.92298	1.29951
1538.99441	1.29118
1537.06585	1.28599
1535.13729	1.28084
1533.20872	1.27405
1531.28016	1.26577
1529.35159	1.25838
1527.42303	1.25265
1525.49446	1.24890
1523.56590	1.24473
1521.63733	1.23630
1519.70877	1.22973
1517.78021	1.22530
1515.85164	1.21504
1513.92308	1.19926
1511.99451	1.18189
1510.06595	1.16377
1508.13738	1.13522
1506.20882	1.09348
1504.28025	1.07214
1502.35169	1.05686
1500.42313	1.03878
1498.49456	1.01610
1496.56600	0.98988
1494.63743	0.96989
1492.70887	0.95680
1490.78030	0.94331
1488.85174	0.92711
1486.92317	0.91529
1484.99461	0.90848
1483.06605	0.90487
1481.13748	0.90413
1479.20892	0.90611
1477.28035	0.91165
1475.35179	0.92282
1473.42322	0.94333
1471.49466	0.96595
1469.56610	0.97779
1467.63753	0.98543
1465.70897	0.99573
1463.78040	1.00680
1461.85184	1.01281
1459.92327	1.01690
1457.99471	1.02652
1456.06614	1.03746
1454.13758	1.03862
1452.20902	1.03772
1450.28045	1.03777
1448.35189	1.03766
1446.42332	1.03535
1444.49476	1.03109
1442.56619	1.02582
1440.63763	1.02013
1438.70906	1.01375
1436.78050	1.00524
1434.85194	0.99628
1432.92337	0.98865
1430.99481	0.98063
1429.06624	0.97266
1427.13768	0.96717
1425.20911	0.96428
1423.28055	0.96325
1421.35198	0.96356
1419.42342	0.96560
1417.49486	0.96891
1415.56629	0.97094
1413.63773	0.97149
1411.70916	0.97107
1409.78060	0.97100
1407.85203	0.97239
1405.92347	0.97566
1403.99490	0.97997
1402.06634	0.98339
1400.13778	0.98666
1398.20921	0.99078
1396.28065	0.99517
1394.35208	0.99937
1392.42352	1.00268
1390.49495	1.00590
1388.56639	1.01224
1386.63782	1.02379
1384.70926	1.03648
1382.78070	1.04718
1380.85213	1.05465
1378.92357	1.05717
1376.99500	1.05404
1375.06644	1.04352
1373.13787	1.02584
1371.20931	1.00651
1369.28074	0.98633
1367.35218	0.96523
1365.42362	0.94583
1363.49505	0.92776
1361.56649	0.91251
1359.63792	0.90294
1357.70936	0.89714
1355.78079	0.89327
1353.85223	0.89125
1351.92366	0.89100
1349.99510	0.89217
1348.06654	0.89441
1346.13797	0.89754
1344.20941	0.90147
1342.28084	0.90616
1340.35228	0.91264
1338.42371	0.92045
1336.49515	0.92783
1334.56659	0.93632
1332.63802	0.94725
1330.70946	0.95905
1328.78089	0.96914
1326.85233	0.97645
1324.92376	0.98113
1322.99520	0.98411
1321.06663	0.98708
1319.13807	0.99030
1317.20951	0.99230
1315.28094	0.99306
1313.35238	0.99368
1311.42381	0.99357
1309.49525	0.99224
1307.56668	0.99032
1305.63812	0.98780
1303.70955	0.98434
1301.78099	0.98035
1299.85243	0.97652
1297.92386	0.97283
1295.99530	0.96903
1294.06673	0.96574
1292.13817	0.96405
1290.20960	0.96468
1288.28104	0.96724
1286.35247	0.97025
1284.42391	0.97272
1282.49535	0.97489
1280.56678	0.97745
1278.63822	0.98107
1276.70965	0.98597
1274.78109	0.99173
1272.85252	0.99857
1270.92396	1.00680
1268.99539	1.01554
1267.06683	1.02353
1265.13827	1.03037
1263.20970	1.03608
1261.28114	1.03979
1259.35257	1.04069
1257.42401	1.04006
1255.49544	1.03976
1253.56688	1.04023
1251.63831	1.04085
1249.70975	1.04118
1247.78119	1.04112
1245.85262	1.04067
1243.92406	1.04018
1241.99549	1.03925
1240.06693	1.03697
1238.13836	1.03419
1236.20980	1.03190
1234.28123	1.02876
1232.35267	1.02378
1230.42411	1.01785
1228.49554	1.01143
1226.56698	1.00456
1224.63841	0.99772
1222.70985	0.99082
1220.78128	0.98381
1218.85272	0.97779
1216.92415	0.97392
1214.99559	0.97269
1213.06703	0.97371
1211.13846	0.97595
1209.20990	0.97864
1207.28133	0.98087
1205.35277	0.98129
1203.42420	0.97920
1201.49564	0.97487
1199.56708	0.96870
1197.63851	0.96111
1195.70995	0.95306
1193.78138	0.94570
1191.85282	0.93973
1189.92425	0.93586
1187.99569	0.93416
1186.06712	0.93354
1184.13856	0.93358
1182.21000	0.93484
1180.28143	0.93769
1178.35287	0.94238
1176.42430	0.94915
1174.49574	0.95761
1172.56717	0.96701
1170.63861	0.97782
1168.71004	0.99079
1166.78148	1.00544
1164.85292	1.02051
1162.92435	1.03403
1160.99579	1.04463
1159.06722	1.05135
1157.13866	1.05197
1155.21009	1.04602
1153.28153	1.03571
1151.35296	1.02300
1149.42440	1.00958
1147.49584	0.99718
1145.56727	0.98691
1143.63871	0.98001
1141.71014	0.97751
1139.78158	0.97886
1137.85301	0.98299
1135.92445	0.98943
1133.99588	0.99813
1132.06732	1.00950
1130.13876	1.02365
1128.21019	1.04031
1126.28163	1.05866
1124.35306	1.07645
1122.42450	1.09082
1120.49593	1.10010
1118.56737	1.10591
1116.63880	1.11084
1114.71024	1.11332
1112.78168	1.11054
1110.85311	1.10385
1108.92455	1.09722
1106.99598	1.09229
1105.06742	1.08734
1103.13885	1.08228
1101.21029	1.07969
1099.28172	1.08057
1097.35316	1.08342
1095.42460	1.08793
1093.49603	1.09522
1091.56747	1.10442
1089.63890	1.11434
1087.71034	1.12641
1085.78177	1.14148
1083.85321	1.15720
1081.92464	1.17057
1079.99608	1.18118
1078.06752	1.18939
1076.13895	1.19346
1074.21039	1.19252
1072.28182	1.18717
1070.35326	1.17867
1068.42469	1.17070
1066.49613	1.16442
1064.56756	1.15784
1062.63900	1.15102
1060.71044	1.14325
1058.78187	1.13390
1056.85331	1.12567
1054.92474	1.12006
1052.99618	1.11598
1051.06761	1.11241
1049.13905	1.10944
1047.21049	1.10833
1045.28192	1.11072
1043.35336	1.11730
1041.42479	1.12620
1039.49623	1.13384
1037.56766	1.13902
1035.63910	1.14287
1033.71053	1.14513
1031.78197	1.14394
1029.85341	1.13928
1027.92484	1.13300
1025.99628	1.12516
1024.06771	1.11544
1022.13915	1.10535
1020.21058	1.09579
1018.28202	1.08715
1016.35345	1.07924
1014.42489	1.06971
1012.49633	1.05672
1010.56776	1.04083
1008.63920	1.02396
1006.71063	1.00801
1004.78207	0.99317
1002.85350	0.97934
1000.92494	0.96761
998.99637	0.95854
997.06781	0.95202
995.13925	0.94751
993.21068	0.94349
991.28212	0.93896
989.35355	0.93364
987.42499	0.92723
985.49642	0.92056
983.56786	0.91489
981.63929	0.91006
979.71073	0.90546
977.78217	0.90095
975.85360	0.89596
973.92504	0.88922
971.99647	0.88014
970.06791	0.86930
968.13934	0.85781
966.21078	0.84717
964.28221	0.83860
962.35365	0.83295
960.42509	0.83177
958.49652	0.83569
956.56796	0.84142
954.63939	0.84321
952.71083	0.83811
950.78226	0.82800
948.85370	0.81634
946.92513	0.80532
944.99657	0.79618
943.06801	0.78928
941.13944	0.78397
939.21088	0.77954
937.28231	0.77565
935.35375	0.77211
933.42518	0.76888
931.49662	0.76582
929.56805	0.76309
927.63949	0.76130
925.71093	0.76054
923.78236	0.76034
921.85380	0.76016
919.92523	0.75936
917.99667	0.75829
916.06810	0.75799
914.13954	0.75864
912.21098	0.76030
910.28241	0.76351
908.35385	0.76889
906.42528	0.77643
904.49672	0.78519
902.56815	0.79424
900.63959	0.80308
898.71102	0.81121
896.78246	0.81834
894.85390	0.82404
892.92533	0.82797
890.99677	0.83051
889.06820	0.83234
887.13964	0.83402
885.21107	0.83578
883.28251	0.83717
881.35394	0.83807
879.42538	0.83912
877.49682	0.83966
875.56825	0.83884
873.63969	0.83770
871.71112	0.83673
869.78256	0.83520
867.85399	0.83308
865.92543	0.83111
863.99686	0.83056
862.06830	0.83200
860.13974	0.83403
858.21117	0.83506
856.28261	0.83510
854.35404	0.83548
852.42548	0.83694
850.49691	0.83866
848.56835	0.84002
846.63978	0.84103
844.71122	0.84174
842.78266	0.84362
840.85409	0.84742
838.92553	0.85107
836.99696	0.85380
835.06840	0.85743
833.13983	0.86188
831.21127	0.86554
829.28270	0.86824
827.35414	0.87014
825.42558	0.87051
823.49701	0.86992
821.56845	0.86967
819.63988	0.86798
817.71132	0.86267
815.78275	0.85545
813.85419	0.84802
811.92562	0.83976
809.99706	0.83048
808.06850	0.82062
806.13993	0.81017
804.21137	0.79911
802.28280	0.78826
800.35424	0.77903
798.42567	0.77097
796.49711	0.76248
794.56854	0.75404
792.63998	0.74701
790.71142	0.74165
788.78285	0.73802
786.85429	0.73623
784.92572	0.73616
782.99716	0.73743
781.06859	0.73987
779.14003	0.74397
777.21147	0.75029
775.28290	0.75845
773.35434	0.76750
771.42577	0.77738
769.49721	0.78842
767.56864	0.80054
765.64008	0.81381
763.71151	0.82827
761.78295	0.84387
759.85439	0.86019
757.92582	0.87682
755.99726	0.89383
754.06869	0.91047
752.14013	0.92566
750.21156	0.93983
748.28300	0.95334
746.35443	0.96590
744.42587	0.97706
742.49731	0.98507
740.56874	0.98901
738.64018	0.98972
736.71161	0.98704
734.78305	0.98155
732.85448	0.97556
730.92592	0.96925
728.99735	0.96173
727.06879	0.95349
725.14023	0.94465
723.21166	0.93524
721.28310	0.92550
719.35453	0.91482
717.42597	0.90377
715.49740	0.89481
713.56884	0.88904
711.64027	0.88490
709.71171	0.88147
707.78315	0.87981
705.85458	0.88018
703.92602	0.88180
701.99745	0.88438
700.06889	0.88833
698.14032	0.89407
696.21176	0.90131
694.28319	0.90941
692.35463	0.91819
690.42607	0.92675
688.49750	0.93268
686.56894	0.93597
684.64037	0.93938
682.71181	0.94287
680.78324	0.94403
678.85468	0.94104
676.92611	0.93288
674.99755	0.92080
673.06899	0.90814
671.14042	0.89673
669.21186	0.88052
667.28329	0.85502
665.35473	0.83502
663.42616	0.81872
661.49760	0.80104
659.56903	0.78260
657.64047	0.76481
655.71191	0.74820
653.78334	0.73298
651.85478	0.72043
649.92621	0.71110
647.99765	0.70394
646.06908	0.69842
644.14052	0.69536
642.21195	0.69625
640.28339	0.70146
638.35483	0.70926
636.42626	0.71736
634.49770	0.72534
632.56913	0.73428
630.64057	0.74574
628.71200	0.76025
626.78344	0.77750
624.85488	0.79662
622.92631	0.81670
620.99775	0.83788
619.06918	0.86006
617.14062	0.88342
615.21205	0.90682
613.28349	0.92880
611.35492	0.95170
609.42636	0.97604
607.49780	0.99660
605.56923	1.01227
603.64067	1.02833
601.71210	1.04408
599.78354	1.05320
