3997.91406	0.54632
3995.98550	0.54586
3994.05693	0.54489
3992.12837	0.54264
3990.19980	0.54122
3988.27124	0.54113
3986.34268	0.54152
3984.41411	0.54271
3982.48555	0.54420
3980.55698	0.54432
3978.62842	0.54288
3976.69985	0.54131
3974.77129	0.54081
3972.84272	0.54126
3970.91416	0.54100
3968.98560	0.53971
3967.05703	0.53953
3965.12847	0.54083
3963.19990	0.54257
3961.27134	0.54379
3959.34277	0.54243
3957.41421	0.53906
3955.48564	0.53762
3953.55708	0.53888
3951.62852	0.53982
3949.69995	0.53930
3947.77139	0.53825
3945.84282	0.53687
3943.91426	0.53685
3941.98569	0.53986
3940.05713	0.54314
3938.12856	0.54426
3936.20000	0.54364
3934.27144	0.54175
3932.34287	0.53939
3930.41431	0.53807
3928.48574	0.53732
3926.55718	0.53647
3924.62861	0.53533
3922.70005	0.53343
3920.77148	0.53230
3918.84292	0.53392
3916.91436	0.53733
3914.98579	0.53909
3913.05723	0.53833
3911.12866	0.53618
3909.20010	0.53289
3907.27153	0.52915
3905.34297	0.52809
3903.41440	0.53198
3901.48584	0.53628
3899.55728	0.53836
3897.62871	0.53900
3895.70015	0.53741
3893.77158	0.53428
3891.84302	0.53364
3889.91445	0.53386
3887.98589	0.52999
3886.05733	0.52715
3884.12876	0.52818
3882.20020	0.52689
3880.27163	0.52693
3878.34307	0.52867
3876.41450	0.52696
3874.48594	0.52450
3872.55737	0.52308
3870.62881	0.52211
3868.70025	0.52378
3866.77168	0.52474
3864.84312	0.52469
3862.91455	0.52748
3860.98599	0.53009
3859.05742	0.52886
3857.12886	0.52206
3855.20029	0.51065
3853.27173	0.51415
3851.34317	0.52847
3849.41460	0.53094
3847.48604	0.52920
3845.55747	0.52838
3843.62891	0.52751
3841.70034	0.52465
3839.77178	0.52305
3837.84321	0.52412
3835.91465	0.52264
3833.98609	0.52043
3832.05752	0.52123
3830.12896	0.52356
3828.20039	0.52468
3826.27183	0.52361
3824.34326	0.51865
3822.41470	0.51245
3820.48613	0.51400
3818.55757	0.51738
3816.62901	0.52031
3814.70044	0.52707
3812.77188	0.52970
3810.84331	0.52616
3808.91475	0.52106
3806.98618	0.52037
3805.05762	0.52046
3803.12905	0.51705
3801.20049	0.51912
3799.27193	0.52543
3797.34336	0.52913
3795.41480	0.53104
3793.48623	0.53039
3791.55767	0.52891
3789.62910	0.52813
3787.70054	0.52757
3785.77197	0.52832
3783.84341	0.52995
3781.91485	0.52965
3779.98628	0.52869
3778.05772	0.52944
3776.12915	0.53029
3774.20059	0.52941
3772.27202	0.52745
3770.34346	0.52742
3768.41489	0.52824
3766.48633	0.52714
3764.55777	0.52609
3762.62920	0.52413
3760.70064	0.52129
3758.77207	0.52114
3756.84351	0.52148
3754.91494	0.51793
3752.98638	0.51048
3751.05781	0.50616
3749.12925	0.51073
3747.20069	0.51398
3745.27212	0.51729
3743.34356	0.52380
3741.41499	0.52683
3739.48643	0.52424
3737.55786	0.51826
3735.62930	0.51582
3733.70074	0.51973
3731.77217	0.52280
3729.84361	0.52352
3727.91504	0.52307
3725.98648	0.52314
3724.05791	0.52457
3722.12935	0.52687
3720.20078	0.52914
3718.27222	0.52895
3716.34366	0.52494
3714.41509	0.51872
3712.48653	0.51663
3710.55796	0.52487
3708.62940	0.53141
3706.70083	0.53132
3704.77227	0.52871
3702.84370	0.52814
3700.91514	0.53107
3698.98658	0.53264
3697.05801	0.53207
3695.12945	0.53098
3693.20088	0.52847
3691.27232	0.52514
3689.34375	0.52748
3687.41519	0.53403
3685.48662	0.53739
3683.55806	0.53814
3681.62950	0.53775
3679.70093	0.53608
3677.77237	0.53245
3675.84380	0.53313
3673.91524	0.53700
3671.98667	0.53589
3670.05811	0.54025
3668.12954	0.54916
3666.20098	0.55183
3664.27242	0.55179
3662.34385	0.55257
3660.41529	0.55424
3658.48672	0.55586
3656.55816	0.55839
3654.62959	0.55889
3652.70103	0.55336
3650.77246	0.54744
3648.84390	0.55983
3646.91534	0.57620
3644.98677	0.58009
3643.05821	0.58068
3641.12964	0.58259
3639.20108	0.58516
3637.27251	0.58791
3635.34395	0.59139
3633.41538	0.59288
3631.48682	0.59031
3629.55826	0.59166
3627.62969	0.60240
3625.70113	0.60867
3623.77256	0.61039
3621.84400	0.61139
3619.91543	0.61469
3617.98687	0.61918
3616.05830	0.62114
3614.12974	0.62346
3612.20118	0.62656
3610.27261	0.62823
3608.34405	0.63284
3606.41548	0.64115
3604.48692	0.64625
3602.55835	0.64833
3600.62979	0.65137
3598.70123	0.65533
3596.77266	0.65995
3594.84410	0.66771
3592.91553	0.67465
3590.98697	0.67578
3589.05840	0.67523
3587.12984	0.67968
3585.20127	0.68505
3583.27271	0.68701
3581.34415	0.68849
3579.41558	0.69114
3577.48702	0.69450
3575.55845	0.69881
3573.62989	0.70312
3571.70132	0.70426
3569.77276	0.70184
3567.84419	0.70339
3565.91563	0.71354
3563.98707	0.71929
3562.05850	0.72052
3560.12994	0.72458
3558.20137	0.73160
3556.27281	0.73675
3554.34424	0.73999
3552.41568	0.74458
3550.48711	0.74851
3548.55855	0.75107
3546.62999	0.75754
3544.70142	0.76720
3542.77286	0.77397
3540.84429	0.77905
3538.91573	0.78400
3536.98716	0.78727
3535.05860	0.78911
3533.13003	0.79124
3531.20147	0.79423
3529.27291	0.79781
3527.34434	0.80161
3525.41578	0.80611
3523.48721	0.81162
3521.55865	0.81677
3519.63008	0.82077
3517.70152	0.82495
3515.77295	0.82995
3513.84439	0.83443
3511.91583	0.83812
3509.98726	0.84359
3508.05870	0.85094
3506.13013	0.85692
3504.20157	0.86102
3502.27300	0.86400
3500.34444	0.86721
3498.41587	0.87383
3496.48731	0.88410
3494.55875	0.89277
3492.63018	0.89719
3490.70162	0.90005
3488.77305	0.90352
3486.84449	0.90761
3484.91592	0.91014
3482.98736	0.91181
3481.05879	0.91599
3479.13023	0.92030
3477.20167	0.92104
3475.27310	0.92026
3473.34454	0.92234
3471.41597	0.92642
3469.48741	0.92879
3467.55884	0.93095
3465.63028	0.93530
3463.70171	0.94001
3461.77315	0.94367
3459.84459	0.94640
3457.91602	0.94719
3455.98746	0.94797
3454.05889	0.95217
3452.13033	0.95823
3450.20176	0.96502
3448.27320	0.97356
3446.34464	0.97917
3444.41607	0.97736
3442.48751	0.97265
3440.55894	0.97145
3438.63038	0.97458
3436.70181	0.97804
3434.77325	0.97912
3432.84468	0.97923
3430.91612	0.97952
3428.98756	0.97999
3427.05899	0.98191
3425.13043	0.98408
3423.20186	0.98305
3421.27330	0.98161
3419.34473	0.98457
3417.41617	0.98817
3415.48760	0.98858
3413.55904	0.98808
3411.63048	0.98894
3409.70191	0.99181
3407.77335	0.99534
3405.84478	0.99683
3403.91622	0.99700
3401.98765	0.99810
3400.05909	1.00024
3398.13052	1.00287
3396.20196	1.00468
3394.27340	1.00550
3392.34483	1.00710
3390.41627	1.00816
3388.48770	1.00848
3386.55914	1.01091
3384.63057	1.01294
3382.70201	1.01168
3380.77344	1.01085
3378.84488	1.01268
3376.91632	1.01588
3374.98775	1.01971
3373.05919	1.02334
3371.13062	1.02594
3369.20206	1.02590
3367.27349	1.02323
3365.34493	1.02347
3363.41636	1.02829
3361.48780	1.03191
3359.55924	1.03256
3357.63067	1.03321
3355.70211	1.03507
3353.77354	1.03717
3351.84498	1.03822
3349.91641	1.03940
3347.98785	1.04190
3346.05928	1.04346
3344.13072	1.04328
3342.20216	1.04338
3340.27359	1.04439
3338.34503	1.04636
3336.41646	1.05021
3334.48790	1.05604
3332.55933	1.06270
3330.63077	1.06828
3328.70220	1.07064
3326.77364	1.07061
3324.84508	1.07117
3322.91651	1.07266
3320.98795	1.07490
3319.05938	1.07874
3317.13082	1.08287
3315.20225	1.08759
3313.27369	1.09479
3311.34513	1.10043
3309.41656	1.10044
3307.48800	1.09778
3305.55943	1.09705
3303.63087	1.10045
3301.70230	1.10526
3299.77374	1.10643
3297.84517	1.10436
3295.91661	1.10299
3293.98805	1.10320
3292.05948	1.10466
3290.13092	1.10833
3288.20235	1.11247
3286.27379	1.11436
3284.34522	1.11471
3282.41666	1.11478
3280.48809	1.11547
3278.55953	1.11752
3276.63097	1.11846
3274.70240	1.11517
3272.77384	1.10991
3270.84527	1.10600
3268.91671	1.10421
3266.98814	1.10607
3265.05958	1.10947
3263.13101	1.10843
3261.20245	1.10114
3259.27389	1.09092
3257.34532	1.08250
3255.41676	1.07745
3253.48819	1.07435
3251.55963	1.07071
3249.63106	1.06431
3247.70250	1.05747
3245.77393	1.05360
3243.84537	1.05191
3241.91681	1.05049
3239.98824	1.04781
3238.05968	1.04273
3236.13111	1.03710
3234.20255	1.03354
3232.27398	1.03055
3230.34542	1.02590
3228.41685	1.02143
3226.48829	1.01855
3224.55973	1.01517
3222.63116	1.01019
3220.70260	1.00620
3218.77403	1.00480
3216.84547	1.00329
3214.91690	1.00043
3212.98834	0.99751
3211.05977	0.99404
3209.13121	0.99016
3207.20265	0.98652
3205.27408	0.98284
3203.34552	0.97983
3201.41695	0.97720
3199.48839	0.97372
3197.55982	0.96993
3195.63126	0.96669
3193.70269	0.96345
3191.77413	0.95932
3189.84557	0.95577
3187.91700	0.95396
3185.98844	0.95135
3184.05987	0.94687
3182.13131	0.94342
3180.20274	0.94239
3178.27418	0.94164
3176.34562	0.93888
3174.41705	0.93469
3172.48849	0.93060
3170.55992	0.92611
3168.63136	0.92070
3166.70279	0.91710
3164.77423	0.91795
3162.84566	0.92062
3160.91710	0.92079
3158.98854	0.91852
3157.05997	0.91536
3155.13141	0.91241
3153.20284	0.91080
3151.27428	0.90912
3149.34571	0.90600
3147.41715	0.90293
3145.48858	0.90122
3143.56002	0.90046
3141.63146	0.90003
3139.70289	0.89937
3137.77433	0.89797
3135.84576	0.89680
3133.91720	0.89669
3131.98863	0.89668
3130.06007	0.89672
3128.13150	0.89767
3126.20294	0.89844
3124.27438	0.89735
3122.34581	0.89525
3120.41725	0.89327
3118.48868	0.89086
3116.56012	0.88965
3114.63155	0.89141
3112.70299	0.89345
3110.77442	0.89361
3108.84586	0.89363
3106.91730	0.89442
3104.98873	0.89455
3103.06017	0.89421
3101.13160	0.89503
3099.20304	0.89616
3097.27447	0.89606
3095.34591	0.89492
3093.41734	0.89393
3091.48878	0.89417
3089.56022	0.89441
3087.63165	0.89327
3085.70309	0.89150
3083.77452	0.88901
3081.84596	0.88587
3079.91739	0.88418
3077.98883	0.88365
3076.06026	0.88199
3074.13170	0.88037
3072.20314	0.88026
3070.27457	0.87934
3068.34601	0.87651
3066.41744	0.87435
3064.48888	0.87415
3062.56031	0.87419
3060.63175	0.87336
3058.70318	0.87191
3056.77462	0.86936
3054.84606	0.86477
3052.91749	0.85977
3050.98893	0.85676
3049.06036	0.85479
3047.13180	0.85167
3045.20323	0.84747
3043.27467	0.84324
3041.34610	0.83929
3039.41754	0.83556
3037.48898	0.83261
3035.56041	0.83071
3033.63185	0.82936
3031.70328	0.82802
3029.77472	0.82601
3027.84615	0.82338
3025.91759	0.82182
3023.98903	0.82230
3022.06046	0.82251
3020.13190	0.82133
3018.20333	0.82051
3016.27477	0.81939
3014.34620	0.81756
3012.41764	0.81698
3010.48907	0.81738
3008.56051	0.81767
3006.63195	0.81785
3004.70338	0.81772
3002.77482	0.81719
3000.84625	0.81672
2998.91769	0.81707
2996.98912	0.81813
2995.06056	0.81897
2993.13199	0.82039
2991.20343	0.82392
2989.27487	0.82851
2987.34630	0.83218
2985.41774	0.83441
2983.48917	0.83612
2981.56061	0.83914
2979.63204	0.84383
2977.70348	0.84855
2975.77491	0.85255
2973.84635	0.85721
2971.91779	0.86335
2969.98922	0.86918
2968.06066	0.87408
2966.13209	0.87949
2964.20353	0.88493
2962.27496	0.88814
2960.34640	0.88846
2958.41783	0.88698
2956.48927	0.88428
2954.56071	0.88087
2952.63214	0.87750
2950.70358	0.87467
2948.77501	0.87330
2946.84645	0.87415
2944.91788	0.87692
2942.98932	0.88127
2941.06075	0.88770
2939.13219	0.89643
2937.20363	0.90623
2935.27506	0.91635
2933.34650	0.92720
2931.41793	0.93728
2929.48937	0.94443
2927.56080	0.95013
2925.63224	0.95662
2923.70367	0.96341
2921.77511	0.96891
2919.84655	0.97111
2917.91798	0.96710
2915.98942	0.95486
2914.06085	0.93727
2912.13229	0.92038
2910.20372	0.90675
2908.27516	0.89574
2906.34659	0.88724
2904.41803	0.88083
2902.48947	0.87536
2900.56090	0.87096
2898.63234	0.86827
2896.70377	0.86672
2894.77521	0.86488
2892.84664	0.86149
2890.91808	0.85715
2888.98952	0.85344
2887.06095	0.85054
2885.13239	0.84851
2883.20382	0.84766
2881.27526	0.84747
2879.34669	0.84783
2877.41813	0.84841
2875.48956	0.84804
2873.56100	0.84610
2871.63244	0.84236
2869.70387	0.83771
2867.77531	0.83387
2865.84674	0.83186
2863.91818	0.83202
2861.98961	0.83411
2860.06105	0.83752
2858.13248	0.84181
2856.20392	0.84730
2854.27536	0.85478
2852.34679	0.86302
2850.41823	0.86638
2848.48966	0.85764
2846.56110	0.83812
2844.63253	0.81768
2842.70397	0.80229
2840.77540	0.79133
2838.84684	0.78295
2836.91828	0.77625
2834.98971	0.77120
2833.06115	0.76727
2831.13258	0.76290
2829.20402	0.75836
2827.27545	0.75520
2825.34689	0.75281
2823.41832	0.75045
2821.48976	0.74882
2819.56120	0.74744
2817.63263	0.74510
2815.70407	0.74202
2813.77550	0.73892
2811.84694	0.73600
2809.91837	0.73286
2807.98981	0.72944
2806.06124	0.72654
2804.13268	0.72427
2802.20412	0.72199
2800.27555	0.71967
2798.34699	0.71766
2796.41842	0.71590
2794.48986	0.71391
2792.56129	0.71162
2790.63273	0.70992
2788.70416	0.70915
2786.77560	0.70846
2784.84704	0.70759
2782.91847	0.70704
2780.98991	0.70650
2779.06134	0.70564
2777.13278	0.70482
2775.20421	0.70350
2773.27565	0.70169
2771.34708	0.70090
2769.41852	0.70122
2767.48996	0.70159
2765.56139	0.70201
2763.63283	0.70222
2761.70426	0.70123
2759.77570	0.69942
2757.84713	0.69835
2755.91857	0.69834
2753.99001	0.69810
2752.06144	0.69670
2750.13288	0.69510
2748.20431	0.69425
2746.27575	0.69316
2744.34718	0.69110
2742.41862	0.68899
2740.49005	0.68733
2738.56149	0.68616
2736.63293	0.68562
2734.70436	0.68485
2732.77580	0.68289
2730.84723	0.68035
2728.91867	0.67849
2726.99010	0.67767
2725.06154	0.67692
2723.13297	0.67506
2721.20441	0.67261
2719.27585	0.67094
2717.34728	0.67003
2715.41872	0.66899
2713.49015	0.66742
2711.56159	0.66556
2709.63302	0.66406
2707.70446	0.66286
2705.77589	0.66174
2703.84733	0.66098
2701.91877	0.66052
2699.99020	0.66020
2698.06164	0.66023
2696.13307	0.66026
2694.20451	0.65984
2692.27594	0.65934
2690.34738	0.65893
2688.41881	0.65856
2686.49025	0.65866
2684.56169	0.65905
2682.63312	0.65940
2680.70456	0.65991
2678.77599	0.66009
2676.84743	0.65962
2674.91886	0.65904
2672.99030	0.65840
2671.06173	0.65764
2669.13317	0.65695
2667.20461	0.65642
2665.27604	0.65622
2663.34748	0.65593
2661.41891	0.65488
2659.49035	0.65367
2657.56178	0.65303
2655.63322	0.65270
2653.70465	0.65226
2651.77609	0.65154
2649.84753	0.65053
2647.91896	0.64950
2645.99040	0.64857
2644.06183	0.64763
2642.13327	0.64634
2640.20470	0.64482
2638.27614	0.64358
2636.34757	0.64276
2634.41901	0.64226
2632.49045	0.64169
2630.56188	0.64081
2628.63332	0.64033
2626.70475	0.64021
2624.77619	0.63958
2622.84762	0.63854
2620.91906	0.63757
2618.99049	0.63669
2617.06193	0.63558
2615.13337	0.63449
2613.20480	0.63408
2611.27624	0.63400
2609.34767	0.63365
2607.41911	0.63353
2605.49054	0.63391
2603.56198	0.63394
2601.63342	0.63335
2599.70485	0.63263
2597.77629	0.63198
2595.84772	0.63130
2593.91916	0.63050
2591.99059	0.62965
2590.06203	0.62912
2588.13346	0.62902
2586.20490	0.62876
2584.27634	0.62798
2582.34777	0.62727
2580.41921	0.62663
2578.49064	0.62559
2576.56208	0.62454
2574.63351	0.62380
2572.70495	0.62273
2570.77638	0.62073
2568.84782	0.61854
2566.91926	0.61692
2564.99069	0.61535
2563.06213	0.61355
2561.13356	0.61182
2559.20500	0.61008
2557.27643	0.60843
2555.34787	0.60722
2553.41930	0.60634
2551.49074	0.60556
2549.56218	0.60485
2547.63361	0.60403
2545.70505	0.60296
2543.77648	0.60203
2541.84792	0.60164
2539.91935	0.60147
2537.99079	0.60100
2536.06222	0.60059
2534.13366	0.60069
2532.20510	0.60088
2530.27653	0.60052
2528.34797	0.59991
2526.41940	0.59958
2524.49084	0.59943
2522.56227	0.59968
2520.63371	0.60020
2518.70514	0.60024
2516.77658	0.60000
2514.84802	0.59965
2512.91945	0.59903
2510.99089	0.59885
2509.06232	0.59926
2507.13376	0.59926
2505.20519	0.59873
2503.27663	0.59845
2501.34806	0.59825
2499.41950	0.59747
2497.49094	0.59629
2495.56237	0.59540
2493.63381	0.59454
2491.70524	0.59308
2489.77668	0.59164
2487.84811	0.59084
2485.91955	0.58994
2483.99098	0.58850
2482.06242	0.58690
2480.13386	0.58537
2478.20529	0.58390
2476.27673	0.58222
2474.34816	0.58050
2472.41960	0.57955
2470.49103	0.57914
2468.56247	0.57840
2466.63391	0.57766
2464.70534	0.57704
2462.77678	0.57603
2460.84821	0.57481
2458.91965	0.57368
2456.99108	0.57264
2455.06252	0.57189
2453.13395	0.57153
2451.20539	0.57125
2449.27683	0.57078
2447.34826	0.57045
2445.41970	0.57035
2443.49113	0.57020
2441.56257	0.56975
2439.63400	0.56907
2437.70544	0.56876
2435.77687	0.56913
2433.84831	0.56942
2431.91975	0.56899
2429.99118	0.56843
2428.06262	0.56848
2426.13405	0.56880
2424.20549	0.56878
2422.27692	0.56834
2420.34836	0.56784
2418.41979	0.56717
2416.49123	0.56613
2414.56267	0.56515
2412.63410	0.56456
2410.70554	0.56428
2408.77697	0.56375
2406.84841	0.56251
2404.91984	0.56121
2402.99128	0.56046
2401.06271	0.55978
2399.13415	0.55862
2397.20559	0.55717
2395.27702	0.55594
2393.34846	0.55491
2391.41989	0.55372
2389.49133	0.55240
2387.56276	0.55127
2385.63420	0.55059
2383.70563	0.55048
2381.77707	0.55080
2379.84851	0.55160
2377.91994	0.55273
2375.99138	0.55368
2374.06281	0.55471
2372.13425	0.55610
2370.20568	0.55728
2368.27712	0.55799
2366.34855	0.55898
2364.41999	0.56090
2362.49143	0.56436
2360.56286	0.56773
2358.63430	0.56806
2356.70573	0.56769
2354.77717	0.56708
2352.84860	0.56421
2350.92004	0.56090
2348.99147	0.55908
2347.06291	0.55919
2345.13435	0.56130
2343.20578	0.56428
2341.27722	0.56527
2339.34865	0.56353
2337.42009	0.56217
2335.49152	0.56197
2333.56296	0.56175
2331.63440	0.56243
2329.70583	0.56326
2327.77727	0.56212
2325.84870	0.56053
2323.92014	0.55989
2321.99157	0.55860
2320.06301	0.55617
2318.13444	0.55407
2316.20588	0.55260
2314.27732	0.55096
2312.34875	0.54894
2310.42019	0.54717
2308.49162	0.54572
2306.56306	0.54430
2304.63449	0.54301
2302.70593	0.54166
2300.77736	0.54023
2298.84880	0.53911
2296.92024	0.53812
2294.99167	0.53683
2293.06311	0.53562
2291.13454	0.53502
2289.20598	0.53475
2287.27741	0.53418
2285.34885	0.53341
2283.42028	0.53308
2281.49172	0.53328
2279.56316	0.53334
2277.63459	0.53288
2275.70603	0.53231
2273.77746	0.53206
2271.84890	0.53204
2269.92033	0.53210
2267.99177	0.53220
2266.06320	0.53220
2264.13464	0.53212
2262.20608	0.53205
2260.27751	0.53204
2258.34895	0.53222
2256.42038	0.53230
2254.49182	0.53203
2252.56325	0.53180
2250.63469	0.53155
2248.70612	0.53079
2246.77756	0.52991
2244.84900	0.52957
2242.92043	0.52955
2240.99187	0.52943
2239.06330	0.52905
2237.13474	0.52835
2235.20617	0.52747
2233.27761	0.52676
2231.34904	0.52611
2229.42048	0.52518
2227.49192	0.52417
2225.56335	0.52351
2223.63479	0.52308
2221.70622	0.52260
2219.77766	0.52189
2217.84909	0.52108
2215.92053	0.52053
2213.99196	0.52020
2212.06340	0.51965
2210.13484	0.51907
2208.20627	0.51879
2206.27771	0.51872
2204.34914	0.51866
2202.42058	0.51861
2200.49201	0.51868
2198.56345	0.51896
2196.63488	0.51933
2194.70632	0.51958
2192.77776	0.51961
2190.84919	0.51969
2188.92063	0.52003
2186.99206	0.52031
2185.06350	0.52042
2183.13493	0.52063
2181.20637	0.52093
2179.27781	0.52114
2177.34924	0.52112
2175.42068	0.52104
2173.49211	0.52109
2171.56355	0.52116
2169.63498	0.52129
2167.70642	0.52161
2165.77785	0.52185
2163.84929	0.52175
2161.92073	0.52146
2159.99216	0.52128
2158.06360	0.52120
2156.13503	0.52104
2154.20647	0.52076
2152.27790	0.52030
2150.34934	0.51973
2148.42077	0.51906
2146.49221	0.51818
2144.56365	0.51736
2142.63508	0.51680
2140.70652	0.51642
2138.77795	0.51615
2136.84939	0.51562
2134.92082	0.51470
2132.99226	0.51379
2131.06369	0.51287
2129.13513	0.51178
2127.20657	0.51092
2125.27800	0.51034
2123.34944	0.50963
2121.42087	0.50906
2119.49231	0.50868
2117.56374	0.50803
2115.63518	0.50726
2113.70661	0.50682
2111.77805	0.50677
2109.84949	0.50692
2107.92092	0.50698
2105.99236	0.50675
2104.06379	0.50635
2102.13523	0.50605
2100.20666	0.50592
2098.27810	0.50577
2096.34953	0.50555
2094.42097	0.50542
2092.49241	0.50548
2090.56384	0.50546
2088.63528	0.50496
2086.70671	0.50434
2084.77815	0.50429
2082.84958	0.50450
2080.92102	0.50449
2078.99245	0.50461
2077.06389	0.50486
2075.13533	0.50477
2073.20676	0.50440
2071.27820	0.50423
2069.34963	0.50430
2067.42107	0.50424
2065.49250	0.50403
2063.56394	0.50390
2061.63537	0.50359
2059.70681	0.50295
2057.77825	0.50219
2055.84968	0.50138
2053.92112	0.50049
2051.99255	0.49963
2050.06399	0.49894
2048.13542	0.49837
2046.20686	0.49767
2044.27830	0.49675
2042.34973	0.49568
2040.42117	0.49459
2038.49260	0.49348
2036.56404	0.49228
2034.63547	0.49112
2032.70691	0.49024
2030.77834	0.48949
2028.84978	0.48840
2026.92122	0.48701
2024.99265	0.48559
2023.06409	0.48415
2021.13552	0.48274
2019.20696	0.48150
2017.27839	0.48023
2015.34983	0.47898
2013.42126	0.47801
2011.49270	0.47703
2009.56414	0.47583
2007.63557	0.47470
2005.70701	0.47371
2003.77844	0.47266
2001.84988	0.47169
1999.92131	0.47102
1997.99275	0.47044
1996.06418	0.46988
1994.13562	0.46952
1992.20706	0.46923
1990.27849	0.46882
1988.34993	0.46831
1986.42136	0.46784
1984.49280	0.46761
1982.56423	0.46757
1980.63567	0.46758
1978.70710	0.46756
1976.77854	0.46744
1974.84998	0.46720
1972.92141	0.46710
1970.99285	0.46726
1969.06428	0.46765
1967.13572	0.46818
1965.20715	0.46846
1963.27859	0.46843
1961.35002	0.46833
1959.42146	0.46811
1957.49290	0.46779
1955.56433	0.46753
1953.63577	0.46710
1951.70720	0.46636
1949.77864	0.46549
1947.85007	0.46461
1945.92151	0.46380
1943.99294	0.46333
1942.06438	0.46299
1940.13582	0.46233
1938.20725	0.46152
1936.27869	0.46080
1934.35012	0.46025
1932.42156	0.45993
1930.49299	0.45965
1928.56443	0.45907
1926.63586	0.45835
1924.70730	0.45807
1922.77874	0.45824
1920.85017	0.45819
1918.92161	0.45802
1916.99304	0.45802
1915.06448	0.45784
1913.13591	0.45763
1911.20735	0.45769
1909.27878	0.45778
1907.35022	0.45754
1905.42166	0.45714
1903.49309	0.45701
1901.56453	0.45716
1899.63596	0.45725
1897.70740	0.45722
1895.77883	0.45736
1893.85027	0.45755
1891.92171	0.45757
1889.99314	0.45766
1888.06458	0.45750
1886.13601	0.45702
1884.20745	0.45658
1882.27888	0.45603
1880.35032	0.45523
1878.42175	0.45429
1876.49319	0.45319
1874.56463	0.45184
1872.63606	0.45053
1870.70750	0.44971
1868.77893	0.44926
1866.85037	0.44809
1864.92180	0.44625
1862.99324	0.44457
1861.06467	0.44328
1859.13611	0.44224
1857.20755	0.44117
1855.27898	0.43985
1853.35042	0.43846
1851.42185	0.43742
1849.49329	0.43692
1847.56472	0.43680
1845.63616	0.43695
1843.70759	0.43681
1841.77903	0.43583
1839.85047	0.43484
1837.92190	0.43449
1835.99334	0.43454
1834.06477	0.43463
1832.13621	0.43511
1830.20764	0.43626
1828.27908	0.43716
1826.35051	0.43769
1824.42195	0.43841
1822.49339	0.43884
1820.56482	0.43899
1818.63626	0.43957
1816.70769	0.44048
1814.77913	0.44119
1812.85056	0.44172
1810.92200	0.44239
1808.99343	0.44273
1807.06487	0.44249
1805.13631	0.44222
1803.20774	0.44218
1801.27918	0.44251
1799.35061	0.44297
1797.42205	0.44318
1795.49348	0.44329
1793.56492	0.44353
1791.63635	0.44364
1789.70779	0.44314
1787.77923	0.44264
1785.85066	0.44262
1783.92210	0.44287
1781.99353	0.44313
1780.06497	0.44340
1778.13640	0.44360
1776.20784	0.44391
1774.27927	0.44485
1772.35071	0.44633
1770.42215	0.44690
1768.49358	0.44687
1766.56502	0.44716
1764.63645	0.44787
1762.70789	0.44940
1760.77932	0.45176
1758.85076	0.45407
1756.92220	0.45701
1754.99363	0.46020
1753.06507	0.46325
1751.13650	0.46816
1749.20794	0.47495
1747.27937	0.48051
1745.35081	0.48476
1743.42224	0.48862
1741.49368	0.49219
1739.56512	0.49545
1737.63655	0.49800
1735.70799	0.50049
1733.77942	0.50412
1731.85086	0.50627
1729.92229	0.50780
1727.99373	0.51024
1726.06516	0.51316
1724.13660	0.51736
1722.20804	0.52229
1720.27947	0.52737
1718.35091	0.53595
1716.42234	0.54971
1714.49378	0.56006
1712.56521	0.56788
1710.63665	0.57708
1708.70808	0.58859
1706.77952	0.60534
1704.85096	0.62673
1702.92239	0.64611
1700.99383	0.67423
1699.06526	0.71855
1697.13670	0.75969
1695.20813	0.79863
1693.27957	0.82718
1691.35100	0.85124
1689.42244	0.88155
1687.49388	0.90996
1685.56531	0.93971
1683.63675	0.98773
1681.70818	1.02332
1679.77962	1.04441
1677.85105	1.06502
1675.92249	1.09111
1673.99392	1.11941
1672.06536	1.13993
1670.13680	1.16168
1668.20823	1.18684
1666.27967	1.20350
1664.35110	1.21982
1662.42254	1.23998
1660.49397	1.25326
1658.56541	1.25903
1656.63684	1.26240
1654.70828	1.26702
1652.77972	1.27424
1650.85115	1.27582
1648.92259	1.27450
1646.99402	1.27341
1645.06546	1.27418
1643.13689	1.27523
1641.20833	1.27666
1639.27976	1.27755
1637.35120	1.27816
1635.42264	1.28006
1633.49407	1.28001
1631.56551	1.27748
1629.63694	1.27335
1627.70838	1.26816
1625.77981	1.26059
1623.85125	1.24848
1621.92269	1.23335
1619.99412	1.21904
1618.06556	1.19922
1616.13699	1.16644
1614.20843	1.13708
1612.27986	1.11386
1610.35130	1.08979
1608.42273	1.06466
1606.49417	1.04230
1604.56561	1.02421
1602.63704	1.00911
1600.70848	0.99719
1598.77991	0.98851
1596.85135	0.98162
1594.92278	0.97577
1592.99422	0.97161
1591.06565	0.96911
1589.13709	0.96834
1587.20853	0.97046
1585.27996	0.97541
1583.35140	0.98206
1581.42283	0.98931
1579.49427	0.99653
1577.56570	1.00724
1575.63714	1.02533
1573.70857	1.03853
1571.78001	1.04720
1569.85145	1.06080
1567.92288	1.07611
1565.99432	1.08858
1564.06575	1.10159
1562.13719	1.11236
1560.20862	1.12404
1558.28006	1.14899
1556.35149	1.16317
1554.42293	1.16787
1552.49437	1.17151
1550.56580	1.17569
1548.63724	1.17929
1546.70867	1.18110
1544.78011	1.18232
1542.85154	1.18264
1540.92298	1.17783
1538.99441	1.17109
1537.06585	1.16911
1535.13729	1.16800
1533.20872	1.16545
1531.28016	1.16025
1529.35159	1.15426
1527.42303	1.14874
1525.49446	1.14539
1523.56590	1.14516
1521.63733	1.14596
1519.70877	1.14573
1517.78021	1.14164
1515.85164	1.13174
1513.92308	1.11856
1511.99451	1.10467
1510.06595	1.09137
1508.13738	1.06887
1506.20882	1.02687
1504.28025	1.00388
1502.35169	0.98967
1500.42313	0.97330
1498.49456	0.95169
1496.56600	0.92440
1494.63743	0.90244
1492.70887	0.88827
1490.78030	0.87361
1488.85174	0.85477
1486.92317	0.83967
1484.99461	0.82957
1483.06605	0.82214
1481.13748	0.81705
1479.20892	0.81509
1477.28035	0.81694
1475.35179	0.82380
1473.42322	0.83869
1471.49466	0.85603
1469.56610	0.86635
1467.63753	0.87420
1465.70897	0.88411
1463.78040	0.89409
1461.85184	0.90000
1459.92327	0.90478
1457.99471	0.91549
1456.06614	0.92924
1454.13758	0.93351
1452.20902	0.93470
1450.28045	0.93609
1448.35189	0.93759
1446.42332	0.93779
1444.49476	0.93595
1442.56619	0.93290
1440.63763	0.92985
1438.70906	0.92678
1436.78050	0.92137
1434.85194	0.91351
1432.92337	0.90603
1430.99481	0.89803
1429.06624	0.88979
1427.13768	0.88371
1425.20911	0.87904
1423.28055	0.87491
1421.35198	0.87247
1419.42342	0.87192
1417.49486	0.87156
1415.56629	0.87002
1413.63773	0.86724
1411.70916	0.86326
1409.78060	0.85935
1407.85203	0.85697
1405.92347	0.85616
1403.99490	0.85605
1402.06634	0.85618
1400.13778	0.85656
1398.20921	0.85712
1396.28065	0.85833
1394.35208	0.86063
1392.42352	0.86340
1390.49495	0.86721
1388.56639	0.87474
1386.63782	0.88726
1384.70926	0.90072
1382.78070	0.91308
1380.85213	0.92348
1378.92357	0.92954
1376.99500	0.93061
1375.06644	0.92651
1373.13787	0.91778
1371.20931	0.90764
1369.28074	0.89562
1367.35218	0.88139
1365.42362	0.86820
1363.49505	0.85650
1361.56649	0.84644
1359.63792	0.83977
1357.70936	0.83570
1355.78079	0.83295
1353.85223	0.83097
1351.92366	0.82965
1349.99510	0.82864
1348.06654	0.82756
1346.13797	0.82668
1344.20941	0.82613
1342.28084	0.82561
1340.35228	0.82557
1338.42371	0.82621
1336.49515	0.82712
1334.56659	0.82893
1332.63802	0.83237
1330.70946	0.83686
1328.78089	0.84087
1326.85233	0.84325
1324.92376	0.84415
1322.99520	0.84433
1321.06663	0.84430
1319.13807	0.84457
1317.20951	0.84557
1315.28094	0.84697
1313.35238	0.84845
1311.42381	0.84997
1309.49525	0.85113
1307.56668	0.85137
1305.63812	0.85103
1303.70955	0.85103
1301.78099	0.85114
1299.85243	0.85067
1297.92386	0.84969
1295.99530	0.84891
1294.06673	0.84922
1292.13817	0.85114
1290.20960	0.85433
1288.28104	0.85794
1286.35247	0.86128
1284.42391	0.86420
1282.49535	0.86691
1280.56678	0.86941
1278.63822	0.87177
1276.70965	0.87462
1274.78109	0.87849
1272.85252	0.88357
1270.92396	0.88941
1268.99539	0.89482
1267.06683	0.89924
1265.13827	0.90292
1263.20970	0.90573
1261.28114	0.90716
1259.35257	0.90697
1257.42401	0.90592
1255.49544	0.90488
1253.56688	0.90405
1251.63831	0.90362
1249.70975	0.90335
1247.78119	0.90272
1245.85262	0.90173
1243.92406	0.90057
1241.99549	0.89947
1240.06693	0.89866
1238.13836	0.89752
1236.20980	0.89536
1234.28123	0.89249
1232.35267	0.88903
1230.42411	0.88488
1228.49554	0.88065
1226.56698	0.87629
1224.63841	0.87090
1222.70985	0.86468
1220.78128	0.85899
1218.85272	0.85460
1216.92415	0.85122
1214.99559	0.84925
1213.06703	0.84915
1211.13846	0.85028
1209.20990	0.85200
1207.28133	0.85359
1205.35277	0.85353
1203.42420	0.85089
1201.49564	0.84609
1199.56708	0.83966
1197.63851	0.83197
1195.70995	0.82426
1193.78138	0.81789
1191.85282	0.81312
1189.92425	0.80951
1187.99569	0.80652
1186.06712	0.80408
1184.13856	0.80287
1182.21000	0.80327
1180.28143	0.80501
1178.35287	0.80784
1176.42430	0.81182
1174.49574	0.81661
1172.56717	0.82170
1170.63861	0.82747
1168.71004	0.83493
1166.78148	0.84451
1164.85292	0.85562
1162.92435	0.86671
1160.99579	0.87530
1159.06722	0.87921
1157.13866	0.87764
1155.21009	0.87074
1153.28153	0.85990
1151.35296	0.84765
1149.42440	0.83581
1147.49584	0.82512
1145.56727	0.81618
1143.63871	0.80999
1141.71014	0.80766
1139.78158	0.80938
1137.85301	0.81420
1135.92445	0.82079
1133.99588	0.82858
1132.06732	0.83846
1130.13876	0.85139
1128.21019	0.86658
1126.28163	0.88225
1124.35306	0.89635
1122.42450	0.90741
1120.49593	0.91633
1118.56737	0.92402
1116.63880	0.92834
1114.71024	0.92793
1112.78168	0.92463
1110.85311	0.92026
1108.92455	0.91521
1106.99598	0.90952
1105.06742	0.90355
1103.13885	0.89801
1101.21029	0.89397
1099.28172	0.89188
1097.35316	0.89130
1095.42460	0.89317
1093.49603	0.89877
1091.56747	0.90640
1089.63890	0.91373
1087.71034	0.92232
1085.78177	0.93499
1083.85321	0.95013
1081.92464	0.96315
1079.99608	0.97141
1078.06752	0.97512
1076.13895	0.97532
1074.21039	0.97178
1072.28182	0.96411
1070.35326	0.95378
1068.42469	0.94307
1066.49613	0.93404
1064.56756	0.92779
1062.63900	0.92282
1060.71044	0.91687
1058.78187	0.91071
1056.85331	0.90635
1054.92474	0.90366
1052.99618	0.90187
1051.06761	0.90100
1049.13905	0.90167
1047.21049	0.90455
1045.28192	0.90972
1043.35336	0.91682
1041.42479	0.92474
1039.49623	0.93196
1037.56766	0.93803
1035.63910	0.94302
1033.71053	0.94591
1031.78197	0.94528
1029.85341	0.94148
1027.92484	0.93522
1025.99628	0.92631
1024.06771	0.91556
1022.13915	0.90437
1020.21058	0.89405
1018.28202	0.88592
1016.35345	0.87906
1014.42489	0.87058
1012.49633	0.85873
1010.56776	0.84356
1008.63920	0.82633
1006.71063	0.80909
1004.78207	0.79316
1002.85350	0.77908
1000.92494	0.76713
998.99637	0.75736
997.06781	0.75002
995.13925	0.74446
993.21068	0.73891
991.28212	0.73254
989.35355	0.72550
987.42499	0.71798
985.49642	0.71068
983.56786	0.70445
981.63929	0.69955
979.71073	0.69615
977.78217	0.69390
975.85360	0.69190
973.92504	0.68957
971.99647	0.68626
970.06791	0.68186
968.13934	0.67772
966.21078	0.67497
964.28221	0.67380
962.35365	0.67484
960.42509	0.67926
958.49652	0.68700
956.56796	0.69576
954.63939	0.70221
952.71083	0.70417
950.78226	0.70147
948.85370	0.69565
946.92513	0.68904
944.99657	0.68357
943.06801	0.67972
941.13944	0.67664
939.21088	0.67356
937.28231	0.67033
935.35375	0.66714
933.42518	0.66409
931.49662	0.66106
929.56805	0.65833
927.63949	0.65647
925.71093	0.65547
923.78236	0.65491
921.85380	0.65447
919.92523	0.65364
917.99667	0.65199
916.06810	0.64976
914.13954	0.64738
912.21098	0.64552
910.28241	0.64499
908.35385	0.64590
906.42528	0.64775
904.49672	0.65037
902.56815	0.65339
900.63959	0.65602
898.71102	0.65830
896.78246	0.66040
894.85390	0.66193
892.92533	0.66296
890.99677	0.66400
889.06820	0.66477
887.13964	0.66465
885.21107	0.66440
883.28251	0.66519
881.35394	0.66645
879.42538	0.66752
877.49682	0.66869
875.56825	0.67007
873.63969	0.67161
871.71112	0.67295
869.78256	0.67344
867.85399	0.67320
865.92543	0.67281
863.99686	0.67253
862.06830	0.67262
860.13974	0.67311
858.21117	0.67345
856.28261	0.67331
854.35404	0.67289
852.42548	0.67204
850.49691	0.67067
848.56835	0.66911
846.63978	0.66717
844.71122	0.66476
842.78266	0.66237
840.85409	0.65996
838.92553	0.65758
836.99696	0.65558
835.06840	0.65403
833.13983	0.65289
831.21127	0.65166
829.28270	0.64961
827.35414	0.64757
825.42558	0.64672
823.49701	0.64589
821.56845	0.64422
819.63988	0.64292
817.71132	0.64223
815.78275	0.64174
813.85419	0.64203
811.92562	0.64342
809.99706	0.64522
808.06850	0.64688
806.13993	0.64852
804.21137	0.65033
802.28280	0.65206
800.35424	0.65361
798.42567	0.65508
796.49711	0.65657
794.56854	0.65865
792.63998	0.66131
790.71142	0.66386
788.78285	0.66657
786.85429	0.67007
784.92572	0.67418
782.99716	0.67837
781.06859	0.68211
779.14003	0.68497
777.21147	0.68726
775.28290	0.68992
773.35434	0.69318
771.42577	0.69611
769.49721	0.69780
767.56864	0.69814
765.64008	0.69791
763.71151	0.69786
761.78295	0.69752
759.85439	0.69610
757.92582	0.69370
755.99726	0.69094
754.06869	0.68851
752.14013	0.68619
750.21156	0.68339
748.28300	0.68019
746.35443	0.67673
744.42587	0.67307
742.49731	0.66937
740.56874	0.66574
738.64018	0.66195
736.71161	0.65815
734.78305	0.65537
732.85448	0.65428
730.92592	0.65396
728.99735	0.65317
727.06879	0.65212
725.14023	0.65200
723.21166	0.65346
721.28310	0.65627
719.35453	0.65894
717.42597	0.66037
715.49740	0.66147
713.56884	0.66320
711.64027	0.66541
709.71171	0.66819
707.78315	0.67232
705.85458	0.67758
703.92602	0.68245
701.99745	0.68632
700.06889	0.68948
698.14032	0.69198
696.21176	0.69396
694.28319	0.69574
692.35463	0.69773
690.42607	0.69967
688.49750	0.70063
686.56894	0.70060
684.64037	0.70049
682.71181	0.70100
680.78324	0.70152
678.85468	0.70054
676.92611	0.69805
674.99755	0.69546
673.06899	0.69356
671.14042	0.69250
669.21186	0.69200
667.28329	0.68959
665.35473	0.68544
663.42616	0.68187
661.49760	0.67924
659.56903	0.67715
657.64047	0.67488
655.71191	0.67221
653.78334	0.66931
651.85478	0.66707
649.92621	0.66657
647.99765	0.66722
646.06908	0.66789
644.14052	0.66895
642.21195	0.67047
640.28339	0.67246
638.35483	0.67522
636.42626	0.67732
634.49770	0.67781
632.56913	0.67736
630.64057	0.67677
628.71200	0.67754
626.78344	0.67991
624.85488	0.68213
622.92631	0.68411
620.99775	0.68706
619.06918	0.69075
617.14062	0.69398
615.21205	0.69606
613.28349	0.69697
611.35492	0.69747
609.42636	0.69889
607.49780	0.70103
605.56923	0.70176
603.64067	0.70001
601.71210	0.69830
599.78354	0.69955
