3997.91406	0.29907
3995.98550	0.29772
3994.05693	0.29709
3992.12837	0.29714
3990.19980	0.29630
3988.27124	0.29448
3986.34268	0.29402
3984.41411	0.29568
3982.48555	0.29677
3980.55698	0.29560
3978.62842	0.29366
3976.69985	0.29259
3974.77129	0.29294
3972.84272	0.29401
3970.91416	0.29423
3968.98560	0.29341
3967.05703	0.29289
3965.12847	0.29337
3963.19990	0.29451
3961.27134	0.29546
3959.34277	0.29568
3957.41421	0.29535
3955.48564	0.29505
3953.55708	0.29511
3951.62852	0.29502
3949.69995	0.29515
3947.77139	0.29606
3945.84282	0.29628
3943.91426	0.29648
3941.98569	0.29776
3940.05713	0.29819
3938.12856	0.29756
3936.20000	0.29689
3934.27144	0.29692
3932.34287	0.29886
3930.41431	0.30094
3928.48574	0.29998
3926.55718	0.29822
3924.62861	0.29937
3922.70005	0.30063
3920.77148	0.29902
3918.84292	0.29813
3916.91436	0.29998
3914.98579	0.30085
3913.05723	0.29905
3911.12866	0.29609
3909.20010	0.29213
3907.27153	0.28677
3905.34297	0.28365
3903.41440	0.28710
3901.48584	0.29171
3899.55728	0.29365
3897.62871	0.29299
3895.70015	0.28903
3893.77158	0.28508
3891.84302	0.28683
3889.91445	0.28873
3887.98589	0.28501
3886.05733	0.28289
3884.12876	0.28384
3882.20020	0.28329
3880.27163	0.28637
3878.34307	0.28826
3876.41450	0.28452
3874.48594	0.28007
3872.55737	0.27641
3870.62881	0.27614
3868.70025	0.27915
3866.77168	0.27829
3864.84312	0.27785
3862.91455	0.28104
3860.98599	0.28080
3859.05742	0.27552
3857.12886	0.26639
3855.20029	0.25802
3853.27173	0.26807
3851.34317	0.28133
3849.41460	0.28091
3847.48604	0.27636
3845.55747	0.27235
3843.62891	0.27010
3841.70034	0.26783
3839.77178	0.26661
3837.84321	0.27120
3835.91465	0.27625
3833.98609	0.27740
3832.05752	0.27812
3830.12896	0.27961
3828.20039	0.28070
3826.27183	0.28043
3824.34326	0.27620
3822.41470	0.27182
3820.48613	0.27474
3818.55757	0.27628
3816.62901	0.27947
3814.70044	0.28713
3812.77188	0.28845
3810.84331	0.28437
3808.91475	0.28051
3806.98618	0.28106
3805.05762	0.28028
3803.12905	0.27708
3801.20049	0.28160
3799.27193	0.28709
3797.34336	0.28955
3795.41480	0.29237
3793.48623	0.29180
3791.55767	0.28906
3789.62910	0.28736
3787.70054	0.28661
3785.77197	0.28712
3783.84341	0.28780
3781.91485	0.28667
3779.98628	0.28746
3778.05772	0.29008
3776.12915	0.28839
3774.20059	0.28331
3772.27202	0.27883
3770.34346	0.27874
3768.41489	0.28094
3766.48633	0.28134
3764.55777	0.28045
3762.62920	0.27670
3760.70064	0.27229
3758.77207	0.27264
3756.84351	0.27301
3754.91494	0.26703
3752.98638	0.25778
3751.05781	0.25764
3749.12925	0.26367
3747.20069	0.26047
3745.27212	0.25960
3743.34356	0.26835
3741.41499	0.27056
3739.48643	0.26383
3737.55786	0.25574
3735.62930	0.25712
3733.70074	0.26704
3731.77217	0.27073
3729.84361	0.26794
3727.91504	0.26431
3725.98648	0.26388
3724.05791	0.26562
3722.12935	0.26717
3720.20078	0.26932
3718.27222	0.27039
3716.34366	0.26729
3714.41509	0.26041
3712.48653	0.25834
3710.55796	0.27003
3708.62940	0.27817
3706.70083	0.27672
3704.77227	0.27248
3702.84370	0.27176
3700.91514	0.27581
3698.98658	0.27813
3697.05801	0.27821
3695.12945	0.27733
3693.20088	0.27384
3691.27232	0.27021
3689.34375	0.27670
3687.41519	0.28721
3685.48662	0.29031
3683.55806	0.28955
3681.62950	0.28840
3679.70093	0.28657
3677.77237	0.28344
3675.84380	0.28824
3673.91524	0.29662
3671.98667	0.29753
3670.05811	0.30568
3668.12954	0.31685
3666.20098	0.31890
3664.27242	0.31864
3662.34385	0.31930
3660.41529	0.31970
3658.48672	0.32046
3656.55816	0.32487
3654.62959	0.32746
3652.70103	0.32214
3650.77246	0.31642
3648.84390	0.32969
3646.91534	0.34641
3644.98677	0.35048
3643.05821	0.35112
3641.12964	0.35270
3639.20108	0.35486
3637.27251	0.35747
3635.34395	0.36105
3633.41538	0.36261
3631.48682	0.36035
3629.55826	0.36600
3627.62969	0.38238
3625.70113	0.38728
3623.77256	0.38496
3621.84400	0.38302
3619.91543	0.38751
3617.98687	0.39658
3616.05830	0.40110
3614.12974	0.40461
3612.20118	0.40896
3610.27261	0.41240
3608.34405	0.41859
3606.41548	0.42520
3604.48692	0.42774
3602.55835	0.42978
3600.62979	0.43383
3598.70123	0.43770
3596.77266	0.44087
3594.84410	0.44606
3592.91553	0.45165
3590.98697	0.45386
3589.05840	0.45749
3587.12984	0.46941
3585.20127	0.48016
3583.27271	0.48507
3581.34415	0.48876
3579.41558	0.49285
3577.48702	0.49787
3575.55845	0.50387
3573.62989	0.50890
3571.70132	0.51158
3569.77276	0.51405
3567.84419	0.52240
3565.91563	0.53599
3563.98707	0.54484
3562.05850	0.55101
3560.12994	0.55709
3558.20137	0.56237
3556.27281	0.56724
3554.34424	0.57341
3552.41568	0.58099
3550.48711	0.58619
3548.55855	0.58972
3546.62999	0.59714
3544.70142	0.60757
3542.77286	0.61449
3540.84429	0.61875
3538.91573	0.62466
3536.98716	0.63207
3535.05860	0.63719
3533.13003	0.63985
3531.20147	0.64324
3529.27291	0.64910
3527.34434	0.65703
3525.41578	0.66544
3523.48721	0.67313
3521.55865	0.67918
3519.63008	0.68376
3517.70152	0.68911
3515.77295	0.69656
3513.84439	0.70442
3511.91583	0.71188
3509.98726	0.72174
3508.05870	0.73174
3506.13013	0.73700
3504.20157	0.74321
3502.27300	0.75563
3500.34444	0.76850
3498.41587	0.77936
3496.48731	0.79004
3494.55875	0.79813
3492.63018	0.80183
3490.70162	0.80553
3488.77305	0.81275
3486.84449	0.82028
3484.91592	0.82422
3482.98736	0.82723
3481.05879	0.83211
3479.13023	0.83521
3477.20167	0.83588
3475.27310	0.83804
3473.34454	0.84254
3471.41597	0.84670
3469.48741	0.84915
3467.55884	0.85070
3465.63028	0.85198
3463.70171	0.85487
3461.77315	0.86112
3459.84459	0.86839
3457.91602	0.87396
3455.98746	0.87828
3454.05889	0.88206
3452.13033	0.88431
3450.20176	0.88501
3448.27320	0.88798
3446.34464	0.89488
3444.41607	0.90000
3442.48751	0.90073
3440.55894	0.90092
3438.63038	0.90382
3436.70181	0.90881
3434.77325	0.91277
3432.84468	0.91500
3430.91612	0.91730
3428.98756	0.91921
3427.05899	0.91976
3425.13043	0.92097
3423.20186	0.92333
3421.27330	0.92441
3419.34473	0.92543
3417.41617	0.92848
3415.48760	0.93068
3413.55904	0.92989
3411.63048	0.92925
3409.70191	0.93037
3407.77335	0.93105
3405.84478	0.93151
3403.91622	0.93264
3401.98765	0.93298
3400.05909	0.93161
3398.13052	0.93041
3396.20196	0.93209
3394.27340	0.93521
3392.34483	0.93593
3390.41627	0.93543
3388.48770	0.93720
3386.55914	0.93992
3384.63057	0.94023
3382.70201	0.93886
3380.77344	0.94001
3378.84488	0.94418
3376.91632	0.94721
3374.98775	0.94813
3373.05919	0.94859
3371.13062	0.94852
3369.20206	0.94849
3367.27349	0.94983
3365.34493	0.95326
3363.41636	0.95901
3361.48780	0.96529
3359.55924	0.96857
3357.63067	0.96864
3355.70211	0.96799
3353.77354	0.96779
3351.84498	0.96980
3349.91641	0.97476
3347.98785	0.97964
3346.05928	0.98271
3344.13072	0.98593
3342.20216	0.99007
3340.27359	0.99285
3338.34503	0.99311
3336.41646	0.99304
3334.48790	0.99471
3332.55933	0.99865
3330.63077	1.00376
3328.70220	1.00788
3326.77364	1.01204
3324.84508	1.01741
3322.91651	1.02151
3320.98795	1.02536
3319.05938	1.03131
3317.13082	1.03716
3315.20225	1.04253
3313.27369	1.04835
3311.34513	1.05233
3309.41656	1.05470
3307.48800	1.05788
3305.55943	1.06222
3303.63087	1.06740
3301.70230	1.07166
3299.77374	1.07477
3297.84517	1.07856
3295.91661	1.08111
3293.98805	1.08204
3292.05948	1.08461
3290.13092	1.08764
3288.20235	1.08718
3286.27379	1.08280
3284.34522	1.07887
3282.41666	1.08018
3280.48809	1.08461
3278.55953	1.08543
3276.63097	1.08185
3274.70240	1.07778
3272.77384	1.07331
3270.84527	1.06833
3268.91671	1.06592
3266.98814	1.06531
3265.05958	1.06146
3263.13101	1.05452
3261.20245	1.04827
3259.27389	1.04222
3257.34532	1.03577
3255.41676	1.02947
3253.48819	1.02158
3251.55963	1.01217
3249.63106	1.00417
3247.70250	0.99940
3245.77393	0.99576
3243.84537	0.98907
3241.91681	0.98005
3239.98824	0.97245
3238.05968	0.96728
3236.13111	0.96263
3234.20255	0.95562
3232.27398	0.94727
3230.34542	0.94256
3228.41685	0.94110
3226.48829	0.93804
3224.55973	0.93257
3222.63116	0.92633
3220.70260	0.92023
3218.77403	0.91530
3216.84547	0.91243
3214.91690	0.90993
3212.98834	0.90433
3211.05977	0.89625
3209.13121	0.88931
3207.20265	0.88416
3205.27408	0.87957
3203.34552	0.87499
3201.41695	0.87009
3199.48839	0.86412
3197.55982	0.85761
3195.63126	0.85242
3193.70269	0.84842
3191.77413	0.84417
3189.84557	0.84001
3187.91700	0.83669
3185.98844	0.83303
3184.05987	0.82764
3182.13131	0.82182
3180.20274	0.81724
3178.27418	0.81331
3176.34562	0.80906
3174.41705	0.80392
3172.48849	0.79848
3170.55992	0.79462
3168.63136	0.79153
3166.70279	0.78684
3164.77423	0.78166
3162.84566	0.77795
3160.91710	0.77469
3158.98854	0.77109
3157.05997	0.76860
3155.13141	0.76745
3153.20284	0.76557
3151.27428	0.76224
3149.34571	0.75840
3147.41715	0.75450
3145.48858	0.75109
3143.56002	0.74867
3141.63146	0.74642
3139.70289	0.74388
3137.77433	0.74247
3135.84576	0.74218
3133.91720	0.74103
3131.98863	0.74006
3130.06007	0.74188
3128.13150	0.74511
3126.20294	0.74647
3124.27438	0.74549
3122.34581	0.74438
3120.41725	0.74466
3118.48868	0.74611
3116.56012	0.74768
3114.63155	0.74895
3112.70299	0.75053
3110.77442	0.75208
3108.84586	0.75263
3106.91730	0.75308
3104.98873	0.75482
3103.06017	0.75690
3101.13160	0.75777
3099.20304	0.75744
3097.27447	0.75598
3095.34591	0.75322
3093.41734	0.75025
3091.48878	0.74823
3089.56022	0.74670
3087.63165	0.74451
3085.70309	0.74174
3083.77452	0.73844
3081.84596	0.73400
3079.91739	0.72974
3077.98883	0.72771
3076.06026	0.72673
3074.13170	0.72396
3072.20314	0.71907
3070.27457	0.71399
3068.34601	0.70994
3066.41744	0.70721
3064.48888	0.70526
3062.56031	0.70286
3060.63175	0.69954
3058.70318	0.69574
3056.77462	0.69196
3054.84606	0.68833
3052.91749	0.68521
3050.98893	0.68276
3049.06036	0.67992
3047.13180	0.67599
3045.20323	0.67208
3043.27467	0.66951
3041.34610	0.66811
3039.41754	0.66678
3037.48898	0.66494
3035.56041	0.66285
3033.63185	0.66094
3031.70328	0.65888
3029.77472	0.65589
3027.84615	0.65287
3025.91759	0.65141
3023.98903	0.65051
3022.06046	0.64861
3020.13190	0.64643
3018.20333	0.64442
3016.27477	0.64233
3014.34620	0.64054
3012.41764	0.63914
3010.48907	0.63789
3008.56051	0.63641
3006.63195	0.63473
3004.70338	0.63344
3002.77482	0.63302
3000.84625	0.63383
2998.91769	0.63549
2996.98912	0.63725
2995.06056	0.63939
2993.13199	0.64260
2991.20343	0.64680
2989.27487	0.65181
2987.34630	0.65741
2985.41774	0.66309
2983.48917	0.66876
2981.56061	0.67504
2979.63204	0.68219
2977.70348	0.68933
2975.77491	0.69633
2973.84635	0.70396
2971.91779	0.71183
2969.98922	0.71907
2968.06066	0.72487
2966.13209	0.72882
2964.20353	0.73264
2962.27496	0.73756
2960.34640	0.74085
2958.41783	0.73946
2956.48927	0.73372
2954.56071	0.72606
2952.63214	0.71872
2950.70358	0.71233
2948.77501	0.70742
2946.84645	0.70624
2944.91788	0.70995
2942.98932	0.71671
2941.06075	0.72496
2939.13219	0.73465
2937.20363	0.74534
2935.27506	0.75612
2933.34650	0.76607
2931.41793	0.77503
2929.48937	0.78360
2927.56080	0.79215
2925.63224	0.80120
2923.70367	0.81064
2921.77511	0.81815
2919.84655	0.82113
2917.91798	0.81790
2915.98942	0.80619
2914.06085	0.78611
2912.13229	0.76309
2910.20372	0.74325
2908.27516	0.72898
2906.34659	0.71914
2904.41803	0.71188
2902.48947	0.70690
2900.56090	0.70402
2898.63234	0.70143
2896.70377	0.69843
2894.77521	0.69630
2892.84664	0.69461
2890.91808	0.69147
2888.98952	0.68695
2887.06095	0.68296
2885.13239	0.68083
2883.20382	0.68021
2881.27526	0.68020
2879.34669	0.68059
2877.41813	0.68088
2875.48956	0.67958
2873.56100	0.67623
2871.63244	0.67176
2869.70387	0.66662
2867.77531	0.66100
2865.84674	0.65553
2863.91818	0.65136
2861.98961	0.64999
2860.06105	0.65207
2858.13248	0.65752
2856.20392	0.66559
2854.27536	0.67514
2852.34679	0.68436
2850.41823	0.68716
2848.48966	0.67592
2846.56110	0.65267
2844.63253	0.62812
2842.70397	0.60896
2840.77540	0.59475
2838.84684	0.58377
2836.91828	0.57554
2834.98971	0.56934
2833.06115	0.56433
2831.13258	0.56038
2829.20402	0.55673
2827.27545	0.55254
2825.34689	0.54843
2823.41832	0.54503
2821.48976	0.54202
2819.56120	0.53918
2817.63263	0.53653
2815.70407	0.53359
2813.77550	0.53006
2811.84694	0.52631
2809.91837	0.52285
2807.98981	0.51993
2806.06124	0.51710
2804.13268	0.51421
2802.20412	0.51180
2800.27555	0.50970
2798.34699	0.50757
2796.41842	0.50536
2794.48986	0.50284
2792.56129	0.50023
2790.63273	0.49814
2788.70416	0.49684
2786.77560	0.49604
2784.84704	0.49514
2782.91847	0.49349
2780.98991	0.49131
2779.06134	0.48991
2777.13278	0.48974
2775.20421	0.48965
2773.27565	0.48895
2771.34708	0.48813
2769.41852	0.48732
2767.48996	0.48638
2765.56139	0.48559
2763.63283	0.48486
2761.70426	0.48383
2759.77570	0.48269
2757.84713	0.48171
2755.91857	0.48088
2753.99001	0.48015
2752.06144	0.47933
2750.13288	0.47864
2748.20431	0.47825
2746.27575	0.47759
2744.34718	0.47648
2742.41862	0.47533
2740.49005	0.47447
2738.56149	0.47407
2736.63293	0.47380
2734.70436	0.47322
2732.77580	0.47220
2730.84723	0.47090
2728.91867	0.46982
2726.99010	0.46896
2725.06154	0.46781
2723.13297	0.46663
2721.20441	0.46596
2719.27585	0.46569
2717.34728	0.46517
2715.41872	0.46398
2713.49015	0.46251
2711.56159	0.46110
2709.63302	0.45968
2707.70446	0.45853
2705.77589	0.45787
2703.84733	0.45731
2701.91877	0.45642
2699.99020	0.45509
2698.06164	0.45391
2696.13307	0.45344
2694.20451	0.45298
2692.27594	0.45196
2690.34738	0.45091
2688.41881	0.44989
2686.49025	0.44868
2684.56169	0.44744
2682.63312	0.44616
2680.70456	0.44473
2678.77599	0.44326
2676.84743	0.44182
2674.91886	0.44043
2672.99030	0.43929
2671.06173	0.43848
2669.13317	0.43751
2667.20461	0.43617
2665.27604	0.43492
2663.34748	0.43399
2661.41891	0.43342
2659.49035	0.43298
2657.56178	0.43229
2655.63322	0.43157
2653.70465	0.43086
2651.77609	0.42987
2649.84753	0.42887
2647.91896	0.42823
2645.99040	0.42786
2644.06183	0.42738
2642.13327	0.42659
2640.20470	0.42594
2638.27614	0.42580
2636.34757	0.42555
2634.41901	0.42480
2632.49045	0.42420
2630.56188	0.42409
2628.63332	0.42405
2626.70475	0.42406
2624.77619	0.42422
2622.84762	0.42429
2620.91906	0.42422
2618.99049	0.42398
2617.06193	0.42342
2615.13337	0.42294
2613.20480	0.42286
2611.27624	0.42269
2609.34767	0.42222
2607.41911	0.42193
2605.49054	0.42177
2603.56198	0.42129
2601.63342	0.42076
2599.70485	0.42039
2597.77629	0.41993
2595.84772	0.41938
2593.91916	0.41892
2591.99059	0.41873
2590.06203	0.41875
2588.13346	0.41847
2586.20490	0.41776
2584.27634	0.41714
2582.34777	0.41681
2580.41921	0.41640
2578.49064	0.41554
2576.56208	0.41438
2574.63351	0.41344
2572.70495	0.41292
2570.77638	0.41250
2568.84782	0.41180
2566.91926	0.41069
2564.99069	0.40949
2563.06213	0.40849
2561.13356	0.40758
2559.20500	0.40647
2557.27643	0.40511
2555.34787	0.40381
2553.41930	0.40280
2551.49074	0.40184
2549.56218	0.40066
2547.63361	0.39955
2545.70505	0.39891
2543.77648	0.39865
2541.84792	0.39840
2539.91935	0.39791
2537.99079	0.39721
2536.06222	0.39661
2534.13366	0.39615
2532.20510	0.39548
2530.27653	0.39456
2528.34797	0.39365
2526.41940	0.39284
2524.49084	0.39193
2522.56227	0.39077
2520.63371	0.38954
2518.70514	0.38842
2516.77658	0.38732
2514.84802	0.38621
2512.91945	0.38524
2510.99089	0.38455
2509.06232	0.38411
2507.13376	0.38372
2505.20519	0.38318
2503.27663	0.38233
2501.34806	0.38139
2499.41950	0.38094
2497.49094	0.38095
2495.56237	0.38101
2493.63381	0.38093
2491.70524	0.38071
2489.77668	0.38060
2487.84811	0.38058
2485.91955	0.38045
2483.99098	0.38039
2482.06242	0.38064
2480.13386	0.38099
2478.20529	0.38108
2476.27673	0.38082
2474.34816	0.38037
2472.41960	0.38003
2470.49103	0.37990
2468.56247	0.37954
2466.63391	0.37859
2464.70534	0.37739
2462.77678	0.37653
2460.84821	0.37595
2458.91965	0.37508
2456.99108	0.37401
2455.06252	0.37311
2453.13395	0.37212
2451.20539	0.37088
2449.27683	0.36975
2447.34826	0.36870
2445.41970	0.36753
2443.49113	0.36625
2441.56257	0.36485
2439.63400	0.36334
2437.70544	0.36191
2435.77687	0.36068
2433.84831	0.35960
2431.91975	0.35855
2429.99118	0.35757
2428.06262	0.35694
2426.13405	0.35667
2424.20549	0.35639
2422.27692	0.35603
2420.34836	0.35572
2418.41979	0.35529
2416.49123	0.35480
2414.56267	0.35457
2412.63410	0.35461
2410.70554	0.35462
2408.77697	0.35418
2406.84841	0.35345
2404.91984	0.35316
2402.99128	0.35321
2401.06271	0.35292
2399.13415	0.35228
2397.20559	0.35164
2395.27702	0.35107
2393.34846	0.35048
2391.41989	0.34980
2389.49133	0.34907
2387.56276	0.34850
2385.63420	0.34832
2383.70563	0.34867
2381.77707	0.34942
2379.84851	0.35000
2377.91994	0.35038
2375.99138	0.35167
2374.06281	0.35434
2372.13425	0.35758
2370.20568	0.36032
2368.27712	0.36226
2366.34855	0.36410
2364.41999	0.36635
2362.49143	0.36886
2360.56286	0.37148
2358.63430	0.37368
2356.70573	0.37416
2354.77717	0.37199
2352.84860	0.36831
2350.92004	0.36482
2348.99147	0.36227
2347.06291	0.36141
2345.13435	0.36334
2343.20578	0.36679
2341.27722	0.36780
2339.34865	0.36539
2337.42009	0.36231
2335.49152	0.36059
2333.56296	0.35945
2331.63440	0.35810
2329.70583	0.35733
2327.77727	0.35748
2325.84870	0.35739
2323.92014	0.35655
2321.99157	0.35509
2320.06301	0.35257
2318.13444	0.34964
2316.20588	0.34747
2314.27732	0.34597
2312.34875	0.34431
2310.42019	0.34217
2308.49162	0.34010
2306.56306	0.33861
2304.63449	0.33724
2302.70593	0.33565
2300.77736	0.33450
2298.84880	0.33417
2296.92024	0.33400
2294.99167	0.33333
2293.06311	0.33251
2291.13454	0.33207
2289.20598	0.33169
2287.27741	0.33105
2285.34885	0.33046
2283.42028	0.33027
2281.49172	0.33042
2279.56316	0.33054
2277.63459	0.33045
2275.70603	0.33027
2273.77746	0.33011
2271.84890	0.32990
2269.92033	0.32976
2267.99177	0.33001
2266.06320	0.33053
2264.13464	0.33069
2262.20608	0.33047
2260.27751	0.33028
2258.34895	0.33035
2256.42038	0.33055
2254.49182	0.33050
2252.56325	0.33020
2250.63469	0.32998
2248.70612	0.32985
2246.77756	0.32975
2244.84900	0.32962
2242.92043	0.32948
2240.99187	0.32947
2239.06330	0.32950
2237.13474	0.32936
2235.20617	0.32901
2233.27761	0.32878
2231.34904	0.32892
2229.42048	0.32917
2227.49192	0.32924
2225.56335	0.32905
2223.63479	0.32875
2221.70622	0.32862
2219.77766	0.32862
2217.84909	0.32847
2215.92053	0.32814
2213.99196	0.32775
2212.06340	0.32730
2210.13484	0.32677
2208.20627	0.32630
2206.27771	0.32588
2204.34914	0.32528
2202.42058	0.32455
2200.49201	0.32399
2198.56345	0.32363
2196.63488	0.32332
2194.70632	0.32299
2192.77776	0.32257
2190.84919	0.32226
2188.92063	0.32229
2186.99206	0.32242
2185.06350	0.32226
2183.13493	0.32193
2181.20637	0.32182
2179.27781	0.32193
2177.34924	0.32193
2175.42068	0.32184
2173.49211	0.32200
2171.56355	0.32230
2169.63498	0.32243
2167.70642	0.32232
2165.77785	0.32199
2163.84929	0.32146
2161.92073	0.32090
2159.99216	0.32052
2158.06360	0.32027
2156.13503	0.31992
2154.20647	0.31941
2152.27790	0.31881
2150.34934	0.31824
2148.42077	0.31777
2146.49221	0.31745
2144.56365	0.31736
2142.63508	0.31750
2140.70652	0.31757
2138.77795	0.31745
2136.84939	0.31738
2134.92082	0.31735
2132.99226	0.31711
2131.06369	0.31650
2129.13513	0.31566
2127.20657	0.31499
2125.27800	0.31428
2123.34944	0.31313
2121.42087	0.31178
2119.49231	0.31035
2117.56374	0.30869
2115.63518	0.30699
2113.70661	0.30562
2111.77805	0.30450
2109.84949	0.30331
2107.92092	0.30198
2105.99236	0.30075
2104.06379	0.29981
2102.13523	0.29920
2100.20666	0.29870
2098.27810	0.29812
2096.34953	0.29769
2094.42097	0.29755
2092.49241	0.29748
2090.56384	0.29735
2088.63528	0.29716
2086.70671	0.29698
2084.77815	0.29700
2082.84958	0.29730
2080.92102	0.29768
2078.99245	0.29811
2077.06389	0.29879
2075.13533	0.29955
2073.20676	0.30017
2071.27820	0.30088
2069.34963	0.30181
2067.42107	0.30281
2065.49250	0.30399
2063.56394	0.30514
2061.63537	0.30583
2059.70681	0.30634
2057.77825	0.30699
2055.84968	0.30764
2053.92112	0.30810
2051.99255	0.30828
2050.06399	0.30811
2048.13542	0.30763
2046.20686	0.30698
2044.27830	0.30626
2042.34973	0.30545
2040.42117	0.30445
2038.49260	0.30312
2036.56404	0.30144
2034.63547	0.29964
2032.70691	0.29795
2030.77834	0.29637
2028.84978	0.29473
2026.92122	0.29299
2024.99265	0.29122
2023.06409	0.28952
2021.13552	0.28793
2019.20696	0.28656
2017.27839	0.28534
2015.34983	0.28391
2013.42126	0.28234
2011.49270	0.28094
2009.56414	0.27966
2007.63557	0.27838
2005.70701	0.27697
2003.77844	0.27535
2001.84988	0.27368
1999.92131	0.27210
1997.99275	0.27050
1996.06418	0.26896
1994.13562	0.26775
1992.20706	0.26670
1990.27849	0.26523
1988.34993	0.26347
1986.42136	0.26190
1984.49280	0.26055
1982.56423	0.25943
1980.63567	0.25861
1978.70710	0.25803
1976.77854	0.25763
1974.84998	0.25727
1972.92141	0.25693
1970.99285	0.25668
1969.06428	0.25669
1967.13572	0.25712
1965.20715	0.25755
1963.27859	0.25771
1961.35002	0.25791
1959.42146	0.25830
1957.49290	0.25891
1955.56433	0.25980
1953.63577	0.26063
1951.70720	0.26118
1949.77864	0.26159
1947.85007	0.26208
1945.92151	0.26281
1943.99294	0.26405
1942.06438	0.26541
1940.13582	0.26582
1938.20725	0.26563
1936.27869	0.26570
1934.35012	0.26581
1932.42156	0.26563
1930.49299	0.26536
1928.56443	0.26500
1926.63586	0.26433
1924.70730	0.26359
1922.77874	0.26291
1920.85017	0.26180
1918.92161	0.26039
1916.99304	0.25877
1915.06448	0.25663
1913.13591	0.25446
1911.20735	0.25269
1909.27878	0.25101
1907.35022	0.24894
1905.42166	0.24656
1903.49309	0.24434
1901.56453	0.24239
1899.63596	0.24054
1897.70740	0.23874
1895.77883	0.23723
1893.85027	0.23593
1891.92171	0.23478
1889.99314	0.23415
1888.06458	0.23358
1886.13601	0.23264
1884.20745	0.23180
1882.27888	0.23122
1880.35032	0.23080
1878.42175	0.23049
1876.49319	0.23019
1874.56463	0.22979
1872.63606	0.22935
1870.70750	0.22938
1868.77893	0.23013
1866.85037	0.23021
1864.92180	0.22916
1862.99324	0.22808
1861.06467	0.22725
1859.13611	0.22647
1857.20755	0.22570
1855.27898	0.22498
1853.35042	0.22425
1851.42185	0.22364
1849.49329	0.22341
1847.56472	0.22356
1845.63616	0.22421
1843.70759	0.22491
1841.77903	0.22436
1839.85047	0.22328
1837.92190	0.22282
1835.99334	0.22282
1834.06477	0.22258
1832.13621	0.22257
1830.20764	0.22361
1828.27908	0.22457
1826.35051	0.22480
1824.42195	0.22508
1822.49339	0.22492
1820.56482	0.22434
1818.63626	0.22416
1816.70769	0.22436
1814.77913	0.22452
1812.85056	0.22483
1810.92200	0.22563
1808.99343	0.22620
1807.06487	0.22599
1805.13631	0.22558
1803.20774	0.22551
1801.27918	0.22594
1799.35061	0.22614
1797.42205	0.22551
1795.49348	0.22452
1793.56492	0.22399
1791.63635	0.22381
1789.70779	0.22222
1787.77923	0.21989
1785.85066	0.21813
1783.92210	0.21709
1781.99353	0.21626
1780.06497	0.21538
1778.13640	0.21450
1776.20784	0.21376
1774.27927	0.21397
1772.35071	0.21569
1770.42215	0.21683
1768.49358	0.21701
1766.56502	0.21741
1764.63645	0.21829
1762.70789	0.22070
1760.77932	0.22437
1758.85076	0.22760
1756.92220	0.23174
1754.99363	0.23603
1753.06507	0.23997
1751.13650	0.24692
1749.20794	0.25700
1747.27937	0.26491
1745.35081	0.27039
1743.42224	0.27527
1741.49368	0.28014
1739.56512	0.28480
1737.63655	0.28771
1735.70799	0.29019
1733.77942	0.29573
1731.85086	0.29988
1729.92229	0.30144
1727.99373	0.30336
1726.06516	0.30593
1724.13660	0.30994
1722.20804	0.31441
1720.27947	0.31881
1718.35091	0.32735
1716.42234	0.34236
1714.49378	0.35390
1712.56521	0.36277
1710.63665	0.37341
1708.70808	0.38708
1706.77952	0.40815
1704.85096	0.43607
1702.92239	0.46090
1700.99383	0.49528
1699.06526	0.54927
1697.13670	0.59815
1695.20813	0.64311
1693.27957	0.67519
1691.35100	0.70077
1689.42244	0.73260
1687.49388	0.76264
1685.56531	0.79456
1683.63675	0.84596
1681.70818	0.88342
1679.77962	0.90545
1677.85105	0.92713
1675.92249	0.95449
1673.99392	0.98454
1672.06536	1.00734
1670.13680	1.03277
1668.20823	1.06155
1666.27967	1.07759
1664.35110	1.09097
1662.42254	1.10961
1660.49397	1.12350
1658.56541	1.12995
1656.63684	1.13432
1654.70828	1.14039
1652.77972	1.14724
1650.85115	1.14848
1648.92259	1.14826
1646.99402	1.14696
1645.06546	1.14361
1643.13689	1.13978
1641.20833	1.13721
1639.27976	1.13555
1637.35120	1.13626
1635.42264	1.13907
1633.49407	1.13680
1631.56551	1.13220
1629.63694	1.12712
1627.70838	1.12131
1625.77981	1.11258
1623.85125	1.09782
1621.92269	1.07908
1619.99412	1.06204
1618.06556	1.03965
1616.13699	1.00480
1614.20843	0.97441
1612.27986	0.94898
1610.35130	0.92148
1608.42273	0.89299
1606.49417	0.86750
1604.56561	0.84642
1602.63704	0.82897
1600.70848	0.81538
1598.77991	0.80559
1596.85135	0.79860
1594.92278	0.79299
1592.99422	0.78818
1591.06565	0.78493
1589.13709	0.78457
1587.20853	0.78816
1585.27996	0.79558
1583.35140	0.80628
1581.42283	0.81834
1579.49427	0.83016
1577.56570	0.84637
1575.63714	0.86995
1573.70857	0.88508
1571.78001	0.89563
1569.85145	0.91502
1567.92288	0.93726
1565.99432	0.95296
1564.06575	0.96751
1562.13719	0.97954
1560.20862	0.99384
1558.28006	1.02118
1556.35149	1.03289
1554.42293	1.03779
1552.49437	1.04328
1550.56580	1.04800
1548.63724	1.05018
1546.70867	1.04973
1544.78011	1.04781
1542.85154	1.04413
1540.92298	1.03667
1538.99441	1.02512
1537.06585	1.01782
1535.13729	1.01146
1533.20872	1.00253
1531.28016	0.99293
1529.35159	0.98493
1527.42303	0.97700
1525.49446	0.96894
1523.56590	0.96318
1521.63733	0.96060
1519.70877	0.95986
1517.78021	0.95583
1515.85164	0.94578
1513.92308	0.93195
1511.99451	0.91589
1510.06595	0.89887
1508.13738	0.87495
1506.20882	0.83707
1504.28025	0.81490
1502.35169	0.80002
1500.42313	0.78340
1498.49456	0.76274
1496.56600	0.73878
1494.63743	0.71968
1492.70887	0.70631
1490.78030	0.69233
1488.85174	0.67527
1486.92317	0.66117
1484.99461	0.65099
1483.06605	0.64335
1481.13748	0.63814
1479.20892	0.63594
1477.28035	0.63751
1475.35179	0.64404
1473.42322	0.65776
1471.49466	0.67249
1469.56610	0.67988
1467.63753	0.68502
1465.70897	0.69216
1463.78040	0.69932
1461.85184	0.70291
1459.92327	0.70574
1457.99471	0.71383
1456.06614	0.72477
1454.13758	0.72764
1452.20902	0.72781
1450.28045	0.72823
1448.35189	0.72849
1446.42332	0.72712
1444.49476	0.72440
1442.56619	0.72131
1440.63763	0.71806
1438.70906	0.71432
1436.78050	0.70901
1434.85194	0.70196
1432.92337	0.69458
1430.99481	0.68669
1429.06624	0.67915
1427.13768	0.67388
1425.20911	0.67083
1423.28055	0.66927
1421.35198	0.66870
1419.42342	0.66958
1417.49486	0.67025
1415.56629	0.66835
1413.63773	0.66498
1411.70916	0.66090
1409.78060	0.65702
1407.85203	0.65429
1405.92347	0.65266
1403.99490	0.65141
1402.06634	0.65029
1400.13778	0.65011
1398.20921	0.65118
1396.28065	0.65287
1394.35208	0.65498
1392.42352	0.65751
1390.49495	0.66151
1388.56639	0.67067
1386.63782	0.68685
1384.70926	0.70361
1382.78070	0.71772
1380.85213	0.72962
1378.92357	0.73704
1376.99500	0.73807
1375.06644	0.73217
1373.13787	0.72056
1371.20931	0.70659
1369.28074	0.68993
1367.35218	0.67110
1365.42362	0.65359
1363.49505	0.63689
1361.56649	0.62163
1359.63792	0.61109
1357.70936	0.60401
1355.78079	0.59874
1353.85223	0.59497
1351.92366	0.59211
1349.99510	0.58988
1348.06654	0.58860
1346.13797	0.58804
1344.20941	0.58791
1342.28084	0.58884
1340.35228	0.59169
1338.42371	0.59598
1336.49515	0.60094
1334.56659	0.60743
1332.63802	0.61602
1330.70946	0.62568
1328.78089	0.63440
1326.85233	0.64080
1324.92376	0.64496
1322.99520	0.64806
1321.06663	0.65144
1319.13807	0.65569
1317.20951	0.66016
1315.28094	0.66397
1313.35238	0.66734
1311.42381	0.67047
1309.49525	0.67293
1307.56668	0.67439
1305.63812	0.67485
1303.70955	0.67460
1301.78099	0.67400
1299.85243	0.67301
1297.92386	0.67103
1295.99530	0.66795
1294.06673	0.66480
1292.13817	0.66280
1290.20960	0.66230
1288.28104	0.66276
1286.35247	0.66334
1284.42391	0.66345
1282.49535	0.66322
1280.56678	0.66319
1278.63822	0.66376
1276.70965	0.66533
1274.78109	0.66822
1272.85252	0.67250
1270.92396	0.67815
1268.99539	0.68468
1267.06683	0.69107
1265.13827	0.69653
1263.20970	0.70045
1261.28114	0.70255
1259.35257	0.70356
1257.42401	0.70450
1255.49544	0.70561
1253.56688	0.70694
1251.63831	0.70849
1249.70975	0.71016
1247.78119	0.71172
1245.85262	0.71303
1243.92406	0.71390
1241.99549	0.71407
1240.06693	0.71360
1238.13836	0.71258
1236.20980	0.71067
1234.28123	0.70744
1232.35267	0.70288
1230.42411	0.69711
1228.49554	0.69020
1226.56698	0.68245
1224.63841	0.67420
1222.70985	0.66559
1220.78128	0.65701
1218.85272	0.64930
1216.92415	0.64302
1214.99559	0.63863
1213.06703	0.63658
1211.13846	0.63664
1209.20990	0.63776
1207.28133	0.63817
1205.35277	0.63621
1203.42420	0.63144
1201.49564	0.62474
1199.56708	0.61756
1197.63851	0.61099
1195.70995	0.60550
1193.78138	0.60099
1191.85282	0.59777
1189.92425	0.59666
1187.99569	0.59769
1186.06712	0.60013
1184.13856	0.60331
1182.21000	0.60705
1180.28143	0.61202
1178.35287	0.61879
1176.42430	0.62718
1174.49574	0.63665
1172.56717	0.64665
1170.63861	0.65755
1168.71004	0.67046
1166.78148	0.68573
1164.85292	0.70157
1162.92435	0.71511
1160.99579	0.72510
1159.06722	0.73096
1157.13866	0.73119
1155.21009	0.72555
1153.28153	0.71549
1151.35296	0.70258
1149.42440	0.68864
1147.49584	0.67568
1145.56727	0.66521
1143.63871	0.65833
1141.71014	0.65556
1139.78158	0.65657
1137.85301	0.66047
1135.92445	0.66613
1133.99588	0.67331
1132.06732	0.68300
1130.13876	0.69549
1128.21019	0.70961
1126.28163	0.72417
1124.35306	0.73833
1122.42450	0.75096
1120.49593	0.76102
1118.56737	0.76769
1116.63880	0.77019
1114.71024	0.76829
1112.78168	0.76310
1110.85311	0.75658
1108.92455	0.74982
1106.99598	0.74317
1105.06742	0.73731
1103.13885	0.73268
1101.21029	0.72931
1099.28172	0.72799
1097.35316	0.72989
1095.42460	0.73522
1093.49603	0.74328
1091.56747	0.75300
1089.63890	0.76357
1087.71034	0.77555
1085.78177	0.78892
1083.85321	0.80186
1081.92464	0.81286
1079.99608	0.82114
1078.06752	0.82615
1076.13895	0.82757
1074.21039	0.82518
1072.28182	0.81944
1070.35326	0.81131
1068.42469	0.80169
1066.49613	0.79190
1064.56756	0.78242
1062.63900	0.77289
1060.71044	0.76372
1058.78187	0.75509
1056.85331	0.74704
1054.92474	0.74047
1052.99618	0.73545
1051.06761	0.73120
1049.13905	0.72801
1047.21049	0.72720
1045.28192	0.72956
1043.35336	0.73441
1041.42479	0.74065
1039.49623	0.74727
1037.56766	0.75315
1035.63910	0.75774
1033.71053	0.76084
1031.78197	0.76217
1029.85341	0.76163
1027.92484	0.75893
1025.99628	0.75426
1024.06771	0.74893
1022.13915	0.74395
1020.21058	0.73929
1018.28202	0.73494
1016.35345	0.73065
1014.42489	0.72535
1012.49633	0.71793
1010.56776	0.70813
1008.63920	0.69647
1006.71063	0.68404
1004.78207	0.67197
1002.85350	0.66105
1000.92494	0.65155
998.99637	0.64329
997.06781	0.63588
995.13925	0.62881
993.21068	0.62160
991.28212	0.61372
989.35355	0.60465
987.42499	0.59467
985.49642	0.58489
983.56786	0.57615
981.63929	0.56852
979.71073	0.56182
977.78217	0.55573
975.85360	0.54953
973.92504	0.54213
971.99647	0.53316
970.06791	0.52335
968.13934	0.51378
966.21078	0.50557
964.28221	0.49998
962.35365	0.49811
960.42509	0.50062
958.49652	0.50709
956.56796	0.51442
954.63939	0.51839
952.71083	0.51726
950.78226	0.51200
948.85370	0.50479
946.92513	0.49776
944.99657	0.49181
943.06801	0.48677
941.13944	0.48227
939.21088	0.47807
937.28231	0.47395
935.35375	0.46968
933.42518	0.46511
931.49662	0.46020
929.56805	0.45518
927.63949	0.45033
925.71093	0.44560
923.78236	0.44095
921.85380	0.43617
919.92523	0.43076
917.99667	0.42496
916.06810	0.41980
914.13954	0.41617
912.21098	0.41460
910.28241	0.41527
908.35385	0.41805
906.42528	0.42288
904.49672	0.42964
902.56815	0.43750
900.63959	0.44544
898.71102	0.45318
896.78246	0.46057
894.85390	0.46710
892.92533	0.47257
890.99677	0.47704
889.06820	0.48078
887.13964	0.48431
885.21107	0.48797
883.28251	0.49184
881.35394	0.49568
879.42538	0.49913
877.49682	0.50209
875.56825	0.50435
873.63969	0.50569
871.71112	0.50616
869.78256	0.50597
867.85399	0.50546
865.92543	0.50514
863.99686	0.50521
862.06830	0.50506
860.13974	0.50447
858.21117	0.50411
856.28261	0.50426
854.35404	0.50486
852.42548	0.50568
850.49691	0.50609
848.56835	0.50647
846.63978	0.50769
844.71122	0.50955
842.78266	0.51196
840.85409	0.51528
838.92553	0.51922
836.99696	0.52326
835.06840	0.52711
833.13983	0.53051
831.21127	0.53342
829.28270	0.53589
827.35414	0.53753
825.42558	0.53799
823.49701	0.53733
821.56845	0.53539
819.63988	0.53162
817.71132	0.52594
815.78275	0.51900
813.85419	0.51140
811.92562	0.50303
809.99706	0.49372
808.06850	0.48399
806.13993	0.47445
804.21137	0.46516
802.28280	0.45610
800.35424	0.44777
798.42567	0.44062
796.49711	0.43469
794.56854	0.43022
792.63998	0.42742
790.71142	0.42603
788.78285	0.42604
786.85429	0.42819
784.92572	0.43290
782.99716	0.43942
781.06859	0.44718
779.14003	0.45627
777.21147	0.46674
775.28290	0.47864
773.35434	0.49206
771.42577	0.50680
769.49721	0.52221
767.56864	0.53748
765.64008	0.55237
763.71151	0.56703
761.78295	0.58113
759.85439	0.59402
757.92582	0.60557
755.99726	0.61580
754.06869	0.62430
752.14013	0.63066
750.21156	0.63469
748.28300	0.63616
746.35443	0.63505
744.42587	0.63170
742.49731	0.62611
740.56874	0.61842
738.64018	0.60982
736.71161	0.60118
734.78305	0.59241
732.85448	0.58362
730.92592	0.57517
728.99735	0.56725
727.06879	0.56029
725.14023	0.55497
723.21166	0.55188
721.28310	0.55072
719.35453	0.55031
717.42597	0.55040
715.49740	0.55226
713.56884	0.55687
711.64027	0.56345
709.71171	0.57050
707.78315	0.57805
705.85458	0.58697
703.92602	0.59687
701.99745	0.60645
700.06889	0.61432
698.14032	0.62003
696.21176	0.62414
694.28319	0.62648
692.35463	0.62643
690.42607	0.62386
688.49750	0.61937
686.56894	0.61356
684.64037	0.60666
682.71181	0.59862
680.78324	0.58925
678.85468	0.57904
676.92611	0.56880
674.99755	0.55890
673.06899	0.55035
671.14042	0.54453
669.21186	0.53904
667.28329	0.52971
665.35473	0.52265
663.42616	0.51968
661.49760	0.51888
659.56903	0.51942
657.64047	0.52146
655.71191	0.52560
653.78334	0.53122
651.85478	0.53709
649.92621	0.54356
647.99765	0.55163
646.06908	0.56171
644.14052	0.57485
642.21195	0.59144
640.28339	0.60939
638.35483	0.62606
636.42626	0.64027
634.49770	0.65133
632.56913	0.65998
630.64057	0.66909
628.71200	0.68036
626.78344	0.69278
624.85488	0.70314
622.92631	0.70840
620.99775	0.70753
619.06918	0.70108
617.14062	0.69146
615.21205	0.68177
613.28349	0.67154
611.35492	0.65900
609.42636	0.64469
607.49780	0.62901
605.56923	0.61179
603.64067	0.59408
601.71210	0.57781
599.78354	0.56546
