3997.91406	0.54556
3995.98550	0.54397
3994.05693	0.54347
3992.12837	0.54528
3990.19980	0.54690
3988.27124	0.54755
3986.34268	0.54801
3984.41411	0.54765
3982.48555	0.54695
3980.55698	0.54668
3978.62842	0.54612
3976.69985	0.54592
3974.77129	0.54611
3972.84272	0.54551
3970.91416	0.54547
3968.98560	0.54708
3967.05703	0.54851
3965.12847	0.54797
3963.19990	0.54571
3961.27134	0.54374
3959.34277	0.54316
3957.41421	0.54340
3955.48564	0.54331
3953.55708	0.54152
3951.62852	0.53932
3949.69995	0.53982
3947.77139	0.54192
3945.84282	0.54216
3943.91426	0.54103
3941.98569	0.54089
3940.05713	0.54237
3938.12856	0.54431
3936.20000	0.54469
3934.27144	0.54298
3932.34287	0.54153
3930.41431	0.54125
3928.48574	0.54037
3926.55718	0.53970
3924.62861	0.54102
3922.70005	0.54203
3920.77148	0.54126
3918.84292	0.54113
3916.91436	0.54142
3914.98579	0.54013
3913.05723	0.53855
3911.12866	0.53811
3909.20010	0.53804
3907.27153	0.53612
3905.34297	0.53307
3903.41440	0.53452
3901.48584	0.53822
3899.55728	0.53910
3897.62871	0.54090
3895.70015	0.54225
3893.77158	0.53967
3891.84302	0.53623
3889.91445	0.53485
3887.98589	0.53226
3886.05733	0.53006
3884.12876	0.53125
3882.20020	0.53298
3880.27163	0.53418
3878.34307	0.53410
3876.41450	0.53122
3874.48594	0.52588
3872.55737	0.52083
3870.62881	0.51965
3868.70025	0.52238
3866.77168	0.52364
3864.84312	0.52308
3862.91455	0.52461
3860.98599	0.52670
3859.05742	0.52472
3857.12886	0.51638
3855.20029	0.50366
3853.27173	0.50533
3851.34317	0.52029
3849.41460	0.52587
3847.48604	0.52601
3845.55747	0.52468
3843.62891	0.52285
3841.70034	0.52009
3839.77178	0.51639
3837.84321	0.51619
3835.91465	0.52027
3833.98609	0.52269
3832.05752	0.52332
3830.12896	0.52370
3828.20039	0.52327
3826.27183	0.52231
3824.34326	0.52004
3822.41470	0.51575
3820.48613	0.51386
3818.55757	0.51574
3816.62901	0.52088
3814.70044	0.52783
3812.77188	0.52958
3810.84331	0.52638
3808.91475	0.52205
3806.98618	0.51981
3805.05762	0.51764
3803.12905	0.51460
3801.20049	0.51655
3799.27193	0.52083
3797.34336	0.52242
3795.41480	0.52339
3793.48623	0.52411
3791.55767	0.52402
3789.62910	0.52304
3787.70054	0.52248
3785.77197	0.52444
3783.84341	0.52697
3781.91485	0.52628
3779.98628	0.52368
3778.05772	0.52221
3776.12915	0.52208
3774.20059	0.52275
3772.27202	0.52359
3770.34346	0.52403
3768.41489	0.52341
3766.48633	0.52214
3764.55777	0.52198
3762.62920	0.52204
3760.70064	0.52177
3758.77207	0.52214
3756.84351	0.52127
3754.91494	0.51857
3752.98638	0.51568
3751.05781	0.51423
3749.12925	0.51207
3747.20069	0.50802
3745.27212	0.50787
3743.34356	0.51345
3741.41499	0.51485
3739.48643	0.51011
3737.55786	0.50246
3735.62930	0.49997
3733.70074	0.50720
3731.77217	0.51344
3729.84361	0.51468
3727.91504	0.51411
3725.98648	0.51493
3724.05791	0.51592
3722.12935	0.51483
3720.20078	0.51448
3718.27222	0.51553
3716.34366	0.51441
3714.41509	0.51017
3712.48653	0.50740
3710.55796	0.51243
3708.62940	0.51822
3706.70083	0.51951
3704.77227	0.51855
3702.84370	0.51836
3700.91514	0.51970
3698.98658	0.52033
3697.05801	0.51901
3695.12945	0.51560
3693.20088	0.51130
3691.27232	0.50884
3689.34375	0.51290
3687.41519	0.52008
3685.48662	0.52406
3683.55806	0.52613
3681.62950	0.52746
3679.70093	0.52680
3677.77237	0.52305
3675.84380	0.52293
3673.91524	0.52912
3671.98667	0.53190
3670.05811	0.53542
3668.12954	0.54162
3666.20098	0.54557
3664.27242	0.54801
3662.34385	0.54994
3660.41529	0.55097
3658.48672	0.55086
3656.55816	0.55166
3654.62959	0.55356
3652.70103	0.55346
3650.77246	0.55223
3648.84390	0.55947
3646.91534	0.57266
3644.98677	0.58056
3643.05821	0.58497
3641.12964	0.58849
3639.20108	0.59183
3637.27251	0.59497
3635.34395	0.59865
3633.41538	0.60109
3631.48682	0.59950
3629.55826	0.60120
3627.62969	0.61323
3625.70113	0.62073
3623.77256	0.62282
3621.84400	0.62454
3619.91543	0.63005
3617.98687	0.63679
3616.05830	0.63928
3614.12974	0.64217
3612.20118	0.64856
3610.27261	0.65522
3608.34405	0.66122
3606.41548	0.66727
3604.48692	0.67322
3602.55835	0.67984
3600.62979	0.68585
3598.70123	0.68916
3596.77266	0.69326
3594.84410	0.70171
3592.91553	0.70928
3590.98697	0.71127
3589.05840	0.71236
3587.12984	0.71950
3585.20127	0.72897
3583.27271	0.73595
3581.34415	0.74240
3579.41558	0.74851
3577.48702	0.75236
3575.55845	0.75561
3573.62989	0.76105
3571.70132	0.76628
3569.77276	0.76965
3567.84419	0.77733
3565.91563	0.79076
3563.98707	0.80002
3562.05850	0.80675
3560.12994	0.81230
3558.20137	0.81497
3556.27281	0.81731
3554.34424	0.82313
3552.41568	0.83215
3550.48711	0.84024
3548.55855	0.84723
3546.62999	0.85543
3544.70142	0.86306
3542.77286	0.86923
3540.84429	0.87554
3538.91573	0.88109
3536.98716	0.88602
3535.05860	0.89183
3533.13003	0.89820
3531.20147	0.90534
3529.27291	0.91364
3527.34434	0.92309
3525.41578	0.93360
3523.48721	0.94331
3521.55865	0.95103
3519.63008	0.95911
3517.70152	0.96912
3515.77295	0.97773
3513.84439	0.98237
3511.91583	0.98694
3509.98726	0.99580
3508.05870	1.00708
3506.13013	1.01759
3504.20157	1.02796
3502.27300	1.03928
3500.34444	1.04972
3498.41587	1.05785
3496.48731	1.06593
3494.55875	1.07389
3492.63018	1.07976
3490.70162	1.08583
3488.77305	1.09202
3486.84449	1.09513
3484.91592	1.09695
3482.98736	1.10230
3481.05879	1.11072
3479.13023	1.11685
3477.20167	1.12023
3475.27310	1.12436
3473.34454	1.13005
3471.41597	1.13672
3469.48741	1.14662
3467.55884	1.15713
3465.63028	1.16053
3463.70171	1.15980
3461.77315	1.16310
3459.84459	1.17014
3457.91602	1.17776
3455.98746	1.18563
3454.05889	1.19139
3452.13033	1.19415
3450.20176	1.19679
3448.27320	1.19837
3446.34464	1.19596
3444.41607	1.19202
3442.48751	1.19310
3440.55894	1.19923
3438.63038	1.20298
3436.70181	1.20226
3434.77325	1.20073
3432.84468	1.20093
3430.91612	1.20293
3428.98756	1.20444
3427.05899	1.20425
3425.13043	1.20504
3423.20186	1.20729
3421.27330	1.20749
3419.34473	1.20683
3417.41617	1.20907
3415.48760	1.21407
3413.55904	1.21934
3411.63048	1.22177
3409.70191	1.22046
3407.77335	1.21871
3405.84478	1.22070
3403.91622	1.22565
3401.98765	1.22862
3400.05909	1.22732
3398.13052	1.22389
3396.20196	1.22056
3394.27340	1.22021
3392.34483	1.22452
3390.41627	1.22919
3388.48770	1.23069
3386.55914	1.22973
3384.63057	1.22926
3382.70201	1.23115
3380.77344	1.23238
3378.84488	1.23148
3376.91632	1.23028
3374.98775	1.22980
3373.05919	1.23080
3371.13062	1.23460
3369.20206	1.24051
3367.27349	1.24649
3365.34493	1.25144
3363.41636	1.25048
3361.48780	1.24376
3359.55924	1.24132
3357.63067	1.24461
3355.70211	1.24736
3353.77354	1.24774
3351.84498	1.24728
3349.91641	1.24956
3347.98785	1.25346
3346.05928	1.25112
3344.13072	1.24348
3342.20216	1.23911
3340.27359	1.24051
3338.34503	1.24610
3336.41646	1.25279
3334.48790	1.25740
3332.55933	1.26275
3330.63077	1.27229
3328.70220	1.28244
3326.77364	1.28689
3324.84508	1.28489
3322.91651	1.28260
3320.98795	1.28489
3319.05938	1.28804
3317.13082	1.28667
3315.20225	1.28358
3313.27369	1.28481
3311.34513	1.29038
3309.41656	1.29492
3307.48800	1.29769
3305.55943	1.30130
3303.63087	1.30324
3301.70230	1.30450
3299.77374	1.30693
3297.84517	1.30561
3295.91661	1.30374
3293.98805	1.30605
3292.05948	1.30599
3290.13092	1.30185
3288.20235	1.30047
3286.27379	1.30331
3284.34522	1.30406
3282.41666	1.29957
3280.48809	1.29560
3278.55953	1.29567
3276.63097	1.29664
3274.70240	1.29672
3272.77384	1.29781
3270.84527	1.30085
3268.91671	1.30324
3266.98814	1.30128
3265.05958	1.29373
3263.13101	1.28482
3261.20245	1.28114
3259.27389	1.28073
3257.34532	1.27570
3255.41676	1.26680
3253.48819	1.26027
3251.55963	1.25884
3249.63106	1.25942
3247.70250	1.25668
3245.77393	1.25153
3243.84537	1.24434
3241.91681	1.23316
3239.98824	1.22416
3238.05968	1.22240
3236.13111	1.22312
3234.20255	1.22069
3232.27398	1.21556
3230.34542	1.20952
3228.41685	1.20286
3226.48829	1.19667
3224.55973	1.19339
3222.63116	1.19256
3220.70260	1.18802
3218.77403	1.17921
3216.84547	1.17146
3214.91690	1.16424
3212.98834	1.15803
3211.05977	1.15524
3209.13121	1.15363
3207.20265	1.15124
3205.27408	1.14928
3203.34552	1.14728
3201.41695	1.14203
3199.48839	1.13614
3197.55982	1.13543
3195.63126	1.13765
3193.70269	1.13726
3191.77413	1.13298
3189.84557	1.12679
3187.91700	1.12190
3185.98844	1.11923
3184.05987	1.11713
3182.13131	1.11456
3180.20274	1.11005
3178.27418	1.10240
3176.34562	1.09408
3174.41705	1.08741
3172.48849	1.08232
3170.55992	1.07978
3168.63136	1.07858
3166.70279	1.07413
3164.77423	1.06695
3162.84566	1.06156
3160.91710	1.05759
3158.98854	1.05304
3157.05997	1.04960
3155.13141	1.04757
3153.20284	1.04490
3151.27428	1.04266
3149.34571	1.04005
3147.41715	1.03385
3145.48858	1.02827
3143.56002	1.02862
3141.63146	1.03196
3139.70289	1.03328
3137.77433	1.03203
3135.84576	1.03010
3133.91720	1.02820
3131.98863	1.02651
3130.06007	1.02517
3128.13150	1.02429
3126.20294	1.02434
3124.27438	1.02479
3122.34581	1.02532
3120.41725	1.02601
3118.48868	1.02612
3116.56012	1.02594
3114.63155	1.02611
3112.70299	1.02668
3110.77442	1.02729
3108.84586	1.02659
3106.91730	1.02478
3104.98873	1.02402
3103.06017	1.02484
3101.13160	1.02622
3099.20304	1.02605
3097.27447	1.02246
3095.34591	1.01751
3093.41734	1.01445
3091.48878	1.01329
3089.56022	1.01131
3087.63165	1.00647
3085.70309	1.00058
3083.77452	0.99559
3081.84596	0.99170
3079.91739	0.99005
3077.98883	0.99042
3076.06026	0.99057
3074.13170	0.98782
3072.20314	0.98149
3070.27457	0.97590
3068.34601	0.97449
3066.41744	0.97377
3064.48888	0.97086
3062.56031	0.96859
3060.63175	0.96725
3058.70318	0.96507
3056.77462	0.96322
3054.84606	0.96011
3052.91749	0.95297
3050.98893	0.94441
3049.06036	0.93804
3047.13180	0.93440
3045.20323	0.93139
3043.27467	0.92746
3041.34610	0.92344
3039.41754	0.91966
3037.48898	0.91506
3035.56041	0.91028
3033.63185	0.90741
3031.70328	0.90643
3029.77472	0.90497
3027.84615	0.90166
3025.91759	0.89746
3023.98903	0.89354
3022.06046	0.88943
3020.13190	0.88515
3018.20333	0.88204
3016.27477	0.88012
3014.34620	0.87892
3012.41764	0.87809
3010.48907	0.87643
3008.56051	0.87422
3006.63195	0.87269
3004.70338	0.87184
3002.77482	0.87131
3000.84625	0.87171
2998.91769	0.87366
2996.98912	0.87585
2995.06056	0.87775
2993.13199	0.88011
2991.20343	0.88214
2989.27487	0.88460
2987.34630	0.88964
2985.41774	0.89598
2983.48917	0.90104
2981.56061	0.90550
2979.63204	0.91160
2977.70348	0.91920
2975.77491	0.92606
2973.84635	0.93138
2971.91779	0.93757
2969.98922	0.94591
2968.06066	0.95409
2966.13209	0.96114
2964.20353	0.96726
2962.27496	0.97032
2960.34640	0.97011
2958.41783	0.96895
2956.48927	0.96694
2954.56071	0.96371
2952.63214	0.95953
2950.70358	0.95470
2948.77501	0.95164
2946.84645	0.95313
2944.91788	0.95855
2942.98932	0.96522
2941.06075	0.97250
2939.13219	0.98139
2937.20363	0.99074
2935.27506	0.99945
2933.34650	1.00894
2931.41793	1.01947
2929.48937	1.02961
2927.56080	1.03856
2925.63224	1.04502
2923.70367	1.04908
2921.77511	1.05258
2919.84655	1.05364
2917.91798	1.04914
2915.98942	1.03880
2914.06085	1.02307
2912.13229	1.00457
2910.20372	0.98799
2908.27516	0.97472
2906.34659	0.96371
2904.41803	0.95546
2902.48947	0.95094
2900.56090	0.94945
2898.63234	0.94857
2896.70377	0.94610
2894.77521	0.94261
2892.84664	0.93945
2890.91808	0.93633
2888.98952	0.93247
2887.06095	0.92867
2885.13239	0.92672
2883.20382	0.92707
2881.27526	0.92811
2879.34669	0.92799
2877.41813	0.92654
2875.48956	0.92406
2873.56100	0.92055
2871.63244	0.91591
2869.70387	0.91002
2867.77531	0.90361
2865.84674	0.89798
2863.91818	0.89429
2861.98961	0.89342
2860.06105	0.89549
2858.13248	0.89949
2856.20392	0.90445
2854.27536	0.91032
2852.34679	0.91630
2850.41823	0.91826
2848.48966	0.90966
2846.56110	0.89040
2844.63253	0.86894
2842.70397	0.85080
2840.77540	0.83637
2838.84684	0.82580
2836.91828	0.81839
2834.98971	0.81333
2833.06115	0.81074
2831.13258	0.80901
2829.20402	0.80584
2827.27545	0.80135
2825.34689	0.79687
2823.41832	0.79309
2821.48976	0.78957
2819.56120	0.78571
2817.63263	0.78189
2815.70407	0.77856
2813.77550	0.77569
2811.84694	0.77269
2809.91837	0.76893
2807.98981	0.76524
2806.06124	0.76271
2804.13268	0.76064
2802.20412	0.75776
2800.27555	0.75467
2798.34699	0.75279
2796.41842	0.75186
2794.48986	0.75049
2792.56129	0.74835
2790.63273	0.74622
2788.70416	0.74423
2786.77560	0.74190
2784.84704	0.73923
2782.91847	0.73666
2780.98991	0.73483
2779.06134	0.73378
2777.13278	0.73261
2775.20421	0.73078
2773.27565	0.72840
2771.34708	0.72587
2769.41852	0.72396
2767.48996	0.72254
2765.56139	0.72097
2763.63283	0.71984
2761.70426	0.71936
2759.77570	0.71861
2757.84713	0.71712
2755.91857	0.71541
2753.99001	0.71414
2752.06144	0.71316
2750.13288	0.71193
2748.20431	0.71056
2746.27575	0.70980
2744.34718	0.70964
2742.41862	0.70910
2740.49005	0.70816
2738.56149	0.70772
2736.63293	0.70776
2734.70436	0.70753
2732.77580	0.70665
2730.84723	0.70507
2728.91867	0.70331
2726.99010	0.70211
2725.06154	0.70095
2723.13297	0.69922
2721.20441	0.69753
2719.27585	0.69626
2717.34728	0.69491
2715.41872	0.69337
2713.49015	0.69203
2711.56159	0.69064
2709.63302	0.68886
2707.70446	0.68701
2705.77589	0.68524
2703.84733	0.68340
2701.91877	0.68187
2699.99020	0.68070
2698.06164	0.67934
2696.13307	0.67831
2694.20451	0.67816
2692.27594	0.67759
2690.34738	0.67579
2688.41881	0.67420
2686.49025	0.67385
2684.56169	0.67381
2682.63312	0.67315
2680.70456	0.67186
2678.77599	0.67063
2676.84743	0.66984
2674.91886	0.66901
2672.99030	0.66793
2671.06173	0.66652
2669.13317	0.66467
2667.20461	0.66294
2665.27604	0.66179
2663.34748	0.66106
2661.41891	0.66037
2659.49035	0.65955
2657.56178	0.65849
2655.63322	0.65691
2653.70465	0.65472
2651.77609	0.65257
2649.84753	0.65118
2647.91896	0.65011
2645.99040	0.64889
2644.06183	0.64779
2642.13327	0.64630
2640.20470	0.64417
2638.27614	0.64251
2636.34757	0.64170
2634.41901	0.64103
2632.49045	0.64059
2630.56188	0.64037
2628.63332	0.63978
2626.70475	0.63886
2624.77619	0.63814
2622.84762	0.63792
2620.91906	0.63813
2618.99049	0.63852
2617.06193	0.63840
2615.13337	0.63745
2613.20480	0.63674
2611.27624	0.63690
2609.34767	0.63713
2607.41911	0.63677
2605.49054	0.63601
2603.56198	0.63526
2601.63342	0.63449
2599.70485	0.63345
2597.77629	0.63235
2595.84772	0.63160
2593.91916	0.63086
2591.99059	0.62949
2590.06203	0.62772
2588.13346	0.62615
2586.20490	0.62489
2584.27634	0.62387
2582.34777	0.62314
2580.41921	0.62212
2578.49064	0.62043
2576.56208	0.61861
2574.63351	0.61727
2572.70495	0.61652
2570.77638	0.61581
2568.84782	0.61491
2566.91926	0.61409
2564.99069	0.61324
2563.06213	0.61213
2561.13356	0.61058
2559.20500	0.60883
2557.27643	0.60769
2555.34787	0.60745
2553.41930	0.60746
2551.49074	0.60690
2549.56218	0.60565
2547.63361	0.60440
2545.70505	0.60375
2543.77648	0.60352
2541.84792	0.60330
2539.91935	0.60301
2537.99079	0.60264
2536.06222	0.60230
2534.13366	0.60190
2532.20510	0.60121
2530.27653	0.60040
2528.34797	0.59962
2526.41940	0.59870
2524.49084	0.59723
2522.56227	0.59519
2520.63371	0.59328
2518.70514	0.59208
2516.77658	0.59124
2514.84802	0.59022
2512.91945	0.58913
2510.99089	0.58811
2509.06232	0.58685
2507.13376	0.58535
2505.20519	0.58441
2503.27663	0.58423
2501.34806	0.58408
2499.41950	0.58354
2497.49094	0.58274
2495.56237	0.58191
2493.63381	0.58129
2491.70524	0.58084
2489.77668	0.58050
2487.84811	0.58013
2485.91955	0.57944
2483.99098	0.57841
2482.06242	0.57759
2480.13386	0.57699
2478.20529	0.57598
2476.27673	0.57450
2474.34816	0.57332
2472.41960	0.57272
2470.49103	0.57200
2468.56247	0.57094
2466.63391	0.56990
2464.70534	0.56866
2462.77678	0.56738
2460.84821	0.56664
2458.91965	0.56619
2456.99108	0.56588
2455.06252	0.56580
2453.13395	0.56549
2451.20539	0.56487
2449.27683	0.56443
2447.34826	0.56426
2445.41970	0.56412
2443.49113	0.56381
2441.56257	0.56332
2439.63400	0.56265
2437.70544	0.56187
2435.77687	0.56117
2433.84831	0.56051
2431.91975	0.55967
2429.99118	0.55877
2428.06262	0.55803
2426.13405	0.55703
2424.20549	0.55546
2422.27692	0.55401
2420.34836	0.55293
2418.41979	0.55172
2416.49123	0.55056
2414.56267	0.54985
2412.63410	0.54957
2410.70554	0.54945
2408.77697	0.54891
2406.84841	0.54803
2404.91984	0.54769
2402.99128	0.54785
2401.06271	0.54788
2399.13415	0.54761
2397.20559	0.54702
2395.27702	0.54649
2393.34846	0.54636
2391.41989	0.54623
2389.49133	0.54577
2387.56276	0.54489
2385.63420	0.54382
2383.70563	0.54330
2381.77707	0.54346
2379.84851	0.54377
2377.91994	0.54451
2375.99138	0.54638
2374.06281	0.54815
2372.13425	0.54848
2370.20568	0.54921
2368.27712	0.55230
2366.34855	0.55636
2364.41999	0.55815
2362.49143	0.55794
2360.56286	0.55959
2358.63430	0.56081
2356.70573	0.55735
2354.77717	0.55220
2352.84860	0.54950
2350.92004	0.54847
2348.99147	0.54745
2347.06291	0.54753
2345.13435	0.55052
2343.20578	0.55399
2341.27722	0.55363
2339.34865	0.55030
2337.42009	0.54660
2335.49152	0.54426
2333.56296	0.54416
2331.63440	0.54579
2329.70583	0.54642
2327.77727	0.54430
2325.84870	0.54178
2323.92014	0.54051
2321.99157	0.53889
2320.06301	0.53626
2318.13444	0.53402
2316.20588	0.53257
2314.27732	0.53163
2312.34875	0.53141
2310.42019	0.53143
2308.49162	0.53086
2306.56306	0.52998
2304.63449	0.52947
2302.70593	0.52967
2300.77736	0.53006
2298.84880	0.52998
2296.92024	0.52961
2294.99167	0.52930
2293.06311	0.52909
2291.13454	0.52881
2289.20598	0.52817
2287.27741	0.52727
2285.34885	0.52643
2283.42028	0.52579
2281.49172	0.52559
2279.56316	0.52566
2277.63459	0.52526
2275.70603	0.52459
2273.77746	0.52430
2271.84890	0.52421
2269.92033	0.52385
2267.99177	0.52315
2266.06320	0.52246
2264.13464	0.52205
2262.20608	0.52169
2260.27751	0.52126
2258.34895	0.52078
2256.42038	0.52034
2254.49182	0.52014
2252.56325	0.52024
2250.63469	0.52035
2248.70612	0.52004
2246.77756	0.51920
2244.84900	0.51845
2242.92043	0.51838
2240.99187	0.51871
2239.06330	0.51880
2237.13474	0.51872
2235.20617	0.51884
2233.27761	0.51912
2231.34904	0.51957
2229.42048	0.52026
2227.49192	0.52104
2225.56335	0.52182
2223.63479	0.52232
2221.70622	0.52241
2219.77766	0.52265
2217.84909	0.52316
2215.92053	0.52324
2213.99196	0.52268
2212.06340	0.52203
2210.13484	0.52155
2208.20627	0.52105
2206.27771	0.52024
2204.34914	0.51906
2202.42058	0.51777
2200.49201	0.51682
2198.56345	0.51613
2196.63488	0.51531
2194.70632	0.51456
2192.77776	0.51392
2190.84919	0.51318
2188.92063	0.51264
2186.99206	0.51252
2185.06350	0.51251
2183.13493	0.51249
2181.20637	0.51273
2179.27781	0.51317
2177.34924	0.51363
2175.42068	0.51422
2173.49211	0.51487
2171.56355	0.51524
2169.63498	0.51532
2167.70642	0.51561
2165.77785	0.51619
2163.84929	0.51660
2161.92073	0.51659
2159.99216	0.51623
2158.06360	0.51592
2156.13503	0.51589
2154.20647	0.51581
2152.27790	0.51553
2150.34934	0.51541
2148.42077	0.51557
2146.49221	0.51565
2144.56365	0.51562
2142.63508	0.51572
2140.70652	0.51585
2138.77795	0.51593
2136.84939	0.51617
2134.92082	0.51649
2132.99226	0.51658
2131.06369	0.51640
2129.13513	0.51613
2127.20657	0.51586
2125.27800	0.51566
2123.34944	0.51540
2121.42087	0.51485
2119.49231	0.51403
2117.56374	0.51322
2115.63518	0.51252
2113.70661	0.51190
2111.77805	0.51120
2109.84949	0.51034
2107.92092	0.50970
2105.99236	0.50966
2104.06379	0.51010
2102.13523	0.51080
2100.20666	0.51166
2098.27810	0.51278
2096.34953	0.51422
2094.42097	0.51570
2092.49241	0.51710
2090.56384	0.51844
2088.63528	0.51943
2086.70671	0.52016
2084.77815	0.52099
2082.84958	0.52157
2080.92102	0.52182
2078.99245	0.52213
2077.06389	0.52242
2075.13533	0.52246
2073.20676	0.52215
2071.27820	0.52139
2069.34963	0.52040
2067.42107	0.51943
2065.49250	0.51842
2063.56394	0.51741
2061.63537	0.51648
2059.70681	0.51554
2057.77825	0.51457
2055.84968	0.51368
2053.92112	0.51310
2051.99255	0.51284
2050.06399	0.51274
2048.13542	0.51276
2046.20686	0.51290
2044.27830	0.51311
2042.34973	0.51336
2040.42117	0.51364
2038.49260	0.51399
2036.56404	0.51436
2034.63547	0.51466
2032.70691	0.51503
2030.77834	0.51549
2028.84978	0.51593
2026.92122	0.51620
2024.99265	0.51637
2023.06409	0.51671
2021.13552	0.51714
2019.20696	0.51740
2017.27839	0.51751
2015.34983	0.51741
2013.42126	0.51715
2011.49270	0.51707
2009.56414	0.51715
2007.63557	0.51723
2005.70701	0.51723
2003.77844	0.51699
2001.84988	0.51675
1999.92131	0.51692
1997.99275	0.51718
1996.06418	0.51720
1994.13562	0.51726
1992.20706	0.51726
1990.27849	0.51693
1988.34993	0.51654
1986.42136	0.51614
1984.49280	0.51554
1982.56423	0.51496
1980.63567	0.51468
1978.70710	0.51458
1976.77854	0.51435
1974.84998	0.51387
1972.92141	0.51343
1970.99285	0.51341
1969.06428	0.51388
1967.13572	0.51465
1965.20715	0.51540
1963.27859	0.51601
1961.35002	0.51649
1959.42146	0.51685
1957.49290	0.51742
1955.56433	0.51837
1953.63577	0.51918
1951.70720	0.51972
1949.77864	0.52040
1947.85007	0.52110
1945.92151	0.52154
1943.99294	0.52175
1942.06438	0.52160
1940.13582	0.52112
1938.20725	0.52085
1936.27869	0.52092
1934.35012	0.52091
1932.42156	0.52060
1930.49299	0.52029
1928.56443	0.52015
1926.63586	0.52004
1924.70730	0.52001
1922.77874	0.52005
1920.85017	0.51987
1918.92161	0.51982
1916.99304	0.52013
1915.06448	0.52041
1913.13591	0.52068
1911.20735	0.52110
1909.27878	0.52123
1907.35022	0.52068
1905.42166	0.52017
1903.49309	0.52025
1901.56453	0.52077
1899.63596	0.52145
1897.70740	0.52203
1895.77883	0.52226
1893.85027	0.52195
1891.92171	0.52141
1889.99314	0.52108
1888.06458	0.52083
1886.13601	0.52058
1884.20745	0.52024
1882.27888	0.51968
1880.35032	0.51915
1878.42175	0.51877
1876.49319	0.51823
1874.56463	0.51748
1872.63606	0.51712
1870.70750	0.51741
1868.77893	0.51782
1866.85037	0.51771
1864.92180	0.51728
1862.99324	0.51686
1861.06467	0.51658
1859.13611	0.51640
1857.20755	0.51632
1855.27898	0.51636
1853.35042	0.51652
1851.42185	0.51686
1849.49329	0.51741
1847.56472	0.51809
1845.63616	0.51894
1843.70759	0.51923
1841.77903	0.51849
1839.85047	0.51776
1837.92190	0.51752
1835.99334	0.51748
1834.06477	0.51751
1832.13621	0.51796
1830.20764	0.51851
1828.27908	0.51807
1826.35051	0.51738
1824.42195	0.51715
1822.49339	0.51672
1820.56482	0.51602
1818.63626	0.51571
1816.70769	0.51577
1814.77913	0.51584
1812.85056	0.51598
1810.92200	0.51630
1808.99343	0.51661
1807.06487	0.51668
1805.13631	0.51678
1803.20774	0.51727
1801.27918	0.51808
1799.35061	0.51866
1797.42205	0.51892
1795.49348	0.51939
1793.56492	0.52034
1791.63635	0.52133
1789.70779	0.52151
1787.77923	0.52148
1785.85066	0.52185
1783.92210	0.52255
1781.99353	0.52323
1780.06497	0.52340
1778.13640	0.52308
1776.20784	0.52311
1774.27927	0.52435
1772.35071	0.52649
1770.42215	0.52744
1768.49358	0.52741
1766.56502	0.52768
1764.63645	0.52850
1762.70789	0.52995
1760.77932	0.53163
1758.85076	0.53303
1756.92220	0.53483
1754.99363	0.53680
1753.06507	0.53901
1751.13650	0.54305
1749.20794	0.54809
1747.27937	0.55124
1745.35081	0.55323
1743.42224	0.55528
1741.49368	0.55750
1739.56512	0.55961
1737.63655	0.56133
1735.70799	0.56311
1733.77942	0.56537
1731.85086	0.56657
1729.92229	0.56771
1727.99373	0.56962
1726.06516	0.57231
1724.13660	0.57626
1722.20804	0.58032
1720.27947	0.58417
1718.35091	0.59052
1716.42234	0.60020
1714.49378	0.60754
1712.56521	0.61342
1710.63665	0.62048
1708.70808	0.62964
1706.77952	0.64380
1704.85096	0.66259
1702.92239	0.68044
1700.99383	0.70693
1699.06526	0.74772
1697.13670	0.78534
1695.20813	0.82141
1693.27957	0.84863
1691.35100	0.87257
1689.42244	0.90331
1687.49388	0.93306
1685.56531	0.96335
1683.63675	1.00789
1681.70818	1.03977
1679.77962	1.05820
1677.85105	1.07469
1675.92249	1.09354
1673.99392	1.11386
1672.06536	1.12903
1670.13680	1.14375
1668.20823	1.15850
1666.27967	1.16602
1664.35110	1.17210
1662.42254	1.17984
1660.49397	1.18514
1658.56541	1.18774
1656.63684	1.18938
1654.70828	1.19155
1652.77972	1.19405
1650.85115	1.19459
1648.92259	1.19487
1646.99402	1.19474
1645.06546	1.19219
1643.13689	1.18894
1641.20833	1.18739
1639.27976	1.18716
1637.35120	1.18701
1635.42264	1.18449
1633.49407	1.18052
1631.56551	1.17730
1629.63694	1.17294
1627.70838	1.16731
1625.77981	1.16221
1623.85125	1.15542
1621.92269	1.14468
1619.99412	1.13429
1618.06556	1.12113
1616.13699	1.09996
1614.20843	1.08233
1612.27986	1.06901
1610.35130	1.05453
1608.42273	1.03908
1606.49417	1.02543
1604.56561	1.01458
1602.63704	1.00560
1600.70848	0.99824
1598.77991	0.99270
1596.85135	0.98879
1594.92278	0.98604
1592.99422	0.98412
1591.06565	0.98333
1589.13709	0.98461
1587.20853	0.98807
1585.27996	0.99291
1583.35140	0.99920
1581.42283	1.00645
1579.49427	1.01349
1577.56570	1.02299
1575.63714	1.03775
1573.70857	1.04772
1571.78001	1.05402
1569.85145	1.06403
1567.92288	1.07458
1565.99432	1.08172
1564.06575	1.08819
1562.13719	1.09342
1560.20862	1.10069
1558.28006	1.11546
1556.35149	1.12048
1554.42293	1.12093
1552.49437	1.12189
1550.56580	1.12281
1548.63724	1.12223
1546.70867	1.12049
1544.78011	1.11868
1542.85154	1.11585
1540.92298	1.10970
1538.99441	1.10413
1537.06585	1.10183
1535.13729	1.09905
1533.20872	1.09450
1531.28016	1.08996
1529.35159	1.08655
1527.42303	1.08274
1525.49446	1.07845
1523.56590	1.07608
1521.63733	1.07701
1519.70877	1.07895
1517.78021	1.07671
1515.85164	1.06868
1513.92308	1.05815
1511.99451	1.04792
1510.06595	1.03857
1508.13738	1.02408
1506.20882	0.99883
1504.28025	0.98466
1502.35169	0.97508
1500.42313	0.96417
1498.49456	0.95081
1496.56600	0.93382
1494.63743	0.91892
1492.70887	0.90896
1490.78030	0.89971
1488.85174	0.88782
1486.92317	0.87709
1484.99461	0.87037
1483.06605	0.86690
1481.13748	0.86549
1479.20892	0.86565
1477.28035	0.86817
1475.35179	0.87453
1473.42322	0.88676
1471.49466	0.90006
1469.56610	0.90795
1467.63753	0.91442
1465.70897	0.92273
1463.78040	0.93081
1461.85184	0.93539
1459.92327	0.93903
1457.99471	0.94700
1456.06614	0.95698
1454.13758	0.95984
1452.20902	0.96034
1450.28045	0.96099
1448.35189	0.96136
1446.42332	0.96012
1444.49476	0.95755
1442.56619	0.95465
1440.63763	0.95164
1438.70906	0.94810
1436.78050	0.94335
1434.85194	0.93795
1432.92337	0.93273
1430.99481	0.92693
1429.06624	0.92088
1427.13768	0.91645
1425.20911	0.91358
1423.28055	0.91133
1421.35198	0.90973
1419.42342	0.90951
1417.49486	0.91034
1415.56629	0.91050
1413.63773	0.90963
1411.70916	0.90762
1409.78060	0.90491
1407.85203	0.90279
1405.92347	0.90188
1403.99490	0.90141
1402.06634	0.90045
1400.13778	0.89921
1398.20921	0.89836
1396.28065	0.89832
1394.35208	0.89875
1392.42352	0.89978
1390.49495	0.90250
1388.56639	0.90884
1386.63782	0.91926
1384.70926	0.92989
1382.78070	0.93897
1380.85213	0.94625
1378.92357	0.95014
1376.99500	0.94989
1375.06644	0.94511
1373.13787	0.93632
1371.20931	0.92639
1369.28074	0.91514
1367.35218	0.90266
1365.42362	0.89130
1363.49505	0.88013
1361.56649	0.86906
1359.63792	0.86127
1357.70936	0.85651
1355.78079	0.85321
1353.85223	0.85079
1351.92366	0.84913
1349.99510	0.84789
1348.06654	0.84700
1346.13797	0.84654
1344.20941	0.84651
1342.28084	0.84711
1340.35228	0.84886
1338.42371	0.85166
1336.49515	0.85520
1334.56659	0.85999
1332.63802	0.86613
1330.70946	0.87289
1328.78089	0.87907
1326.85233	0.88342
1324.92376	0.88565
1322.99520	0.88693
1321.06663	0.88857
1319.13807	0.89100
1317.20951	0.89380
1315.28094	0.89631
1313.35238	0.89798
1311.42381	0.89858
1309.49525	0.89853
1307.56668	0.89802
1305.63812	0.89691
1303.70955	0.89546
1301.78099	0.89351
1299.85243	0.89066
1297.92386	0.88697
1295.99530	0.88264
1294.06673	0.87830
1292.13817	0.87512
1290.20960	0.87338
1288.28104	0.87213
1286.35247	0.87044
1284.42391	0.86828
1282.49535	0.86643
1280.56678	0.86526
1278.63822	0.86459
1276.70965	0.86456
1274.78109	0.86557
1272.85252	0.86810
1270.92396	0.87215
1268.99539	0.87709
1267.06683	0.88250
1265.13827	0.88775
1263.20970	0.89162
1261.28114	0.89357
1259.35257	0.89442
1257.42401	0.89515
1255.49544	0.89580
1253.56688	0.89624
1251.63831	0.89678
1249.70975	0.89745
1247.78119	0.89746
1245.85262	0.89638
1243.92406	0.89498
1241.99549	0.89358
1240.06693	0.89132
1238.13836	0.88803
1236.20980	0.88417
1234.28123	0.88006
1232.35267	0.87587
1230.42411	0.87082
1228.49554	0.86444
1226.56698	0.85763
1224.63841	0.85106
1222.70985	0.84485
1220.78128	0.83942
1218.85272	0.83523
1216.92415	0.83246
1214.99559	0.83123
1213.06703	0.83210
1211.13846	0.83520
1209.20990	0.83964
1207.28133	0.84376
1205.35277	0.84566
1203.42420	0.84440
1201.49564	0.84048
1199.56708	0.83453
1197.63851	0.82719
1195.70995	0.81958
1193.78138	0.81248
1191.85282	0.80622
1189.92425	0.80103
1187.99569	0.79736
1186.06712	0.79593
1184.13856	0.79696
1182.21000	0.79967
1180.28143	0.80317
1178.35287	0.80794
1176.42430	0.81519
1174.49574	0.82461
1172.56717	0.83500
1170.63861	0.84614
1168.71004	0.85900
1166.78148	0.87440
1164.85292	0.89167
1162.92435	0.90916
1160.99579	0.92405
1159.06722	0.93334
1157.13866	0.93721
1155.21009	0.93747
1153.28153	0.93429
1151.35296	0.92757
1149.42440	0.91872
1147.49584	0.90929
1145.56727	0.90006
1143.63871	0.89218
1141.71014	0.88737
1139.78158	0.88680
1137.85301	0.88998
1135.92445	0.89487
1133.99588	0.90054
1132.06732	0.90839
1130.13876	0.91957
1128.21019	0.93283
1126.28163	0.94557
1124.35306	0.95633
1122.42450	0.96521
1120.49593	0.97239
1118.56737	0.97782
1116.63880	0.98161
1114.71024	0.98395
1112.78168	0.98461
1110.85311	0.98364
1108.92455	0.98172
1106.99598	0.97973
1105.06742	0.97812
1103.13885	0.97673
1101.21029	0.97583
1099.28172	0.97636
1097.35316	0.97885
1095.42460	0.98322
1093.49603	0.98980
1091.56747	0.99846
1089.63890	1.00781
1087.71034	1.01712
1085.78177	1.02605
1083.85321	1.03356
1081.92464	1.03848
1079.99608	1.03999
1078.06752	1.03889
1076.13895	1.03685
1074.21039	1.03465
1072.28182	1.03202
1070.35326	1.02794
1068.42469	1.02196
1066.49613	1.01568
1064.56756	1.01123
1062.63900	1.00861
1060.71044	1.00698
1058.78187	1.00576
1056.85331	1.00397
1054.92474	1.00208
1052.99618	1.00157
1051.06761	1.00227
1049.13905	1.00325
1047.21049	1.00441
1045.28192	1.00616
1043.35336	1.00876
1041.42479	1.01141
1039.49623	1.01257
1037.56766	1.01233
1035.63910	1.01165
1033.71053	1.01012
1031.78197	1.00676
1029.85341	1.00108
1027.92484	0.99366
1025.99628	0.98601
1024.06771	0.97895
1022.13915	0.97251
1020.21058	0.96734
1018.28202	0.96336
1016.35345	0.95841
1014.42489	0.95096
1012.49633	0.94162
1010.56776	0.93101
1008.63920	0.91805
1006.71063	0.90230
1004.78207	0.88654
1002.85350	0.87410
1000.92494	0.86516
998.99637	0.85811
997.06781	0.85232
995.13925	0.84732
993.21068	0.84169
991.28212	0.83428
989.35355	0.82534
987.42499	0.81530
985.49642	0.80417
983.56786	0.79309
981.63929	0.78387
979.71073	0.77666
977.78217	0.77017
975.85360	0.76380
973.92504	0.75744
971.99647	0.74981
970.06791	0.73997
968.13934	0.72931
966.21078	0.72009
964.28221	0.71341
962.35365	0.70998
960.42509	0.71116
958.49652	0.71699
956.56796	0.72419
954.63939	0.72817
952.71083	0.72665
950.78226	0.72072
948.85370	0.71328
946.92513	0.70697
944.99657	0.70306
943.06801	0.70150
941.13944	0.70152
939.21088	0.70207
937.28231	0.70265
935.35375	0.70348
933.42518	0.70460
931.49662	0.70590
929.56805	0.70754
927.63949	0.70949
925.71093	0.71161
923.78236	0.71376
921.85380	0.71518
919.92523	0.71494
917.99667	0.71350
916.06810	0.71222
914.13954	0.71166
912.21098	0.71192
910.28241	0.71333
908.35385	0.71571
906.42528	0.71846
904.49672	0.72157
902.56815	0.72469
900.63959	0.72689
898.71102	0.72774
896.78246	0.72694
894.85390	0.72458
892.92533	0.72127
890.99677	0.71730
889.06820	0.71289
887.13964	0.70839
885.21107	0.70403
883.28251	0.70021
881.35394	0.69752
879.42538	0.69654
877.49682	0.69728
875.56825	0.69923
873.63969	0.70201
871.71112	0.70499
869.78256	0.70758
867.85399	0.71011
865.92543	0.71321
863.99686	0.71683
862.06830	0.72005
860.13974	0.72206
858.21117	0.72289
856.28261	0.72326
854.35404	0.72374
852.42548	0.72408
850.49691	0.72417
848.56835	0.72473
846.63978	0.72583
844.71122	0.72728
842.78266	0.72932
840.85409	0.73145
838.92553	0.73342
836.99696	0.73556
835.06840	0.73721
833.13983	0.73862
831.21127	0.74099
829.28270	0.74344
827.35414	0.74473
825.42558	0.74528
823.49701	0.74549
821.56845	0.74500
819.63988	0.74333
817.71132	0.74069
815.78275	0.73737
813.85419	0.73361
811.92562	0.73010
809.99706	0.72690
808.06850	0.72399
806.13993	0.72231
804.21137	0.72159
802.28280	0.72052
800.35424	0.71981
798.42567	0.72124
796.49711	0.72466
794.56854	0.72845
792.63998	0.73228
790.71142	0.73646
788.78285	0.74042
786.85429	0.74436
784.92572	0.74938
782.99716	0.75458
781.06859	0.75820
779.14003	0.76077
777.21147	0.76317
775.28290	0.76462
773.35434	0.76441
771.42577	0.76324
769.49721	0.76147
767.56864	0.75844
765.64008	0.75479
763.71151	0.75192
761.78295	0.74981
759.85439	0.74834
757.92582	0.74802
755.99726	0.74863
754.06869	0.74972
752.14013	0.75171
750.21156	0.75474
748.28300	0.75805
746.35443	0.76161
744.42587	0.76552
742.49731	0.76852
740.56874	0.76980
738.64018	0.77019
736.71161	0.77046
734.78305	0.77071
732.85448	0.77095
730.92592	0.77084
728.99735	0.76954
727.06879	0.76702
725.14023	0.76423
723.21166	0.76206
721.28310	0.76058
719.35453	0.75828
717.42597	0.75437
715.49740	0.75085
713.56884	0.74910
711.64027	0.74880
709.71171	0.74929
707.78315	0.74984
705.85458	0.75043
703.92602	0.75205
701.99745	0.75494
700.06889	0.75798
698.14032	0.76015
696.21176	0.76210
694.28319	0.76472
692.35463	0.76757
690.42607	0.77009
688.49750	0.77218
686.56894	0.77365
684.64037	0.77441
682.71181	0.77397
680.78324	0.77177
678.85468	0.76813
676.92611	0.76392
674.99755	0.76015
673.06899	0.75696
671.14042	0.75434
669.21186	0.74999
667.28329	0.74038
665.35473	0.73317
663.42616	0.72967
661.49760	0.72691
659.56903	0.72381
657.64047	0.72085
655.71191	0.71967
653.78334	0.72045
651.85478	0.72126
649.92621	0.72091
647.99765	0.72002
646.06908	0.72007
644.14052	0.72198
642.21195	0.72410
640.28339	0.72445
638.35483	0.72415
636.42626	0.72361
634.49770	0.72218
632.56913	0.72188
630.64057	0.72277
628.71200	0.72245
626.78344	0.72198
624.85488	0.72262
622.92631	0.72356
620.99775	0.72536
619.06918	0.72871
617.14062	0.73374
615.21205	0.73970
613.28349	0.74405
611.35492	0.74556
609.42636	0.74534
607.49780	0.74404
605.56923	0.74193
603.64067	0.74042
601.71210	0.73971
599.78354	0.73725
