3997.91406	0.72032
3995.98550	0.71866
3994.05693	0.71793
3992.12837	0.71836
3990.19980	0.71921
3988.27124	0.72033
3986.34268	0.72118
3984.41411	0.72177
3982.48555	0.72296
3980.55698	0.72344
3978.62842	0.72229
3976.69985	0.72177
3974.77129	0.72281
3972.84272	0.72313
3970.91416	0.72239
3968.98560	0.72128
3967.05703	0.71842
3965.12847	0.71579
3963.19990	0.71644
3961.27134	0.71732
3959.34277	0.71648
3957.41421	0.71581
3955.48564	0.71272
3953.55708	0.70720
3951.62852	0.70626
3949.69995	0.71253
3947.77139	0.71896
3945.84282	0.71912
3943.91426	0.71583
3941.98569	0.71327
3940.05713	0.71064
3938.12856	0.70760
3936.20000	0.70571
3934.27144	0.70644
3932.34287	0.71026
3930.41431	0.71276
3928.48574	0.71112
3926.55718	0.70879
3924.62861	0.70815
3922.70005	0.70722
3920.77148	0.70549
3918.84292	0.70648
3916.91436	0.71091
3914.98579	0.71353
3913.05723	0.71177
3911.12866	0.70769
3909.20010	0.70260
3907.27153	0.69667
3905.34297	0.69407
3903.41440	0.69927
3901.48584	0.70467
3899.55728	0.70679
3897.62871	0.70963
3895.70015	0.71133
3893.77158	0.71014
3891.84302	0.70770
3889.91445	0.70402
3887.98589	0.69813
3886.05733	0.69448
3884.12876	0.69633
3882.20020	0.69991
3880.27163	0.70461
3878.34307	0.70572
3876.41450	0.70243
3874.48594	0.69947
3872.55737	0.69829
3870.62881	0.69961
3868.70025	0.70125
3866.77168	0.69835
3864.84312	0.69539
3862.91455	0.69686
3860.98599	0.69774
3859.05742	0.69366
3857.12886	0.68312
3855.20029	0.66938
3853.27173	0.67503
3851.34317	0.69258
3849.41460	0.69681
3847.48604	0.69679
3845.55747	0.70003
3843.62891	0.70566
3841.70034	0.70548
3839.77178	0.69943
3837.84321	0.69725
3835.91465	0.69802
3833.98609	0.69705
3832.05752	0.69695
3830.12896	0.69842
3828.20039	0.69997
3826.27183	0.70120
3824.34326	0.69957
3822.41470	0.69706
3820.48613	0.70030
3818.55757	0.70311
3816.62901	0.70477
3814.70044	0.70695
3812.77188	0.70549
3810.84331	0.70129
3808.91475	0.69713
3806.98618	0.69605
3805.05762	0.69431
3803.12905	0.69076
3801.20049	0.69433
3799.27193	0.70014
3797.34336	0.70255
3795.41480	0.70421
3793.48623	0.70362
3791.55767	0.70206
3789.62910	0.70192
3787.70054	0.70267
3785.77197	0.70328
3783.84341	0.70195
3781.91485	0.69851
3779.98628	0.69761
3778.05772	0.69941
3776.12915	0.69856
3774.20059	0.69576
3772.27202	0.69301
3770.34346	0.69298
3768.41489	0.69547
3766.48633	0.69686
3764.55777	0.69803
3762.62920	0.69774
3760.70064	0.69631
3758.77207	0.69713
3756.84351	0.69669
3754.91494	0.69200
3752.98638	0.68501
3751.05781	0.68259
3749.12925	0.68725
3747.20069	0.68870
3745.27212	0.69192
3743.34356	0.69958
3741.41499	0.70055
3739.48643	0.69429
3737.55786	0.68427
3735.62930	0.68150
3733.70074	0.69504
3731.77217	0.70425
3729.84361	0.70268
3727.91504	0.69920
3725.98648	0.70004
3724.05791	0.70336
3722.12935	0.70405
3720.20078	0.70315
3718.27222	0.70294
3716.34366	0.70078
3714.41509	0.69477
3712.48653	0.69292
3710.55796	0.70411
3708.62940	0.71069
3706.70083	0.70739
3704.77227	0.70115
3702.84370	0.69810
3700.91514	0.70057
3698.98658	0.70212
3697.05801	0.70057
3695.12945	0.69778
3693.20088	0.69488
3691.27232	0.69462
3689.34375	0.70073
3687.41519	0.70604
3685.48662	0.70585
3683.55806	0.70430
3681.62950	0.70390
3679.70093	0.70202
3677.77237	0.69754
3675.84380	0.70335
3673.91524	0.71465
3671.98667	0.71560
3670.05811	0.71982
3668.12954	0.72701
3666.20098	0.72875
3664.27242	0.73029
3662.34385	0.73351
3660.41529	0.73700
3658.48672	0.74051
3656.55816	0.74469
3654.62959	0.74616
3652.70103	0.74305
3650.77246	0.74105
3648.84390	0.75063
3646.91534	0.75987
3644.98677	0.76186
3643.05821	0.76420
3641.12964	0.76986
3639.20108	0.77560
3637.27251	0.77899
3635.34395	0.78191
3633.41538	0.78344
3631.48682	0.78080
3629.55826	0.78333
3627.62969	0.79736
3625.70113	0.80355
3623.77256	0.80379
3621.84400	0.80449
3619.91543	0.80867
3617.98687	0.81484
3616.05830	0.81769
3614.12974	0.81978
3612.20118	0.82325
3610.27261	0.82604
3608.34405	0.83087
3606.41548	0.83996
3604.48692	0.84751
3602.55835	0.84950
3600.62979	0.84736
3598.70123	0.84774
3596.77266	0.85479
3594.84410	0.86474
3592.91553	0.86794
3590.98697	0.86409
3589.05840	0.86556
3587.12984	0.88142
3585.20127	0.89355
3583.27271	0.89495
3581.34415	0.89397
3579.41558	0.89371
3577.48702	0.89710
3575.55845	0.90397
3573.62989	0.90944
3571.70132	0.91289
3569.77276	0.91542
3567.84419	0.91939
3565.91563	0.92869
3563.98707	0.93685
3562.05850	0.94123
3560.12994	0.94355
3558.20137	0.94554
3556.27281	0.94992
3554.34424	0.95735
3552.41568	0.96364
3550.48711	0.96505
3548.55855	0.96708
3546.62999	0.97511
3544.70142	0.98416
3542.77286	0.98878
3540.84429	0.99207
3538.91573	0.99714
3536.98716	1.00400
3535.05860	1.01046
3533.13003	1.01504
3531.20147	1.01759
3529.27291	1.02004
3527.34434	1.02510
3525.41578	1.02998
3523.48721	1.03156
3521.55865	1.03246
3519.63008	1.03592
3517.70152	1.04304
3515.77295	1.05200
3513.84439	1.05757
3511.91583	1.05877
3509.98726	1.06237
3508.05870	1.06910
3506.13013	1.07348
3504.20157	1.07673
3502.27300	1.08070
3500.34444	1.08572
3498.41587	1.09129
3496.48731	1.09562
3494.55875	1.10146
3492.63018	1.10926
3490.70162	1.11616
3488.77305	1.12335
3486.84449	1.12912
3484.91592	1.13071
3482.98736	1.13332
3481.05879	1.14064
3479.13023	1.14701
3477.20167	1.14755
3475.27310	1.14435
3473.34454	1.14477
3471.41597	1.15110
3469.48741	1.15575
3467.55884	1.15610
3465.63028	1.15663
3463.70171	1.15909
3461.77315	1.16271
3459.84459	1.16513
3457.91602	1.16596
3455.98746	1.16705
3454.05889	1.16998
3452.13033	1.17501
3450.20176	1.17759
3448.27320	1.17608
3446.34464	1.17586
3444.41607	1.17786
3442.48751	1.17925
3440.55894	1.18161
3438.63038	1.18695
3436.70181	1.19183
3434.77325	1.19097
3432.84468	1.18540
3430.91612	1.18278
3428.98756	1.18592
3427.05899	1.18740
3425.13043	1.18572
3423.20186	1.18664
3421.27330	1.18801
3419.34473	1.18786
3417.41617	1.19156
3415.48760	1.19871
3413.55904	1.20385
3411.63048	1.20462
3409.70191	1.20239
3407.77335	1.20163
3405.84478	1.20495
3403.91622	1.20984
3401.98765	1.21154
3400.05909	1.20895
3398.13052	1.20948
3396.20196	1.21699
3394.27340	1.22332
3392.34483	1.22089
3390.41627	1.21415
3388.48770	1.21362
3386.55914	1.21859
3384.63057	1.22023
3382.70201	1.22076
3380.77344	1.22433
3378.84488	1.22539
3376.91632	1.22385
3374.98775	1.22472
3373.05919	1.22705
3371.13062	1.22906
3369.20206	1.23018
3367.27349	1.22855
3365.34493	1.22417
3363.41636	1.22325
3361.48780	1.23078
3359.55924	1.23923
3357.63067	1.24075
3355.70211	1.23856
3353.77354	1.23648
3351.84498	1.23515
3349.91641	1.23489
3347.98785	1.23605
3346.05928	1.23866
3344.13072	1.24163
3342.20216	1.24224
3340.27359	1.23814
3338.34503	1.23446
3336.41646	1.23715
3334.48790	1.23924
3332.55933	1.23545
3330.63077	1.23501
3328.70220	1.24386
3326.77364	1.25520
3324.84508	1.25895
3322.91651	1.25650
3320.98795	1.25976
3319.05938	1.26970
3317.13082	1.27344
3315.20225	1.26875
3313.27369	1.26500
3311.34513	1.26478
3309.41656	1.26781
3307.48800	1.27291
3305.55943	1.27392
3303.63087	1.27142
3301.70230	1.27211
3299.77374	1.27519
3297.84517	1.27429
3295.91661	1.27041
3293.98805	1.26999
3292.05948	1.27070
3290.13092	1.26755
3288.20235	1.26471
3286.27379	1.26472
3284.34522	1.26461
3282.41666	1.26349
3280.48809	1.26154
3278.55953	1.25987
3276.63097	1.25983
3274.70240	1.25997
3272.77384	1.25961
3270.84527	1.25953
3268.91671	1.25861
3266.98814	1.25453
3265.05958	1.24902
3263.13101	1.24567
3261.20245	1.24243
3259.27389	1.23761
3257.34532	1.23443
3255.41676	1.23325
3253.48819	1.23001
3251.55963	1.22499
3249.63106	1.22209
3247.70250	1.21926
3245.77393	1.21426
3243.84537	1.20989
3241.91681	1.20705
3239.98824	1.20605
3238.05968	1.20535
3236.13111	1.20056
3234.20255	1.19407
3232.27398	1.19126
3230.34542	1.19130
3228.41685	1.19227
3226.48829	1.19320
3224.55973	1.19094
3222.63116	1.18541
3220.70260	1.18175
3218.77403	1.18221
3216.84547	1.18474
3214.91690	1.18564
3212.98834	1.18046
3211.05977	1.17235
3209.13121	1.16782
3207.20265	1.16726
3205.27408	1.16962
3203.34552	1.17314
3201.41695	1.17441
3199.48839	1.17198
3197.55982	1.16653
3195.63126	1.16117
3193.70269	1.15874
3191.77413	1.15740
3189.84557	1.15433
3187.91700	1.15130
3185.98844	1.14906
3184.05987	1.14413
3182.13131	1.13646
3180.20274	1.12943
3178.27418	1.12425
3176.34562	1.12132
3174.41705	1.12034
3172.48849	1.11837
3170.55992	1.11520
3168.63136	1.11347
3166.70279	1.11086
3164.77423	1.10550
3162.84566	1.10045
3160.91710	1.09745
3158.98854	1.09609
3157.05997	1.09474
3155.13141	1.09239
3153.20284	1.09004
3151.27428	1.08786
3149.34571	1.08494
3147.41715	1.08214
3145.48858	1.08179
3143.56002	1.08257
3141.63146	1.08181
3139.70289	1.08137
3137.77433	1.08200
3135.84576	1.08183
3133.91720	1.08152
3131.98863	1.08146
3130.06007	1.08006
3128.13150	1.07863
3126.20294	1.08000
3124.27438	1.08200
3122.34581	1.08160
3120.41725	1.08118
3118.48868	1.08213
3116.56012	1.08245
3114.63155	1.08285
3112.70299	1.08475
3110.77442	1.08556
3108.84586	1.08341
3106.91730	1.08139
3104.98873	1.08199
3103.06017	1.08402
3101.13160	1.08609
3099.20304	1.08776
3097.27447	1.08780
3095.34591	1.08479
3093.41734	1.08166
3091.48878	1.08149
3089.56022	1.08083
3087.63165	1.07790
3085.70309	1.07711
3083.77452	1.07940
3081.84596	1.08002
3079.91739	1.07714
3077.98883	1.07414
3076.06026	1.07274
3074.13170	1.07153
3072.20314	1.06934
3070.27457	1.06558
3068.34601	1.06173
3066.41744	1.06100
3064.48888	1.06234
3062.56031	1.06117
3060.63175	1.05737
3058.70318	1.05369
3056.77462	1.05033
3054.84606	1.04581
3052.91749	1.04084
3050.98893	1.03835
3049.06036	1.03802
3047.13180	1.03607
3045.20323	1.03131
3043.27467	1.02555
3041.34610	1.02045
3039.41754	1.01684
3037.48898	1.01549
3035.56041	1.01581
3033.63185	1.01580
3031.70328	1.01380
3029.77472	1.00924
3027.84615	1.00450
3025.91759	1.00259
3023.98903	1.00335
3022.06046	1.00338
3020.13190	1.00034
3018.20333	0.99642
3016.27477	0.99338
3014.34620	0.99052
3012.41764	0.98895
3010.48907	0.99012
3008.56051	0.99234
3006.63195	0.99329
3004.70338	0.99294
3002.77482	0.99172
3000.84625	0.99018
2998.91769	0.98934
2996.98912	0.98934
2995.06056	0.99047
2993.13199	0.99227
2991.20343	0.99274
2989.27487	0.99279
2987.34630	0.99648
2985.41774	1.00417
2983.48917	1.01134
2981.56061	1.01578
2979.63204	1.02012
2977.70348	1.02537
2975.77491	1.02980
2973.84635	1.03516
2971.91779	1.04301
2969.98922	1.04969
2968.06066	1.05336
2966.13209	1.05720
2964.20353	1.06330
2962.27496	1.06929
2960.34640	1.07222
2958.41783	1.07246
2956.48927	1.07146
2954.56071	1.06899
2952.63214	1.06490
2950.70358	1.06108
2948.77501	1.05901
2946.84645	1.05783
2944.91788	1.05819
2942.98932	1.06347
2941.06075	1.07351
2939.13219	1.08487
2937.20363	1.09722
2935.27506	1.10965
2933.34650	1.12018
2931.41793	1.13060
2929.48937	1.14112
2927.56080	1.15129
2925.63224	1.16306
2923.70367	1.17295
2921.77511	1.17464
2919.84655	1.16980
2917.91798	1.16187
2915.98942	1.14790
2914.06085	1.12686
2912.13229	1.10528
2910.20372	1.08852
2908.27516	1.07584
2906.34659	1.06516
2904.41803	1.05642
2902.48947	1.04925
2900.56090	1.04210
2898.63234	1.03733
2896.70377	1.03753
2894.77521	1.03684
2892.84664	1.02986
2890.91808	1.02133
2888.98952	1.01648
2887.06095	1.01443
2885.13239	1.01312
2883.20382	1.01177
2881.27526	1.01062
2879.34669	1.01110
2877.41813	1.01279
2875.48956	1.01364
2873.56100	1.01252
2871.63244	1.00890
2869.70387	1.00428
2867.77531	1.00174
2865.84674	1.00191
2863.91818	1.00326
2861.98961	1.00540
2860.06105	1.00931
2858.13248	1.01629
2856.20392	1.02677
2854.27536	1.03835
2852.34679	1.04693
2850.41823	1.04725
2848.48966	1.03427
2846.56110	1.01091
2844.63253	0.98725
2842.70397	0.96875
2840.77540	0.95359
2838.84684	0.94038
2836.91828	0.93026
2834.98971	0.92314
2833.06115	0.91783
2831.13258	0.91339
2829.20402	0.90973
2827.27545	0.90662
2825.34689	0.90298
2823.41832	0.89956
2821.48976	0.89743
2819.56120	0.89492
2817.63263	0.89115
2815.70407	0.88765
2813.77550	0.88529
2811.84694	0.88339
2809.91837	0.88099
2807.98981	0.87804
2806.06124	0.87593
2804.13268	0.87462
2802.20412	0.87245
2800.27555	0.86951
2798.34699	0.86659
2796.41842	0.86388
2794.48986	0.86169
2792.56129	0.86000
2790.63273	0.85885
2788.70416	0.85783
2786.77560	0.85611
2784.84704	0.85402
2782.91847	0.85210
2780.98991	0.85019
2779.06134	0.84834
2777.13278	0.84656
2775.20421	0.84482
2773.27565	0.84359
2771.34708	0.84251
2769.41852	0.84098
2767.48996	0.84027
2765.56139	0.84079
2763.63283	0.84017
2761.70426	0.83755
2759.77570	0.83502
2757.84713	0.83356
2755.91857	0.83235
2753.99001	0.83130
2752.06144	0.83098
2750.13288	0.83129
2748.20431	0.83123
2746.27575	0.82997
2744.34718	0.82806
2742.41862	0.82676
2740.49005	0.82650
2738.56149	0.82591
2736.63293	0.82445
2734.70436	0.82368
2732.77580	0.82385
2730.84723	0.82336
2728.91867	0.82131
2726.99010	0.81886
2725.06154	0.81781
2723.13297	0.81780
2721.20441	0.81730
2719.27585	0.81653
2717.34728	0.81635
2715.41872	0.81611
2713.49015	0.81493
2711.56159	0.81307
2709.63302	0.81101
2707.70446	0.80911
2705.77589	0.80754
2703.84733	0.80634
2701.91877	0.80542
2699.99020	0.80424
2698.06164	0.80263
2696.13307	0.80133
2694.20451	0.80052
2692.27594	0.79906
2690.34738	0.79688
2688.41881	0.79559
2686.49025	0.79504
2684.56169	0.79358
2682.63312	0.79154
2680.70456	0.79036
2678.77599	0.79007
2676.84743	0.79014
2674.91886	0.78973
2672.99030	0.78808
2671.06173	0.78625
2669.13317	0.78506
2667.20461	0.78430
2665.27604	0.78416
2663.34748	0.78440
2661.41891	0.78435
2659.49035	0.78397
2657.56178	0.78383
2655.63322	0.78433
2653.70465	0.78491
2651.77609	0.78459
2649.84753	0.78295
2647.91896	0.78081
2645.99040	0.77983
2644.06183	0.78015
2642.13327	0.78075
2640.20470	0.78132
2638.27614	0.78121
2636.34757	0.77995
2634.41901	0.77875
2632.49045	0.77801
2630.56188	0.77667
2628.63332	0.77528
2626.70475	0.77474
2624.77619	0.77396
2622.84762	0.77248
2620.91906	0.77136
2618.99049	0.77059
2617.06193	0.76921
2615.13337	0.76769
2613.20480	0.76685
2611.27624	0.76615
2609.34767	0.76511
2607.41911	0.76386
2605.49054	0.76254
2603.56198	0.76146
2601.63342	0.76069
2599.70485	0.75996
2597.77629	0.75919
2595.84772	0.75836
2593.91916	0.75722
2591.99059	0.75585
2590.06203	0.75491
2588.13346	0.75448
2586.20490	0.75388
2584.27634	0.75309
2582.34777	0.75265
2580.41921	0.75220
2578.49064	0.75125
2576.56208	0.75029
2574.63351	0.74984
2572.70495	0.74923
2570.77638	0.74815
2568.84782	0.74762
2566.91926	0.74770
2564.99069	0.74737
2563.06213	0.74647
2561.13356	0.74542
2559.20500	0.74397
2557.27643	0.74209
2555.34787	0.74077
2553.41930	0.74011
2551.49074	0.73944
2549.56218	0.73897
2547.63361	0.73887
2545.70505	0.73837
2543.77648	0.73698
2541.84792	0.73560
2539.91935	0.73502
2537.99079	0.73448
2536.06222	0.73355
2534.13366	0.73273
2532.20510	0.73232
2530.27653	0.73206
2528.34797	0.73127
2526.41940	0.73023
2524.49084	0.73004
2522.56227	0.73044
2520.63371	0.73025
2518.70514	0.72920
2516.77658	0.72768
2514.84802	0.72620
2512.91945	0.72550
2510.99089	0.72558
2509.06232	0.72553
2507.13376	0.72478
2505.20519	0.72391
2503.27663	0.72346
2501.34806	0.72288
2499.41950	0.72175
2497.49094	0.72087
2495.56237	0.72059
2493.63381	0.71996
2491.70524	0.71838
2489.77668	0.71654
2487.84811	0.71530
2485.91955	0.71446
2483.99098	0.71352
2482.06242	0.71235
2480.13386	0.71105
2478.20529	0.71008
2476.27673	0.70930
2474.34816	0.70784
2472.41960	0.70630
2470.49103	0.70572
2468.56247	0.70497
2466.63391	0.70238
2464.70534	0.69925
2462.77678	0.69818
2460.84821	0.69881
2458.91965	0.69882
2456.99108	0.69770
2455.06252	0.69633
2453.13395	0.69499
2451.20539	0.69367
2449.27683	0.69289
2447.34826	0.69291
2445.41970	0.69291
2443.49113	0.69232
2441.56257	0.69183
2439.63400	0.69168
2437.70544	0.69125
2435.77687	0.69066
2433.84831	0.69047
2431.91975	0.69039
2429.99118	0.69006
2428.06262	0.68975
2426.13405	0.68985
2424.20549	0.69032
2422.27692	0.69066
2420.34836	0.69056
2418.41979	0.69019
2416.49123	0.68967
2414.56267	0.68902
2412.63410	0.68861
2410.70554	0.68852
2408.77697	0.68790
2406.84841	0.68628
2404.91984	0.68454
2402.99128	0.68343
2401.06271	0.68267
2399.13415	0.68169
2397.20559	0.68030
2395.27702	0.67898
2393.34846	0.67808
2391.41989	0.67681
2389.49133	0.67494
2387.56276	0.67336
2385.63420	0.67213
2383.70563	0.67100
2381.77707	0.67027
2379.84851	0.67022
2377.91994	0.67107
2375.99138	0.67314
2374.06281	0.67619
2372.13425	0.67871
2370.20568	0.67932
2368.27712	0.67976
2366.34855	0.68277
2364.41999	0.68646
2362.49143	0.68873
2360.56286	0.69074
2358.63430	0.69041
2356.70573	0.68690
2354.77717	0.68331
2352.84860	0.67967
2350.92004	0.67523
2348.99147	0.67137
2347.06291	0.66990
2345.13435	0.67244
2343.20578	0.67728
2341.27722	0.67972
2339.34865	0.67935
2337.42009	0.67831
2335.49152	0.67665
2333.56296	0.67451
2331.63440	0.67308
2329.70583	0.67186
2327.77727	0.67036
2325.84870	0.66981
2323.92014	0.66965
2321.99157	0.66776
2320.06301	0.66448
2318.13444	0.66148
2316.20588	0.65927
2314.27732	0.65761
2312.34875	0.65607
2310.42019	0.65468
2308.49162	0.65319
2306.56306	0.65128
2304.63449	0.64972
2302.70593	0.64883
2300.77736	0.64811
2298.84880	0.64773
2296.92024	0.64744
2294.99167	0.64655
2293.06311	0.64557
2291.13454	0.64514
2289.20598	0.64519
2287.27741	0.64551
2285.34885	0.64605
2283.42028	0.64672
2281.49172	0.64692
2279.56316	0.64652
2277.63459	0.64645
2275.70603	0.64705
2273.77746	0.64745
2271.84890	0.64722
2269.92033	0.64669
2267.99177	0.64607
2266.06320	0.64565
2264.13464	0.64582
2262.20608	0.64628
2260.27751	0.64638
2258.34895	0.64600
2256.42038	0.64536
2254.49182	0.64454
2252.56325	0.64375
2250.63469	0.64325
2248.70612	0.64298
2246.77756	0.64285
2244.84900	0.64264
2242.92043	0.64218
2240.99187	0.64186
2239.06330	0.64181
2237.13474	0.64159
2235.20617	0.64104
2233.27761	0.64048
2231.34904	0.64002
2229.42048	0.63941
2227.49192	0.63867
2225.56335	0.63816
2223.63479	0.63802
2221.70622	0.63791
2219.77766	0.63723
2217.84909	0.63622
2215.92053	0.63555
2213.99196	0.63501
2212.06340	0.63429
2210.13484	0.63371
2208.20627	0.63319
2206.27771	0.63208
2204.34914	0.63058
2202.42058	0.62955
2200.49201	0.62920
2198.56345	0.62914
2196.63488	0.62903
2194.70632	0.62857
2192.77776	0.62782
2190.84919	0.62710
2188.92063	0.62660
2186.99206	0.62640
2185.06350	0.62610
2183.13493	0.62545
2181.20637	0.62496
2179.27781	0.62477
2177.34924	0.62448
2175.42068	0.62426
2173.49211	0.62446
2171.56355	0.62503
2169.63498	0.62566
2167.70642	0.62607
2165.77785	0.62620
2163.84929	0.62625
2161.92073	0.62650
2159.99216	0.62709
2158.06360	0.62801
2156.13503	0.62893
2154.20647	0.62961
2152.27790	0.63005
2150.34934	0.63038
2148.42077	0.63089
2146.49221	0.63158
2144.56365	0.63220
2142.63508	0.63252
2140.70652	0.63223
2138.77795	0.63157
2136.84939	0.63119
2134.92082	0.63092
2132.99226	0.63054
2131.06369	0.63041
2129.13513	0.63042
2127.20657	0.63014
2125.27800	0.62941
2123.34944	0.62832
2121.42087	0.62708
2119.49231	0.62585
2117.56374	0.62451
2115.63518	0.62307
2113.70661	0.62170
2111.77805	0.62044
2109.84949	0.61921
2107.92092	0.61811
2105.99236	0.61734
2104.06379	0.61664
2102.13523	0.61574
2100.20666	0.61489
2098.27810	0.61444
2096.34953	0.61431
2094.42097	0.61418
2092.49241	0.61374
2090.56384	0.61302
2088.63528	0.61263
2086.70671	0.61289
2084.77815	0.61313
2082.84958	0.61279
2080.92102	0.61229
2078.99245	0.61222
2077.06389	0.61255
2075.13533	0.61286
2073.20676	0.61290
2071.27820	0.61276
2069.34963	0.61243
2067.42107	0.61199
2065.49250	0.61169
2063.56394	0.61137
2061.63537	0.61074
2059.70681	0.60994
2057.77825	0.60902
2055.84968	0.60796
2053.92112	0.60691
2051.99255	0.60577
2050.06399	0.60444
2048.13542	0.60312
2046.20686	0.60178
2044.27830	0.60022
2042.34973	0.59836
2040.42117	0.59636
2038.49260	0.59444
2036.56404	0.59282
2034.63547	0.59160
2032.70691	0.59055
2030.77834	0.58917
2028.84978	0.58745
2026.92122	0.58591
2024.99265	0.58470
2023.06409	0.58359
2021.13552	0.58243
2019.20696	0.58144
2017.27839	0.58098
2015.34983	0.58061
2013.42126	0.57979
2011.49270	0.57899
2009.56414	0.57871
2007.63557	0.57853
2005.70701	0.57806
2003.77844	0.57746
2001.84988	0.57686
1999.92131	0.57640
1997.99275	0.57590
1996.06418	0.57532
1994.13562	0.57508
1992.20706	0.57511
1990.27849	0.57471
1988.34993	0.57375
1986.42136	0.57239
1984.49280	0.57097
1982.56423	0.57017
1980.63567	0.56993
1978.70710	0.56945
1976.77854	0.56852
1974.84998	0.56758
1972.92141	0.56688
1970.99285	0.56627
1969.06428	0.56565
1967.13572	0.56490
1965.20715	0.56392
1963.27859	0.56287
1961.35002	0.56196
1959.42146	0.56103
1957.49290	0.56002
1955.56433	0.55912
1953.63577	0.55824
1951.70720	0.55721
1949.77864	0.55612
1947.85007	0.55501
1945.92151	0.55401
1943.99294	0.55332
1942.06438	0.55251
1940.13582	0.55109
1938.20725	0.54971
1936.27869	0.54899
1934.35012	0.54869
1932.42156	0.54854
1930.49299	0.54849
1928.56443	0.54833
1926.63586	0.54798
1924.70730	0.54791
1922.77874	0.54812
1920.85017	0.54784
1918.92161	0.54726
1916.99304	0.54672
1915.06448	0.54602
1913.13591	0.54547
1911.20735	0.54520
1909.27878	0.54482
1907.35022	0.54409
1905.42166	0.54314
1903.49309	0.54217
1901.56453	0.54119
1899.63596	0.54041
1897.70740	0.54003
1895.77883	0.53977
1893.85027	0.53914
1891.92171	0.53838
1889.99314	0.53793
1888.06458	0.53730
1886.13601	0.53639
1884.20745	0.53565
1882.27888	0.53519
1880.35032	0.53486
1878.42175	0.53442
1876.49319	0.53379
1874.56463	0.53320
1872.63606	0.53296
1870.70750	0.53331
1868.77893	0.53406
1866.85037	0.53404
1864.92180	0.53323
1862.99324	0.53266
1861.06467	0.53239
1859.13611	0.53200
1857.20755	0.53157
1855.27898	0.53133
1853.35042	0.53103
1851.42185	0.53052
1849.49329	0.53007
1847.56472	0.52967
1845.63616	0.52920
1843.70759	0.52829
1841.77903	0.52659
1839.85047	0.52474
1837.92190	0.52323
1835.99334	0.52188
1834.06477	0.52044
1832.13621	0.51951
1830.20764	0.51910
1828.27908	0.51791
1826.35051	0.51610
1824.42195	0.51460
1822.49339	0.51333
1820.56482	0.51219
1818.63626	0.51139
1816.70769	0.51088
1814.77913	0.51058
1812.85056	0.51044
1810.92200	0.51025
1808.99343	0.50996
1807.06487	0.50977
1805.13631	0.50991
1803.20774	0.51049
1801.27918	0.51153
1799.35061	0.51237
1797.42205	0.51275
1795.49348	0.51330
1793.56492	0.51471
1791.63635	0.51656
1789.70779	0.51689
1787.77923	0.51658
1785.85066	0.51702
1783.92210	0.51836
1781.99353	0.52027
1780.06497	0.52239
1778.13640	0.52405
1776.20784	0.52535
1774.27927	0.52750
1772.35071	0.53096
1770.42215	0.53289
1768.49358	0.53317
1766.56502	0.53369
1764.63645	0.53473
1762.70789	0.53662
1760.77932	0.53909
1758.85076	0.54149
1756.92220	0.54515
1754.99363	0.54940
1753.06507	0.55377
1751.13650	0.56105
1749.20794	0.57122
1747.27937	0.57930
1745.35081	0.58527
1743.42224	0.59078
1741.49368	0.59537
1739.56512	0.59816
1737.63655	0.59904
1735.70799	0.59975
1733.77942	0.60218
1731.85086	0.60352
1729.92229	0.60344
1727.99373	0.60404
1726.06516	0.60601
1724.13660	0.61025
1722.20804	0.61577
1720.27947	0.62170
1718.35091	0.63143
1716.42234	0.64626
1714.49378	0.65722
1712.56521	0.66564
1710.63665	0.67541
1708.70808	0.68748
1706.77952	0.70536
1704.85096	0.72865
1702.92239	0.74995
1700.99383	0.78051
1699.06526	0.82741
1697.13670	0.86877
1695.20813	0.90681
1693.27957	0.93415
1691.35100	0.95525
1689.42244	0.97971
1687.49388	1.00166
1685.56531	1.02467
1683.63675	1.06150
1681.70818	1.08666
1679.77962	1.09932
1677.85105	1.11167
1675.92249	1.12765
1673.99392	1.14361
1672.06536	1.15468
1670.13680	1.16785
1668.20823	1.18086
1666.27967	1.18595
1664.35110	1.19180
1662.42254	1.20246
1660.49397	1.20970
1658.56541	1.21157
1656.63684	1.21179
1654.70828	1.21267
1652.77972	1.21250
1650.85115	1.20935
1648.92259	1.20759
1646.99402	1.20736
1645.06546	1.20448
1643.13689	1.19956
1641.20833	1.19559
1639.27976	1.19191
1637.35120	1.18776
1635.42264	1.18450
1633.49407	1.18159
1631.56551	1.17788
1629.63694	1.17361
1627.70838	1.16864
1625.77981	1.16176
1623.85125	1.15110
1621.92269	1.13826
1619.99412	1.12802
1618.06556	1.11658
1616.13699	1.09867
1614.20843	1.08298
1612.27986	1.07116
1610.35130	1.05939
1608.42273	1.04790
1606.49417	1.03897
1604.56561	1.03296
1602.63704	1.02849
1600.70848	1.02519
1598.77991	1.02330
1596.85135	1.02251
1594.92278	1.02214
1592.99422	1.02196
1591.06565	1.02217
1589.13709	1.02337
1587.20853	1.02649
1585.27996	1.03197
1583.35140	1.03909
1581.42283	1.04561
1579.49427	1.05128
1577.56570	1.05987
1575.63714	1.07123
1573.70857	1.07645
1571.78001	1.07952
1569.85145	1.08724
1567.92288	1.09651
1565.99432	1.10255
1564.06575	1.10819
1562.13719	1.11354
1560.20862	1.12106
1558.28006	1.13347
1556.35149	1.13709
1554.42293	1.13802
1552.49437	1.13930
1550.56580	1.14041
1548.63724	1.13969
1546.70867	1.13742
1544.78011	1.13595
1542.85154	1.13526
1540.92298	1.13005
1538.99441	1.12073
1537.06585	1.11591
1535.13729	1.11250
1533.20872	1.10886
1531.28016	1.10500
1529.35159	1.10123
1527.42303	1.09739
1525.49446	1.09368
1523.56590	1.09175
1521.63733	1.09169
1519.70877	1.09084
1517.78021	1.08668
1515.85164	1.07867
1513.92308	1.06917
1511.99451	1.05997
1510.06595	1.05227
1508.13738	1.04177
1506.20882	1.01814
1504.28025	1.00159
1502.35169	0.99125
1500.42313	0.98094
1498.49456	0.96826
1496.56600	0.95190
1494.63743	0.93763
1492.70887	0.92758
1490.78030	0.91750
1488.85174	0.90452
1486.92317	0.89268
1484.99461	0.88443
1483.06605	0.87915
1481.13748	0.87632
1479.20892	0.87574
1477.28035	0.87765
1475.35179	0.88292
1473.42322	0.89337
1471.49466	0.90469
1469.56610	0.91049
1467.63753	0.91435
1465.70897	0.91920
1463.78040	0.92338
1461.85184	0.92488
1459.92327	0.92651
1457.99471	0.93164
1456.06614	0.93500
1454.13758	0.93277
1452.20902	0.93019
1450.28045	0.92840
1448.35189	0.92658
1446.42332	0.92364
1444.49476	0.92066
1442.56619	0.91782
1440.63763	0.91404
1438.70906	0.90925
1436.78050	0.90338
1434.85194	0.89708
1432.92337	0.89169
1430.99481	0.88689
1429.06624	0.88262
1427.13768	0.87988
1425.20911	0.87954
1423.28055	0.88138
1421.35198	0.88410
1419.42342	0.88870
1417.49486	0.89403
1415.56629	0.89620
1413.63773	0.89726
1411.70916	0.89905
1409.78060	0.90131
1407.85203	0.90360
1405.92347	0.90616
1403.99490	0.90835
1402.06634	0.90900
1400.13778	0.90875
1398.20921	0.90877
1396.28065	0.90910
1394.35208	0.90870
1392.42352	0.90786
1390.49495	0.90764
1388.56639	0.90908
1386.63782	0.91243
1384.70926	0.91573
1382.78070	0.91816
1380.85213	0.91976
1378.92357	0.91994
1376.99500	0.91772
1375.06644	0.91144
1373.13787	0.90107
1371.20931	0.88975
1369.28074	0.87768
1367.35218	0.86496
1365.42362	0.85370
1363.49505	0.84343
1361.56649	0.83385
1359.63792	0.82669
1357.70936	0.82228
1355.78079	0.81969
1353.85223	0.81773
1351.92366	0.81644
1349.99510	0.81629
1348.06654	0.81669
1346.13797	0.81726
1344.20941	0.81856
1342.28084	0.82105
1340.35228	0.82450
1338.42371	0.82757
1336.49515	0.83032
1334.56659	0.83462
1332.63802	0.84060
1330.70946	0.84697
1328.78089	0.85230
1326.85233	0.85575
1324.92376	0.85799
1322.99520	0.86022
1321.06663	0.86289
1319.13807	0.86607
1317.20951	0.86905
1315.28094	0.87104
1313.35238	0.87250
1311.42381	0.87399
1309.49525	0.87521
1307.56668	0.87555
1305.63812	0.87501
1303.70955	0.87397
1301.78099	0.87233
1299.85243	0.87021
1297.92386	0.86808
1295.99530	0.86609
1294.06673	0.86450
1292.13817	0.86374
1290.20960	0.86386
1288.28104	0.86449
1286.35247	0.86505
1284.42391	0.86503
1282.49535	0.86474
1280.56678	0.86492
1278.63822	0.86558
1276.70965	0.86653
1274.78109	0.86821
1272.85252	0.87069
1270.92396	0.87383
1268.99539	0.87764
1267.06683	0.88167
1265.13827	0.88521
1263.20970	0.88811
1261.28114	0.89052
1259.35257	0.89246
1257.42401	0.89419
1255.49544	0.89620
1253.56688	0.89827
1251.63831	0.89991
1249.70975	0.90150
1247.78119	0.90360
1245.85262	0.90596
1243.92406	0.90789
1241.99549	0.90892
1240.06693	0.90891
1238.13836	0.90815
1236.20980	0.90695
1234.28123	0.90477
1232.35267	0.90108
1230.42411	0.89654
1228.49554	0.89193
1226.56698	0.88696
1224.63841	0.88140
1222.70985	0.87582
1220.78128	0.87022
1218.85272	0.86420
1216.92415	0.85838
1214.99559	0.85390
1213.06703	0.85106
1211.13846	0.84939
1209.20990	0.84815
1207.28133	0.84632
1205.35277	0.84290
1203.42420	0.83769
1201.49564	0.83169
1199.56708	0.82555
1197.63851	0.81890
1195.70995	0.81196
1193.78138	0.80574
1191.85282	0.80082
1189.92425	0.79733
1187.99569	0.79546
1186.06712	0.79457
1184.13856	0.79370
1182.21000	0.79381
1180.28143	0.79625
1178.35287	0.80049
1176.42430	0.80577
1174.49574	0.81176
1172.56717	0.81782
1170.63861	0.82384
1168.71004	0.83014
1166.78148	0.83715
1164.85292	0.84530
1162.92435	0.85338
1160.99579	0.85913
1159.06722	0.86150
1157.13866	0.86000
1155.21009	0.85444
1153.28153	0.84622
1151.35296	0.83701
1149.42440	0.82733
1147.49584	0.81785
1145.56727	0.80966
1143.63871	0.80329
1141.71014	0.79929
1139.78158	0.79850
1137.85301	0.80051
1135.92445	0.80397
1133.99588	0.80843
1132.06732	0.81454
1130.13876	0.82312
1128.21019	0.83383
1126.28163	0.84495
1124.35306	0.85484
1122.42450	0.86295
1120.49593	0.86970
1118.56737	0.87579
1116.63880	0.88069
1114.71024	0.88284
1112.78168	0.88207
1110.85311	0.88029
1108.92455	0.87835
1106.99598	0.87549
1105.06742	0.87221
1103.13885	0.87011
1101.21029	0.86982
1099.28172	0.87106
1097.35316	0.87362
1095.42460	0.87761
1093.49603	0.88321
1091.56747	0.89042
1089.63890	0.89859
1087.71034	0.90691
1085.78177	0.91542
1083.85321	0.92393
1081.92464	0.93157
1079.99608	0.93716
1078.06752	0.93924
1076.13895	0.93737
1074.21039	0.93194
1072.28182	0.92330
1070.35326	0.91303
1068.42469	0.90280
1066.49613	0.89293
1064.56756	0.88377
1062.63900	0.87611
1060.71044	0.86946
1058.78187	0.86228
1056.85331	0.85493
1054.92474	0.84933
1052.99618	0.84577
1051.06761	0.84354
1049.13905	0.84244
1047.21049	0.84221
1045.28192	0.84269
1043.35336	0.84467
1041.42479	0.84804
1039.49623	0.85108
1037.56766	0.85330
1035.63910	0.85499
1033.71053	0.85518
1031.78197	0.85369
1029.85341	0.85111
1027.92484	0.84701
1025.99628	0.84112
1024.06771	0.83423
1022.13915	0.82764
1020.21058	0.82237
1018.28202	0.81820
1016.35345	0.81372
1014.42489	0.80754
1012.49633	0.79954
1010.56776	0.79034
1008.63920	0.78044
1006.71063	0.77083
1004.78207	0.76253
1002.85350	0.75590
1000.92494	0.75072
998.99637	0.74646
997.06781	0.74280
995.13925	0.73968
993.21068	0.73654
991.28212	0.73224
989.35355	0.72602
987.42499	0.71843
985.49642	0.71091
983.56786	0.70415
981.63929	0.69825
979.71073	0.69397
977.78217	0.69153
975.85360	0.68948
973.92504	0.68631
971.99647	0.68192
970.06791	0.67716
968.13934	0.67279
966.21078	0.66935
964.28221	0.66743
962.35365	0.66771
960.42509	0.67081
958.49652	0.67645
956.56796	0.68259
954.63939	0.68678
952.71083	0.68807
950.78226	0.68652
948.85370	0.68301
946.92513	0.67950
944.99657	0.67754
943.06801	0.67712
941.13944	0.67731
939.21088	0.67749
937.28231	0.67759
935.35375	0.67741
933.42518	0.67689
931.49662	0.67645
929.56805	0.67649
927.63949	0.67711
925.71093	0.67810
923.78236	0.67915
921.85380	0.67968
919.92523	0.67923
917.99667	0.67792
916.06810	0.67625
914.13954	0.67467
912.21098	0.67319
910.28241	0.67185
908.35385	0.67108
906.42528	0.67082
904.49672	0.67070
902.56815	0.67066
900.63959	0.67080
898.71102	0.67103
896.78246	0.67100
894.85390	0.67039
892.92533	0.66935
890.99677	0.66846
889.06820	0.66789
887.13964	0.66752
885.21107	0.66760
883.28251	0.66823
881.35394	0.66915
879.42538	0.67012
877.49682	0.67147
875.56825	0.67364
873.63969	0.67621
871.71112	0.67844
869.78256	0.68046
867.85399	0.68256
865.92543	0.68466
863.99686	0.68681
862.06830	0.68891
860.13974	0.69035
858.21117	0.69118
856.28261	0.69249
854.35404	0.69462
852.42548	0.69629
850.49691	0.69676
848.56835	0.69687
846.63978	0.69731
844.71122	0.69788
842.78266	0.69823
840.85409	0.69848
838.92553	0.69839
836.99696	0.69730
835.06840	0.69605
833.13983	0.69626
831.21127	0.69736
829.28270	0.69782
827.35414	0.69780
825.42558	0.69814
823.49701	0.69887
821.56845	0.69962
819.63988	0.70044
817.71132	0.70170
815.78275	0.70350
813.85419	0.70560
811.92562	0.70756
809.99706	0.70900
808.06850	0.71015
806.13993	0.71163
804.21137	0.71325
802.28280	0.71427
800.35424	0.71512
798.42567	0.71650
796.49711	0.71812
794.56854	0.71973
792.63998	0.72086
790.71142	0.72101
788.78285	0.72099
786.85429	0.72151
784.92572	0.72208
782.99716	0.72223
781.06859	0.72229
779.14003	0.72247
777.21147	0.72208
775.28290	0.72101
773.35434	0.72023
771.42577	0.72000
769.49721	0.71935
767.56864	0.71773
765.64008	0.71618
763.71151	0.71575
761.78295	0.71643
759.85439	0.71763
757.92582	0.71837
755.99726	0.71860
754.06869	0.71960
752.14013	0.72187
750.21156	0.72445
748.28300	0.72646
746.35443	0.72834
744.42587	0.73064
742.49731	0.73309
740.56874	0.73561
738.64018	0.73815
736.71161	0.74052
734.78305	0.74324
732.85448	0.74703
730.92592	0.75180
728.99735	0.75703
727.06879	0.76195
725.14023	0.76599
723.21166	0.77032
721.28310	0.77611
719.35453	0.78121
717.42597	0.78358
715.49740	0.78483
713.56884	0.78644
711.64027	0.78828
709.71171	0.78983
707.78315	0.79024
705.85458	0.78913
703.92602	0.78791
701.99745	0.78739
700.06889	0.78594
698.14032	0.78294
696.21176	0.77876
694.28319	0.77304
692.35463	0.76724
690.42607	0.76250
688.49750	0.75736
686.56894	0.75174
684.64037	0.74753
682.71181	0.74495
680.78324	0.74241
678.85468	0.73898
676.92611	0.73577
674.99755	0.73430
673.06899	0.73423
671.14042	0.73427
669.21186	0.73460
667.28329	0.73674
665.35473	0.73975
663.42616	0.74286
661.49760	0.74515
659.56903	0.74609
657.64047	0.74810
655.71191	0.75247
653.78334	0.75758
651.85478	0.76158
649.92621	0.76373
647.99765	0.76463
646.06908	0.76603
644.14052	0.76898
642.21195	0.77222
640.28339	0.77481
638.35483	0.77751
636.42626	0.77973
634.49770	0.78108
632.56913	0.78226
630.64057	0.78196
628.71200	0.77993
626.78344	0.77860
624.85488	0.77779
622.92631	0.77540
620.99775	0.77257
619.06918	0.77036
617.14062	0.76730
615.21205	0.76292
613.28349	0.75709
611.35492	0.74992
609.42636	0.74332
607.49780	0.73822
605.56923	0.73367
603.64067	0.72893
601.71210	0.72425
599.78354	0.71990
