3997.91406	0.27070
3995.98550	0.27099
3994.05693	0.27137
3992.12837	0.27179
3990.19980	0.27192
3988.27124	0.27133
3986.34268	0.27079
3984.41411	0.27076
3982.48555	0.27059
3980.55698	0.27007
3978.62842	0.26902
3976.69985	0.26739
3974.77129	0.26634
3972.84272	0.26650
3970.91416	0.26750
3968.98560	0.26858
3967.05703	0.26853
3965.12847	0.26724
3963.19990	0.26571
3961.27134	0.26498
3959.34277	0.26511
3957.41421	0.26513
3955.48564	0.26472
3953.55708	0.26431
3951.62852	0.26387
3949.69995	0.26361
3947.77139	0.26373
3945.84282	0.26306
3943.91426	0.26210
3941.98569	0.26260
3940.05713	0.26372
3938.12856	0.26398
3936.20000	0.26324
3934.27144	0.26221
3932.34287	0.26219
3930.41431	0.26319
3928.48574	0.26312
3926.55718	0.26225
3924.62861	0.26293
3922.70005	0.26390
3920.77148	0.26316
3918.84292	0.26301
3916.91436	0.26468
3914.98579	0.26487
3913.05723	0.26308
3911.12866	0.26119
3909.20010	0.25856
3907.27153	0.25495
3905.34297	0.25326
3903.41440	0.25514
3901.48584	0.25807
3899.55728	0.26085
3897.62871	0.26152
3895.70015	0.25877
3893.77158	0.25509
3891.84302	0.25526
3889.91445	0.25745
3887.98589	0.25703
3886.05733	0.25700
3884.12876	0.25785
3882.20020	0.25736
3880.27163	0.25905
3878.34307	0.25970
3876.41450	0.25653
3874.48594	0.25351
3872.55737	0.25235
3870.62881	0.25376
3868.70025	0.25646
3866.77168	0.25541
3864.84312	0.25407
3862.91455	0.25649
3860.98599	0.25767
3859.05742	0.25455
3857.12886	0.24695
3855.20029	0.23691
3853.27173	0.24051
3851.34317	0.25326
3849.41460	0.25612
3847.48604	0.25379
3845.55747	0.25022
3843.62891	0.24737
3841.70034	0.24519
3839.77178	0.24359
3837.84321	0.24517
3835.91465	0.24804
3833.98609	0.24908
3832.05752	0.24956
3830.12896	0.25000
3828.20039	0.25018
3826.27183	0.25033
3824.34326	0.24801
3822.41470	0.24432
3820.48613	0.24484
3818.55757	0.24510
3816.62901	0.24571
3814.70044	0.24974
3812.77188	0.25110
3810.84331	0.24834
3808.91475	0.24432
3806.98618	0.24317
3805.05762	0.24169
3803.12905	0.23812
3801.20049	0.24034
3799.27193	0.24450
3797.34336	0.24672
3795.41480	0.24944
3793.48623	0.25000
3791.55767	0.24872
3789.62910	0.24759
3787.70054	0.24680
3785.77197	0.24643
3783.84341	0.24583
3781.91485	0.24448
3779.98628	0.24481
3778.05772	0.24677
3776.12915	0.24704
3774.20059	0.24571
3772.27202	0.24386
3770.34346	0.24272
3768.41489	0.24223
3766.48633	0.24212
3764.55777	0.24317
3762.62920	0.24263
3760.70064	0.24040
3758.77207	0.24050
3756.84351	0.24144
3754.91494	0.23875
3752.98638	0.23275
3751.05781	0.22997
3749.12925	0.23218
3747.20069	0.23140
3745.27212	0.23318
3743.34356	0.24019
3741.41499	0.24188
3739.48643	0.23736
3737.55786	0.23053
3735.62930	0.22918
3733.70074	0.23711
3731.77217	0.24306
3729.84361	0.24346
3727.91504	0.24113
3725.98648	0.23921
3724.05791	0.23955
3722.12935	0.24108
3720.20078	0.24291
3718.27222	0.24403
3716.34366	0.24223
3714.41509	0.23719
3712.48653	0.23435
3710.55796	0.24065
3708.62940	0.24570
3706.70083	0.24447
3704.77227	0.24131
3702.84370	0.24074
3700.91514	0.24353
3698.98658	0.24524
3697.05801	0.24495
3695.12945	0.24343
3693.20088	0.24031
3691.27232	0.23698
3689.34375	0.24045
3687.41519	0.24782
3685.48662	0.25022
3683.55806	0.24974
3681.62950	0.24880
3679.70093	0.24673
3677.77237	0.24273
3675.84380	0.24333
3673.91524	0.24841
3671.98667	0.25025
3670.05811	0.25696
3668.12954	0.26453
3666.20098	0.26486
3664.27242	0.26383
3662.34385	0.26485
3660.41529	0.26609
3658.48672	0.26598
3656.55816	0.26722
3654.62959	0.26822
3652.70103	0.26439
3650.77246	0.25931
3648.84390	0.26750
3646.91534	0.28117
3644.98677	0.28699
3643.05821	0.29005
3641.12964	0.29309
3639.20108	0.29516
3637.27251	0.29629
3635.34395	0.29832
3633.41538	0.30003
3631.48682	0.29909
3629.55826	0.30223
3627.62969	0.31266
3625.70113	0.31657
3623.77256	0.31585
3621.84400	0.31525
3619.91543	0.31847
3617.98687	0.32463
3616.05830	0.32805
3614.12974	0.33019
3612.20118	0.33191
3610.27261	0.33313
3608.34405	0.33781
3606.41548	0.34368
3604.48692	0.34584
3602.55835	0.34772
3600.62979	0.35217
3598.70123	0.35590
3596.77266	0.35761
3594.84410	0.36045
3592.91553	0.36345
3590.98697	0.36335
3589.05840	0.36374
3587.12984	0.37123
3585.20127	0.37901
3583.27271	0.38129
3581.34415	0.38199
3579.41558	0.38432
3577.48702	0.38856
3575.55845	0.39293
3573.62989	0.39544
3571.70132	0.39554
3569.77276	0.39449
3567.84419	0.39772
3565.91563	0.40789
3563.98707	0.41509
3562.05850	0.41790
3560.12994	0.41988
3558.20137	0.42292
3556.27281	0.42655
3554.34424	0.42957
3552.41568	0.43176
3550.48711	0.43276
3548.55855	0.43384
3546.62999	0.43778
3544.70142	0.44315
3542.77286	0.44638
3540.84429	0.44868
3538.91573	0.45209
3536.98716	0.45620
3535.05860	0.45915
3533.13003	0.46078
3531.20147	0.46274
3529.27291	0.46582
3527.34434	0.46928
3525.41578	0.47233
3523.48721	0.47594
3521.55865	0.48087
3519.63008	0.48582
3517.70152	0.49010
3515.77295	0.49376
3513.84439	0.49673
3511.91583	0.50014
3509.98726	0.50520
3508.05870	0.51018
3506.13013	0.51425
3504.20157	0.51977
3502.27300	0.52609
3500.34444	0.53062
3498.41587	0.53433
3496.48731	0.53808
3494.55875	0.54121
3492.63018	0.54386
3490.70162	0.54708
3488.77305	0.55083
3486.84449	0.55343
3484.91592	0.55465
3482.98736	0.55665
3481.05879	0.55971
3479.13023	0.56175
3477.20167	0.56252
3475.27310	0.56356
3473.34454	0.56621
3471.41597	0.56951
3469.48741	0.57234
3467.55884	0.57469
3465.63028	0.57583
3463.70171	0.57640
3461.77315	0.57760
3459.84459	0.57920
3457.91602	0.58132
3455.98746	0.58390
3454.05889	0.58653
3452.13033	0.58901
3450.20176	0.59100
3448.27320	0.59249
3446.34464	0.59336
3444.41607	0.59387
3442.48751	0.59533
3440.55894	0.59679
3438.63038	0.59672
3436.70181	0.59659
3434.77325	0.59788
3432.84468	0.60045
3430.91612	0.60285
3428.98756	0.60364
3427.05899	0.60364
3425.13043	0.60324
3423.20186	0.60194
3421.27330	0.60109
3419.34473	0.60201
3417.41617	0.60435
3415.48760	0.60629
3413.55904	0.60564
3411.63048	0.60394
3409.70191	0.60411
3407.77335	0.60524
3405.84478	0.60586
3403.91622	0.60634
3401.98765	0.60671
3400.05909	0.60689
3398.13052	0.60771
3396.20196	0.60937
3394.27340	0.61038
3392.34483	0.61067
3390.41627	0.61184
3388.48770	0.61308
3386.55914	0.61319
3384.63057	0.61412
3382.70201	0.61686
3380.77344	0.61927
3378.84488	0.62014
3376.91632	0.62039
3374.98775	0.62080
3373.05919	0.62099
3371.13062	0.62059
3369.20206	0.62040
3367.27349	0.62162
3365.34493	0.62382
3363.41636	0.62512
3361.48780	0.62530
3359.55924	0.62644
3357.63067	0.62939
3355.70211	0.63227
3353.77354	0.63344
3351.84498	0.63357
3349.91641	0.63427
3347.98785	0.63590
3346.05928	0.63733
3344.13072	0.63844
3342.20216	0.63998
3340.27359	0.64168
3338.34503	0.64311
3336.41646	0.64416
3334.48790	0.64445
3332.55933	0.64486
3330.63077	0.64692
3328.70220	0.64989
3326.77364	0.65213
3324.84508	0.65401
3322.91651	0.65609
3320.98795	0.65854
3319.05938	0.66175
3317.13082	0.66440
3315.20225	0.66584
3313.27369	0.66785
3311.34513	0.67002
3309.41656	0.67111
3307.48800	0.67276
3305.55943	0.67566
3303.63087	0.67816
3301.70230	0.67947
3299.77374	0.68022
3297.84517	0.68102
3295.91661	0.68212
3293.98805	0.68327
3292.05948	0.68468
3290.13092	0.68700
3288.20235	0.68843
3286.27379	0.68779
3284.34522	0.68719
3282.41666	0.68717
3280.48809	0.68685
3278.55953	0.68716
3276.63097	0.68824
3274.70240	0.68798
3272.77384	0.68568
3270.84527	0.68314
3268.91671	0.68234
3266.98814	0.68326
3265.05958	0.68380
3263.13101	0.68277
3261.20245	0.68071
3259.27389	0.67804
3257.34532	0.67460
3255.41676	0.67154
3253.48819	0.67010
3251.55963	0.66828
3249.63106	0.66397
3247.70250	0.65901
3245.77393	0.65679
3243.84537	0.65671
3241.91681	0.65458
3239.98824	0.64981
3238.05968	0.64572
3236.13111	0.64347
3234.20255	0.64077
3232.27398	0.63687
3230.34542	0.63418
3228.41685	0.63327
3226.48829	0.63236
3224.55973	0.63057
3222.63116	0.62772
3220.70260	0.62484
3218.77403	0.62305
3216.84547	0.62158
3214.91690	0.61984
3212.98834	0.61829
3211.05977	0.61675
3209.13121	0.61451
3207.20265	0.61149
3205.27408	0.60862
3203.34552	0.60643
3201.41695	0.60393
3199.48839	0.60117
3197.55982	0.59999
3195.63126	0.59989
3193.70269	0.59850
3191.77413	0.59605
3189.84557	0.59364
3187.91700	0.59106
3185.98844	0.58871
3184.05987	0.58709
3182.13131	0.58562
3180.20274	0.58378
3178.27418	0.58124
3176.34562	0.57817
3174.41705	0.57555
3172.48849	0.57318
3170.55992	0.57052
3168.63136	0.56829
3166.70279	0.56649
3164.77423	0.56455
3162.84566	0.56297
3160.91710	0.56205
3158.98854	0.56077
3157.05997	0.55807
3155.13141	0.55473
3153.20284	0.55183
3151.27428	0.54948
3149.34571	0.54823
3147.41715	0.54807
3145.48858	0.54758
3143.56002	0.54654
3141.63146	0.54590
3139.70289	0.54588
3137.77433	0.54642
3135.84576	0.54699
3133.91720	0.54651
3131.98863	0.54524
3130.06007	0.54452
3128.13150	0.54514
3126.20294	0.54658
3124.27438	0.54748
3122.34581	0.54737
3120.41725	0.54695
3118.48868	0.54642
3116.56012	0.54587
3114.63155	0.54640
3112.70299	0.54784
3110.77442	0.54857
3108.84586	0.54879
3106.91730	0.54937
3104.98873	0.54944
3103.06017	0.54860
3101.13160	0.54819
3099.20304	0.54858
3097.27447	0.54883
3095.34591	0.54860
3093.41734	0.54771
3091.48878	0.54650
3089.56022	0.54562
3087.63165	0.54510
3085.70309	0.54478
3083.77452	0.54401
3081.84596	0.54251
3079.91739	0.54109
3077.98883	0.54003
3076.06026	0.53915
3074.13170	0.53905
3072.20314	0.53921
3070.27457	0.53768
3068.34601	0.53452
3066.41744	0.53190
3064.48888	0.53027
3062.56031	0.52856
3060.63175	0.52725
3058.70318	0.52657
3056.77462	0.52461
3054.84606	0.52107
3052.91749	0.51803
3050.98893	0.51655
3049.06036	0.51564
3047.13180	0.51409
3045.20323	0.51229
3043.27467	0.51095
3041.34610	0.50947
3039.41754	0.50764
3037.48898	0.50636
3035.56041	0.50551
3033.63185	0.50442
3031.70328	0.50348
3029.77472	0.50268
3027.84615	0.50138
3025.91759	0.49978
3023.98903	0.49860
3022.06046	0.49775
3020.13190	0.49641
3018.20333	0.49452
3016.27477	0.49257
3014.34620	0.49076
3012.41764	0.48952
3010.48907	0.48918
3008.56051	0.48878
3006.63195	0.48750
3004.70338	0.48634
3002.77482	0.48625
3000.84625	0.48689
2998.91769	0.48784
2996.98912	0.48879
2995.06056	0.48978
2993.13199	0.49155
2991.20343	0.49432
2989.27487	0.49778
2987.34630	0.50155
2985.41774	0.50480
2983.48917	0.50712
2981.56061	0.51011
2979.63204	0.51491
2977.70348	0.51984
2975.77491	0.52369
2973.84635	0.52765
2971.91779	0.53262
2969.98922	0.53809
2968.06066	0.54298
2966.13209	0.54654
2964.20353	0.54910
2962.27496	0.55068
2960.34640	0.55072
2958.41783	0.54989
2956.48927	0.54856
2954.56071	0.54588
2952.63214	0.54244
2950.70358	0.53935
2948.77501	0.53718
2946.84645	0.53690
2944.91788	0.53902
2942.98932	0.54294
2941.06075	0.54759
2939.13219	0.55288
2937.20363	0.55935
2935.27506	0.56582
2933.34650	0.57115
2931.41793	0.57624
2929.48937	0.58221
2927.56080	0.58876
2925.63224	0.59506
2923.70367	0.60119
2921.77511	0.60677
2919.84655	0.61023
2917.91798	0.60999
2915.98942	0.60444
2914.06085	0.59350
2912.13229	0.58041
2910.20372	0.56871
2908.27516	0.55964
2906.34659	0.55315
2904.41803	0.54843
2902.48947	0.54430
2900.56090	0.54086
2898.63234	0.53896
2896.70377	0.53804
2894.77521	0.53653
2892.84664	0.53403
2890.91808	0.53126
2888.98952	0.52864
2887.06095	0.52615
2885.13239	0.52374
2883.20382	0.52181
2881.27526	0.52117
2879.34669	0.52170
2877.41813	0.52216
2875.48956	0.52137
2873.56100	0.51925
2871.63244	0.51649
2869.70387	0.51334
2867.77531	0.51030
2865.84674	0.50821
2863.91818	0.50711
2861.98961	0.50716
2860.06105	0.50897
2858.13248	0.51263
2856.20392	0.51811
2854.27536	0.52569
2852.34679	0.53446
2850.41823	0.54007
2848.48966	0.53597
2846.56110	0.52155
2844.63253	0.50396
2842.70397	0.48925
2840.77540	0.47860
2838.84684	0.47129
2836.91828	0.46624
2834.98971	0.46224
2833.06115	0.45853
2831.13258	0.45541
2829.20402	0.45311
2827.27545	0.45102
2825.34689	0.44889
2823.41832	0.44726
2821.48976	0.44645
2819.56120	0.44556
2817.63263	0.44379
2815.70407	0.44178
2813.77550	0.44035
2811.84694	0.43927
2809.91837	0.43821
2807.98981	0.43721
2806.06124	0.43596
2804.13268	0.43423
2802.20412	0.43263
2800.27555	0.43159
2798.34699	0.43074
2796.41842	0.42968
2794.48986	0.42842
2792.56129	0.42701
2790.63273	0.42581
2788.70416	0.42519
2786.77560	0.42449
2784.84704	0.42303
2782.91847	0.42129
2780.98991	0.42031
2779.06134	0.42030
2777.13278	0.42027
2775.20421	0.41958
2773.27565	0.41875
2771.34708	0.41838
2769.41852	0.41808
2767.48996	0.41706
2765.56139	0.41545
2763.63283	0.41418
2761.70426	0.41362
2759.77570	0.41327
2757.84713	0.41278
2755.91857	0.41228
2753.99001	0.41182
2752.06144	0.41120
2750.13288	0.41053
2748.20431	0.41021
2746.27575	0.41009
2744.34718	0.40968
2742.41862	0.40899
2740.49005	0.40819
2738.56149	0.40716
2736.63293	0.40609
2734.70436	0.40543
2732.77580	0.40495
2730.84723	0.40420
2728.91867	0.40325
2726.99010	0.40230
2725.06154	0.40154
2723.13297	0.40114
2721.20441	0.40108
2719.27585	0.40103
2717.34728	0.40056
2715.41872	0.39981
2713.49015	0.39918
2711.56159	0.39890
2709.63302	0.39896
2707.70446	0.39896
2705.77589	0.39836
2703.84733	0.39706
2701.91877	0.39562
2699.99020	0.39475
2698.06164	0.39447
2696.13307	0.39427
2694.20451	0.39395
2692.27594	0.39358
2690.34738	0.39309
2688.41881	0.39252
2686.49025	0.39211
2684.56169	0.39182
2682.63312	0.39120
2680.70456	0.39033
2678.77599	0.38994
2676.84743	0.39012
2674.91886	0.39019
2672.99030	0.38993
2671.06173	0.38963
2669.13317	0.38936
2667.20461	0.38886
2665.27604	0.38810
2663.34748	0.38751
2661.41891	0.38736
2659.49035	0.38743
2657.56178	0.38742
2655.63322	0.38721
2653.70465	0.38663
2651.77609	0.38574
2649.84753	0.38493
2647.91896	0.38423
2645.99040	0.38364
2644.06183	0.38334
2642.13327	0.38309
2640.20470	0.38248
2638.27614	0.38187
2636.34757	0.38178
2634.41901	0.38187
2632.49045	0.38178
2630.56188	0.38174
2628.63332	0.38172
2626.70475	0.38151
2624.77619	0.38151
2622.84762	0.38188
2620.91906	0.38206
2618.99049	0.38195
2617.06193	0.38173
2615.13337	0.38159
2613.20480	0.38168
2611.27624	0.38152
2609.34767	0.38078
2607.41911	0.37981
2605.49054	0.37885
2603.56198	0.37809
2601.63342	0.37772
2599.70485	0.37725
2597.77629	0.37620
2595.84772	0.37530
2593.91916	0.37489
2591.99059	0.37444
2590.06203	0.37398
2588.13346	0.37384
2586.20490	0.37370
2584.27634	0.37353
2582.34777	0.37361
2580.41921	0.37365
2578.49064	0.37319
2576.56208	0.37229
2574.63351	0.37142
2572.70495	0.37080
2570.77638	0.37028
2568.84782	0.36978
2566.91926	0.36939
2564.99069	0.36914
2563.06213	0.36869
2561.13356	0.36772
2559.20500	0.36644
2557.27643	0.36529
2555.34787	0.36463
2553.41930	0.36454
2551.49074	0.36454
2549.56218	0.36408
2547.63361	0.36329
2545.70505	0.36286
2543.77648	0.36300
2541.84792	0.36331
2539.91935	0.36339
2537.99079	0.36328
2536.06222	0.36333
2534.13366	0.36353
2532.20510	0.36346
2530.27653	0.36292
2528.34797	0.36226
2526.41940	0.36163
2524.49084	0.36084
2522.56227	0.36015
2520.63371	0.35995
2518.70514	0.35999
2516.77658	0.35981
2514.84802	0.35948
2512.91945	0.35935
2510.99089	0.35937
2509.06232	0.35931
2507.13376	0.35914
2505.20519	0.35905
2503.27663	0.35904
2501.34806	0.35891
2499.41950	0.35859
2497.49094	0.35826
2495.56237	0.35809
2493.63381	0.35785
2491.70524	0.35717
2489.77668	0.35627
2487.84811	0.35552
2485.91955	0.35497
2483.99098	0.35451
2482.06242	0.35394
2480.13386	0.35323
2478.20529	0.35256
2476.27673	0.35204
2474.34816	0.35157
2472.41960	0.35110
2470.49103	0.35077
2468.56247	0.35048
2466.63391	0.34999
2464.70534	0.34955
2462.77678	0.34968
2460.84821	0.35009
2458.91965	0.34996
2456.99108	0.34941
2455.06252	0.34920
2453.13395	0.34923
2451.20539	0.34891
2449.27683	0.34828
2447.34826	0.34771
2445.41970	0.34744
2443.49113	0.34732
2441.56257	0.34690
2439.63400	0.34616
2437.70544	0.34548
2435.77687	0.34506
2433.84831	0.34471
2431.91975	0.34410
2429.99118	0.34329
2428.06262	0.34287
2426.13405	0.34300
2424.20549	0.34313
2422.27692	0.34292
2420.34836	0.34259
2418.41979	0.34225
2416.49123	0.34185
2414.56267	0.34142
2412.63410	0.34085
2410.70554	0.34026
2408.77697	0.33986
2406.84841	0.33935
2404.91984	0.33856
2402.99128	0.33793
2401.06271	0.33768
2399.13415	0.33755
2397.20559	0.33743
2395.27702	0.33741
2393.34846	0.33744
2391.41989	0.33750
2389.49133	0.33756
2387.56276	0.33757
2385.63420	0.33784
2383.70563	0.33870
2381.77707	0.34015
2379.84851	0.34203
2377.91994	0.34400
2375.99138	0.34615
2374.06281	0.34925
2372.13425	0.35304
2370.20568	0.35592
2368.27712	0.35816
2366.34855	0.36150
2364.41999	0.36537
2362.49143	0.36839
2360.56286	0.36993
2358.63430	0.36898
2356.70573	0.36578
2354.77717	0.36213
2352.84860	0.35781
2350.92004	0.35289
2348.99147	0.34962
2347.06291	0.34928
2345.13435	0.35158
2343.20578	0.35406
2341.27722	0.35451
2339.34865	0.35409
2337.42009	0.35438
2335.49152	0.35488
2333.56296	0.35457
2331.63440	0.35354
2329.70583	0.35277
2327.77727	0.35239
2325.84870	0.35110
2323.92014	0.34844
2321.99157	0.34554
2320.06301	0.34346
2318.13444	0.34218
2316.20588	0.34093
2314.27732	0.33968
2312.34875	0.33892
2310.42019	0.33820
2308.49162	0.33700
2306.56306	0.33578
2304.63449	0.33487
2302.70593	0.33412
2300.77736	0.33351
2298.84880	0.33293
2296.92024	0.33217
2294.99167	0.33133
2293.06311	0.33073
2291.13454	0.33038
2289.20598	0.33003
2287.27741	0.32948
2285.34885	0.32869
2283.42028	0.32798
2281.49172	0.32754
2279.56316	0.32716
2277.63459	0.32665
2275.70603	0.32616
2273.77746	0.32579
2271.84890	0.32534
2269.92033	0.32481
2267.99177	0.32454
2266.06320	0.32460
2264.13464	0.32465
2262.20608	0.32462
2260.27751	0.32476
2258.34895	0.32514
2256.42038	0.32557
2254.49182	0.32584
2252.56325	0.32595
2250.63469	0.32638
2248.70612	0.32697
2246.77756	0.32694
2244.84900	0.32632
2242.92043	0.32581
2240.99187	0.32565
2239.06330	0.32557
2237.13474	0.32541
2235.20617	0.32502
2233.27761	0.32434
2231.34904	0.32371
2229.42048	0.32324
2227.49192	0.32289
2225.56335	0.32253
2223.63479	0.32214
2221.70622	0.32176
2219.77766	0.32136
2217.84909	0.32102
2215.92053	0.32083
2213.99196	0.32062
2212.06340	0.32031
2210.13484	0.32016
2208.20627	0.32042
2206.27771	0.32087
2204.34914	0.32110
2202.42058	0.32115
2200.49201	0.32122
2198.56345	0.32125
2196.63488	0.32116
2194.70632	0.32106
2192.77776	0.32109
2190.84919	0.32129
2188.92063	0.32155
2186.99206	0.32170
2185.06350	0.32173
2183.13493	0.32169
2181.20637	0.32149
2179.27781	0.32120
2177.34924	0.32103
2175.42068	0.32101
2173.49211	0.32120
2171.56355	0.32158
2169.63498	0.32186
2167.70642	0.32195
2165.77785	0.32196
2163.84929	0.32181
2161.92073	0.32145
2159.99216	0.32111
2158.06360	0.32092
2156.13503	0.32076
2154.20647	0.32059
2152.27790	0.32047
2150.34934	0.32029
2148.42077	0.32003
2146.49221	0.31971
2144.56365	0.31940
2142.63508	0.31927
2140.70652	0.31921
2138.77795	0.31915
2136.84939	0.31910
2134.92082	0.31895
2132.99226	0.31864
2131.06369	0.31822
2129.13513	0.31790
2127.20657	0.31788
2125.27800	0.31796
2123.34944	0.31793
2121.42087	0.31784
2119.49231	0.31778
2117.56374	0.31771
2115.63518	0.31770
2113.70661	0.31762
2111.77805	0.31724
2109.84949	0.31677
2107.92092	0.31644
2105.99236	0.31610
2104.06379	0.31574
2102.13523	0.31546
2100.20666	0.31511
2098.27810	0.31430
2096.34953	0.31310
2094.42097	0.31199
2092.49241	0.31125
2090.56384	0.31058
2088.63528	0.30967
2086.70671	0.30872
2084.77815	0.30792
2082.84958	0.30709
2080.92102	0.30620
2078.99245	0.30552
2077.06389	0.30524
2075.13533	0.30521
2073.20676	0.30517
2071.27820	0.30511
2069.34963	0.30505
2067.42107	0.30504
2065.49250	0.30523
2063.56394	0.30554
2061.63537	0.30569
2059.70681	0.30583
2057.77825	0.30614
2055.84968	0.30641
2053.92112	0.30632
2051.99255	0.30589
2050.06399	0.30533
2048.13542	0.30477
2046.20686	0.30409
2044.27830	0.30325
2042.34973	0.30244
2040.42117	0.30172
2038.49260	0.30096
2036.56404	0.30017
2034.63547	0.29923
2032.70691	0.29806
2030.77834	0.29679
2028.84978	0.29551
2026.92122	0.29432
2024.99265	0.29341
2023.06409	0.29280
2021.13552	0.29237
2019.20696	0.29225
2017.27839	0.29240
2015.34983	0.29236
2013.42126	0.29212
2011.49270	0.29196
2009.56414	0.29193
2007.63557	0.29188
2005.70701	0.29167
2003.77844	0.29146
2001.84988	0.29142
1999.92131	0.29151
1997.99275	0.29150
1996.06418	0.29136
1994.13562	0.29123
1992.20706	0.29100
1990.27849	0.29046
1988.34993	0.28974
1986.42136	0.28895
1984.49280	0.28816
1982.56423	0.28744
1980.63567	0.28670
1978.70710	0.28588
1976.77854	0.28490
1974.84998	0.28364
1972.92141	0.28227
1970.99285	0.28103
1969.06428	0.27994
1967.13572	0.27907
1965.20715	0.27824
1963.27859	0.27731
1961.35002	0.27640
1959.42146	0.27551
1957.49290	0.27464
1955.56433	0.27393
1953.63577	0.27340
1951.70720	0.27299
1949.77864	0.27264
1947.85007	0.27243
1945.92151	0.27249
1943.99294	0.27285
1942.06438	0.27303
1940.13582	0.27252
1938.20725	0.27179
1936.27869	0.27131
1934.35012	0.27095
1932.42156	0.27052
1930.49299	0.27009
1928.56443	0.26965
1926.63586	0.26911
1924.70730	0.26880
1922.77874	0.26883
1920.85017	0.26851
1918.92161	0.26765
1916.99304	0.26643
1915.06448	0.26497
1913.13591	0.26364
1911.20735	0.26263
1909.27878	0.26180
1907.35022	0.26080
1905.42166	0.25964
1903.49309	0.25873
1901.56453	0.25815
1899.63596	0.25755
1897.70740	0.25690
1895.77883	0.25645
1893.85027	0.25608
1891.92171	0.25578
1889.99314	0.25579
1888.06458	0.25552
1886.13601	0.25479
1884.20745	0.25410
1882.27888	0.25347
1880.35032	0.25283
1878.42175	0.25231
1876.49319	0.25203
1874.56463	0.25188
1872.63606	0.25198
1870.70750	0.25286
1868.77893	0.25434
1866.85037	0.25465
1864.92180	0.25381
1862.99324	0.25324
1861.06467	0.25316
1859.13611	0.25317
1857.20755	0.25294
1855.27898	0.25248
1853.35042	0.25207
1851.42185	0.25189
1849.49329	0.25189
1847.56472	0.25188
1845.63616	0.25164
1843.70759	0.25050
1841.77903	0.24841
1839.85047	0.24643
1837.92190	0.24494
1835.99334	0.24369
1834.06477	0.24252
1832.13621	0.24187
1830.20764	0.24176
1828.27908	0.24129
1826.35051	0.24058
1824.42195	0.24021
1822.49339	0.24000
1820.56482	0.23993
1818.63626	0.24019
1816.70769	0.24073
1814.77913	0.24156
1812.85056	0.24285
1810.92200	0.24448
1808.99343	0.24569
1807.06487	0.24622
1805.13631	0.24665
1803.20774	0.24733
1801.27918	0.24806
1799.35061	0.24814
1797.42205	0.24748
1795.49348	0.24680
1793.56492	0.24650
1791.63635	0.24593
1789.70779	0.24435
1787.77923	0.24290
1785.85066	0.24240
1783.92210	0.24265
1781.99353	0.24301
1780.06497	0.24309
1778.13640	0.24308
1776.20784	0.24340
1774.27927	0.24455
1772.35071	0.24624
1770.42215	0.24658
1768.49358	0.24598
1766.56502	0.24558
1764.63645	0.24570
1762.70789	0.24666
1760.77932	0.24808
1758.85076	0.24950
1756.92220	0.25180
1754.99363	0.25451
1753.06507	0.25762
1751.13650	0.26333
1749.20794	0.27132
1747.27937	0.27788
1745.35081	0.28319
1743.42224	0.28864
1741.49368	0.29437
1739.56512	0.29992
1737.63655	0.30386
1735.70799	0.30735
1733.77942	0.31307
1731.85086	0.31732
1729.92229	0.31959
1727.99373	0.32211
1726.06516	0.32523
1724.13660	0.32975
1722.20804	0.33469
1720.27947	0.33959
1718.35091	0.34793
1716.42234	0.36105
1714.49378	0.37036
1712.56521	0.37704
1710.63665	0.38489
1708.70808	0.39498
1706.77952	0.41022
1704.85096	0.42985
1702.92239	0.44700
1700.99383	0.47014
1699.06526	0.50500
1697.13670	0.53455
1695.20813	0.55985
1693.27957	0.57779
1691.35100	0.59286
1689.42244	0.61166
1687.49388	0.62891
1685.56531	0.64669
1683.63675	0.67409
1681.70818	0.69327
1679.77962	0.70444
1677.85105	0.71539
1675.92249	0.72914
1673.99392	0.74410
1672.06536	0.75649
1670.13680	0.77136
1668.20823	0.78662
1666.27967	0.79517
1664.35110	0.80398
1662.42254	0.81717
1660.49397	0.82803
1658.56541	0.83402
1656.63684	0.83812
1654.70828	0.84375
1652.77972	0.85221
1650.85115	0.85441
1648.92259	0.85457
1646.99402	0.85421
1645.06546	0.85126
1643.13689	0.84824
1641.20833	0.84662
1639.27976	0.84581
1637.35120	0.84589
1635.42264	0.84552
1633.49407	0.84209
1631.56551	0.83863
1629.63694	0.83550
1627.70838	0.83169
1625.77981	0.82640
1623.85125	0.81823
1621.92269	0.80776
1619.99412	0.79849
1618.06556	0.78723
1616.13699	0.76907
1614.20843	0.75226
1612.27986	0.73863
1610.35130	0.72467
1608.42273	0.71080
1606.49417	0.69909
1604.56561	0.69000
1602.63704	0.68280
1600.70848	0.67739
1598.77991	0.67367
1596.85135	0.67158
1594.92278	0.67063
1592.99422	0.66998
1591.06565	0.66979
1589.13709	0.67087
1587.20853	0.67390
1585.27996	0.67880
1583.35140	0.68481
1581.42283	0.69108
1579.49427	0.69756
1577.56570	0.70689
1575.63714	0.71933
1573.70857	0.72629
1571.78001	0.73078
1569.85145	0.73900
1567.92288	0.74824
1565.99432	0.75496
1564.06575	0.76124
1562.13719	0.76633
1560.20862	0.77301
1558.28006	0.78687
1556.35149	0.79300
1554.42293	0.79540
1552.49437	0.79823
1550.56580	0.80131
1548.63724	0.80364
1546.70867	0.80502
1544.78011	0.80725
1542.85154	0.81122
1540.92298	0.81328
1538.99441	0.80842
1537.06585	0.80426
1535.13729	0.80201
1533.20872	0.80023
1531.28016	0.79820
1529.35159	0.79645
1527.42303	0.79510
1525.49446	0.79381
1523.56590	0.79332
1521.63733	0.79317
1519.70877	0.79146
1517.78021	0.78779
1515.85164	0.78191
1513.92308	0.77391
1511.99451	0.76450
1510.06595	0.75498
1508.13738	0.74028
1506.20882	0.71224
1504.28025	0.69443
1502.35169	0.68290
1500.42313	0.67077
1498.49456	0.65577
1496.56600	0.63749
1494.63743	0.62269
1492.70887	0.61299
1490.78030	0.60316
1488.85174	0.59019
1486.92317	0.57941
1484.99461	0.57279
1483.06605	0.56898
1481.13748	0.56717
1479.20892	0.56716
1477.28035	0.56965
1475.35179	0.57605
1473.42322	0.58817
1471.49466	0.60036
1469.56610	0.60661
1467.63753	0.61168
1465.70897	0.61877
1463.78040	0.62563
1461.85184	0.62932
1459.92327	0.63261
1457.99471	0.63891
1456.06614	0.64320
1454.13758	0.64206
1452.20902	0.64052
1450.28045	0.63911
1448.35189	0.63723
1446.42332	0.63436
1444.49476	0.63054
1442.56619	0.62613
1440.63763	0.62178
1438.70906	0.61746
1436.78050	0.61131
1434.85194	0.60365
1432.92337	0.59693
1430.99481	0.59045
1429.06624	0.58421
1427.13768	0.57974
1425.20911	0.57729
1423.28055	0.57632
1421.35198	0.57669
1419.42342	0.57936
1417.49486	0.58265
1415.56629	0.58350
1413.63773	0.58363
1411.70916	0.58434
1409.78060	0.58559
1407.85203	0.58715
1405.92347	0.58959
1403.99490	0.59283
1402.06634	0.59584
1400.13778	0.59902
1398.20921	0.60246
1396.28065	0.60556
1394.35208	0.60873
1392.42352	0.61188
1390.49495	0.61539
1388.56639	0.62118
1386.63782	0.62962
1384.70926	0.63739
1382.78070	0.64350
1380.85213	0.64779
1378.92357	0.64868
1376.99500	0.64555
1375.06644	0.63787
1373.13787	0.62637
1371.20931	0.61464
1369.28074	0.60259
1367.35218	0.59015
1365.42362	0.57942
1363.49505	0.57003
1361.56649	0.56216
1359.63792	0.55730
1357.70936	0.55478
1355.78079	0.55383
1353.85223	0.55410
1351.92366	0.55525
1349.99510	0.55718
1348.06654	0.55980
1346.13797	0.56273
1344.20941	0.56575
1342.28084	0.56922
1340.35228	0.57379
1338.42371	0.57895
1336.49515	0.58401
1334.56659	0.58966
1332.63802	0.59598
1330.70946	0.60238
1328.78089	0.60788
1326.85233	0.61133
1324.92376	0.61276
1322.99520	0.61330
1321.06663	0.61385
1319.13807	0.61459
1317.20951	0.61489
1315.28094	0.61441
1313.35238	0.61358
1311.42381	0.61246
1309.49525	0.61096
1307.56668	0.60932
1305.63812	0.60753
1303.70955	0.60569
1301.78099	0.60413
1299.85243	0.60285
1297.92386	0.60170
1295.99530	0.60088
1294.06673	0.60107
1292.13817	0.60282
1290.20960	0.60597
1288.28104	0.60991
1286.35247	0.61411
1284.42391	0.61819
1282.49535	0.62213
1280.56678	0.62618
1278.63822	0.63042
1276.70965	0.63491
1274.78109	0.63991
1272.85252	0.64549
1270.92396	0.65126
1268.99539	0.65670
1267.06683	0.66142
1265.13827	0.66483
1263.20970	0.66648
1261.28114	0.66639
1259.35257	0.66489
1257.42401	0.66288
1255.49544	0.66120
1253.56688	0.65981
1251.63831	0.65863
1249.70975	0.65786
1247.78119	0.65747
1245.85262	0.65727
1243.92406	0.65707
1241.99549	0.65668
1240.06693	0.65617
1238.13836	0.65554
1236.20980	0.65442
1234.28123	0.65256
1232.35267	0.65033
1230.42411	0.64791
1228.49554	0.64482
1226.56698	0.64097
1224.63841	0.63696
1222.70985	0.63291
1220.78128	0.62863
1218.85272	0.62472
1216.92415	0.62200
1214.99559	0.62069
1213.06703	0.62067
1211.13846	0.62183
1209.20990	0.62386
1207.28133	0.62566
1205.35277	0.62574
1203.42420	0.62351
1201.49564	0.61943
1199.56708	0.61441
1197.63851	0.60924
1195.70995	0.60438
1193.78138	0.60034
1191.85282	0.59757
1189.92425	0.59591
1187.99569	0.59508
1186.06712	0.59518
1184.13856	0.59621
1182.21000	0.59774
1180.28143	0.59991
1178.35287	0.60326
1176.42430	0.60768
1174.49574	0.61278
1172.56717	0.61826
1170.63861	0.62406
1168.71004	0.63076
1166.78148	0.63892
1164.85292	0.64798
1162.92435	0.65676
1160.99579	0.66386
1159.06722	0.66794
1157.13866	0.66847
1155.21009	0.66597
1153.28153	0.66133
1151.35296	0.65509
1149.42440	0.64776
1147.49584	0.64050
1145.56727	0.63454
1143.63871	0.63075
1141.71014	0.62946
1139.78158	0.63049
1137.85301	0.63351
1135.92445	0.63782
1133.99588	0.64294
1132.06732	0.64930
1130.13876	0.65722
1128.21019	0.66642
1126.28163	0.67648
1124.35306	0.68601
1122.42450	0.69348
1120.49593	0.69929
1118.56737	0.70434
1116.63880	0.70817
1114.71024	0.70947
1112.78168	0.70772
1110.85311	0.70449
1108.92455	0.70177
1106.99598	0.69949
1105.06742	0.69667
1103.13885	0.69400
1101.21029	0.69276
1099.28172	0.69333
1097.35316	0.69555
1095.42460	0.69898
1093.49603	0.70342
1091.56747	0.70889
1089.63890	0.71545
1087.71034	0.72323
1085.78177	0.73203
1083.85321	0.74142
1081.92464	0.75099
1079.99608	0.75980
1078.06752	0.76638
1076.13895	0.76947
1074.21039	0.76885
1072.28182	0.76584
1070.35326	0.76169
1068.42469	0.75669
1066.49613	0.75131
1064.56756	0.74600
1062.63900	0.74038
1060.71044	0.73416
1058.78187	0.72802
1056.85331	0.72264
1054.92474	0.71789
1052.99618	0.71339
1051.06761	0.70923
1049.13905	0.70591
1047.21049	0.70417
1045.28192	0.70432
1043.35336	0.70566
1041.42479	0.70739
1039.49623	0.70907
1037.56766	0.71011
1035.63910	0.71036
1033.71053	0.71001
1031.78197	0.70899
1029.85341	0.70704
1027.92484	0.70426
1025.99628	0.70093
1024.06771	0.69750
1022.13915	0.69457
1020.21058	0.69217
1018.28202	0.69036
1016.35345	0.68882
1014.42489	0.68570
1012.49633	0.67926
1010.56776	0.66971
1008.63920	0.65831
1006.71063	0.64621
1004.78207	0.63418
1002.85350	0.62281
1000.92494	0.61270
998.99637	0.60431
997.06781	0.59738
995.13925	0.59120
993.21068	0.58538
991.28212	0.57979
989.35355	0.57405
987.42499	0.56799
985.49642	0.56213
983.56786	0.55726
981.63929	0.55369
979.71073	0.55098
977.78217	0.54855
975.85360	0.54604
973.92504	0.54294
971.99647	0.53868
970.06791	0.53349
968.13934	0.52798
966.21078	0.52278
964.28221	0.51878
962.35365	0.51684
960.42509	0.51793
958.49652	0.52280
956.56796	0.52955
954.63939	0.53429
952.71083	0.53463
950.78226	0.53072
948.85370	0.52448
946.92513	0.51849
944.99657	0.51426
943.06801	0.51189
941.13944	0.51108
939.21088	0.51140
937.28231	0.51220
935.35375	0.51315
933.42518	0.51424
931.49662	0.51519
929.56805	0.51565
927.63949	0.51554
925.71093	0.51467
923.78236	0.51284
921.85380	0.50984
919.92523	0.50516
917.99667	0.49887
916.06810	0.49171
914.13954	0.48438
912.21098	0.47747
910.28241	0.47152
908.35385	0.46692
906.42528	0.46422
904.49672	0.46368
902.56815	0.46462
900.63959	0.46599
898.71102	0.46724
896.78246	0.46880
894.85390	0.47125
892.92533	0.47426
890.99677	0.47689
889.06820	0.47899
887.13964	0.48111
885.21107	0.48344
883.28251	0.48573
881.35394	0.48777
879.42538	0.48956
877.49682	0.49090
875.56825	0.49126
873.63969	0.49076
871.71112	0.48996
869.78256	0.48881
867.85399	0.48718
865.92543	0.48542
863.99686	0.48409
862.06830	0.48303
860.13974	0.48180
858.21117	0.48041
856.28261	0.47868
854.35404	0.47646
852.42548	0.47372
850.49691	0.47013
848.56835	0.46567
846.63978	0.46108
844.71122	0.45678
842.78266	0.45281
840.85409	0.44945
838.92553	0.44677
836.99696	0.44469
835.06840	0.44353
833.13983	0.44352
831.21127	0.44455
829.28270	0.44641
827.35414	0.44908
825.42558	0.45254
823.49701	0.45631
821.56845	0.46006
819.63988	0.46406
817.71132	0.46817
815.78275	0.47182
813.85419	0.47476
811.92562	0.47720
809.99706	0.47938
808.06850	0.48108
806.13993	0.48204
804.21137	0.48225
802.28280	0.48174
800.35424	0.48089
798.42567	0.47997
796.49711	0.47887
794.56854	0.47799
792.63998	0.47772
790.71142	0.47769
788.78285	0.47738
786.85429	0.47688
784.92572	0.47653
782.99716	0.47617
781.06859	0.47545
779.14003	0.47419
777.21147	0.47241
775.28290	0.47052
773.35434	0.46874
771.42577	0.46700
769.49721	0.46540
767.56864	0.46385
765.64008	0.46273
763.71151	0.46264
761.78295	0.46326
759.85439	0.46423
757.92582	0.46597
755.99726	0.46882
754.06869	0.47261
752.14013	0.47676
750.21156	0.48082
748.28300	0.48486
746.35443	0.48886
744.42587	0.49266
742.49731	0.49589
740.56874	0.49778
738.64018	0.49812
736.71161	0.49778
734.78305	0.49736
732.85448	0.49661
730.92592	0.49528
728.99735	0.49300
727.06879	0.48973
725.14023	0.48625
723.21166	0.48328
721.28310	0.48084
719.35453	0.47818
717.42597	0.47491
715.49740	0.47168
713.56884	0.46922
711.64027	0.46794
709.71171	0.46774
707.78315	0.46793
705.85458	0.46825
703.92602	0.46942
701.99745	0.47146
700.06889	0.47411
698.14032	0.47783
696.21176	0.48234
694.28319	0.48701
692.35463	0.49208
690.42607	0.49729
688.49750	0.50198
686.56894	0.50625
684.64037	0.50996
682.71181	0.51230
680.78324	0.51331
678.85468	0.51370
676.92611	0.51377
674.99755	0.51340
673.06899	0.51257
671.14042	0.51214
669.21186	0.51060
667.28329	0.50325
665.35473	0.49570
663.42616	0.49028
661.49760	0.48469
659.56903	0.47899
657.64047	0.47375
655.71191	0.46901
653.78334	0.46497
651.85478	0.46139
649.92621	0.45785
647.99765	0.45480
646.06908	0.45328
644.14052	0.45410
642.21195	0.45713
640.28339	0.46171
638.35483	0.46723
636.42626	0.47232
634.49770	0.47568
632.56913	0.47744
630.64057	0.47913
628.71200	0.48224
626.78344	0.48697
624.85488	0.49240
622.92631	0.49725
620.99775	0.50070
619.06918	0.50272
617.14062	0.50447
615.21205	0.50701
613.28349	0.50903
611.35492	0.50881
609.42636	0.50698
607.49780	0.50449
605.56923	0.50095
603.64067	0.49598
601.71210	0.49026
599.78354	0.48529
