3997.91406	0.36937
3995.98550	0.36854
3994.05693	0.36794
3992.12837	0.36760
3990.19980	0.36679
3988.27124	0.36606
3986.34268	0.36667
3984.41411	0.36787
3982.48555	0.36829
3980.55698	0.36788
3978.62842	0.36667
3976.69985	0.36505
3974.77129	0.36417
3972.84272	0.36429
3970.91416	0.36479
3968.98560	0.36508
3967.05703	0.36510
3965.12847	0.36516
3963.19990	0.36509
3961.27134	0.36514
3959.34277	0.36545
3957.41421	0.36529
3955.48564	0.36509
3953.55708	0.36533
3951.62852	0.36528
3949.69995	0.36490
3947.77139	0.36439
3945.84282	0.36369
3943.91426	0.36350
3941.98569	0.36434
3940.05713	0.36529
3938.12856	0.36523
3936.20000	0.36366
3934.27144	0.36164
3932.34287	0.36096
3930.41431	0.36095
3928.48574	0.36038
3926.55718	0.36087
3924.62861	0.36296
3922.70005	0.36303
3920.77148	0.36030
3918.84292	0.35858
3916.91436	0.35969
3914.98579	0.36103
3913.05723	0.36113
3911.12866	0.36062
3909.20010	0.35948
3907.27153	0.35674
3905.34297	0.35262
3903.41440	0.35055
3901.48584	0.35289
3899.55728	0.35711
3897.62871	0.35941
3895.70015	0.35836
3893.77158	0.35615
3891.84302	0.35703
3889.91445	0.35897
3887.98589	0.35735
3886.05733	0.35601
3884.12876	0.35710
3882.20020	0.35727
3880.27163	0.35901
3878.34307	0.36009
3876.41450	0.35681
3874.48594	0.35195
3872.55737	0.34898
3870.62881	0.35014
3868.70025	0.35303
3866.77168	0.35235
3864.84312	0.35148
3862.91455	0.35387
3860.98599	0.35549
3859.05742	0.35338
3857.12886	0.34617
3855.20029	0.33541
3853.27173	0.33864
3851.34317	0.35266
3849.41460	0.35673
3847.48604	0.35525
3845.55747	0.35243
3843.62891	0.35033
3841.70034	0.34804
3839.77178	0.34515
3837.84321	0.34523
3835.91465	0.34601
3833.98609	0.34543
3832.05752	0.34612
3830.12896	0.34678
3828.20039	0.34590
3826.27183	0.34495
3824.34326	0.34231
3822.41470	0.33805
3820.48613	0.33880
3818.55757	0.34121
3816.62901	0.34280
3814.70044	0.34585
3812.77188	0.34701
3810.84331	0.34562
3808.91475	0.34335
3806.98618	0.34317
3805.05762	0.34245
3803.12905	0.33951
3801.20049	0.34207
3799.27193	0.34660
3797.34336	0.34855
3795.41480	0.35127
3793.48623	0.35203
3791.55767	0.35021
3789.62910	0.34886
3787.70054	0.34891
3785.77197	0.34996
3783.84341	0.35051
3781.91485	0.34896
3779.98628	0.34796
3778.05772	0.34897
3776.12915	0.34906
3774.20059	0.34744
3772.27202	0.34450
3770.34346	0.34273
3768.41489	0.34399
3766.48633	0.34542
3764.55777	0.34514
3762.62920	0.34213
3760.70064	0.33835
3758.77207	0.33753
3756.84351	0.33729
3754.91494	0.33426
3752.98638	0.32988
3751.05781	0.32917
3749.12925	0.33157
3747.20069	0.33155
3745.27212	0.33490
3743.34356	0.34271
3741.41499	0.34388
3739.48643	0.33753
3737.55786	0.32891
3735.62930	0.32827
3733.70074	0.33660
3731.77217	0.34121
3729.84361	0.34097
3727.91504	0.33936
3725.98648	0.33924
3724.05791	0.34061
3722.12935	0.34218
3720.20078	0.34404
3718.27222	0.34481
3716.34366	0.34256
3714.41509	0.33780
3712.48653	0.33593
3710.55796	0.34196
3708.62940	0.34637
3706.70083	0.34600
3704.77227	0.34420
3702.84370	0.34438
3700.91514	0.34704
3698.98658	0.34818
3697.05801	0.34719
3695.12945	0.34489
3693.20088	0.34152
3691.27232	0.33891
3689.34375	0.34183
3687.41519	0.34707
3685.48662	0.34885
3683.55806	0.34836
3681.62950	0.34678
3679.70093	0.34394
3677.77237	0.33963
3675.84380	0.34068
3673.91524	0.34664
3671.98667	0.34758
3670.05811	0.35173
3668.12954	0.35973
3666.20098	0.36337
3664.27242	0.36507
3662.34385	0.36690
3660.41529	0.36873
3658.48672	0.37087
3656.55816	0.37418
3654.62959	0.37511
3652.70103	0.37111
3650.77246	0.36699
3648.84390	0.37672
3646.91534	0.39156
3644.98677	0.39805
3643.05821	0.40091
3641.12964	0.40340
3639.20108	0.40649
3637.27251	0.41031
3635.34395	0.41470
3633.41538	0.41729
3631.48682	0.41583
3629.55826	0.41808
3627.62969	0.42982
3625.70113	0.43588
3623.77256	0.43641
3621.84400	0.43629
3619.91543	0.43934
3617.98687	0.44489
3616.05830	0.44789
3614.12974	0.45028
3612.20118	0.45386
3610.27261	0.45719
3608.34405	0.46154
3606.41548	0.46658
3604.48692	0.47008
3602.55835	0.47356
3600.62979	0.47775
3598.70123	0.48074
3596.77266	0.48419
3594.84410	0.49156
3592.91553	0.49773
3590.98697	0.49770
3589.05840	0.49832
3587.12984	0.50753
3585.20127	0.51654
3583.27271	0.52029
3581.34415	0.52314
3579.41558	0.52624
3577.48702	0.52913
3575.55845	0.53298
3573.62989	0.53731
3571.70132	0.53952
3569.77276	0.53967
3567.84419	0.54238
3565.91563	0.55046
3563.98707	0.55768
3562.05850	0.56282
3560.12994	0.56696
3558.20137	0.57029
3556.27281	0.57388
3554.34424	0.57848
3552.41568	0.58339
3550.48711	0.58631
3548.55855	0.58725
3546.62999	0.59049
3544.70142	0.59874
3542.77286	0.60689
3540.84429	0.61169
3538.91573	0.61539
3536.98716	0.61981
3535.05860	0.62435
3533.13003	0.62855
3531.20147	0.63260
3529.27291	0.63663
3527.34434	0.64070
3525.41578	0.64529
3523.48721	0.65178
3521.55865	0.65903
3519.63008	0.66523
3517.70152	0.67104
3515.77295	0.67634
3513.84439	0.68039
3511.91583	0.68343
3509.98726	0.68740
3508.05870	0.69314
3506.13013	0.69873
3504.20157	0.70493
3502.27300	0.71215
3500.34444	0.71850
3498.41587	0.72518
3496.48731	0.73215
3494.55875	0.73588
3492.63018	0.73665
3490.70162	0.73945
3488.77305	0.74537
3486.84449	0.75011
3484.91592	0.75268
3482.98736	0.75674
3481.05879	0.76302
3479.13023	0.76769
3477.20167	0.76888
3475.27310	0.76864
3473.34454	0.76983
3471.41597	0.77282
3469.48741	0.77701
3467.55884	0.78154
3465.63028	0.78474
3463.70171	0.78661
3461.77315	0.78791
3459.84459	0.78957
3457.91602	0.79251
3455.98746	0.79611
3454.05889	0.79887
3452.13033	0.80023
3450.20176	0.80131
3448.27320	0.80312
3446.34464	0.80576
3444.41607	0.80951
3442.48751	0.81415
3440.55894	0.81793
3438.63038	0.82001
3436.70181	0.82158
3434.77325	0.82282
3432.84468	0.82330
3430.91612	0.82380
3428.98756	0.82497
3427.05899	0.82618
3425.13043	0.82635
3423.20186	0.82504
3421.27330	0.82259
3419.34473	0.82128
3417.41617	0.82261
3415.48760	0.82421
3413.55904	0.82474
3411.63048	0.82500
3409.70191	0.82425
3407.77335	0.82258
3405.84478	0.82209
3403.91622	0.82395
3401.98765	0.82720
3400.05909	0.82936
3398.13052	0.82915
3396.20196	0.82880
3394.27340	0.83117
3392.34483	0.83495
3390.41627	0.83697
3388.48770	0.83791
3386.55914	0.83922
3384.63057	0.83976
3382.70201	0.84027
3380.77344	0.84303
3378.84488	0.84635
3376.91632	0.84788
3374.98775	0.84822
3373.05919	0.84785
3371.13062	0.84742
3369.20206	0.84823
3367.27349	0.85014
3365.34493	0.85197
3363.41636	0.85270
3361.48780	0.85317
3359.55924	0.85522
3357.63067	0.85847
3355.70211	0.86136
3353.77354	0.86319
3351.84498	0.86338
3349.91641	0.86260
3347.98785	0.86349
3346.05928	0.86613
3344.13072	0.86779
3342.20216	0.86897
3340.27359	0.87172
3338.34503	0.87529
3336.41646	0.87943
3334.48790	0.88367
3332.55933	0.88540
3330.63077	0.88498
3328.70220	0.88599
3326.77364	0.88987
3324.84508	0.89406
3322.91651	0.89558
3320.98795	0.89656
3319.05938	0.90013
3317.13082	0.90376
3315.20225	0.90570
3313.27369	0.90803
3311.34513	0.90976
3309.41656	0.90952
3307.48800	0.90918
3305.55943	0.91082
3303.63087	0.91511
3301.70230	0.91944
3299.77374	0.92046
3297.84517	0.91904
3295.91661	0.91851
3293.98805	0.92039
3292.05948	0.92294
3290.13092	0.92366
3288.20235	0.92228
3286.27379	0.92099
3284.34522	0.92263
3282.41666	0.92681
3280.48809	0.93087
3278.55953	0.93374
3276.63097	0.93405
3274.70240	0.93153
3272.77384	0.92873
3270.84527	0.92632
3268.91671	0.92437
3266.98814	0.92387
3265.05958	0.92390
3263.13101	0.92298
3261.20245	0.92013
3259.27389	0.91509
3257.34532	0.91088
3255.41676	0.90935
3253.48819	0.90726
3251.55963	0.90283
3249.63106	0.89800
3247.70250	0.89406
3245.77393	0.89000
3243.84537	0.88440
3241.91681	0.87896
3239.98824	0.87587
3238.05968	0.87410
3236.13111	0.87209
3234.20255	0.86902
3232.27398	0.86428
3230.34542	0.85967
3228.41685	0.85814
3226.48829	0.85826
3224.55973	0.85605
3222.63116	0.85132
3220.70260	0.84715
3218.77403	0.84457
3216.84547	0.84141
3214.91690	0.83724
3212.98834	0.83318
3211.05977	0.82819
3209.13121	0.82277
3207.20265	0.81921
3205.27408	0.81704
3203.34552	0.81403
3201.41695	0.80920
3199.48839	0.80408
3197.55982	0.80071
3195.63126	0.79889
3193.70269	0.79725
3191.77413	0.79472
3189.84557	0.79173
3187.91700	0.78907
3185.98844	0.78604
3184.05987	0.78255
3182.13131	0.77945
3180.20274	0.77667
3178.27418	0.77377
3176.34562	0.77061
3174.41705	0.76698
3172.48849	0.76321
3170.55992	0.76005
3168.63136	0.75709
3166.70279	0.75379
3164.77423	0.75044
3162.84566	0.74782
3160.91710	0.74620
3158.98854	0.74424
3157.05997	0.74080
3155.13141	0.73651
3153.20284	0.73245
3151.27428	0.72901
3149.34571	0.72615
3147.41715	0.72441
3145.48858	0.72398
3143.56002	0.72329
3141.63146	0.72118
3139.70289	0.71898
3137.77433	0.71775
3135.84576	0.71648
3133.91720	0.71489
3131.98863	0.71396
3130.06007	0.71426
3128.13150	0.71497
3126.20294	0.71450
3124.27438	0.71293
3122.34581	0.71190
3120.41725	0.71223
3118.48868	0.71331
3116.56012	0.71418
3114.63155	0.71469
3112.70299	0.71515
3110.77442	0.71539
3108.84586	0.71586
3106.91730	0.71716
3104.98873	0.71808
3103.06017	0.71800
3101.13160	0.71843
3099.20304	0.71999
3097.27447	0.72135
3095.34591	0.72088
3093.41734	0.71879
3091.48878	0.71686
3089.56022	0.71516
3087.63165	0.71281
3085.70309	0.71097
3083.77452	0.71065
3081.84596	0.71032
3079.91739	0.70862
3077.98883	0.70599
3076.06026	0.70353
3074.13170	0.70190
3072.20314	0.70085
3070.27457	0.69918
3068.34601	0.69630
3066.41744	0.69351
3064.48888	0.69113
3062.56031	0.68772
3060.63175	0.68327
3058.70318	0.67883
3056.77462	0.67489
3054.84606	0.67147
3052.91749	0.66833
3050.98893	0.66523
3049.06036	0.66165
3047.13180	0.65726
3045.20323	0.65272
3043.27467	0.64918
3041.34610	0.64705
3039.41754	0.64546
3037.48898	0.64323
3035.56041	0.64073
3033.63185	0.63930
3031.70328	0.63810
3029.77472	0.63551
3027.84615	0.63218
3025.91759	0.62934
3023.98903	0.62723
3022.06046	0.62609
3020.13190	0.62566
3018.20333	0.62447
3016.27477	0.62171
3014.34620	0.61880
3012.41764	0.61746
3010.48907	0.61731
3008.56051	0.61705
3006.63195	0.61606
3004.70338	0.61440
3002.77482	0.61276
3000.84625	0.61191
2998.91769	0.61188
2996.98912	0.61249
2995.06056	0.61400
2993.13199	0.61662
2991.20343	0.62016
2989.27487	0.62452
2987.34630	0.62919
2985.41774	0.63309
2983.48917	0.63627
2981.56061	0.64014
2979.63204	0.64539
2977.70348	0.65158
2975.77491	0.65822
2973.84635	0.66505
2971.91779	0.67207
2969.98922	0.67892
2968.06066	0.68481
2966.13209	0.68950
2964.20353	0.69320
2962.27496	0.69623
2960.34640	0.69789
2958.41783	0.69623
2956.48927	0.69164
2954.56071	0.68699
2952.63214	0.68384
2950.70358	0.68122
2948.77501	0.67816
2946.84645	0.67629
2944.91788	0.67779
2942.98932	0.68295
2941.06075	0.69039
2939.13219	0.69857
2937.20363	0.70724
2935.27506	0.71587
2933.34650	0.72308
2931.41793	0.72910
2929.48937	0.73500
2927.56080	0.74058
2925.63224	0.74542
2923.70367	0.74942
2921.77511	0.75222
2919.84655	0.75254
2917.91798	0.74793
2915.98942	0.73659
2914.06085	0.72003
2912.13229	0.70288
2910.20372	0.68919
2908.27516	0.67943
2906.34659	0.67139
2904.41803	0.66425
2902.48947	0.65919
2900.56090	0.65625
2898.63234	0.65426
2896.70377	0.65225
2894.77521	0.65008
2892.84664	0.64804
2890.91808	0.64598
2888.98952	0.64383
2887.06095	0.64186
2885.13239	0.64031
2883.20382	0.63979
2881.27526	0.64071
2879.34669	0.64213
2877.41813	0.64234
2875.48956	0.64077
2873.56100	0.63772
2871.63244	0.63375
2869.70387	0.62945
2867.77531	0.62493
2865.84674	0.62037
2863.91818	0.61653
2861.98961	0.61462
2860.06105	0.61532
2858.13248	0.61809
2856.20392	0.62227
2854.27536	0.62748
2852.34679	0.63222
2850.41823	0.63269
2848.48966	0.62440
2846.56110	0.60800
2844.63253	0.58991
2842.70397	0.57493
2840.77540	0.56389
2838.84684	0.55575
2836.91828	0.54907
2834.98971	0.54400
2833.06115	0.54122
2831.13258	0.53957
2829.20402	0.53723
2827.27545	0.53358
2825.34689	0.52956
2823.41832	0.52684
2821.48976	0.52517
2819.56120	0.52264
2817.63263	0.51922
2815.70407	0.51654
2813.77550	0.51471
2811.84694	0.51266
2809.91837	0.51010
2807.98981	0.50763
2806.06124	0.50540
2804.13268	0.50317
2802.20412	0.50097
2800.27555	0.49872
2798.34699	0.49645
2796.41842	0.49482
2794.48986	0.49368
2792.56129	0.49212
2790.63273	0.49055
2788.70416	0.48972
2786.77560	0.48880
2784.84704	0.48706
2782.91847	0.48546
2780.98991	0.48463
2779.06134	0.48396
2777.13278	0.48297
2775.20421	0.48182
2773.27565	0.48080
2771.34708	0.47994
2769.41852	0.47896
2767.48996	0.47760
2765.56139	0.47590
2763.63283	0.47429
2761.70426	0.47296
2759.77570	0.47152
2757.84713	0.46998
2755.91857	0.46892
2753.99001	0.46816
2752.06144	0.46715
2750.13288	0.46614
2748.20431	0.46526
2746.27575	0.46427
2744.34718	0.46337
2742.41862	0.46257
2740.49005	0.46148
2738.56149	0.46007
2736.63293	0.45890
2734.70436	0.45824
2732.77580	0.45798
2730.84723	0.45801
2728.91867	0.45775
2726.99010	0.45683
2725.06154	0.45581
2723.13297	0.45488
2721.20441	0.45393
2719.27585	0.45314
2717.34728	0.45226
2715.41872	0.45108
2713.49015	0.45010
2711.56159	0.44962
2709.63302	0.44937
2707.70446	0.44885
2705.77589	0.44810
2703.84733	0.44739
2701.91877	0.44660
2699.99020	0.44582
2698.06164	0.44528
2696.13307	0.44494
2694.20451	0.44470
2692.27594	0.44451
2690.34738	0.44411
2688.41881	0.44349
2686.49025	0.44302
2684.56169	0.44247
2682.63312	0.44133
2680.70456	0.44011
2678.77599	0.43955
2676.84743	0.43928
2674.91886	0.43865
2672.99030	0.43793
2671.06173	0.43727
2669.13317	0.43631
2667.20461	0.43527
2665.27604	0.43433
2663.34748	0.43324
2661.41891	0.43219
2659.49035	0.43145
2657.56178	0.43090
2655.63322	0.43038
2653.70465	0.42974
2651.77609	0.42893
2649.84753	0.42792
2647.91896	0.42670
2645.99040	0.42572
2644.06183	0.42545
2642.13327	0.42540
2640.20470	0.42485
2638.27614	0.42409
2636.34757	0.42367
2634.41901	0.42363
2632.49045	0.42366
2630.56188	0.42334
2628.63332	0.42293
2626.70475	0.42297
2624.77619	0.42309
2622.84762	0.42282
2620.91906	0.42244
2618.99049	0.42224
2617.06193	0.42190
2615.13337	0.42141
2613.20480	0.42104
2611.27624	0.42065
2609.34767	0.42011
2607.41911	0.41970
2605.49054	0.41947
2603.56198	0.41925
2601.63342	0.41899
2599.70485	0.41887
2597.77629	0.41889
2595.84772	0.41876
2593.91916	0.41827
2591.99059	0.41762
2590.06203	0.41744
2588.13346	0.41770
2586.20490	0.41772
2584.27634	0.41740
2582.34777	0.41711
2580.41921	0.41695
2578.49064	0.41647
2576.56208	0.41550
2574.63351	0.41451
2572.70495	0.41368
2570.77638	0.41283
2568.84782	0.41209
2566.91926	0.41163
2564.99069	0.41117
2563.06213	0.41021
2561.13356	0.40869
2559.20500	0.40707
2557.27643	0.40589
2555.34787	0.40516
2553.41930	0.40455
2551.49074	0.40394
2549.56218	0.40332
2547.63361	0.40269
2545.70505	0.40199
2543.77648	0.40122
2541.84792	0.40058
2539.91935	0.40026
2537.99079	0.40018
2536.06222	0.40016
2534.13366	0.39991
2532.20510	0.39953
2530.27653	0.39935
2528.34797	0.39942
2526.41940	0.39964
2524.49084	0.39976
2522.56227	0.39950
2520.63371	0.39909
2518.70514	0.39883
2516.77658	0.39865
2514.84802	0.39838
2512.91945	0.39791
2510.99089	0.39739
2509.06232	0.39688
2507.13376	0.39626
2505.20519	0.39570
2503.27663	0.39507
2501.34806	0.39396
2499.41950	0.39284
2497.49094	0.39223
2495.56237	0.39177
2493.63381	0.39105
2491.70524	0.39022
2489.77668	0.38960
2487.84811	0.38918
2485.91955	0.38857
2483.99098	0.38779
2482.06242	0.38735
2480.13386	0.38736
2478.20529	0.38734
2476.27673	0.38694
2474.34816	0.38618
2472.41960	0.38552
2470.49103	0.38523
2468.56247	0.38495
2466.63391	0.38456
2464.70534	0.38433
2462.77678	0.38411
2460.84821	0.38358
2458.91965	0.38285
2456.99108	0.38231
2455.06252	0.38211
2453.13395	0.38211
2451.20539	0.38195
2449.27683	0.38153
2447.34826	0.38098
2445.41970	0.38057
2443.49113	0.38058
2441.56257	0.38079
2439.63400	0.38068
2437.70544	0.38025
2435.77687	0.37978
2433.84831	0.37928
2431.91975	0.37881
2429.99118	0.37836
2428.06262	0.37780
2426.13405	0.37706
2424.20549	0.37611
2422.27692	0.37519
2420.34836	0.37443
2418.41979	0.37353
2416.49123	0.37267
2414.56267	0.37208
2412.63410	0.37144
2410.70554	0.37072
2408.77697	0.37012
2406.84841	0.36951
2404.91984	0.36881
2402.99128	0.36824
2401.06271	0.36784
2399.13415	0.36740
2397.20559	0.36694
2395.27702	0.36676
2393.34846	0.36681
2391.41989	0.36671
2389.49133	0.36643
2387.56276	0.36628
2385.63420	0.36660
2383.70563	0.36757
2381.77707	0.36906
2379.84851	0.37096
2377.91994	0.37317
2375.99138	0.37564
2374.06281	0.37876
2372.13425	0.38260
2370.20568	0.38592
2368.27712	0.38807
2366.34855	0.38964
2364.41999	0.39093
2362.49143	0.39200
2360.56286	0.39300
2358.63430	0.39385
2356.70573	0.39257
2354.77717	0.38763
2352.84860	0.38119
2350.92004	0.37623
2348.99147	0.37403
2347.06291	0.37468
2345.13435	0.37779
2343.20578	0.38139
2341.27722	0.38271
2339.34865	0.38094
2337.42009	0.37811
2335.49152	0.37700
2333.56296	0.37791
2331.63440	0.37900
2329.70583	0.37861
2327.77727	0.37643
2325.84870	0.37362
2323.92014	0.37154
2321.99157	0.37002
2320.06301	0.36801
2318.13444	0.36559
2316.20588	0.36362
2314.27732	0.36236
2312.34875	0.36111
2310.42019	0.35953
2308.49162	0.35804
2306.56306	0.35662
2304.63449	0.35508
2302.70593	0.35375
2300.77736	0.35274
2298.84880	0.35177
2296.92024	0.35076
2294.99167	0.34978
2293.06311	0.34905
2291.13454	0.34872
2289.20598	0.34853
2287.27741	0.34829
2285.34885	0.34804
2283.42028	0.34766
2281.49172	0.34729
2279.56316	0.34719
2277.63459	0.34730
2275.70603	0.34735
2273.77746	0.34711
2271.84890	0.34652
2269.92033	0.34566
2267.99177	0.34488
2266.06320	0.34440
2264.13464	0.34389
2262.20608	0.34311
2260.27751	0.34235
2258.34895	0.34186
2256.42038	0.34141
2254.49182	0.34074
2252.56325	0.33988
2250.63469	0.33907
2248.70612	0.33828
2246.77756	0.33738
2244.84900	0.33654
2242.92043	0.33603
2240.99187	0.33579
2239.06330	0.33548
2237.13474	0.33476
2235.20617	0.33371
2233.27761	0.33285
2231.34904	0.33238
2229.42048	0.33199
2227.49192	0.33162
2225.56335	0.33138
2223.63479	0.33128
2221.70622	0.33125
2219.77766	0.33112
2217.84909	0.33093
2215.92053	0.33083
2213.99196	0.33075
2212.06340	0.33069
2210.13484	0.33081
2208.20627	0.33119
2206.27771	0.33165
2204.34914	0.33191
2202.42058	0.33192
2200.49201	0.33181
2198.56345	0.33170
2196.63488	0.33141
2194.70632	0.33101
2192.77776	0.33085
2190.84919	0.33102
2188.92063	0.33129
2186.99206	0.33141
2185.06350	0.33132
2183.13493	0.33115
2181.20637	0.33088
2179.27781	0.33045
2177.34924	0.32990
2175.42068	0.32942
2173.49211	0.32915
2171.56355	0.32898
2169.63498	0.32866
2167.70642	0.32826
2165.77785	0.32803
2163.84929	0.32773
2161.92073	0.32720
2159.99216	0.32678
2158.06360	0.32653
2156.13503	0.32620
2154.20647	0.32588
2152.27790	0.32564
2150.34934	0.32533
2148.42077	0.32484
2146.49221	0.32419
2144.56365	0.32367
2142.63508	0.32348
2140.70652	0.32324
2138.77795	0.32268
2136.84939	0.32211
2134.92082	0.32169
2132.99226	0.32125
2131.06369	0.32077
2129.13513	0.32034
2127.20657	0.32000
2125.27800	0.31956
2123.34944	0.31898
2121.42087	0.31849
2119.49231	0.31806
2117.56374	0.31759
2115.63518	0.31725
2113.70661	0.31707
2111.77805	0.31694
2109.84949	0.31680
2107.92092	0.31674
2105.99236	0.31672
2104.06379	0.31672
2102.13523	0.31691
2100.20666	0.31719
2098.27810	0.31727
2096.34953	0.31727
2094.42097	0.31731
2092.49241	0.31726
2090.56384	0.31705
2088.63528	0.31665
2086.70671	0.31613
2084.77815	0.31572
2082.84958	0.31542
2080.92102	0.31505
2078.99245	0.31462
2077.06389	0.31429
2075.13533	0.31386
2073.20676	0.31316
2071.27820	0.31243
2069.34963	0.31187
2067.42107	0.31143
2065.49250	0.31090
2063.56394	0.31018
2061.63537	0.30952
2059.70681	0.30914
2057.77825	0.30887
2055.84968	0.30851
2053.92112	0.30818
2051.99255	0.30793
2050.06399	0.30773
2048.13542	0.30756
2046.20686	0.30737
2044.27830	0.30706
2042.34973	0.30662
2040.42117	0.30624
2038.49260	0.30598
2036.56404	0.30568
2034.63547	0.30524
2032.70691	0.30481
2030.77834	0.30453
2028.84978	0.30422
2026.92122	0.30367
2024.99265	0.30295
2023.06409	0.30222
2021.13552	0.30149
2019.20696	0.30089
2017.27839	0.30042
2015.34983	0.29978
2013.42126	0.29904
2011.49270	0.29851
2009.56414	0.29835
2007.63557	0.29846
2005.70701	0.29845
2003.77844	0.29817
2001.84988	0.29793
1999.92131	0.29803
1997.99275	0.29825
1996.06418	0.29830
1994.13562	0.29827
1992.20706	0.29820
1990.27849	0.29784
1988.34993	0.29709
1986.42136	0.29619
1984.49280	0.29551
1982.56423	0.29516
1980.63567	0.29483
1978.70710	0.29429
1976.77854	0.29357
1974.84998	0.29284
1972.92141	0.29213
1970.99285	0.29139
1969.06428	0.29066
1967.13572	0.29004
1965.20715	0.28930
1963.27859	0.28824
1961.35002	0.28702
1959.42146	0.28598
1957.49290	0.28526
1955.56433	0.28473
1953.63577	0.28412
1951.70720	0.28333
1949.77864	0.28261
1947.85007	0.28210
1945.92151	0.28173
1943.99294	0.28145
1942.06438	0.28107
1940.13582	0.28039
1938.20725	0.27982
1936.27869	0.27972
1934.35012	0.27975
1932.42156	0.27955
1930.49299	0.27921
1928.56443	0.27892
1926.63586	0.27886
1924.70730	0.27924
1922.77874	0.27975
1920.85017	0.27983
1918.92161	0.27992
1916.99304	0.28008
1915.06448	0.27988
1913.13591	0.27981
1911.20735	0.28017
1909.27878	0.28053
1907.35022	0.28058
1905.42166	0.28073
1903.49309	0.28117
1901.56453	0.28158
1899.63596	0.28192
1897.70740	0.28242
1895.77883	0.28300
1893.85027	0.28318
1891.92171	0.28300
1889.99314	0.28288
1888.06458	0.28261
1886.13601	0.28227
1884.20745	0.28218
1882.27888	0.28210
1880.35032	0.28177
1878.42175	0.28123
1876.49319	0.28060
1874.56463	0.27997
1872.63606	0.27962
1870.70750	0.27987
1868.77893	0.28035
1866.85037	0.27985
1864.92180	0.27870
1862.99324	0.27792
1861.06467	0.27762
1859.13611	0.27751
1857.20755	0.27733
1855.27898	0.27693
1853.35042	0.27640
1851.42185	0.27589
1849.49329	0.27556
1847.56472	0.27539
1845.63616	0.27509
1843.70759	0.27397
1841.77903	0.27222
1839.85047	0.27092
1837.92190	0.27034
1835.99334	0.27011
1834.06477	0.26991
1832.13621	0.27023
1830.20764	0.27134
1828.27908	0.27212
1826.35051	0.27239
1824.42195	0.27289
1822.49339	0.27329
1820.56482	0.27371
1818.63626	0.27470
1816.70769	0.27603
1814.77913	0.27726
1812.85056	0.27852
1810.92200	0.27997
1808.99343	0.28105
1807.06487	0.28159
1805.13631	0.28207
1803.20774	0.28267
1801.27918	0.28334
1799.35061	0.28389
1797.42205	0.28421
1795.49348	0.28434
1793.56492	0.28453
1791.63635	0.28454
1789.70779	0.28372
1787.77923	0.28292
1785.85066	0.28285
1783.92210	0.28346
1781.99353	0.28431
1780.06497	0.28503
1778.13640	0.28557
1776.20784	0.28639
1774.27927	0.28829
1772.35071	0.29115
1770.42215	0.29290
1768.49358	0.29384
1766.56502	0.29503
1764.63645	0.29655
1762.70789	0.29908
1760.77932	0.30215
1758.85076	0.30480
1756.92220	0.30842
1754.99363	0.31255
1753.06507	0.31685
1751.13650	0.32365
1749.20794	0.33259
1747.27937	0.33987
1745.35081	0.34557
1743.42224	0.35077
1741.49368	0.35576
1739.56512	0.36053
1737.63655	0.36402
1735.70799	0.36709
1733.77942	0.37179
1731.85086	0.37498
1729.92229	0.37672
1727.99373	0.37901
1726.06516	0.38215
1724.13660	0.38701
1722.20804	0.39270
1720.27947	0.39853
1718.35091	0.40821
1716.42234	0.42387
1714.49378	0.43624
1712.56521	0.44601
1710.63665	0.45740
1708.70808	0.47172
1706.77952	0.49281
1704.85096	0.51983
1702.92239	0.54382
1700.99383	0.57705
1699.06526	0.62805
1697.13670	0.67235
1695.20813	0.71170
1693.27957	0.73963
1691.35100	0.76176
1689.42244	0.78885
1687.49388	0.81456
1685.56531	0.84100
1683.63675	0.87773
1681.70818	0.90108
1679.77962	0.91496
1677.85105	0.92984
1675.92249	0.94800
1673.99392	0.96633
1672.06536	0.98065
1670.13680	0.99719
1668.20823	1.01413
1666.27967	1.02271
1664.35110	1.03006
1662.42254	1.04084
1660.49397	1.04976
1658.56541	1.05483
1656.63684	1.05803
1654.70828	1.06233
1652.77972	1.06845
1650.85115	1.06837
1648.92259	1.06607
1646.99402	1.06480
1645.06546	1.06387
1643.13689	1.06135
1641.20833	1.05890
1639.27976	1.05701
1637.35120	1.05571
1635.42264	1.05408
1633.49407	1.05057
1631.56551	1.04662
1629.63694	1.04230
1627.70838	1.03736
1625.77981	1.03117
1623.85125	1.02175
1621.92269	1.00863
1619.99412	0.99623
1618.06556	0.98146
1616.13699	0.95878
1614.20843	0.93819
1612.27986	0.92084
1610.35130	0.90256
1608.42273	0.88462
1606.49417	0.86956
1604.56561	0.85786
1602.63704	0.84922
1600.70848	0.84359
1598.77991	0.84036
1596.85135	0.83906
1594.92278	0.83941
1592.99422	0.84108
1591.06565	0.84429
1589.13709	0.84932
1587.20853	0.85596
1585.27996	0.86420
1583.35140	0.87428
1581.42283	0.88523
1579.49427	0.89591
1577.56570	0.90863
1575.63714	0.92402
1573.70857	0.93349
1571.78001	0.94057
1569.85145	0.95218
1567.92288	0.96415
1565.99432	0.97289
1564.06575	0.98199
1562.13719	0.99008
1560.20862	0.99920
1558.28006	1.01078
1556.35149	1.01217
1554.42293	1.01206
1552.49437	1.01277
1550.56580	1.01346
1548.63724	1.01375
1546.70867	1.01380
1544.78011	1.01439
1542.85154	1.01587
1540.92298	1.01335
1538.99441	1.00333
1537.06585	0.99747
1535.13729	0.99356
1533.20872	0.98830
1531.28016	0.98300
1529.35159	0.97975
1527.42303	0.97765
1525.49446	0.97587
1523.56590	0.97550
1521.63733	0.97575
1519.70877	0.97411
1517.78021	0.96921
1515.85164	0.95978
1513.92308	0.94860
1511.99451	0.93814
1510.06595	0.92908
1508.13738	0.91488
1506.20882	0.88397
1504.28025	0.86390
1502.35169	0.85142
1500.42313	0.83776
1498.49456	0.81991
1496.56600	0.79836
1494.63743	0.78144
1492.70887	0.77016
1490.78030	0.75795
1488.85174	0.74181
1486.92317	0.72855
1484.99461	0.71970
1483.06605	0.71340
1481.13748	0.70940
1479.20892	0.70860
1477.28035	0.71174
1475.35179	0.71917
1473.42322	0.73213
1471.49466	0.74601
1469.56610	0.75402
1467.63753	0.76008
1465.70897	0.76782
1463.78040	0.77548
1461.85184	0.77992
1459.92327	0.78406
1457.99471	0.79306
1456.06614	0.80113
1454.13758	0.80098
1452.20902	0.79985
1450.28045	0.79941
1448.35189	0.79853
1446.42332	0.79608
1444.49476	0.79263
1442.56619	0.78868
1440.63763	0.78471
1438.70906	0.78056
1436.78050	0.77411
1434.85194	0.76615
1432.92337	0.75950
1430.99481	0.75305
1429.06624	0.74681
1427.13768	0.74252
1425.20911	0.74043
1423.28055	0.74006
1421.35198	0.74085
1419.42342	0.74313
1417.49486	0.74554
1415.56629	0.74576
1413.63773	0.74502
1411.70916	0.74437
1409.78060	0.74424
1407.85203	0.74472
1405.92347	0.74601
1403.99490	0.74801
1402.06634	0.75009
1400.13778	0.75255
1398.20921	0.75536
1396.28065	0.75794
1394.35208	0.76024
1392.42352	0.76256
1390.49495	0.76631
1388.56639	0.77409
1386.63782	0.78610
1384.70926	0.79774
1382.78070	0.80755
1380.85213	0.81525
1378.92357	0.81854
1376.99500	0.81614
1375.06644	0.80753
1373.13787	0.79392
1371.20931	0.77930
1369.28074	0.76335
1367.35218	0.74633
1365.42362	0.73131
1363.49505	0.71735
1361.56649	0.70432
1359.63792	0.69526
1357.70936	0.68972
1355.78079	0.68611
1353.85223	0.68401
1351.92366	0.68330
1349.99510	0.68329
1348.06654	0.68336
1346.13797	0.68376
1344.20941	0.68512
1342.28084	0.68757
1340.35228	0.69136
1338.42371	0.69628
1336.49515	0.70196
1334.56659	0.70948
1332.63802	0.71936
1330.70946	0.73042
1328.78089	0.74047
1326.85233	0.74758
1324.92376	0.75183
1322.99520	0.75507
1321.06663	0.75837
1319.13807	0.76154
1317.20951	0.76439
1315.28094	0.76664
1313.35238	0.76807
1311.42381	0.76882
1309.49525	0.76888
1307.56668	0.76780
1305.63812	0.76542
1303.70955	0.76224
1301.78099	0.75865
1299.85243	0.75449
1297.92386	0.74952
1295.99530	0.74458
1294.06673	0.74100
1292.13817	0.73892
1290.20960	0.73791
1288.28104	0.73791
1286.35247	0.73873
1284.42391	0.73984
1282.49535	0.74106
1280.56678	0.74241
1278.63822	0.74422
1276.70965	0.74740
1274.78109	0.75228
1272.85252	0.75844
1270.92396	0.76568
1268.99539	0.77371
1267.06683	0.78156
1265.13827	0.78794
1263.20970	0.79235
1261.28114	0.79509
1259.35257	0.79625
1257.42401	0.79636
1255.49544	0.79655
1253.56688	0.79717
1251.63831	0.79783
1249.70975	0.79819
1247.78119	0.79798
1245.85262	0.79732
1243.92406	0.79662
1241.99549	0.79587
1240.06693	0.79487
1238.13836	0.79301
1236.20980	0.78948
1234.28123	0.78475
1232.35267	0.77963
1230.42411	0.77347
1228.49554	0.76575
1226.56698	0.75728
1224.63841	0.74856
1222.70985	0.73949
1220.78128	0.73029
1218.85272	0.72168
1216.92415	0.71466
1214.99559	0.70966
1213.06703	0.70691
1211.13846	0.70679
1209.20990	0.70859
1207.28133	0.70998
1205.35277	0.70870
1203.42420	0.70407
1201.49564	0.69669
1199.56708	0.68778
1197.63851	0.67823
1195.70995	0.66862
1193.78138	0.66032
1191.85282	0.65440
1189.92425	0.65039
1187.99569	0.64764
1186.06712	0.64606
1184.13856	0.64586
1182.21000	0.64737
1180.28143	0.65072
1178.35287	0.65594
1176.42430	0.66304
1174.49574	0.67149
1172.56717	0.68049
1170.63861	0.69046
1168.71004	0.70248
1166.78148	0.71663
1164.85292	0.73194
1162.92435	0.74645
1160.99579	0.75719
1159.06722	0.76248
1157.13866	0.76300
1155.21009	0.75917
1153.28153	0.75099
1151.35296	0.73947
1149.42440	0.72585
1147.49584	0.71153
1145.56727	0.69858
1143.63871	0.68831
1141.71014	0.68091
1139.78158	0.67673
1137.85301	0.67602
1135.92445	0.67794
1133.99588	0.68202
1132.06732	0.68910
1130.13876	0.70015
1128.21019	0.71447
1126.28163	0.72927
1124.35306	0.74259
1122.42450	0.75461
1120.49593	0.76512
1118.56737	0.77314
1116.63880	0.77810
1114.71024	0.77919
1112.78168	0.77627
1110.85311	0.77123
1108.92455	0.76576
1106.99598	0.75991
1105.06742	0.75418
1103.13885	0.74994
1101.21029	0.74786
1099.28172	0.74785
1097.35316	0.75026
1095.42460	0.75582
1093.49603	0.76449
1091.56747	0.77521
1089.63890	0.78730
1087.71034	0.80149
1085.78177	0.81809
1083.85321	0.83536
1081.92464	0.85074
1079.99608	0.86256
1078.06752	0.87056
1076.13895	0.87482
1074.21039	0.87479
1072.28182	0.87120
1070.35326	0.86550
1068.42469	0.85819
1066.49613	0.85003
1064.56756	0.84112
1062.63900	0.83046
1060.71044	0.81796
1058.78187	0.80411
1056.85331	0.79018
1054.92474	0.77796
1052.99618	0.76769
1051.06761	0.75899
1049.13905	0.75301
1047.21049	0.75114
1045.28192	0.75365
1043.35336	0.75974
1041.42479	0.76830
1039.49623	0.77789
1037.56766	0.78634
1035.63910	0.79242
1033.71053	0.79659
1031.78197	0.79841
1029.85341	0.79723
1027.92484	0.79354
1025.99628	0.78767
1024.06771	0.78036
1022.13915	0.77332
1020.21058	0.76821
1018.28202	0.76506
1016.35345	0.76165
1014.42489	0.75527
1012.49633	0.74461
1010.56776	0.72981
1008.63920	0.71156
1006.71063	0.69133
1004.78207	0.67100
1002.85350	0.65181
1000.92494	0.63464
998.99637	0.62041
997.06781	0.60917
995.13925	0.60000
993.21068	0.59158
991.28212	0.58264
989.35355	0.57279
987.42499	0.56300
985.49642	0.55446
983.56786	0.54766
981.63929	0.54281
979.71073	0.53979
977.78217	0.53762
975.85360	0.53526
973.92504	0.53198
971.99647	0.52677
970.06791	0.51956
968.13934	0.51181
966.21078	0.50486
964.28221	0.49932
962.35365	0.49659
960.42509	0.49873
958.49652	0.50628
956.56796	0.51639
954.63939	0.52362
952.71083	0.52417
950.78226	0.51836
948.85370	0.50889
946.92513	0.49860
944.99657	0.48958
943.06801	0.48267
941.13944	0.47755
939.21088	0.47320
937.28231	0.46917
935.35375	0.46582
933.42518	0.46324
931.49662	0.46104
929.56805	0.45909
927.63949	0.45766
925.71093	0.45708
923.78236	0.45703
921.85380	0.45671
919.92523	0.45554
917.99667	0.45339
916.06810	0.45086
914.13954	0.44916
912.21098	0.44878
910.28241	0.44950
908.35385	0.45135
906.42528	0.45419
904.49672	0.45753
902.56815	0.46108
900.63959	0.46460
898.71102	0.46737
896.78246	0.46868
894.85390	0.46830
892.92533	0.46666
890.99677	0.46433
889.06820	0.46165
887.13964	0.45902
885.21107	0.45686
883.28251	0.45511
881.35394	0.45344
879.42538	0.45193
877.49682	0.45067
875.56825	0.44927
873.63969	0.44764
871.71112	0.44611
869.78256	0.44498
867.85399	0.44410
865.92543	0.44308
863.99686	0.44195
862.06830	0.44114
860.13974	0.44086
858.21117	0.44108
856.28261	0.44172
854.35404	0.44298
852.42548	0.44478
850.49691	0.44637
848.56835	0.44732
846.63978	0.44815
844.71122	0.44935
842.78266	0.45077
840.85409	0.45247
838.92553	0.45477
836.99696	0.45742
835.06840	0.45984
833.13983	0.46190
831.21127	0.46401
829.28270	0.46641
827.35414	0.46872
825.42558	0.47050
823.49701	0.47156
821.56845	0.47214
819.63988	0.47287
817.71132	0.47369
815.78275	0.47411
813.85419	0.47419
811.92562	0.47407
809.99706	0.47374
808.06850	0.47358
806.13993	0.47380
804.21137	0.47371
802.28280	0.47317
800.35424	0.47303
798.42567	0.47353
796.49711	0.47404
794.56854	0.47442
792.63998	0.47493
790.71142	0.47565
788.78285	0.47655
786.85429	0.47768
784.92572	0.47907
782.99716	0.48025
781.06859	0.48083
779.14003	0.48124
777.21147	0.48165
775.28290	0.48215
773.35434	0.48328
771.42577	0.48517
769.49721	0.48716
767.56864	0.48867
765.64008	0.48970
763.71151	0.49083
761.78295	0.49280
759.85439	0.49549
757.92582	0.49827
755.99726	0.50116
754.06869	0.50429
752.14013	0.50728
750.21156	0.50985
748.28300	0.51215
746.35443	0.51395
744.42587	0.51505
742.49731	0.51587
740.56874	0.51656
738.64018	0.51678
736.71161	0.51660
734.78305	0.51636
732.85448	0.51610
730.92592	0.51577
728.99735	0.51555
727.06879	0.51526
725.14023	0.51509
723.21166	0.51606
721.28310	0.51811
719.35453	0.51942
717.42597	0.51939
715.49740	0.51938
713.56884	0.52013
711.64027	0.52165
709.71171	0.52369
707.78315	0.52575
705.85458	0.52751
703.92602	0.52885
701.99745	0.52967
700.06889	0.52973
698.14032	0.52898
696.21176	0.52807
694.28319	0.52736
692.35463	0.52614
690.42607	0.52369
688.49750	0.52036
686.56894	0.51683
684.64037	0.51311
682.71181	0.50929
680.78324	0.50586
678.85468	0.50319
676.92611	0.50141
674.99755	0.49997
673.06899	0.49889
671.14042	0.49952
669.21186	0.50188
667.28329	0.50245
665.35473	0.50212
663.42616	0.50371
661.49760	0.50678
659.56903	0.51073
657.64047	0.51509
655.71191	0.51943
653.78334	0.52412
651.85478	0.52954
649.92621	0.53561
647.99765	0.54114
646.06908	0.54502
644.14052	0.54842
642.21195	0.55246
640.28339	0.55639
638.35483	0.55908
636.42626	0.55918
634.49770	0.55527
632.56913	0.54874
630.64057	0.54248
628.71200	0.53732
626.78344	0.53293
624.85488	0.52876
622.92631	0.52453
620.99775	0.52133
619.06918	0.51883
617.14062	0.51497
615.21205	0.51104
613.28349	0.50978
611.35492	0.51040
609.42636	0.51032
607.49780	0.50884
605.56923	0.50828
603.64067	0.51010
601.71210	0.51274
599.78354	0.51536
