3997.91406	0.38825
3995.98550	0.38795
3994.05693	0.38822
3992.12837	0.38847
3990.19980	0.38798
3988.27124	0.38731
3986.34268	0.38714
3984.41411	0.38760
3982.48555	0.38826
3980.55698	0.38771
3978.62842	0.38521
3976.69985	0.38285
3974.77129	0.38281
3972.84272	0.38401
3970.91416	0.38497
3968.98560	0.38542
3967.05703	0.38507
3965.12847	0.38432
3963.19990	0.38358
3961.27134	0.38273
3959.34277	0.38194
3957.41421	0.38121
3955.48564	0.38024
3953.55708	0.37936
3951.62852	0.37907
3949.69995	0.37986
3947.77139	0.38093
3945.84282	0.38038
3943.91426	0.37964
3941.98569	0.38077
3940.05713	0.38145
3938.12856	0.38017
3936.20000	0.37834
3934.27144	0.37728
3932.34287	0.37769
3930.41431	0.37832
3928.48574	0.37693
3926.55718	0.37498
3924.62861	0.37531
3922.70005	0.37661
3920.77148	0.37674
3918.84292	0.37662
3916.91436	0.37694
3914.98579	0.37676
3913.05723	0.37551
3911.12866	0.37368
3909.20010	0.37099
3907.27153	0.36722
3905.34297	0.36504
3903.41440	0.36742
3901.48584	0.37112
3899.55728	0.37338
3897.62871	0.37375
3895.70015	0.37108
3893.77158	0.36689
3891.84302	0.36645
3889.91445	0.36854
3887.98589	0.36727
3886.05733	0.36601
3884.12876	0.36750
3882.20020	0.36833
3880.27163	0.37018
3878.34307	0.37157
3876.41450	0.36960
3874.48594	0.36651
3872.55737	0.36412
3870.62881	0.36384
3868.70025	0.36534
3866.77168	0.36509
3864.84312	0.36563
3862.91455	0.36896
3860.98599	0.37076
3859.05742	0.36892
3857.12886	0.36257
3855.20029	0.35361
3853.27173	0.35620
3851.34317	0.36499
3849.41460	0.36605
3847.48604	0.36472
3845.55747	0.36301
3843.62891	0.36079
3841.70034	0.35899
3839.77178	0.35880
3837.84321	0.35953
3835.91465	0.35921
3833.98609	0.35934
3832.05752	0.36106
3830.12896	0.36239
3828.20039	0.36252
3826.27183	0.36149
3824.34326	0.35717
3822.41470	0.35174
3820.48613	0.35282
3818.55757	0.35552
3816.62901	0.35698
3814.70044	0.36025
3812.77188	0.36164
3810.84331	0.35991
3808.91475	0.35681
3806.98618	0.35572
3805.05762	0.35458
3803.12905	0.35093
3801.20049	0.35173
3799.27193	0.35660
3797.34336	0.36056
3795.41480	0.36318
3793.48623	0.36258
3791.55767	0.36051
3789.62910	0.35931
3787.70054	0.35886
3785.77197	0.35911
3783.84341	0.35938
3781.91485	0.35827
3779.98628	0.35778
3778.05772	0.35882
3776.12915	0.35855
3774.20059	0.35685
3772.27202	0.35496
3770.34346	0.35510
3768.41489	0.35700
3766.48633	0.35751
3764.55777	0.35648
3762.62920	0.35331
3760.70064	0.34957
3758.77207	0.35024
3756.84351	0.35272
3754.91494	0.35084
3752.98638	0.34493
3751.05781	0.34309
3749.12925	0.34783
3747.20069	0.34668
3745.27212	0.34490
3743.34356	0.35169
3741.41499	0.35547
3739.48643	0.34999
3737.55786	0.33995
3735.62930	0.33919
3733.70074	0.35077
3731.77217	0.35738
3729.84361	0.35848
3727.91504	0.35799
3725.98648	0.35687
3724.05791	0.35548
3722.12935	0.35517
3720.20078	0.35649
3718.27222	0.35717
3716.34366	0.35536
3714.41509	0.35155
3712.48653	0.35050
3710.55796	0.35678
3708.62940	0.36032
3706.70083	0.35842
3704.77227	0.35509
3702.84370	0.35353
3700.91514	0.35491
3698.98658	0.35643
3697.05801	0.35701
3695.12945	0.35638
3693.20088	0.35363
3691.27232	0.34972
3689.34375	0.35088
3687.41519	0.35687
3685.48662	0.36033
3683.55806	0.36151
3681.62950	0.36169
3679.70093	0.36031
3677.77237	0.35721
3675.84380	0.35941
3673.91524	0.36550
3671.98667	0.36759
3670.05811	0.37350
3668.12954	0.37991
3666.20098	0.38146
3664.27242	0.38285
3662.34385	0.38482
3660.41529	0.38583
3658.48672	0.38617
3656.55816	0.38786
3654.62959	0.38887
3652.70103	0.38624
3650.77246	0.38522
3648.84390	0.39807
3646.91534	0.40970
3644.98677	0.41187
3643.05821	0.41249
3641.12964	0.41430
3639.20108	0.41676
3637.27251	0.41929
3635.34395	0.42260
3633.41538	0.42507
3631.48682	0.42411
3629.55826	0.42713
3627.62969	0.43974
3625.70113	0.44668
3623.77256	0.44820
3621.84400	0.44896
3619.91543	0.45229
3617.98687	0.45744
3616.05830	0.46001
3614.12974	0.46230
3612.20118	0.46678
3610.27261	0.47217
3608.34405	0.47813
3606.41548	0.48312
3604.48692	0.48632
3602.55835	0.48953
3600.62979	0.49348
3598.70123	0.49712
3596.77266	0.50038
3594.84410	0.50531
3592.91553	0.50981
3590.98697	0.50998
3589.05840	0.51053
3587.12984	0.51928
3585.20127	0.52874
3583.27271	0.53310
3581.34415	0.53607
3579.41558	0.53890
3577.48702	0.54199
3575.55845	0.54673
3573.62989	0.55167
3571.70132	0.55410
3569.77276	0.55441
3567.84419	0.55823
3565.91563	0.56863
3563.98707	0.57657
3562.05850	0.58105
3560.12994	0.58463
3558.20137	0.58729
3556.27281	0.58901
3554.34424	0.59160
3552.41568	0.59719
3550.48711	0.60332
3548.55855	0.60710
3546.62999	0.61139
3544.70142	0.61891
3542.77286	0.62594
3540.84429	0.63065
3538.91573	0.63524
3536.98716	0.64084
3535.05860	0.64606
3533.13003	0.64944
3531.20147	0.65189
3529.27291	0.65511
3527.34434	0.65959
3525.41578	0.66454
3523.48721	0.66970
3521.55865	0.67547
3519.63008	0.68153
3517.70152	0.68768
3515.77295	0.69286
3513.84439	0.69658
3511.91583	0.70102
3509.98726	0.70738
3508.05870	0.71366
3506.13013	0.72015
3504.20157	0.72894
3502.27300	0.73673
3500.34444	0.74175
3498.41587	0.74842
3496.48731	0.75697
3494.55875	0.76329
3492.63018	0.76658
3490.70162	0.77033
3488.77305	0.77605
3486.84449	0.78036
3484.91592	0.78079
3482.98736	0.78069
3481.05879	0.78411
3479.13023	0.78927
3477.20167	0.79324
3475.27310	0.79671
3473.34454	0.80116
3471.41597	0.80592
3469.48741	0.80929
3467.55884	0.81146
3465.63028	0.81362
3463.70171	0.81646
3461.77315	0.81996
3459.84459	0.82255
3457.91602	0.82427
3455.98746	0.82710
3454.05889	0.83017
3452.13033	0.83138
3450.20176	0.83193
3448.27320	0.83456
3446.34464	0.83847
3444.41607	0.84028
3442.48751	0.84049
3440.55894	0.84188
3438.63038	0.84527
3436.70181	0.84838
3434.77325	0.84945
3432.84468	0.85035
3430.91612	0.85076
3428.98756	0.84839
3427.05899	0.84664
3425.13043	0.84851
3423.20186	0.85037
3421.27330	0.85035
3419.34473	0.84998
3417.41617	0.84909
3415.48760	0.84895
3413.55904	0.85043
3411.63048	0.85228
3409.70191	0.85371
3407.77335	0.85447
3405.84478	0.85598
3403.91622	0.85808
3401.98765	0.85809
3400.05909	0.85715
3398.13052	0.85783
3396.20196	0.85942
3394.27340	0.86132
3392.34483	0.86368
3390.41627	0.86553
3388.48770	0.86633
3386.55914	0.86587
3384.63057	0.86498
3382.70201	0.86539
3380.77344	0.86727
3378.84488	0.86987
3376.91632	0.87187
3374.98775	0.87269
3373.05919	0.87321
3371.13062	0.87290
3369.20206	0.87206
3367.27349	0.87375
3365.34493	0.87809
3363.41636	0.88124
3361.48780	0.88185
3359.55924	0.88196
3357.63067	0.88294
3355.70211	0.88510
3353.77354	0.88765
3351.84498	0.88848
3349.91641	0.88708
3347.98785	0.88502
3346.05928	0.88522
3344.13072	0.88905
3342.20216	0.89343
3340.27359	0.89632
3338.34503	0.89873
3336.41646	0.90134
3334.48790	0.90553
3332.55933	0.91081
3330.63077	0.91353
3328.70220	0.91335
3326.77364	0.91476
3324.84508	0.91948
3322.91651	0.92423
3320.98795	0.92722
3319.05938	0.93063
3317.13082	0.93528
3315.20225	0.93815
3313.27369	0.93868
3311.34513	0.94077
3309.41656	0.94457
3307.48800	0.94647
3305.55943	0.94701
3303.63087	0.94834
3301.70230	0.94982
3299.77374	0.95171
3297.84517	0.95465
3295.91661	0.95734
3293.98805	0.95845
3292.05948	0.95781
3290.13092	0.95738
3288.20235	0.95906
3286.27379	0.96229
3284.34522	0.96457
3282.41666	0.96317
3280.48809	0.96012
3278.55953	0.95875
3276.63097	0.95662
3274.70240	0.95366
3272.77384	0.95381
3270.84527	0.95475
3268.91671	0.95298
3266.98814	0.95023
3265.05958	0.94812
3263.13101	0.94646
3261.20245	0.94387
3259.27389	0.93923
3257.34532	0.93511
3255.41676	0.93229
3253.48819	0.92775
3251.55963	0.92200
3249.63106	0.91679
3247.70250	0.91230
3245.77393	0.90961
3243.84537	0.90759
3241.91681	0.90423
3239.98824	0.90028
3238.05968	0.89584
3236.13111	0.88952
3234.20255	0.88205
3232.27398	0.87692
3230.34542	0.87624
3228.41685	0.87736
3226.48829	0.87579
3224.55973	0.87091
3222.63116	0.86572
3220.70260	0.86154
3218.77403	0.85749
3216.84547	0.85329
3214.91690	0.84984
3212.98834	0.84783
3211.05977	0.84660
3209.13121	0.84426
3207.20265	0.83892
3205.27408	0.83237
3203.34552	0.82835
3201.41695	0.82617
3199.48839	0.82294
3197.55982	0.81891
3195.63126	0.81589
3193.70269	0.81394
3191.77413	0.81224
3189.84557	0.81032
3187.91700	0.80735
3185.98844	0.80391
3184.05987	0.80117
3182.13131	0.79900
3180.20274	0.79728
3178.27418	0.79454
3176.34562	0.79019
3174.41705	0.78679
3172.48849	0.78517
3170.55992	0.78298
3168.63136	0.77918
3166.70279	0.77571
3164.77423	0.77354
3162.84566	0.77141
3160.91710	0.76855
3158.98854	0.76529
3157.05997	0.76164
3155.13141	0.75798
3153.20284	0.75593
3151.27428	0.75553
3149.34571	0.75459
3147.41715	0.75206
3145.48858	0.74930
3143.56002	0.74804
3141.63146	0.74743
3139.70289	0.74574
3137.77433	0.74322
3135.84576	0.74052
3133.91720	0.73915
3131.98863	0.74068
3130.06007	0.74284
3128.13150	0.74226
3126.20294	0.73928
3124.27438	0.73735
3122.34581	0.73869
3120.41725	0.74132
3118.48868	0.74303
3116.56012	0.74456
3114.63155	0.74609
3112.70299	0.74658
3110.77442	0.74630
3108.84586	0.74609
3106.91730	0.74596
3104.98873	0.74574
3103.06017	0.74551
3101.13160	0.74495
3099.20304	0.74362
3097.27447	0.74214
3095.34591	0.74115
3093.41734	0.73996
3091.48878	0.73826
3089.56022	0.73692
3087.63165	0.73610
3085.70309	0.73490
3083.77452	0.73272
3081.84596	0.72967
3079.91739	0.72627
3077.98883	0.72344
3076.06026	0.72161
3074.13170	0.72017
3072.20314	0.71797
3070.27457	0.71432
3068.34601	0.71087
3066.41744	0.70935
3064.48888	0.70831
3062.56031	0.70642
3060.63175	0.70409
3058.70318	0.70111
3056.77462	0.69784
3054.84606	0.69543
3052.91749	0.69354
3050.98893	0.69136
3049.06036	0.68945
3047.13180	0.68842
3045.20323	0.68767
3043.27467	0.68600
3041.34610	0.68358
3039.41754	0.68192
3037.48898	0.68093
3035.56041	0.67931
3033.63185	0.67747
3031.70328	0.67644
3029.77472	0.67546
3027.84615	0.67347
3025.91759	0.67048
3023.98903	0.66720
3022.06046	0.66483
3020.13190	0.66306
3018.20333	0.66059
3016.27477	0.65809
3014.34620	0.65650
3012.41764	0.65511
3010.48907	0.65358
3008.56051	0.65247
3006.63195	0.65157
3004.70338	0.65038
3002.77482	0.64922
3000.84625	0.64838
2998.91769	0.64758
2996.98912	0.64739
2995.06056	0.64875
2993.13199	0.65103
2991.20343	0.65342
2989.27487	0.65632
2987.34630	0.65985
2985.41774	0.66388
2983.48917	0.66853
2981.56061	0.67341
2979.63204	0.67831
2977.70348	0.68358
2975.77491	0.68917
2973.84635	0.69519
2971.91779	0.70167
2969.98922	0.70802
2968.06066	0.71437
2966.13209	0.72039
2964.20353	0.72459
2962.27496	0.72677
2960.34640	0.72766
2958.41783	0.72746
2956.48927	0.72592
2954.56071	0.72206
2952.63214	0.71614
2950.70358	0.71086
2948.77501	0.70771
2946.84645	0.70643
2944.91788	0.70795
2942.98932	0.71295
2941.06075	0.72010
2939.13219	0.72806
2937.20363	0.73609
2935.27506	0.74341
2933.34650	0.75032
2931.41793	0.75787
2929.48937	0.76635
2927.56080	0.77488
2925.63224	0.78247
2923.70367	0.78921
2921.77511	0.79500
2919.84655	0.79808
2917.91798	0.79618
2915.98942	0.78750
2914.06085	0.77251
2912.13229	0.75595
2910.20372	0.74256
2908.27516	0.73241
2906.34659	0.72399
2904.41803	0.71705
2902.48947	0.71135
2900.56090	0.70693
2898.63234	0.70381
2896.70377	0.70160
2894.77521	0.69986
2892.84664	0.69745
2890.91808	0.69388
2888.98952	0.68996
2887.06095	0.68648
2885.13239	0.68394
2883.20382	0.68240
2881.27526	0.68201
2879.34669	0.68289
2877.41813	0.68324
2875.48956	0.68144
2873.56100	0.67856
2871.63244	0.67525
2869.70387	0.67059
2867.77531	0.66526
2865.84674	0.66094
2863.91818	0.65826
2861.98961	0.65763
2860.06105	0.65944
2858.13248	0.66358
2856.20392	0.67011
2854.27536	0.67862
2852.34679	0.68721
2850.41823	0.69145
2848.48966	0.68470
2846.56110	0.66637
2844.63253	0.64482
2842.70397	0.62719
2840.77540	0.61501
2838.84684	0.60682
2836.91828	0.60053
2834.98971	0.59526
2833.06115	0.59085
2831.13258	0.58728
2829.20402	0.58456
2827.27545	0.58186
2825.34689	0.57854
2823.41832	0.57520
2821.48976	0.57245
2819.56120	0.56993
2817.63263	0.56722
2815.70407	0.56452
2813.77550	0.56201
2811.84694	0.55952
2809.91837	0.55695
2807.98981	0.55414
2806.06124	0.55100
2804.13268	0.54855
2802.20412	0.54728
2800.27555	0.54592
2798.34699	0.54392
2796.41842	0.54218
2794.48986	0.54096
2792.56129	0.53978
2790.63273	0.53876
2788.70416	0.53820
2786.77560	0.53781
2784.84704	0.53743
2782.91847	0.53725
2780.98991	0.53712
2779.06134	0.53658
2777.13278	0.53555
2775.20421	0.53437
2773.27565	0.53356
2771.34708	0.53306
2769.41852	0.53212
2767.48996	0.53046
2765.56139	0.52843
2763.63283	0.52676
2761.70426	0.52577
2759.77570	0.52457
2757.84713	0.52280
2755.91857	0.52119
2753.99001	0.51972
2752.06144	0.51785
2750.13288	0.51618
2748.20431	0.51534
2746.27575	0.51465
2744.34718	0.51346
2742.41862	0.51223
2740.49005	0.51130
2738.56149	0.51068
2736.63293	0.51032
2734.70436	0.50972
2732.77580	0.50853
2730.84723	0.50742
2728.91867	0.50698
2726.99010	0.50690
2725.06154	0.50655
2723.13297	0.50546
2721.20441	0.50387
2719.27585	0.50260
2717.34728	0.50186
2715.41872	0.50105
2713.49015	0.49981
2711.56159	0.49861
2709.63302	0.49774
2707.70446	0.49676
2705.77589	0.49563
2703.84733	0.49457
2701.91877	0.49354
2699.99020	0.49261
2698.06164	0.49208
2696.13307	0.49198
2694.20451	0.49195
2692.27594	0.49182
2690.34738	0.49131
2688.41881	0.48996
2686.49025	0.48836
2684.56169	0.48729
2682.63312	0.48641
2680.70456	0.48539
2678.77599	0.48457
2676.84743	0.48389
2674.91886	0.48297
2672.99030	0.48191
2671.06173	0.48108
2669.13317	0.48075
2667.20461	0.48077
2665.27604	0.48066
2663.34748	0.48028
2661.41891	0.47981
2659.49035	0.47946
2657.56178	0.47940
2655.63322	0.47965
2653.70465	0.48013
2651.77609	0.48060
2649.84753	0.48101
2647.91896	0.48123
2645.99040	0.48126
2644.06183	0.48122
2642.13327	0.48094
2640.20470	0.48033
2638.27614	0.47955
2636.34757	0.47873
2634.41901	0.47802
2632.49045	0.47742
2630.56188	0.47655
2628.63332	0.47539
2626.70475	0.47416
2624.77619	0.47293
2622.84762	0.47217
2620.91906	0.47185
2618.99049	0.47118
2617.06193	0.47010
2615.13337	0.46923
2613.20480	0.46871
2611.27624	0.46832
2609.34767	0.46795
2607.41911	0.46757
2605.49054	0.46705
2603.56198	0.46647
2601.63342	0.46620
2599.70485	0.46647
2597.77629	0.46655
2595.84772	0.46587
2593.91916	0.46503
2591.99059	0.46448
2590.06203	0.46404
2588.13346	0.46362
2586.20490	0.46319
2584.27634	0.46278
2582.34777	0.46244
2580.41921	0.46206
2578.49064	0.46139
2576.56208	0.46064
2574.63351	0.46052
2572.70495	0.46078
2570.77638	0.46065
2568.84782	0.46036
2566.91926	0.46023
2564.99069	0.46001
2563.06213	0.45983
2561.13356	0.45996
2559.20500	0.45984
2557.27643	0.45900
2555.34787	0.45790
2553.41930	0.45708
2551.49074	0.45670
2549.56218	0.45651
2547.63361	0.45618
2545.70505	0.45561
2543.77648	0.45487
2541.84792	0.45411
2539.91935	0.45349
2537.99079	0.45318
2536.06222	0.45327
2534.13366	0.45342
2532.20510	0.45313
2530.27653	0.45246
2528.34797	0.45199
2526.41940	0.45199
2524.49084	0.45203
2522.56227	0.45169
2520.63371	0.45116
2518.70514	0.45078
2516.77658	0.45063
2514.84802	0.45049
2512.91945	0.45010
2510.99089	0.44958
2509.06232	0.44915
2507.13376	0.44885
2505.20519	0.44865
2503.27663	0.44843
2501.34806	0.44803
2499.41950	0.44756
2497.49094	0.44727
2495.56237	0.44716
2493.63381	0.44692
2491.70524	0.44643
2489.77668	0.44597
2487.84811	0.44573
2485.91955	0.44549
2483.99098	0.44509
2482.06242	0.44469
2480.13386	0.44454
2478.20529	0.44461
2476.27673	0.44438
2474.34816	0.44358
2472.41960	0.44268
2470.49103	0.44208
2468.56247	0.44171
2466.63391	0.44121
2464.70534	0.44035
2462.77678	0.43946
2460.84821	0.43874
2458.91965	0.43793
2456.99108	0.43693
2455.06252	0.43603
2453.13395	0.43535
2451.20539	0.43466
2449.27683	0.43388
2447.34826	0.43330
2445.41970	0.43314
2443.49113	0.43334
2441.56257	0.43379
2439.63400	0.43426
2437.70544	0.43459
2435.77687	0.43475
2433.84831	0.43484
2431.91975	0.43494
2429.99118	0.43524
2428.06262	0.43574
2426.13405	0.43603
2424.20549	0.43595
2422.27692	0.43588
2420.34836	0.43589
2418.41979	0.43561
2416.49123	0.43498
2414.56267	0.43438
2412.63410	0.43387
2410.70554	0.43320
2408.77697	0.43211
2406.84841	0.43067
2404.91984	0.42959
2402.99128	0.42908
2401.06271	0.42855
2399.13415	0.42782
2397.20559	0.42701
2395.27702	0.42610
2393.34846	0.42538
2391.41989	0.42522
2389.49133	0.42547
2387.56276	0.42561
2385.63420	0.42573
2383.70563	0.42658
2381.77707	0.42837
2379.84851	0.43034
2377.91994	0.43213
2375.99138	0.43470
2374.06281	0.43856
2372.13425	0.44252
2370.20568	0.44582
2368.27712	0.44994
2366.34855	0.45587
2364.41999	0.46030
2362.49143	0.46064
2360.56286	0.45983
2358.63430	0.45928
2356.70573	0.45702
2354.77717	0.45292
2352.84860	0.44844
2350.92004	0.44496
2348.99147	0.44354
2347.06291	0.44493
2345.13435	0.44918
2343.20578	0.45398
2341.27722	0.45641
2339.34865	0.45587
2337.42009	0.45412
2335.49152	0.45263
2333.56296	0.45118
2331.63440	0.44967
2329.70583	0.44845
2327.77727	0.44744
2325.84870	0.44592
2323.92014	0.44353
2321.99157	0.44086
2320.06301	0.43850
2318.13444	0.43658
2316.20588	0.43535
2314.27732	0.43481
2312.34875	0.43435
2310.42019	0.43355
2308.49162	0.43247
2306.56306	0.43115
2304.63449	0.42965
2302.70593	0.42855
2300.77736	0.42842
2298.84880	0.42884
2296.92024	0.42871
2294.99167	0.42787
2293.06311	0.42712
2291.13454	0.42668
2289.20598	0.42603
2287.27741	0.42502
2285.34885	0.42390
2283.42028	0.42302
2281.49172	0.42265
2279.56316	0.42274
2277.63459	0.42297
2275.70603	0.42311
2273.77746	0.42318
2271.84890	0.42328
2269.92033	0.42346
2267.99177	0.42384
2266.06320	0.42412
2264.13464	0.42396
2262.20608	0.42383
2260.27751	0.42416
2258.34895	0.42481
2256.42038	0.42537
2254.49182	0.42533
2252.56325	0.42472
2250.63469	0.42409
2248.70612	0.42367
2246.77756	0.42330
2244.84900	0.42267
2242.92043	0.42198
2240.99187	0.42164
2239.06330	0.42138
2237.13474	0.42082
2235.20617	0.42023
2233.27761	0.41988
2231.34904	0.41972
2229.42048	0.41971
2227.49192	0.42016
2225.56335	0.42100
2223.63479	0.42176
2221.70622	0.42251
2219.77766	0.42350
2217.84909	0.42450
2215.92053	0.42538
2213.99196	0.42614
2212.06340	0.42665
2210.13484	0.42691
2208.20627	0.42718
2206.27771	0.42746
2204.34914	0.42749
2202.42058	0.42729
2200.49201	0.42702
2198.56345	0.42656
2196.63488	0.42592
2194.70632	0.42542
2192.77776	0.42512
2190.84919	0.42475
2188.92063	0.42427
2186.99206	0.42396
2185.06350	0.42393
2183.13493	0.42387
2181.20637	0.42365
2179.27781	0.42353
2177.34924	0.42354
2175.42068	0.42371
2173.49211	0.42415
2171.56355	0.42461
2169.63498	0.42483
2167.70642	0.42508
2165.77785	0.42546
2163.84929	0.42570
2161.92073	0.42570
2159.99216	0.42550
2158.06360	0.42522
2156.13503	0.42498
2154.20647	0.42459
2152.27790	0.42395
2150.34934	0.42345
2148.42077	0.42339
2146.49221	0.42352
2144.56365	0.42373
2142.63508	0.42429
2140.70652	0.42511
2138.77795	0.42586
2136.84939	0.42672
2134.92082	0.42796
2132.99226	0.42923
2131.06369	0.43001
2129.13513	0.43059
2127.20657	0.43136
2125.27800	0.43196
2123.34944	0.43208
2121.42087	0.43191
2119.49231	0.43162
2117.56374	0.43124
2115.63518	0.43101
2113.70661	0.43096
2111.77805	0.43050
2109.84949	0.42936
2107.92092	0.42802
2105.99236	0.42690
2104.06379	0.42611
2102.13523	0.42556
2100.20666	0.42493
2098.27810	0.42421
2096.34953	0.42381
2094.42097	0.42374
2092.49241	0.42363
2090.56384	0.42347
2088.63528	0.42338
2086.70671	0.42346
2084.77815	0.42379
2082.84958	0.42420
2080.92102	0.42461
2078.99245	0.42516
2077.06389	0.42570
2075.13533	0.42598
2073.20676	0.42605
2071.27820	0.42605
2069.34963	0.42604
2067.42107	0.42588
2065.49250	0.42558
2063.56394	0.42523
2061.63537	0.42466
2059.70681	0.42389
2057.77825	0.42312
2055.84968	0.42219
2053.92112	0.42100
2051.99255	0.41981
2050.06399	0.41877
2048.13542	0.41806
2046.20686	0.41757
2044.27830	0.41688
2042.34973	0.41606
2040.42117	0.41542
2038.49260	0.41479
2036.56404	0.41415
2034.63547	0.41371
2032.70691	0.41346
2030.77834	0.41296
2028.84978	0.41199
2026.92122	0.41095
2024.99265	0.41028
2023.06409	0.40983
2021.13552	0.40925
2019.20696	0.40866
2017.27839	0.40847
2015.34983	0.40850
2013.42126	0.40838
2011.49270	0.40833
2009.56414	0.40869
2007.63557	0.40931
2005.70701	0.40982
2003.77844	0.41016
2001.84988	0.41051
1999.92131	0.41103
1997.99275	0.41180
1996.06418	0.41272
1994.13562	0.41367
1992.20706	0.41437
1990.27849	0.41441
1988.34993	0.41401
1986.42136	0.41361
1984.49280	0.41315
1982.56423	0.41252
1980.63567	0.41165
1978.70710	0.41057
1976.77854	0.40932
1974.84998	0.40795
1972.92141	0.40655
1970.99285	0.40522
1969.06428	0.40398
1967.13572	0.40264
1965.20715	0.40096
1963.27859	0.39921
1961.35002	0.39784
1959.42146	0.39671
1957.49290	0.39560
1955.56433	0.39460
1953.63577	0.39362
1951.70720	0.39260
1949.77864	0.39173
1947.85007	0.39105
1945.92151	0.39048
1943.99294	0.39014
1942.06438	0.38981
1940.13582	0.38911
1938.20725	0.38840
1936.27869	0.38789
1934.35012	0.38752
1932.42156	0.38734
1930.49299	0.38722
1928.56443	0.38697
1926.63586	0.38678
1924.70730	0.38683
1922.77874	0.38673
1920.85017	0.38636
1918.92161	0.38623
1916.99304	0.38603
1915.06448	0.38526
1913.13591	0.38455
1911.20735	0.38428
1909.27878	0.38383
1907.35022	0.38278
1905.42166	0.38158
1903.49309	0.38044
1901.56453	0.37913
1899.63596	0.37760
1897.70740	0.37611
1895.77883	0.37478
1893.85027	0.37345
1891.92171	0.37234
1889.99314	0.37158
1888.06458	0.37061
1886.13601	0.36956
1884.20745	0.36895
1882.27888	0.36858
1880.35032	0.36816
1878.42175	0.36791
1876.49319	0.36800
1874.56463	0.36801
1872.63606	0.36805
1870.70750	0.36894
1868.77893	0.37053
1866.85037	0.37076
1864.92180	0.36978
1862.99324	0.36917
1861.06467	0.36915
1859.13611	0.36924
1857.20755	0.36918
1855.27898	0.36906
1853.35042	0.36890
1851.42185	0.36874
1849.49329	0.36882
1847.56472	0.36918
1845.63616	0.36959
1843.70759	0.36896
1841.77903	0.36710
1839.85047	0.36549
1837.92190	0.36447
1835.99334	0.36352
1834.06477	0.36250
1832.13621	0.36184
1830.20764	0.36105
1828.27908	0.35925
1826.35051	0.35719
1824.42195	0.35501
1822.49339	0.35238
1820.56482	0.34953
1818.63626	0.34678
1816.70769	0.34426
1814.77913	0.34215
1812.85056	0.34061
1810.92200	0.33934
1808.99343	0.33796
1807.06487	0.33666
1805.13631	0.33585
1803.20774	0.33566
1801.27918	0.33623
1799.35061	0.33721
1797.42205	0.33798
1795.49348	0.33870
1793.56492	0.33999
1791.63635	0.34154
1789.70779	0.34172
1787.77923	0.34136
1785.85066	0.34156
1783.92210	0.34215
1781.99353	0.34280
1780.06497	0.34332
1778.13640	0.34353
1776.20784	0.34377
1774.27927	0.34477
1772.35071	0.34612
1770.42215	0.34604
1768.49358	0.34531
1766.56502	0.34497
1764.63645	0.34524
1762.70789	0.34661
1760.77932	0.34861
1758.85076	0.35041
1756.92220	0.35295
1754.99363	0.35585
1753.06507	0.35900
1751.13650	0.36425
1749.20794	0.37078
1747.27937	0.37535
1745.35081	0.37842
1743.42224	0.38116
1741.49368	0.38380
1739.56512	0.38580
1737.63655	0.38664
1735.70799	0.38754
1733.77942	0.38983
1731.85086	0.39103
1729.92229	0.39150
1727.99373	0.39313
1726.06516	0.39633
1724.13660	0.40172
1722.20804	0.40785
1720.27947	0.41384
1718.35091	0.42356
1716.42234	0.43860
1714.49378	0.44985
1712.56521	0.45871
1710.63665	0.46909
1708.70808	0.48179
1706.77952	0.49996
1704.85096	0.52314
1702.92239	0.54404
1700.99383	0.57218
1699.06526	0.61266
1697.13670	0.64693
1695.20813	0.67852
1693.27957	0.70129
1691.35100	0.71955
1689.42244	0.74215
1687.49388	0.76343
1685.56531	0.78605
1683.63675	0.82064
1681.70818	0.84397
1679.77962	0.85704
1677.85105	0.87022
1675.92249	0.88732
1673.99392	0.90563
1672.06536	0.91948
1670.13680	0.93591
1668.20823	0.95384
1666.27967	0.96369
1664.35110	0.97284
1662.42254	0.98609
1660.49397	0.99721
1658.56541	1.00425
1656.63684	1.00976
1654.70828	1.01820
1652.77972	1.03117
1650.85115	1.03316
1648.92259	1.03286
1646.99402	1.03835
1645.06546	1.04577
1643.13689	1.04985
1641.20833	1.05341
1639.27976	1.05652
1637.35120	1.06032
1635.42264	1.06584
1633.49407	1.06752
1631.56551	1.06690
1629.63694	1.06548
1627.70838	1.06195
1625.77981	1.05487
1623.85125	1.04322
1621.92269	1.02794
1619.99412	1.01325
1618.06556	0.99463
1616.13699	0.96610
1614.20843	0.94093
1612.27986	0.92066
1610.35130	0.89930
1608.42273	0.87708
1606.49417	0.85741
1604.56561	0.84176
1602.63704	0.82977
1600.70848	0.82114
1598.77991	0.81483
1596.85135	0.81027
1594.92278	0.80772
1592.99422	0.80678
1591.06565	0.80714
1589.13709	0.80953
1587.20853	0.81489
1585.27996	0.82335
1583.35140	0.83413
1581.42283	0.84541
1579.49427	0.85601
1577.56570	0.86990
1575.63714	0.88990
1573.70857	0.90328
1571.78001	0.91240
1569.85145	0.92700
1567.92288	0.94298
1565.99432	0.95429
1564.06575	0.96372
1562.13719	0.96971
1560.20862	0.97650
1558.28006	0.99702
1556.35149	1.00896
1554.42293	1.01252
1552.49437	1.01464
1550.56580	1.01471
1548.63724	1.01262
1546.70867	1.00988
1544.78011	1.00726
1542.85154	1.00447
1540.92298	0.99737
1538.99441	0.98392
1537.06585	0.97609
1535.13729	0.97092
1533.20872	0.96500
1531.28016	0.95891
1529.35159	0.95407
1527.42303	0.95007
1525.49446	0.94728
1523.56590	0.94711
1521.63733	0.94892
1519.70877	0.95013
1517.78021	0.95035
1515.85164	0.94920
1513.92308	0.94527
1511.99451	0.93971
1510.06595	0.93469
1508.13738	0.92585
1506.20882	0.90345
1504.28025	0.88786
1502.35169	0.87726
1500.42313	0.86516
1498.49456	0.84934
1496.56600	0.82901
1494.63743	0.81138
1492.70887	0.79854
1490.78030	0.78407
1488.85174	0.76502
1486.92317	0.74851
1484.99461	0.73624
1483.06605	0.72660
1481.13748	0.71895
1479.20892	0.71408
1477.28035	0.71294
1475.35179	0.71592
1473.42322	0.72363
1471.49466	0.73179
1469.56610	0.73612
1467.63753	0.73969
1465.70897	0.74471
1463.78040	0.74989
1461.85184	0.75310
1459.92327	0.75628
1457.99471	0.76401
1456.06614	0.77329
1454.13758	0.77596
1452.20902	0.77713
1450.28045	0.77891
1448.35189	0.78150
1446.42332	0.78388
1444.49476	0.78500
1442.56619	0.78552
1440.63763	0.78590
1438.70906	0.78584
1436.78050	0.78430
1434.85194	0.78063
1432.92337	0.77656
1430.99481	0.77198
1429.06624	0.76631
1427.13768	0.76115
1425.20911	0.75734
1423.28055	0.75459
1421.35198	0.75292
1419.42342	0.75177
1417.49486	0.74933
1415.56629	0.74597
1413.63773	0.74271
1411.70916	0.73914
1409.78060	0.73507
1407.85203	0.73143
1405.92347	0.72895
1403.99490	0.72744
1402.06634	0.72659
1400.13778	0.72620
1398.20921	0.72583
1396.28065	0.72582
1394.35208	0.72652
1392.42352	0.72768
1390.49495	0.73025
1388.56639	0.73636
1386.63782	0.74692
1384.70926	0.75856
1382.78070	0.76950
1380.85213	0.77934
1378.92357	0.78599
1376.99500	0.78794
1375.06644	0.78435
1373.13787	0.77626
1371.20931	0.76699
1369.28074	0.75588
1367.35218	0.74281
1365.42362	0.73075
1363.49505	0.71952
1361.56649	0.70896
1359.63792	0.70152
1357.70936	0.69688
1355.78079	0.69374
1353.85223	0.69158
1351.92366	0.69029
1349.99510	0.68981
1348.06654	0.68947
1346.13797	0.68867
1344.20941	0.68788
1342.28084	0.68766
1340.35228	0.68808
1338.42371	0.68883
1336.49515	0.69004
1334.56659	0.69248
1332.63802	0.69621
1330.70946	0.70051
1328.78089	0.70442
1326.85233	0.70709
1324.92376	0.70825
1322.99520	0.70880
1321.06663	0.70990
1319.13807	0.71184
1317.20951	0.71404
1315.28094	0.71608
1313.35238	0.71822
1311.42381	0.72063
1309.49525	0.72322
1307.56668	0.72540
1305.63812	0.72658
1303.70955	0.72709
1301.78099	0.72740
1299.85243	0.72749
1297.92386	0.72713
1295.99530	0.72647
1294.06673	0.72610
1292.13817	0.72660
1290.20960	0.72812
1288.28104	0.73025
1286.35247	0.73223
1284.42391	0.73378
1282.49535	0.73533
1280.56678	0.73689
1278.63822	0.73829
1276.70965	0.74001
1274.78109	0.74227
1272.85252	0.74484
1270.92396	0.74753
1268.99539	0.75019
1267.06683	0.75230
1265.13827	0.75322
1263.20970	0.75250
1261.28114	0.74968
1259.35257	0.74505
1257.42401	0.74013
1255.49544	0.73587
1253.56688	0.73210
1251.63831	0.72901
1249.70975	0.72698
1247.78119	0.72569
1245.85262	0.72508
1243.92406	0.72538
1241.99549	0.72645
1240.06693	0.72827
1238.13836	0.73054
1236.20980	0.73277
1234.28123	0.73498
1232.35267	0.73714
1230.42411	0.73886
1228.49554	0.73997
1226.56698	0.74013
1224.63841	0.73919
1222.70985	0.73777
1220.78128	0.73610
1218.85272	0.73390
1216.92415	0.73149
1214.99559	0.72953
1213.06703	0.72818
1211.13846	0.72736
1209.20990	0.72641
1207.28133	0.72367
1205.35277	0.71820
1203.42420	0.71003
1201.49564	0.69927
1199.56708	0.68687
1197.63851	0.67426
1195.70995	0.66249
1193.78138	0.65223
1191.85282	0.64377
1189.92425	0.63715
1187.99569	0.63242
1186.06712	0.62981
1184.13856	0.62915
1182.21000	0.63016
1180.28143	0.63344
1178.35287	0.63961
1176.42430	0.64845
1174.49574	0.65929
1172.56717	0.67125
1170.63861	0.68384
1168.71004	0.69761
1166.78148	0.71304
1164.85292	0.72949
1162.92435	0.74542
1160.99579	0.75897
1159.06722	0.76840
1157.13866	0.77293
1155.21009	0.77277
1153.28153	0.76826
1151.35296	0.76027
1149.42440	0.74997
1147.49584	0.73887
1145.56727	0.72910
1143.63871	0.72170
1141.71014	0.71619
1139.78158	0.71221
1137.85301	0.70989
1135.92445	0.70895
1133.99588	0.70924
1132.06732	0.71146
1130.13876	0.71613
1128.21019	0.72329
1126.28163	0.73192
1124.35306	0.74002
1122.42450	0.74686
1120.49593	0.75278
1118.56737	0.75782
1116.63880	0.76110
1114.71024	0.76129
1112.78168	0.75856
1110.85311	0.75454
1108.92455	0.75092
1106.99598	0.74891
1105.06742	0.74867
1103.13885	0.74965
1101.21029	0.75184
1099.28172	0.75600
1097.35316	0.76272
1095.42460	0.77204
1093.49603	0.78310
1091.56747	0.79487
1089.63890	0.80727
1087.71034	0.82100
1085.78177	0.83673
1083.85321	0.85345
1081.92464	0.86882
1079.99608	0.88120
1078.06752	0.88948
1076.13895	0.89297
1074.21039	0.89193
1072.28182	0.88721
1070.35326	0.87972
1068.42469	0.87017
1066.49613	0.85939
1064.56756	0.84817
1062.63900	0.83608
1060.71044	0.82266
1058.78187	0.80895
1056.85331	0.79571
1054.92474	0.78308
1052.99618	0.77184
1051.06761	0.76283
1049.13905	0.75665
1047.21049	0.75373
1045.28192	0.75435
1043.35336	0.75836
1041.42479	0.76496
1039.49623	0.77244
1037.56766	0.77857
1035.63910	0.78300
1033.71053	0.78710
1031.78197	0.79115
1029.85341	0.79397
1027.92484	0.79472
1025.99628	0.79394
1024.06771	0.79236
1022.13915	0.79051
1020.21058	0.78959
1018.28202	0.79015
1016.35345	0.79023
1014.42489	0.78759
1012.49633	0.78161
1010.56776	0.77151
1008.63920	0.75678
1006.71063	0.73948
1004.78207	0.72194
1002.85350	0.70436
1000.92494	0.68680
998.99637	0.67040
997.06781	0.65544
995.13925	0.64145
993.21068	0.62827
991.28212	0.61504
989.35355	0.60130
987.42499	0.58840
985.49642	0.57793
983.56786	0.57038
981.63929	0.56561
979.71073	0.56312
977.78217	0.56222
975.85360	0.56193
973.92504	0.56077
971.99647	0.55797
970.06791	0.55387
968.13934	0.54923
966.21078	0.54514
964.28221	0.54278
962.35365	0.54299
960.42509	0.54653
958.49652	0.55367
956.56796	0.56239
954.63939	0.56877
952.71083	0.57021
950.78226	0.56682
948.85370	0.56060
946.92513	0.55386
944.99657	0.54800
943.06801	0.54361
941.13944	0.54046
939.21088	0.53784
937.28231	0.53540
935.35375	0.53301
933.42518	0.53027
931.49662	0.52719
929.56805	0.52416
927.63949	0.52153
925.71093	0.51934
923.78236	0.51712
921.85380	0.51426
919.92523	0.51042
917.99667	0.50591
916.06810	0.50161
914.13954	0.49821
912.21098	0.49578
910.28241	0.49436
908.35385	0.49420
906.42528	0.49535
904.49672	0.49772
902.56815	0.50107
900.63959	0.50474
898.71102	0.50829
896.78246	0.51156
894.85390	0.51419
892.92533	0.51583
890.99677	0.51648
889.06820	0.51672
887.13964	0.51683
885.21107	0.51642
883.28251	0.51544
881.35394	0.51412
879.42538	0.51282
877.49682	0.51161
875.56825	0.51012
873.63969	0.50830
871.71112	0.50637
869.78256	0.50439
867.85399	0.50236
865.92543	0.50053
863.99686	0.49943
862.06830	0.49904
860.13974	0.49888
858.21117	0.49885
856.28261	0.49896
854.35404	0.49911
852.42548	0.49897
850.49691	0.49828
848.56835	0.49732
846.63978	0.49620
844.71122	0.49497
842.78266	0.49392
840.85409	0.49340
838.92553	0.49334
836.99696	0.49292
835.06840	0.49203
833.13983	0.49176
831.21127	0.49239
829.28270	0.49338
827.35414	0.49451
825.42558	0.49585
823.49701	0.49726
821.56845	0.49871
819.63988	0.50077
817.71132	0.50334
815.78275	0.50609
813.85419	0.50974
811.92562	0.51463
809.99706	0.51962
808.06850	0.52381
806.13993	0.52752
804.21137	0.53099
802.28280	0.53361
800.35424	0.53504
798.42567	0.53550
796.49711	0.53534
794.56854	0.53497
792.63998	0.53414
790.71142	0.53232
788.78285	0.52987
786.85429	0.52764
784.92572	0.52619
782.99716	0.52504
781.06859	0.52324
779.14003	0.52072
777.21147	0.51828
775.28290	0.51657
773.35434	0.51532
771.42577	0.51430
769.49721	0.51402
767.56864	0.51438
765.64008	0.51465
763.71151	0.51482
761.78295	0.51551
759.85439	0.51666
757.92582	0.51804
755.99726	0.51987
754.06869	0.52206
752.14013	0.52404
750.21156	0.52574
748.28300	0.52772
746.35443	0.53038
744.42587	0.53328
742.49731	0.53569
740.56874	0.53777
738.64018	0.54020
736.71161	0.54316
734.78305	0.54646
732.85448	0.55023
730.92592	0.55463
728.99735	0.55880
727.06879	0.56168
725.14023	0.56397
723.21166	0.56729
721.28310	0.57107
719.35453	0.57257
717.42597	0.57164
715.49740	0.57048
713.56884	0.56929
711.64027	0.56779
709.71171	0.56674
707.78315	0.56592
705.85458	0.56433
703.92602	0.56175
701.99745	0.55860
700.06889	0.55504
698.14032	0.55108
696.21176	0.54687
694.28319	0.54274
692.35463	0.53876
690.42607	0.53494
688.49750	0.53197
686.56894	0.53013
684.64037	0.52879
682.71181	0.52797
680.78324	0.52774
678.85468	0.52832
676.92611	0.53069
674.99755	0.53469
673.06899	0.53917
671.14042	0.54422
669.21186	0.55089
667.28329	0.55611
665.35473	0.55808
663.42616	0.56105
661.49760	0.56545
659.56903	0.56927
657.64047	0.57132
655.71191	0.57227
653.78334	0.57275
651.85478	0.57184
649.92621	0.56953
647.99765	0.56709
646.06908	0.56444
644.14052	0.56222
642.21195	0.56158
640.28339	0.56051
638.35483	0.55685
636.42626	0.55170
634.49770	0.54652
632.56913	0.54152
630.64057	0.53708
628.71200	0.53333
626.78344	0.53017
624.85488	0.52846
622.92631	0.52840
620.99775	0.52909
619.06918	0.53032
617.14062	0.53201
615.21205	0.53395
613.28349	0.53623
611.35492	0.53916
609.42636	0.54304
607.49780	0.54741
605.56923	0.55093
603.64067	0.55300
601.71210	0.55422
599.78354	0.55536
