3997.91406	0.43948
3995.98550	0.43876
3994.05693	0.43673
3992.12837	0.43563
3990.19980	0.43593
3988.27124	0.43720
3986.34268	0.43850
3984.41411	0.43868
3982.48555	0.43830
3980.55698	0.43864
3978.62842	0.43935
3976.69985	0.43929
3974.77129	0.43866
3972.84272	0.43850
3970.91416	0.43917
3968.98560	0.44022
3967.05703	0.44118
3965.12847	0.44210
3963.19990	0.44240
3961.27134	0.44195
3959.34277	0.44221
3957.41421	0.44324
3955.48564	0.44363
3953.55708	0.44306
3951.62852	0.44228
3949.69995	0.44244
3947.77139	0.44389
3945.84282	0.44537
3943.91426	0.44560
3941.98569	0.44478
3940.05713	0.44390
3938.12856	0.44300
3936.20000	0.44234
3934.27144	0.44219
3932.34287	0.44154
3930.41431	0.44032
3928.48574	0.43982
3926.55718	0.43987
3924.62861	0.43968
3922.70005	0.43917
3920.77148	0.43855
3918.84292	0.43779
3916.91436	0.43731
3914.98579	0.43688
3913.05723	0.43558
3911.12866	0.43354
3909.20010	0.43103
3907.27153	0.42809
3905.34297	0.42554
3903.41440	0.42495
3901.48584	0.42615
3899.55728	0.42842
3897.62871	0.43095
3895.70015	0.43206
3893.77158	0.43102
3891.84302	0.42899
3889.91445	0.42778
3887.98589	0.42638
3886.05733	0.42496
3884.12876	0.42520
3882.20020	0.42578
3880.27163	0.42722
3878.34307	0.42917
3876.41450	0.42886
3874.48594	0.42667
3872.55737	0.42444
3870.62881	0.42313
3868.70025	0.42337
3866.77168	0.42370
3864.84312	0.42443
3862.91455	0.42663
3860.98599	0.42878
3859.05742	0.42961
3857.12886	0.42653
3855.20029	0.41681
3853.27173	0.41311
3851.34317	0.42322
3849.41460	0.42871
3847.48604	0.42962
3845.55747	0.42843
3843.62891	0.42635
3841.70034	0.42404
3839.77178	0.42167
3837.84321	0.42170
3835.91465	0.42414
3833.98609	0.42570
3832.05752	0.42680
3830.12896	0.42811
3828.20039	0.42847
3826.27183	0.42811
3824.34326	0.42749
3822.41470	0.42580
3820.48613	0.42464
3818.55757	0.42540
3816.62901	0.42816
3814.70044	0.43244
3812.77188	0.43468
3810.84331	0.43442
3808.91475	0.43246
3806.98618	0.43059
3805.05762	0.42893
3803.12905	0.42578
3801.20049	0.42570
3799.27193	0.43018
3797.34336	0.43386
3795.41480	0.43568
3793.48623	0.43588
3791.55767	0.43574
3789.62910	0.43625
3787.70054	0.43712
3785.77197	0.43752
3783.84341	0.43721
3781.91485	0.43652
3779.98628	0.43593
3778.05772	0.43566
3776.12915	0.43557
3774.20059	0.43539
3772.27202	0.43466
3770.34346	0.43449
3768.41489	0.43595
3766.48633	0.43663
3764.55777	0.43517
3762.62920	0.43255
3760.70064	0.43034
3758.77207	0.43009
3756.84351	0.43014
3754.91494	0.42781
3752.98638	0.42229
3751.05781	0.41747
3749.12925	0.41914
3747.20069	0.42046
3745.27212	0.42242
3743.34356	0.42930
3741.41499	0.43426
3739.48643	0.43379
3737.55786	0.42739
3735.62930	0.41886
3733.70074	0.41893
3731.77217	0.42430
3729.84361	0.42845
3727.91504	0.43050
3725.98648	0.43040
3724.05791	0.42933
3722.12935	0.42957
3720.20078	0.43165
3718.27222	0.43378
3716.34366	0.43407
3714.41509	0.43216
3712.48653	0.42965
3710.55796	0.43093
3708.62940	0.43361
3706.70083	0.43408
3704.77227	0.43379
3702.84370	0.43499
3700.91514	0.43776
3698.98658	0.43941
3697.05801	0.43947
3695.12945	0.43891
3693.20088	0.43742
3691.27232	0.43342
3689.34375	0.43111
3687.41519	0.43616
3685.48662	0.44175
3683.55806	0.44496
3681.62950	0.44605
3679.70093	0.44465
3677.77237	0.44080
3675.84380	0.44113
3673.91524	0.44786
3671.98667	0.45130
3670.05811	0.45515
3668.12954	0.46060
3666.20098	0.46310
3664.27242	0.46480
3662.34385	0.46768
3660.41529	0.47035
3658.48672	0.47167
3656.55816	0.47444
3654.62959	0.47868
3652.70103	0.47962
3650.77246	0.47559
3648.84390	0.47658
3646.91534	0.48803
3644.98677	0.49594
3643.05821	0.50069
3641.12964	0.50563
3639.20108	0.51027
3637.27251	0.51347
3635.34395	0.51620
3633.41538	0.51748
3631.48682	0.51627
3629.55826	0.51934
3627.62969	0.53089
3625.70113	0.53854
3623.77256	0.54158
3621.84400	0.54226
3619.91543	0.54375
3617.98687	0.54940
3616.05830	0.55491
3614.12974	0.55797
3612.20118	0.56068
3610.27261	0.56498
3608.34405	0.57139
3606.41548	0.57811
3604.48692	0.58368
3602.55835	0.58878
3600.62979	0.59308
3598.70123	0.59630
3596.77266	0.59887
3594.84410	0.60202
3592.91553	0.60595
3590.98697	0.60817
3589.05840	0.61065
3587.12984	0.61959
3585.20127	0.62939
3583.27271	0.63403
3581.34415	0.63627
3579.41558	0.63865
3577.48702	0.64292
3575.55845	0.64889
3573.62989	0.65427
3571.70132	0.65894
3569.77276	0.66388
3567.84419	0.66904
3565.91563	0.67510
3563.98707	0.68139
3562.05850	0.68542
3560.12994	0.68733
3558.20137	0.69090
3556.27281	0.69621
3554.34424	0.70144
3552.41568	0.70789
3550.48711	0.71413
3548.55855	0.71869
3546.62999	0.72426
3544.70142	0.73147
3542.77286	0.73736
3540.84429	0.74213
3538.91573	0.74868
3536.98716	0.75589
3535.05860	0.75855
3533.13003	0.75833
3531.20147	0.76058
3529.27291	0.76602
3527.34434	0.77407
3525.41578	0.78283
3523.48721	0.78818
3521.55865	0.79123
3519.63008	0.79576
3517.70152	0.80141
3515.77295	0.80694
3513.84439	0.81178
3511.91583	0.81626
3509.98726	0.82352
3508.05870	0.83239
3506.13013	0.83910
3504.20157	0.84756
3502.27300	0.85823
3500.34444	0.86510
3498.41587	0.87017
3496.48731	0.87706
3494.55875	0.88480
3492.63018	0.89225
3490.70162	0.89925
3488.77305	0.90578
3486.84449	0.91042
3484.91592	0.91148
3482.98736	0.91346
3481.05879	0.91979
3479.13023	0.92466
3477.20167	0.92633
3475.27310	0.92975
3473.34454	0.93658
3471.41597	0.94353
3469.48741	0.94748
3467.55884	0.94833
3465.63028	0.94653
3463.70171	0.94378
3461.77315	0.94445
3459.84459	0.94970
3457.91602	0.95543
3455.98746	0.95904
3454.05889	0.96141
3452.13033	0.96412
3450.20176	0.96815
3448.27320	0.97274
3446.34464	0.97496
3444.41607	0.97464
3442.48751	0.97535
3440.55894	0.97825
3438.63038	0.98215
3436.70181	0.98547
3434.77325	0.98595
3432.84468	0.98469
3430.91612	0.98427
3428.98756	0.98329
3427.05899	0.98099
3425.13043	0.98026
3423.20186	0.98214
3421.27330	0.98553
3419.34473	0.98867
3417.41617	0.98869
3415.48760	0.98634
3413.55904	0.98528
3411.63048	0.98761
3409.70191	0.99222
3407.77335	0.99536
3405.84478	0.99650
3403.91622	0.99740
3401.98765	0.99745
3400.05909	0.99677
3398.13052	0.99708
3396.20196	0.99917
3394.27340	1.00184
3392.34483	1.00204
3390.41627	1.00027
3388.48770	1.00054
3386.55914	1.00208
3384.63057	1.00197
3382.70201	1.00131
3380.77344	1.00170
3378.84488	1.00396
3376.91632	1.00812
3374.98775	1.01115
3373.05919	1.01038
3371.13062	1.00760
3369.20206	1.00578
3367.27349	1.00499
3365.34493	1.00513
3363.41636	1.00602
3361.48780	1.00634
3359.55924	1.00671
3357.63067	1.00862
3355.70211	1.01243
3353.77354	1.01628
3351.84498	1.01820
3349.91641	1.02021
3347.98785	1.02335
3346.05928	1.02514
3344.13072	1.02596
3342.20216	1.02779
3340.27359	1.02863
3338.34503	1.02795
3336.41646	1.03010
3334.48790	1.03573
3332.55933	1.04102
3330.63077	1.04527
3328.70220	1.04998
3326.77364	1.05431
3324.84508	1.05706
3322.91651	1.05951
3320.98795	1.06184
3319.05938	1.06303
3317.13082	1.06331
3315.20225	1.06334
3313.27369	1.06454
3311.34513	1.06816
3309.41656	1.07262
3307.48800	1.07510
3305.55943	1.07611
3303.63087	1.07800
3301.70230	1.08098
3299.77374	1.08306
3297.84517	1.08267
3295.91661	1.08239
3293.98805	1.08494
3292.05948	1.08793
3290.13092	1.08914
3288.20235	1.08834
3286.27379	1.08609
3284.34522	1.08462
3282.41666	1.08367
3280.48809	1.08219
3278.55953	1.08157
3276.63097	1.08117
3274.70240	1.07981
3272.77384	1.07883
3270.84527	1.07839
3268.91671	1.07715
3266.98814	1.07679
3265.05958	1.07876
3263.13101	1.07842
3261.20245	1.07345
3259.27389	1.06784
3257.34532	1.06344
3255.41676	1.05980
3253.48819	1.05621
3251.55963	1.05197
3249.63106	1.04818
3247.70250	1.04583
3245.77393	1.04369
3243.84537	1.04007
3241.91681	1.03611
3239.98824	1.03281
3238.05968	1.02823
3236.13111	1.02346
3234.20255	1.02125
3232.27398	1.02019
3230.34542	1.01857
3228.41685	1.01609
3226.48829	1.01284
3224.55973	1.00997
3222.63116	1.00751
3220.70260	1.00450
3218.77403	1.00037
3216.84547	0.99564
3214.91690	0.99149
3212.98834	0.98802
3211.05977	0.98460
3209.13121	0.98052
3207.20265	0.97569
3205.27408	0.97056
3203.34552	0.96542
3201.41695	0.96127
3199.48839	0.95895
3197.55982	0.95727
3195.63126	0.95408
3193.70269	0.94901
3191.77413	0.94303
3189.84557	0.93714
3187.91700	0.93253
3185.98844	0.92954
3184.05987	0.92722
3182.13131	0.92464
3180.20274	0.92173
3178.27418	0.91825
3176.34562	0.91399
3174.41705	0.91035
3172.48849	0.90817
3170.55992	0.90606
3168.63136	0.90253
3166.70279	0.89860
3164.77423	0.89618
3162.84566	0.89454
3160.91710	0.89234
3158.98854	0.89004
3157.05997	0.88759
3155.13141	0.88355
3153.20284	0.87901
3151.27428	0.87709
3149.34571	0.87664
3147.41715	0.87487
3145.48858	0.87238
3143.56002	0.86991
3141.63146	0.86806
3139.70289	0.86806
3137.77433	0.86884
3135.84576	0.86867
3133.91720	0.86747
3131.98863	0.86534
3130.06007	0.86316
3128.13150	0.86239
3126.20294	0.86231
3124.27438	0.86192
3122.34581	0.86205
3120.41725	0.86230
3118.48868	0.86202
3116.56012	0.86274
3114.63155	0.86475
3112.70299	0.86635
3110.77442	0.86756
3108.84586	0.86883
3106.91730	0.86922
3104.98873	0.86867
3103.06017	0.86767
3101.13160	0.86684
3099.20304	0.86654
3097.27447	0.86556
3095.34591	0.86347
3093.41734	0.86154
3091.48878	0.86050
3089.56022	0.85969
3087.63165	0.85755
3085.70309	0.85394
3083.77452	0.85094
3081.84596	0.84914
3079.91739	0.84608
3077.98883	0.84183
3076.06026	0.83903
3074.13170	0.83667
3072.20314	0.83301
3070.27457	0.82896
3068.34601	0.82531
3066.41744	0.82203
3064.48888	0.81852
3062.56031	0.81398
3060.63175	0.80876
3058.70318	0.80420
3056.77462	0.80050
3054.84606	0.79587
3052.91749	0.79028
3050.98893	0.78616
3049.06036	0.78330
3047.13180	0.77937
3045.20323	0.77493
3043.27467	0.77129
3041.34610	0.76774
3039.41754	0.76401
3037.48898	0.76022
3035.56041	0.75645
3033.63185	0.75364
3031.70328	0.75208
3029.77472	0.75099
3027.84615	0.74951
3025.91759	0.74717
3023.98903	0.74477
3022.06046	0.74293
3020.13190	0.74090
3018.20333	0.73870
3016.27477	0.73690
3014.34620	0.73509
3012.41764	0.73337
3010.48907	0.73243
3008.56051	0.73163
3006.63195	0.73017
3004.70338	0.72908
3002.77482	0.72912
3000.84625	0.72960
2998.91769	0.72997
2996.98912	0.72996
2995.06056	0.73043
2993.13199	0.73205
2991.20343	0.73372
2989.27487	0.73551
2987.34630	0.73832
2985.41774	0.74143
2983.48917	0.74452
2981.56061	0.74898
2979.63204	0.75493
2977.70348	0.76024
2975.77491	0.76449
2973.84635	0.76932
2971.91779	0.77584
2969.98922	0.78376
2968.06066	0.79113
2966.13209	0.79615
2964.20353	0.79940
2962.27496	0.80233
2960.34640	0.80495
2958.41783	0.80541
2956.48927	0.80180
2954.56071	0.79555
2952.63214	0.79040
2950.70358	0.78773
2948.77501	0.78660
2946.84645	0.78678
2944.91788	0.78931
2942.98932	0.79427
2941.06075	0.80038
2939.13219	0.80774
2937.20363	0.81661
2935.27506	0.82538
2933.34650	0.83341
2931.41793	0.84111
2929.48937	0.84807
2927.56080	0.85443
2925.63224	0.86083
2923.70367	0.86658
2921.77511	0.87029
2919.84655	0.87185
2917.91798	0.87013
2915.98942	0.86211
2914.06085	0.84778
2912.13229	0.83060
2910.20372	0.81437
2908.27516	0.80180
2906.34659	0.79269
2904.41803	0.78500
2902.48947	0.77834
2900.56090	0.77438
2898.63234	0.77356
2896.70377	0.77346
2894.77521	0.77174
2892.84664	0.76880
2890.91808	0.76563
2888.98952	0.76190
2887.06095	0.75815
2885.13239	0.75564
2883.20382	0.75448
2881.27526	0.75460
2879.34669	0.75567
2877.41813	0.75582
2875.48956	0.75361
2873.56100	0.74974
2871.63244	0.74496
2869.70387	0.73890
2867.77531	0.73195
2865.84674	0.72560
2863.91818	0.72131
2861.98961	0.71959
2860.06105	0.71995
2858.13248	0.72215
2856.20392	0.72651
2854.27536	0.73303
2852.34679	0.74046
2850.41823	0.74374
2848.48966	0.73573
2846.56110	0.71662
2844.63253	0.69463
2842.70397	0.67612
2840.77540	0.66258
2838.84684	0.65342
2836.91828	0.64706
2834.98971	0.64190
2833.06115	0.63738
2831.13258	0.63368
2829.20402	0.63071
2827.27545	0.62758
2825.34689	0.62330
2823.41832	0.61910
2821.48976	0.61700
2819.56120	0.61619
2817.63263	0.61435
2815.70407	0.61146
2813.77550	0.60889
2811.84694	0.60661
2809.91837	0.60391
2807.98981	0.60132
2806.06124	0.59967
2804.13268	0.59851
2802.20412	0.59668
2800.27555	0.59378
2798.34699	0.59079
2796.41842	0.58867
2794.48986	0.58680
2792.56129	0.58470
2790.63273	0.58284
2788.70416	0.58128
2786.77560	0.57985
2784.84704	0.57830
2782.91847	0.57634
2780.98991	0.57416
2779.06134	0.57266
2777.13278	0.57182
2775.20421	0.57040
2773.27565	0.56858
2771.34708	0.56731
2769.41852	0.56607
2767.48996	0.56461
2765.56139	0.56339
2763.63283	0.56202
2761.70426	0.55984
2759.77570	0.55712
2757.84713	0.55479
2755.91857	0.55356
2753.99001	0.55293
2752.06144	0.55168
2750.13288	0.54952
2748.20431	0.54713
2746.27575	0.54502
2744.34718	0.54316
2742.41862	0.54157
2740.49005	0.54054
2738.56149	0.53979
2736.63293	0.53863
2734.70436	0.53692
2732.77580	0.53510
2730.84723	0.53374
2728.91867	0.53268
2726.99010	0.53109
2725.06154	0.52906
2723.13297	0.52747
2721.20441	0.52664
2719.27585	0.52608
2717.34728	0.52492
2715.41872	0.52298
2713.49015	0.52118
2711.56159	0.52019
2709.63302	0.51962
2707.70446	0.51880
2705.77589	0.51761
2703.84733	0.51610
2701.91877	0.51455
2699.99020	0.51343
2698.06164	0.51275
2696.13307	0.51219
2694.20451	0.51144
2692.27594	0.51046
2690.34738	0.50935
2688.41881	0.50829
2686.49025	0.50760
2684.56169	0.50707
2682.63312	0.50620
2680.70456	0.50493
2678.77599	0.50373
2676.84743	0.50300
2674.91886	0.50259
2672.99030	0.50193
2671.06173	0.50076
2669.13317	0.49933
2667.20461	0.49805
2665.27604	0.49703
2663.34748	0.49603
2661.41891	0.49504
2659.49035	0.49433
2657.56178	0.49363
2655.63322	0.49265
2653.70465	0.49162
2651.77609	0.49078
2649.84753	0.49012
2647.91896	0.48929
2645.99040	0.48829
2644.06183	0.48775
2642.13327	0.48757
2640.20470	0.48692
2638.27614	0.48597
2636.34757	0.48546
2634.41901	0.48550
2632.49045	0.48581
2630.56188	0.48578
2628.63332	0.48495
2626.70475	0.48394
2624.77619	0.48365
2622.84762	0.48398
2620.91906	0.48425
2618.99049	0.48400
2617.06193	0.48327
2615.13337	0.48247
2613.20480	0.48187
2611.27624	0.48134
2609.34767	0.48078
2607.41911	0.48031
2605.49054	0.48015
2603.56198	0.48019
2601.63342	0.48001
2599.70485	0.47953
2597.77629	0.47872
2595.84772	0.47718
2593.91916	0.47525
2591.99059	0.47400
2590.06203	0.47358
2588.13346	0.47336
2586.20490	0.47302
2584.27634	0.47226
2582.34777	0.47090
2580.41921	0.46941
2578.49064	0.46838
2576.56208	0.46776
2574.63351	0.46715
2572.70495	0.46644
2570.77638	0.46561
2568.84782	0.46477
2566.91926	0.46423
2564.99069	0.46378
2563.06213	0.46311
2561.13356	0.46237
2559.20500	0.46174
2557.27643	0.46130
2555.34787	0.46121
2553.41930	0.46128
2551.49074	0.46107
2549.56218	0.46074
2547.63361	0.46089
2545.70505	0.46171
2543.77648	0.46301
2541.84792	0.46436
2539.91935	0.46497
2537.99079	0.46489
2536.06222	0.46514
2534.13366	0.46576
2532.20510	0.46592
2530.27653	0.46567
2528.34797	0.46561
2526.41940	0.46586
2524.49084	0.46604
2522.56227	0.46588
2520.63371	0.46556
2518.70514	0.46507
2516.77658	0.46423
2514.84802	0.46357
2512.91945	0.46335
2510.99089	0.46292
2509.06232	0.46205
2507.13376	0.46135
2505.20519	0.46105
2503.27663	0.46071
2501.34806	0.46010
2499.41950	0.45953
2497.49094	0.45913
2495.56237	0.45876
2493.63381	0.45832
2491.70524	0.45770
2489.77668	0.45702
2487.84811	0.45665
2485.91955	0.45659
2483.99098	0.45657
2482.06242	0.45650
2480.13386	0.45640
2478.20529	0.45638
2476.27673	0.45627
2474.34816	0.45601
2472.41960	0.45599
2470.49103	0.45633
2468.56247	0.45675
2466.63391	0.45709
2464.70534	0.45740
2462.77678	0.45779
2460.84821	0.45841
2458.91965	0.45897
2456.99108	0.45911
2455.06252	0.45910
2453.13395	0.45929
2451.20539	0.45945
2449.27683	0.45948
2447.34826	0.45971
2445.41970	0.46005
2443.49113	0.46007
2441.56257	0.45945
2439.63400	0.45843
2437.70544	0.45778
2435.77687	0.45739
2433.84831	0.45659
2431.91975	0.45560
2429.99118	0.45503
2428.06262	0.45480
2426.13405	0.45444
2424.20549	0.45376
2422.27692	0.45325
2420.34836	0.45319
2418.41979	0.45302
2416.49123	0.45248
2414.56267	0.45203
2412.63410	0.45198
2410.70554	0.45223
2408.77697	0.45229
2406.84841	0.45195
2404.91984	0.45167
2402.99128	0.45176
2401.06271	0.45214
2399.13415	0.45264
2397.20559	0.45308
2395.27702	0.45354
2393.34846	0.45417
2391.41989	0.45467
2389.49133	0.45481
2387.56276	0.45506
2385.63420	0.45611
2383.70563	0.45798
2381.77707	0.46001
2379.84851	0.46197
2377.91994	0.46462
2375.99138	0.46857
2374.06281	0.47314
2372.13425	0.47678
2370.20568	0.47904
2368.27712	0.48139
2366.34855	0.48526
2364.41999	0.48942
2362.49143	0.49153
2360.56286	0.49194
2358.63430	0.49126
2356.70573	0.48902
2354.77717	0.48566
2352.84860	0.48143
2350.92004	0.47733
2348.99147	0.47510
2347.06291	0.47537
2345.13435	0.47739
2343.20578	0.47987
2341.27722	0.48288
2339.34865	0.48439
2337.42009	0.48251
2335.49152	0.48058
2333.56296	0.48151
2331.63440	0.48361
2329.70583	0.48423
2327.77727	0.48303
2325.84870	0.48122
2323.92014	0.47956
2321.99157	0.47777
2320.06301	0.47582
2318.13444	0.47460
2316.20588	0.47454
2314.27732	0.47489
2312.34875	0.47469
2310.42019	0.47384
2308.49162	0.47272
2306.56306	0.47157
2304.63449	0.47060
2302.70593	0.46992
2300.77736	0.46949
2298.84880	0.46925
2296.92024	0.46905
2294.99167	0.46883
2293.06311	0.46871
2291.13454	0.46866
2289.20598	0.46859
2287.27741	0.46835
2285.34885	0.46789
2283.42028	0.46732
2281.49172	0.46697
2279.56316	0.46731
2277.63459	0.46808
2275.70603	0.46854
2273.77746	0.46846
2271.84890	0.46810
2269.92033	0.46770
2267.99177	0.46748
2266.06320	0.46745
2264.13464	0.46730
2262.20608	0.46681
2260.27751	0.46621
2258.34895	0.46594
2256.42038	0.46596
2254.49182	0.46573
2252.56325	0.46514
2250.63469	0.46463
2248.70612	0.46433
2246.77756	0.46388
2244.84900	0.46323
2242.92043	0.46293
2240.99187	0.46293
2239.06330	0.46261
2237.13474	0.46204
2235.20617	0.46166
2233.27761	0.46163
2231.34904	0.46187
2229.42048	0.46212
2227.49192	0.46224
2225.56335	0.46222
2223.63479	0.46230
2221.70622	0.46264
2219.77766	0.46289
2217.84909	0.46292
2215.92053	0.46307
2213.99196	0.46371
2212.06340	0.46458
2210.13484	0.46518
2208.20627	0.46565
2206.27771	0.46623
2204.34914	0.46663
2202.42058	0.46677
2200.49201	0.46739
2198.56345	0.46864
2196.63488	0.46960
2194.70632	0.46999
2192.77776	0.47030
2190.84919	0.47088
2188.92063	0.47168
2186.99206	0.47242
2185.06350	0.47289
2183.13493	0.47317
2181.20637	0.47334
2179.27781	0.47339
2177.34924	0.47334
2175.42068	0.47337
2173.49211	0.47332
2171.56355	0.47285
2169.63498	0.47227
2167.70642	0.47196
2165.77785	0.47161
2163.84929	0.47088
2161.92073	0.47001
2159.99216	0.46928
2158.06360	0.46855
2156.13503	0.46762
2154.20647	0.46643
2152.27790	0.46508
2150.34934	0.46372
2148.42077	0.46243
2146.49221	0.46155
2144.56365	0.46120
2142.63508	0.46078
2140.70652	0.46007
2138.77795	0.45962
2136.84939	0.45956
2134.92082	0.45956
2132.99226	0.45959
2131.06369	0.45966
2129.13513	0.45964
2127.20657	0.45987
2125.27800	0.46041
2123.34944	0.46100
2121.42087	0.46172
2119.49231	0.46255
2117.56374	0.46325
2115.63518	0.46375
2113.70661	0.46393
2111.77805	0.46388
2109.84949	0.46411
2107.92092	0.46477
2105.99236	0.46542
2104.06379	0.46575
2102.13523	0.46593
2100.20666	0.46620
2098.27810	0.46652
2096.34953	0.46677
2094.42097	0.46683
2092.49241	0.46675
2090.56384	0.46667
2088.63528	0.46628
2086.70671	0.46560
2084.77815	0.46505
2082.84958	0.46475
2080.92102	0.46462
2078.99245	0.46448
2077.06389	0.46423
2075.13533	0.46386
2073.20676	0.46353
2071.27820	0.46332
2069.34963	0.46288
2067.42107	0.46223
2065.49250	0.46198
2063.56394	0.46208
2061.63537	0.46190
2059.70681	0.46150
2057.77825	0.46123
2055.84968	0.46090
2053.92112	0.46051
2051.99255	0.46035
2050.06399	0.46029
2048.13542	0.46001
2046.20686	0.45964
2044.27830	0.45925
2042.34973	0.45881
2040.42117	0.45837
2038.49260	0.45793
2036.56404	0.45741
2034.63547	0.45682
2032.70691	0.45621
2030.77834	0.45554
2028.84978	0.45449
2026.92122	0.45308
2024.99265	0.45189
2023.06409	0.45098
2021.13552	0.44974
2019.20696	0.44819
2017.27839	0.44665
2015.34983	0.44508
2013.42126	0.44349
2011.49270	0.44190
2009.56414	0.44007
2007.63557	0.43800
2005.70701	0.43594
2003.77844	0.43404
2001.84988	0.43238
1999.92131	0.43093
1997.99275	0.42951
1996.06418	0.42828
1994.13562	0.42725
1992.20706	0.42587
1990.27849	0.42419
1988.34993	0.42293
1986.42136	0.42211
1984.49280	0.42152
1982.56423	0.42119
1980.63567	0.42100
1978.70710	0.42087
1976.77854	0.42076
1974.84998	0.42061
1972.92141	0.42054
1970.99285	0.42052
1969.06428	0.42055
1967.13572	0.42082
1965.20715	0.42119
1963.27859	0.42145
1961.35002	0.42171
1959.42146	0.42192
1957.49290	0.42203
1955.56433	0.42219
1953.63577	0.42236
1951.70720	0.42236
1949.77864	0.42211
1947.85007	0.42177
1945.92151	0.42154
1943.99294	0.42137
1942.06438	0.42096
1940.13582	0.42035
1938.20725	0.41986
1936.27869	0.41933
1934.35012	0.41863
1932.42156	0.41800
1930.49299	0.41772
1928.56443	0.41763
1926.63586	0.41737
1924.70730	0.41697
1922.77874	0.41647
1920.85017	0.41594
1918.92161	0.41551
1916.99304	0.41486
1915.06448	0.41379
1913.13591	0.41273
1911.20735	0.41181
1909.27878	0.41078
1907.35022	0.40956
1905.42166	0.40834
1903.49309	0.40714
1901.56453	0.40585
1899.63596	0.40462
1897.70740	0.40364
1895.77883	0.40263
1893.85027	0.40133
1891.92171	0.39992
1889.99314	0.39850
1888.06458	0.39683
1886.13601	0.39511
1884.20745	0.39365
1882.27888	0.39255
1880.35032	0.39161
1878.42175	0.39052
1876.49319	0.38930
1874.56463	0.38816
1872.63606	0.38750
1870.70750	0.38736
1868.77893	0.38687
1866.85037	0.38539
1864.92180	0.38385
1862.99324	0.38267
1861.06467	0.38158
1859.13611	0.38052
1857.20755	0.37947
1855.27898	0.37827
1853.35042	0.37702
1851.42185	0.37597
1849.49329	0.37517
1847.56472	0.37455
1845.63616	0.37380
1843.70759	0.37207
1841.77903	0.36983
1839.85047	0.36805
1837.92190	0.36654
1835.99334	0.36499
1834.06477	0.36347
1832.13621	0.36236
1830.20764	0.36131
1828.27908	0.35949
1826.35051	0.35736
1824.42195	0.35536
1822.49339	0.35354
1820.56482	0.35185
1818.63626	0.35025
1816.70769	0.34866
1814.77913	0.34735
1812.85056	0.34656
1810.92200	0.34585
1808.99343	0.34477
1807.06487	0.34366
1805.13631	0.34296
1803.20774	0.34269
1801.27918	0.34266
1799.35061	0.34250
1797.42205	0.34234
1795.49348	0.34262
1793.56492	0.34328
1791.63635	0.34319
1789.70779	0.34208
1787.77923	0.34145
1785.85066	0.34159
1783.92210	0.34202
1781.99353	0.34233
1780.06497	0.34218
1778.13640	0.34200
1776.20784	0.34243
1774.27927	0.34359
1772.35071	0.34458
1770.42215	0.34410
1768.49358	0.34319
1766.56502	0.34269
1764.63645	0.34282
1762.70789	0.34345
1760.77932	0.34410
1758.85076	0.34484
1756.92220	0.34622
1754.99363	0.34796
1753.06507	0.35028
1751.13650	0.35463
1749.20794	0.36038
1747.27937	0.36483
1745.35081	0.36835
1743.42224	0.37185
1741.49368	0.37541
1739.56512	0.37899
1737.63655	0.38221
1735.70799	0.38564
1733.77942	0.39010
1731.85086	0.39292
1729.92229	0.39488
1727.99373	0.39757
1726.06516	0.40108
1724.13660	0.40623
1722.20804	0.41224
1720.27947	0.41851
1718.35091	0.42818
1716.42234	0.44298
1714.49378	0.45540
1712.56521	0.46599
1710.63665	0.47818
1708.70808	0.49295
1706.77952	0.51375
1704.85096	0.53988
1702.92239	0.56369
1700.99383	0.59743
1699.06526	0.64875
1697.13670	0.69332
1695.20813	0.73325
1693.27957	0.76282
1691.35100	0.78786
1689.42244	0.81852
1687.49388	0.84683
1685.56531	0.87608
1683.63675	0.92123
1681.70818	0.95343
1679.77962	0.97201
1677.85105	0.98960
1675.92249	1.00971
1673.99392	1.02979
1672.06536	1.04488
1670.13680	1.06003
1668.20823	1.07442
1666.27967	1.08182
1664.35110	1.08891
1662.42254	1.09925
1660.49397	1.10695
1658.56541	1.11055
1656.63684	1.11266
1654.70828	1.11707
1652.77972	1.12333
1650.85115	1.12156
1648.92259	1.11784
1646.99402	1.11500
1645.06546	1.11414
1643.13689	1.11348
1641.20833	1.11326
1639.27976	1.11385
1637.35120	1.11563
1635.42264	1.11609
1633.49407	1.11307
1631.56551	1.11076
1629.63694	1.10897
1627.70838	1.10593
1625.77981	1.10091
1623.85125	1.09326
1621.92269	1.08192
1619.99412	1.07036
1618.06556	1.05497
1616.13699	1.02811
1614.20843	1.00242
1612.27986	0.98088
1610.35130	0.95747
1608.42273	0.93249
1606.49417	0.91017
1604.56561	0.89225
1602.63704	0.87770
1600.70848	0.86642
1598.77991	0.85846
1596.85135	0.85305
1594.92278	0.84890
1592.99422	0.84573
1591.06565	0.84475
1589.13709	0.84694
1587.20853	0.85226
1585.27996	0.86018
1583.35140	0.87043
1581.42283	0.88193
1579.49427	0.89342
1577.56570	0.90797
1575.63714	0.92763
1573.70857	0.94102
1571.78001	0.95062
1569.85145	0.96481
1567.92288	0.98009
1565.99432	0.99237
1564.06575	1.00404
1562.13719	1.01287
1560.20862	1.02250
1558.28006	1.04177
1556.35149	1.05227
1554.42293	1.05601
1552.49437	1.05753
1550.56580	1.05828
1548.63724	1.05918
1546.70867	1.05972
1544.78011	1.05925
1542.85154	1.05838
1540.92298	1.05735
1538.99441	1.05165
1537.06585	1.04715
1535.13729	1.04382
1533.20872	1.03865
1531.28016	1.03282
1529.35159	1.02870
1527.42303	1.02466
1525.49446	1.01986
1523.56590	1.01674
1521.63733	1.01585
1519.70877	1.01617
1517.78021	1.01413
1515.85164	1.00664
1513.92308	0.99549
1511.99451	0.98346
1510.06595	0.97250
1508.13738	0.95576
1506.20882	0.91956
1504.28025	0.89533
1502.35169	0.87926
1500.42313	0.86185
1498.49456	0.84019
1496.56600	0.81384
1494.63743	0.79299
1492.70887	0.77925
1490.78030	0.76396
1488.85174	0.74383
1486.92317	0.72790
1484.99461	0.71736
1483.06605	0.70973
1481.13748	0.70452
1479.20892	0.70230
1477.28035	0.70354
1475.35179	0.70884
1473.42322	0.72047
1471.49466	0.73367
1469.56610	0.74072
1467.63753	0.74608
1465.70897	0.75381
1463.78040	0.76175
1461.85184	0.76611
1459.92327	0.76978
1457.99471	0.77737
1456.06614	0.78459
1454.13758	0.78546
1452.20902	0.78537
1450.28045	0.78572
1448.35189	0.78581
1446.42332	0.78443
1444.49476	0.78183
1442.56619	0.77887
1440.63763	0.77597
1438.70906	0.77256
1436.78050	0.76681
1434.85194	0.75998
1432.92337	0.75441
1430.99481	0.74835
1429.06624	0.74176
1427.13768	0.73718
1425.20911	0.73468
1423.28055	0.73344
1421.35198	0.73387
1419.42342	0.73617
1417.49486	0.73779
1415.56629	0.73721
1413.63773	0.73587
1411.70916	0.73414
1409.78060	0.73246
1407.85203	0.73164
1405.92347	0.73197
1403.99490	0.73262
1402.06634	0.73305
1400.13778	0.73396
1398.20921	0.73543
1396.28065	0.73718
1394.35208	0.73935
1392.42352	0.74238
1390.49495	0.74765
1388.56639	0.75788
1386.63782	0.77361
1384.70926	0.78941
1382.78070	0.80301
1380.85213	0.81389
1378.92357	0.81937
1376.99500	0.81806
1375.06644	0.80941
1373.13787	0.79498
1371.20931	0.77907
1369.28074	0.76069
1367.35218	0.74032
1365.42362	0.72212
1363.49505	0.70481
1361.56649	0.68846
1359.63792	0.67737
1357.70936	0.67057
1355.78079	0.66587
1353.85223	0.66276
1351.92366	0.66104
1349.99510	0.66021
1348.06654	0.65990
1346.13797	0.66038
1344.20941	0.66202
1342.28084	0.66488
1340.35228	0.66921
1338.42371	0.67488
1336.49515	0.68150
1334.56659	0.68969
1332.63802	0.69955
1330.70946	0.70963
1328.78089	0.71781
1326.85233	0.72295
1324.92376	0.72531
1322.99520	0.72607
1321.06663	0.72657
1319.13807	0.72712
1317.20951	0.72715
1315.28094	0.72643
1313.35238	0.72494
1311.42381	0.72244
1309.49525	0.71880
1307.56668	0.71392
1305.63812	0.70816
1303.70955	0.70229
1301.78099	0.69658
1299.85243	0.69081
1297.92386	0.68453
1295.99530	0.67822
1294.06673	0.67356
1292.13817	0.67143
1290.20960	0.67136
1288.28104	0.67259
1286.35247	0.67420
1284.42391	0.67569
1282.49535	0.67760
1280.56678	0.68044
1278.63822	0.68413
1276.70965	0.68870
1274.78109	0.69438
1272.85252	0.70150
1270.92396	0.70986
1268.99539	0.71858
1267.06683	0.72684
1265.13827	0.73380
1263.20970	0.73855
1261.28114	0.74100
1259.35257	0.74187
1257.42401	0.74218
1255.49544	0.74242
1253.56688	0.74238
1251.63831	0.74201
1249.70975	0.74169
1247.78119	0.74147
1245.85262	0.74072
1243.92406	0.73911
1241.99549	0.73710
1240.06693	0.73519
1238.13836	0.73296
1236.20980	0.72983
1234.28123	0.72579
1232.35267	0.72088
1230.42411	0.71497
1228.49554	0.70843
1226.56698	0.70156
1224.63841	0.69425
1222.70985	0.68692
1220.78128	0.68048
1218.85272	0.67529
1216.92415	0.67157
1214.99559	0.67002
1213.06703	0.67102
1211.13846	0.67421
1209.20990	0.67866
1207.28133	0.68249
1205.35277	0.68346
1203.42420	0.68071
1201.49564	0.67526
1199.56708	0.66846
1197.63851	0.66132
1195.70995	0.65487
1193.78138	0.65001
1191.85282	0.64718
1189.92425	0.64645
1187.99569	0.64735
1186.06712	0.64933
1184.13856	0.65254
1182.21000	0.65741
1180.28143	0.66431
1178.35287	0.67322
1176.42430	0.68373
1174.49574	0.69569
1172.56717	0.70880
1170.63861	0.72296
1168.71004	0.73873
1166.78148	0.75567
1164.85292	0.77205
1162.92435	0.78606
1160.99579	0.79567
1159.06722	0.79911
1157.13866	0.79685
1155.21009	0.79058
1153.28153	0.78100
1151.35296	0.76892
1149.42440	0.75573
1147.49584	0.74259
1145.56727	0.73178
1143.63871	0.72569
1141.71014	0.72437
1139.78158	0.72667
1137.85301	0.73193
1135.92445	0.73970
1133.99588	0.75010
1132.06732	0.76367
1130.13876	0.78010
1128.21019	0.79749
1126.28163	0.81394
1124.35306	0.82844
1122.42450	0.83986
1120.49593	0.84784
1118.56737	0.85353
1116.63880	0.85700
1114.71024	0.85680
1112.78168	0.85333
1110.85311	0.84848
1108.92455	0.84338
1106.99598	0.83888
1105.06742	0.83572
1103.13885	0.83405
1101.21029	0.83369
1099.28172	0.83537
1097.35316	0.84026
1095.42460	0.84777
1093.49603	0.85668
1091.56747	0.86654
1089.63890	0.87675
1087.71034	0.88750
1085.78177	0.89909
1083.85321	0.90964
1081.92464	0.91731
1079.99608	0.92172
1078.06752	0.92217
1076.13895	0.91863
1074.21039	0.91265
1072.28182	0.90554
1070.35326	0.89733
1068.42469	0.88827
1066.49613	0.87957
1064.56756	0.87145
1062.63900	0.86280
1060.71044	0.85395
1058.78187	0.84690
1056.85331	0.84230
1054.92474	0.83888
1052.99618	0.83553
1051.06761	0.83287
1049.13905	0.83289
1047.21049	0.83623
1045.28192	0.84220
1043.35336	0.85071
1041.42479	0.86077
1039.49623	0.86952
1037.56766	0.87545
1035.63910	0.87946
1033.71053	0.88171
1031.78197	0.88070
1029.85341	0.87588
1027.92484	0.86856
1025.99628	0.86062
1024.06771	0.85311
1022.13915	0.84564
1020.21058	0.83810
1018.28202	0.83102
1016.35345	0.82329
1014.42489	0.81302
1012.49633	0.79936
1010.56776	0.78226
1008.63920	0.76254
1006.71063	0.74195
1004.78207	0.72235
1002.85350	0.70451
1000.92494	0.68886
998.99637	0.67601
997.06781	0.66604
995.13925	0.65795
993.21068	0.64988
991.28212	0.64084
989.35355	0.63105
987.42499	0.62114
985.49642	0.61211
983.56786	0.60446
981.63929	0.59789
979.71073	0.59228
977.78217	0.58750
975.85360	0.58277
973.92504	0.57696
971.99647	0.56943
970.06791	0.56083
968.13934	0.55273
966.21078	0.54658
964.28221	0.54367
962.35365	0.54545
960.42509	0.55309
958.49652	0.56559
956.56796	0.57801
954.63939	0.58447
952.71083	0.58331
950.78226	0.57695
948.85370	0.56895
946.92513	0.56223
944.99657	0.55794
943.06801	0.55581
941.13944	0.55511
939.21088	0.55499
937.28231	0.55510
935.35375	0.55563
933.42518	0.55664
931.49662	0.55786
929.56805	0.55920
927.63949	0.56115
925.71093	0.56399
923.78236	0.56712
921.85380	0.56972
919.92523	0.57123
917.99667	0.57166
916.06810	0.57195
914.13954	0.57354
912.21098	0.57687
910.28241	0.58130
908.35385	0.58632
906.42528	0.59186
904.49672	0.59755
902.56815	0.60249
900.63959	0.60632
898.71102	0.60910
896.78246	0.61048
894.85390	0.61012
892.92533	0.60828
890.99677	0.60581
889.06820	0.60356
887.13964	0.60152
885.21107	0.59967
883.28251	0.59887
881.35394	0.59948
879.42538	0.60082
877.49682	0.60237
875.56825	0.60372
873.63969	0.60506
871.71112	0.60723
869.78256	0.61028
867.85399	0.61381
865.92543	0.61777
863.99686	0.62213
862.06830	0.62657
860.13974	0.63088
858.21117	0.63516
856.28261	0.63925
854.35404	0.64266
852.42548	0.64502
850.49691	0.64625
848.56835	0.64662
846.63978	0.64659
844.71122	0.64656
842.78266	0.64649
840.85409	0.64619
838.92553	0.64540
836.99696	0.64376
835.06840	0.64173
833.13983	0.64030
831.21127	0.63958
829.28270	0.63908
827.35414	0.63839
825.42558	0.63756
823.49701	0.63696
821.56845	0.63710
819.63988	0.63827
817.71132	0.63993
815.78275	0.64151
813.85419	0.64336
811.92562	0.64540
809.99706	0.64704
808.06850	0.64860
806.13993	0.65056
804.21137	0.65217
802.28280	0.65315
800.35424	0.65454
798.42567	0.65677
796.49711	0.65954
794.56854	0.66244
792.63998	0.66485
790.71142	0.66665
788.78285	0.66844
786.85429	0.67102
784.92572	0.67511
782.99716	0.68042
781.06859	0.68615
779.14003	0.69216
777.21147	0.69807
775.28290	0.70312
773.35434	0.70731
771.42577	0.71148
769.49721	0.71584
767.56864	0.71942
765.64008	0.72198
763.71151	0.72458
761.78295	0.72690
759.85439	0.72777
757.92582	0.72743
755.99726	0.72657
754.06869	0.72514
752.14013	0.72344
750.21156	0.72237
748.28300	0.72150
746.35443	0.71943
744.42587	0.71665
742.49731	0.71427
740.56874	0.71195
738.64018	0.70935
736.71161	0.70674
734.78305	0.70482
732.85448	0.70442
730.92592	0.70528
728.99735	0.70601
727.06879	0.70606
725.14023	0.70606
723.21166	0.70609
721.28310	0.70555
719.35453	0.70374
717.42597	0.70089
715.49740	0.69843
713.56884	0.69658
711.64027	0.69396
709.71171	0.69046
707.78315	0.68689
705.85458	0.68293
703.92602	0.67883
701.99745	0.67492
700.06889	0.67007
698.14032	0.66453
696.21176	0.66075
694.28319	0.65960
692.35463	0.65892
690.42607	0.65702
688.49750	0.65507
686.56894	0.65471
684.64037	0.65566
682.71181	0.65723
680.78324	0.65953
678.85468	0.66284
676.92611	0.66706
674.99755	0.67204
673.06899	0.67764
671.14042	0.68391
669.21186	0.69227
667.28329	0.70077
665.35473	0.70599
663.42616	0.71200
661.49760	0.72004
659.56903	0.72838
657.64047	0.73595
655.71191	0.74325
653.78334	0.75139
651.85478	0.76013
649.92621	0.76850
647.99765	0.77602
646.06908	0.78247
644.14052	0.78770
642.21195	0.79249
640.28339	0.79870
638.35483	0.80441
636.42626	0.80591
634.49770	0.80399
632.56913	0.80089
630.64057	0.79737
628.71200	0.79407
626.78344	0.79014
624.85488	0.78462
622.92631	0.77869
620.99775	0.77345
619.06918	0.76922
617.14062	0.76676
615.21205	0.76652
613.28349	0.76578
611.35492	0.76114
609.42636	0.75575
607.49780	0.75488
605.56923	0.75690
603.64067	0.75842
601.71210	0.76078
599.78354	0.76543
