3997.91406	0.37511
3995.98550	0.37590
3994.05693	0.37703
3992.12837	0.37767
3990.19980	0.37724
3988.27124	0.37648
3986.34268	0.37691
3984.41411	0.37845
3982.48555	0.37927
3980.55698	0.37853
3978.62842	0.37712
3976.69985	0.37582
3974.77129	0.37472
3972.84272	0.37368
3970.91416	0.37315
3968.98560	0.37359
3967.05703	0.37435
3965.12847	0.37486
3963.19990	0.37513
3961.27134	0.37490
3959.34277	0.37395
3957.41421	0.37257
3955.48564	0.37102
3953.55708	0.36956
3951.62852	0.36896
3949.69995	0.36916
3947.77139	0.36882
3945.84282	0.36702
3943.91426	0.36460
3941.98569	0.36386
3940.05713	0.36494
3938.12856	0.36555
3936.20000	0.36432
3934.27144	0.36196
3932.34287	0.36130
3930.41431	0.36348
3928.48574	0.36566
3926.55718	0.36696
3924.62861	0.36858
3922.70005	0.36937
3920.77148	0.36826
3918.84292	0.36684
3916.91436	0.36647
3914.98579	0.36683
3913.05723	0.36720
3911.12866	0.36730
3909.20010	0.36639
3907.27153	0.36457
3905.34297	0.36355
3903.41440	0.36428
3901.48584	0.36567
3899.55728	0.36720
3897.62871	0.36786
3895.70015	0.36659
3893.77158	0.36448
3891.84302	0.36492
3889.91445	0.36619
3887.98589	0.36376
3886.05733	0.36044
3884.12876	0.35991
3882.20020	0.36084
3880.27163	0.36441
3878.34307	0.36737
3876.41450	0.36664
3874.48594	0.36520
3872.55737	0.36435
3870.62881	0.36515
3868.70025	0.36768
3866.77168	0.36683
3864.84312	0.36485
3862.91455	0.36669
3860.98599	0.36842
3859.05742	0.36603
3857.12886	0.35822
3855.20029	0.34657
3853.27173	0.34900
3851.34317	0.36244
3849.41460	0.36600
3847.48604	0.36512
3845.55747	0.36388
3843.62891	0.36198
3841.70034	0.35773
3839.77178	0.35292
3837.84321	0.35193
3835.91465	0.35364
3833.98609	0.35534
3832.05752	0.35747
3830.12896	0.35901
3828.20039	0.35912
3826.27183	0.35857
3824.34326	0.35613
3822.41470	0.35236
3820.48613	0.35248
3818.55757	0.35320
3816.62901	0.35395
3814.70044	0.35775
3812.77188	0.35919
3810.84331	0.35694
3808.91475	0.35389
3806.98618	0.35377
3805.05762	0.35430
3803.12905	0.35313
3801.20049	0.35492
3799.27193	0.35741
3797.34336	0.35936
3795.41480	0.36289
3793.48623	0.36462
3791.55767	0.36400
3789.62910	0.36305
3787.70054	0.36245
3785.77197	0.36283
3783.84341	0.36356
3781.91485	0.36331
3779.98628	0.36347
3778.05772	0.36409
3776.12915	0.36371
3774.20059	0.36290
3772.27202	0.36175
3770.34346	0.36078
3768.41489	0.36110
3766.48633	0.36217
3764.55777	0.36226
3762.62920	0.35957
3760.70064	0.35607
3758.77207	0.35629
3756.84351	0.35812
3754.91494	0.35622
3752.98638	0.35050
3751.05781	0.34788
3749.12925	0.35150
3747.20069	0.35104
3745.27212	0.34916
3743.34356	0.35223
3741.41499	0.35432
3739.48643	0.35187
3737.55786	0.34619
3735.62930	0.34269
3733.70074	0.34653
3731.77217	0.35079
3729.84361	0.35232
3727.91504	0.35336
3725.98648	0.35524
3724.05791	0.35589
3722.12935	0.35460
3720.20078	0.35440
3718.27222	0.35562
3716.34366	0.35527
3714.41509	0.35191
3712.48653	0.34976
3710.55796	0.35537
3708.62940	0.36092
3706.70083	0.36157
3704.77227	0.35929
3702.84370	0.35751
3700.91514	0.35926
3698.98658	0.36155
3697.05801	0.36229
3695.12945	0.36155
3693.20088	0.35867
3691.27232	0.35493
3689.34375	0.35722
3687.41519	0.36428
3685.48662	0.36803
3683.55806	0.36906
3681.62950	0.36856
3679.70093	0.36672
3677.77237	0.36457
3675.84380	0.36713
3673.91524	0.37126
3671.98667	0.37136
3670.05811	0.37592
3668.12954	0.38353
3666.20098	0.38657
3664.27242	0.38799
3662.34385	0.38981
3660.41529	0.39108
3658.48672	0.39128
3656.55816	0.39296
3654.62959	0.39489
3652.70103	0.39292
3650.77246	0.38997
3648.84390	0.39734
3646.91534	0.40870
3644.98677	0.41405
3643.05821	0.41741
3641.12964	0.42115
3639.20108	0.42517
3637.27251	0.42938
3635.34395	0.43328
3633.41538	0.43474
3631.48682	0.43312
3629.55826	0.43528
3627.62969	0.44626
3625.70113	0.45309
3623.77256	0.45439
3621.84400	0.45334
3619.91543	0.45358
3617.98687	0.45803
3616.05830	0.46315
3614.12974	0.46812
3612.20118	0.47335
3610.27261	0.47698
3608.34405	0.48122
3606.41548	0.48743
3604.48692	0.49207
3602.55835	0.49593
3600.62979	0.50145
3598.70123	0.50631
3596.77266	0.50881
3594.84410	0.51216
3592.91553	0.51641
3590.98697	0.51828
3589.05840	0.52036
3587.12984	0.52812
3585.20127	0.53630
3583.27271	0.54064
3581.34415	0.54384
3579.41558	0.54696
3577.48702	0.55038
3575.55845	0.55490
3573.62989	0.55941
3571.70132	0.56274
3569.77276	0.56550
3567.84419	0.57071
3565.91563	0.58045
3563.98707	0.58814
3562.05850	0.59113
3560.12994	0.59187
3558.20137	0.59420
3556.27281	0.59850
3554.34424	0.60303
3552.41568	0.60796
3550.48711	0.61257
3548.55855	0.61632
3546.62999	0.62162
3544.70142	0.62906
3542.77286	0.63524
3540.84429	0.63966
3538.91573	0.64416
3536.98716	0.64807
3535.05860	0.65049
3533.13003	0.65368
3531.20147	0.65914
3529.27291	0.66604
3527.34434	0.67349
3525.41578	0.68046
3523.48721	0.68614
3521.55865	0.69170
3519.63008	0.69817
3517.70152	0.70492
3515.77295	0.71052
3513.84439	0.71425
3511.91583	0.71854
3509.98726	0.72628
3508.05870	0.73391
3506.13013	0.73858
3504.20157	0.74532
3502.27300	0.75497
3500.34444	0.76253
3498.41587	0.76912
3496.48731	0.77704
3494.55875	0.78445
3492.63018	0.78909
3490.70162	0.79261
3488.77305	0.79817
3486.84449	0.80435
3484.91592	0.80798
3482.98736	0.81119
3481.05879	0.81669
3479.13023	0.82216
3477.20167	0.82567
3475.27310	0.82841
3473.34454	0.83132
3471.41597	0.83447
3469.48741	0.83923
3467.55884	0.84592
3465.63028	0.85123
3463.70171	0.85414
3461.77315	0.85686
3459.84459	0.85856
3457.91602	0.85899
3455.98746	0.86128
3454.05889	0.86565
3452.13033	0.86956
3450.20176	0.87174
3448.27320	0.87225
3446.34464	0.87242
3444.41607	0.87478
3442.48751	0.88031
3440.55894	0.88661
3438.63038	0.89047
3436.70181	0.89095
3434.77325	0.89011
3432.84468	0.89063
3430.91612	0.89224
3428.98756	0.89364
3427.05899	0.89403
3425.13043	0.89309
3423.20186	0.89138
3421.27330	0.88996
3419.34473	0.89121
3417.41617	0.89522
3415.48760	0.89729
3413.55904	0.89580
3411.63048	0.89546
3409.70191	0.89756
3407.77335	0.89864
3405.84478	0.89920
3403.91622	0.90189
3401.98765	0.90516
3400.05909	0.90604
3398.13052	0.90605
3396.20196	0.90845
3394.27340	0.91272
3392.34483	0.91559
3390.41627	0.91564
3388.48770	0.91548
3386.55914	0.91647
3384.63057	0.91718
3382.70201	0.91797
3380.77344	0.91962
3378.84488	0.92066
3376.91632	0.92155
3374.98775	0.92445
3373.05919	0.92730
3371.13062	0.92827
3369.20206	0.92926
3367.27349	0.93040
3365.34493	0.93218
3363.41636	0.93658
3361.48780	0.94069
3359.55924	0.94064
3357.63067	0.93974
3355.70211	0.94292
3353.77354	0.94910
3351.84498	0.95403
3349.91641	0.95528
3347.98785	0.95438
3346.05928	0.95511
3344.13072	0.95849
3342.20216	0.96269
3340.27359	0.96577
3338.34503	0.96658
3336.41646	0.96717
3334.48790	0.97067
3332.55933	0.97575
3330.63077	0.97994
3328.70220	0.98348
3326.77364	0.98688
3324.84508	0.98976
3322.91651	0.99247
3320.98795	0.99625
3319.05938	0.99992
3317.13082	1.00157
3315.20225	1.00363
3313.27369	1.00907
3311.34513	1.01503
3309.41656	1.01656
3307.48800	1.01524
3305.55943	1.01573
3303.63087	1.01784
3301.70230	1.02034
3299.77374	1.02347
3297.84517	1.02715
3295.91661	1.03185
3293.98805	1.03634
3292.05948	1.03811
3290.13092	1.03756
3288.20235	1.03678
3286.27379	1.03728
3284.34522	1.03895
3282.41666	1.03908
3280.48809	1.03733
3278.55953	1.03661
3276.63097	1.03653
3274.70240	1.03471
3272.77384	1.03186
3270.84527	1.03059
3268.91671	1.03159
3266.98814	1.03245
3265.05958	1.03044
3263.13101	1.02506
3261.20245	1.01871
3259.27389	1.01367
3257.34532	1.00936
3255.41676	1.00473
3253.48819	0.99857
3251.55963	0.99050
3249.63106	0.98192
3247.70250	0.97388
3245.77393	0.96719
3243.84537	0.96191
3241.91681	0.95654
3239.98824	0.95004
3238.05968	0.94261
3236.13111	0.93519
3234.20255	0.92967
3232.27398	0.92633
3230.34542	0.92319
3228.41685	0.91967
3226.48829	0.91626
3224.55973	0.91384
3222.63116	0.91197
3220.70260	0.90819
3218.77403	0.90233
3216.84547	0.89594
3214.91690	0.88979
3212.98834	0.88617
3211.05977	0.88649
3209.13121	0.88710
3207.20265	0.88379
3205.27408	0.87723
3203.34552	0.86987
3201.41695	0.86365
3199.48839	0.86006
3197.55982	0.85844
3195.63126	0.85583
3193.70269	0.85140
3191.77413	0.84789
3189.84557	0.84572
3187.91700	0.84262
3185.98844	0.83802
3184.05987	0.83240
3182.13131	0.82610
3180.20274	0.82002
3178.27418	0.81517
3176.34562	0.81183
3174.41705	0.80924
3172.48849	0.80607
3170.55992	0.80195
3168.63136	0.79824
3166.70279	0.79579
3164.77423	0.79362
3162.84566	0.79047
3160.91710	0.78695
3158.98854	0.78437
3157.05997	0.78173
3155.13141	0.77777
3153.20284	0.77329
3151.27428	0.76973
3149.34571	0.76746
3147.41715	0.76564
3145.48858	0.76435
3143.56002	0.76393
3141.63146	0.76314
3139.70289	0.76153
3137.77433	0.75978
3135.84576	0.75816
3133.91720	0.75727
3131.98863	0.75744
3130.06007	0.75800
3128.13150	0.75869
3126.20294	0.75940
3124.27438	0.75960
3122.34581	0.75944
3120.41725	0.76001
3118.48868	0.76167
3116.56012	0.76341
3114.63155	0.76442
3112.70299	0.76458
3110.77442	0.76400
3108.84586	0.76365
3106.91730	0.76486
3104.98873	0.76703
3103.06017	0.76767
3101.13160	0.76601
3099.20304	0.76455
3097.27447	0.76474
3095.34591	0.76443
3093.41734	0.76184
3091.48878	0.75782
3089.56022	0.75400
3087.63165	0.75193
3085.70309	0.75148
3083.77452	0.75033
3081.84596	0.74714
3079.91739	0.74341
3077.98883	0.74139
3076.06026	0.74105
3074.13170	0.74039
3072.20314	0.73828
3070.27457	0.73531
3068.34601	0.73231
3066.41744	0.72877
3064.48888	0.72434
3062.56031	0.72082
3060.63175	0.71889
3058.70318	0.71697
3056.77462	0.71461
3054.84606	0.71190
3052.91749	0.70870
3050.98893	0.70558
3049.06036	0.70297
3047.13180	0.70065
3045.20323	0.69799
3043.27467	0.69478
3041.34610	0.69176
3039.41754	0.68911
3037.48898	0.68656
3035.56041	0.68490
3033.63185	0.68477
3031.70328	0.68453
3029.77472	0.68230
3027.84615	0.67860
3025.91759	0.67495
3023.98903	0.67240
3022.06046	0.67079
3020.13190	0.66938
3018.20333	0.66764
3016.27477	0.66516
3014.34620	0.66260
3012.41764	0.66089
3010.48907	0.66000
3008.56051	0.65945
3006.63195	0.65836
3004.70338	0.65655
3002.77482	0.65519
3000.84625	0.65512
2998.91769	0.65564
2996.98912	0.65607
2995.06056	0.65747
2993.13199	0.66016
2991.20343	0.66307
2989.27487	0.66666
2987.34630	0.67148
2985.41774	0.67621
2983.48917	0.68011
2981.56061	0.68492
2979.63204	0.69198
2977.70348	0.69953
2975.77491	0.70579
2973.84635	0.71151
2971.91779	0.71785
2969.98922	0.72476
2968.06066	0.73141
2966.13209	0.73748
2964.20353	0.74351
2962.27496	0.74843
2960.34640	0.74981
2958.41783	0.74736
2956.48927	0.74248
2954.56071	0.73708
2952.63214	0.73260
2950.70358	0.72863
2948.77501	0.72535
2946.84645	0.72495
2944.91788	0.72904
2942.98932	0.73649
2941.06075	0.74479
2939.13219	0.75320
2937.20363	0.76270
2935.27506	0.77331
2933.34650	0.78371
2931.41793	0.79293
2929.48937	0.80180
2927.56080	0.81176
2925.63224	0.82176
2923.70367	0.82933
2921.77511	0.83372
2919.84655	0.83499
2917.91798	0.83068
2915.98942	0.81740
2914.06085	0.79717
2912.13229	0.77610
2910.20372	0.75851
2908.27516	0.74566
2906.34659	0.73629
2904.41803	0.72854
2902.48947	0.72201
2900.56090	0.71717
2898.63234	0.71382
2896.70377	0.71123
2894.77521	0.70846
2892.84664	0.70457
2890.91808	0.70020
2888.98952	0.69678
2887.06095	0.69417
2885.13239	0.69202
2883.20382	0.69042
2881.27526	0.68928
2879.34669	0.68896
2877.41813	0.68917
2875.48956	0.68818
2873.56100	0.68540
2871.63244	0.68185
2869.70387	0.67730
2867.77531	0.67148
2865.84674	0.66566
2863.91818	0.66144
2861.98961	0.66063
2860.06105	0.66408
2858.13248	0.67051
2856.20392	0.67808
2854.27536	0.68614
2852.34679	0.69472
2850.41823	0.69958
2848.48966	0.69188
2846.56110	0.67071
2844.63253	0.64641
2842.70397	0.62709
2840.77540	0.61337
2838.84684	0.60340
2836.91828	0.59606
2834.98971	0.59061
2833.06115	0.58612
2831.13258	0.58211
2829.20402	0.57875
2827.27545	0.57631
2825.34689	0.57460
2823.41832	0.57277
2821.48976	0.57057
2819.56120	0.56836
2817.63263	0.56589
2815.70407	0.56324
2813.77550	0.56119
2811.84694	0.55955
2809.91837	0.55790
2807.98981	0.55658
2806.06124	0.55533
2804.13268	0.55341
2802.20412	0.55094
2800.27555	0.54875
2798.34699	0.54729
2796.41842	0.54594
2794.48986	0.54400
2792.56129	0.54184
2790.63273	0.53985
2788.70416	0.53785
2786.77560	0.53560
2784.84704	0.53291
2782.91847	0.53003
2780.98991	0.52761
2779.06134	0.52599
2777.13278	0.52481
2775.20421	0.52320
2773.27565	0.52113
2771.34708	0.51913
2769.41852	0.51724
2767.48996	0.51547
2765.56139	0.51366
2763.63283	0.51175
2761.70426	0.51005
2759.77570	0.50853
2757.84713	0.50701
2755.91857	0.50548
2753.99001	0.50431
2752.06144	0.50380
2750.13288	0.50328
2748.20431	0.50207
2746.27575	0.50095
2744.34718	0.50062
2742.41862	0.50043
2740.49005	0.49998
2738.56149	0.49943
2736.63293	0.49879
2734.70436	0.49836
2732.77580	0.49841
2730.84723	0.49831
2728.91867	0.49790
2726.99010	0.49774
2725.06154	0.49757
2723.13297	0.49691
2721.20441	0.49609
2719.27585	0.49537
2717.34728	0.49469
2715.41872	0.49375
2713.49015	0.49234
2711.56159	0.49125
2709.63302	0.49106
2707.70446	0.49081
2705.77589	0.48981
2703.84733	0.48853
2701.91877	0.48738
2699.99020	0.48625
2698.06164	0.48529
2696.13307	0.48452
2694.20451	0.48340
2692.27594	0.48188
2690.34738	0.48050
2688.41881	0.47942
2686.49025	0.47851
2684.56169	0.47763
2682.63312	0.47656
2680.70456	0.47528
2678.77599	0.47415
2676.84743	0.47347
2674.91886	0.47307
2672.99030	0.47251
2671.06173	0.47170
2669.13317	0.47087
2667.20461	0.47022
2665.27604	0.46976
2663.34748	0.46938
2661.41891	0.46905
2659.49035	0.46864
2657.56178	0.46817
2655.63322	0.46796
2653.70465	0.46755
2651.77609	0.46666
2649.84753	0.46597
2647.91896	0.46554
2645.99040	0.46497
2644.06183	0.46429
2642.13327	0.46347
2640.20470	0.46244
2638.27614	0.46155
2636.34757	0.46100
2634.41901	0.46068
2632.49045	0.46019
2630.56188	0.45909
2628.63332	0.45772
2626.70475	0.45701
2624.77619	0.45725
2622.84762	0.45760
2620.91906	0.45726
2618.99049	0.45628
2617.06193	0.45507
2615.13337	0.45411
2613.20480	0.45380
2611.27624	0.45385
2609.34767	0.45370
2607.41911	0.45355
2605.49054	0.45367
2603.56198	0.45361
2601.63342	0.45344
2599.70485	0.45350
2597.77629	0.45337
2595.84772	0.45280
2593.91916	0.45231
2591.99059	0.45225
2590.06203	0.45196
2588.13346	0.45103
2586.20490	0.45016
2584.27634	0.44957
2582.34777	0.44887
2580.41921	0.44819
2578.49064	0.44740
2576.56208	0.44603
2574.63351	0.44464
2572.70495	0.44368
2570.77638	0.44280
2568.84782	0.44194
2566.91926	0.44137
2564.99069	0.44080
2563.06213	0.43977
2561.13356	0.43834
2559.20500	0.43715
2557.27643	0.43666
2555.34787	0.43655
2553.41930	0.43628
2551.49074	0.43610
2549.56218	0.43621
2547.63361	0.43611
2545.70505	0.43569
2543.77648	0.43536
2541.84792	0.43500
2539.91935	0.43428
2537.99079	0.43347
2536.06222	0.43300
2534.13366	0.43291
2532.20510	0.43286
2530.27653	0.43236
2528.34797	0.43154
2526.41940	0.43079
2524.49084	0.42978
2522.56227	0.42829
2520.63371	0.42683
2518.70514	0.42553
2516.77658	0.42421
2514.84802	0.42293
2512.91945	0.42157
2510.99089	0.42018
2509.06232	0.41904
2507.13376	0.41802
2505.20519	0.41708
2503.27663	0.41635
2501.34806	0.41575
2499.41950	0.41537
2497.49094	0.41541
2495.56237	0.41549
2493.63381	0.41535
2491.70524	0.41526
2489.77668	0.41561
2487.84811	0.41636
2485.91955	0.41692
2483.99098	0.41695
2482.06242	0.41680
2480.13386	0.41698
2478.20529	0.41744
2476.27673	0.41770
2474.34816	0.41763
2472.41960	0.41766
2470.49103	0.41789
2468.56247	0.41778
2466.63391	0.41693
2464.70534	0.41576
2462.77678	0.41485
2460.84821	0.41417
2458.91965	0.41339
2456.99108	0.41222
2455.06252	0.41060
2453.13395	0.40888
2451.20539	0.40736
2449.27683	0.40608
2447.34826	0.40506
2445.41970	0.40399
2443.49113	0.40266
2441.56257	0.40143
2439.63400	0.40068
2437.70544	0.40026
2435.77687	0.39970
2433.84831	0.39918
2431.91975	0.39923
2429.99118	0.39956
2428.06262	0.39951
2426.13405	0.39930
2424.20549	0.39935
2422.27692	0.39948
2420.34836	0.39944
2418.41979	0.39934
2416.49123	0.39951
2414.56267	0.39997
2412.63410	0.40022
2410.70554	0.40002
2408.77697	0.39935
2406.84841	0.39832
2404.91984	0.39748
2402.99128	0.39702
2401.06271	0.39668
2399.13415	0.39615
2397.20559	0.39536
2395.27702	0.39460
2393.34846	0.39401
2391.41989	0.39335
2389.49133	0.39272
2387.56276	0.39233
2385.63420	0.39224
2383.70563	0.39276
2381.77707	0.39426
2379.84851	0.39624
2377.91994	0.39754
2375.99138	0.39822
2374.06281	0.39990
2372.13425	0.40327
2370.20568	0.40749
2368.27712	0.41252
2366.34855	0.41893
2364.41999	0.42406
2362.49143	0.42471
2360.56286	0.42250
2358.63430	0.42093
2356.70573	0.42002
2354.77717	0.41642
2352.84860	0.41017
2350.92004	0.40484
2348.99147	0.40228
2347.06291	0.40249
2345.13435	0.40475
2343.20578	0.40680
2341.27722	0.40664
2339.34865	0.40510
2337.42009	0.40390
2335.49152	0.40344
2333.56296	0.40312
2331.63440	0.40251
2329.70583	0.40172
2327.77727	0.40102
2325.84870	0.40064
2323.92014	0.40066
2321.99157	0.40000
2320.06301	0.39804
2318.13444	0.39608
2316.20588	0.39535
2314.27732	0.39536
2312.34875	0.39504
2310.42019	0.39438
2308.49162	0.39382
2306.56306	0.39323
2304.63449	0.39243
2302.70593	0.39174
2300.77736	0.39126
2298.84880	0.39053
2296.92024	0.38930
2294.99167	0.38806
2293.06311	0.38745
2291.13454	0.38741
2289.20598	0.38721
2287.27741	0.38644
2285.34885	0.38570
2283.42028	0.38536
2281.49172	0.38522
2279.56316	0.38515
2277.63459	0.38486
2275.70603	0.38431
2273.77746	0.38380
2271.84890	0.38343
2269.92033	0.38316
2267.99177	0.38297
2266.06320	0.38289
2264.13464	0.38302
2262.20608	0.38329
2260.27751	0.38359
2258.34895	0.38377
2256.42038	0.38366
2254.49182	0.38317
2252.56325	0.38277
2250.63469	0.38275
2248.70612	0.38260
2246.77756	0.38201
2244.84900	0.38128
2242.92043	0.38065
2240.99187	0.37998
2239.06330	0.37905
2237.13474	0.37797
2235.20617	0.37705
2233.27761	0.37624
2231.34904	0.37540
2229.42048	0.37461
2227.49192	0.37396
2225.56335	0.37349
2223.63479	0.37332
2221.70622	0.37348
2219.77766	0.37371
2217.84909	0.37396
2215.92053	0.37447
2213.99196	0.37517
2212.06340	0.37583
2210.13484	0.37660
2208.20627	0.37780
2206.27771	0.37913
2204.34914	0.38015
2202.42058	0.38115
2200.49201	0.38247
2198.56345	0.38370
2196.63488	0.38447
2194.70632	0.38500
2192.77776	0.38547
2190.84919	0.38588
2188.92063	0.38623
2186.99206	0.38623
2185.06350	0.38573
2183.13493	0.38512
2181.20637	0.38454
2179.27781	0.38369
2177.34924	0.38269
2175.42068	0.38196
2173.49211	0.38151
2171.56355	0.38104
2169.63498	0.38061
2167.70642	0.38043
2165.77785	0.38032
2163.84929	0.38012
2161.92073	0.38000
2159.99216	0.38011
2158.06360	0.38031
2156.13503	0.38051
2154.20647	0.38078
2152.27790	0.38112
2150.34934	0.38142
2148.42077	0.38168
2146.49221	0.38187
2144.56365	0.38189
2142.63508	0.38178
2140.70652	0.38169
2138.77795	0.38161
2136.84939	0.38137
2134.92082	0.38097
2132.99226	0.38040
2131.06369	0.37956
2129.13513	0.37850
2127.20657	0.37737
2125.27800	0.37606
2123.34944	0.37454
2121.42087	0.37319
2119.49231	0.37223
2117.56374	0.37136
2115.63518	0.37051
2113.70661	0.36972
2111.77805	0.36899
2109.84949	0.36858
2107.92092	0.36875
2105.99236	0.36924
2104.06379	0.36990
2102.13523	0.37093
2100.20666	0.37229
2098.27810	0.37367
2096.34953	0.37499
2094.42097	0.37627
2092.49241	0.37755
2090.56384	0.37892
2088.63528	0.38017
2086.70671	0.38117
2084.77815	0.38220
2082.84958	0.38330
2080.92102	0.38402
2078.99245	0.38426
2077.06389	0.38444
2075.13533	0.38456
2073.20676	0.38427
2071.27820	0.38377
2069.34963	0.38338
2067.42107	0.38293
2065.49250	0.38218
2063.56394	0.38111
2061.63537	0.37973
2059.70681	0.37837
2057.77825	0.37743
2055.84968	0.37672
2053.92112	0.37590
2051.99255	0.37498
2050.06399	0.37414
2048.13542	0.37339
2046.20686	0.37273
2044.27830	0.37205
2042.34973	0.37117
2040.42117	0.37028
2038.49260	0.36961
2036.56404	0.36902
2034.63547	0.36834
2032.70691	0.36763
2030.77834	0.36696
2028.84978	0.36619
2026.92122	0.36514
2024.99265	0.36401
2023.06409	0.36314
2021.13552	0.36240
2019.20696	0.36152
2017.27839	0.36048
2015.34983	0.35934
2013.42126	0.35822
2011.49270	0.35726
2009.56414	0.35641
2007.63557	0.35565
2005.70701	0.35508
2003.77844	0.35472
2001.84988	0.35450
1999.92131	0.35439
1997.99275	0.35446
1996.06418	0.35496
1994.13562	0.35583
1992.20706	0.35666
1990.27849	0.35732
1988.34993	0.35816
1986.42136	0.35917
1984.49280	0.36013
1982.56423	0.36117
1980.63567	0.36241
1978.70710	0.36369
1976.77854	0.36473
1974.84998	0.36553
1972.92141	0.36638
1970.99285	0.36725
1969.06428	0.36793
1967.13572	0.36838
1965.20715	0.36856
1963.27859	0.36847
1961.35002	0.36834
1959.42146	0.36820
1957.49290	0.36793
1955.56433	0.36764
1953.63577	0.36731
1951.70720	0.36676
1949.77864	0.36588
1947.85007	0.36494
1945.92151	0.36421
1943.99294	0.36341
1942.06438	0.36212
1940.13582	0.36039
1938.20725	0.35859
1936.27869	0.35697
1934.35012	0.35558
1932.42156	0.35435
1930.49299	0.35325
1928.56443	0.35218
1926.63586	0.35120
1924.70730	0.35060
1922.77874	0.34997
1920.85017	0.34883
1918.92161	0.34760
1916.99304	0.34646
1915.06448	0.34543
1913.13591	0.34484
1911.20735	0.34467
1909.27878	0.34447
1907.35022	0.34394
1905.42166	0.34327
1903.49309	0.34271
1901.56453	0.34227
1899.63596	0.34191
1897.70740	0.34163
1895.77883	0.34145
1893.85027	0.34121
1891.92171	0.34108
1889.99314	0.34119
1888.06458	0.34095
1886.13601	0.34045
1884.20745	0.34027
1882.27888	0.34033
1880.35032	0.34039
1878.42175	0.34049
1876.49319	0.34072
1874.56463	0.34101
1872.63606	0.34166
1870.70750	0.34313
1868.77893	0.34487
1866.85037	0.34524
1864.92180	0.34482
1862.99324	0.34504
1861.06467	0.34593
1859.13611	0.34682
1857.20755	0.34724
1855.27898	0.34730
1853.35042	0.34727
1851.42185	0.34739
1849.49329	0.34774
1847.56472	0.34807
1845.63616	0.34808
1843.70759	0.34704
1841.77903	0.34513
1839.85047	0.34344
1837.92190	0.34199
1835.99334	0.34043
1834.06477	0.33885
1832.13621	0.33773
1830.20764	0.33664
1828.27908	0.33481
1826.35051	0.33285
1824.42195	0.33105
1822.49339	0.32936
1820.56482	0.32802
1818.63626	0.32721
1816.70769	0.32677
1814.77913	0.32663
1812.85056	0.32698
1810.92200	0.32782
1808.99343	0.32864
1807.06487	0.32914
1805.13631	0.32976
1803.20774	0.33093
1801.27918	0.33260
1799.35061	0.33403
1797.42205	0.33490
1795.49348	0.33569
1793.56492	0.33673
1791.63635	0.33736
1789.70779	0.33686
1787.77923	0.33634
1785.85066	0.33630
1783.92210	0.33654
1781.99353	0.33683
1780.06497	0.33675
1778.13640	0.33641
1776.20784	0.33657
1774.27927	0.33784
1772.35071	0.33946
1770.42215	0.33961
1768.49358	0.33916
1766.56502	0.33925
1764.63645	0.34015
1762.70789	0.34207
1760.77932	0.34448
1758.85076	0.34676
1756.92220	0.34971
1754.99363	0.35301
1753.06507	0.35675
1751.13650	0.36267
1749.20794	0.37000
1747.27937	0.37567
1745.35081	0.38004
1743.42224	0.38407
1741.49368	0.38789
1739.56512	0.39123
1737.63655	0.39358
1735.70799	0.39568
1733.77942	0.39876
1731.85086	0.40067
1729.92229	0.40156
1727.99373	0.40320
1726.06516	0.40612
1724.13660	0.41073
1722.20804	0.41587
1720.27947	0.42128
1718.35091	0.43022
1716.42234	0.44361
1714.49378	0.45378
1712.56521	0.46228
1710.63665	0.47288
1708.70808	0.48657
1706.77952	0.50699
1704.85096	0.53358
1702.92239	0.55818
1700.99383	0.59322
1699.06526	0.64733
1697.13670	0.69654
1695.20813	0.74202
1693.27957	0.77551
1691.35100	0.80398
1689.42244	0.83949
1687.49388	0.87300
1685.56531	0.90804
1683.63675	0.96147
1681.70818	0.99876
1679.77962	1.02032
1677.85105	1.04203
1675.92249	1.06775
1673.99392	1.09361
1672.06536	1.11408
1670.13680	1.13649
1668.20823	1.15808
1666.27967	1.16919
1664.35110	1.17843
1662.42254	1.19066
1660.49397	1.20100
1658.56541	1.20775
1656.63684	1.21359
1654.70828	1.22285
1652.77972	1.23012
1650.85115	1.22662
1648.92259	1.22362
1646.99402	1.22019
1645.06546	1.21516
1643.13689	1.21113
1641.20833	1.20914
1639.27976	1.20842
1637.35120	1.20907
1635.42264	1.20787
1633.49407	1.20205
1631.56551	1.19630
1629.63694	1.18979
1627.70838	1.18110
1625.77981	1.16975
1623.85125	1.15298
1621.92269	1.13229
1619.99412	1.11490
1618.06556	1.09311
1616.13699	1.05938
1614.20843	1.03167
1612.27986	1.00979
1610.35130	0.98615
1608.42273	0.96197
1606.49417	0.94126
1604.56561	0.92464
1602.63704	0.91084
1600.70848	0.90049
1598.77991	0.89387
1596.85135	0.88965
1594.92278	0.88649
1592.99422	0.88438
1591.06565	0.88379
1589.13709	0.88527
1587.20853	0.88990
1585.27996	0.89764
1583.35140	0.90753
1581.42283	0.91832
1579.49427	0.92915
1577.56570	0.94377
1575.63714	0.96525
1573.70857	0.98045
1571.78001	0.99103
1569.85145	1.00708
1567.92288	1.02492
1565.99432	1.03854
1564.06575	1.05110
1562.13719	1.06152
1560.20862	1.07451
1558.28006	1.09861
1556.35149	1.11037
1554.42293	1.11584
1552.49437	1.12005
1550.56580	1.12202
1548.63724	1.12228
1546.70867	1.12284
1544.78011	1.12438
1542.85154	1.12628
1540.92298	1.12598
1538.99441	1.11719
1537.06585	1.10984
1535.13729	1.10428
1533.20872	1.09727
1531.28016	1.09029
1529.35159	1.08472
1527.42303	1.07862
1525.49446	1.07270
1523.56590	1.07001
1521.63733	1.06768
1519.70877	1.06350
1517.78021	1.05724
1515.85164	1.04635
1513.92308	1.03256
1511.99451	1.01808
1510.06595	1.00439
1508.13738	0.98275
1506.20882	0.93980
1504.28025	0.91454
1502.35169	0.89957
1500.42313	0.88333
1498.49456	0.86220
1496.56600	0.83579
1494.63743	0.81491
1492.70887	0.80182
1490.78030	0.78845
1488.85174	0.77045
1486.92317	0.75582
1484.99461	0.74684
1483.06605	0.74099
1481.13748	0.73781
1479.20892	0.73820
1477.28035	0.74274
1475.35179	0.75196
1473.42322	0.76760
1471.49466	0.78352
1469.56610	0.79210
1467.63753	0.79884
1465.70897	0.80770
1463.78040	0.81632
1461.85184	0.82131
1459.92327	0.82536
1457.99471	0.83237
1456.06614	0.83903
1454.13758	0.84008
1452.20902	0.83912
1450.28045	0.83711
1448.35189	0.83416
1446.42332	0.83051
1444.49476	0.82640
1442.56619	0.82183
1440.63763	0.81725
1438.70906	0.81218
1436.78050	0.80377
1434.85194	0.79336
1432.92337	0.78460
1430.99481	0.77530
1429.06624	0.76578
1427.13768	0.75983
1425.20911	0.75716
1423.28055	0.75586
1421.35198	0.75544
1419.42342	0.75604
1417.49486	0.75668
1415.56629	0.75637
1413.63773	0.75570
1411.70916	0.75484
1409.78060	0.75373
1407.85203	0.75313
1405.92347	0.75362
1403.99490	0.75433
1402.06634	0.75488
1400.13778	0.75588
1398.20921	0.75687
1396.28065	0.75751
1394.35208	0.75839
1392.42352	0.76009
1390.49495	0.76357
1388.56639	0.77100
1386.63782	0.78322
1384.70926	0.79607
1382.78070	0.80774
1380.85213	0.81764
1378.92357	0.82321
1376.99500	0.82313
1375.06644	0.81666
1373.13787	0.80465
1371.20931	0.79117
1369.28074	0.77609
1367.35218	0.75960
1365.42362	0.74474
1363.49505	0.73058
1361.56649	0.71719
1359.63792	0.70829
1357.70936	0.70339
1355.78079	0.70024
1353.85223	0.69783
1351.92366	0.69618
1349.99510	0.69519
1348.06654	0.69433
1346.13797	0.69360
1344.20941	0.69326
1342.28084	0.69365
1340.35228	0.69507
1338.42371	0.69681
1336.49515	0.69884
1334.56659	0.70248
1332.63802	0.70804
1330.70946	0.71449
1328.78089	0.72019
1326.85233	0.72398
1324.92376	0.72582
1322.99520	0.72684
1321.06663	0.72800
1319.13807	0.72936
1317.20951	0.73090
1315.28094	0.73242
1313.35238	0.73333
1311.42381	0.73322
1309.49525	0.73239
1307.56668	0.73124
1305.63812	0.72976
1303.70955	0.72771
1301.78099	0.72511
1299.85243	0.72194
1297.92386	0.71774
1295.99530	0.71291
1294.06673	0.70895
1292.13817	0.70679
1290.20960	0.70624
1288.28104	0.70644
1286.35247	0.70653
1284.42391	0.70627
1282.49535	0.70580
1280.56678	0.70562
1278.63822	0.70654
1276.70965	0.70899
1274.78109	0.71273
1272.85252	0.71766
1270.92396	0.72373
1268.99539	0.73060
1267.06683	0.73790
1265.13827	0.74464
1263.20970	0.74969
1261.28114	0.75310
1259.35257	0.75573
1257.42401	0.75818
1255.49544	0.76059
1253.56688	0.76315
1251.63831	0.76616
1249.70975	0.76937
1247.78119	0.77222
1245.85262	0.77450
1243.92406	0.77609
1241.99549	0.77679
1240.06693	0.77652
1238.13836	0.77540
1236.20980	0.77330
1234.28123	0.76985
1232.35267	0.76510
1230.42411	0.75915
1228.49554	0.75185
1226.56698	0.74335
1224.63841	0.73407
1222.70985	0.72416
1220.78128	0.71400
1218.85272	0.70430
1216.92415	0.69557
1214.99559	0.68860
1213.06703	0.68431
1211.13846	0.68247
1209.20990	0.68182
1207.28133	0.68116
1205.35277	0.67908
1203.42420	0.67436
1201.49564	0.66734
1199.56708	0.65940
1197.63851	0.65176
1195.70995	0.64518
1193.78138	0.64005
1191.85282	0.63639
1189.92425	0.63418
1187.99569	0.63320
1186.06712	0.63306
1184.13856	0.63374
1182.21000	0.63542
1180.28143	0.63826
1178.35287	0.64273
1176.42430	0.64867
1174.49574	0.65527
1172.56717	0.66229
1170.63861	0.67034
1168.71004	0.68031
1166.78148	0.69235
1164.85292	0.70523
1162.92435	0.71688
1160.99579	0.72531
1159.06722	0.72910
1157.13866	0.72746
1155.21009	0.72061
1153.28153	0.71015
1151.35296	0.69805
1149.42440	0.68549
1147.49584	0.67370
1145.56727	0.66435
1143.63871	0.65838
1141.71014	0.65591
1139.78158	0.65675
1137.85301	0.66030
1135.92445	0.66614
1133.99588	0.67415
1132.06732	0.68431
1130.13876	0.69674
1128.21019	0.71095
1126.28163	0.72559
1124.35306	0.73940
1122.42450	0.75152
1120.49593	0.76077
1118.56737	0.76655
1116.63880	0.76907
1114.71024	0.76807
1112.78168	0.76345
1110.85311	0.75632
1108.92455	0.74825
1106.99598	0.74087
1105.06742	0.73508
1103.13885	0.73079
1101.21029	0.72789
1099.28172	0.72719
1097.35316	0.72948
1095.42460	0.73454
1093.49603	0.74215
1091.56747	0.75207
1089.63890	0.76406
1087.71034	0.77846
1085.78177	0.79544
1083.85321	0.81364
1081.92464	0.83003
1079.99608	0.84187
1078.06752	0.84916
1076.13895	0.85296
1074.21039	0.85275
1072.28182	0.84848
1070.35326	0.84172
1068.42469	0.83361
1066.49613	0.82501
1064.56756	0.81678
1062.63900	0.80830
1060.71044	0.79839
1058.78187	0.78760
1056.85331	0.77783
1054.92474	0.76958
1052.99618	0.76219
1051.06761	0.75553
1049.13905	0.75019
1047.21049	0.74704
1045.28192	0.74703
1043.35336	0.75045
1041.42479	0.75590
1039.49623	0.76091
1037.56766	0.76409
1035.63910	0.76541
1033.71053	0.76512
1031.78197	0.76346
1029.85341	0.76063
1027.92484	0.75640
1025.99628	0.75073
1024.06771	0.74446
1022.13915	0.73859
1020.21058	0.73387
1018.28202	0.73053
1016.35345	0.72741
1014.42489	0.72240
1012.49633	0.71413
1010.56776	0.70298
1008.63920	0.69016
1006.71063	0.67672
1004.78207	0.66369
1002.85350	0.65208
1000.92494	0.64220
998.99637	0.63379
997.06781	0.62696
995.13925	0.62155
993.21068	0.61631
991.28212	0.60990
989.35355	0.60200
987.42499	0.59339
985.49642	0.58523
983.56786	0.57835
981.63929	0.57315
979.71073	0.56953
977.78217	0.56709
975.85360	0.56499
973.92504	0.56226
971.99647	0.55882
970.06791	0.55510
968.13934	0.55138
966.21078	0.54846
964.28221	0.54752
962.35365	0.54973
960.42509	0.55622
958.49652	0.56681
956.56796	0.57872
954.63939	0.58795
952.71083	0.59215
950.78226	0.59171
948.85370	0.58842
946.92513	0.58407
944.99657	0.58019
943.06801	0.57742
941.13944	0.57519
939.21088	0.57276
937.28231	0.56993
935.35375	0.56696
933.42518	0.56411
931.49662	0.56113
929.56805	0.55815
927.63949	0.55612
925.71093	0.55530
923.78236	0.55493
921.85380	0.55440
919.92523	0.55363
917.99667	0.55265
916.06810	0.55150
914.13954	0.55054
912.21098	0.55050
910.28241	0.55154
908.35385	0.55326
906.42528	0.55560
904.49672	0.55829
902.56815	0.56046
900.63959	0.56180
898.71102	0.56276
896.78246	0.56317
894.85390	0.56228
892.92533	0.55987
890.99677	0.55645
889.06820	0.55286
887.13964	0.54977
885.21107	0.54730
883.28251	0.54546
881.35394	0.54423
879.42538	0.54332
877.49682	0.54251
875.56825	0.54205
873.63969	0.54227
871.71112	0.54278
869.78256	0.54280
867.85399	0.54232
865.92543	0.54198
863.99686	0.54230
862.06830	0.54327
860.13974	0.54450
858.21117	0.54565
856.28261	0.54659
854.35404	0.54749
852.42548	0.54853
850.49691	0.54912
848.56835	0.54907
846.63978	0.54912
844.71122	0.54966
842.78266	0.55073
840.85409	0.55203
838.92553	0.55306
836.99696	0.55402
835.06840	0.55529
833.13983	0.55714
831.21127	0.55963
829.28270	0.56233
827.35414	0.56479
825.42558	0.56680
823.49701	0.56867
821.56845	0.57112
819.63988	0.57431
817.71132	0.57778
815.78275	0.58113
813.85419	0.58385
811.92562	0.58577
809.99706	0.58738
808.06850	0.58888
806.13993	0.58992
804.21137	0.59023
802.28280	0.59033
800.35424	0.59068
798.42567	0.59081
796.49711	0.59053
794.56854	0.59032
792.63998	0.58988
790.71142	0.58876
788.78285	0.58729
786.85429	0.58614
784.92572	0.58606
782.99716	0.58697
781.06859	0.58787
779.14003	0.58797
777.21147	0.58763
775.28290	0.58796
773.35434	0.58896
771.42577	0.58967
769.49721	0.58998
767.56864	0.59018
765.64008	0.59038
763.71151	0.59095
761.78295	0.59184
759.85439	0.59267
757.92582	0.59353
755.99726	0.59448
754.06869	0.59543
752.14013	0.59629
750.21156	0.59680
748.28300	0.59686
746.35443	0.59677
744.42587	0.59689
742.49731	0.59692
740.56874	0.59605
738.64018	0.59460
736.71161	0.59398
734.78305	0.59438
732.85448	0.59483
730.92592	0.59508
728.99735	0.59551
727.06879	0.59646
725.14023	0.59805
723.21166	0.60039
721.28310	0.60371
719.35453	0.60722
717.42597	0.61015
715.49740	0.61328
713.56884	0.61739
711.64027	0.62256
709.71171	0.62842
707.78315	0.63382
705.85458	0.63785
703.92602	0.64097
701.99745	0.64381
700.06889	0.64558
698.14032	0.64570
696.21176	0.64541
694.28319	0.64494
692.35463	0.64334
690.42607	0.64053
688.49750	0.63624
686.56894	0.63071
684.64037	0.62542
682.71181	0.62054
680.78324	0.61545
678.85468	0.60984
676.92611	0.60375
674.99755	0.59800
673.06899	0.59370
671.14042	0.59195
669.21186	0.59157
667.28329	0.58783
665.35473	0.58339
663.42616	0.58106
661.49760	0.57977
659.56903	0.57976
657.64047	0.58124
655.71191	0.58321
653.78334	0.58542
651.85478	0.58774
649.92621	0.58987
647.99765	0.59249
646.06908	0.59622
644.14052	0.60126
642.21195	0.60679
640.28339	0.61154
638.35483	0.61533
636.42626	0.61719
634.49770	0.61582
632.56913	0.61345
630.64057	0.61248
628.71200	0.61145
626.78344	0.60927
624.85488	0.60728
622.92631	0.60583
620.99775	0.60383
619.06918	0.60046
617.14062	0.59677
615.21205	0.59493
613.28349	0.59439
611.35492	0.59331
609.42636	0.59233
607.49780	0.59277
605.56923	0.59413
603.64067	0.59532
601.71210	0.59725
599.78354	0.60240
