3997.91406	0.76339
3995.98550	0.76257
3994.05693	0.76004
3992.12837	0.75642
3990.19980	0.75482
3988.27124	0.75429
3986.34268	0.75397
3984.41411	0.75518
3982.48555	0.75589
3980.55698	0.75515
3978.62842	0.75556
3976.69985	0.75592
3974.77129	0.75454
3972.84272	0.75479
3970.91416	0.75758
3968.98560	0.75863
3967.05703	0.75643
3965.12847	0.75550
3963.19990	0.75781
3961.27134	0.75791
3959.34277	0.75346
3957.41421	0.74918
3955.48564	0.74719
3953.55708	0.74634
3951.62852	0.74656
3949.69995	0.74661
3947.77139	0.74421
3945.84282	0.74084
3943.91426	0.73834
3941.98569	0.73778
3940.05713	0.73965
3938.12856	0.74193
3936.20000	0.74248
3934.27144	0.74105
3932.34287	0.74024
3930.41431	0.74103
3928.48574	0.73981
3926.55718	0.73655
3924.62861	0.73505
3922.70005	0.73677
3920.77148	0.73864
3918.84292	0.73777
3916.91436	0.73552
3914.98579	0.73457
3913.05723	0.73457
3911.12866	0.73512
3909.20010	0.73516
3907.27153	0.73341
3905.34297	0.73090
3903.41440	0.72968
3901.48584	0.72946
3899.55728	0.73044
3897.62871	0.73269
3895.70015	0.73402
3893.77158	0.73302
3891.84302	0.72985
3889.91445	0.72829
3887.98589	0.72950
3886.05733	0.72971
3884.12876	0.72703
3882.20020	0.72413
3880.27163	0.72401
3878.34307	0.72687
3876.41450	0.72720
3874.48594	0.72247
3872.55737	0.71776
3870.62881	0.71948
3868.70025	0.72513
3866.77168	0.72781
3864.84312	0.72840
3862.91455	0.72899
3860.98599	0.72873
3859.05742	0.72699
3857.12886	0.72201
3855.20029	0.70964
3853.27173	0.69939
3851.34317	0.70995
3849.41460	0.72206
3847.48604	0.72916
3845.55747	0.73095
3843.62891	0.72764
3841.70034	0.72272
3839.77178	0.71795
3837.84321	0.71435
3835.91465	0.71503
3833.98609	0.71768
3832.05752	0.72124
3830.12896	0.72474
3828.20039	0.72530
3826.27183	0.72409
3824.34326	0.72510
3822.41470	0.72662
3820.48613	0.72316
3818.55757	0.71704
3816.62901	0.71258
3814.70044	0.71392
3812.77188	0.71890
3810.84331	0.72334
3808.91475	0.72490
3806.98618	0.72143
3805.05762	0.71730
3803.12905	0.71466
3801.20049	0.71307
3799.27193	0.71344
3797.34336	0.71283
3795.41480	0.71331
3793.48623	0.71603
3791.55767	0.71729
3789.62910	0.71650
3787.70054	0.71631
3785.77197	0.71701
3783.84341	0.71729
3781.91485	0.71708
3779.98628	0.71572
3778.05772	0.71415
3776.12915	0.71416
3774.20059	0.71426
3772.27202	0.71239
3770.34346	0.70832
3768.41489	0.70583
3766.48633	0.70639
3764.55777	0.70770
3762.62920	0.70741
3760.70064	0.70429
3758.77207	0.70194
3756.84351	0.70298
3754.91494	0.70255
3752.98638	0.69647
3751.05781	0.68714
3749.12925	0.68847
3747.20069	0.69252
3745.27212	0.69181
3743.34356	0.69494
3741.41499	0.70049
3739.48643	0.70179
3737.55786	0.69887
3735.62930	0.69470
3733.70074	0.69421
3731.77217	0.69637
3729.84361	0.69945
3727.91504	0.70317
3725.98648	0.70570
3724.05791	0.70559
3722.12935	0.70459
3720.20078	0.70570
3718.27222	0.70889
3716.34366	0.71037
3714.41509	0.70701
3712.48653	0.70094
3710.55796	0.70210
3708.62940	0.70675
3706.70083	0.70750
3704.77227	0.70579
3702.84370	0.70369
3700.91514	0.70426
3698.98658	0.70661
3697.05801	0.70865
3695.12945	0.71081
3693.20088	0.71208
3691.27232	0.71009
3689.34375	0.70646
3687.41519	0.70807
3685.48662	0.71236
3683.55806	0.71560
3681.62950	0.71684
3679.70093	0.71592
3677.77237	0.71305
3675.84380	0.71267
3673.91524	0.71618
3671.98667	0.71503
3670.05811	0.71453
3668.12954	0.72249
3666.20098	0.72967
3664.27242	0.73275
3662.34385	0.73467
3660.41529	0.73764
3658.48672	0.74137
3656.55816	0.74550
3654.62959	0.74818
3652.70103	0.74689
3650.77246	0.74259
3648.84390	0.74669
3646.91534	0.75907
3644.98677	0.76713
3643.05821	0.77302
3641.12964	0.77854
3639.20108	0.78331
3637.27251	0.78823
3635.34395	0.79450
3633.41538	0.79941
3631.48682	0.79805
3629.55826	0.79454
3627.62969	0.80350
3625.70113	0.81454
3623.77256	0.82032
3621.84400	0.82430
3619.91543	0.82823
3617.98687	0.83183
3616.05830	0.83567
3614.12974	0.84061
3612.20118	0.84652
3610.27261	0.85135
3608.34405	0.85630
3606.41548	0.86230
3604.48692	0.86707
3602.55835	0.87363
3600.62979	0.88391
3598.70123	0.89180
3596.77266	0.89567
3594.84410	0.90042
3592.91553	0.90717
3590.98697	0.91243
3589.05840	0.91458
3587.12984	0.91769
3585.20127	0.92519
3583.27271	0.93265
3581.34415	0.93799
3579.41558	0.94179
3577.48702	0.94605
3575.55845	0.95262
3573.62989	0.96030
3571.70132	0.96518
3569.77276	0.96536
3567.84419	0.96683
3565.91563	0.97802
3563.98707	0.99057
3562.05850	0.99706
3560.12994	0.99863
3558.20137	1.00167
3556.27281	1.00904
3554.34424	1.01898
3552.41568	1.02948
3550.48711	1.03548
3548.55855	1.03715
3546.62999	1.04255
3544.70142	1.05373
3542.77286	1.06237
3540.84429	1.06696
3538.91573	1.07145
3536.98716	1.07779
3535.05860	1.08512
3533.13003	1.09057
3531.20147	1.09330
3529.27291	1.09475
3527.34434	1.09915
3525.41578	1.10979
3523.48721	1.12076
3521.55865	1.12468
3519.63008	1.12598
3517.70152	1.13327
3515.77295	1.14553
3513.84439	1.15415
3511.91583	1.15719
3509.98726	1.15969
3508.05870	1.16350
3506.13013	1.16950
3504.20157	1.18096
3502.27300	1.19462
3500.34444	1.20148
3498.41587	1.20129
3496.48731	1.20229
3494.55875	1.21056
3492.63018	1.22317
3490.70162	1.23159
3488.77305	1.22982
3486.84449	1.22412
3484.91592	1.22226
3482.98736	1.22701
3481.05879	1.24061
3479.13023	1.25152
3477.20167	1.25034
3475.27310	1.24799
3473.34454	1.25183
3471.41597	1.25668
3469.48741	1.26170
3467.55884	1.26828
3465.63028	1.27430
3463.70171	1.28000
3461.77315	1.28518
3459.84459	1.28934
3457.91602	1.29184
3455.98746	1.28940
3454.05889	1.28483
3452.13033	1.28434
3450.20176	1.28799
3448.27320	1.29438
3446.34464	1.30239
3444.41607	1.30752
3442.48751	1.30777
3440.55894	1.30771
3438.63038	1.31367
3436.70181	1.32430
3434.77325	1.33254
3432.84468	1.33940
3430.91612	1.34615
3428.98756	1.34459
3427.05899	1.33428
3425.13043	1.32478
3423.20186	1.32064
3421.27330	1.32275
3419.34473	1.32920
3417.41617	1.33195
3415.48760	1.32926
3413.55904	1.33048
3411.63048	1.34184
3409.70191	1.35442
3407.77335	1.35637
3405.84478	1.35462
3403.91622	1.35647
3401.98765	1.35630
3400.05909	1.35556
3398.13052	1.35590
3396.20196	1.34972
3394.27340	1.33958
3392.34483	1.33605
3390.41627	1.33934
3388.48770	1.34389
3386.55914	1.34803
3384.63057	1.35105
3382.70201	1.35226
3380.77344	1.35250
3378.84488	1.35439
3376.91632	1.35812
3374.98775	1.36051
3373.05919	1.36123
3371.13062	1.36110
3369.20206	1.36148
3367.27349	1.36659
3365.34493	1.37628
3363.41636	1.38224
3361.48780	1.38232
3359.55924	1.38416
3357.63067	1.38806
3355.70211	1.38930
3353.77354	1.38862
3351.84498	1.38958
3349.91641	1.39714
3347.98785	1.40890
3346.05928	1.41247
3344.13072	1.40540
3342.20216	1.39965
3340.27359	1.39752
3338.34503	1.39058
3336.41646	1.38544
3334.48790	1.39606
3332.55933	1.41742
3330.63077	1.43225
3328.70220	1.43266
3326.77364	1.42499
3324.84508	1.41901
3322.91651	1.42060
3320.98795	1.42748
3319.05938	1.43035
3317.13082	1.42862
3315.20225	1.43083
3313.27369	1.43834
3311.34513	1.44612
3309.41656	1.44900
3307.48800	1.44605
3305.55943	1.44293
3303.63087	1.44361
3301.70230	1.44542
3299.77374	1.44485
3297.84517	1.44327
3295.91661	1.44118
3293.98805	1.43705
3292.05948	1.43545
3290.13092	1.43975
3288.20235	1.44317
3286.27379	1.44264
3284.34522	1.44623
3282.41666	1.45477
3280.48809	1.45784
3278.55953	1.44826
3276.63097	1.43232
3274.70240	1.42829
3272.77384	1.43983
3270.84527	1.44761
3268.91671	1.43917
3266.98814	1.42298
3265.05958	1.41308
3263.13101	1.41359
3261.20245	1.41874
3259.27389	1.42004
3257.34532	1.41150
3255.41676	1.39700
3253.48819	1.38766
3251.55963	1.38581
3249.63106	1.38606
3247.70250	1.39001
3245.77393	1.39806
3243.84537	1.40348
3241.91681	1.40222
3239.98824	1.39338
3238.05968	1.38181
3236.13111	1.37379
3234.20255	1.36943
3232.27398	1.36482
3230.34542	1.35771
3228.41685	1.35302
3226.48829	1.35516
3224.55973	1.35965
3222.63116	1.35698
3220.70260	1.34445
3218.77403	1.33368
3216.84547	1.33562
3214.91690	1.34249
3212.98834	1.33935
3211.05977	1.33088
3209.13121	1.32905
3207.20265	1.33090
3205.27408	1.32734
3203.34552	1.31772
3201.41695	1.31025
3199.48839	1.30849
3197.55982	1.30786
3195.63126	1.30595
3193.70269	1.30396
3191.77413	1.30127
3189.84557	1.29723
3187.91700	1.29428
3185.98844	1.29215
3184.05987	1.28889
3182.13131	1.28500
3180.20274	1.28011
3178.27418	1.27689
3176.34562	1.27902
3174.41705	1.28209
3172.48849	1.27986
3170.55992	1.27354
3168.63136	1.26777
3166.70279	1.26506
3164.77423	1.26449
3162.84566	1.26394
3160.91710	1.26352
3158.98854	1.26233
3157.05997	1.25919
3155.13141	1.25529
3153.20284	1.25160
3151.27428	1.24944
3149.34571	1.24809
3147.41715	1.24606
3145.48858	1.24443
3143.56002	1.24226
3141.63146	1.23714
3139.70289	1.22970
3137.77433	1.22371
3135.84576	1.22194
3133.91720	1.22339
3131.98863	1.22373
3130.06007	1.22006
3128.13150	1.21537
3126.20294	1.21372
3124.27438	1.21544
3122.34581	1.21786
3120.41725	1.21818
3118.48868	1.21555
3116.56012	1.21251
3114.63155	1.21259
3112.70299	1.21418
3110.77442	1.21547
3108.84586	1.21758
3106.91730	1.21841
3104.98873	1.21601
3103.06017	1.21331
3101.13160	1.21248
3099.20304	1.21227
3097.27447	1.21288
3095.34591	1.21404
3093.41734	1.21294
3091.48878	1.20969
3089.56022	1.20579
3087.63165	1.20106
3085.70309	1.19568
3083.77452	1.19322
3081.84596	1.19715
3079.91739	1.20270
3077.98883	1.20406
3076.06026	1.20320
3074.13170	1.20175
3072.20314	1.19921
3070.27457	1.19775
3068.34601	1.19873
3066.41744	1.19892
3064.48888	1.19483
3062.56031	1.18853
3060.63175	1.18385
3058.70318	1.18191
3056.77462	1.18179
3054.84606	1.18012
3052.91749	1.17583
3050.98893	1.17185
3049.06036	1.16828
3047.13180	1.16399
3045.20323	1.15935
3043.27467	1.15443
3041.34610	1.15004
3039.41754	1.14633
3037.48898	1.14145
3035.56041	1.13480
3033.63185	1.12969
3031.70328	1.12944
3029.77472	1.13033
3027.84615	1.12709
3025.91759	1.12117
3023.98903	1.11487
3022.06046	1.10950
3020.13190	1.10755
3018.20333	1.10816
3016.27477	1.10844
3014.34620	1.10682
3012.41764	1.10287
3010.48907	1.09953
3008.56051	1.09942
3006.63195	1.10038
3004.70338	1.09945
3002.77482	1.09790
3000.84625	1.09877
2998.91769	1.10118
2996.98912	1.10224
2995.06056	1.10173
2993.13199	1.10194
2991.20343	1.10480
2989.27487	1.10932
2987.34630	1.11381
2985.41774	1.11787
2983.48917	1.12176
2981.56061	1.12800
2979.63204	1.13809
2977.70348	1.14910
2975.77491	1.15844
2973.84635	1.16664
2971.91779	1.17490
2969.98922	1.18230
2968.06066	1.18696
2966.13209	1.18970
2964.20353	1.19252
2962.27496	1.19478
2960.34640	1.19604
2958.41783	1.19833
2956.48927	1.19894
2954.56071	1.19305
2952.63214	1.18446
2950.70358	1.17858
2948.77501	1.17542
2946.84645	1.17569
2944.91788	1.18106
2942.98932	1.18902
2941.06075	1.19735
2939.13219	1.20799
2937.20363	1.21932
2935.27506	1.22693
2933.34650	1.23149
2931.41793	1.23601
2929.48937	1.24177
2927.56080	1.24808
2925.63224	1.25314
2923.70367	1.25568
2921.77511	1.25550
2919.84655	1.25246
2917.91798	1.24477
2915.98942	1.23068
2914.06085	1.21145
2912.13229	1.19104
2910.20372	1.17377
2908.27516	1.16123
2906.34659	1.15191
2904.41803	1.14489
2902.48947	1.13954
2900.56090	1.13382
2898.63234	1.12749
2896.70377	1.12218
2894.77521	1.11878
2892.84664	1.11695
2890.91808	1.11482
2888.98952	1.11155
2887.06095	1.10777
2885.13239	1.10378
2883.20382	1.10190
2881.27526	1.10418
2879.34669	1.10828
2877.41813	1.11039
2875.48956	1.10980
2873.56100	1.10789
2871.63244	1.10433
2869.70387	1.09873
2867.77531	1.09288
2865.84674	1.08888
2863.91818	1.08823
2861.98961	1.08943
2860.06105	1.08934
2858.13248	1.08916
2856.20392	1.09228
2854.27536	1.09716
2852.34679	1.09903
2850.41823	1.09584
2848.48966	1.08623
2846.56110	1.06896
2844.63253	1.04762
2842.70397	1.02906
2840.77540	1.01653
2838.84684	1.00789
2836.91828	1.00145
2834.98971	0.99683
2833.06115	0.99170
2831.13258	0.98527
2829.20402	0.97964
2827.27545	0.97543
2825.34689	0.97192
2823.41832	0.96895
2821.48976	0.96589
2819.56120	0.96212
2817.63263	0.95830
2815.70407	0.95496
2813.77550	0.95197
2811.84694	0.94936
2809.91837	0.94707
2807.98981	0.94388
2806.06124	0.93898
2804.13268	0.93426
2802.20412	0.93096
2800.27555	0.92803
2798.34699	0.92508
2796.41842	0.92260
2794.48986	0.92029
2792.56129	0.91742
2790.63273	0.91437
2788.70416	0.91221
2786.77560	0.91098
2784.84704	0.90961
2782.91847	0.90738
2780.98991	0.90489
2779.06134	0.90272
2777.13278	0.90051
2775.20421	0.89840
2773.27565	0.89661
2771.34708	0.89439
2769.41852	0.89152
2767.48996	0.88894
2765.56139	0.88727
2763.63283	0.88613
2761.70426	0.88471
2759.77570	0.88278
2757.84713	0.88073
2755.91857	0.87877
2753.99001	0.87714
2752.06144	0.87598
2750.13288	0.87492
2748.20431	0.87320
2746.27575	0.87050
2744.34718	0.86778
2742.41862	0.86550
2740.49005	0.86358
2738.56149	0.86257
2736.63293	0.86213
2734.70436	0.86161
2732.77580	0.86084
2730.84723	0.85950
2728.91867	0.85822
2726.99010	0.85755
2725.06154	0.85658
2723.13297	0.85473
2721.20441	0.85293
2719.27585	0.85249
2717.34728	0.85262
2715.41872	0.85171
2713.49015	0.85043
2711.56159	0.85013
2709.63302	0.85008
2707.70446	0.84909
2705.77589	0.84740
2703.84733	0.84513
2701.91877	0.84219
2699.99020	0.83927
2698.06164	0.83721
2696.13307	0.83602
2694.20451	0.83465
2692.27594	0.83243
2690.34738	0.83005
2688.41881	0.82842
2686.49025	0.82748
2684.56169	0.82651
2682.63312	0.82534
2680.70456	0.82422
2678.77599	0.82277
2676.84743	0.82066
2674.91886	0.81834
2672.99030	0.81614
2671.06173	0.81448
2669.13317	0.81380
2667.20461	0.81313
2665.27604	0.81162
2663.34748	0.81032
2661.41891	0.80998
2659.49035	0.81005
2657.56178	0.81009
2655.63322	0.80977
2653.70465	0.80855
2651.77609	0.80680
2649.84753	0.80599
2647.91896	0.80606
2645.99040	0.80551
2644.06183	0.80435
2642.13327	0.80373
2640.20470	0.80405
2638.27614	0.80480
2636.34757	0.80499
2634.41901	0.80471
2632.49045	0.80476
2630.56188	0.80463
2628.63332	0.80349
2626.70475	0.80163
2624.77619	0.79996
2622.84762	0.79929
2620.91906	0.79916
2618.99049	0.79844
2617.06193	0.79679
2615.13337	0.79470
2613.20480	0.79294
2611.27624	0.79153
2609.34767	0.78997
2607.41911	0.78823
2605.49054	0.78666
2603.56198	0.78524
2601.63342	0.78356
2599.70485	0.78172
2597.77629	0.78023
2595.84772	0.77878
2593.91916	0.77693
2591.99059	0.77582
2590.06203	0.77617
2588.13346	0.77656
2586.20490	0.77569
2584.27634	0.77390
2582.34777	0.77224
2580.41921	0.77143
2578.49064	0.77106
2576.56208	0.77040
2574.63351	0.77002
2572.70495	0.77008
2570.77638	0.76926
2568.84782	0.76745
2566.91926	0.76576
2564.99069	0.76469
2563.06213	0.76436
2561.13356	0.76395
2559.20500	0.76277
2557.27643	0.76167
2555.34787	0.76101
2553.41930	0.76001
2551.49074	0.75843
2549.56218	0.75680
2547.63361	0.75571
2545.70505	0.75471
2543.77648	0.75316
2541.84792	0.75156
2539.91935	0.75048
2537.99079	0.74943
2536.06222	0.74785
2534.13366	0.74612
2532.20510	0.74451
2530.27653	0.74289
2528.34797	0.74159
2526.41940	0.74052
2524.49084	0.73899
2522.56227	0.73741
2520.63371	0.73642
2518.70514	0.73548
2516.77658	0.73446
2514.84802	0.73383
2512.91945	0.73281
2510.99089	0.73079
2509.06232	0.72886
2507.13376	0.72793
2505.20519	0.72758
2503.27663	0.72717
2501.34806	0.72652
2499.41950	0.72543
2497.49094	0.72416
2495.56237	0.72331
2493.63381	0.72281
2491.70524	0.72240
2489.77668	0.72208
2487.84811	0.72146
2485.91955	0.72015
2483.99098	0.71830
2482.06242	0.71663
2480.13386	0.71548
2478.20529	0.71453
2476.27673	0.71336
2474.34816	0.71179
2472.41960	0.71018
2470.49103	0.70898
2468.56247	0.70795
2466.63391	0.70702
2464.70534	0.70650
2462.77678	0.70621
2460.84821	0.70534
2458.91965	0.70377
2456.99108	0.70217
2455.06252	0.70073
2453.13395	0.69941
2451.20539	0.69828
2449.27683	0.69734
2447.34826	0.69655
2445.41970	0.69556
2443.49113	0.69450
2441.56257	0.69385
2439.63400	0.69325
2437.70544	0.69228
2435.77687	0.69103
2433.84831	0.68957
2431.91975	0.68815
2429.99118	0.68728
2428.06262	0.68674
2426.13405	0.68576
2424.20549	0.68413
2422.27692	0.68240
2420.34836	0.68116
2418.41979	0.68007
2416.49123	0.67850
2414.56267	0.67652
2412.63410	0.67466
2410.70554	0.67344
2408.77697	0.67237
2406.84841	0.67060
2404.91984	0.66876
2402.99128	0.66758
2401.06271	0.66676
2399.13415	0.66583
2397.20559	0.66441
2395.27702	0.66280
2393.34846	0.66196
2391.41989	0.66170
2389.49133	0.66104
2387.56276	0.65993
2385.63420	0.65891
2383.70563	0.65845
2381.77707	0.65886
2379.84851	0.65996
2377.91994	0.66153
2375.99138	0.66408
2374.06281	0.66757
2372.13425	0.67072
2370.20568	0.67314
2368.27712	0.67559
2366.34855	0.67826
2364.41999	0.67979
2362.49143	0.68016
2360.56286	0.67931
2358.63430	0.67539
2356.70573	0.67188
2354.77717	0.67036
2352.84860	0.66695
2350.92004	0.66287
2348.99147	0.66121
2347.06291	0.66194
2345.13435	0.66318
2343.20578	0.66411
2341.27722	0.66583
2339.34865	0.66636
2337.42009	0.66425
2335.49152	0.66165
2333.56296	0.65941
2331.63440	0.65705
2329.70583	0.65508
2327.77727	0.65334
2325.84870	0.65139
2323.92014	0.64962
2321.99157	0.64813
2320.06301	0.64678
2318.13444	0.64568
2316.20588	0.64455
2314.27732	0.64250
2312.34875	0.63952
2310.42019	0.63723
2308.49162	0.63651
2306.56306	0.63620
2304.63449	0.63538
2302.70593	0.63447
2300.77736	0.63381
2298.84880	0.63311
2296.92024	0.63205
2294.99167	0.63070
2293.06311	0.62996
2291.13454	0.63010
2289.20598	0.62996
2287.27741	0.62922
2285.34885	0.62881
2283.42028	0.62873
2281.49172	0.62850
2279.56316	0.62836
2277.63459	0.62842
2275.70603	0.62829
2273.77746	0.62788
2271.84890	0.62712
2269.92033	0.62586
2267.99177	0.62476
2266.06320	0.62424
2264.13464	0.62356
2262.20608	0.62235
2260.27751	0.62095
2258.34895	0.61957
2256.42038	0.61819
2254.49182	0.61683
2252.56325	0.61547
2250.63469	0.61421
2248.70612	0.61337
2246.77756	0.61297
2244.84900	0.61267
2242.92043	0.61211
2240.99187	0.61134
2239.06330	0.61073
2237.13474	0.61023
2235.20617	0.60955
2233.27761	0.60895
2231.34904	0.60864
2229.42048	0.60838
2227.49192	0.60826
2225.56335	0.60830
2223.63479	0.60817
2221.70622	0.60785
2219.77766	0.60735
2217.84909	0.60685
2215.92053	0.60662
2213.99196	0.60642
2212.06340	0.60606
2210.13484	0.60572
2208.20627	0.60553
2206.27771	0.60503
2204.34914	0.60378
2202.42058	0.60245
2200.49201	0.60171
2198.56345	0.60124
2196.63488	0.60073
2194.70632	0.60010
2192.77776	0.59921
2190.84919	0.59794
2188.92063	0.59637
2186.99206	0.59482
2185.06350	0.59351
2183.13493	0.59237
2181.20637	0.59140
2179.27781	0.59062
2177.34924	0.58995
2175.42068	0.58915
2173.49211	0.58808
2171.56355	0.58720
2169.63498	0.58710
2167.70642	0.58726
2165.77785	0.58699
2163.84929	0.58656
2161.92073	0.58638
2159.99216	0.58630
2158.06360	0.58594
2156.13503	0.58549
2154.20647	0.58540
2152.27790	0.58548
2150.34934	0.58535
2148.42077	0.58518
2146.49221	0.58512
2144.56365	0.58502
2142.63508	0.58494
2140.70652	0.58491
2138.77795	0.58492
2136.84939	0.58505
2134.92082	0.58515
2132.99226	0.58475
2131.06369	0.58370
2129.13513	0.58281
2127.20657	0.58257
2125.27800	0.58252
2123.34944	0.58228
2121.42087	0.58170
2119.49231	0.58079
2117.56374	0.57963
2115.63518	0.57847
2113.70661	0.57766
2111.77805	0.57706
2109.84949	0.57647
2107.92092	0.57610
2105.99236	0.57576
2104.06379	0.57517
2102.13523	0.57460
2100.20666	0.57421
2098.27810	0.57374
2096.34953	0.57307
2094.42097	0.57260
2092.49241	0.57251
2090.56384	0.57250
2088.63528	0.57193
2086.70671	0.57062
2084.77815	0.56932
2082.84958	0.56858
2080.92102	0.56830
2078.99245	0.56819
2077.06389	0.56791
2075.13533	0.56715
2073.20676	0.56606
2071.27820	0.56498
2069.34963	0.56419
2067.42107	0.56359
2065.49250	0.56281
2063.56394	0.56190
2061.63537	0.56089
2059.70681	0.55940
2057.77825	0.55765
2055.84968	0.55622
2053.92112	0.55491
2051.99255	0.55329
2050.06399	0.55168
2048.13542	0.55039
2046.20686	0.54904
2044.27830	0.54746
2042.34973	0.54598
2040.42117	0.54471
2038.49260	0.54354
2036.56404	0.54253
2034.63547	0.54181
2032.70691	0.54134
2030.77834	0.54075
2028.84978	0.53980
2026.92122	0.53869
2024.99265	0.53761
2023.06409	0.53648
2021.13552	0.53533
2019.20696	0.53442
2017.27839	0.53359
2015.34983	0.53249
2013.42126	0.53106
2011.49270	0.52951
2009.56414	0.52826
2007.63557	0.52741
2005.70701	0.52648
2003.77844	0.52519
2001.84988	0.52376
1999.92131	0.52224
1997.99275	0.52065
1996.06418	0.51935
1994.13562	0.51829
1992.20706	0.51676
1990.27849	0.51461
1988.34993	0.51243
1986.42136	0.51026
1984.49280	0.50804
1982.56423	0.50604
1980.63567	0.50419
1978.70710	0.50226
1976.77854	0.50034
1974.84998	0.49852
1972.92141	0.49685
1970.99285	0.49546
1969.06428	0.49427
1967.13572	0.49302
1965.20715	0.49173
1963.27859	0.49061
1961.35002	0.48959
1959.42146	0.48872
1957.49290	0.48816
1955.56433	0.48782
1953.63577	0.48742
1951.70720	0.48680
1949.77864	0.48601
1947.85007	0.48536
1945.92151	0.48509
1943.99294	0.48490
1942.06438	0.48410
1940.13582	0.48275
1938.20725	0.48156
1936.27869	0.48076
1934.35012	0.48008
1932.42156	0.47936
1930.49299	0.47874
1928.56443	0.47825
1926.63586	0.47789
1924.70730	0.47753
1922.77874	0.47666
1920.85017	0.47535
1918.92161	0.47420
1916.99304	0.47315
1915.06448	0.47202
1913.13591	0.47089
1911.20735	0.46983
1909.27878	0.46886
1907.35022	0.46812
1905.42166	0.46764
1903.49309	0.46711
1901.56453	0.46647
1899.63596	0.46601
1897.70740	0.46585
1895.77883	0.46583
1893.85027	0.46570
1891.92171	0.46568
1889.99314	0.46596
1888.06458	0.46591
1886.13601	0.46540
1884.20745	0.46501
1882.27888	0.46486
1880.35032	0.46471
1878.42175	0.46443
1876.49319	0.46403
1874.56463	0.46363
1872.63606	0.46341
1870.70750	0.46351
1868.77893	0.46355
1866.85037	0.46266
1864.92180	0.46136
1862.99324	0.46057
1861.06467	0.46031
1859.13611	0.46004
1857.20755	0.45947
1855.27898	0.45883
1853.35042	0.45843
1851.42185	0.45842
1849.49329	0.45883
1847.56472	0.45948
1845.63616	0.46010
1843.70759	0.45997
1841.77903	0.45900
1839.85047	0.45824
1837.92190	0.45792
1835.99334	0.45771
1834.06477	0.45763
1832.13621	0.45802
1830.20764	0.45855
1828.27908	0.45856
1826.35051	0.45844
1824.42195	0.45830
1822.49339	0.45788
1820.56482	0.45753
1818.63626	0.45757
1816.70769	0.45790
1814.77913	0.45852
1812.85056	0.45943
1810.92200	0.46041
1808.99343	0.46121
1807.06487	0.46192
1805.13631	0.46267
1803.20774	0.46344
1801.27918	0.46445
1799.35061	0.46547
1797.42205	0.46641
1795.49348	0.46741
1793.56492	0.46820
1791.63635	0.46847
1789.70779	0.46826
1787.77923	0.46819
1785.85066	0.46853
1783.92210	0.46938
1781.99353	0.47050
1780.06497	0.47136
1778.13640	0.47213
1776.20784	0.47334
1774.27927	0.47540
1772.35071	0.47808
1770.42215	0.47998
1768.49358	0.48129
1766.56502	0.48290
1764.63645	0.48531
1762.70789	0.48943
1760.77932	0.49497
1758.85076	0.50072
1756.92220	0.50779
1754.99363	0.51529
1753.06507	0.52315
1751.13650	0.53474
1749.20794	0.54921
1747.27937	0.56074
1745.35081	0.56964
1743.42224	0.57777
1741.49368	0.58527
1739.56512	0.59174
1737.63655	0.59615
1735.70799	0.59983
1733.77942	0.60506
1731.85086	0.60913
1729.92229	0.61183
1727.99373	0.61505
1726.06516	0.61959
1724.13660	0.62622
1722.20804	0.63355
1720.27947	0.64124
1718.35091	0.65379
1716.42234	0.67229
1714.49378	0.68690
1712.56521	0.70000
1710.63665	0.71585
1708.70808	0.73539
1706.77952	0.76282
1704.85096	0.79770
1702.92239	0.82985
1700.99383	0.87403
1699.06526	0.94130
1697.13670	1.00105
1695.20813	1.05612
1693.27957	1.09661
1691.35100	1.12907
1689.42244	1.16688
1687.49388	1.19899
1685.56531	1.22722
1683.63675	1.26839
1681.70818	1.29884
1679.77962	1.31541
1677.85105	1.32895
1675.92249	1.34272
1673.99392	1.35540
1672.06536	1.36612
1670.13680	1.37873
1668.20823	1.38880
1666.27967	1.38958
1664.35110	1.38913
1662.42254	1.39245
1660.49397	1.39710
1658.56541	1.40140
1656.63684	1.40531
1654.70828	1.41268
1652.77972	1.42028
1650.85115	1.41699
1648.92259	1.41421
1646.99402	1.41194
1645.06546	1.40961
1643.13689	1.40847
1641.20833	1.40748
1639.27976	1.40561
1637.35120	1.40452
1635.42264	1.40159
1633.49407	1.39409
1631.56551	1.38845
1629.63694	1.38398
1627.70838	1.37846
1625.77981	1.37136
1623.85125	1.36155
1621.92269	1.34869
1619.99412	1.33743
1618.06556	1.32313
1616.13699	1.29609
1614.20843	1.27119
1612.27986	1.25418
1610.35130	1.23759
1608.42273	1.21877
1606.49417	1.20236
1604.56561	1.19254
1602.63704	1.18731
1600.70848	1.18338
1598.77991	1.17992
1596.85135	1.17825
1594.92278	1.17928
1592.99422	1.18236
1591.06565	1.18638
1589.13709	1.19118
1587.20853	1.19733
1585.27996	1.20584
1583.35140	1.21770
1581.42283	1.23054
1579.49427	1.24164
1577.56570	1.25501
1575.63714	1.27219
1573.70857	1.28173
1571.78001	1.28776
1569.85145	1.29964
1567.92288	1.31364
1565.99432	1.32232
1564.06575	1.32921
1562.13719	1.33650
1560.20862	1.34879
1558.28006	1.36299
1556.35149	1.36174
1554.42293	1.36092
1552.49437	1.36057
1550.56580	1.35784
1548.63724	1.35487
1546.70867	1.35300
1544.78011	1.34843
1542.85154	1.34014
1540.92298	1.33493
1538.99441	1.33133
1537.06585	1.32680
1535.13729	1.32185
1533.20872	1.31487
1531.28016	1.30753
1529.35159	1.30225
1527.42303	1.29719
1525.49446	1.29244
1523.56590	1.29075
1521.63733	1.28871
1519.70877	1.28369
1517.78021	1.27603
1515.85164	1.26501
1513.92308	1.25312
1511.99451	1.24106
1510.06595	1.23005
1508.13738	1.21334
1506.20882	1.17879
1504.28025	1.15803
1502.35169	1.14500
1500.42313	1.12941
1498.49456	1.10754
1496.56600	1.07943
1494.63743	1.05722
1492.70887	1.04325
1490.78030	1.02855
1488.85174	1.00846
1486.92317	0.99232
1484.99461	0.98252
1483.06605	0.97645
1481.13748	0.97336
1479.20892	0.97378
1477.28035	0.97939
1475.35179	0.99219
1473.42322	1.01329
1471.49466	1.03371
1469.56610	1.04460
1467.63753	1.05237
1465.70897	1.06177
1463.78040	1.07163
1461.85184	1.07867
1459.92327	1.08553
1457.99471	1.09684
1456.06614	1.10629
1454.13758	1.10764
1452.20902	1.10741
1450.28045	1.10728
1448.35189	1.10684
1446.42332	1.10523
1444.49476	1.10304
1442.56619	1.10080
1440.63763	1.09840
1438.70906	1.09502
1436.78050	1.08870
1434.85194	1.08092
1432.92337	1.07539
1430.99481	1.07144
1429.06624	1.06846
1427.13768	1.06762
1425.20911	1.06955
1423.28055	1.07304
1421.35198	1.07639
1419.42342	1.08074
1417.49486	1.08532
1415.56629	1.08740
1413.63773	1.08847
1411.70916	1.08935
1409.78060	1.08972
1407.85203	1.09015
1405.92347	1.09183
1403.99490	1.09398
1402.06634	1.09509
1400.13778	1.09503
1398.20921	1.09377
1396.28065	1.09230
1394.35208	1.09134
1392.42352	1.09129
1390.49495	1.09247
1388.56639	1.09588
1386.63782	1.10304
1384.70926	1.11149
1382.78070	1.11869
1380.85213	1.12335
1378.92357	1.12378
1376.99500	1.12015
1375.06644	1.11247
1373.13787	1.10107
1371.20931	1.08915
1369.28074	1.07607
1367.35218	1.06125
1365.42362	1.04751
1363.49505	1.03438
1361.56649	1.02169
1359.63792	1.01287
1357.70936	1.00824
1355.78079	1.00603
1353.85223	1.00440
1351.92366	1.00257
1349.99510	1.00085
1348.06654	0.99910
1346.13797	0.99705
1344.20941	0.99523
1342.28084	0.99411
1340.35228	0.99338
1338.42371	0.99288
1336.49515	0.99399
1334.56659	0.99792
1332.63802	1.00426
1330.70946	1.01153
1328.78089	1.01809
1326.85233	1.02317
1324.92376	1.02709
1322.99520	1.03069
1321.06663	1.03491
1319.13807	1.04012
1317.20951	1.04507
1315.28094	1.04872
1313.35238	1.05202
1311.42381	1.05525
1309.49525	1.05743
1307.56668	1.05823
1305.63812	1.05796
1303.70955	1.05664
1301.78099	1.05402
1299.85243	1.05030
1297.92386	1.04555
1295.99530	1.03970
1294.06673	1.03361
1292.13817	1.02865
1290.20960	1.02474
1288.28104	1.02067
1286.35247	1.01636
1284.42391	1.01251
1282.49535	1.00911
1280.56678	1.00565
1278.63822	1.00222
1276.70965	0.99932
1274.78109	0.99746
1272.85252	0.99778
1270.92396	1.00071
1268.99539	1.00517
1267.06683	1.01004
1265.13827	1.01430
1263.20970	1.01735
1261.28114	1.01950
1259.35257	1.02144
1257.42401	1.02380
1255.49544	1.02711
1253.56688	1.03140
1251.63831	1.03603
1249.70975	1.04050
1247.78119	1.04482
1245.85262	1.04920
1243.92406	1.05359
1241.99549	1.05793
1240.06693	1.06157
1238.13836	1.06360
1236.20980	1.06436
1234.28123	1.06431
1232.35267	1.06290
1230.42411	1.05946
1228.49554	1.05383
1226.56698	1.04658
1224.63841	1.03847
1222.70985	1.02958
1220.78128	1.01917
1218.85272	1.00747
1216.92415	0.99643
1214.99559	0.98684
1213.06703	0.97818
1211.13846	0.97110
1209.20990	0.96572
1207.28133	0.95990
1205.35277	0.95170
1203.42420	0.94100
1201.49564	0.92897
1199.56708	0.91651
1197.63851	0.90405
1195.70995	0.89255
1193.78138	0.88308
1191.85282	0.87607
1189.92425	0.87147
1187.99569	0.86886
1186.06712	0.86827
1184.13856	0.87004
1182.21000	0.87419
1180.28143	0.88115
1178.35287	0.89144
1176.42430	0.90439
1174.49574	0.91844
1172.56717	0.93243
1170.63861	0.94628
1168.71004	0.96025
1166.78148	0.97444
1164.85292	0.98853
1162.92435	1.00156
1160.99579	1.01207
1159.06722	1.01825
1157.13866	1.01934
1155.21009	1.01651
1153.28153	1.01057
1151.35296	1.00082
1149.42440	0.98786
1147.49584	0.97421
1145.56727	0.96117
1143.63871	0.94878
1141.71014	0.93819
1139.78158	0.93108
1137.85301	0.92822
1135.92445	0.92950
1133.99588	0.93436
1132.06732	0.94167
1130.13876	0.95099
1128.21019	0.96288
1126.28163	0.97677
1124.35306	0.99060
1122.42450	1.00245
1120.49593	1.01185
1118.56737	1.02002
1116.63880	1.02778
1114.71024	1.03377
1112.78168	1.03609
1110.85311	1.03526
1108.92455	1.03419
1106.99598	1.03417
1105.06742	1.03372
1103.13885	1.03235
1101.21029	1.03138
1099.28172	1.03105
1097.35316	1.03063
1095.42460	1.03167
1093.49603	1.03633
1091.56747	1.04380
1089.63890	1.05223
1087.71034	1.06176
1085.78177	1.07388
1083.85321	1.08865
1081.92464	1.10288
1079.99608	1.11307
1078.06752	1.11850
1076.13895	1.11929
1074.21039	1.11520
1072.28182	1.10743
1070.35326	1.09765
1068.42469	1.08694
1066.49613	1.07706
1064.56756	1.06923
1062.63900	1.06245
1060.71044	1.05474
1058.78187	1.04582
1056.85331	1.03749
1054.92474	1.03109
1052.99618	1.02663
1051.06761	1.02406
1049.13905	1.02343
1047.21049	1.02457
1045.28192	1.02831
1043.35336	1.03516
1041.42479	1.04295
1039.49623	1.05058
1037.56766	1.05932
1035.63910	1.06803
1033.71053	1.07367
1031.78197	1.07553
1029.85341	1.07437
1027.92484	1.07005
1025.99628	1.06345
1024.06771	1.05600
1022.13915	1.04767
1020.21058	1.03878
1018.28202	1.03001
1016.35345	1.02058
1014.42489	1.00952
1012.49633	0.99648
1010.56776	0.97996
1008.63920	0.95809
1006.71063	0.93302
1004.78207	0.90870
1002.85350	0.88611
1000.92494	0.86515
998.99637	0.84662
997.06781	0.83117
995.13925	0.81834
993.21068	0.80664
991.28212	0.79461
989.35355	0.78195
987.42499	0.76961
985.49642	0.75894
983.56786	0.75043
981.63929	0.74388
979.71073	0.73949
977.78217	0.73751
975.85360	0.73747
973.92504	0.73795
971.99647	0.73722
970.06791	0.73459
968.13934	0.73109
966.21078	0.72821
964.28221	0.72651
962.35365	0.72636
960.42509	0.72909
958.49652	0.73520
956.56796	0.74209
954.63939	0.74554
952.71083	0.74381
950.78226	0.73742
948.85370	0.72711
946.92513	0.71510
944.99657	0.70392
943.06801	0.69434
941.13944	0.68610
939.21088	0.67825
937.28231	0.67026
935.35375	0.66287
933.42518	0.65649
931.49662	0.65108
929.56805	0.64684
927.63949	0.64362
925.71093	0.64118
923.78236	0.63953
921.85380	0.63853
919.92523	0.63768
917.99667	0.63678
916.06810	0.63595
914.13954	0.63543
912.21098	0.63574
910.28241	0.63759
908.35385	0.64142
906.42528	0.64673
904.49672	0.65251
902.56815	0.65821
900.63959	0.66331
898.71102	0.66735
896.78246	0.67015
894.85390	0.67119
892.92533	0.67022
890.99677	0.66784
889.06820	0.66474
887.13964	0.66092
885.21107	0.65621
883.28251	0.65175
881.35394	0.64886
879.42538	0.64694
877.49682	0.64482
875.56825	0.64266
873.63969	0.64134
871.71112	0.64075
869.78256	0.64030
867.85399	0.64057
865.92543	0.64237
863.99686	0.64584
862.06830	0.65083
860.13974	0.65679
858.21117	0.66322
856.28261	0.67035
854.35404	0.67822
852.42548	0.68557
850.49691	0.69152
848.56835	0.69678
846.63978	0.70189
844.71122	0.70625
842.78266	0.70941
840.85409	0.71160
838.92553	0.71309
836.99696	0.71401
835.06840	0.71445
833.13983	0.71425
831.21127	0.71312
829.28270	0.71089
827.35414	0.70763
825.42558	0.70426
823.49701	0.70113
821.56845	0.69744
819.63988	0.69340
817.71132	0.68951
815.78275	0.68524
813.85419	0.68091
811.92562	0.67733
809.99706	0.67417
808.06850	0.67115
806.13993	0.66859
804.21137	0.66602
802.28280	0.66324
800.35424	0.66142
798.42567	0.66135
796.49711	0.66246
794.56854	0.66475
792.63998	0.66864
790.71142	0.67387
788.78285	0.68062
786.85429	0.68953
784.92572	0.70028
782.99716	0.71167
781.06859	0.72301
779.14003	0.73422
777.21147	0.74559
775.28290	0.75727
773.35434	0.76839
771.42577	0.77813
769.49721	0.78648
767.56864	0.79321
765.64008	0.79825
763.71151	0.80174
761.78295	0.80378
759.85439	0.80485
757.92582	0.80503
755.99726	0.80400
754.06869	0.80157
752.14013	0.79793
750.21156	0.79417
748.28300	0.79099
746.35443	0.78822
744.42587	0.78622
742.49731	0.78436
740.56874	0.78130
738.64018	0.77797
736.71161	0.77625
734.78305	0.77678
732.85448	0.77958
730.92592	0.78405
728.99735	0.78889
727.06879	0.79454
725.14023	0.80299
723.21166	0.81397
721.28310	0.82524
719.35453	0.83505
717.42597	0.84405
715.49740	0.85416
713.56884	0.86501
711.64027	0.87513
709.71171	0.88485
707.78315	0.89427
705.85458	0.90220
703.92602	0.90867
701.99745	0.91422
700.06889	0.91813
698.14032	0.91981
696.21176	0.92008
694.28319	0.92034
692.35463	0.92044
690.42607	0.91904
688.49750	0.91631
686.56894	0.91353
684.64037	0.91183
682.71181	0.91167
680.78324	0.91172
678.85468	0.91018
676.92611	0.90824
674.99755	0.90813
673.06899	0.90868
671.14042	0.90783
669.21186	0.90521
667.28329	0.90199
665.35473	0.90187
663.42616	0.90426
661.49760	0.90633
659.56903	0.90579
657.64047	0.90473
655.71191	0.90589
653.78334	0.90806
651.85478	0.91088
649.92621	0.91692
647.99765	0.92514
646.06908	0.93204
644.14052	0.93741
642.21195	0.94224
640.28339	0.94824
638.35483	0.95666
636.42626	0.96353
634.49770	0.96417
632.56913	0.96215
630.64057	0.96342
628.71200	0.96658
626.78344	0.96797
624.85488	0.96743
622.92631	0.96586
620.99775	0.96399
619.06918	0.96196
617.14062	0.95936
615.21205	0.95835
613.28349	0.96052
611.35492	0.96302
609.42636	0.96285
607.49780	0.96121
605.56923	0.96049
603.64067	0.96182
601.71210	0.96496
599.78354	0.96538
