3997.91406	0.56325
3995.98550	0.56259
3994.05693	0.56379
3992.12837	0.56671
3990.19980	0.56871
3988.27124	0.56831
3986.34268	0.56626
3984.41411	0.56415
3982.48555	0.56383
3980.55698	0.56480
3978.62842	0.56402
3976.69985	0.56086
3974.77129	0.55838
3972.84272	0.55833
3970.91416	0.55995
3968.98560	0.56195
3967.05703	0.56273
3965.12847	0.56224
3963.19990	0.56119
3961.27134	0.55972
3959.34277	0.55840
3957.41421	0.55712
3955.48564	0.55569
3953.55708	0.55487
3951.62852	0.55405
3949.69995	0.55249
3947.77139	0.55169
3945.84282	0.55207
3943.91426	0.55413
3941.98569	0.55732
3940.05713	0.55788
3938.12856	0.55590
3936.20000	0.55402
3934.27144	0.55406
3932.34287	0.55690
3930.41431	0.55936
3928.48574	0.55822
3926.55718	0.55632
3924.62861	0.55724
3922.70005	0.55892
3920.77148	0.55888
3918.84292	0.55899
3916.91436	0.56019
3914.98579	0.55991
3913.05723	0.55655
3911.12866	0.55163
3909.20010	0.54675
3907.27153	0.54181
3905.34297	0.53942
3903.41440	0.54442
3901.48584	0.55113
3899.55728	0.55288
3897.62871	0.55068
3895.70015	0.54570
3893.77158	0.54167
3891.84302	0.54430
3889.91445	0.54561
3887.98589	0.53966
3886.05733	0.53631
3884.12876	0.53739
3882.20020	0.53751
3880.27163	0.54269
3878.34307	0.54596
3876.41450	0.54213
3874.48594	0.53891
3872.55737	0.53872
3870.62881	0.54061
3868.70025	0.54179
3866.77168	0.53890
3864.84312	0.53849
3862.91455	0.54209
3860.98599	0.54163
3859.05742	0.53641
3857.12886	0.52738
3855.20029	0.51846
3853.27173	0.52928
3851.34317	0.54411
3849.41460	0.54376
3847.48604	0.53851
3845.55747	0.53225
3843.62891	0.52759
3841.70034	0.52736
3839.77178	0.53096
3837.84321	0.53448
3835.91465	0.53525
3833.98609	0.53653
3832.05752	0.53891
3830.12896	0.53811
3828.20039	0.53450
3826.27183	0.53179
3824.34326	0.52769
3822.41470	0.52433
3820.48613	0.52900
3818.55757	0.53010
3816.62901	0.52945
3814.70044	0.53300
3812.77188	0.53267
3810.84331	0.52758
3808.91475	0.52133
3806.98618	0.51830
3805.05762	0.51498
3803.12905	0.51109
3801.20049	0.51761
3799.27193	0.52460
3797.34336	0.52671
3795.41480	0.52918
3793.48623	0.52859
3791.55767	0.52658
3789.62910	0.52534
3787.70054	0.52350
3785.77197	0.52330
3783.84341	0.52461
3781.91485	0.52329
3779.98628	0.52325
3778.05772	0.52629
3776.12915	0.52571
3774.20059	0.52152
3772.27202	0.51802
3770.34346	0.51910
3768.41489	0.52087
3766.48633	0.51991
3764.55777	0.51952
3762.62920	0.51699
3760.70064	0.51317
3758.77207	0.51453
3756.84351	0.51620
3754.91494	0.51124
3752.98638	0.50321
3751.05781	0.50427
3749.12925	0.51057
3747.20069	0.50816
3745.27212	0.50859
3743.34356	0.51664
3741.41499	0.51716
3739.48643	0.50960
3737.55786	0.50144
3735.62930	0.50271
3733.70074	0.51365
3731.77217	0.51955
3729.84361	0.51730
3727.91504	0.51256
3725.98648	0.51158
3724.05791	0.51476
3722.12935	0.51761
3720.20078	0.51887
3718.27222	0.51781
3716.34366	0.51258
3714.41509	0.50447
3712.48653	0.50326
3710.55796	0.51634
3708.62940	0.52427
3706.70083	0.52213
3704.77227	0.51696
3702.84370	0.51510
3700.91514	0.51770
3698.98658	0.51839
3697.05801	0.51675
3695.12945	0.51401
3693.20088	0.50872
3691.27232	0.50356
3689.34375	0.51050
3687.41519	0.52246
3685.48662	0.52467
3683.55806	0.52151
3681.62950	0.51780
3679.70093	0.51407
3677.77237	0.51133
3675.84380	0.51900
3673.91524	0.52758
3671.98667	0.52671
3670.05811	0.53239
3668.12954	0.53971
3666.20098	0.53869
3664.27242	0.53782
3662.34385	0.54039
3660.41529	0.54263
3658.48672	0.54384
3656.55816	0.54768
3654.62959	0.54770
3652.70103	0.53900
3650.77246	0.53275
3648.84390	0.55088
3646.91534	0.56948
3644.98677	0.57247
3643.05821	0.57291
3641.12964	0.57506
3639.20108	0.57657
3637.27251	0.57675
3635.34395	0.57761
3633.41538	0.57775
3631.48682	0.57650
3629.55826	0.58606
3627.62969	0.60375
3625.70113	0.60613
3623.77256	0.60102
3621.84400	0.59594
3619.91543	0.59831
3617.98687	0.60797
3616.05830	0.61316
3614.12974	0.61653
3612.20118	0.61893
3610.27261	0.61816
3608.34405	0.62254
3606.41548	0.63227
3604.48692	0.63755
3602.55835	0.64043
3600.62979	0.64501
3598.70123	0.64811
3596.77266	0.65034
3594.84410	0.65640
3592.91553	0.66123
3590.98697	0.65884
3589.05840	0.65625
3587.12984	0.66461
3585.20127	0.67545
3583.27271	0.68017
3581.34415	0.68290
3579.41558	0.68613
3577.48702	0.68995
3575.55845	0.69418
3573.62989	0.69787
3571.70132	0.69951
3569.77276	0.69925
3567.84419	0.70188
3565.91563	0.71113
3563.98707	0.71895
3562.05850	0.72348
3560.12994	0.72681
3558.20137	0.72933
3556.27281	0.73272
3554.34424	0.73867
3552.41568	0.74549
3550.48711	0.74975
3548.55855	0.75312
3546.62999	0.76035
3544.70142	0.76982
3542.77286	0.77632
3540.84429	0.78015
3538.91573	0.78281
3536.98716	0.78589
3535.05860	0.78984
3533.13003	0.79315
3531.20147	0.79680
3529.27291	0.80330
3527.34434	0.81084
3525.41578	0.81555
3523.48721	0.81965
3521.55865	0.82496
3519.63008	0.82919
3517.70152	0.83324
3515.77295	0.83968
3513.84439	0.84774
3511.91583	0.85492
3509.98726	0.86244
3508.05870	0.86994
3506.13013	0.87376
3504.20157	0.87830
3502.27300	0.88722
3500.34444	0.89463
3498.41587	0.90043
3496.48731	0.90908
3494.55875	0.91881
3492.63018	0.92535
3490.70162	0.92984
3488.77305	0.93467
3486.84449	0.93902
3484.91592	0.94224
3482.98736	0.94633
3481.05879	0.95233
3479.13023	0.95772
3477.20167	0.96155
3475.27310	0.96467
3473.34454	0.96527
3471.41597	0.96284
3469.48741	0.96191
3467.55884	0.96537
3465.63028	0.97083
3463.70171	0.97559
3461.77315	0.97846
3459.84459	0.98010
3457.91602	0.98300
3455.98746	0.98758
3454.05889	0.99163
3452.13033	0.99453
3450.20176	0.99918
3448.27320	1.00604
3446.34464	1.00937
3444.41607	1.00723
3442.48751	1.00441
3440.55894	1.00227
3438.63038	1.00158
3436.70181	1.00530
3434.77325	1.01087
3432.84468	1.01247
3430.91612	1.00948
3428.98756	1.00614
3427.05899	1.00558
3425.13043	1.00751
3423.20186	1.01150
3421.27330	1.01566
3419.34473	1.01725
3417.41617	1.01639
3415.48760	1.01336
3413.55904	1.01058
3411.63048	1.01164
3409.70191	1.01408
3407.77335	1.01403
3405.84478	1.01366
3403.91622	1.01533
3401.98765	1.01636
3400.05909	1.01576
3398.13052	1.01689
3396.20196	1.01887
3394.27340	1.01908
3392.34483	1.01989
3390.41627	1.02107
3388.48770	1.02076
3386.55914	1.02124
3384.63057	1.02312
3382.70201	1.02408
3380.77344	1.02373
3378.84488	1.02345
3376.91632	1.02362
3374.98775	1.02532
3373.05919	1.02915
3371.13062	1.03198
3369.20206	1.03319
3367.27349	1.03560
3365.34493	1.03939
3363.41636	1.04276
3361.48780	1.04337
3359.55924	1.04210
3357.63067	1.04383
3355.70211	1.04902
3353.77354	1.05307
3351.84498	1.05425
3349.91641	1.05466
3347.98785	1.05676
3346.05928	1.05953
3344.13072	1.05926
3342.20216	1.05820
3340.27359	1.06030
3338.34503	1.06451
3336.41646	1.07142
3334.48790	1.07924
3332.55933	1.08309
3330.63077	1.08474
3328.70220	1.08676
3326.77364	1.08923
3324.84508	1.09294
3322.91651	1.09676
3320.98795	1.10019
3319.05938	1.10385
3317.13082	1.10582
3315.20225	1.10680
3313.27369	1.10942
3311.34513	1.11254
3309.41656	1.11578
3307.48800	1.12008
3305.55943	1.12481
3303.63087	1.13031
3301.70230	1.13556
3299.77374	1.13907
3297.84517	1.14144
3295.91661	1.14108
3293.98805	1.13915
3292.05948	1.14160
3290.13092	1.14754
3288.20235	1.15097
3286.27379	1.14996
3284.34522	1.14656
3282.41666	1.14495
3280.48809	1.14657
3278.55953	1.14869
3276.63097	1.14865
3274.70240	1.14642
3272.77384	1.14456
3270.84527	1.14405
3268.91671	1.14109
3266.98814	1.13223
3265.05958	1.12288
3263.13101	1.12046
3261.20245	1.12102
3259.27389	1.11790
3257.34532	1.11373
3255.41676	1.11137
3253.48819	1.10791
3251.55963	1.10087
3249.63106	1.09053
3247.70250	1.07925
3245.77393	1.07035
3243.84537	1.06411
3241.91681	1.05773
3239.98824	1.05114
3238.05968	1.04819
3236.13111	1.04834
3234.20255	1.04442
3232.27398	1.03582
3230.34542	1.02967
3228.41685	1.02769
3226.48829	1.02685
3224.55973	1.02582
3222.63116	1.02399
3220.70260	1.02043
3218.77403	1.01578
3216.84547	1.01254
3214.91690	1.01048
3212.98834	1.00651
3211.05977	1.00035
3209.13121	0.99487
3207.20265	0.99211
3205.27408	0.98919
3203.34552	0.98247
3201.41695	0.97433
3199.48839	0.96821
3197.55982	0.96410
3195.63126	0.96045
3193.70269	0.95634
3191.77413	0.95321
3189.84557	0.95080
3187.91700	0.94679
3185.98844	0.94282
3184.05987	0.94079
3182.13131	0.93777
3180.20274	0.93213
3178.27418	0.92701
3176.34562	0.92350
3174.41705	0.91793
3172.48849	0.91028
3170.55992	0.90507
3168.63136	0.90345
3166.70279	0.90249
3164.77423	0.89972
3162.84566	0.89587
3160.91710	0.89284
3158.98854	0.89055
3157.05997	0.88772
3155.13141	0.88339
3153.20284	0.87879
3151.27428	0.87647
3149.34571	0.87614
3147.41715	0.87516
3145.48858	0.87247
3143.56002	0.86945
3141.63146	0.86713
3139.70289	0.86500
3137.77433	0.86397
3135.84576	0.86532
3133.91720	0.86701
3131.98863	0.86593
3130.06007	0.86266
3128.13150	0.86040
3126.20294	0.86066
3124.27438	0.86235
3122.34581	0.86316
3120.41725	0.86244
3118.48868	0.86215
3116.56012	0.86261
3114.63155	0.86275
3112.70299	0.86385
3110.77442	0.86645
3108.84586	0.86762
3106.91730	0.86626
3104.98873	0.86516
3103.06017	0.86537
3101.13160	0.86515
3099.20304	0.86449
3097.27447	0.86476
3095.34591	0.86505
3093.41734	0.86401
3091.48878	0.86304
3089.56022	0.86263
3087.63165	0.86100
3085.70309	0.85843
3083.77452	0.85690
3081.84596	0.85667
3079.91739	0.85652
3077.98883	0.85617
3076.06026	0.85575
3074.13170	0.85436
3072.20314	0.85135
3070.27457	0.84767
3068.34601	0.84466
3066.41744	0.84226
3064.48888	0.84033
3062.56031	0.83918
3060.63175	0.83775
3058.70318	0.83482
3056.77462	0.83090
3054.84606	0.82639
3052.91749	0.82121
3050.98893	0.81660
3049.06036	0.81380
3047.13180	0.81227
3045.20323	0.81041
3043.27467	0.80749
3041.34610	0.80455
3039.41754	0.80245
3037.48898	0.79993
3035.56041	0.79586
3033.63185	0.79194
3031.70328	0.78937
3029.77472	0.78654
3027.84615	0.78380
3025.91759	0.78318
3023.98903	0.78339
3022.06046	0.78196
3020.13190	0.77930
3018.20333	0.77680
3016.27477	0.77452
3014.34620	0.77287
3012.41764	0.77232
3010.48907	0.77153
3008.56051	0.76988
3006.63195	0.76880
3004.70338	0.76909
3002.77482	0.77035
3000.84625	0.77246
2998.91769	0.77446
2996.98912	0.77489
2995.06056	0.77452
2993.13199	0.77567
2991.20343	0.77901
2989.27487	0.78368
2987.34630	0.78906
2985.41774	0.79429
2983.48917	0.79860
2981.56061	0.80288
2979.63204	0.80870
2977.70348	0.81631
2975.77491	0.82443
2973.84635	0.83156
2971.91779	0.83800
2969.98922	0.84479
2968.06066	0.85188
2966.13209	0.85821
2964.20353	0.86295
2962.27496	0.86625
2960.34640	0.86677
2958.41783	0.86361
2956.48927	0.85872
2954.56071	0.85301
2952.63214	0.84698
2950.70358	0.84182
2948.77501	0.83784
2946.84645	0.83679
2944.91788	0.84086
2942.98932	0.84880
2941.06075	0.85767
2939.13219	0.86638
2937.20363	0.87573
2935.27506	0.88597
2933.34650	0.89618
2931.41793	0.90620
2929.48937	0.91580
2927.56080	0.92363
2925.63224	0.92949
2923.70367	0.93433
2921.77511	0.93877
2919.84655	0.94081
2917.91798	0.93559
2915.98942	0.92202
2914.06085	0.90387
2912.13229	0.88509
2910.20372	0.86856
2908.27516	0.85584
2906.34659	0.84671
2904.41803	0.83993
2902.48947	0.83471
2900.56090	0.83070
2898.63234	0.82752
2896.70377	0.82452
2894.77521	0.82160
2892.84664	0.81883
2890.91808	0.81543
2888.98952	0.81195
2887.06095	0.80968
2885.13239	0.80856
2883.20382	0.80824
2881.27526	0.80805
2879.34669	0.80757
2877.41813	0.80720
2875.48956	0.80625
2873.56100	0.80338
2871.63244	0.79927
2869.70387	0.79575
2867.77531	0.79292
2865.84674	0.78963
2863.91818	0.78603
2861.98961	0.78463
2860.06105	0.78712
2858.13248	0.79266
2856.20392	0.80058
2854.27536	0.80952
2852.34679	0.81633
2850.41823	0.81735
2848.48966	0.80839
2846.56110	0.78946
2844.63253	0.76770
2842.70397	0.74953
2840.77540	0.73607
2838.84684	0.72610
2836.91828	0.71826
2834.98971	0.71210
2833.06115	0.70785
2831.13258	0.70492
2829.20402	0.70223
2827.27545	0.69942
2825.34689	0.69675
2823.41832	0.69464
2821.48976	0.69351
2819.56120	0.69327
2817.63263	0.69288
2815.70407	0.69128
2813.77550	0.68893
2811.84694	0.68711
2809.91837	0.68581
2807.98981	0.68430
2806.06124	0.68264
2804.13268	0.68138
2802.20412	0.68046
2800.27555	0.67885
2798.34699	0.67687
2796.41842	0.67584
2794.48986	0.67532
2792.56129	0.67446
2790.63273	0.67334
2788.70416	0.67189
2786.77560	0.67012
2784.84704	0.66845
2782.91847	0.66710
2780.98991	0.66585
2779.06134	0.66492
2777.13278	0.66438
2775.20421	0.66337
2773.27565	0.66206
2771.34708	0.66144
2769.41852	0.66104
2767.48996	0.65980
2765.56139	0.65745
2763.63283	0.65487
2761.70426	0.65318
2759.77570	0.65199
2757.84713	0.65047
2755.91857	0.64896
2753.99001	0.64783
2752.06144	0.64708
2750.13288	0.64673
2748.20431	0.64639
2746.27575	0.64556
2744.34718	0.64449
2742.41862	0.64336
2740.49005	0.64220
2738.56149	0.64155
2736.63293	0.64155
2734.70436	0.64159
2732.77580	0.64098
2730.84723	0.63987
2728.91867	0.63885
2726.99010	0.63805
2725.06154	0.63735
2723.13297	0.63672
2721.20441	0.63593
2719.27585	0.63490
2717.34728	0.63395
2715.41872	0.63332
2713.49015	0.63310
2711.56159	0.63275
2709.63302	0.63170
2707.70446	0.63054
2705.77589	0.62967
2703.84733	0.62872
2701.91877	0.62769
2699.99020	0.62705
2698.06164	0.62727
2696.13307	0.62795
2694.20451	0.62808
2692.27594	0.62758
2690.34738	0.62696
2688.41881	0.62630
2686.49025	0.62590
2684.56169	0.62620
2682.63312	0.62650
2680.70456	0.62641
2678.77599	0.62646
2676.84743	0.62681
2674.91886	0.62728
2672.99030	0.62747
2671.06173	0.62701
2669.13317	0.62624
2667.20461	0.62552
2665.27604	0.62503
2663.34748	0.62492
2661.41891	0.62489
2659.49035	0.62475
2657.56178	0.62482
2655.63322	0.62512
2653.70465	0.62513
2651.77609	0.62446
2649.84753	0.62342
2647.91896	0.62244
2645.99040	0.62147
2644.06183	0.62061
2642.13327	0.62009
2640.20470	0.61967
2638.27614	0.61903
2636.34757	0.61801
2634.41901	0.61712
2632.49045	0.61722
2630.56188	0.61785
2628.63332	0.61792
2626.70475	0.61764
2624.77619	0.61764
2622.84762	0.61781
2620.91906	0.61798
2618.99049	0.61810
2617.06193	0.61803
2615.13337	0.61802
2613.20480	0.61843
2611.27624	0.61915
2609.34767	0.61962
2607.41911	0.61982
2605.49054	0.62008
2603.56198	0.61990
2601.63342	0.61930
2599.70485	0.61928
2597.77629	0.61973
2595.84772	0.61976
2593.91916	0.61955
2591.99059	0.61956
2590.06203	0.61926
2588.13346	0.61844
2586.20490	0.61788
2584.27634	0.61753
2582.34777	0.61668
2580.41921	0.61546
2578.49064	0.61429
2576.56208	0.61299
2574.63351	0.61144
2572.70495	0.61006
2570.77638	0.60918
2568.84782	0.60853
2566.91926	0.60766
2564.99069	0.60660
2563.06213	0.60576
2561.13356	0.60511
2559.20500	0.60413
2557.27643	0.60267
2555.34787	0.60150
2553.41930	0.60114
2551.49074	0.60097
2549.56218	0.60059
2547.63361	0.60017
2545.70505	0.59991
2543.77648	0.59978
2541.84792	0.59941
2539.91935	0.59876
2537.99079	0.59836
2536.06222	0.59847
2534.13366	0.59902
2532.20510	0.59947
2530.27653	0.59928
2528.34797	0.59868
2526.41940	0.59846
2524.49084	0.59864
2522.56227	0.59854
2520.63371	0.59813
2518.70514	0.59785
2516.77658	0.59787
2514.84802	0.59793
2512.91945	0.59735
2510.99089	0.59626
2509.06232	0.59551
2507.13376	0.59518
2505.20519	0.59470
2503.27663	0.59411
2501.34806	0.59391
2499.41950	0.59396
2497.49094	0.59375
2495.56237	0.59305
2493.63381	0.59213
2491.70524	0.59171
2489.77668	0.59203
2487.84811	0.59249
2485.91955	0.59253
2483.99098	0.59185
2482.06242	0.59075
2480.13386	0.59033
2478.20529	0.59098
2476.27673	0.59176
2474.34816	0.59215
2472.41960	0.59274
2470.49103	0.59367
2468.56247	0.59428
2466.63391	0.59438
2464.70534	0.59424
2462.77678	0.59421
2460.84821	0.59429
2458.91965	0.59408
2456.99108	0.59352
2455.06252	0.59294
2453.13395	0.59269
2451.20539	0.59296
2449.27683	0.59347
2447.34826	0.59379
2445.41970	0.59371
2443.49113	0.59314
2441.56257	0.59210
2439.63400	0.59095
2437.70544	0.59016
2435.77687	0.58971
2433.84831	0.58936
2431.91975	0.58888
2429.99118	0.58825
2428.06262	0.58740
2426.13405	0.58670
2424.20549	0.58647
2422.27692	0.58627
2420.34836	0.58586
2418.41979	0.58549
2416.49123	0.58536
2414.56267	0.58549
2412.63410	0.58562
2410.70554	0.58580
2408.77697	0.58589
2406.84841	0.58553
2404.91984	0.58514
2402.99128	0.58525
2401.06271	0.58554
2399.13415	0.58539
2397.20559	0.58484
2395.27702	0.58438
2393.34846	0.58417
2391.41989	0.58408
2389.49133	0.58410
2387.56276	0.58441
2385.63420	0.58490
2383.70563	0.58534
2381.77707	0.58596
2379.84851	0.58719
2377.91994	0.58872
2375.99138	0.58980
2374.06281	0.59105
2372.13425	0.59380
2370.20568	0.59753
2368.27712	0.60028
2366.34855	0.60089
2364.41999	0.60025
2362.49143	0.60027
2360.56286	0.60108
2358.63430	0.60209
2356.70573	0.60234
2354.77717	0.59996
2352.84860	0.59530
2350.92004	0.58990
2348.99147	0.58546
2347.06291	0.58392
2345.13435	0.58658
2343.20578	0.59166
2341.27722	0.59438
2339.34865	0.59214
2337.42009	0.58777
2335.49152	0.58520
2333.56296	0.58483
2331.63440	0.58594
2329.70583	0.58716
2327.77727	0.58706
2325.84870	0.58719
2323.92014	0.58768
2321.99157	0.58564
2320.06301	0.58201
2318.13444	0.57954
2316.20588	0.57807
2314.27732	0.57716
2312.34875	0.57625
2310.42019	0.57502
2308.49162	0.57419
2306.56306	0.57364
2304.63449	0.57271
2302.70593	0.57159
2300.77736	0.57075
2298.84880	0.57001
2296.92024	0.56899
2294.99167	0.56798
2293.06311	0.56735
2291.13454	0.56693
2289.20598	0.56674
2287.27741	0.56696
2285.34885	0.56722
2283.42028	0.56688
2281.49172	0.56622
2279.56316	0.56591
2277.63459	0.56576
2275.70603	0.56582
2273.77746	0.56643
2271.84890	0.56709
2269.92033	0.56744
2267.99177	0.56777
2266.06320	0.56837
2264.13464	0.56936
2262.20608	0.57034
2260.27751	0.57067
2258.34895	0.57047
2256.42038	0.57050
2254.49182	0.57100
2252.56325	0.57130
2250.63469	0.57109
2248.70612	0.57084
2246.77756	0.57071
2244.84900	0.57033
2242.92043	0.56980
2240.99187	0.56930
2239.06330	0.56859
2237.13474	0.56777
2235.20617	0.56704
2233.27761	0.56631
2231.34904	0.56551
2229.42048	0.56444
2227.49192	0.56320
2225.56335	0.56225
2223.63479	0.56152
2221.70622	0.56080
2219.77766	0.56028
2217.84909	0.55991
2215.92053	0.55956
2213.99196	0.55926
2212.06340	0.55897
2210.13484	0.55879
2208.20627	0.55894
2206.27771	0.55923
2204.34914	0.55941
2202.42058	0.55974
2200.49201	0.56021
2198.56345	0.56068
2196.63488	0.56143
2194.70632	0.56247
2192.77776	0.56351
2190.84919	0.56451
2188.92063	0.56560
2186.99206	0.56668
2185.06350	0.56763
2183.13493	0.56866
2181.20637	0.56983
2179.27781	0.57072
2177.34924	0.57100
2175.42068	0.57104
2173.49211	0.57146
2171.56355	0.57213
2169.63498	0.57254
2167.70642	0.57263
2165.77785	0.57246
2163.84929	0.57195
2161.92073	0.57126
2159.99216	0.57070
2158.06360	0.57030
2156.13503	0.56951
2154.20647	0.56789
2152.27790	0.56598
2150.34934	0.56443
2148.42077	0.56303
2146.49221	0.56141
2144.56365	0.55999
2142.63508	0.55919
2140.70652	0.55861
2138.77795	0.55772
2136.84939	0.55647
2134.92082	0.55524
2132.99226	0.55428
2131.06369	0.55359
2129.13513	0.55318
2127.20657	0.55290
2125.27800	0.55244
2123.34944	0.55175
2121.42087	0.55132
2119.49231	0.55128
2117.56374	0.55125
2115.63518	0.55115
2113.70661	0.55119
2111.77805	0.55111
2109.84949	0.55063
2107.92092	0.55012
2105.99236	0.54993
2104.06379	0.54976
2102.13523	0.54934
2100.20666	0.54880
2098.27810	0.54843
2096.34953	0.54832
2094.42097	0.54807
2092.49241	0.54771
2090.56384	0.54752
2088.63528	0.54691
2086.70671	0.54581
2084.77815	0.54511
2082.84958	0.54474
2080.92102	0.54409
2078.99245	0.54360
2077.06389	0.54359
2075.13533	0.54337
2073.20676	0.54246
2071.27820	0.54151
2069.34963	0.54122
2067.42107	0.54133
2065.49250	0.54132
2063.56394	0.54135
2061.63537	0.54174
2059.70681	0.54230
2057.77825	0.54276
2055.84968	0.54316
2053.92112	0.54365
2051.99255	0.54423
2050.06399	0.54485
2048.13542	0.54552
2046.20686	0.54641
2044.27830	0.54753
2042.34973	0.54879
2040.42117	0.55005
2038.49260	0.55083
2036.56404	0.55105
2034.63547	0.55129
2032.70691	0.55177
2030.77834	0.55224
2028.84978	0.55258
2026.92122	0.55268
2024.99265	0.55234
2023.06409	0.55184
2021.13552	0.55169
2019.20696	0.55184
2017.27839	0.55160
2015.34983	0.55040
2013.42126	0.54891
2011.49270	0.54793
2009.56414	0.54729
2007.63557	0.54656
2005.70701	0.54556
2003.77844	0.54432
2001.84988	0.54319
1999.92131	0.54233
1997.99275	0.54166
1996.06418	0.54109
1994.13562	0.54072
1992.20706	0.54058
1990.27849	0.54031
1988.34993	0.53983
1986.42136	0.53928
1984.49280	0.53883
1982.56423	0.53868
1980.63567	0.53873
1978.70710	0.53862
1976.77854	0.53815
1974.84998	0.53770
1972.92141	0.53751
1970.99285	0.53721
1969.06428	0.53695
1967.13572	0.53713
1965.20715	0.53714
1963.27859	0.53659
1961.35002	0.53596
1959.42146	0.53534
1957.49290	0.53458
1955.56433	0.53385
1953.63577	0.53311
1951.70720	0.53213
1949.77864	0.53101
1947.85007	0.53007
1945.92151	0.52928
1943.99294	0.52845
1942.06438	0.52746
1940.13582	0.52606
1938.20725	0.52456
1936.27869	0.52328
1934.35012	0.52220
1932.42156	0.52120
1930.49299	0.52027
1928.56443	0.51946
1926.63586	0.51882
1924.70730	0.51876
1922.77874	0.51924
1920.85017	0.51927
1918.92161	0.51913
1916.99304	0.51917
1915.06448	0.51851
1913.13591	0.51752
1911.20735	0.51723
1909.27878	0.51753
1907.35022	0.51734
1905.42166	0.51652
1903.49309	0.51566
1901.56453	0.51485
1899.63596	0.51404
1897.70740	0.51326
1895.77883	0.51239
1893.85027	0.51093
1891.92171	0.50916
1889.99314	0.50801
1888.06458	0.50689
1886.13601	0.50502
1884.20745	0.50295
1882.27888	0.50089
1880.35032	0.49888
1878.42175	0.49698
1876.49319	0.49516
1874.56463	0.49338
1872.63606	0.49189
1870.70750	0.49143
1868.77893	0.49222
1866.85037	0.49204
1864.92180	0.49028
1862.99324	0.48879
1861.06467	0.48839
1859.13611	0.48885
1857.20755	0.48963
1855.27898	0.49022
1853.35042	0.49064
1851.42185	0.49136
1849.49329	0.49264
1847.56472	0.49422
1845.63616	0.49634
1843.70759	0.49880
1841.77903	0.49946
1839.85047	0.49897
1837.92190	0.49900
1835.99334	0.49940
1834.06477	0.49928
1832.13621	0.49934
1830.20764	0.50057
1828.27908	0.50117
1826.35051	0.50046
1824.42195	0.49967
1822.49339	0.49830
1820.56482	0.49650
1818.63626	0.49545
1816.70769	0.49491
1814.77913	0.49400
1812.85056	0.49315
1810.92200	0.49298
1808.99343	0.49249
1807.06487	0.49116
1805.13631	0.48996
1803.20774	0.48954
1801.27918	0.48993
1799.35061	0.49020
1797.42205	0.48985
1795.49348	0.48959
1793.56492	0.49040
1791.63635	0.49199
1789.70779	0.49160
1787.77923	0.49009
1785.85066	0.48951
1783.92210	0.48981
1781.99353	0.49021
1780.06497	0.49051
1778.13640	0.49037
1776.20784	0.48983
1774.27927	0.48994
1772.35071	0.49126
1770.42215	0.49140
1768.49358	0.48988
1766.56502	0.48807
1764.63645	0.48674
1762.70789	0.48670
1760.77932	0.48727
1758.85076	0.48735
1756.92220	0.48794
1754.99363	0.48856
1753.06507	0.48928
1751.13650	0.49286
1749.20794	0.49902
1747.27937	0.50301
1745.35081	0.50493
1743.42224	0.50679
1741.49368	0.50910
1739.56512	0.51119
1737.63655	0.51193
1735.70799	0.51283
1733.77942	0.51675
1731.85086	0.51928
1729.92229	0.51924
1727.99373	0.51938
1726.06516	0.52058
1724.13660	0.52393
1722.20804	0.52799
1720.27947	0.53203
1718.35091	0.54036
1716.42234	0.55434
1714.49378	0.56362
1712.56521	0.57014
1710.63665	0.57851
1708.70808	0.58973
1706.77952	0.60742
1704.85096	0.63060
1702.92239	0.65065
1700.99383	0.67895
1699.06526	0.72316
1697.13670	0.76222
1695.20813	0.79792
1693.27957	0.82267
1691.35100	0.84212
1689.42244	0.86698
1687.49388	0.89047
1685.56531	0.91557
1683.63675	0.95615
1681.70818	0.98357
1679.77962	0.99817
1677.85105	1.01337
1675.92249	1.03404
1673.99392	1.05667
1672.06536	1.07356
1670.13680	1.09308
1668.20823	1.11374
1666.27967	1.12418
1664.35110	1.13405
1662.42254	1.14976
1660.49397	1.16298
1658.56541	1.16992
1656.63684	1.17354
1654.70828	1.17816
1652.77972	1.18886
1650.85115	1.19190
1648.92259	1.19073
1646.99402	1.19380
1645.06546	1.19676
1643.13689	1.19463
1641.20833	1.19230
1639.27976	1.19220
1637.35120	1.19541
1635.42264	1.19784
1633.49407	1.19474
1631.56551	1.19217
1629.63694	1.19097
1627.70838	1.18931
1625.77981	1.18461
1623.85125	1.17525
1621.92269	1.16255
1619.99412	1.15134
1618.06556	1.13934
1616.13699	1.11972
1614.20843	1.09889
1612.27986	1.08110
1610.35130	1.06386
1608.42273	1.04647
1606.49417	1.03039
1604.56561	1.01750
1602.63704	1.00782
1600.70848	1.00049
1598.77991	0.99462
1596.85135	0.99001
1594.92278	0.98625
1592.99422	0.98283
1591.06565	0.98040
1589.13709	0.97986
1587.20853	0.98166
1585.27996	0.98584
1583.35140	0.99220
1581.42283	0.99952
1579.49427	1.00689
1577.56570	1.01821
1575.63714	1.03471
1573.70857	1.04374
1571.78001	1.04945
1569.85145	1.06121
1567.92288	1.07459
1565.99432	1.08426
1564.06575	1.09354
1562.13719	1.10061
1560.20862	1.11130
1558.28006	1.13711
1556.35149	1.14451
1554.42293	1.14310
1552.49437	1.14396
1550.56580	1.14604
1548.63724	1.14701
1546.70867	1.14679
1544.78011	1.14688
1542.85154	1.14813
1540.92298	1.15160
1538.99441	1.15026
1537.06585	1.14490
1535.13729	1.14069
1533.20872	1.13788
1531.28016	1.13477
1529.35159	1.13158
1527.42303	1.12890
1525.49446	1.12616
1523.56590	1.12431
1521.63733	1.12380
1519.70877	1.12341
1517.78021	1.12114
1515.85164	1.11512
1513.92308	1.10702
1511.99451	1.09956
1510.06595	1.09412
1508.13738	1.08352
1506.20882	1.05294
1504.28025	1.03094
1502.35169	1.01669
1500.42313	1.00208
1498.49456	0.98442
1496.56600	0.96117
1494.63743	0.93998
1492.70887	0.92512
1490.78030	0.91063
1488.85174	0.89218
1486.92317	0.87546
1484.99461	0.86328
1483.06605	0.85446
1481.13748	0.84790
1479.20892	0.84372
1477.28035	0.84326
1475.35179	0.84800
1473.42322	0.86031
1471.49466	0.87438
1469.56610	0.88113
1467.63753	0.88544
1465.70897	0.89229
1463.78040	0.90009
1461.85184	0.90425
1459.92327	0.90743
1457.99471	0.91676
1456.06614	0.92847
1454.13758	0.92982
1452.20902	0.92816
1450.28045	0.92706
1448.35189	0.92636
1446.42332	0.92453
1444.49476	0.92139
1442.56619	0.91796
1440.63763	0.91437
1438.70906	0.90999
1436.78050	0.90331
1434.85194	0.89451
1432.92337	0.88605
1430.99481	0.87773
1429.06624	0.86930
1427.13768	0.86188
1425.20911	0.85603
1423.28055	0.85197
1421.35198	0.84963
1419.42342	0.84913
1417.49486	0.84898
1415.56629	0.84714
1413.63773	0.84511
1411.70916	0.84363
1409.78060	0.84235
1407.85203	0.84179
1405.92347	0.84284
1403.99490	0.84467
1402.06634	0.84611
1400.13778	0.84816
1398.20921	0.85131
1396.28065	0.85499
1394.35208	0.85852
1392.42352	0.86076
1390.49495	0.86355
1388.56639	0.87081
1386.63782	0.88319
1384.70926	0.89562
1382.78070	0.90688
1380.85213	0.91730
1378.92357	0.92406
1376.99500	0.92545
1375.06644	0.92184
1373.13787	0.91323
1371.20931	0.90137
1369.28074	0.88741
1367.35218	0.87231
1365.42362	0.85826
1363.49505	0.84419
1361.56649	0.83029
1359.63792	0.82015
1357.70936	0.81324
1355.78079	0.80778
1353.85223	0.80357
1351.92366	0.80074
1349.99510	0.79877
1348.06654	0.79716
1346.13797	0.79607
1344.20941	0.79581
1342.28084	0.79661
1340.35228	0.79897
1338.42371	0.80211
1336.49515	0.80491
1334.56659	0.80866
1332.63802	0.81462
1330.70946	0.82177
1328.78089	0.82779
1326.85233	0.83169
1324.92376	0.83395
1322.99520	0.83546
1321.06663	0.83713
1319.13807	0.83914
1317.20951	0.84091
1315.28094	0.84215
1313.35238	0.84285
1311.42381	0.84289
1309.49525	0.84243
1307.56668	0.84145
1305.63812	0.83987
1303.70955	0.83795
1301.78099	0.83577
1299.85243	0.83311
1297.92386	0.82999
1295.99530	0.82701
1294.06673	0.82507
1292.13817	0.82444
1290.20960	0.82491
1288.28104	0.82625
1286.35247	0.82796
1284.42391	0.82917
1282.49535	0.82982
1280.56678	0.83067
1278.63822	0.83217
1276.70965	0.83438
1274.78109	0.83750
1272.85252	0.84196
1270.92396	0.84746
1268.99539	0.85304
1267.06683	0.85842
1265.13827	0.86339
1263.20970	0.86730
1261.28114	0.87002
1259.35257	0.87184
1257.42401	0.87293
1255.49544	0.87378
1253.56688	0.87510
1251.63831	0.87684
1249.70975	0.87842
1247.78119	0.87985
1245.85262	0.88138
1243.92406	0.88258
1241.99549	0.88290
1240.06693	0.88272
1238.13836	0.88270
1236.20980	0.88240
1234.28123	0.88079
1232.35267	0.87757
1230.42411	0.87311
1228.49554	0.86781
1226.56698	0.86212
1224.63841	0.85644
1222.70985	0.85064
1220.78128	0.84457
1218.85272	0.83872
1216.92415	0.83368
1214.99559	0.82983
1213.06703	0.82733
1211.13846	0.82641
1209.20990	0.82698
1207.28133	0.82739
1205.35277	0.82545
1203.42420	0.82067
1201.49564	0.81409
1199.56708	0.80687
1197.63851	0.79976
1195.70995	0.79293
1193.78138	0.78655
1191.85282	0.78156
1189.92425	0.77897
1187.99569	0.77846
1186.06712	0.77871
1184.13856	0.77944
1182.21000	0.78157
1180.28143	0.78518
1178.35287	0.79000
1176.42430	0.79656
1174.49574	0.80453
1172.56717	0.81269
1170.63861	0.82105
1168.71004	0.83075
1166.78148	0.84200
1164.85292	0.85342
1162.92435	0.86318
1160.99579	0.86989
1159.06722	0.87264
1157.13866	0.87082
1155.21009	0.86431
1153.28153	0.85373
1151.35296	0.84063
1149.42440	0.82695
1147.49584	0.81400
1145.56727	0.80259
1143.63871	0.79370
1141.71014	0.78843
1139.78158	0.78693
1137.85301	0.78786
1135.92445	0.79027
1133.99588	0.79443
1132.06732	0.80072
1130.13876	0.80941
1128.21019	0.82045
1126.28163	0.83260
1124.35306	0.84391
1122.42450	0.85333
1120.49593	0.86051
1118.56737	0.86534
1116.63880	0.86813
1114.71024	0.86871
1112.78168	0.86666
1110.85311	0.86254
1108.92455	0.85755
1106.99598	0.85323
1105.06742	0.85061
1103.13885	0.84921
1101.21029	0.84885
1099.28172	0.85054
1097.35316	0.85459
1095.42460	0.86076
1093.49603	0.86854
1091.56747	0.87734
1089.63890	0.88723
1087.71034	0.89813
1085.78177	0.90998
1083.85321	0.92250
1081.92464	0.93404
1079.99608	0.94287
1078.06752	0.94785
1076.13895	0.94865
1074.21039	0.94644
1072.28182	0.94258
1070.35326	0.93673
1068.42469	0.92850
1066.49613	0.91912
1064.56756	0.90901
1062.63900	0.89761
1060.71044	0.88532
1058.78187	0.87322
1056.85331	0.86247
1054.92474	0.85350
1052.99618	0.84609
1051.06761	0.83994
1049.13905	0.83492
1047.21049	0.83174
1045.28192	0.83117
1043.35336	0.83284
1041.42479	0.83634
1039.49623	0.84112
1037.56766	0.84561
1035.63910	0.84842
1033.71053	0.84908
1031.78197	0.84783
1029.85341	0.84563
1027.92484	0.84286
1025.99628	0.83906
1024.06771	0.83477
1022.13915	0.83112
1020.21058	0.82840
1018.28202	0.82621
1016.35345	0.82362
1014.42489	0.81989
1012.49633	0.81453
1010.56776	0.80697
1008.63920	0.79808
1006.71063	0.78952
1004.78207	0.78213
1002.85350	0.77648
1000.92494	0.77242
998.99637	0.76928
997.06781	0.76676
995.13925	0.76506
993.21068	0.76436
991.28212	0.76375
989.35355	0.76214
987.42499	0.75970
985.49642	0.75695
983.56786	0.75448
981.63929	0.75312
979.71073	0.75250
977.78217	0.75106
975.85360	0.74800
973.92504	0.74349
971.99647	0.73769
970.06791	0.73058
968.13934	0.72254
966.21078	0.71442
964.28221	0.70768
962.35365	0.70422
960.42509	0.70497
958.49652	0.70910
956.56796	0.71390
954.63939	0.71583
952.71083	0.71339
950.78226	0.70750
948.85370	0.70019
946.92513	0.69387
944.99657	0.68975
943.06801	0.68774
941.13944	0.68744
939.21088	0.68790
937.28231	0.68825
935.35375	0.68865
933.42518	0.68942
931.49662	0.69044
929.56805	0.69197
927.63949	0.69422
925.71093	0.69646
923.78236	0.69781
921.85380	0.69822
919.92523	0.69771
917.99667	0.69612
916.06810	0.69368
914.13954	0.69105
912.21098	0.68863
910.28241	0.68624
908.35385	0.68407
906.42528	0.68281
904.49672	0.68219
902.56815	0.68107
900.63959	0.67907
898.71102	0.67684
896.78246	0.67431
894.85390	0.67087
892.92533	0.66661
890.99677	0.66179
889.06820	0.65687
887.13964	0.65258
885.21107	0.64911
883.28251	0.64620
881.35394	0.64375
879.42538	0.64208
877.49682	0.64144
875.56825	0.64153
873.63969	0.64213
871.71112	0.64311
869.78256	0.64420
867.85399	0.64549
865.92543	0.64746
863.99686	0.65029
862.06830	0.65365
860.13974	0.65728
858.21117	0.66105
856.28261	0.66490
854.35404	0.66896
852.42548	0.67307
850.49691	0.67710
848.56835	0.68131
846.63978	0.68485
844.71122	0.68659
842.78266	0.68722
840.85409	0.68766
838.92553	0.68788
836.99696	0.68795
835.06840	0.68762
833.13983	0.68635
831.21127	0.68435
829.28270	0.68159
827.35414	0.67815
825.42558	0.67509
823.49701	0.67244
821.56845	0.66918
819.63988	0.66521
817.71132	0.66117
815.78275	0.65760
813.85419	0.65464
811.92562	0.65199
809.99706	0.64966
808.06850	0.64777
806.13993	0.64642
804.21137	0.64572
802.28280	0.64543
800.35424	0.64588
798.42567	0.64782
796.49711	0.65094
794.56854	0.65448
792.63998	0.65807
790.71142	0.66195
788.78285	0.66660
786.85429	0.67204
784.92572	0.67782
782.99716	0.68350
781.06859	0.68883
779.14003	0.69344
777.21147	0.69750
775.28290	0.70157
773.35434	0.70525
771.42577	0.70833
769.49721	0.71105
767.56864	0.71319
765.64008	0.71463
763.71151	0.71538
761.78295	0.71520
759.85439	0.71413
757.92582	0.71306
755.99726	0.71255
754.06869	0.71182
752.14013	0.71074
750.21156	0.71024
748.28300	0.71045
746.35443	0.71065
744.42587	0.71032
742.49731	0.70983
740.56874	0.70931
738.64018	0.70770
736.71161	0.70554
734.78305	0.70507
732.85448	0.70653
730.92592	0.70799
728.99735	0.70877
727.06879	0.70963
725.14023	0.71084
723.21166	0.71259
721.28310	0.71505
719.35453	0.71731
717.42597	0.71884
715.49740	0.72001
713.56884	0.72092
711.64027	0.72174
709.71171	0.72282
707.78315	0.72463
705.85458	0.72710
703.92602	0.72878
701.99745	0.72860
700.06889	0.72714
698.14032	0.72590
696.21176	0.72613
694.28319	0.72725
692.35463	0.72679
690.42607	0.72349
688.49750	0.71929
686.56894	0.71610
684.64037	0.71250
682.71181	0.70661
680.78324	0.69982
678.85468	0.69417
676.92611	0.68939
674.99755	0.68479
673.06899	0.68044
671.14042	0.67705
669.21186	0.67363
667.28329	0.66749
665.35473	0.66252
663.42616	0.65984
661.49760	0.65750
659.56903	0.65509
657.64047	0.65295
655.71191	0.65049
653.78334	0.64808
651.85478	0.64720
649.92621	0.64770
647.99765	0.64832
646.06908	0.64854
644.14052	0.64897
642.21195	0.65092
640.28339	0.65469
638.35483	0.65892
636.42626	0.66138
634.49770	0.66096
632.56913	0.65972
630.64057	0.65961
628.71200	0.65928
626.78344	0.65776
624.85488	0.65725
622.92631	0.65864
620.99775	0.65961
619.06918	0.65941
617.14062	0.65983
615.21205	0.66126
613.28349	0.66181
611.35492	0.66096
609.42636	0.66098
607.49780	0.66334
605.56923	0.66594
603.64067	0.66726
601.71210	0.66843
599.78354	0.66964
