3997.91406	0.57195
3995.98550	0.57180
3994.05693	0.57247
3992.12837	0.57452
3990.19980	0.57582
3988.27124	0.57432
3986.34268	0.57224
3984.41411	0.57164
3982.48555	0.57212
3980.55698	0.57306
3978.62842	0.57362
3976.69985	0.57442
3974.77129	0.57646
3972.84272	0.57754
3970.91416	0.57654
3968.98560	0.57560
3967.05703	0.57595
3965.12847	0.57741
3963.19990	0.57829
3961.27134	0.57639
3959.34277	0.57367
3957.41421	0.57269
3955.48564	0.57237
3953.55708	0.57178
3951.62852	0.57104
3949.69995	0.57108
3947.77139	0.57248
3945.84282	0.57225
3943.91426	0.56946
3941.98569	0.56674
3940.05713	0.56539
3938.12856	0.56513
3936.20000	0.56532
3934.27144	0.56583
3932.34287	0.56701
3930.41431	0.56714
3928.48574	0.56576
3926.55718	0.56521
3924.62861	0.56501
3922.70005	0.56220
3920.77148	0.55885
3918.84292	0.55893
3916.91436	0.56130
3914.98579	0.56187
3913.05723	0.56076
3911.12866	0.55981
3909.20010	0.55816
3907.27153	0.55420
3905.34297	0.55017
3903.41440	0.55125
3901.48584	0.55653
3899.55728	0.56102
3897.62871	0.56181
3895.70015	0.55885
3893.77158	0.55561
3891.84302	0.55673
3889.91445	0.55801
3887.98589	0.55540
3886.05733	0.55566
3884.12876	0.56020
3882.20020	0.56224
3880.27163	0.56403
3878.34307	0.56400
3876.41450	0.55947
3874.48594	0.55396
3872.55737	0.55062
3870.62881	0.55196
3868.70025	0.55571
3866.77168	0.55481
3864.84312	0.55323
3862.91455	0.55511
3860.98599	0.55516
3859.05742	0.55128
3857.12886	0.54429
3855.20029	0.53745
3853.27173	0.54372
3851.34317	0.55295
3849.41460	0.55219
3847.48604	0.54765
3845.55747	0.54323
3843.62891	0.54178
3841.70034	0.54349
3839.77178	0.54672
3837.84321	0.54977
3835.91465	0.54956
3833.98609	0.54805
3832.05752	0.54794
3830.12896	0.54784
3828.20039	0.54617
3826.27183	0.54363
3824.34326	0.53923
3822.41470	0.53499
3820.48613	0.53808
3818.55757	0.54002
3816.62901	0.53830
3814.70044	0.54109
3812.77188	0.54440
3810.84331	0.54344
3808.91475	0.53992
3806.98618	0.53892
3805.05762	0.53771
3803.12905	0.53378
3801.20049	0.53513
3799.27193	0.53862
3797.34336	0.53970
3795.41480	0.54143
3793.48623	0.54210
3791.55767	0.54125
3789.62910	0.54014
3787.70054	0.53863
3785.77197	0.53716
3783.84341	0.53645
3781.91485	0.53631
3779.98628	0.53803
3778.05772	0.54004
3776.12915	0.53921
3774.20059	0.53721
3772.27202	0.53581
3770.34346	0.53612
3768.41489	0.53673
3766.48633	0.53619
3764.55777	0.53555
3762.62920	0.53399
3760.70064	0.53243
3758.77207	0.53281
3756.84351	0.53131
3754.91494	0.52509
3752.98638	0.51706
3751.05781	0.51691
3749.12925	0.52325
3747.20069	0.52313
3745.27212	0.52245
3743.34356	0.52746
3741.41499	0.53111
3739.48643	0.52945
3737.55786	0.52340
3735.62930	0.52126
3733.70074	0.52867
3731.77217	0.53329
3729.84361	0.53265
3727.91504	0.53096
3725.98648	0.53182
3724.05791	0.53544
3722.12935	0.53838
3720.20078	0.53885
3718.27222	0.53749
3716.34366	0.53474
3714.41509	0.53024
3712.48653	0.52853
3710.55796	0.53494
3708.62940	0.53726
3706.70083	0.53391
3704.77227	0.53167
3702.84370	0.53333
3700.91514	0.53611
3698.98658	0.53656
3697.05801	0.53627
3695.12945	0.53520
3693.20088	0.53102
3691.27232	0.52569
3689.34375	0.52903
3687.41519	0.53705
3685.48662	0.53896
3683.55806	0.53697
3681.62950	0.53451
3679.70093	0.53271
3677.77237	0.52990
3675.84380	0.53198
3673.91524	0.53996
3671.98667	0.54330
3670.05811	0.54957
3668.12954	0.55661
3666.20098	0.55723
3664.27242	0.55703
3662.34385	0.55942
3660.41529	0.56265
3658.48672	0.56529
3656.55816	0.56964
3654.62959	0.57252
3652.70103	0.56909
3650.77246	0.56344
3648.84390	0.57207
3646.91534	0.58815
3644.98677	0.59575
3643.05821	0.59983
3641.12964	0.60394
3639.20108	0.60874
3637.27251	0.61307
3635.34395	0.61662
3633.41538	0.61963
3631.48682	0.62084
3629.55826	0.62553
3627.62969	0.63593
3625.70113	0.63961
3623.77256	0.63976
3621.84400	0.64143
3619.91543	0.64685
3617.98687	0.65330
3616.05830	0.65756
3614.12974	0.66251
3612.20118	0.66739
3610.27261	0.67092
3608.34405	0.67626
3606.41548	0.68172
3604.48692	0.68426
3602.55835	0.68575
3600.62979	0.68869
3598.70123	0.69416
3596.77266	0.70129
3594.84410	0.71030
3592.91553	0.71857
3590.98697	0.72101
3589.05840	0.72068
3587.12984	0.72830
3585.20127	0.73974
3583.27271	0.74465
3581.34415	0.74706
3579.41558	0.75141
3577.48702	0.75614
3575.55845	0.76046
3573.62989	0.76478
3571.70132	0.76731
3569.77276	0.76840
3567.84419	0.77368
3565.91563	0.78478
3563.98707	0.79384
3562.05850	0.80084
3560.12994	0.80624
3558.20137	0.81004
3556.27281	0.81409
3554.34424	0.81986
3552.41568	0.82720
3550.48711	0.83257
3548.55855	0.83681
3546.62999	0.84436
3544.70142	0.85218
3542.77286	0.85599
3540.84429	0.85893
3538.91573	0.86422
3536.98716	0.87229
3535.05860	0.87961
3533.13003	0.88357
3531.20147	0.88728
3529.27291	0.89305
3527.34434	0.89985
3525.41578	0.90714
3523.48721	0.91424
3521.55865	0.92069
3519.63008	0.92777
3517.70152	0.93508
3515.77295	0.94069
3513.84439	0.94425
3511.91583	0.94776
3509.98726	0.95588
3508.05870	0.96779
3506.13013	0.97802
3504.20157	0.98638
3502.27300	0.99329
3500.34444	1.00073
3498.41587	1.01004
3496.48731	1.01774
3494.55875	1.02268
3492.63018	1.02614
3490.70162	1.02951
3488.77305	1.03546
3486.84449	1.04330
3484.91592	1.04798
3482.98736	1.05059
3481.05879	1.05780
3479.13023	1.06614
3477.20167	1.06910
3475.27310	1.07245
3473.34454	1.08079
3471.41597	1.08610
3469.48741	1.08463
3467.55884	1.08290
3465.63028	1.08484
3463.70171	1.08992
3461.77315	1.09612
3459.84459	1.09952
3457.91602	1.10095
3455.98746	1.10590
3454.05889	1.11223
3452.13033	1.11405
3450.20176	1.11317
3448.27320	1.11464
3446.34464	1.11939
3444.41607	1.12404
3442.48751	1.12838
3440.55894	1.13210
3438.63038	1.13232
3436.70181	1.13087
3434.77325	1.12961
3432.84468	1.12704
3430.91612	1.12431
3428.98756	1.12569
3427.05899	1.13047
3425.13043	1.13236
3423.20186	1.13077
3421.27330	1.13081
3419.34473	1.13380
3417.41617	1.13687
3415.48760	1.13863
3413.55904	1.13981
3411.63048	1.14191
3409.70191	1.14378
3407.77335	1.14156
3405.84478	1.13669
3403.91622	1.13459
3401.98765	1.13764
3400.05909	1.14454
3398.13052	1.14969
3396.20196	1.14788
3394.27340	1.14253
3392.34483	1.13927
3390.41627	1.13832
3388.48770	1.13838
3386.55914	1.13886
3384.63057	1.14181
3382.70201	1.14844
3380.77344	1.15308
3378.84488	1.15196
3376.91632	1.14941
3374.98775	1.15180
3373.05919	1.15866
3371.13062	1.16315
3369.20206	1.16218
3367.27349	1.15942
3365.34493	1.16055
3363.41636	1.16480
3361.48780	1.16538
3359.55924	1.16258
3357.63067	1.16291
3355.70211	1.16620
3353.77354	1.16571
3351.84498	1.16116
3349.91641	1.15957
3347.98785	1.16229
3346.05928	1.16557
3344.13072	1.17030
3342.20216	1.17864
3340.27359	1.18677
3338.34503	1.18888
3336.41646	1.18609
3334.48790	1.18577
3332.55933	1.19054
3330.63077	1.19491
3328.70220	1.19375
3326.77364	1.19072
3324.84508	1.19234
3322.91651	1.19615
3320.98795	1.19921
3319.05938	1.20554
3317.13082	1.21418
3315.20225	1.22078
3313.27369	1.22534
3311.34513	1.22859
3309.41656	1.23099
3307.48800	1.23108
3305.55943	1.22803
3303.63087	1.22672
3301.70230	1.23040
3299.77374	1.23608
3297.84517	1.24195
3295.91661	1.24805
3293.98805	1.25132
3292.05948	1.25208
3290.13092	1.25353
3288.20235	1.25355
3286.27379	1.25150
3284.34522	1.24985
3282.41666	1.24977
3280.48809	1.24998
3278.55953	1.24685
3276.63097	1.24252
3274.70240	1.24221
3272.77384	1.24498
3270.84527	1.24578
3268.91671	1.24042
3266.98814	1.23162
3265.05958	1.22472
3263.13101	1.21918
3261.20245	1.21408
3259.27389	1.21260
3257.34532	1.21438
3255.41676	1.21352
3253.48819	1.20735
3251.55963	1.19786
3249.63106	1.18688
3247.70250	1.17561
3245.77393	1.16645
3243.84537	1.16186
3241.91681	1.15826
3239.98824	1.15244
3238.05968	1.14923
3236.13111	1.14794
3234.20255	1.14022
3232.27398	1.12926
3230.34542	1.12471
3228.41685	1.12532
3226.48829	1.12483
3224.55973	1.12117
3222.63116	1.11542
3220.70260	1.10929
3218.77403	1.10293
3216.84547	1.09729
3214.91690	1.09416
3212.98834	1.09110
3211.05977	1.08545
3209.13121	1.07952
3207.20265	1.07565
3205.27408	1.07282
3203.34552	1.06980
3201.41695	1.06724
3199.48839	1.06421
3197.55982	1.05841
3195.63126	1.05139
3193.70269	1.04490
3191.77413	1.03884
3189.84557	1.03387
3187.91700	1.03006
3185.98844	1.02727
3184.05987	1.02385
3182.13131	1.01801
3180.20274	1.01154
3178.27418	1.00600
3176.34562	1.00087
3174.41705	0.99565
3172.48849	0.99038
3170.55992	0.98598
3168.63136	0.98393
3166.70279	0.98300
3164.77423	0.98077
3162.84566	0.97854
3160.91710	0.97686
3158.98854	0.97291
3157.05997	0.96679
3155.13141	0.96236
3153.20284	0.96056
3151.27428	0.95810
3149.34571	0.95412
3147.41715	0.95132
3145.48858	0.95069
3143.56002	0.94965
3141.63146	0.94585
3139.70289	0.94205
3137.77433	0.94126
3135.84576	0.94141
3133.91720	0.94103
3131.98863	0.94140
3130.06007	0.94252
3128.13150	0.94432
3126.20294	0.94637
3124.27438	0.94678
3122.34581	0.94543
3120.41725	0.94405
3118.48868	0.94488
3116.56012	0.94772
3114.63155	0.94951
3112.70299	0.95030
3110.77442	0.95192
3108.84586	0.95362
3106.91730	0.95431
3104.98873	0.95452
3103.06017	0.95461
3101.13160	0.95323
3099.20304	0.95033
3097.27447	0.94818
3095.34591	0.94744
3093.41734	0.94649
3091.48878	0.94483
3089.56022	0.94335
3087.63165	0.94188
3085.70309	0.93973
3083.77452	0.93681
3081.84596	0.93325
3079.91739	0.92882
3077.98883	0.92447
3076.06026	0.92216
3074.13170	0.92152
3072.20314	0.92092
3070.27457	0.91939
3068.34601	0.91555
3066.41744	0.91007
3064.48888	0.90546
3062.56031	0.90221
3060.63175	0.90001
3058.70318	0.89798
3056.77462	0.89434
3054.84606	0.88959
3052.91749	0.88549
3050.98893	0.88138
3049.06036	0.87615
3047.13180	0.87054
3045.20323	0.86671
3043.27467	0.86602
3041.34610	0.86579
3039.41754	0.86300
3037.48898	0.85921
3035.56041	0.85678
3033.63185	0.85563
3031.70328	0.85365
3029.77472	0.84977
3027.84615	0.84601
3025.91759	0.84394
3023.98903	0.84260
3022.06046	0.84094
3020.13190	0.83862
3018.20333	0.83527
3016.27477	0.83173
3014.34620	0.82963
3012.41764	0.82965
3010.48907	0.83107
3008.56051	0.83149
3006.63195	0.83007
3004.70338	0.82866
3002.77482	0.82823
3000.84625	0.82797
2998.91769	0.82745
2996.98912	0.82744
2995.06056	0.82904
2993.13199	0.83189
2991.20343	0.83454
2989.27487	0.83752
2987.34630	0.84251
2985.41774	0.84812
2983.48917	0.85313
2981.56061	0.85947
2979.63204	0.86797
2977.70348	0.87676
2975.77491	0.88398
2973.84635	0.88975
2971.91779	0.89527
2969.98922	0.90087
2968.06066	0.90703
2966.13209	0.91378
2964.20353	0.91935
2962.27496	0.92322
2960.34640	0.92583
2958.41783	0.92557
2956.48927	0.92145
2954.56071	0.91537
2952.63214	0.90952
2950.70358	0.90477
2948.77501	0.90232
2946.84645	0.90340
2944.91788	0.90775
2942.98932	0.91526
2941.06075	0.92515
2939.13219	0.93557
2937.20363	0.94519
2935.27506	0.95305
2933.34650	0.96018
2931.41793	0.96813
2929.48937	0.97599
2927.56080	0.98258
2925.63224	0.98729
2923.70367	0.98956
2921.77511	0.99008
2919.84655	0.99032
2917.91798	0.98790
2915.98942	0.97665
2914.06085	0.95615
2912.13229	0.93353
2910.20372	0.91503
2908.27516	0.90218
2906.34659	0.89328
2904.41803	0.88607
2902.48947	0.88053
2900.56090	0.87809
2898.63234	0.87788
2896.70377	0.87788
2894.77521	0.87700
2892.84664	0.87410
2890.91808	0.86951
2888.98952	0.86560
2887.06095	0.86357
2885.13239	0.86324
2883.20382	0.86471
2881.27526	0.86726
2879.34669	0.86885
2877.41813	0.86835
2875.48956	0.86659
2873.56100	0.86438
2871.63244	0.86104
2869.70387	0.85591
2867.77531	0.84974
2865.84674	0.84382
2863.91818	0.84012
2861.98961	0.84001
2860.06105	0.84217
2858.13248	0.84584
2856.20392	0.85226
2854.27536	0.86064
2852.34679	0.86794
2850.41823	0.86931
2848.48966	0.85793
2846.56110	0.83437
2844.63253	0.80933
2842.70397	0.78995
2840.77540	0.77512
2838.84684	0.76358
2836.91828	0.75632
2834.98971	0.75192
2833.06115	0.74741
2831.13258	0.74197
2829.20402	0.73657
2827.27545	0.73219
2825.34689	0.72875
2823.41832	0.72577
2821.48976	0.72333
2819.56120	0.72145
2817.63263	0.71990
2815.70407	0.71796
2813.77550	0.71537
2811.84694	0.71281
2809.91837	0.71026
2807.98981	0.70743
2806.06124	0.70508
2804.13268	0.70357
2802.20412	0.70241
2800.27555	0.70120
2798.34699	0.69981
2796.41842	0.69820
2794.48986	0.69609
2792.56129	0.69356
2790.63273	0.69150
2788.70416	0.69020
2786.77560	0.68889
2784.84704	0.68733
2782.91847	0.68586
2780.98991	0.68427
2779.06134	0.68199
2777.13278	0.67963
2775.20421	0.67831
2773.27565	0.67764
2771.34708	0.67627
2769.41852	0.67418
2767.48996	0.67228
2765.56139	0.67032
2763.63283	0.66785
2761.70426	0.66526
2759.77570	0.66310
2757.84713	0.66185
2755.91857	0.66139
2753.99001	0.66097
2752.06144	0.66002
2750.13288	0.65868
2748.20431	0.65718
2746.27575	0.65558
2744.34718	0.65442
2742.41862	0.65413
2740.49005	0.65426
2738.56149	0.65423
2736.63293	0.65406
2734.70436	0.65380
2732.77580	0.65323
2730.84723	0.65247
2728.91867	0.65146
2726.99010	0.65013
2725.06154	0.64909
2723.13297	0.64842
2721.20441	0.64775
2719.27585	0.64721
2717.34728	0.64692
2715.41872	0.64619
2713.49015	0.64483
2711.56159	0.64386
2709.63302	0.64330
2707.70446	0.64208
2705.77589	0.64022
2703.84733	0.63840
2701.91877	0.63658
2699.99020	0.63500
2698.06164	0.63421
2696.13307	0.63377
2694.20451	0.63259
2692.27594	0.63099
2690.34738	0.62996
2688.41881	0.62894
2686.49025	0.62741
2684.56169	0.62621
2682.63312	0.62544
2680.70456	0.62424
2678.77599	0.62290
2676.84743	0.62245
2674.91886	0.62240
2672.99030	0.62160
2671.06173	0.62041
2669.13317	0.61969
2667.20461	0.61976
2665.27604	0.62013
2663.34748	0.61956
2661.41891	0.61812
2659.49035	0.61700
2657.56178	0.61651
2655.63322	0.61619
2653.70465	0.61594
2651.77609	0.61605
2649.84753	0.61625
2647.91896	0.61612
2645.99040	0.61581
2644.06183	0.61536
2642.13327	0.61452
2640.20470	0.61391
2638.27614	0.61382
2636.34757	0.61307
2634.41901	0.61137
2632.49045	0.61002
2630.56188	0.60958
2628.63332	0.60952
2626.70475	0.60920
2624.77619	0.60864
2622.84762	0.60789
2620.91906	0.60679
2618.99049	0.60570
2617.06193	0.60451
2615.13337	0.60278
2613.20480	0.60116
2611.27624	0.60000
2609.34767	0.59884
2607.41911	0.59800
2605.49054	0.59790
2603.56198	0.59816
2601.63342	0.59814
2599.70485	0.59749
2597.77629	0.59678
2595.84772	0.59668
2593.91916	0.59656
2591.99059	0.59586
2590.06203	0.59519
2588.13346	0.59518
2586.20490	0.59580
2584.27634	0.59640
2582.34777	0.59643
2580.41921	0.59595
2578.49064	0.59514
2576.56208	0.59414
2574.63351	0.59334
2572.70495	0.59284
2570.77638	0.59249
2568.84782	0.59241
2566.91926	0.59288
2564.99069	0.59332
2563.06213	0.59276
2561.13356	0.59155
2559.20500	0.59082
2557.27643	0.59065
2555.34787	0.59042
2553.41930	0.58976
2551.49074	0.58884
2549.56218	0.58788
2547.63361	0.58666
2545.70505	0.58531
2543.77648	0.58447
2541.84792	0.58412
2539.91935	0.58358
2537.99079	0.58262
2536.06222	0.58147
2534.13366	0.58031
2532.20510	0.57921
2530.27653	0.57830
2528.34797	0.57785
2526.41940	0.57763
2524.49084	0.57706
2522.56227	0.57612
2520.63371	0.57507
2518.70514	0.57395
2516.77658	0.57317
2514.84802	0.57304
2512.91945	0.57296
2510.99089	0.57256
2509.06232	0.57236
2507.13376	0.57251
2505.20519	0.57276
2503.27663	0.57313
2501.34806	0.57352
2499.41950	0.57387
2497.49094	0.57416
2495.56237	0.57436
2493.63381	0.57485
2491.70524	0.57551
2489.77668	0.57553
2487.84811	0.57512
2485.91955	0.57503
2483.99098	0.57510
2482.06242	0.57508
2480.13386	0.57505
2478.20529	0.57489
2476.27673	0.57448
2474.34816	0.57385
2472.41960	0.57312
2470.49103	0.57250
2468.56247	0.57196
2466.63391	0.57120
2464.70534	0.57022
2462.77678	0.56921
2460.84821	0.56824
2458.91965	0.56723
2456.99108	0.56621
2455.06252	0.56533
2453.13395	0.56457
2451.20539	0.56393
2449.27683	0.56311
2447.34826	0.56164
2445.41970	0.56017
2443.49113	0.55949
2441.56257	0.55907
2439.63400	0.55860
2437.70544	0.55844
2435.77687	0.55852
2433.84831	0.55862
2431.91975	0.55862
2429.99118	0.55866
2428.06262	0.55884
2426.13405	0.55905
2424.20549	0.55945
2422.27692	0.56005
2420.34836	0.56018
2418.41979	0.55976
2416.49123	0.55983
2414.56267	0.56045
2412.63410	0.56065
2410.70554	0.56080
2408.77697	0.56125
2406.84841	0.56113
2404.91984	0.56038
2402.99128	0.55957
2401.06271	0.55868
2399.13415	0.55767
2397.20559	0.55659
2395.27702	0.55530
2393.34846	0.55391
2391.41989	0.55249
2389.49133	0.55092
2387.56276	0.54927
2385.63420	0.54787
2383.70563	0.54722
2381.77707	0.54751
2379.84851	0.54813
2377.91994	0.54855
2375.99138	0.54949
2374.06281	0.55147
2372.13425	0.55321
2370.20568	0.55397
2368.27712	0.55504
2366.34855	0.55710
2364.41999	0.56058
2362.49143	0.56483
2360.56286	0.56586
2358.63430	0.56299
2356.70573	0.56070
2354.77717	0.55996
2352.84860	0.55837
2350.92004	0.55583
2348.99147	0.55439
2347.06291	0.55614
2345.13435	0.56214
2343.20578	0.56848
2341.27722	0.57027
2339.34865	0.56979
2337.42009	0.57014
2335.49152	0.57070
2333.56296	0.57143
2331.63440	0.57377
2329.70583	0.57627
2327.77727	0.57575
2325.84870	0.57311
2323.92014	0.57169
2321.99157	0.57112
2320.06301	0.56889
2318.13444	0.56600
2316.20588	0.56425
2314.27732	0.56260
2312.34875	0.55961
2310.42019	0.55625
2308.49162	0.55395
2306.56306	0.55192
2304.63449	0.54902
2302.70593	0.54601
2300.77736	0.54405
2298.84880	0.54273
2296.92024	0.54094
2294.99167	0.53856
2293.06311	0.53623
2291.13454	0.53444
2289.20598	0.53325
2287.27741	0.53237
2285.34885	0.53188
2283.42028	0.53194
2281.49172	0.53225
2279.56316	0.53261
2277.63459	0.53299
2275.70603	0.53334
2273.77746	0.53380
2271.84890	0.53419
2269.92033	0.53433
2267.99177	0.53477
2266.06320	0.53564
2264.13464	0.53631
2262.20608	0.53663
2260.27751	0.53697
2258.34895	0.53714
2256.42038	0.53659
2254.49182	0.53564
2252.56325	0.53513
2250.63469	0.53499
2248.70612	0.53422
2246.77756	0.53267
2244.84900	0.53128
2242.92043	0.53044
2240.99187	0.52933
2239.06330	0.52741
2237.13474	0.52513
2235.20617	0.52297
2233.27761	0.52111
2231.34904	0.51922
2229.42048	0.51675
2227.49192	0.51412
2225.56335	0.51213
2223.63479	0.51080
2221.70622	0.50965
2219.77766	0.50821
2217.84909	0.50662
2215.92053	0.50528
2213.99196	0.50434
2212.06340	0.50378
2210.13484	0.50354
2208.20627	0.50349
2206.27771	0.50351
2204.34914	0.50370
2202.42058	0.50438
2200.49201	0.50550
2198.56345	0.50648
2196.63488	0.50713
2194.70632	0.50794
2192.77776	0.50890
2190.84919	0.50971
2188.92063	0.51065
2186.99206	0.51193
2185.06350	0.51334
2183.13493	0.51468
2181.20637	0.51569
2179.27781	0.51635
2177.34924	0.51710
2175.42068	0.51821
2173.49211	0.51922
2171.56355	0.51955
2169.63498	0.51931
2167.70642	0.51908
2165.77785	0.51908
2163.84929	0.51891
2161.92073	0.51822
2159.99216	0.51721
2158.06360	0.51615
2156.13503	0.51476
2154.20647	0.51280
2152.27790	0.51077
2150.34934	0.50903
2148.42077	0.50719
2146.49221	0.50493
2144.56365	0.50286
2142.63508	0.50134
2140.70652	0.49981
2138.77795	0.49806
2136.84939	0.49649
2134.92082	0.49509
2132.99226	0.49372
2131.06369	0.49241
2129.13513	0.49122
2127.20657	0.49026
2125.27800	0.48940
2123.34944	0.48839
2121.42087	0.48742
2119.49231	0.48674
2117.56374	0.48641
2115.63518	0.48629
2113.70661	0.48598
2111.77805	0.48549
2109.84949	0.48508
2107.92092	0.48456
2105.99236	0.48379
2104.06379	0.48292
2102.13523	0.48200
2100.20666	0.48106
2098.27810	0.48024
2096.34953	0.47952
2094.42097	0.47875
2092.49241	0.47804
2090.56384	0.47740
2088.63528	0.47642
2086.70671	0.47514
2084.77815	0.47386
2082.84958	0.47268
2080.92102	0.47164
2078.99245	0.47063
2077.06389	0.46959
2075.13533	0.46857
2073.20676	0.46752
2071.27820	0.46659
2069.34963	0.46587
2067.42107	0.46516
2065.49250	0.46443
2063.56394	0.46379
2061.63537	0.46311
2059.70681	0.46227
2057.77825	0.46135
2055.84968	0.46060
2053.92112	0.46027
2051.99255	0.46031
2050.06399	0.46040
2048.13542	0.46041
2046.20686	0.46038
2044.27830	0.46039
2042.34973	0.46043
2040.42117	0.46049
2038.49260	0.46063
2036.56404	0.46098
2034.63547	0.46138
2032.70691	0.46169
2030.77834	0.46200
2028.84978	0.46220
2026.92122	0.46205
2024.99265	0.46185
2023.06409	0.46191
2021.13552	0.46192
2019.20696	0.46161
2017.27839	0.46126
2015.34983	0.46089
2013.42126	0.46031
2011.49270	0.45956
2009.56414	0.45863
2007.63557	0.45759
2005.70701	0.45648
2003.77844	0.45509
2001.84988	0.45347
1999.92131	0.45185
1997.99275	0.45028
1996.06418	0.44882
1994.13562	0.44763
1992.20706	0.44633
1990.27849	0.44448
1988.34993	0.44240
1986.42136	0.44042
1984.49280	0.43839
1982.56423	0.43628
1980.63567	0.43437
1978.70710	0.43268
1976.77854	0.43079
1974.84998	0.42864
1972.92141	0.42670
1970.99285	0.42513
1969.06428	0.42378
1967.13572	0.42251
1965.20715	0.42100
1963.27859	0.41928
1961.35002	0.41783
1959.42146	0.41667
1957.49290	0.41552
1955.56433	0.41436
1953.63577	0.41324
1951.70720	0.41212
1949.77864	0.41097
1947.85007	0.40996
1945.92151	0.40926
1943.99294	0.40888
1942.06438	0.40842
1940.13582	0.40736
1938.20725	0.40620
1936.27869	0.40552
1934.35012	0.40518
1932.42156	0.40484
1930.49299	0.40431
1928.56443	0.40353
1926.63586	0.40271
1924.70730	0.40227
1922.77874	0.40194
1920.85017	0.40106
1918.92161	0.40020
1916.99304	0.39964
1915.06448	0.39869
1913.13591	0.39763
1911.20735	0.39698
1909.27878	0.39633
1907.35022	0.39529
1905.42166	0.39431
1903.49309	0.39361
1901.56453	0.39303
1899.63596	0.39261
1897.70740	0.39254
1895.77883	0.39286
1893.85027	0.39311
1891.92171	0.39323
1889.99314	0.39378
1888.06458	0.39430
1886.13601	0.39443
1884.20745	0.39460
1882.27888	0.39482
1880.35032	0.39500
1878.42175	0.39516
1876.49319	0.39518
1874.56463	0.39493
1872.63606	0.39485
1870.70750	0.39583
1868.77893	0.39745
1866.85037	0.39731
1864.92180	0.39577
1862.99324	0.39465
1861.06467	0.39409
1859.13611	0.39346
1857.20755	0.39236
1855.27898	0.39099
1853.35042	0.38968
1851.42185	0.38854
1849.49329	0.38757
1847.56472	0.38675
1845.63616	0.38616
1843.70759	0.38497
1841.77903	0.38251
1839.85047	0.38022
1837.92190	0.37884
1835.99334	0.37765
1834.06477	0.37612
1832.13621	0.37516
1830.20764	0.37505
1828.27908	0.37431
1826.35051	0.37294
1824.42195	0.37184
1822.49339	0.37056
1820.56482	0.36912
1818.63626	0.36820
1816.70769	0.36768
1814.77913	0.36727
1812.85056	0.36720
1810.92200	0.36732
1808.99343	0.36709
1807.06487	0.36657
1805.13631	0.36621
1803.20774	0.36625
1801.27918	0.36680
1799.35061	0.36715
1797.42205	0.36695
1795.49348	0.36681
1793.56492	0.36714
1791.63635	0.36711
1789.70779	0.36540
1787.77923	0.36348
1785.85066	0.36242
1783.92210	0.36193
1781.99353	0.36147
1780.06497	0.36077
1778.13640	0.35978
1776.20784	0.35890
1774.27927	0.35892
1772.35071	0.35976
1770.42215	0.35956
1768.49358	0.35866
1766.56502	0.35818
1764.63645	0.35839
1762.70789	0.35984
1760.77932	0.36217
1758.85076	0.36439
1756.92220	0.36748
1754.99363	0.37084
1753.06507	0.37445
1751.13650	0.38113
1749.20794	0.39050
1747.27937	0.39792
1745.35081	0.40357
1743.42224	0.40910
1741.49368	0.41490
1739.56512	0.42063
1737.63655	0.42472
1735.70799	0.42876
1733.77942	0.43654
1731.85086	0.44261
1729.92229	0.44581
1727.99373	0.44963
1726.06516	0.45450
1724.13660	0.46136
1722.20804	0.46873
1720.27947	0.47572
1718.35091	0.48713
1716.42234	0.50547
1714.49378	0.51919
1712.56521	0.52925
1710.63665	0.54104
1708.70808	0.55651
1706.77952	0.58067
1704.85096	0.61257
1702.92239	0.64098
1700.99383	0.67994
1699.06526	0.74042
1697.13670	0.79420
1695.20813	0.84309
1693.27957	0.87831
1691.35100	0.90693
1689.42244	0.94310
1687.49388	0.97775
1685.56531	1.01422
1683.63675	1.07103
1681.70818	1.11210
1679.77962	1.13635
1677.85105	1.15954
1675.92249	1.18581
1673.99392	1.21102
1672.06536	1.22859
1670.13680	1.24863
1668.20823	1.27194
1666.27967	1.28395
1664.35110	1.29279
1662.42254	1.30448
1660.49397	1.31155
1658.56541	1.31294
1656.63684	1.31193
1654.70828	1.31212
1652.77972	1.31499
1650.85115	1.31565
1648.92259	1.31466
1646.99402	1.30939
1645.06546	1.30155
1643.13689	1.29520
1641.20833	1.29009
1639.27976	1.28638
1637.35120	1.28634
1635.42264	1.28773
1633.49407	1.28278
1631.56551	1.27679
1629.63694	1.26992
1627.70838	1.25992
1625.77981	1.24704
1623.85125	1.23023
1621.92269	1.21066
1619.99412	1.19380
1618.06556	1.17208
1616.13699	1.13683
1614.20843	1.10563
1612.27986	1.07965
1610.35130	1.05092
1608.42273	1.02098
1606.49417	0.99561
1604.56561	0.97614
1602.63704	0.96028
1600.70848	0.94797
1598.77991	0.94022
1596.85135	0.93647
1594.92278	0.93464
1592.99422	0.93370
1591.06565	0.93495
1589.13709	0.93997
1587.20853	0.94898
1585.27996	0.96087
1583.35140	0.97490
1581.42283	0.98985
1579.49427	1.00434
1577.56570	1.02280
1575.63714	1.04905
1573.70857	1.06717
1571.78001	1.07971
1569.85145	1.09913
1567.92288	1.11969
1565.99432	1.13367
1564.06575	1.14595
1562.13719	1.15533
1560.20862	1.16695
1558.28006	1.19111
1556.35149	1.20069
1554.42293	1.20129
1552.49437	1.20018
1550.56580	1.19837
1548.63724	1.19590
1546.70867	1.19221
1544.78011	1.18812
1542.85154	1.18694
1540.92298	1.18636
1538.99441	1.17430
1537.06585	1.16306
1535.13729	1.15432
1533.20872	1.14572
1531.28016	1.13838
1529.35159	1.13308
1527.42303	1.12830
1525.49446	1.12231
1523.56590	1.11732
1521.63733	1.11601
1519.70877	1.11564
1517.78021	1.11000
1515.85164	1.09910
1513.92308	1.08557
1511.99451	1.07026
1510.06595	1.05618
1508.13738	1.03725
1506.20882	0.99681
1504.28025	0.96951
1502.35169	0.95189
1500.42313	0.93301
1498.49456	0.90995
1496.56600	0.88286
1494.63743	0.86113
1492.70887	0.84658
1490.78030	0.83180
1488.85174	0.81308
1486.92317	0.79773
1484.99461	0.78800
1483.06605	0.78203
1481.13748	0.77895
1479.20892	0.77870
1477.28035	0.78231
1475.35179	0.79168
1473.42322	0.80949
1471.49466	0.82815
1469.56610	0.83741
1467.63753	0.84365
1465.70897	0.85229
1463.78040	0.86123
1461.85184	0.86609
1459.92327	0.86991
1457.99471	0.87958
1456.06614	0.89210
1454.13758	0.89514
1452.20902	0.89458
1450.28045	0.89360
1448.35189	0.89242
1446.42332	0.89028
1444.49476	0.88704
1442.56619	0.88323
1440.63763	0.87906
1438.70906	0.87399
1436.78050	0.86640
1434.85194	0.85711
1432.92337	0.84886
1430.99481	0.84073
1429.06624	0.83294
1427.13768	0.82796
1425.20911	0.82568
1423.28055	0.82454
1421.35198	0.82441
1419.42342	0.82699
1417.49486	0.83036
1415.56629	0.83031
1413.63773	0.82883
1411.70916	0.82789
1409.78060	0.82757
1407.85203	0.82785
1405.92347	0.82991
1403.99490	0.83311
1402.06634	0.83543
1400.13778	0.83795
1398.20921	0.84136
1396.28065	0.84513
1394.35208	0.84931
1392.42352	0.85325
1390.49495	0.85828
1388.56639	0.86847
1386.63782	0.88476
1384.70926	0.90036
1382.78070	0.91315
1380.85213	0.92327
1378.92357	0.92760
1376.99500	0.92414
1375.06644	0.91226
1373.13787	0.89374
1371.20931	0.87380
1369.28074	0.85227
1367.35218	0.82966
1365.42362	0.80948
1363.49505	0.79031
1361.56649	0.77263
1359.63792	0.76063
1357.70936	0.75331
1355.78079	0.74835
1353.85223	0.74492
1351.92366	0.74316
1349.99510	0.74311
1348.06654	0.74396
1346.13797	0.74510
1344.20941	0.74696
1342.28084	0.75026
1340.35228	0.75592
1338.42371	0.76334
1336.49515	0.77104
1334.56659	0.77973
1332.63802	0.78986
1330.70946	0.80048
1328.78089	0.80987
1326.85233	0.81651
1324.92376	0.82039
1322.99520	0.82276
1321.06663	0.82477
1319.13807	0.82674
1317.20951	0.82840
1315.28094	0.82962
1313.35238	0.83069
1311.42381	0.83108
1309.49525	0.83012
1307.56668	0.82812
1305.63812	0.82557
1303.70955	0.82248
1301.78099	0.81839
1299.85243	0.81305
1297.92386	0.80714
1295.99530	0.80213
1294.06673	0.79908
1292.13817	0.79820
1290.20960	0.79922
1288.28104	0.80119
1286.35247	0.80328
1284.42391	0.80547
1282.49535	0.80835
1280.56678	0.81246
1278.63822	0.81757
1276.70965	0.82334
1274.78109	0.83005
1272.85252	0.83824
1270.92396	0.84784
1268.99539	0.85783
1267.06683	0.86738
1265.13827	0.87561
1263.20970	0.88139
1261.28114	0.88457
1259.35257	0.88604
1257.42401	0.88704
1255.49544	0.88845
1253.56688	0.88987
1251.63831	0.89063
1249.70975	0.89129
1247.78119	0.89200
1245.85262	0.89219
1243.92406	0.89223
1241.99549	0.89216
1240.06693	0.89088
1238.13836	0.88818
1236.20980	0.88425
1234.28123	0.87876
1232.35267	0.87212
1230.42411	0.86498
1228.49554	0.85711
1226.56698	0.84825
1224.63841	0.83878
1222.70985	0.82913
1220.78128	0.81960
1218.85272	0.81110
1216.92415	0.80433
1214.99559	0.79926
1213.06703	0.79677
1211.13846	0.79772
1209.20990	0.80046
1207.28133	0.80189
1205.35277	0.79996
1203.42420	0.79458
1201.49564	0.78717
1199.56708	0.77932
1197.63851	0.77183
1195.70995	0.76514
1193.78138	0.76025
1191.85282	0.75799
1189.92425	0.75780
1187.99569	0.75878
1186.06712	0.76128
1184.13856	0.76579
1182.21000	0.77206
1180.28143	0.78000
1178.35287	0.78968
1176.42430	0.80074
1174.49574	0.81271
1172.56717	0.82536
1170.63861	0.83902
1168.71004	0.85405
1166.78148	0.87007
1164.85292	0.88601
1162.92435	0.90032
1160.99579	0.91112
1159.06722	0.91627
1157.13866	0.91443
1155.21009	0.90613
1153.28153	0.89294
1151.35296	0.87730
1149.42440	0.86131
1147.49584	0.84583
1145.56727	0.83237
1143.63871	0.82320
1141.71014	0.81901
1139.78158	0.81927
1137.85301	0.82385
1135.92445	0.83235
1133.99588	0.84411
1132.06732	0.85922
1130.13876	0.87754
1128.21019	0.89758
1126.28163	0.91719
1124.35306	0.93489
1122.42450	0.95054
1120.49593	0.96412
1118.56737	0.97465
1116.63880	0.98133
1114.71024	0.98460
1112.78168	0.98525
1110.85311	0.98379
1108.92455	0.98244
1106.99598	0.98364
1105.06742	0.98581
1103.13885	0.98644
1101.21029	0.98751
1099.28172	0.99169
1097.35316	0.99852
1095.42460	1.00689
1093.49603	1.01588
1091.56747	1.02473
1089.63890	1.03432
1087.71034	1.04550
1085.78177	1.05788
1083.85321	1.07024
1081.92464	1.07988
1079.99608	1.08377
1078.06752	1.08188
1076.13895	1.07597
1074.21039	1.06609
1072.28182	1.05249
1070.35326	1.03682
1068.42469	1.02034
1066.49613	1.00395
1064.56756	0.98790
1062.63900	0.97142
1060.71044	0.95479
1058.78187	0.93969
1056.85331	0.92728
1054.92474	0.91783
1052.99618	0.91135
1051.06761	0.90817
1049.13905	0.90877
1047.21049	0.91253
1045.28192	0.91894
1043.35336	0.92805
1041.42479	0.93843
1039.49623	0.94839
1037.56766	0.95724
1035.63910	0.96426
1033.71053	0.96894
1031.78197	0.97098
1029.85341	0.96974
1027.92484	0.96529
1025.99628	0.95966
1024.06771	0.95541
1022.13915	0.95199
1020.21058	0.94771
1018.28202	0.94352
1016.35345	0.93935
1014.42489	0.93295
1012.49633	0.92278
1010.56776	0.90787
1008.63920	0.88889
1006.71063	0.86882
1004.78207	0.84984
1002.85350	0.83225
1000.92494	0.81626
998.99637	0.80246
997.06781	0.79069
995.13925	0.77960
993.21068	0.76811
991.28212	0.75603
989.35355	0.74293
987.42499	0.72906
985.49642	0.71608
983.56786	0.70545
981.63929	0.69792
979.71073	0.69357
977.78217	0.69147
975.85360	0.69021
973.92504	0.68890
971.99647	0.68723
970.06791	0.68552
968.13934	0.68499
966.21078	0.68697
964.28221	0.69220
962.35365	0.70139
960.42509	0.71514
958.49652	0.73239
956.56796	0.74943
954.63939	0.76152
952.71083	0.76635
950.78226	0.76525
948.85370	0.76178
946.92513	0.75870
944.99657	0.75628
943.06801	0.75406
941.13944	0.75204
939.21088	0.74979
937.28231	0.74675
935.35375	0.74298
933.42518	0.73852
931.49662	0.73362
929.56805	0.72862
927.63949	0.72341
925.71093	0.71815
923.78236	0.71317
921.85380	0.70772
919.92523	0.70103
917.99667	0.69379
916.06810	0.68708
914.13954	0.68097
912.21098	0.67544
910.28241	0.67121
908.35385	0.66884
906.42528	0.66833
904.49672	0.66960
902.56815	0.67223
900.63959	0.67504
898.71102	0.67728
896.78246	0.67944
894.85390	0.68192
892.92533	0.68440
890.99677	0.68672
889.06820	0.68951
887.13964	0.69356
885.21107	0.69917
883.28251	0.70640
881.35394	0.71481
879.42538	0.72389
877.49682	0.73328
875.56825	0.74255
873.63969	0.75178
871.71112	0.76085
869.78256	0.76886
867.85399	0.77550
865.92543	0.78152
863.99686	0.78737
862.06830	0.79252
860.13974	0.79690
858.21117	0.80118
856.28261	0.80528
854.35404	0.80826
852.42548	0.80968
850.49691	0.81013
848.56835	0.81018
846.63978	0.81022
844.71122	0.81054
842.78266	0.81104
840.85409	0.81145
838.92553	0.81185
836.99696	0.81278
835.06840	0.81461
833.13983	0.81734
831.21127	0.82100
829.28270	0.82523
827.35414	0.82951
825.42558	0.83338
823.49701	0.83639
821.56845	0.83914
819.63988	0.84255
817.71132	0.84623
815.78275	0.84931
813.85419	0.85104
811.92562	0.85107
809.99706	0.85017
808.06850	0.84900
806.13993	0.84736
804.21137	0.84518
802.28280	0.84193
800.35424	0.83701
798.42567	0.83107
796.49711	0.82485
794.56854	0.81908
792.63998	0.81413
790.71142	0.80963
788.78285	0.80563
786.85429	0.80237
784.92572	0.79960
782.99716	0.79703
781.06859	0.79468
779.14003	0.79212
777.21147	0.78941
775.28290	0.78810
773.35434	0.78837
771.42577	0.78861
769.49721	0.78853
767.56864	0.78882
765.64008	0.78955
763.71151	0.79103
761.78295	0.79393
759.85439	0.79818
757.92582	0.80342
755.99726	0.80930
754.06869	0.81564
752.14013	0.82290
750.21156	0.83098
748.28300	0.83911
746.35443	0.84716
744.42587	0.85547
742.49731	0.86407
740.56874	0.87242
738.64018	0.88058
736.71161	0.88965
734.78305	0.90001
732.85448	0.91048
730.92592	0.92004
728.99735	0.92795
727.06879	0.93383
725.14023	0.93861
723.21166	0.94375
721.28310	0.94945
719.35453	0.95345
717.42597	0.95370
715.49740	0.95212
713.56884	0.95138
711.64027	0.95166
709.71171	0.95122
707.78315	0.94806
705.85458	0.94316
703.92602	0.93935
701.99745	0.93635
700.06889	0.93271
698.14032	0.92925
696.21176	0.92645
694.28319	0.92360
692.35463	0.92090
690.42607	0.91814
688.49750	0.91465
686.56894	0.91213
684.64037	0.91170
682.71181	0.91221
680.78324	0.91278
678.85468	0.91309
676.92611	0.91404
674.99755	0.91551
673.06899	0.91584
671.14042	0.91639
669.21186	0.91869
667.28329	0.91727
665.35473	0.91224
663.42616	0.90805
661.49760	0.90294
659.56903	0.89503
657.64047	0.88451
655.71191	0.87257
653.78334	0.85992
651.85478	0.84627
649.92621	0.83193
647.99765	0.81767
646.06908	0.80395
644.14052	0.79033
642.21195	0.77683
640.28339	0.76594
638.35483	0.75844
636.42626	0.75159
634.49770	0.74512
632.56913	0.74020
630.64057	0.73581
628.71200	0.73148
626.78344	0.72871
624.85488	0.72894
622.92631	0.73146
620.99775	0.73416
619.06918	0.73669
617.14062	0.74044
615.21205	0.74626
613.28349	0.75500
611.35492	0.76516
609.42636	0.77303
607.49780	0.78112
605.56923	0.79545
603.64067	0.81286
601.71210	0.82588
599.78354	0.83607
