3997.91406	0.28799
3995.98550	0.28744
3994.05693	0.28797
3992.12837	0.28923
3990.19980	0.28981
3988.27124	0.28932
3986.34268	0.28845
3984.41411	0.28785
3982.48555	0.28778
3980.55698	0.28754
3978.62842	0.28610
3976.69985	0.28471
3974.77129	0.28523
3972.84272	0.28646
3970.91416	0.28675
3968.98560	0.28659
3967.05703	0.28622
3965.12847	0.28530
3963.19990	0.28446
3961.27134	0.28451
3959.34277	0.28483
3957.41421	0.28470
3955.48564	0.28432
3953.55708	0.28365
3951.62852	0.28266
3949.69995	0.28262
3947.77139	0.28315
3945.84282	0.28231
3943.91426	0.28243
3941.98569	0.28481
3940.05713	0.28580
3938.12856	0.28486
3936.20000	0.28316
3934.27144	0.28225
3932.34287	0.28517
3930.41431	0.28896
3928.48574	0.28792
3926.55718	0.28570
3924.62861	0.28708
3922.70005	0.28773
3920.77148	0.28584
3918.84292	0.28687
3916.91436	0.29107
3914.98579	0.29269
3913.05723	0.29137
3911.12866	0.28959
3909.20010	0.28590
3907.27153	0.28020
3905.34297	0.27926
3903.41440	0.28661
3901.48584	0.29322
3899.55728	0.29538
3897.62871	0.29291
3895.70015	0.28660
3893.77158	0.28228
3891.84302	0.28614
3889.91445	0.28868
3887.98589	0.28328
3886.05733	0.28062
3884.12876	0.28274
3882.20020	0.28317
3880.27163	0.28653
3878.34307	0.28636
3876.41450	0.28032
3874.48594	0.27656
3872.55737	0.27545
3870.62881	0.27722
3868.70025	0.28031
3866.77168	0.27752
3864.84312	0.27632
3862.91455	0.28027
3860.98599	0.27971
3859.05742	0.27314
3857.12886	0.26229
3855.20029	0.25291
3853.27173	0.26604
3851.34317	0.28052
3849.41460	0.27745
3847.48604	0.27058
3845.55747	0.26576
3843.62891	0.26374
3841.70034	0.26213
3839.77178	0.26199
3837.84321	0.26682
3835.91465	0.27007
3833.98609	0.26983
3832.05752	0.26999
3830.12896	0.26930
3828.20039	0.26753
3826.27183	0.26649
3824.34326	0.26266
3822.41470	0.25996
3820.48613	0.26629
3818.55757	0.26747
3816.62901	0.26690
3814.70044	0.27025
3812.77188	0.26861
3810.84331	0.26298
3808.91475	0.25942
3806.98618	0.26260
3805.05762	0.26284
3803.12905	0.25935
3801.20049	0.26674
3799.27193	0.27333
3797.34336	0.27327
3795.41480	0.27377
3793.48623	0.27224
3791.55767	0.26923
3789.62910	0.26716
3787.70054	0.26617
3785.77197	0.26779
3783.84341	0.26932
3781.91485	0.26715
3779.98628	0.26714
3778.05772	0.27027
3776.12915	0.26922
3774.20059	0.26430
3772.27202	0.25986
3770.34346	0.26109
3768.41489	0.26478
3766.48633	0.26621
3764.55777	0.26689
3762.62920	0.26366
3760.70064	0.25987
3758.77207	0.26260
3756.84351	0.26460
3754.91494	0.25961
3752.98638	0.25331
3751.05781	0.25693
3749.12925	0.26126
3747.20069	0.25571
3745.27212	0.25694
3743.34356	0.26769
3741.41499	0.26777
3739.48643	0.25856
3737.55786	0.24996
3735.62930	0.25419
3733.70074	0.26823
3731.77217	0.27368
3729.84361	0.27171
3727.91504	0.26874
3725.98648	0.26842
3724.05791	0.27077
3722.12935	0.27363
3720.20078	0.27467
3718.27222	0.27236
3716.34366	0.26684
3714.41509	0.25998
3712.48653	0.26063
3710.55796	0.27386
3708.62940	0.27978
3706.70083	0.27628
3704.77227	0.27125
3702.84370	0.27083
3700.91514	0.27473
3698.98658	0.27542
3697.05801	0.27318
3695.12945	0.26995
3693.20088	0.26554
3691.27232	0.26383
3689.34375	0.27270
3687.41519	0.28089
3685.48662	0.27961
3683.55806	0.27512
3681.62950	0.27134
3679.70093	0.26776
3677.77237	0.26473
3675.84380	0.27310
3673.91524	0.28181
3671.98667	0.27910
3670.05811	0.28405
3668.12954	0.29171
3666.20098	0.28958
3664.27242	0.28595
3662.34385	0.28481
3660.41529	0.28370
3658.48672	0.28258
3656.55816	0.28599
3654.62959	0.28730
3652.70103	0.27972
3650.77246	0.27517
3648.84390	0.29595
3646.91534	0.31371
3644.98677	0.31445
3643.05821	0.31354
3641.12964	0.31549
3639.20108	0.31765
3637.27251	0.31865
3635.34395	0.32016
3633.41538	0.32070
3631.48682	0.31887
3629.55826	0.32756
3627.62969	0.34640
3625.70113	0.34905
3623.77256	0.34403
3621.84400	0.34151
3619.91543	0.34753
3617.98687	0.35753
3616.05830	0.36083
3614.12974	0.36298
3612.20118	0.36727
3610.27261	0.37149
3608.34405	0.37880
3606.41548	0.38605
3604.48692	0.38786
3602.55835	0.38924
3600.62979	0.39434
3598.70123	0.39944
3596.77266	0.40324
3594.84410	0.40919
3592.91553	0.41309
3590.98697	0.41143
3589.05840	0.41322
3587.12984	0.42644
3585.20127	0.43618
3583.27271	0.43796
3581.34415	0.44009
3579.41558	0.44458
3577.48702	0.44966
3575.55845	0.45424
3573.62989	0.45705
3571.70132	0.45739
3569.77276	0.45797
3567.84419	0.46660
3565.91563	0.48184
3563.98707	0.48898
3562.05850	0.49134
3560.12994	0.49437
3558.20137	0.49757
3556.27281	0.50002
3554.34424	0.50390
3552.41568	0.51102
3550.48711	0.51646
3548.55855	0.51865
3546.62999	0.52407
3544.70142	0.53384
3542.77286	0.54109
3540.84429	0.54424
3538.91573	0.54697
3536.98716	0.55343
3535.05860	0.56226
3533.13003	0.56762
3531.20147	0.56976
3529.27291	0.57372
3527.34434	0.58039
3525.41578	0.58780
3523.48721	0.59660
3521.55865	0.60505
3519.63008	0.61079
3517.70152	0.61590
3515.77295	0.62143
3513.84439	0.62665
3511.91583	0.63300
3509.98726	0.64283
3508.05870	0.65361
3506.13013	0.66149
3504.20157	0.66994
3502.27300	0.68056
3500.34444	0.68842
3498.41587	0.69525
3496.48731	0.70455
3494.55875	0.71327
3492.63018	0.71931
3490.70162	0.72512
3488.77305	0.73061
3486.84449	0.73423
3484.91592	0.73736
3482.98736	0.74209
3481.05879	0.74846
3479.13023	0.75351
3477.20167	0.75586
3475.27310	0.75827
3473.34454	0.76220
3471.41597	0.76533
3469.48741	0.76663
3467.55884	0.76849
3465.63028	0.77293
3463.70171	0.77851
3461.77315	0.78278
3459.84459	0.78632
3457.91602	0.79152
3455.98746	0.79780
3454.05889	0.80127
3452.13033	0.80164
3450.20176	0.80319
3448.27320	0.80766
3446.34464	0.81255
3444.41607	0.81567
3442.48751	0.81766
3440.55894	0.81839
3438.63038	0.81775
3436.70181	0.81758
3434.77325	0.81822
3432.84468	0.81906
3430.91612	0.81988
3428.98756	0.82086
3427.05899	0.82230
3425.13043	0.82251
3423.20186	0.82143
3421.27330	0.82160
3419.34473	0.82288
3417.41617	0.82340
3415.48760	0.82364
3413.55904	0.82452
3411.63048	0.82549
3409.70191	0.82556
3407.77335	0.82414
3405.84478	0.82284
3403.91622	0.82473
3401.98765	0.82897
3400.05909	0.83225
3398.13052	0.83396
3396.20196	0.83494
3394.27340	0.83576
3392.34483	0.83662
3390.41627	0.83800
3388.48770	0.84040
3386.55914	0.84222
3384.63057	0.84188
3382.70201	0.84134
3380.77344	0.84307
3378.84488	0.84577
3376.91632	0.84745
3374.98775	0.84883
3373.05919	0.84995
3371.13062	0.85058
3369.20206	0.85173
3367.27349	0.85316
3365.34493	0.85449
3363.41636	0.85638
3361.48780	0.85856
3359.55924	0.86084
3357.63067	0.86455
3355.70211	0.86896
3353.77354	0.87092
3351.84498	0.87202
3349.91641	0.87594
3347.98785	0.88077
3346.05928	0.88349
3344.13072	0.88481
3342.20216	0.88642
3340.27359	0.88782
3338.34503	0.88824
3336.41646	0.89030
3334.48790	0.89575
3332.55933	0.90225
3330.63077	0.90747
3328.70220	0.91116
3326.77364	0.91521
3324.84508	0.92129
3322.91651	0.92823
3320.98795	0.93344
3319.05938	0.93631
3317.13082	0.93893
3315.20225	0.94243
3313.27369	0.94543
3311.34513	0.94828
3309.41656	0.95270
3307.48800	0.95719
3305.55943	0.96041
3303.63087	0.96444
3301.70230	0.97108
3299.77374	0.97871
3297.84517	0.98320
3295.91661	0.98288
3293.98805	0.98118
3292.05948	0.98218
3290.13092	0.98642
3288.20235	0.99152
3286.27379	0.99413
3284.34522	0.99404
3282.41666	0.99359
3280.48809	0.99106
3278.55953	0.98615
3276.63097	0.98367
3274.70240	0.98425
3272.77384	0.98323
3270.84527	0.97933
3268.91671	0.97602
3266.98814	0.97344
3265.05958	0.96814
3263.13101	0.96019
3261.20245	0.95357
3259.27389	0.94944
3257.34532	0.94339
3255.41676	0.93480
3253.48819	0.92605
3251.55963	0.91627
3249.63106	0.90714
3247.70250	0.90021
3245.77393	0.89342
3243.84537	0.88581
3241.91681	0.87811
3239.98824	0.87160
3238.05968	0.86559
3236.13111	0.85815
3234.20255	0.85104
3232.27398	0.84666
3230.34542	0.84407
3228.41685	0.84042
3226.48829	0.83446
3224.55973	0.82899
3222.63116	0.82484
3220.70260	0.81958
3218.77403	0.81392
3216.84547	0.80969
3214.91690	0.80644
3212.98834	0.80365
3211.05977	0.80113
3209.13121	0.79789
3207.20265	0.79294
3205.27408	0.78740
3203.34552	0.78368
3201.41695	0.78145
3199.48839	0.77806
3197.55982	0.77313
3195.63126	0.76791
3193.70269	0.76275
3191.77413	0.75857
3189.84557	0.75498
3187.91700	0.75010
3185.98844	0.74489
3184.05987	0.74142
3182.13131	0.73906
3180.20274	0.73610
3178.27418	0.73243
3176.34562	0.72917
3174.41705	0.72625
3172.48849	0.72312
3170.55992	0.72023
3168.63136	0.71700
3166.70279	0.71291
3164.77423	0.70933
3162.84566	0.70636
3160.91710	0.70295
3158.98854	0.69867
3157.05997	0.69393
3155.13141	0.69002
3153.20284	0.68698
3151.27428	0.68454
3149.34571	0.68308
3147.41715	0.68160
3145.48858	0.67935
3143.56002	0.67725
3141.63146	0.67546
3139.70289	0.67332
3137.77433	0.67236
3135.84576	0.67343
3133.91720	0.67434
3131.98863	0.67372
3130.06007	0.67278
3128.13150	0.67261
3126.20294	0.67184
3124.27438	0.66972
3122.34581	0.66860
3120.41725	0.66957
3118.48868	0.67132
3116.56012	0.67254
3114.63155	0.67268
3112.70299	0.67256
3110.77442	0.67284
3108.84586	0.67352
3106.91730	0.67525
3104.98873	0.67759
3103.06017	0.67930
3101.13160	0.68025
3099.20304	0.68015
3097.27447	0.67883
3095.34591	0.67728
3093.41734	0.67607
3091.48878	0.67500
3089.56022	0.67333
3087.63165	0.67032
3085.70309	0.66722
3083.77452	0.66583
3081.84596	0.66530
3079.91739	0.66401
3077.98883	0.66232
3076.06026	0.66092
3074.13170	0.65972
3072.20314	0.65784
3070.27457	0.65437
3068.34601	0.65063
3066.41744	0.64817
3064.48888	0.64570
3062.56031	0.64155
3060.63175	0.63631
3058.70318	0.63169
3056.77462	0.62822
3054.84606	0.62476
3052.91749	0.62091
3050.98893	0.61720
3049.06036	0.61331
3047.13180	0.60897
3045.20323	0.60450
3043.27467	0.60016
3041.34610	0.59630
3039.41754	0.59330
3037.48898	0.59115
3035.56041	0.58919
3033.63185	0.58698
3031.70328	0.58470
3029.77472	0.58253
3027.84615	0.58049
3025.91759	0.57839
3023.98903	0.57614
3022.06046	0.57396
3020.13190	0.57206
3018.20333	0.57058
3016.27477	0.56947
3014.34620	0.56856
3012.41764	0.56787
3010.48907	0.56746
3008.56051	0.56729
3006.63195	0.56737
3004.70338	0.56757
3002.77482	0.56796
3000.84625	0.56901
2998.91769	0.57095
2996.98912	0.57343
2995.06056	0.57612
2993.13199	0.57925
2991.20343	0.58347
2989.27487	0.58911
2987.34630	0.59559
2985.41774	0.60148
2983.48917	0.60662
2981.56061	0.61262
2979.63204	0.61959
2977.70348	0.62684
2975.77491	0.63473
2973.84635	0.64315
2971.91779	0.65173
2969.98922	0.66053
2968.06066	0.66887
2966.13209	0.67578
2964.20353	0.68096
2962.27496	0.68393
2960.34640	0.68364
2958.41783	0.67969
2956.48927	0.67361
2954.56071	0.66738
2952.63214	0.66150
2950.70358	0.65628
2948.77501	0.65294
2946.84645	0.65222
2944.91788	0.65436
2942.98932	0.66008
2941.06075	0.66916
2939.13219	0.68017
2937.20363	0.69176
2935.27506	0.70225
2933.34650	0.71022
2931.41793	0.71610
2929.48937	0.72167
2927.56080	0.72768
2925.63224	0.73327
2923.70367	0.73755
2921.77511	0.73980
2919.84655	0.73865
2917.91798	0.73264
2915.98942	0.72036
2914.06085	0.70286
2912.13229	0.68521
2910.20372	0.67113
2908.27516	0.65994
2906.34659	0.65085
2904.41803	0.64383
2902.48947	0.63819
2900.56090	0.63381
2898.63234	0.63104
2896.70377	0.62985
2894.77521	0.62926
2892.84664	0.62760
2890.91808	0.62471
2888.98952	0.62167
2887.06095	0.61862
2885.13239	0.61590
2883.20382	0.61507
2881.27526	0.61654
2879.34669	0.61847
2877.41813	0.61899
2875.48956	0.61782
2873.56100	0.61543
2871.63244	0.61134
2869.70387	0.60484
2867.77531	0.59700
2865.84674	0.59026
2863.91818	0.58661
2861.98961	0.58627
2860.06105	0.58861
2858.13248	0.59309
2856.20392	0.59852
2854.27536	0.60356
2852.34679	0.60739
2850.41823	0.60727
2848.48966	0.59802
2846.56110	0.57876
2844.63253	0.55617
2842.70397	0.53678
2840.77540	0.52247
2838.84684	0.51260
2836.91828	0.50575
2834.98971	0.50052
2833.06115	0.49582
2831.13258	0.49177
2829.20402	0.48904
2827.27545	0.48680
2825.34689	0.48389
2823.41832	0.48111
2821.48976	0.47948
2819.56120	0.47823
2817.63263	0.47631
2815.70407	0.47410
2813.77550	0.47250
2811.84694	0.47129
2809.91837	0.46956
2807.98981	0.46733
2806.06124	0.46547
2804.13268	0.46436
2802.20412	0.46353
2800.27555	0.46219
2798.34699	0.46029
2796.41842	0.45856
2794.48986	0.45707
2792.56129	0.45522
2790.63273	0.45320
2788.70416	0.45143
2786.77560	0.44990
2784.84704	0.44842
2782.91847	0.44690
2780.98991	0.44560
2779.06134	0.44476
2777.13278	0.44393
2775.20421	0.44265
2773.27565	0.44108
2771.34708	0.43946
2769.41852	0.43781
2767.48996	0.43628
2765.56139	0.43486
2763.63283	0.43346
2761.70426	0.43190
2759.77570	0.42996
2757.84713	0.42792
2755.91857	0.42638
2753.99001	0.42531
2752.06144	0.42416
2750.13288	0.42273
2748.20431	0.42123
2746.27575	0.41984
2744.34718	0.41882
2742.41862	0.41824
2740.49005	0.41756
2738.56149	0.41642
2736.63293	0.41530
2734.70436	0.41475
2732.77580	0.41441
2730.84723	0.41360
2728.91867	0.41244
2726.99010	0.41157
2725.06154	0.41125
2723.13297	0.41109
2721.20441	0.41086
2719.27585	0.41063
2717.34728	0.41037
2715.41872	0.40998
2713.49015	0.40932
2711.56159	0.40855
2709.63302	0.40812
2707.70446	0.40779
2705.77589	0.40706
2703.84733	0.40624
2701.91877	0.40547
2699.99020	0.40460
2698.06164	0.40403
2696.13307	0.40387
2694.20451	0.40331
2692.27594	0.40215
2690.34738	0.40103
2688.41881	0.40002
2686.49025	0.39880
2684.56169	0.39740
2682.63312	0.39587
2680.70456	0.39438
2678.77599	0.39318
2676.84743	0.39208
2674.91886	0.39076
2672.99030	0.38954
2671.06173	0.38873
2669.13317	0.38780
2667.20461	0.38635
2665.27604	0.38470
2663.34748	0.38336
2661.41891	0.38249
2659.49035	0.38178
2657.56178	0.38107
2655.63322	0.38025
2653.70465	0.37919
2651.77609	0.37808
2649.84753	0.37698
2647.91896	0.37605
2645.99040	0.37563
2644.06183	0.37556
2642.13327	0.37530
2640.20470	0.37481
2638.27614	0.37438
2636.34757	0.37393
2634.41901	0.37330
2632.49045	0.37290
2630.56188	0.37300
2628.63332	0.37312
2626.70475	0.37289
2624.77619	0.37276
2622.84762	0.37292
2620.91906	0.37291
2618.99049	0.37270
2617.06193	0.37243
2615.13337	0.37194
2613.20480	0.37145
2611.27624	0.37110
2609.34767	0.37048
2607.41911	0.36984
2605.49054	0.36968
2603.56198	0.36965
2601.63342	0.36939
2599.70485	0.36896
2597.77629	0.36848
2595.84772	0.36809
2593.91916	0.36750
2591.99059	0.36658
2590.06203	0.36567
2588.13346	0.36490
2586.20490	0.36453
2584.27634	0.36459
2582.34777	0.36458
2580.41921	0.36425
2578.49064	0.36367
2576.56208	0.36295
2574.63351	0.36230
2572.70495	0.36187
2570.77638	0.36136
2568.84782	0.36053
2566.91926	0.35973
2564.99069	0.35936
2563.06213	0.35908
2561.13356	0.35847
2559.20500	0.35770
2557.27643	0.35689
2555.34787	0.35588
2553.41930	0.35489
2551.49074	0.35432
2549.56218	0.35412
2547.63361	0.35395
2545.70505	0.35381
2543.77648	0.35371
2541.84792	0.35363
2539.91935	0.35344
2537.99079	0.35307
2536.06222	0.35296
2534.13366	0.35328
2532.20510	0.35343
2530.27653	0.35308
2528.34797	0.35260
2526.41940	0.35249
2524.49084	0.35261
2522.56227	0.35269
2520.63371	0.35271
2518.70514	0.35248
2516.77658	0.35193
2514.84802	0.35143
2512.91945	0.35112
2510.99089	0.35087
2509.06232	0.35050
2507.13376	0.35007
2505.20519	0.34978
2503.27663	0.34949
2501.34806	0.34917
2499.41950	0.34901
2497.49094	0.34879
2495.56237	0.34832
2493.63381	0.34775
2491.70524	0.34712
2489.77668	0.34645
2487.84811	0.34584
2485.91955	0.34514
2483.99098	0.34433
2482.06242	0.34384
2480.13386	0.34363
2478.20529	0.34314
2476.27673	0.34220
2474.34816	0.34124
2472.41960	0.34054
2470.49103	0.33986
2468.56247	0.33910
2466.63391	0.33844
2464.70534	0.33794
2462.77678	0.33750
2460.84821	0.33691
2458.91965	0.33609
2456.99108	0.33521
2455.06252	0.33438
2453.13395	0.33347
2451.20539	0.33254
2449.27683	0.33179
2447.34826	0.33124
2445.41970	0.33070
2443.49113	0.33007
2441.56257	0.32945
2439.63400	0.32875
2437.70544	0.32773
2435.77687	0.32655
2433.84831	0.32568
2431.91975	0.32525
2429.99118	0.32504
2428.06262	0.32478
2426.13405	0.32425
2424.20549	0.32344
2422.27692	0.32260
2420.34836	0.32194
2418.41979	0.32118
2416.49123	0.32036
2414.56267	0.31988
2412.63410	0.31958
2410.70554	0.31908
2408.77697	0.31831
2406.84841	0.31755
2404.91984	0.31718
2402.99128	0.31720
2401.06271	0.31714
2399.13415	0.31677
2397.20559	0.31636
2395.27702	0.31628
2393.34846	0.31645
2391.41989	0.31655
2389.49133	0.31646
2387.56276	0.31627
2385.63420	0.31629
2383.70563	0.31696
2381.77707	0.31837
2379.84851	0.32026
2377.91994	0.32220
2375.99138	0.32419
2374.06281	0.32694
2372.13425	0.33057
2370.20568	0.33451
2368.27712	0.33826
2366.34855	0.34082
2364.41999	0.34268
2362.49143	0.34549
2360.56286	0.34794
2358.63430	0.34774
2356.70573	0.34526
2354.77717	0.34229
2352.84860	0.33851
2350.92004	0.33301
2348.99147	0.32821
2347.06291	0.32716
2345.13435	0.33075
2343.20578	0.33546
2341.27722	0.33783
2339.34865	0.33779
2337.42009	0.33625
2335.49152	0.33508
2333.56296	0.33440
2331.63440	0.33340
2329.70583	0.33273
2327.77727	0.33197
2325.84870	0.33024
2323.92014	0.32851
2321.99157	0.32731
2320.06301	0.32606
2318.13444	0.32467
2316.20588	0.32342
2314.27732	0.32252
2312.34875	0.32184
2310.42019	0.32106
2308.49162	0.32023
2306.56306	0.31929
2304.63449	0.31809
2302.70593	0.31724
2300.77736	0.31735
2298.84880	0.31785
2296.92024	0.31808
2294.99167	0.31810
2293.06311	0.31823
2291.13454	0.31838
2289.20598	0.31815
2287.27741	0.31776
2285.34885	0.31768
2283.42028	0.31776
2281.49172	0.31781
2279.56316	0.31788
2277.63459	0.31795
2275.70603	0.31797
2273.77746	0.31780
2271.84890	0.31737
2269.92033	0.31686
2267.99177	0.31642
2266.06320	0.31606
2264.13464	0.31561
2262.20608	0.31490
2260.27751	0.31398
2258.34895	0.31301
2256.42038	0.31200
2254.49182	0.31089
2252.56325	0.30972
2250.63469	0.30865
2248.70612	0.30762
2246.77756	0.30640
2244.84900	0.30520
2242.92043	0.30428
2240.99187	0.30330
2239.06330	0.30195
2237.13474	0.30045
2235.20617	0.29920
2233.27761	0.29824
2231.34904	0.29732
2229.42048	0.29629
2227.49192	0.29521
2225.56335	0.29418
2223.63479	0.29320
2221.70622	0.29238
2219.77766	0.29178
2217.84909	0.29124
2215.92053	0.29077
2213.99196	0.29052
2212.06340	0.29031
2210.13484	0.29003
2208.20627	0.28993
2206.27771	0.28996
2204.34914	0.28982
2202.42058	0.28957
2200.49201	0.28948
2198.56345	0.28967
2196.63488	0.29006
2194.70632	0.29049
2192.77776	0.29079
2190.84919	0.29100
2188.92063	0.29149
2186.99206	0.29208
2185.06350	0.29239
2183.13493	0.29245
2181.20637	0.29257
2179.27781	0.29290
2177.34924	0.29331
2175.42068	0.29367
2173.49211	0.29410
2171.56355	0.29465
2169.63498	0.29523
2167.70642	0.29586
2165.77785	0.29650
2163.84929	0.29697
2161.92073	0.29740
2159.99216	0.29801
2158.06360	0.29858
2156.13503	0.29875
2154.20647	0.29867
2152.27790	0.29864
2150.34934	0.29867
2148.42077	0.29870
2146.49221	0.29865
2144.56365	0.29851
2142.63508	0.29840
2140.70652	0.29838
2138.77795	0.29840
2136.84939	0.29846
2134.92082	0.29854
2132.99226	0.29852
2131.06369	0.29843
2129.13513	0.29849
2127.20657	0.29880
2125.27800	0.29921
2123.34944	0.29962
2121.42087	0.30014
2119.49231	0.30083
2117.56374	0.30159
2115.63518	0.30247
2113.70661	0.30346
2111.77805	0.30446
2109.84949	0.30558
2107.92092	0.30687
2105.99236	0.30805
2104.06379	0.30904
2102.13523	0.30999
2100.20666	0.31096
2098.27810	0.31195
2096.34953	0.31280
2094.42097	0.31330
2092.49241	0.31374
2090.56384	0.31436
2088.63528	0.31483
2086.70671	0.31485
2084.77815	0.31467
2082.84958	0.31451
2080.92102	0.31436
2078.99245	0.31413
2077.06389	0.31374
2075.13533	0.31314
2073.20676	0.31223
2071.27820	0.31114
2069.34963	0.30998
2067.42107	0.30878
2065.49250	0.30769
2063.56394	0.30653
2061.63537	0.30495
2059.70681	0.30316
2057.77825	0.30148
2055.84968	0.29976
2053.92112	0.29784
2051.99255	0.29587
2050.06399	0.29402
2048.13542	0.29219
2046.20686	0.29041
2044.27830	0.28880
2042.34973	0.28723
2040.42117	0.28564
2038.49260	0.28415
2036.56404	0.28285
2034.63547	0.28167
2032.70691	0.28063
2030.77834	0.27974
2028.84978	0.27883
2026.92122	0.27787
2024.99265	0.27701
2023.06409	0.27634
2021.13552	0.27580
2019.20696	0.27548
2017.27839	0.27536
2015.34983	0.27513
2013.42126	0.27469
2011.49270	0.27438
2009.56414	0.27431
2007.63557	0.27431
2005.70701	0.27424
2003.77844	0.27409
2001.84988	0.27393
1999.92131	0.27388
1997.99275	0.27393
1996.06418	0.27405
1994.13562	0.27440
1992.20706	0.27501
1990.27849	0.27543
1988.34993	0.27542
1986.42136	0.27518
1984.49280	0.27495
1982.56423	0.27494
1980.63567	0.27517
1978.70710	0.27547
1976.77854	0.27561
1974.84998	0.27564
1972.92141	0.27569
1970.99285	0.27578
1969.06428	0.27618
1967.13572	0.27700
1965.20715	0.27748
1963.27859	0.27744
1961.35002	0.27747
1959.42146	0.27762
1957.49290	0.27785
1955.56433	0.27839
1953.63577	0.27906
1951.70720	0.27954
1949.77864	0.27990
1947.85007	0.28012
1945.92151	0.28043
1943.99294	0.28144
1942.06438	0.28276
1940.13582	0.28313
1938.20725	0.28311
1936.27869	0.28365
1934.35012	0.28454
1932.42156	0.28555
1930.49299	0.28672
1928.56443	0.28796
1926.63586	0.28912
1924.70730	0.29074
1922.77874	0.29296
1920.85017	0.29464
1918.92161	0.29629
1916.99304	0.29834
1915.06448	0.29951
1913.13591	0.30026
1911.20735	0.30164
1909.27878	0.30334
1907.35022	0.30442
1905.42166	0.30487
1903.49309	0.30527
1901.56453	0.30560
1899.63596	0.30565
1897.70740	0.30564
1895.77883	0.30586
1893.85027	0.30561
1891.92171	0.30468
1889.99314	0.30401
1888.06458	0.30307
1886.13601	0.30118
1884.20745	0.29911
1882.27888	0.29712
1880.35032	0.29511
1878.42175	0.29327
1876.49319	0.29151
1874.56463	0.28942
1872.63606	0.28729
1870.70750	0.28632
1868.77893	0.28666
1866.85037	0.28556
1864.92180	0.28277
1862.99324	0.28053
1861.06467	0.27928
1859.13611	0.27828
1857.20755	0.27716
1855.27898	0.27614
1853.35042	0.27544
1851.42185	0.27502
1849.49329	0.27491
1847.56472	0.27500
1845.63616	0.27571
1843.70759	0.27683
1841.77903	0.27624
1839.85047	0.27474
1837.92190	0.27409
1835.99334	0.27400
1834.06477	0.27358
1832.13621	0.27370
1830.20764	0.27522
1828.27908	0.27606
1826.35051	0.27562
1824.42195	0.27570
1822.49339	0.27556
1820.56482	0.27481
1818.63626	0.27457
1816.70769	0.27488
1814.77913	0.27521
1812.85056	0.27599
1810.92200	0.27758
1808.99343	0.27866
1807.06487	0.27861
1805.13631	0.27839
1803.20774	0.27904
1801.27918	0.28097
1799.35061	0.28270
1797.42205	0.28305
1795.49348	0.28307
1793.56492	0.28463
1791.63635	0.28763
1789.70779	0.28821
1787.77923	0.28733
1785.85066	0.28773
1783.92210	0.28942
1781.99353	0.29134
1780.06497	0.29325
1778.13640	0.29443
1776.20784	0.29513
1774.27927	0.29745
1772.35071	0.30247
1770.42215	0.30591
1768.49358	0.30680
1766.56502	0.30761
1764.63645	0.30885
1762.70789	0.31207
1760.77932	0.31697
1758.85076	0.32119
1756.92220	0.32633
1754.99363	0.33140
1753.06507	0.33615
1751.13650	0.34510
1749.20794	0.35776
1747.27937	0.36675
1745.35081	0.37239
1743.42224	0.37748
1741.49368	0.38284
1739.56512	0.38801
1737.63655	0.39087
1735.70799	0.39315
1733.77942	0.39873
1731.85086	0.40210
1729.92229	0.40242
1727.99373	0.40305
1726.06516	0.40435
1724.13660	0.40740
1722.20804	0.41116
1720.27947	0.41501
1718.35091	0.42320
1716.42234	0.43687
1714.49378	0.44493
1712.56521	0.44975
1710.63665	0.45653
1708.70808	0.46654
1706.77952	0.48333
1704.85096	0.50595
1702.92239	0.52612
1700.99383	0.55621
1699.06526	0.60493
1697.13670	0.64922
1695.20813	0.68984
1693.27957	0.71793
1691.35100	0.74030
1689.42244	0.76928
1687.49388	0.79691
1685.56531	0.82715
1683.63675	0.87740
1681.70818	0.91165
1679.77962	0.92903
1677.85105	0.94616
1675.92249	0.96860
1673.99392	0.99321
1672.06536	1.01162
1670.13680	1.03208
1668.20823	1.05328
1666.27967	1.06295
1664.35110	1.07149
1662.42254	1.08587
1660.49397	1.09735
1658.56541	1.10235
1656.63684	1.10460
1654.70828	1.10920
1652.77972	1.11737
1650.85115	1.11650
1648.92259	1.11484
1646.99402	1.11799
1645.06546	1.11867
1643.13689	1.11517
1641.20833	1.11306
1639.27976	1.11252
1637.35120	1.11315
1635.42264	1.11329
1633.49407	1.10990
1631.56551	1.10577
1629.63694	1.10171
1627.70838	1.09688
1625.77981	1.08982
1623.85125	1.07965
1621.92269	1.06554
1619.99412	1.05088
1618.06556	1.03286
1616.13699	1.00445
1614.20843	0.97741
1612.27986	0.95513
1610.35130	0.93270
1608.42273	0.91048
1606.49417	0.89149
1604.56561	0.87684
1602.63704	0.86533
1600.70848	0.85636
1598.77991	0.85005
1596.85135	0.84657
1594.92278	0.84518
1592.99422	0.84452
1591.06565	0.84468
1589.13709	0.84685
1587.20853	0.85151
1585.27996	0.85861
1583.35140	0.86823
1581.42283	0.87883
1579.49427	0.88922
1577.56570	0.90416
1575.63714	0.92529
1573.70857	0.93703
1571.78001	0.94475
1569.85145	0.96025
1567.92288	0.97706
1565.99432	0.98811
1564.06575	0.99827
1562.13719	1.00630
1560.20862	1.01845
1558.28006	1.04548
1556.35149	1.05288
1554.42293	1.05183
1552.49437	1.05275
1550.56580	1.05476
1548.63724	1.05602
1546.70867	1.05619
1544.78011	1.05678
1542.85154	1.05974
1540.92298	1.06577
1538.99441	1.06193
1537.06585	1.05328
1535.13729	1.04739
1533.20872	1.04350
1531.28016	1.03926
1529.35159	1.03558
1527.42303	1.03451
1525.49446	1.03524
1523.56590	1.03633
1521.63733	1.03655
1519.70877	1.03375
1517.78021	1.02880
1515.85164	1.02037
1513.92308	1.00767
1511.99451	0.99307
1510.06595	0.97996
1508.13738	0.96400
1506.20882	0.93070
1504.28025	0.90520
1502.35169	0.88786
1500.42313	0.87078
1498.49456	0.85033
1496.56600	0.82425
1494.63743	0.80165
1492.70887	0.78608
1490.78030	0.77065
1488.85174	0.75073
1486.92317	0.73328
1484.99461	0.72128
1483.06605	0.71319
1481.13748	0.70838
1479.20892	0.70700
1477.28035	0.70999
1475.35179	0.71909
1473.42322	0.73768
1471.49466	0.75759
1469.56610	0.76679
1467.63753	0.77268
1465.70897	0.78194
1463.78040	0.79266
1461.85184	0.79898
1459.92327	0.80410
1457.99471	0.81689
1456.06614	0.83223
1454.13758	0.83456
1452.20902	0.83328
1450.28045	0.83283
1448.35189	0.83335
1446.42332	0.83304
1444.49476	0.83122
1442.56619	0.82862
1440.63763	0.82558
1438.70906	0.82233
1436.78050	0.81813
1434.85194	0.81170
1432.92337	0.80463
1430.99481	0.79752
1429.06624	0.79057
1427.13768	0.78505
1425.20911	0.78150
1423.28055	0.77971
1421.35198	0.77939
1419.42342	0.78153
1417.49486	0.78366
1415.56629	0.78202
1413.63773	0.77906
1411.70916	0.77622
1409.78060	0.77354
1407.85203	0.77170
1405.92347	0.77177
1403.99490	0.77305
1402.06634	0.77420
1400.13778	0.77604
1398.20921	0.77824
1396.28065	0.77996
1394.35208	0.78211
1392.42352	0.78415
1390.49495	0.78683
1388.56639	0.79382
1386.63782	0.80673
1384.70926	0.82027
1382.78070	0.83207
1380.85213	0.84214
1378.92357	0.84835
1376.99500	0.84964
1375.06644	0.84533
1373.13787	0.83500
1371.20931	0.82187
1369.28074	0.80673
1367.35218	0.78973
1365.42362	0.77406
1363.49505	0.76066
1361.56649	0.74985
1359.63792	0.74258
1357.70936	0.73809
1355.78079	0.73536
1353.85223	0.73374
1351.92366	0.73298
1349.99510	0.73306
1348.06654	0.73347
1346.13797	0.73373
1344.20941	0.73409
1342.28084	0.73525
1340.35228	0.73785
1338.42371	0.74096
1336.49515	0.74321
1334.56659	0.74592
1332.63802	0.75047
1330.70946	0.75644
1328.78089	0.76207
1326.85233	0.76546
1324.92376	0.76619
1322.99520	0.76585
1321.06663	0.76603
1319.13807	0.76635
1317.20951	0.76602
1315.28094	0.76549
1313.35238	0.76510
1311.42381	0.76456
1309.49525	0.76362
1307.56668	0.76203
1305.63812	0.76004
1303.70955	0.75812
1301.78099	0.75597
1299.85243	0.75321
1297.92386	0.74977
1295.99530	0.74622
1294.06673	0.74393
1292.13817	0.74377
1290.20960	0.74553
1288.28104	0.74835
1286.35247	0.75162
1284.42391	0.75502
1282.49535	0.75840
1280.56678	0.76210
1278.63822	0.76689
1276.70965	0.77291
1274.78109	0.77967
1272.85252	0.78736
1270.92396	0.79620
1268.99539	0.80537
1267.06683	0.81426
1265.13827	0.82271
1263.20970	0.83001
1261.28114	0.83542
1259.35257	0.83862
1257.42401	0.84008
1255.49544	0.84115
1253.56688	0.84246
1251.63831	0.84356
1249.70975	0.84431
1247.78119	0.84478
1245.85262	0.84493
1243.92406	0.84463
1241.99549	0.84388
1240.06693	0.84269
1238.13836	0.84085
1236.20980	0.83789
1234.28123	0.83364
1232.35267	0.82812
1230.42411	0.82124
1228.49554	0.81344
1226.56698	0.80533
1224.63841	0.79674
1222.70985	0.78730
1220.78128	0.77739
1218.85272	0.76783
1216.92415	0.75941
1214.99559	0.75289
1213.06703	0.74880
1211.13846	0.74709
1209.20990	0.74682
1207.28133	0.74604
1205.35277	0.74277
1203.42420	0.73670
1201.49564	0.72920
1199.56708	0.72156
1197.63851	0.71396
1195.70995	0.70667
1193.78138	0.70070
1191.85282	0.69662
1189.92425	0.69395
1187.99569	0.69239
1186.06712	0.69231
1184.13856	0.69373
1182.21000	0.69661
1180.28143	0.70096
1178.35287	0.70664
1176.42430	0.71383
1174.49574	0.72232
1172.56717	0.73105
1170.63861	0.73973
1168.71004	0.74948
1166.78148	0.76134
1164.85292	0.77485
1162.92435	0.78783
1160.99579	0.79743
1159.06722	0.80174
1157.13866	0.80063
1155.21009	0.79520
1153.28153	0.78637
1151.35296	0.77434
1149.42440	0.75999
1147.49584	0.74527
1145.56727	0.73191
1143.63871	0.72076
1141.71014	0.71270
1139.78158	0.70790
1137.85301	0.70576
1135.92445	0.70636
1133.99588	0.71003
1132.06732	0.71669
1130.13876	0.72645
1128.21019	0.73891
1126.28163	0.75267
1124.35306	0.76643
1122.42450	0.77916
1120.49593	0.79000
1118.56737	0.79877
1116.63880	0.80536
1114.71024	0.80939
1112.78168	0.81066
1110.85311	0.80994
1108.92455	0.80830
1106.99598	0.80575
1105.06742	0.80258
1103.13885	0.80057
1101.21029	0.80045
1099.28172	0.80103
1097.35316	0.80220
1095.42460	0.80526
1093.49603	0.81065
1091.56747	0.81778
1089.63890	0.82590
1087.71034	0.83485
1085.78177	0.84572
1083.85321	0.85907
1081.92464	0.87269
1079.99608	0.88369
1078.06752	0.89162
1076.13895	0.89677
1074.21039	0.89823
1072.28182	0.89565
1070.35326	0.89080
1068.42469	0.88584
1066.49613	0.88073
1064.56756	0.87438
1062.63900	0.86667
1060.71044	0.85769
1058.78187	0.84752
1056.85331	0.83738
1054.92474	0.82798
1052.99618	0.81902
1051.06761	0.81091
1049.13905	0.80423
1047.21049	0.79965
1045.28192	0.79835
1043.35336	0.80094
1041.42479	0.80646
1039.49623	0.81308
1037.56766	0.81974
1035.63910	0.82594
1033.71053	0.83050
1031.78197	0.83241
1029.85341	0.83182
1027.92484	0.82924
1025.99628	0.82490
1024.06771	0.81894
1022.13915	0.81231
1020.21058	0.80675
1018.28202	0.80283
1016.35345	0.79915
1014.42489	0.79409
1012.49633	0.78639
1010.56776	0.77551
1008.63920	0.76217
1006.71063	0.74763
1004.78207	0.73297
1002.85350	0.71907
1000.92494	0.70676
998.99637	0.69684
997.06781	0.68952
995.13925	0.68438
993.21068	0.68046
991.28212	0.67604
989.35355	0.67020
987.42499	0.66363
985.49642	0.65767
983.56786	0.65330
981.63929	0.65044
979.71073	0.64846
977.78217	0.64675
975.85360	0.64456
973.92504	0.64085
971.99647	0.63506
970.06791	0.62779
968.13934	0.61995
966.21078	0.61209
964.28221	0.60483
962.35365	0.59935
960.42509	0.59706
958.49652	0.59869
956.56796	0.60268
954.63939	0.60546
952.71083	0.60414
950.78226	0.59811
948.85370	0.58858
946.92513	0.57776
944.99657	0.56805
943.06801	0.56072
941.13944	0.55541
939.21088	0.55121
937.28231	0.54772
935.35375	0.54512
933.42518	0.54363
931.49662	0.54320
929.56805	0.54360
927.63949	0.54469
925.71093	0.54654
923.78236	0.54895
921.85380	0.55136
919.92523	0.55327
917.99667	0.55419
916.06810	0.55413
914.13954	0.55394
912.21098	0.55391
910.28241	0.55380
908.35385	0.55382
906.42528	0.55411
904.49672	0.55458
902.56815	0.55494
900.63959	0.55477
898.71102	0.55397
896.78246	0.55215
894.85390	0.54869
892.92533	0.54382
890.99677	0.53798
889.06820	0.53123
887.13964	0.52383
885.21107	0.51608
883.28251	0.50780
881.35394	0.49886
879.42538	0.48986
877.49682	0.48144
875.56825	0.47368
873.63969	0.46635
871.71112	0.45921
869.78256	0.45248
867.85399	0.44650
865.92543	0.44137
863.99686	0.43724
862.06830	0.43422
860.13974	0.43245
858.21117	0.43210
856.28261	0.43303
854.35404	0.43512
852.42548	0.43807
850.49691	0.44125
848.56835	0.44450
846.63978	0.44794
844.71122	0.45177
842.78266	0.45638
840.85409	0.46176
838.92553	0.46768
836.99696	0.47399
835.06840	0.48063
833.13983	0.48753
831.21127	0.49464
829.28270	0.50170
827.35414	0.50819
825.42558	0.51417
823.49701	0.52001
821.56845	0.52575
819.63988	0.53152
817.71132	0.53723
815.78275	0.54245
813.85419	0.54736
811.92562	0.55230
809.99706	0.55684
808.06850	0.56079
806.13993	0.56439
804.21137	0.56747
802.28280	0.56988
800.35424	0.57196
798.42567	0.57363
796.49711	0.57447
794.56854	0.57426
792.63998	0.57252
790.71142	0.56940
788.78285	0.56574
786.85429	0.56122
784.92572	0.55566
782.99716	0.55033
781.06859	0.54523
779.14003	0.53918
777.21147	0.53237
775.28290	0.52582
773.35434	0.51999
771.42577	0.51486
769.49721	0.51042
767.56864	0.50667
765.64008	0.50370
763.71151	0.50197
761.78295	0.50166
759.85439	0.50226
757.92582	0.50344
755.99726	0.50546
754.06869	0.50832
752.14013	0.51157
750.21156	0.51516
748.28300	0.51914
746.35443	0.52330
744.42587	0.52752
742.49731	0.53152
740.56874	0.53499
738.64018	0.53780
736.71161	0.54005
734.78305	0.54227
732.85448	0.54480
730.92592	0.54677
728.99735	0.54713
727.06879	0.54623
725.14023	0.54530
723.21166	0.54517
721.28310	0.54540
719.35453	0.54368
717.42597	0.53894
715.49740	0.53318
713.56884	0.52764
711.64027	0.52203
709.71171	0.51655
707.78315	0.51131
705.85458	0.50567
703.92602	0.49912
701.99745	0.49200
700.06889	0.48500
698.14032	0.47819
696.21176	0.47110
694.28319	0.46388
692.35463	0.45734
690.42607	0.45155
688.49750	0.44576
686.56894	0.44007
684.64037	0.43542
682.71181	0.43188
680.78324	0.42926
678.85468	0.42782
676.92611	0.42750
674.99755	0.42816
673.06899	0.42997
671.14042	0.43324
669.21186	0.43867
667.28329	0.44445
665.35473	0.44857
663.42616	0.45406
661.49760	0.46156
659.56903	0.46974
657.64047	0.47847
655.71191	0.48836
653.78334	0.49933
651.85478	0.51021
649.92621	0.52040
647.99765	0.53074
646.06908	0.54218
644.14052	0.55558
642.21195	0.57055
640.28339	0.58551
638.35483	0.59936
636.42626	0.61216
634.49770	0.62444
632.56913	0.63576
630.64057	0.64513
628.71200	0.65341
626.78344	0.66171
624.85488	0.66912
622.92631	0.67557
620.99775	0.68148
619.06918	0.68620
617.14062	0.68886
615.21205	0.68955
613.28349	0.68851
611.35492	0.68513
609.42636	0.67958
607.49780	0.67229
605.56923	0.66316
603.64067	0.65156
601.71210	0.63822
599.78354	0.62558
