3997.91406	0.35943
3995.98550	0.35888
3994.05693	0.35983
3992.12837	0.36044
3990.19980	0.36021
3988.27124	0.35960
3986.34268	0.35905
3984.41411	0.35928
3982.48555	0.35929
3980.55698	0.35740
3978.62842	0.35541
3976.69985	0.35559
3974.77129	0.35636
3972.84272	0.35513
3970.91416	0.35333
3968.98560	0.35306
3967.05703	0.35354
3965.12847	0.35366
3963.19990	0.35369
3961.27134	0.35437
3959.34277	0.35519
3957.41421	0.35528
3955.48564	0.35430
3953.55708	0.35184
3951.62852	0.34870
3949.69995	0.34755
3947.77139	0.34818
3945.84282	0.34751
3943.91426	0.34788
3941.98569	0.35045
3940.05713	0.35075
3938.12856	0.34869
3936.20000	0.34585
3934.27144	0.34379
3932.34287	0.34574
3930.41431	0.34905
3928.48574	0.34792
3926.55718	0.34499
3924.62861	0.34535
3922.70005	0.34578
3920.77148	0.34344
3918.84292	0.34361
3916.91436	0.34745
3914.98579	0.34849
3913.05723	0.34598
3911.12866	0.34322
3909.20010	0.33905
3907.27153	0.33256
3905.34297	0.33008
3903.41440	0.33650
3901.48584	0.34367
3899.55728	0.34764
3897.62871	0.34743
3895.70015	0.34176
3893.77158	0.33607
3891.84302	0.33804
3889.91445	0.33972
3887.98589	0.33477
3886.05733	0.33391
3884.12876	0.33664
3882.20020	0.33599
3880.27163	0.33964
3878.34307	0.33981
3876.41450	0.33295
3874.48594	0.32906
3872.55737	0.32974
3870.62881	0.33506
3868.70025	0.33971
3866.77168	0.33550
3864.84312	0.33456
3862.91455	0.34045
3860.98599	0.33951
3859.05742	0.33146
3857.12886	0.31985
3855.20029	0.31154
3853.27173	0.32837
3851.34317	0.34423
3849.41460	0.34040
3847.48604	0.33246
3845.55747	0.32707
3843.62891	0.32570
3841.70034	0.32463
3839.77178	0.32382
3837.84321	0.32904
3835.91465	0.33342
3833.98609	0.33340
3832.05752	0.33380
3830.12896	0.33304
3828.20039	0.33054
3826.27183	0.32871
3824.34326	0.32333
3822.41470	0.31944
3820.48613	0.32748
3818.55757	0.32936
3816.62901	0.32810
3814.70044	0.33156
3812.77188	0.32971
3810.84331	0.32321
3808.91475	0.31878
3806.98618	0.32115
3805.05762	0.31960
3803.12905	0.31483
3801.20049	0.32261
3799.27193	0.32870
3797.34336	0.32807
3795.41480	0.32893
3793.48623	0.32743
3791.55767	0.32419
3789.62910	0.32203
3787.70054	0.32093
3785.77197	0.32213
3783.84341	0.32317
3781.91485	0.32116
3779.98628	0.32299
3778.05772	0.32839
3776.12915	0.32799
3774.20059	0.32339
3772.27202	0.31954
3770.34346	0.32119
3768.41489	0.32525
3766.48633	0.32646
3764.55777	0.32593
3762.62920	0.32152
3760.70064	0.31827
3758.77207	0.32302
3756.84351	0.32497
3754.91494	0.31743
3752.98638	0.30797
3751.05781	0.31210
3749.12925	0.32014
3747.20069	0.31398
3745.27212	0.31324
3743.34356	0.32496
3741.41499	0.32536
3739.48643	0.31351
3737.55786	0.29977
3735.62930	0.29999
3733.70074	0.31597
3731.77217	0.32395
3729.84361	0.32119
3727.91504	0.31611
3725.98648	0.31526
3724.05791	0.31838
3722.12935	0.32134
3720.20078	0.32329
3718.27222	0.32240
3716.34366	0.31643
3714.41509	0.30738
3712.48653	0.30677
3710.55796	0.32165
3708.62940	0.32836
3706.70083	0.32382
3704.77227	0.31775
3702.84370	0.31753
3700.91514	0.32280
3698.98658	0.32425
3697.05801	0.32227
3695.12945	0.31956
3693.20088	0.31518
3691.27232	0.31312
3689.34375	0.32379
3687.41519	0.33421
3685.48662	0.33344
3683.55806	0.32934
3681.62950	0.32656
3679.70093	0.32384
3677.77237	0.32015
3675.84380	0.32785
3673.91524	0.33817
3671.98667	0.33747
3670.05811	0.34671
3668.12954	0.35895
3666.20098	0.35882
3664.27242	0.35627
3662.34385	0.35548
3660.41529	0.35423
3658.48672	0.35387
3656.55816	0.35961
3654.62959	0.36214
3652.70103	0.35343
3650.77246	0.34791
3648.84390	0.37104
3646.91534	0.39150
3644.98677	0.39282
3643.05821	0.39098
3641.12964	0.39112
3639.20108	0.39218
3637.27251	0.39334
3635.34395	0.39559
3633.41538	0.39702
3631.48682	0.39591
3629.55826	0.40677
3627.62969	0.42871
3625.70113	0.43082
3623.77256	0.42303
3621.84400	0.41741
3619.91543	0.42230
3617.98687	0.43384
3616.05830	0.43875
3614.12974	0.44261
3612.20118	0.44796
3610.27261	0.45267
3608.34405	0.46223
3606.41548	0.47135
3604.48692	0.47252
3602.55835	0.47301
3600.62979	0.47875
3598.70123	0.48505
3596.77266	0.48879
3594.84410	0.49444
3592.91553	0.50022
3590.98697	0.50105
3589.05840	0.50452
3587.12984	0.51953
3585.20127	0.53030
3583.27271	0.53236
3581.34415	0.53509
3579.41558	0.54032
3577.48702	0.54621
3575.55845	0.55209
3573.62989	0.55570
3571.70132	0.55481
3569.77276	0.55319
3567.84419	0.56197
3565.91563	0.57931
3563.98707	0.58675
3562.05850	0.58924
3560.12994	0.59352
3558.20137	0.59826
3556.27281	0.60216
3554.34424	0.60687
3552.41568	0.61257
3550.48711	0.61535
3548.55855	0.61636
3546.62999	0.62249
3544.70142	0.63365
3542.77286	0.64157
3540.84429	0.64569
3538.91573	0.65116
3536.98716	0.65964
3535.05860	0.66703
3533.13003	0.67118
3531.20147	0.67513
3529.27291	0.68134
3527.34434	0.68936
3525.41578	0.69750
3523.48721	0.70620
3521.55865	0.71433
3519.63008	0.72006
3517.70152	0.72593
3515.77295	0.73317
3513.84439	0.74084
3511.91583	0.74992
3509.98726	0.76051
3508.05870	0.76936
3506.13013	0.77618
3504.20157	0.78549
3502.27300	0.79622
3500.34444	0.80448
3498.41587	0.81308
3496.48731	0.82355
3494.55875	0.83342
3492.63018	0.84134
3490.70162	0.84949
3488.77305	0.85905
3486.84449	0.86680
3484.91592	0.87096
3482.98736	0.87541
3481.05879	0.88191
3479.13023	0.88708
3477.20167	0.89146
3475.27310	0.89628
3473.34454	0.89988
3471.41597	0.90344
3469.48741	0.90927
3467.55884	0.91598
3465.63028	0.92133
3463.70171	0.92663
3461.77315	0.93229
3459.84459	0.93701
3457.91602	0.94219
3455.98746	0.94885
3454.05889	0.95504
3452.13033	0.95907
3450.20176	0.96165
3448.27320	0.96454
3446.34464	0.96815
3444.41607	0.97094
3442.48751	0.97476
3440.55894	0.98117
3438.63038	0.98511
3436.70181	0.98475
3434.77325	0.98482
3432.84468	0.98668
3430.91612	0.98883
3428.98756	0.99170
3427.05899	0.99379
3425.13043	0.99255
3423.20186	0.99053
3421.27330	0.99131
3419.34473	0.99482
3417.41617	0.99744
3415.48760	0.99589
3413.55904	0.99268
3411.63048	0.99219
3409.70191	0.99432
3407.77335	0.99773
3405.84478	1.00201
3403.91622	1.00535
3401.98765	1.00612
3400.05909	1.00506
3398.13052	1.00477
3396.20196	1.00892
3394.27340	1.01605
3392.34483	1.02016
3390.41627	1.02212
3388.48770	1.02623
3386.55914	1.03011
3384.63057	1.03019
3382.70201	1.02913
3380.77344	1.03219
3378.84488	1.03852
3376.91632	1.04175
3374.98775	1.04117
3373.05919	1.04310
3371.13062	1.04908
3369.20206	1.05354
3367.27349	1.05570
3365.34493	1.05956
3363.41636	1.06235
3361.48780	1.06216
3359.55924	1.06392
3357.63067	1.06759
3355.70211	1.06957
3353.77354	1.07080
3351.84498	1.07379
3349.91641	1.07987
3347.98785	1.08680
3346.05928	1.09084
3344.13072	1.09258
3342.20216	1.09332
3340.27359	1.09363
3338.34503	1.09706
3336.41646	1.10496
3334.48790	1.11400
3332.55933	1.12368
3330.63077	1.13403
3328.70220	1.14103
3326.77364	1.14453
3324.84508	1.14823
3322.91651	1.15417
3320.98795	1.16423
3319.05938	1.17630
3317.13082	1.18506
3315.20225	1.18937
3313.27369	1.19333
3311.34513	1.20299
3309.41656	1.21733
3307.48800	1.22617
3305.55943	1.22542
3303.63087	1.22444
3301.70230	1.23082
3299.77374	1.23950
3297.84517	1.24353
3295.91661	1.24548
3293.98805	1.25024
3292.05948	1.25517
3290.13092	1.25529
3288.20235	1.25424
3286.27379	1.25652
3284.34522	1.25813
3282.41666	1.25663
3280.48809	1.25544
3278.55953	1.25461
3276.63097	1.25219
3274.70240	1.25222
3272.77384	1.25719
3270.84527	1.26049
3268.91671	1.25641
3266.98814	1.24628
3265.05958	1.23446
3263.13101	1.22457
3261.20245	1.21685
3259.27389	1.20648
3257.34532	1.19102
3255.41676	1.17723
3253.48819	1.16773
3251.55963	1.15661
3249.63106	1.14379
3247.70250	1.13267
3245.77393	1.12259
3243.84537	1.11391
3241.91681	1.10698
3239.98824	1.09907
3238.05968	1.08944
3236.13111	1.07962
3234.20255	1.06968
3232.27398	1.06018
3230.34542	1.05377
3228.41685	1.05018
3226.48829	1.04626
3224.55973	1.04110
3222.63116	1.03429
3220.70260	1.02672
3218.77403	1.02124
3216.84547	1.01746
3214.91690	1.01309
3212.98834	1.00650
3211.05977	0.99819
3209.13121	0.99131
3207.20265	0.98640
3205.27408	0.98059
3203.34552	0.97336
3201.41695	0.96688
3199.48839	0.96129
3197.55982	0.95625
3195.63126	0.95252
3193.70269	0.94835
3191.77413	0.94252
3189.84557	0.93643
3187.91700	0.93119
3185.98844	0.92745
3184.05987	0.92383
3182.13131	0.91822
3180.20274	0.91144
3178.27418	0.90480
3176.34562	0.89878
3174.41705	0.89349
3172.48849	0.88862
3170.55992	0.88454
3168.63136	0.88118
3166.70279	0.87772
3164.77423	0.87456
3162.84566	0.87208
3160.91710	0.86872
3158.98854	0.86356
3157.05997	0.85838
3155.13141	0.85549
3153.20284	0.85466
3151.27428	0.85329
3149.34571	0.84971
3147.41715	0.84493
3145.48858	0.84140
3143.56002	0.84025
3141.63146	0.83895
3139.70289	0.83586
3137.77433	0.83403
3135.84576	0.83452
3133.91720	0.83395
3131.98863	0.83177
3130.06007	0.83124
3128.13150	0.83270
3126.20294	0.83334
3124.27438	0.83262
3122.34581	0.83193
3120.41725	0.83165
3118.48868	0.83107
3116.56012	0.82981
3114.63155	0.82898
3112.70299	0.82939
3110.77442	0.83021
3108.84586	0.83104
3106.91730	0.83169
3104.98873	0.83159
3103.06017	0.83134
3101.13160	0.83033
3099.20304	0.82719
3097.27447	0.82401
3095.34591	0.82257
3093.41734	0.82161
3091.48878	0.82089
3089.56022	0.82072
3087.63165	0.81977
3085.70309	0.81739
3083.77452	0.81482
3081.84596	0.81307
3079.91739	0.81151
3077.98883	0.80916
3076.06026	0.80682
3074.13170	0.80562
3072.20314	0.80426
3070.27457	0.80077
3068.34601	0.79599
3066.41744	0.79214
3064.48888	0.78934
3062.56031	0.78634
3060.63175	0.78229
3058.70318	0.77754
3056.77462	0.77370
3054.84606	0.77099
3052.91749	0.76842
3050.98893	0.76610
3049.06036	0.76399
3047.13180	0.76109
3045.20323	0.75704
3043.27467	0.75276
3041.34610	0.74937
3039.41754	0.74676
3037.48898	0.74383
3035.56041	0.73997
3033.63185	0.73673
3031.70328	0.73570
3029.77472	0.73440
3027.84615	0.73013
3025.91759	0.72533
3023.98903	0.72195
3022.06046	0.71846
3020.13190	0.71512
3018.20333	0.71307
3016.27477	0.71180
3014.34620	0.71076
3012.41764	0.70924
3010.48907	0.70691
3008.56051	0.70467
3006.63195	0.70231
3004.70338	0.69924
3002.77482	0.69656
3000.84625	0.69537
2998.91769	0.69592
2996.98912	0.69759
2995.06056	0.69928
2993.13199	0.70134
2991.20343	0.70498
2989.27487	0.71054
2987.34630	0.71744
2985.41774	0.72415
2983.48917	0.72928
2981.56061	0.73363
2979.63204	0.73966
2977.70348	0.74821
2975.77491	0.75778
2973.84635	0.76715
2971.91779	0.77588
2969.98922	0.78389
2968.06066	0.79234
2966.13209	0.80100
2964.20353	0.80747
2962.27496	0.81158
2960.34640	0.81370
2958.41783	0.81196
2956.48927	0.80645
2954.56071	0.79956
2952.63214	0.79349
2950.70358	0.78919
2948.77501	0.78602
2946.84645	0.78427
2944.91788	0.78674
2942.98932	0.79492
2941.06075	0.80636
2939.13219	0.81839
2937.20363	0.83112
2935.27506	0.84466
2933.34650	0.85730
2931.41793	0.86777
2929.48937	0.87669
2927.56080	0.88593
2925.63224	0.89597
2923.70367	0.90429
2921.77511	0.90907
2919.84655	0.91025
2917.91798	0.90487
2915.98942	0.88870
2914.06085	0.86384
2912.13229	0.83826
2910.20372	0.81725
2908.27516	0.80082
2906.34659	0.78726
2904.41803	0.77589
2902.48947	0.76745
2900.56090	0.76209
2898.63234	0.75824
2896.70377	0.75450
2894.77521	0.75096
2892.84664	0.74765
2890.91808	0.74430
2888.98952	0.74139
2887.06095	0.73892
2885.13239	0.73681
2883.20382	0.73587
2881.27526	0.73649
2879.34669	0.73786
2877.41813	0.73889
2875.48956	0.73886
2873.56100	0.73708
2871.63244	0.73324
2869.70387	0.72743
2867.77531	0.72039
2865.84674	0.71443
2863.91818	0.71177
2861.98961	0.71252
2860.06105	0.71550
2858.13248	0.72013
2856.20392	0.72701
2854.27536	0.73650
2852.34679	0.74586
2850.41823	0.74791
2848.48966	0.73555
2846.56110	0.71057
2844.63253	0.68362
2842.70397	0.66174
2840.77540	0.64514
2838.84684	0.63335
2836.91828	0.62528
2834.98971	0.61896
2833.06115	0.61360
2831.13258	0.60872
2829.20402	0.60422
2827.27545	0.60021
2825.34689	0.59609
2823.41832	0.59207
2821.48976	0.58915
2819.56120	0.58682
2817.63263	0.58400
2815.70407	0.58083
2813.77550	0.57777
2811.84694	0.57481
2809.91837	0.57194
2807.98981	0.56951
2806.06124	0.56769
2804.13268	0.56637
2802.20412	0.56522
2800.27555	0.56371
2798.34699	0.56199
2796.41842	0.56084
2794.48986	0.55992
2792.56129	0.55845
2790.63273	0.55666
2788.70416	0.55491
2786.77560	0.55317
2784.84704	0.55131
2782.91847	0.54937
2780.98991	0.54765
2779.06134	0.54630
2777.13278	0.54515
2775.20421	0.54379
2773.27565	0.54191
2771.34708	0.53952
2769.41852	0.53708
2767.48996	0.53525
2765.56139	0.53370
2763.63283	0.53177
2761.70426	0.52970
2759.77570	0.52783
2757.84713	0.52599
2755.91857	0.52432
2753.99001	0.52309
2752.06144	0.52181
2750.13288	0.52004
2748.20431	0.51831
2746.27575	0.51712
2744.34718	0.51602
2742.41862	0.51459
2740.49005	0.51311
2738.56149	0.51167
2736.63293	0.51048
2734.70436	0.50976
2732.77580	0.50885
2730.84723	0.50726
2728.91867	0.50524
2726.99010	0.50298
2725.06154	0.50083
2723.13297	0.49919
2721.20441	0.49788
2719.27585	0.49657
2717.34728	0.49553
2715.41872	0.49499
2713.49015	0.49431
2711.56159	0.49304
2709.63302	0.49217
2707.70446	0.49232
2705.77589	0.49238
2703.84733	0.49165
2701.91877	0.49092
2699.99020	0.49072
2698.06164	0.49061
2696.13307	0.49024
2694.20451	0.48958
2692.27594	0.48860
2690.34738	0.48750
2688.41881	0.48645
2686.49025	0.48531
2684.56169	0.48356
2682.63312	0.48123
2680.70456	0.47912
2678.77599	0.47748
2676.84743	0.47621
2674.91886	0.47528
2672.99030	0.47426
2671.06173	0.47296
2669.13317	0.47157
2667.20461	0.47010
2665.27604	0.46868
2663.34748	0.46744
2661.41891	0.46636
2659.49035	0.46555
2657.56178	0.46488
2655.63322	0.46418
2653.70465	0.46350
2651.77609	0.46287
2649.84753	0.46250
2647.91896	0.46222
2645.99040	0.46160
2644.06183	0.46072
2642.13327	0.45977
2640.20470	0.45909
2638.27614	0.45878
2636.34757	0.45820
2634.41901	0.45717
2632.49045	0.45627
2630.56188	0.45554
2628.63332	0.45452
2626.70475	0.45327
2624.77619	0.45226
2622.84762	0.45171
2620.91906	0.45128
2618.99049	0.45048
2617.06193	0.44921
2615.13337	0.44790
2613.20480	0.44704
2611.27624	0.44665
2609.34767	0.44650
2607.41911	0.44628
2605.49054	0.44587
2603.56198	0.44535
2601.63342	0.44485
2599.70485	0.44451
2597.77629	0.44401
2595.84772	0.44291
2593.91916	0.44152
2591.99059	0.44044
2590.06203	0.43936
2588.13346	0.43771
2586.20490	0.43562
2584.27634	0.43351
2582.34777	0.43181
2580.41921	0.43046
2578.49064	0.42886
2576.56208	0.42688
2574.63351	0.42493
2572.70495	0.42308
2570.77638	0.42151
2568.84782	0.42068
2566.91926	0.42035
2564.99069	0.41989
2563.06213	0.41930
2561.13356	0.41869
2559.20500	0.41782
2557.27643	0.41667
2555.34787	0.41575
2553.41930	0.41538
2551.49074	0.41534
2549.56218	0.41538
2547.63361	0.41528
2545.70505	0.41498
2543.77648	0.41486
2541.84792	0.41491
2539.91935	0.41453
2537.99079	0.41373
2536.06222	0.41309
2534.13366	0.41264
2532.20510	0.41198
2530.27653	0.41120
2528.34797	0.41059
2526.41940	0.40992
2524.49084	0.40879
2522.56227	0.40731
2520.63371	0.40603
2518.70514	0.40511
2516.77658	0.40420
2514.84802	0.40318
2512.91945	0.40221
2510.99089	0.40139
2509.06232	0.40067
2507.13376	0.39980
2505.20519	0.39873
2503.27663	0.39758
2501.34806	0.39640
2499.41950	0.39558
2497.49094	0.39511
2495.56237	0.39425
2493.63381	0.39269
2491.70524	0.39102
2489.77668	0.38980
2487.84811	0.38874
2485.91955	0.38743
2483.99098	0.38600
2482.06242	0.38463
2480.13386	0.38325
2478.20529	0.38204
2476.27673	0.38098
2474.34816	0.37985
2472.41960	0.37882
2470.49103	0.37807
2468.56247	0.37738
2466.63391	0.37660
2464.70534	0.37580
2462.77678	0.37507
2460.84821	0.37451
2458.91965	0.37417
2456.99108	0.37391
2455.06252	0.37360
2453.13395	0.37313
2451.20539	0.37253
2449.27683	0.37192
2447.34826	0.37139
2445.41970	0.37097
2443.49113	0.37042
2441.56257	0.36968
2439.63400	0.36914
2437.70544	0.36870
2435.77687	0.36805
2433.84831	0.36737
2431.91975	0.36664
2429.99118	0.36574
2428.06262	0.36479
2426.13405	0.36391
2424.20549	0.36302
2422.27692	0.36206
2420.34836	0.36108
2418.41979	0.36001
2416.49123	0.35880
2414.56267	0.35768
2412.63410	0.35665
2410.70554	0.35558
2408.77697	0.35449
2406.84841	0.35324
2404.91984	0.35195
2402.99128	0.35087
2401.06271	0.34994
2399.13415	0.34896
2397.20559	0.34785
2395.27702	0.34676
2393.34846	0.34589
2391.41989	0.34523
2389.49133	0.34458
2387.56276	0.34384
2385.63420	0.34315
2383.70563	0.34279
2381.77707	0.34306
2379.84851	0.34428
2377.91994	0.34647
2375.99138	0.34937
2374.06281	0.35273
2372.13425	0.35615
2370.20568	0.35958
2368.27712	0.36346
2366.34855	0.36752
2364.41999	0.37063
2362.49143	0.37276
2360.56286	0.37380
2358.63430	0.37308
2356.70573	0.37153
2354.77717	0.36951
2352.84860	0.36621
2350.92004	0.36083
2348.99147	0.35517
2347.06291	0.35276
2345.13435	0.35599
2343.20578	0.36156
2341.27722	0.36356
2339.34865	0.36145
2337.42009	0.35841
2335.49152	0.35723
2333.56296	0.35740
2331.63440	0.35746
2329.70583	0.35664
2327.77727	0.35488
2325.84870	0.35297
2323.92014	0.35137
2321.99157	0.34954
2320.06301	0.34719
2318.13444	0.34484
2316.20588	0.34274
2314.27732	0.34094
2312.34875	0.33950
2310.42019	0.33823
2308.49162	0.33683
2306.56306	0.33514
2304.63449	0.33312
2302.70593	0.33143
2300.77736	0.33048
2298.84880	0.32950
2296.92024	0.32795
2294.99167	0.32623
2293.06311	0.32495
2291.13454	0.32432
2289.20598	0.32400
2287.27741	0.32351
2285.34885	0.32272
2283.42028	0.32197
2281.49172	0.32152
2279.56316	0.32132
2277.63459	0.32144
2275.70603	0.32186
2273.77746	0.32203
2271.84890	0.32174
2269.92033	0.32140
2267.99177	0.32126
2266.06320	0.32100
2264.13464	0.32052
2262.20608	0.32017
2260.27751	0.31999
2258.34895	0.31965
2256.42038	0.31910
2254.49182	0.31847
2252.56325	0.31793
2250.63469	0.31746
2248.70612	0.31669
2246.77756	0.31558
2244.84900	0.31458
2242.92043	0.31398
2240.99187	0.31354
2239.06330	0.31305
2237.13474	0.31272
2235.20617	0.31252
2233.27761	0.31216
2231.34904	0.31173
2229.42048	0.31133
2227.49192	0.31095
2225.56335	0.31062
2223.63479	0.31037
2221.70622	0.31029
2219.77766	0.31014
2217.84909	0.30974
2215.92053	0.30942
2213.99196	0.30928
2212.06340	0.30912
2210.13484	0.30897
2208.20627	0.30893
2206.27771	0.30890
2204.34914	0.30892
2202.42058	0.30904
2200.49201	0.30902
2198.56345	0.30887
2196.63488	0.30900
2194.70632	0.30929
2192.77776	0.30927
2190.84919	0.30908
2188.92063	0.30914
2186.99206	0.30928
2185.06350	0.30917
2183.13493	0.30896
2181.20637	0.30893
2179.27781	0.30894
2177.34924	0.30877
2175.42068	0.30845
2173.49211	0.30830
2171.56355	0.30838
2169.63498	0.30833
2167.70642	0.30797
2165.77785	0.30741
2163.84929	0.30677
2161.92073	0.30618
2159.99216	0.30563
2158.06360	0.30507
2156.13503	0.30467
2154.20647	0.30435
2152.27790	0.30378
2150.34934	0.30297
2148.42077	0.30220
2146.49221	0.30155
2144.56365	0.30099
2142.63508	0.30055
2140.70652	0.30016
2138.77795	0.29960
2136.84939	0.29898
2134.92082	0.29847
2132.99226	0.29803
2131.06369	0.29759
2129.13513	0.29724
2127.20657	0.29718
2125.27800	0.29720
2123.34944	0.29695
2121.42087	0.29663
2119.49231	0.29644
2117.56374	0.29626
2115.63518	0.29623
2113.70661	0.29652
2111.77805	0.29666
2109.84949	0.29640
2107.92092	0.29615
2105.99236	0.29607
2104.06379	0.29597
2102.13523	0.29572
2100.20666	0.29540
2098.27810	0.29505
2096.34953	0.29466
2094.42097	0.29431
2092.49241	0.29400
2090.56384	0.29360
2088.63528	0.29309
2086.70671	0.29266
2084.77815	0.29245
2082.84958	0.29220
2080.92102	0.29168
2078.99245	0.29124
2077.06389	0.29105
2075.13533	0.29075
2073.20676	0.29021
2071.27820	0.28965
2069.34963	0.28904
2067.42107	0.28830
2065.49250	0.28773
2063.56394	0.28733
2061.63537	0.28686
2059.70681	0.28638
2057.77825	0.28587
2055.84968	0.28525
2053.92112	0.28459
2051.99255	0.28403
2050.06399	0.28371
2048.13542	0.28349
2046.20686	0.28330
2044.27830	0.28322
2042.34973	0.28323
2040.42117	0.28316
2038.49260	0.28308
2036.56404	0.28324
2034.63547	0.28353
2032.70691	0.28366
2030.77834	0.28362
2028.84978	0.28338
2026.92122	0.28293
2024.99265	0.28241
2023.06409	0.28187
2021.13552	0.28118
2019.20696	0.28049
2017.27839	0.28000
2015.34983	0.27936
2013.42126	0.27833
2011.49270	0.27725
2009.56414	0.27624
2007.63557	0.27528
2005.70701	0.27434
2003.77844	0.27323
2001.84988	0.27213
1999.92131	0.27146
1997.99275	0.27115
1996.06418	0.27072
1994.13562	0.27027
1992.20706	0.27015
1990.27849	0.26974
1988.34993	0.26867
1986.42136	0.26743
1984.49280	0.26635
1982.56423	0.26559
1980.63567	0.26510
1978.70710	0.26464
1976.77854	0.26414
1974.84998	0.26358
1972.92141	0.26304
1970.99285	0.26253
1969.06428	0.26241
1967.13572	0.26284
1965.20715	0.26301
1963.27859	0.26262
1961.35002	0.26235
1959.42146	0.26217
1957.49290	0.26205
1955.56433	0.26231
1953.63577	0.26262
1951.70720	0.26260
1949.77864	0.26243
1947.85007	0.26229
1945.92151	0.26221
1943.99294	0.26259
1942.06438	0.26328
1940.13582	0.26306
1938.20725	0.26224
1936.27869	0.26187
1934.35012	0.26196
1932.42156	0.26212
1930.49299	0.26207
1928.56443	0.26179
1926.63586	0.26127
1924.70730	0.26105
1922.77874	0.26129
1920.85017	0.26095
1918.92161	0.26064
1916.99304	0.26058
1915.06448	0.25930
1913.13591	0.25750
1911.20735	0.25643
1909.27878	0.25567
1907.35022	0.25429
1905.42166	0.25252
1903.49309	0.25107
1901.56453	0.24983
1899.63596	0.24849
1897.70740	0.24738
1895.77883	0.24684
1893.85027	0.24609
1891.92171	0.24494
1889.99314	0.24461
1888.06458	0.24450
1886.13601	0.24359
1884.20745	0.24271
1882.27888	0.24220
1880.35032	0.24188
1878.42175	0.24170
1876.49319	0.24140
1874.56463	0.24081
1872.63606	0.24026
1870.70750	0.24107
1868.77893	0.24386
1866.85037	0.24504
1864.92180	0.24357
1862.99324	0.24236
1861.06467	0.24229
1859.13611	0.24268
1857.20755	0.24304
1855.27898	0.24339
1853.35042	0.24385
1851.42185	0.24438
1849.49329	0.24512
1847.56472	0.24603
1845.63616	0.24784
1843.70759	0.25047
1841.77903	0.25059
1839.85047	0.24893
1837.92190	0.24823
1835.99334	0.24836
1834.06477	0.24772
1832.13621	0.24725
1830.20764	0.24844
1828.27908	0.24880
1826.35051	0.24737
1824.42195	0.24612
1822.49339	0.24448
1820.56482	0.24241
1818.63626	0.24118
1816.70769	0.24056
1814.77913	0.23971
1812.85056	0.23912
1810.92200	0.23933
1808.99343	0.23895
1807.06487	0.23739
1805.13631	0.23591
1803.20774	0.23551
1801.27918	0.23636
1799.35061	0.23691
1797.42205	0.23595
1795.49348	0.23450
1793.56492	0.23448
1791.63635	0.23607
1789.70779	0.23531
1787.77923	0.23307
1785.85066	0.23224
1783.92210	0.23276
1781.99353	0.23360
1780.06497	0.23460
1778.13640	0.23490
1776.20784	0.23455
1774.27927	0.23587
1772.35071	0.24044
1770.42215	0.24364
1768.49358	0.24395
1766.56502	0.24389
1764.63645	0.24415
1762.70789	0.24671
1760.77932	0.25115
1758.85076	0.25462
1756.92220	0.25901
1754.99363	0.26337
1753.06507	0.26712
1751.13650	0.27503
1749.20794	0.28705
1747.27937	0.29552
1745.35081	0.30030
1743.42224	0.30423
1741.49368	0.30830
1739.56512	0.31209
1737.63655	0.31324
1735.70799	0.31360
1733.77942	0.31806
1731.85086	0.32077
1729.92229	0.31964
1727.99373	0.31884
1726.06516	0.31948
1724.13660	0.32250
1722.20804	0.32601
1720.27947	0.32914
1718.35091	0.33750
1716.42234	0.35384
1714.49378	0.36447
1712.56521	0.37088
1710.63665	0.37944
1708.70808	0.39183
1706.77952	0.41262
1704.85096	0.44073
1702.92239	0.46526
1700.99383	0.50107
1699.06526	0.55985
1697.13670	0.61443
1695.20813	0.66698
1693.27957	0.70547
1691.35100	0.73709
1689.42244	0.77824
1687.49388	0.81760
1685.56531	0.85874
1683.63675	0.92755
1681.70818	0.97949
1679.77962	1.00931
1677.85105	1.03810
1675.92249	1.07502
1673.99392	1.11790
1672.06536	1.15221
1670.13680	1.19031
1668.20823	1.23429
1666.27967	1.26117
1664.35110	1.28557
1662.42254	1.31969
1660.49397	1.34783
1658.56541	1.36429
1656.63684	1.37573
1654.70828	1.38971
1652.77972	1.40959
1650.85115	1.41362
1648.92259	1.41063
1646.99402	1.41015
1645.06546	1.40901
1643.13689	1.40381
1641.20833	1.40007
1639.27976	1.39659
1637.35120	1.39208
1635.42264	1.38960
1633.49407	1.38720
1631.56551	1.38189
1629.63694	1.37234
1627.70838	1.35905
1625.77981	1.34221
1623.85125	1.31715
1621.92269	1.28502
1619.99412	1.25667
1618.06556	1.22087
1616.13699	1.16338
1614.20843	1.11346
1612.27986	1.07519
1610.35130	1.03666
1608.42273	0.99753
1606.49417	0.96385
1604.56561	0.93784
1602.63704	0.91726
1600.70848	0.90137
1598.77991	0.88975
1596.85135	0.88153
1594.92278	0.87594
1592.99422	0.87215
1591.06565	0.87035
1589.13709	0.87178
1587.20853	0.87693
1585.27996	0.88549
1583.35140	0.89728
1581.42283	0.91033
1579.49427	0.92296
1577.56570	0.94066
1575.63714	0.96736
1573.70857	0.98480
1571.78001	0.99697
1569.85145	1.02001
1567.92288	1.04728
1565.99432	1.06713
1564.06575	1.08503
1562.13719	1.09881
1560.20862	1.11792
1558.28006	1.16669
1556.35149	1.19224
1554.42293	1.20137
1552.49437	1.20932
1550.56580	1.21532
1548.63724	1.21953
1546.70867	1.22224
1544.78011	1.22359
1542.85154	1.22227
1540.92298	1.22017
1538.99441	1.21392
1537.06585	1.20512
1535.13729	1.19584
1533.20872	1.18447
1531.28016	1.17282
1529.35159	1.16384
1527.42303	1.15699
1525.49446	1.15050
1523.56590	1.14352
1521.63733	1.13624
1519.70877	1.13171
1517.78021	1.12617
1515.85164	1.11415
1513.92308	1.09636
1511.99451	1.07548
1510.06595	1.05363
1508.13738	1.01925
1506.20882	0.96179
1504.28025	0.92903
1502.35169	0.90722
1500.42313	0.88292
1498.49456	0.85284
1496.56600	0.81802
1494.63743	0.79024
1492.70887	0.77088
1490.78030	0.75135
1488.85174	0.72832
1486.92317	0.70967
1484.99461	0.69687
1483.06605	0.68836
1481.13748	0.68365
1479.20892	0.68251
1477.28035	0.68574
1475.35179	0.69545
1473.42322	0.71550
1471.49466	0.73775
1469.56610	0.74865
1467.63753	0.75563
1465.70897	0.76634
1463.78040	0.77842
1461.85184	0.78457
1459.92327	0.78855
1457.99471	0.80013
1456.06614	0.81512
1454.13758	0.81731
1452.20902	0.81580
1450.28045	0.81509
1448.35189	0.81475
1446.42332	0.81253
1444.49476	0.80840
1442.56619	0.80351
1440.63763	0.79780
1438.70906	0.79120
1436.78050	0.78311
1434.85194	0.77311
1432.92337	0.76327
1430.99481	0.75417
1429.06624	0.74593
1427.13768	0.73971
1425.20911	0.73633
1423.28055	0.73511
1421.35198	0.73495
1419.42342	0.73750
1417.49486	0.74076
1415.56629	0.74025
1413.63773	0.73857
1411.70916	0.73740
1409.78060	0.73645
1407.85203	0.73601
1405.92347	0.73708
1403.99490	0.73866
1402.06634	0.73901
1400.13778	0.73952
1398.20921	0.74106
1396.28065	0.74242
1394.35208	0.74287
1392.42352	0.74268
1390.49495	0.74359
1388.56639	0.74875
1386.63782	0.75904
1384.70926	0.76935
1382.78070	0.77794
1380.85213	0.78528
1378.92357	0.78929
1376.99500	0.78812
1375.06644	0.78130
1373.13787	0.76982
1371.20931	0.75673
1369.28074	0.74156
1367.35218	0.72420
1365.42362	0.70815
1363.49505	0.69395
1361.56649	0.68141
1359.63792	0.67220
1357.70936	0.66599
1355.78079	0.66173
1353.85223	0.65871
1351.92366	0.65635
1349.99510	0.65452
1348.06654	0.65332
1346.13797	0.65262
1344.20941	0.65233
1342.28084	0.65282
1340.35228	0.65489
1338.42371	0.65785
1336.49515	0.66040
1334.56659	0.66397
1332.63802	0.66991
1330.70946	0.67756
1328.78089	0.68507
1326.85233	0.69104
1324.92376	0.69519
1322.99520	0.69835
1321.06663	0.70184
1319.13807	0.70600
1317.20951	0.70981
1315.28094	0.71278
1313.35238	0.71525
1311.42381	0.71691
1309.49525	0.71752
1307.56668	0.71720
1305.63812	0.71606
1303.70955	0.71435
1301.78099	0.71161
1299.85243	0.70731
1297.92386	0.70186
1295.99530	0.69613
1294.06673	0.69112
1292.13817	0.68760
1290.20960	0.68558
1288.28104	0.68463
1286.35247	0.68420
1284.42391	0.68380
1282.49535	0.68360
1280.56678	0.68391
1278.63822	0.68473
1276.70965	0.68652
1274.78109	0.69002
1272.85252	0.69523
1270.92396	0.70171
1268.99539	0.70923
1267.06683	0.71740
1265.13827	0.72519
1263.20970	0.73143
1261.28114	0.73567
1259.35257	0.73836
1257.42401	0.74029
1255.49544	0.74232
1253.56688	0.74465
1251.63831	0.74680
1249.70975	0.74860
1247.78119	0.74989
1245.85262	0.75052
1243.92406	0.75045
1241.99549	0.74950
1240.06693	0.74770
1238.13836	0.74518
1236.20980	0.74164
1234.28123	0.73678
1232.35267	0.73079
1230.42411	0.72387
1228.49554	0.71602
1226.56698	0.70775
1224.63841	0.69948
1222.70985	0.69093
1220.78128	0.68228
1218.85272	0.67440
1216.92415	0.66788
1214.99559	0.66335
1213.06703	0.66133
1211.13846	0.66147
1209.20990	0.66279
1207.28133	0.66375
1205.35277	0.66235
1203.42420	0.65734
1201.49564	0.64949
1199.56708	0.64051
1197.63851	0.63137
1195.70995	0.62242
1193.78138	0.61402
1191.85282	0.60668
1189.92425	0.60080
1187.99569	0.59633
1186.06712	0.59304
1184.13856	0.59099
1182.21000	0.59057
1180.28143	0.59218
1178.35287	0.59630
1176.42430	0.60276
1174.49574	0.61049
1172.56717	0.61892
1170.63861	0.62895
1168.71004	0.64179
1166.78148	0.65740
1164.85292	0.67481
1162.92435	0.69209
1160.99579	0.70626
1159.06722	0.71482
1157.13866	0.71701
1155.21009	0.71336
1153.28153	0.70515
1151.35296	0.69429
1149.42440	0.68206
1147.49584	0.66935
1145.56727	0.65816
1143.63871	0.65032
1141.71014	0.64609
1139.78158	0.64498
1137.85301	0.64642
1135.92445	0.64993
1133.99588	0.65550
1132.06732	0.66341
1130.13876	0.67398
1128.21019	0.68700
1126.28163	0.70140
1124.35306	0.71588
1122.42450	0.72938
1120.49593	0.74124
1118.56737	0.75124
1116.63880	0.75875
1114.71024	0.76247
1112.78168	0.76261
1110.85311	0.76115
1108.92455	0.75922
1106.99598	0.75704
1105.06742	0.75520
1103.13885	0.75398
1101.21029	0.75397
1099.28172	0.75648
1097.35316	0.76196
1095.42460	0.77009
1093.49603	0.78074
1091.56747	0.79364
1089.63890	0.80861
1087.71034	0.82570
1085.78177	0.84469
1083.85321	0.86437
1081.92464	0.88174
1079.99608	0.89330
1078.06752	0.89817
1076.13895	0.89746
1074.21039	0.89094
1072.28182	0.87862
1070.35326	0.86327
1068.42469	0.84794
1066.49613	0.83401
1064.56756	0.82163
1062.63900	0.81012
1060.71044	0.79900
1058.78187	0.78881
1056.85331	0.78001
1054.92474	0.77268
1052.99618	0.76756
1051.06761	0.76474
1049.13905	0.76349
1047.21049	0.76462
1045.28192	0.76930
1043.35336	0.77682
1041.42479	0.78550
1039.49623	0.79371
1037.56766	0.79994
1035.63910	0.80370
1033.71053	0.80543
1031.78197	0.80487
1029.85341	0.80117
1027.92484	0.79416
1025.99628	0.78450
1024.06771	0.77349
1022.13915	0.76264
1020.21058	0.75316
1018.28202	0.74526
1016.35345	0.73791
1014.42489	0.73004
1012.49633	0.72008
1010.56776	0.70635
1008.63920	0.68980
1006.71063	0.67304
1004.78207	0.65763
1002.85350	0.64411
1000.92494	0.63294
998.99637	0.62442
997.06781	0.61832
995.13925	0.61367
993.21068	0.60914
991.28212	0.60366
989.35355	0.59701
987.42499	0.58943
985.49642	0.58164
983.56786	0.57450
981.63929	0.56844
979.71073	0.56334
977.78217	0.55847
975.85360	0.55299
973.92504	0.54625
971.99647	0.53749
970.06791	0.52702
968.13934	0.51671
966.21078	0.50788
964.28221	0.50062
962.35365	0.49586
960.42509	0.49574
958.49652	0.50107
956.56796	0.50899
954.63939	0.51460
952.71083	0.51529
950.78226	0.51178
948.85370	0.50606
946.92513	0.50011
944.99657	0.49552
943.06801	0.49265
941.13944	0.49091
939.21088	0.48980
937.28231	0.48916
935.35375	0.48890
933.42518	0.48902
931.49662	0.48953
929.56805	0.49040
927.63949	0.49165
925.71093	0.49320
923.78236	0.49467
921.85380	0.49563
919.92523	0.49583
917.99667	0.49521
916.06810	0.49413
914.13954	0.49319
912.21098	0.49287
910.28241	0.49353
908.35385	0.49543
906.42528	0.49872
904.49672	0.50293
902.56815	0.50708
900.63959	0.51071
898.71102	0.51384
896.78246	0.51621
894.85390	0.51769
892.92533	0.51823
890.99677	0.51782
889.06820	0.51702
887.13964	0.51614
885.21107	0.51503
883.28251	0.51385
881.35394	0.51277
879.42538	0.51186
877.49682	0.51085
875.56825	0.50963
873.63969	0.50874
871.71112	0.50829
869.78256	0.50758
867.85399	0.50672
865.92543	0.50680
863.99686	0.50804
862.06830	0.50978
860.13974	0.51196
858.21117	0.51498
856.28261	0.51865
854.35404	0.52243
852.42548	0.52586
850.49691	0.52900
848.56835	0.53240
846.63978	0.53620
844.71122	0.54010
842.78266	0.54403
840.85409	0.54827
838.92553	0.55288
836.99696	0.55735
835.06840	0.56120
833.13983	0.56442
831.21127	0.56730
829.28270	0.57004
827.35414	0.57200
825.42558	0.57319
823.49701	0.57419
821.56845	0.57450
819.63988	0.57400
817.71132	0.57359
815.78275	0.57342
813.85419	0.57290
811.92562	0.57197
809.99706	0.57120
808.06850	0.57101
806.13993	0.57122
804.21137	0.57133
802.28280	0.57119
800.35424	0.57109
798.42567	0.57116
796.49711	0.57147
794.56854	0.57241
792.63998	0.57391
790.71142	0.57523
788.78285	0.57622
786.85429	0.57761
784.92572	0.57987
782.99716	0.58264
781.06859	0.58551
779.14003	0.58800
777.21147	0.58971
775.28290	0.59138
773.35434	0.59363
771.42577	0.59602
769.49721	0.59812
767.56864	0.59992
765.64008	0.60182
763.71151	0.60374
761.78295	0.60520
759.85439	0.60641
757.92582	0.60774
755.99726	0.60908
754.06869	0.61042
752.14013	0.61183
750.21156	0.61321
748.28300	0.61458
746.35443	0.61609
744.42587	0.61768
742.49731	0.61871
740.56874	0.61894
738.64018	0.61936
736.71161	0.62045
734.78305	0.62150
732.85448	0.62289
730.92592	0.62543
728.99735	0.62799
727.06879	0.62966
725.14023	0.63132
723.21166	0.63392
721.28310	0.63767
719.35453	0.64104
717.42597	0.64216
715.49740	0.64247
713.56884	0.64433
711.64027	0.64765
709.71171	0.65115
707.78315	0.65445
705.85458	0.65736
703.92602	0.65918
701.99745	0.65971
700.06889	0.65968
698.14032	0.65962
696.21176	0.65903
694.28319	0.65741
692.35463	0.65506
690.42607	0.65211
688.49750	0.64866
686.56894	0.64552
684.64037	0.64306
682.71181	0.64016
680.78324	0.63607
678.85468	0.63205
676.92611	0.62942
674.99755	0.62776
673.06899	0.62665
671.14042	0.62666
669.21186	0.62794
667.28329	0.62827
665.35473	0.62783
663.42616	0.62902
661.49760	0.63153
659.56903	0.63369
657.64047	0.63551
655.71191	0.63805
653.78334	0.64090
651.85478	0.64352
649.92621	0.64611
647.99765	0.64909
646.06908	0.65294
644.14052	0.65738
642.21195	0.66214
640.28339	0.66748
638.35483	0.67245
636.42626	0.67537
634.49770	0.67511
632.56913	0.67201
630.64057	0.66842
628.71200	0.66582
626.78344	0.66341
624.85488	0.66090
622.92631	0.65921
620.99775	0.65821
619.06918	0.65717
617.14062	0.65701
615.21205	0.65854
613.28349	0.66009
611.35492	0.66125
609.42636	0.66306
607.49780	0.66446
605.56923	0.66492
603.64067	0.66575
601.71210	0.66747
599.78354	0.66968
