3997.91406	1.03172
3995.98550	1.03014
3994.05693	1.02704
3992.12837	1.02425
3990.19980	1.02338
3988.27124	1.02562
3986.34268	1.02670
3984.41411	1.02464
3982.48555	1.02287
3980.55698	1.02169
3978.62842	1.01957
3976.69985	1.01699
3974.77129	1.01539
3972.84272	1.01461
3970.91416	1.01459
3968.98560	1.01509
3967.05703	1.01494
3965.12847	1.01683
3963.19990	1.02027
3961.27134	1.01822
3959.34277	1.01013
3957.41421	1.00245
3955.48564	0.99856
3953.55708	0.99794
3951.62852	0.99991
3949.69995	1.00517
3947.77139	1.00840
3945.84282	1.00446
3943.91426	1.00241
3941.98569	1.00667
3940.05713	1.00804
3938.12856	1.00435
3936.20000	0.99979
3934.27144	0.99924
3932.34287	1.00250
3930.41431	1.00252
3928.48574	1.00031
3926.55718	1.00050
3924.62861	1.00215
3922.70005	0.99924
3920.77148	0.99107
3918.84292	0.98521
3916.91436	0.98589
3914.98579	0.98547
3913.05723	0.98046
3911.12866	0.97666
3909.20010	0.97525
3907.27153	0.97637
3905.34297	0.98421
3903.41440	0.98986
3901.48584	0.98849
3899.55728	0.99152
3897.62871	0.98907
3895.70015	0.97737
3893.77158	0.96936
3891.84302	0.97496
3889.91445	0.97929
3887.98589	0.97484
3886.05733	0.97574
3884.12876	0.97947
3882.20020	0.97642
3880.27163	0.97061
3878.34307	0.95983
3876.41450	0.94911
3874.48594	0.94766
3872.55737	0.95579
3870.62881	0.96993
3868.70025	0.97506
3866.77168	0.96415
3864.84312	0.95866
3862.91455	0.96723
3860.98599	0.96918
3859.05742	0.96162
3857.12886	0.95194
3855.20029	0.94328
3853.27173	0.95282
3851.34317	0.96702
3849.41460	0.96294
3847.48604	0.95323
3845.55747	0.94678
3843.62891	0.94393
3841.70034	0.94188
3839.77178	0.94689
3837.84321	0.95837
3835.91465	0.95652
3833.98609	0.94745
3832.05752	0.94566
3830.12896	0.94753
3828.20039	0.94716
3826.27183	0.94634
3824.34326	0.94153
3822.41470	0.93774
3820.48613	0.94623
3818.55757	0.95075
3816.62901	0.95049
3814.70044	0.94842
3812.77188	0.94018
3810.84331	0.92975
3808.91475	0.92382
3806.98618	0.92859
3805.05762	0.92965
3803.12905	0.92195
3801.20049	0.92395
3799.27193	0.92869
3797.34336	0.92703
3795.41480	0.92547
3793.48623	0.92374
3791.55767	0.92175
3789.62910	0.92098
3787.70054	0.92249
3785.77197	0.92640
3783.84341	0.92612
3781.91485	0.91805
3779.98628	0.91242
3778.05772	0.91661
3776.12915	0.91980
3774.20059	0.91552
3772.27202	0.91032
3770.34346	0.91396
3768.41489	0.92237
3766.48633	0.92671
3764.55777	0.92561
3762.62920	0.91723
3760.70064	0.90799
3758.77207	0.90656
3756.84351	0.90793
3754.91494	0.90558
3752.98638	0.90207
3751.05781	0.90565
3749.12925	0.90970
3747.20069	0.90604
3745.27212	0.91024
3743.34356	0.91906
3741.41499	0.91178
3739.48643	0.89533
3737.55786	0.88197
3735.62930	0.88619
3733.70074	0.90096
3731.77217	0.90272
3729.84361	0.89672
3727.91504	0.89230
3725.98648	0.89292
3724.05791	0.89579
3722.12935	0.89908
3720.20078	0.90315
3718.27222	0.90343
3716.34366	0.89693
3714.41509	0.88807
3712.48653	0.88793
3710.55796	0.90017
3708.62940	0.90645
3706.70083	0.90511
3704.77227	0.90197
3702.84370	0.90118
3700.91514	0.90180
3698.98658	0.90074
3697.05801	0.89995
3695.12945	0.89752
3693.20088	0.89195
3691.27232	0.89157
3689.34375	0.90379
3687.41519	0.91080
3685.48662	0.90940
3683.55806	0.90810
3681.62950	0.90787
3679.70093	0.90561
3677.77237	0.90209
3675.84380	0.90967
3673.91524	0.91888
3671.98667	0.91863
3670.05811	0.92477
3668.12954	0.93056
3666.20098	0.92875
3664.27242	0.92865
3662.34385	0.93182
3660.41529	0.93423
3658.48672	0.93758
3656.55816	0.94698
3654.62959	0.95123
3652.70103	0.94435
3650.77246	0.94419
3648.84390	0.97071
3646.91534	0.98668
3644.98677	0.98682
3643.05821	0.98914
3641.12964	0.99715
3639.20108	1.00443
3637.27251	1.00591
3635.34395	1.00567
3633.41538	1.00630
3631.48682	1.00738
3629.55826	1.01758
3627.62969	1.03075
3625.70113	1.03114
3623.77256	1.02907
3621.84400	1.02945
3619.91543	1.03620
3617.98687	1.04632
3616.05830	1.04941
3614.12974	1.05009
3612.20118	1.05257
3610.27261	1.05749
3608.34405	1.06844
3606.41548	1.07897
3604.48692	1.08287
3602.55835	1.08637
3600.62979	1.09355
3598.70123	1.10044
3596.77266	1.10500
3594.84410	1.10999
3592.91553	1.11315
3590.98697	1.11128
3589.05840	1.10994
3587.12984	1.11732
3585.20127	1.12478
3583.27271	1.12652
3581.34415	1.12980
3579.41558	1.13849
3577.48702	1.14877
3575.55845	1.15451
3573.62989	1.15628
3571.70132	1.15881
3569.77276	1.16001
3567.84419	1.15971
3565.91563	1.17117
3563.98707	1.18997
3562.05850	1.20305
3560.12994	1.20765
3558.20137	1.20489
3556.27281	1.19878
3554.34424	1.19617
3552.41568	1.20110
3550.48711	1.20806
3548.55855	1.21124
3546.62999	1.21204
3544.70142	1.21491
3542.77286	1.22182
3540.84429	1.23305
3538.91573	1.24668
3536.98716	1.25723
3535.05860	1.26355
3533.13003	1.26965
3531.20147	1.27470
3529.27291	1.27552
3527.34434	1.27647
3525.41578	1.28398
3523.48721	1.29432
3521.55865	1.30009
3519.63008	1.29912
3517.70152	1.29595
3515.77295	1.29873
3513.84439	1.30752
3511.91583	1.31571
3509.98726	1.31898
3508.05870	1.31600
3506.13013	1.31571
3504.20157	1.32696
3502.27300	1.33747
3500.34444	1.33525
3498.41587	1.33221
3496.48731	1.33945
3494.55875	1.35433
3492.63018	1.36138
3490.70162	1.35515
3488.77305	1.35253
3486.84449	1.36198
3484.91592	1.37014
3482.98736	1.36947
3481.05879	1.36639
3479.13023	1.36393
3477.20167	1.35937
3475.27310	1.35492
3473.34454	1.35603
3471.41597	1.36548
3469.48741	1.37998
3467.55884	1.39061
3465.63028	1.39412
3463.70171	1.38944
3461.77315	1.37742
3459.84459	1.37220
3457.91602	1.38052
3455.98746	1.39178
3454.05889	1.39328
3452.13033	1.38388
3450.20176	1.37753
3448.27320	1.38145
3446.34464	1.38551
3444.41607	1.38473
3442.48751	1.38515
3440.55894	1.38866
3438.63038	1.39147
3436.70181	1.39035
3434.77325	1.39089
3432.84468	1.39637
3430.91612	1.39942
3428.98756	1.40131
3427.05899	1.40757
3425.13043	1.41313
3423.20186	1.41376
3421.27330	1.41166
3419.34473	1.40997
3417.41617	1.40774
3415.48760	1.40421
3413.55904	1.40222
3411.63048	1.40167
3409.70191	1.40055
3407.77335	1.39967
3405.84478	1.39863
3403.91622	1.39396
3401.98765	1.39233
3400.05909	1.40310
3398.13052	1.41443
3396.20196	1.41507
3394.27340	1.41420
3392.34483	1.41644
3390.41627	1.41849
3388.48770	1.41917
3386.55914	1.41975
3384.63057	1.42159
3382.70201	1.41972
3380.77344	1.41265
3378.84488	1.40895
3376.91632	1.40969
3374.98775	1.40908
3373.05919	1.40779
3371.13062	1.40692
3369.20206	1.40895
3367.27349	1.41795
3365.34493	1.42716
3363.41636	1.43095
3361.48780	1.43553
3359.55924	1.44232
3357.63067	1.44645
3355.70211	1.44512
3353.77354	1.44058
3351.84498	1.44027
3349.91641	1.44253
3347.98785	1.43850
3346.05928	1.43043
3344.13072	1.42308
3342.20216	1.41901
3340.27359	1.42270
3338.34503	1.42839
3336.41646	1.42723
3334.48790	1.42289
3332.55933	1.42069
3330.63077	1.42374
3328.70220	1.43274
3326.77364	1.43842
3324.84508	1.43599
3322.91651	1.43421
3320.98795	1.43896
3319.05938	1.44660
3317.13082	1.44985
3315.20225	1.44845
3313.27369	1.44648
3311.34513	1.44177
3309.41656	1.43616
3307.48800	1.43654
3305.55943	1.44226
3303.63087	1.44972
3301.70230	1.45251
3299.77374	1.44659
3297.84517	1.44335
3295.91661	1.44792
3293.98805	1.45125
3292.05948	1.45343
3290.13092	1.45720
3288.20235	1.45757
3286.27379	1.45406
3284.34522	1.45138
3282.41666	1.45055
3280.48809	1.44937
3278.55953	1.44535
3276.63097	1.43987
3274.70240	1.43754
3272.77384	1.43413
3270.84527	1.42739
3268.91671	1.42491
3266.98814	1.42496
3265.05958	1.42140
3263.13101	1.41602
3261.20245	1.41178
3259.27389	1.40700
3257.34532	1.40144
3255.41676	1.39936
3253.48819	1.40192
3251.55963	1.40722
3249.63106	1.41146
3247.70250	1.40865
3245.77393	1.39870
3243.84537	1.38971
3241.91681	1.38554
3239.98824	1.38235
3238.05968	1.38030
3236.13111	1.37854
3234.20255	1.37137
3232.27398	1.36379
3230.34542	1.36311
3228.41685	1.36534
3226.48829	1.36902
3224.55973	1.37520
3222.63116	1.37811
3220.70260	1.37921
3218.77403	1.38222
3216.84547	1.37936
3214.91690	1.36763
3212.98834	1.35225
3211.05977	1.33898
3209.13121	1.33501
3207.20265	1.33851
3205.27408	1.33854
3203.34552	1.33357
3201.41695	1.33045
3199.48839	1.33362
3197.55982	1.33879
3195.63126	1.33416
3193.70269	1.32286
3191.77413	1.31620
3189.84557	1.31259
3187.91700	1.30988
3185.98844	1.30850
3184.05987	1.30538
3182.13131	1.30023
3180.20274	1.29613
3178.27418	1.29461
3176.34562	1.29314
3174.41705	1.28885
3172.48849	1.28460
3170.55992	1.28366
3168.63136	1.28278
3166.70279	1.27946
3164.77423	1.27460
3162.84566	1.26942
3160.91710	1.26689
3158.98854	1.26443
3157.05997	1.25747
3155.13141	1.24936
3153.20284	1.24509
3151.27428	1.24581
3149.34571	1.24736
3147.41715	1.24494
3145.48858	1.23962
3143.56002	1.23350
3141.63146	1.22862
3139.70289	1.22757
3137.77433	1.22926
3135.84576	1.23136
3133.91720	1.23143
3131.98863	1.22808
3130.06007	1.22605
3128.13150	1.22694
3126.20294	1.22611
3124.27438	1.22204
3122.34581	1.21698
3120.41725	1.21373
3118.48868	1.21237
3116.56012	1.21331
3114.63155	1.21644
3112.70299	1.21631
3110.77442	1.21272
3108.84586	1.21159
3106.91730	1.21427
3104.98873	1.21689
3103.06017	1.21666
3101.13160	1.21591
3099.20304	1.21568
3097.27447	1.21199
3095.34591	1.20591
3093.41734	1.20436
3091.48878	1.20667
3089.56022	1.20704
3087.63165	1.20543
3085.70309	1.20475
3083.77452	1.20677
3081.84596	1.20909
3079.91739	1.20638
3077.98883	1.19866
3076.06026	1.19179
3074.13170	1.19035
3072.20314	1.19256
3070.27457	1.19354
3068.34601	1.19205
3066.41744	1.18874
3064.48888	1.18445
3062.56031	1.18126
3060.63175	1.17815
3058.70318	1.17303
3056.77462	1.16841
3054.84606	1.16496
3052.91749	1.16110
3050.98893	1.15893
3049.06036	1.15936
3047.13180	1.15849
3045.20323	1.15384
3043.27467	1.14792
3041.34610	1.14238
3039.41754	1.13738
3037.48898	1.13417
3035.56041	1.13181
3033.63185	1.12982
3031.70328	1.12945
3029.77472	1.12914
3027.84615	1.12621
3025.91759	1.12135
3023.98903	1.11737
3022.06046	1.11414
3020.13190	1.11010
3018.20333	1.10650
3016.27477	1.10434
3014.34620	1.10214
3012.41764	1.09967
3010.48907	1.09909
3008.56051	1.09968
3006.63195	1.09821
3004.70338	1.09519
3002.77482	1.09374
3000.84625	1.09357
2998.91769	1.09211
2996.98912	1.09011
2995.06056	1.09029
2993.13199	1.09298
2991.20343	1.09656
2989.27487	1.10048
2987.34630	1.10488
2985.41774	1.10855
2983.48917	1.11190
2981.56061	1.11578
2979.63204	1.11875
2977.70348	1.12239
2975.77491	1.12940
2973.84635	1.13840
2971.91779	1.14764
2969.98922	1.15671
2968.06066	1.16499
2966.13209	1.17213
2964.20353	1.17696
2962.27496	1.17871
2960.34640	1.18028
2958.41783	1.18213
2956.48927	1.17916
2954.56071	1.17076
2952.63214	1.16230
2950.70358	1.15684
2948.77501	1.15427
2946.84645	1.15517
2944.91788	1.15983
2942.98932	1.16662
2941.06075	1.17473
2939.13219	1.18424
2937.20363	1.19480
2935.27506	1.20489
2933.34650	1.21280
2931.41793	1.21918
2929.48937	1.22445
2927.56080	1.22809
2925.63224	1.23144
2923.70367	1.23709
2921.77511	1.24468
2919.84655	1.24779
2917.91798	1.24186
2915.98942	1.22622
2914.06085	1.20215
2912.13229	1.17859
2910.20372	1.16284
2908.27516	1.15077
2906.34659	1.13773
2904.41803	1.12594
2902.48947	1.11648
2900.56090	1.10809
2898.63234	1.10151
2896.70377	1.09724
2894.77521	1.09419
2892.84664	1.09043
2890.91808	1.08466
2888.98952	1.07865
2887.06095	1.07499
2885.13239	1.07330
2883.20382	1.07261
2881.27526	1.07334
2879.34669	1.07340
2877.41813	1.07195
2875.48956	1.07209
2873.56100	1.07340
2871.63244	1.07194
2869.70387	1.06602
2867.77531	1.05841
2865.84674	1.05243
2863.91818	1.04896
2861.98961	1.04886
2860.06105	1.05109
2858.13248	1.05433
2856.20392	1.06102
2854.27536	1.07170
2852.34679	1.08183
2850.41823	1.08405
2848.48966	1.07141
2846.56110	1.04543
2844.63253	1.01650
2842.70397	0.99258
2840.77540	0.97529
2838.84684	0.96453
2836.91828	0.95878
2834.98971	0.95405
2833.06115	0.94821
2831.13258	0.94216
2829.20402	0.93654
2827.27545	0.93173
2825.34689	0.92718
2823.41832	0.92190
2821.48976	0.91731
2819.56120	0.91508
2817.63263	0.91418
2815.70407	0.91235
2813.77550	0.90885
2811.84694	0.90454
2809.91837	0.90082
2807.98981	0.89863
2806.06124	0.89659
2804.13268	0.89233
2802.20412	0.88683
2800.27555	0.88357
2798.34699	0.88290
2796.41842	0.88104
2794.48986	0.87677
2792.56129	0.87266
2790.63273	0.86996
2788.70416	0.86791
2786.77560	0.86618
2784.84704	0.86478
2782.91847	0.86336
2780.98991	0.86141
2779.06134	0.85858
2777.13278	0.85573
2775.20421	0.85369
2773.27565	0.85114
2771.34708	0.84771
2769.41852	0.84494
2767.48996	0.84310
2765.56139	0.84149
2763.63283	0.83989
2761.70426	0.83850
2759.77570	0.83737
2757.84713	0.83526
2755.91857	0.83187
2753.99001	0.82898
2752.06144	0.82690
2750.13288	0.82447
2748.20431	0.82181
2746.27575	0.81954
2744.34718	0.81762
2742.41862	0.81574
2740.49005	0.81388
2738.56149	0.81200
2736.63293	0.81010
2734.70436	0.80890
2732.77580	0.80856
2730.84723	0.80748
2728.91867	0.80509
2726.99010	0.80230
2725.06154	0.79961
2723.13297	0.79762
2721.20441	0.79631
2719.27585	0.79467
2717.34728	0.79255
2715.41872	0.78987
2713.49015	0.78678
2711.56159	0.78427
2709.63302	0.78236
2707.70446	0.78060
2705.77589	0.77943
2703.84733	0.77837
2701.91877	0.77584
2699.99020	0.77245
2698.06164	0.77055
2696.13307	0.77046
2694.20451	0.77006
2692.27594	0.76851
2690.34738	0.76693
2688.41881	0.76555
2686.49025	0.76413
2684.56169	0.76270
2682.63312	0.76118
2680.70456	0.76033
2678.77599	0.76016
2676.84743	0.75946
2674.91886	0.75806
2672.99030	0.75622
2671.06173	0.75393
2669.13317	0.75166
2667.20461	0.74968
2665.27604	0.74795
2663.34748	0.74677
2661.41891	0.74628
2659.49035	0.74586
2657.56178	0.74460
2655.63322	0.74245
2653.70465	0.74053
2651.77609	0.73948
2649.84753	0.73857
2647.91896	0.73674
2645.99040	0.73446
2644.06183	0.73311
2642.13327	0.73257
2640.20470	0.73218
2638.27614	0.73190
2636.34757	0.73093
2634.41901	0.72903
2632.49045	0.72733
2630.56188	0.72599
2628.63332	0.72453
2626.70475	0.72330
2624.77619	0.72247
2622.84762	0.72139
2620.91906	0.71985
2618.99049	0.71849
2617.06193	0.71734
2615.13337	0.71567
2613.20480	0.71338
2611.27624	0.71143
2609.34767	0.71047
2607.41911	0.70962
2605.49054	0.70820
2603.56198	0.70680
2601.63342	0.70559
2599.70485	0.70434
2597.77629	0.70306
2595.84772	0.70156
2593.91916	0.70003
2591.99059	0.69889
2590.06203	0.69809
2588.13346	0.69727
2586.20490	0.69588
2584.27634	0.69408
2582.34777	0.69276
2580.41921	0.69167
2578.49064	0.69029
2576.56208	0.68904
2574.63351	0.68806
2572.70495	0.68706
2570.77638	0.68560
2568.84782	0.68378
2566.91926	0.68227
2564.99069	0.68126
2563.06213	0.68027
2561.13356	0.67879
2559.20500	0.67686
2557.27643	0.67517
2555.34787	0.67413
2553.41930	0.67334
2551.49074	0.67230
2549.56218	0.67085
2547.63361	0.66881
2545.70505	0.66657
2543.77648	0.66494
2541.84792	0.66397
2539.91935	0.66301
2537.99079	0.66188
2536.06222	0.66090
2534.13366	0.66006
2532.20510	0.65920
2530.27653	0.65850
2528.34797	0.65788
2526.41940	0.65689
2524.49084	0.65565
2522.56227	0.65459
2520.63371	0.65324
2518.70514	0.65124
2516.77658	0.64953
2514.84802	0.64852
2512.91945	0.64734
2510.99089	0.64565
2509.06232	0.64398
2507.13376	0.64269
2505.20519	0.64141
2503.27663	0.63999
2501.34806	0.63887
2499.41950	0.63787
2497.49094	0.63677
2495.56237	0.63574
2493.63381	0.63461
2491.70524	0.63310
2489.77668	0.63162
2487.84811	0.63030
2485.91955	0.62861
2483.99098	0.62667
2482.06242	0.62496
2480.13386	0.62345
2478.20529	0.62196
2476.27673	0.62018
2474.34816	0.61829
2472.41960	0.61680
2470.49103	0.61547
2468.56247	0.61377
2466.63391	0.61185
2464.70534	0.61031
2462.77678	0.60943
2460.84821	0.60875
2458.91965	0.60745
2456.99108	0.60576
2455.06252	0.60443
2453.13395	0.60314
2451.20539	0.60151
2449.27683	0.59987
2447.34826	0.59851
2445.41970	0.59721
2443.49113	0.59586
2441.56257	0.59452
2439.63400	0.59311
2437.70544	0.59168
2435.77687	0.59046
2433.84831	0.58946
2431.91975	0.58838
2429.99118	0.58713
2428.06262	0.58578
2426.13405	0.58427
2424.20549	0.58263
2422.27692	0.58112
2420.34836	0.57981
2418.41979	0.57833
2416.49123	0.57670
2414.56267	0.57546
2412.63410	0.57451
2410.70554	0.57337
2408.77697	0.57190
2406.84841	0.57031
2404.91984	0.56892
2402.99128	0.56784
2401.06271	0.56692
2399.13415	0.56596
2397.20559	0.56480
2395.27702	0.56344
2393.34846	0.56214
2391.41989	0.56106
2389.49133	0.56019
2387.56276	0.55943
2385.63420	0.55871
2383.70563	0.55818
2381.77707	0.55819
2379.84851	0.55882
2377.91994	0.55990
2375.99138	0.56138
2374.06281	0.56363
2372.13425	0.56632
2370.20568	0.56837
2368.27712	0.57020
2366.34855	0.57310
2364.41999	0.57787
2362.49143	0.58325
2360.56286	0.58497
2358.63430	0.58341
2356.70573	0.58161
2354.77717	0.57810
2352.84860	0.57182
2350.92004	0.56390
2348.99147	0.55727
2347.06291	0.55475
2345.13435	0.55727
2343.20578	0.56166
2341.27722	0.56331
2339.34865	0.56124
2337.42009	0.55841
2335.49152	0.55749
2333.56296	0.55735
2331.63440	0.55646
2329.70583	0.55477
2327.77727	0.55308
2325.84870	0.55207
2323.92014	0.55086
2321.99157	0.54814
2320.06301	0.54449
2318.13444	0.54070
2316.20588	0.53639
2314.27732	0.53210
2312.34875	0.52897
2310.42019	0.52694
2308.49162	0.52515
2306.56306	0.52298
2304.63449	0.52042
2302.70593	0.51803
2300.77736	0.51622
2298.84880	0.51483
2296.92024	0.51340
2294.99167	0.51167
2293.06311	0.50968
2291.13454	0.50782
2289.20598	0.50642
2287.27741	0.50521
2285.34885	0.50368
2283.42028	0.50189
2281.49172	0.50050
2279.56316	0.49995
2277.63459	0.49966
2275.70603	0.49876
2273.77746	0.49734
2271.84890	0.49603
2269.92033	0.49509
2267.99177	0.49453
2266.06320	0.49397
2264.13464	0.49298
2262.20608	0.49196
2260.27751	0.49120
2258.34895	0.49030
2256.42038	0.48932
2254.49182	0.48851
2252.56325	0.48770
2250.63469	0.48687
2248.70612	0.48607
2246.77756	0.48508
2244.84900	0.48377
2242.92043	0.48244
2240.99187	0.48131
2239.06330	0.48020
2237.13474	0.47914
2235.20617	0.47824
2233.27761	0.47729
2231.34904	0.47619
2229.42048	0.47516
2227.49192	0.47444
2225.56335	0.47393
2223.63479	0.47343
2221.70622	0.47293
2219.77766	0.47254
2217.84909	0.47212
2215.92053	0.47157
2213.99196	0.47090
2212.06340	0.47006
2210.13484	0.46921
2208.20627	0.46863
2206.27771	0.46790
2204.34914	0.46679
2202.42058	0.46589
2200.49201	0.46546
2198.56345	0.46489
2196.63488	0.46389
2194.70632	0.46288
2192.77776	0.46207
2190.84919	0.46137
2188.92063	0.46100
2186.99206	0.46086
2185.06350	0.46072
2183.13493	0.46054
2181.20637	0.46025
2179.27781	0.45994
2177.34924	0.45952
2175.42068	0.45875
2173.49211	0.45787
2171.56355	0.45721
2169.63498	0.45679
2167.70642	0.45630
2165.77785	0.45545
2163.84929	0.45438
2161.92073	0.45349
2159.99216	0.45306
2158.06360	0.45280
2156.13503	0.45245
2154.20647	0.45215
2152.27790	0.45180
2150.34934	0.45106
2148.42077	0.45003
2146.49221	0.44911
2144.56365	0.44834
2142.63508	0.44749
2140.70652	0.44660
2138.77795	0.44593
2136.84939	0.44550
2134.92082	0.44512
2132.99226	0.44469
2131.06369	0.44431
2129.13513	0.44413
2127.20657	0.44418
2125.27800	0.44423
2123.34944	0.44399
2121.42087	0.44347
2119.49231	0.44280
2117.56374	0.44201
2115.63518	0.44126
2113.70661	0.44068
2111.77805	0.44012
2109.84949	0.43947
2107.92092	0.43875
2105.99236	0.43805
2104.06379	0.43720
2102.13523	0.43630
2100.20666	0.43573
2098.27810	0.43530
2096.34953	0.43472
2094.42097	0.43419
2092.49241	0.43398
2090.56384	0.43409
2088.63528	0.43406
2086.70671	0.43368
2084.77815	0.43325
2082.84958	0.43284
2080.92102	0.43234
2078.99245	0.43183
2077.06389	0.43150
2075.13533	0.43134
2073.20676	0.43126
2071.27820	0.43097
2069.34963	0.43021
2067.42107	0.42941
2065.49250	0.42922
2063.56394	0.42922
2061.63537	0.42873
2059.70681	0.42791
2057.77825	0.42715
2055.84968	0.42642
2053.92112	0.42547
2051.99255	0.42441
2050.06399	0.42361
2048.13542	0.42303
2046.20686	0.42245
2044.27830	0.42196
2042.34973	0.42174
2040.42117	0.42165
2038.49260	0.42123
2036.56404	0.42047
2034.63547	0.41972
2032.70691	0.41940
2030.77834	0.41951
2028.84978	0.41939
2026.92122	0.41874
2024.99265	0.41803
2023.06409	0.41739
2021.13552	0.41655
2019.20696	0.41594
2017.27839	0.41599
2015.34983	0.41588
2013.42126	0.41522
2011.49270	0.41452
2009.56414	0.41400
2007.63557	0.41366
2005.70701	0.41339
2003.77844	0.41290
2001.84988	0.41223
1999.92131	0.41173
1997.99275	0.41125
1996.06418	0.41059
1994.13562	0.41023
1992.20706	0.41036
1990.27849	0.41018
1988.34993	0.40958
1986.42136	0.40896
1984.49280	0.40827
1982.56423	0.40780
1980.63567	0.40784
1978.70710	0.40814
1976.77854	0.40836
1974.84998	0.40847
1972.92141	0.40851
1970.99285	0.40829
1969.06428	0.40810
1967.13572	0.40834
1965.20715	0.40826
1963.27859	0.40763
1961.35002	0.40707
1959.42146	0.40650
1957.49290	0.40581
1955.56433	0.40548
1953.63577	0.40538
1951.70720	0.40504
1949.77864	0.40460
1947.85007	0.40440
1945.92151	0.40447
1943.99294	0.40521
1942.06438	0.40644
1940.13582	0.40659
1938.20725	0.40590
1936.27869	0.40569
1934.35012	0.40608
1932.42156	0.40656
1930.49299	0.40671
1928.56443	0.40655
1926.63586	0.40629
1924.70730	0.40658
1922.77874	0.40754
1920.85017	0.40772
1918.92161	0.40764
1916.99304	0.40799
1915.06448	0.40745
1913.13591	0.40649
1911.20735	0.40641
1909.27878	0.40701
1907.35022	0.40720
1905.42166	0.40692
1903.49309	0.40688
1901.56453	0.40711
1899.63596	0.40734
1897.70740	0.40796
1895.77883	0.40939
1893.85027	0.41057
1891.92171	0.41112
1889.99314	0.41240
1888.06458	0.41359
1886.13601	0.41347
1884.20745	0.41329
1882.27888	0.41345
1880.35032	0.41350
1878.42175	0.41343
1876.49319	0.41325
1874.56463	0.41278
1872.63606	0.41203
1870.70750	0.41261
1868.77893	0.41588
1866.85037	0.41788
1864.92180	0.41689
1862.99324	0.41594
1861.06467	0.41601
1859.13611	0.41645
1857.20755	0.41690
1855.27898	0.41736
1853.35042	0.41791
1851.42185	0.41849
1849.49329	0.41904
1847.56472	0.41969
1845.63616	0.42171
1843.70759	0.42479
1841.77903	0.42487
1839.85047	0.42326
1837.92190	0.42309
1835.99334	0.42392
1834.06477	0.42399
1832.13621	0.42433
1830.20764	0.42688
1828.27908	0.42897
1826.35051	0.42901
1824.42195	0.42940
1822.49339	0.42937
1820.56482	0.42856
1818.63626	0.42832
1816.70769	0.42864
1814.77913	0.42898
1812.85056	0.42982
1810.92200	0.43160
1808.99343	0.43295
1807.06487	0.43316
1805.13631	0.43301
1803.20774	0.43338
1801.27918	0.43520
1799.35061	0.43735
1797.42205	0.43799
1795.49348	0.43772
1793.56492	0.43894
1791.63635	0.44220
1789.70779	0.44254
1787.77923	0.44067
1785.85066	0.44009
1783.92210	0.44100
1781.99353	0.44234
1780.06497	0.44367
1778.13640	0.44395
1776.20784	0.44351
1774.27927	0.44468
1772.35071	0.44874
1770.42215	0.45129
1768.49358	0.45094
1766.56502	0.45008
1764.63645	0.44956
1762.70789	0.45110
1760.77932	0.45408
1758.85076	0.45598
1756.92220	0.45882
1754.99363	0.46186
1753.06507	0.46467
1751.13650	0.47189
1749.20794	0.48333
1747.27937	0.49108
1745.35081	0.49546
1743.42224	0.49966
1741.49368	0.50446
1739.56512	0.50903
1737.63655	0.51074
1735.70799	0.51143
1733.77942	0.51556
1731.85086	0.51737
1729.92229	0.51572
1727.99373	0.51451
1726.06516	0.51442
1724.13660	0.51634
1722.20804	0.51877
1720.27947	0.52094
1718.35091	0.52819
1716.42234	0.54328
1714.49378	0.55281
1712.56521	0.55801
1710.63665	0.56530
1708.70808	0.57673
1706.77952	0.59688
1704.85096	0.62430
1702.92239	0.64770
1700.99383	0.68172
1699.06526	0.73868
1697.13670	0.79089
1695.20813	0.83788
1693.27957	0.86959
1691.35100	0.89340
1689.42244	0.92297
1687.49388	0.94966
1685.56531	0.97652
1683.63675	1.01923
1681.70818	1.04630
1679.77962	1.05855
1677.85105	1.07059
1675.92249	1.08605
1673.99392	1.10211
1672.06536	1.11429
1670.13680	1.12924
1668.20823	1.14405
1666.27967	1.14961
1664.35110	1.15585
1662.42254	1.16787
1660.49397	1.17582
1658.56541	1.17712
1656.63684	1.17634
1654.70828	1.17820
1652.77972	1.18659
1650.85115	1.18690
1648.92259	1.18218
1646.99402	1.18059
1645.06546	1.18104
1643.13689	1.17783
1641.20833	1.17301
1639.27976	1.16792
1637.35120	1.16547
1635.42264	1.16752
1633.49407	1.16460
1631.56551	1.15755
1629.63694	1.15085
1627.70838	1.14550
1625.77981	1.13968
1623.85125	1.13133
1621.92269	1.11884
1619.99412	1.10506
1618.06556	1.09032
1616.13699	1.07230
1614.20843	1.05551
1612.27986	1.04056
1610.35130	1.02589
1608.42273	1.01161
1606.49417	0.99917
1604.56561	0.99016
1602.63704	0.98411
1600.70848	0.97970
1598.77991	0.97617
1596.85135	0.97418
1594.92278	0.97386
1592.99422	0.97422
1591.06565	0.97535
1589.13709	0.97780
1587.20853	0.98160
1585.27996	0.98685
1583.35140	0.99321
1581.42283	0.99943
1579.49427	1.00532
1577.56570	1.01485
1575.63714	1.02880
1573.70857	1.03506
1571.78001	1.03810
1569.85145	1.04772
1567.92288	1.05969
1565.99432	1.06749
1564.06575	1.07361
1562.13719	1.07699
1560.20862	1.08509
1558.28006	1.11156
1556.35149	1.12143
1554.42293	1.12241
1552.49437	1.12438
1550.56580	1.12624
1548.63724	1.12650
1546.70867	1.12489
1544.78011	1.12406
1542.85154	1.12694
1540.92298	1.13286
1538.99441	1.12816
1537.06585	1.11899
1535.13729	1.11289
1533.20872	1.10786
1531.28016	1.10095
1529.35159	1.09417
1527.42303	1.08949
1525.49446	1.08732
1523.56590	1.08707
1521.63733	1.08629
1519.70877	1.08311
1517.78021	1.07782
1515.85164	1.06781
1513.92308	1.05454
1511.99451	1.04187
1510.06595	1.03147
1508.13738	1.02007
1506.20882	0.99678
1504.28025	0.97592
1502.35169	0.96014
1500.42313	0.94543
1498.49456	0.93046
1496.56600	0.91274
1494.63743	0.89569
1492.70887	0.88291
1490.78030	0.87178
1488.85174	0.85884
1486.92317	0.84584
1484.99461	0.83581
1483.06605	0.82975
1481.13748	0.82765
1479.20892	0.82840
1477.28035	0.83215
1475.35179	0.84061
1473.42322	0.85629
1471.49466	0.87208
1469.56610	0.87805
1467.63753	0.88111
1465.70897	0.88755
1463.78040	0.89455
1461.85184	0.89636
1459.92327	0.89730
1457.99471	0.90564
1456.06614	0.91425
1454.13758	0.91120
1452.20902	0.90693
1450.28045	0.90474
1448.35189	0.90398
1446.42332	0.90240
1444.49476	0.89895
1442.56619	0.89454
1440.63763	0.88994
1438.70906	0.88590
1436.78050	0.88269
1434.85194	0.87800
1432.92337	0.87131
1430.99481	0.86447
1429.06624	0.85856
1427.13768	0.85442
1425.20911	0.85291
1423.28055	0.85313
1421.35198	0.85337
1419.42342	0.85612
1417.49486	0.86024
1415.56629	0.86002
1413.63773	0.85856
1411.70916	0.85920
1409.78060	0.86145
1407.85203	0.86348
1405.92347	0.86647
1403.99490	0.87092
1402.06634	0.87403
1400.13778	0.87596
1398.20921	0.87731
1396.28065	0.87782
1394.35208	0.87793
1392.42352	0.87679
1390.49495	0.87529
1388.56639	0.87640
1386.63782	0.88107
1384.70926	0.88576
1382.78070	0.88923
1380.85213	0.89180
1378.92357	0.89209
1376.99500	0.88915
1375.06644	0.88281
1373.13787	0.87317
1371.20931	0.86214
1369.28074	0.84996
1367.35218	0.83622
1365.42362	0.82306
1363.49505	0.81130
1361.56649	0.80044
1359.63792	0.79112
1357.70936	0.78380
1355.78079	0.77826
1353.85223	0.77433
1351.92366	0.77171
1349.99510	0.76997
1348.06654	0.76860
1346.13797	0.76731
1344.20941	0.76640
1342.28084	0.76637
1340.35228	0.76796
1338.42371	0.77032
1336.49515	0.77196
1334.56659	0.77393
1332.63802	0.77736
1330.70946	0.78223
1328.78089	0.78761
1326.85233	0.79213
1324.92376	0.79533
1322.99520	0.79800
1321.06663	0.80123
1319.13807	0.80522
1317.20951	0.80875
1315.28094	0.81106
1313.35238	0.81314
1311.42381	0.81527
1309.49525	0.81672
1307.56668	0.81721
1305.63812	0.81704
1303.70955	0.81672
1301.78099	0.81584
1299.85243	0.81383
1297.92386	0.81087
1295.99530	0.80725
1294.06673	0.80363
1292.13817	0.80096
1290.20960	0.79931
1288.28104	0.79804
1286.35247	0.79684
1284.42391	0.79555
1282.49535	0.79399
1280.56678	0.79242
1278.63822	0.79138
1276.70965	0.79130
1274.78109	0.79239
1272.85252	0.79473
1270.92396	0.79782
1268.99539	0.80095
1267.06683	0.80424
1265.13827	0.80739
1263.20970	0.80962
1261.28114	0.81084
1259.35257	0.81122
1257.42401	0.81116
1255.49544	0.81148
1253.56688	0.81222
1251.63831	0.81297
1249.70975	0.81373
1247.78119	0.81460
1245.85262	0.81527
1243.92406	0.81553
1241.99549	0.81557
1240.06693	0.81508
1238.13836	0.81340
1236.20980	0.81063
1234.28123	0.80710
1232.35267	0.80278
1230.42411	0.79756
1228.49554	0.79142
1226.56698	0.78456
1224.63841	0.77748
1222.70985	0.77023
1220.78128	0.76241
1218.85272	0.75443
1216.92415	0.74695
1214.99559	0.74050
1213.06703	0.73581
1211.13846	0.73296
1209.20990	0.73130
1207.28133	0.72960
1205.35277	0.72617
1203.42420	0.72018
1201.49564	0.71249
1199.56708	0.70421
1197.63851	0.69566
1195.70995	0.68730
1193.78138	0.67981
1191.85282	0.67373
1189.92425	0.66923
1187.99569	0.66591
1186.06712	0.66343
1184.13856	0.66190
1182.21000	0.66175
1180.28143	0.66352
1178.35287	0.66742
1176.42430	0.67327
1174.49574	0.68026
1172.56717	0.68732
1170.63861	0.69432
1168.71004	0.70207
1166.78148	0.71132
1164.85292	0.72181
1162.92435	0.73176
1160.99579	0.73926
1159.06722	0.74337
1157.13866	0.74351
1155.21009	0.73973
1153.28153	0.73301
1151.35296	0.72433
1149.42440	0.71413
1147.49584	0.70367
1145.56727	0.69521
1143.63871	0.68972
1141.71014	0.68687
1139.78158	0.68708
1137.85301	0.69065
1135.92445	0.69632
1133.99588	0.70324
1132.06732	0.71229
1130.13876	0.72375
1128.21019	0.73648
1126.28163	0.74911
1124.35306	0.76047
1122.42450	0.77010
1120.49593	0.77831
1118.56737	0.78521
1116.63880	0.79015
1114.71024	0.79233
1112.78168	0.79166
1110.85311	0.78908
1108.92455	0.78586
1106.99598	0.78270
1105.06742	0.77981
1103.13885	0.77767
1101.21029	0.77714
1099.28172	0.77873
1097.35316	0.78240
1095.42460	0.78800
1093.49603	0.79570
1091.56747	0.80504
1089.63890	0.81547
1087.71034	0.82741
1085.78177	0.84050
1083.85321	0.85317
1081.92464	0.86414
1079.99608	0.87223
1078.06752	0.87608
1076.13895	0.87497
1074.21039	0.86992
1072.28182	0.86284
1070.35326	0.85488
1068.42469	0.84641
1066.49613	0.83798
1064.56756	0.82988
1062.63900	0.82135
1060.71044	0.81205
1058.78187	0.80301
1056.85331	0.79479
1054.92474	0.78718
1052.99618	0.78056
1051.06761	0.77548
1049.13905	0.77217
1047.21049	0.77108
1045.28192	0.77231
1043.35336	0.77503
1041.42479	0.77859
1039.49623	0.78253
1037.56766	0.78584
1035.63910	0.78773
1033.71053	0.78822
1031.78197	0.78676
1029.85341	0.78263
1027.92484	0.77678
1025.99628	0.77025
1024.06771	0.76287
1022.13915	0.75478
1020.21058	0.74670
1018.28202	0.73951
1016.35345	0.73340
1014.42489	0.72681
1012.49633	0.71746
1010.56776	0.70475
1008.63920	0.69003
1006.71063	0.67493
1004.78207	0.66039
1002.85350	0.64672
1000.92494	0.63447
998.99637	0.62430
997.06781	0.61576
995.13925	0.60794
993.21068	0.60029
991.28212	0.59216
989.35355	0.58329
987.42499	0.57450
985.49642	0.56652
983.56786	0.55982
981.63929	0.55476
979.71073	0.55124
977.78217	0.54889
975.85360	0.54702
973.92504	0.54463
971.99647	0.54062
970.06791	0.53470
968.13934	0.52809
966.21078	0.52227
964.28221	0.51771
962.35365	0.51512
960.42509	0.51609
958.49652	0.52119
956.56796	0.52797
954.63939	0.53218
952.71083	0.53139
950.78226	0.52645
948.85370	0.51990
946.92513	0.51399
944.99657	0.50999
943.06801	0.50808
941.13944	0.50741
939.21088	0.50706
937.28231	0.50679
935.35375	0.50643
933.42518	0.50599
931.49662	0.50571
929.56805	0.50585
927.63949	0.50680
925.71093	0.50853
923.78236	0.51040
921.85380	0.51193
919.92523	0.51292
917.99667	0.51329
916.06810	0.51314
914.13954	0.51307
912.21098	0.51399
910.28241	0.51611
908.35385	0.51885
906.42528	0.52174
904.49672	0.52476
902.56815	0.52807
900.63959	0.53141
898.71102	0.53390
896.78246	0.53482
894.85390	0.53456
892.92533	0.53398
890.99677	0.53333
889.06820	0.53261
887.13964	0.53216
885.21107	0.53231
883.28251	0.53337
881.35394	0.53522
879.42538	0.53735
877.49682	0.53949
875.56825	0.54162
873.63969	0.54372
871.71112	0.54533
869.78256	0.54616
867.85399	0.54691
865.92543	0.54830
863.99686	0.55050
862.06830	0.55343
860.13974	0.55708
858.21117	0.56151
856.28261	0.56654
854.35404	0.57155
852.42548	0.57613
850.49691	0.58020
848.56835	0.58341
846.63978	0.58611
844.71122	0.58913
842.78266	0.59234
840.85409	0.59518
838.92553	0.59775
836.99696	0.60037
835.06840	0.60308
833.13983	0.60593
831.21127	0.60890
829.28270	0.61161
827.35414	0.61398
825.42558	0.61648
823.49701	0.61889
821.56845	0.62087
819.63988	0.62254
817.71132	0.62395
815.78275	0.62540
813.85419	0.62699
811.92562	0.62865
809.99706	0.63061
808.06850	0.63275
806.13993	0.63467
804.21137	0.63644
802.28280	0.63841
800.35424	0.64064
798.42567	0.64308
796.49711	0.64593
794.56854	0.64928
792.63998	0.65264
790.71142	0.65546
788.78285	0.65789
786.85429	0.66059
784.92572	0.66430
782.99716	0.66888
781.06859	0.67325
779.14003	0.67750
777.21147	0.68243
775.28290	0.68741
773.35434	0.69178
771.42577	0.69653
769.49721	0.70220
767.56864	0.70752
765.64008	0.71173
763.71151	0.71540
761.78295	0.71909
759.85439	0.72293
757.92582	0.72636
755.99726	0.72888
754.06869	0.73143
752.14013	0.73444
750.21156	0.73667
748.28300	0.73828
746.35443	0.74079
744.42587	0.74395
742.49731	0.74648
740.56874	0.74831
738.64018	0.74968
736.71161	0.75122
734.78305	0.75395
732.85448	0.75778
730.92592	0.76209
728.99735	0.76556
727.06879	0.76763
725.14023	0.77038
723.21166	0.77527
721.28310	0.78074
719.35453	0.78373
717.42597	0.78382
715.49740	0.78446
713.56884	0.78785
711.64027	0.79282
709.71171	0.79770
707.78315	0.80250
705.85458	0.80757
703.92602	0.81237
701.99745	0.81593
700.06889	0.81780
698.14032	0.81811
696.21176	0.81734
694.28319	0.81634
692.35463	0.81537
690.42607	0.81367
688.49750	0.81166
686.56894	0.81071
684.64037	0.81021
682.71181	0.80985
680.78324	0.81126
678.85468	0.81440
676.92611	0.81769
674.99755	0.82002
673.06899	0.82179
671.14042	0.82609
669.21186	0.83508
667.28329	0.83910
665.35473	0.83467
663.42616	0.83087
661.49760	0.82790
659.56903	0.82404
657.64047	0.81989
655.71191	0.81716
653.78334	0.81616
651.85478	0.81618
649.92621	0.81697
647.99765	0.81826
646.06908	0.82025
644.14052	0.82418
642.21195	0.83005
640.28339	0.83655
638.35483	0.84204
636.42626	0.84372
634.49770	0.84092
632.56913	0.83745
630.64057	0.83541
628.71200	0.83267
626.78344	0.82911
624.85488	0.82753
622.92631	0.82838
620.99775	0.82937
619.06918	0.82895
617.14062	0.82834
615.21205	0.83071
613.28349	0.83476
611.35492	0.83644
609.42636	0.83688
607.49780	0.83882
605.56923	0.84161
603.64067	0.84367
601.71210	0.84385
599.78354	0.84276
