3997.91406	1.04787
3995.98550	1.04765
3994.05693	1.04616
3992.12837	1.04480
3990.19980	1.04441
3988.27124	1.04484
3986.34268	1.04551
3984.41411	1.04585
3982.48555	1.04594
3980.55698	1.04539
3978.62842	1.04388
3976.69985	1.04251
3974.77129	1.04199
3972.84272	1.04236
3970.91416	1.04407
3968.98560	1.04591
3967.05703	1.04602
3965.12847	1.04521
3963.19990	1.04455
3961.27134	1.04359
3959.34277	1.04250
3957.41421	1.04266
3955.48564	1.04485
3953.55708	1.04692
3951.62852	1.04675
3949.69995	1.04425
3947.77139	1.04106
3945.84282	1.04000
3943.91426	1.03908
3941.98569	1.03630
3940.05713	1.03563
3938.12856	1.03819
3936.20000	1.04170
3934.27144	1.04316
3932.34287	1.04002
3930.41431	1.03650
3928.48574	1.03721
3926.55718	1.03805
3924.62861	1.03578
3922.70005	1.03483
3920.77148	1.03647
3918.84292	1.03527
3916.91436	1.03046
3914.98579	1.02870
3913.05723	1.03136
3911.12866	1.03421
3909.20010	1.03593
3907.27153	1.03668
3905.34297	1.03341
3903.41440	1.02763
3901.48584	1.02493
3899.55728	1.02183
3897.62871	1.02124
3895.70015	1.02586
3893.77158	1.02865
3891.84302	1.02396
3889.91445	1.02241
3887.98589	1.02725
3886.05733	1.02671
3884.12876	1.02235
3882.20020	1.02095
3880.27163	1.01606
3878.34307	1.01627
3876.41450	1.02278
3874.48594	1.02439
3872.55737	1.02000
3870.62881	1.01329
3868.70025	1.01102
3866.77168	1.01589
3864.84312	1.01597
3862.91455	1.01097
3860.98599	1.01252
3859.05742	1.01835
3857.12886	1.02395
3855.20029	1.02203
3853.27173	1.00401
3851.34317	0.99980
3849.41460	1.00847
3847.48604	1.01688
3845.55747	1.02237
3843.62891	1.02333
3841.70034	1.02251
3839.77178	1.01950
3837.84321	1.01110
3835.91465	1.00763
3833.98609	1.00852
3832.05752	1.00784
3830.12896	1.00879
3828.20039	1.01180
3826.27183	1.01404
3824.34326	1.01772
3822.41470	1.01737
3820.48613	1.00815
3818.55757	1.00649
3816.62901	1.00456
3814.70044	0.99945
3812.77188	1.00228
3810.84331	1.00974
3808.91475	1.01426
3806.98618	1.00969
3805.05762	1.00589
3803.12905	1.00447
3801.20049	0.99567
3799.27193	0.99322
3797.34336	0.99542
3795.41480	0.99518
3793.48623	0.99745
3791.55767	1.00058
3789.62910	1.00201
3787.70054	1.00251
3785.77197	1.00062
3783.84341	0.99865
3781.91485	0.99959
3779.98628	0.99780
3778.05772	0.99383
3776.12915	0.99457
3774.20059	0.99844
3772.27202	1.00145
3770.34346	0.99962
3768.41489	0.99620
3766.48633	0.99500
3764.55777	0.99461
3762.62920	0.99700
3760.70064	0.99783
3758.77207	0.99274
3756.84351	0.99239
3754.91494	1.00028
3752.98638	1.00553
3751.05781	0.99466
3749.12925	0.98758
3747.20069	0.99495
3745.27212	0.99591
3743.34356	0.99118
3741.41499	0.99682
3739.48643	1.00599
3737.55786	1.00869
3735.62930	0.99937
3733.70074	0.98704
3731.77217	0.98461
3729.84361	0.98949
3727.91504	0.99489
3725.98648	0.99553
3724.05791	0.99242
3722.12935	0.98972
3720.20078	0.98867
3718.27222	0.98952
3716.34366	0.99258
3714.41509	0.99653
3712.48653	0.99304
3710.55796	0.98093
3708.62940	0.97870
3706.70083	0.98400
3704.77227	0.98869
3702.84370	0.98695
3700.91514	0.98199
3698.98658	0.98331
3697.05801	0.98785
3695.12945	0.99106
3693.20088	0.99320
3691.27232	0.99295
3689.34375	0.98626
3687.41519	0.98295
3685.48662	0.98785
3683.55806	0.99455
3681.62950	0.99911
3679.70093	1.00237
3677.77237	1.00455
3675.84380	0.99827
3673.91524	0.99551
3671.98667	1.00100
3670.05811	0.99814
3668.12954	0.99547
3666.20098	1.00210
3664.27242	1.00911
3662.34385	1.01399
3660.41529	1.01952
3658.48672	1.02473
3656.55816	1.02585
3654.62959	1.02891
3652.70103	1.03808
3650.77246	1.04158
3648.84390	1.02768
3646.91534	1.02673
3644.98677	1.03870
3643.05821	1.04942
3641.12964	1.05609
3639.20108	1.06092
3637.27251	1.06628
3635.34395	1.07207
3633.41538	1.07827
3631.48682	1.08350
3629.55826	1.08024
3627.62969	1.07517
3625.70113	1.08369
3623.77256	1.09677
3621.84400	1.10695
3619.91543	1.10916
3617.98687	1.10871
3616.05830	1.11485
3614.12974	1.12071
3612.20118	1.12309
3610.27261	1.12548
3608.34405	1.12687
3606.41548	1.13032
3604.48692	1.13766
3602.55835	1.14400
3600.62979	1.14765
3598.70123	1.15227
3596.77266	1.15763
3594.84410	1.16172
3592.91553	1.16667
3590.98697	1.17330
3589.05840	1.17917
3587.12984	1.18168
3585.20127	1.18430
3583.27271	1.18962
3581.34415	1.19569
3579.41558	1.20060
3577.48702	1.20410
3575.55845	1.20775
3573.62989	1.21336
3571.70132	1.22130
3569.77276	1.22840
3567.84419	1.22897
3565.91563	1.22738
3563.98707	1.23387
3562.05850	1.24192
3560.12994	1.24656
3558.20137	1.25171
3556.27281	1.25958
3554.34424	1.26668
3552.41568	1.27115
3550.48711	1.27673
3548.55855	1.28464
3546.62999	1.29028
3544.70142	1.29330
3542.77286	1.29799
3540.84429	1.30415
3538.91573	1.30986
3536.98716	1.31402
3535.05860	1.31756
3533.13003	1.32267
3531.20147	1.32864
3529.27291	1.33245
3527.34434	1.33611
3525.41578	1.34227
3523.48721	1.34803
3521.55865	1.35417
3519.63008	1.36290
3517.70152	1.37181
3515.77295	1.37800
3513.84439	1.38216
3511.91583	1.38620
3509.98726	1.39113
3508.05870	1.39941
3506.13013	1.41097
3504.20157	1.42073
3502.27300	1.42641
3500.34444	1.43154
3498.41587	1.43717
3496.48731	1.44316
3494.55875	1.45035
3492.63018	1.45798
3490.70162	1.46445
3488.77305	1.46936
3486.84449	1.47440
3484.91592	1.47961
3482.98736	1.48417
3481.05879	1.48970
3479.13023	1.49654
3477.20167	1.50257
3475.27310	1.50598
3473.34454	1.50692
3471.41597	1.50811
3469.48741	1.51193
3467.55884	1.51624
3465.63028	1.51827
3463.70171	1.52151
3461.77315	1.52912
3459.84459	1.53609
3457.91602	1.53677
3455.98746	1.53532
3454.05889	1.53729
3452.13033	1.54030
3450.20176	1.54222
3448.27320	1.54377
3446.34464	1.54425
3444.41607	1.54521
3442.48751	1.54928
3440.55894	1.55416
3438.63038	1.55636
3436.70181	1.55764
3434.77325	1.56106
3432.84468	1.56571
3430.91612	1.56903
3428.98756	1.57000
3427.05899	1.56841
3425.13043	1.56532
3423.20186	1.56175
3421.27330	1.55826
3419.34473	1.55895
3417.41617	1.56560
3415.48760	1.57238
3413.55904	1.57491
3411.63048	1.57638
3409.70191	1.57901
3407.77335	1.57991
3405.84478	1.57931
3403.91622	1.58072
3401.98765	1.58430
3400.05909	1.58639
3398.13052	1.58580
3396.20196	1.58559
3394.27340	1.58595
3392.34483	1.58610
3390.41627	1.58787
3388.48770	1.59105
3386.55914	1.59496
3384.63057	1.59877
3382.70201	1.60128
3380.77344	1.60410
3378.84488	1.60624
3376.91632	1.60416
3374.98775	1.60057
3373.05919	1.60115
3371.13062	1.60593
3369.20206	1.61106
3367.27349	1.61464
3365.34493	1.61677
3363.41636	1.61645
3361.48780	1.61374
3359.55924	1.61335
3357.63067	1.61740
3355.70211	1.62139
3353.77354	1.62449
3351.84498	1.62959
3349.91641	1.63427
3347.98785	1.63449
3346.05928	1.63320
3344.13072	1.63628
3342.20216	1.64222
3340.27359	1.64620
3338.34503	1.64957
3336.41646	1.65510
3334.48790	1.66026
3332.55933	1.66301
3330.63077	1.66703
3328.70220	1.67417
3326.77364	1.68036
3324.84508	1.68252
3322.91651	1.68246
3320.98795	1.68286
3319.05938	1.68474
3317.13082	1.68933
3315.20225	1.69522
3313.27369	1.69950
3311.34513	1.70619
3309.41656	1.71586
3307.48800	1.71784
3305.55943	1.71207
3303.63087	1.70947
3301.70230	1.71205
3299.77374	1.71713
3297.84517	1.72334
3295.91661	1.72748
3293.98805	1.72752
3292.05948	1.72736
3290.13092	1.73125
3288.20235	1.73348
3286.27379	1.73006
3284.34522	1.72742
3282.41666	1.72560
3280.48809	1.72182
3278.55953	1.72054
3276.63097	1.72156
3274.70240	1.71908
3272.77384	1.71176
3270.84527	1.70329
3268.91671	1.69611
3266.98814	1.69062
3265.05958	1.68923
3263.13101	1.69154
3261.20245	1.69177
3259.27389	1.68819
3257.34532	1.68496
3255.41676	1.68235
3253.48819	1.67597
3251.55963	1.66556
3249.63106	1.65470
3247.70250	1.64425
3245.77393	1.63269
3243.84537	1.62142
3241.91681	1.61430
3239.98824	1.61144
3238.05968	1.60912
3236.13111	1.60413
3234.20255	1.59688
3232.27398	1.59059
3230.34542	1.58624
3228.41685	1.58177
3226.48829	1.57719
3224.55973	1.57382
3222.63116	1.57082
3220.70260	1.56699
3218.77403	1.56229
3216.84547	1.55762
3214.91690	1.55266
3212.98834	1.54642
3211.05977	1.53977
3209.13121	1.53384
3207.20265	1.52945
3205.27408	1.52610
3203.34552	1.52310
3201.41695	1.52212
3199.48839	1.52163
3197.55982	1.51810
3195.63126	1.51323
3193.70269	1.50752
3191.77413	1.49886
3189.84557	1.49142
3187.91700	1.48904
3185.98844	1.48788
3184.05987	1.48393
3182.13131	1.47811
3180.20274	1.47254
3178.27418	1.46761
3176.34562	1.46350
3174.41705	1.45944
3172.48849	1.45418
3170.55992	1.44961
3168.63136	1.44706
3166.70279	1.44523
3164.77423	1.44403
3162.84566	1.44291
3160.91710	1.43999
3158.98854	1.43571
3157.05997	1.43143
3155.13141	1.42819
3153.20284	1.42669
3151.27428	1.42413
3149.34571	1.41894
3147.41715	1.41454
3145.48858	1.41257
3143.56002	1.41187
3141.63146	1.41087
3139.70289	1.40858
3137.77433	1.40665
3135.84576	1.40631
3133.91720	1.40568
3131.98863	1.40377
3130.06007	1.40164
3128.13150	1.39938
3126.20294	1.39813
3124.27438	1.39869
3122.34581	1.39853
3120.41725	1.39780
3118.48868	1.39884
3116.56012	1.40034
3114.63155	1.40111
3112.70299	1.40221
3110.77442	1.40315
3108.84586	1.40315
3106.91730	1.40222
3104.98873	1.39982
3103.06017	1.39794
3101.13160	1.39868
3099.20304	1.39951
3097.27447	1.39844
3095.34591	1.39673
3093.41734	1.39538
3091.48878	1.39423
3089.56022	1.39265
3087.63165	1.39065
3085.70309	1.38916
3083.77452	1.38785
3081.84596	1.38529
3079.91739	1.38225
3077.98883	1.38023
3076.06026	1.37846
3074.13170	1.37701
3072.20314	1.37657
3070.27457	1.37527
3068.34601	1.37240
3066.41744	1.36990
3064.48888	1.36767
3062.56031	1.36444
3060.63175	1.36110
3058.70318	1.35843
3056.77462	1.35550
3054.84606	1.35143
3052.91749	1.34599
3050.98893	1.34060
3049.06036	1.33737
3047.13180	1.33554
3045.20323	1.33327
3043.27467	1.33008
3041.34610	1.32626
3039.41754	1.32403
3037.48898	1.32409
3035.56041	1.32326
3033.63185	1.31937
3031.70328	1.31348
3029.77472	1.30793
3027.84615	1.30494
3025.91759	1.30435
3023.98903	1.30323
3022.06046	1.30056
3020.13190	1.29796
3018.20333	1.29592
3016.27477	1.29463
3014.34620	1.29419
3012.41764	1.29336
3010.48907	1.29111
3008.56051	1.28817
3006.63195	1.28601
3004.70338	1.28438
3002.77482	1.28230
3000.84625	1.28065
2998.91769	1.28075
2996.98912	1.28253
2995.06056	1.28446
2993.13199	1.28624
2991.20343	1.28969
2989.27487	1.29386
2987.34630	1.29683
2985.41774	1.30047
2983.48917	1.30603
2981.56061	1.31182
2979.63204	1.31760
2977.70348	1.32493
2975.77491	1.33377
2973.84635	1.34276
2971.91779	1.35099
2969.98922	1.35748
2968.06066	1.36220
2966.13209	1.36705
2964.20353	1.37200
2962.27496	1.37482
2960.34640	1.37576
2958.41783	1.37641
2956.48927	1.37581
2954.56071	1.37229
2952.63214	1.36605
2950.70358	1.35908
2948.77501	1.35431
2946.84645	1.35304
2944.91788	1.35493
2942.98932	1.36036
2941.06075	1.36957
2939.13219	1.38079
2937.20363	1.39245
2935.27506	1.40418
2933.34650	1.41530
2931.41793	1.42514
2929.48937	1.43315
2927.56080	1.43854
2925.63224	1.44182
2923.70367	1.44467
2921.77511	1.44724
2919.84655	1.44670
2917.91798	1.43941
2915.98942	1.42431
2914.06085	1.40378
2912.13229	1.38209
2910.20372	1.36295
2908.27516	1.34803
2906.34659	1.33682
2904.41803	1.32799
2902.48947	1.32064
2900.56090	1.31463
2898.63234	1.30985
2896.70377	1.30543
2894.77521	1.30117
2892.84664	1.29710
2890.91808	1.29247
2888.98952	1.28808
2887.06095	1.28577
2885.13239	1.28499
2883.20382	1.28399
2881.27526	1.28279
2879.34669	1.28288
2877.41813	1.28488
2875.48956	1.28700
2873.56100	1.28593
2871.63244	1.28080
2869.70387	1.27394
2867.77531	1.26752
2865.84674	1.26269
2863.91818	1.26011
2861.98961	1.26004
2860.06105	1.26203
2858.13248	1.26577
2856.20392	1.27159
2854.27536	1.27846
2852.34679	1.28304
2850.41823	1.28048
2848.48966	1.26662
2846.56110	1.24356
2844.63253	1.22017
2842.70397	1.20265
2840.77540	1.19021
2838.84684	1.18069
2836.91828	1.17350
2834.98971	1.16789
2833.06115	1.16317
2831.13258	1.15986
2829.20402	1.15779
2827.27545	1.15511
2825.34689	1.15165
2823.41832	1.14864
2821.48976	1.14551
2819.56120	1.14164
2817.63263	1.13791
2815.70407	1.13478
2813.77550	1.13200
2811.84694	1.12956
2809.91837	1.12743
2807.98981	1.12529
2806.06124	1.12308
2804.13268	1.12104
2802.20412	1.11901
2800.27555	1.11665
2798.34699	1.11404
2796.41842	1.11101
2794.48986	1.10791
2792.56129	1.10580
2790.63273	1.10437
2788.70416	1.10259
2786.77560	1.10016
2784.84704	1.09716
2782.91847	1.09387
2780.98991	1.09093
2779.06134	1.08840
2777.13278	1.08584
2775.20421	1.08384
2773.27565	1.08276
2771.34708	1.08138
2769.41852	1.07895
2767.48996	1.07633
2765.56139	1.07443
2763.63283	1.07279
2761.70426	1.07096
2759.77570	1.06946
2757.84713	1.06781
2755.91857	1.06536
2753.99001	1.06305
2752.06144	1.06156
2750.13288	1.06027
2748.20431	1.05873
2746.27575	1.05684
2744.34718	1.05501
2742.41862	1.05386
2740.49005	1.05325
2738.56149	1.05258
2736.63293	1.05112
2734.70436	1.04881
2732.77580	1.04651
2730.84723	1.04490
2728.91867	1.04374
2726.99010	1.04188
2725.06154	1.03947
2723.13297	1.03854
2721.20441	1.03881
2719.27585	1.03785
2717.34728	1.03532
2715.41872	1.03273
2713.49015	1.03069
2711.56159	1.02883
2709.63302	1.02699
2707.70446	1.02551
2705.77589	1.02460
2703.84733	1.02409
2701.91877	1.02380
2699.99020	1.02322
2698.06164	1.02196
2696.13307	1.02038
2694.20451	1.01903
2692.27594	1.01818
2690.34738	1.01749
2688.41881	1.01620
2686.49025	1.01449
2684.56169	1.01326
2682.63312	1.01250
2680.70456	1.01155
2678.77599	1.01031
2676.84743	1.00890
2674.91886	1.00708
2672.99030	1.00484
2671.06173	1.00286
2669.13317	1.00175
2667.20461	1.00120
2665.27604	1.00023
2663.34748	0.99839
2661.41891	0.99632
2659.49035	0.99475
2657.56178	0.99372
2655.63322	0.99267
2653.70465	0.99116
2651.77609	0.98947
2649.84753	0.98808
2647.91896	0.98688
2645.99040	0.98555
2644.06183	0.98373
2642.13327	0.98175
2640.20470	0.98051
2638.27614	0.97966
2636.34757	0.97806
2634.41901	0.97608
2632.49045	0.97486
2630.56188	0.97393
2628.63332	0.97222
2626.70475	0.97040
2624.77619	0.96937
2622.84762	0.96848
2620.91906	0.96717
2618.99049	0.96564
2617.06193	0.96405
2615.13337	0.96293
2613.20480	0.96247
2611.27624	0.96190
2609.34767	0.96084
2607.41911	0.95986
2605.49054	0.95924
2603.56198	0.95841
2601.63342	0.95703
2599.70485	0.95563
2597.77629	0.95447
2595.84772	0.95341
2593.91916	0.95258
2591.99059	0.95195
2590.06203	0.95117
2588.13346	0.94993
2586.20490	0.94845
2584.27634	0.94710
2582.34777	0.94578
2580.41921	0.94447
2578.49064	0.94353
2576.56208	0.94266
2574.63351	0.94129
2572.70495	0.93959
2570.77638	0.93801
2568.84782	0.93659
2566.91926	0.93552
2564.99069	0.93467
2563.06213	0.93351
2561.13356	0.93202
2559.20500	0.93063
2557.27643	0.92944
2555.34787	0.92836
2553.41930	0.92752
2551.49074	0.92711
2549.56218	0.92686
2547.63361	0.92643
2545.70505	0.92566
2543.77648	0.92474
2541.84792	0.92424
2539.91935	0.92427
2537.99079	0.92388
2536.06222	0.92251
2534.13366	0.92092
2532.20510	0.91980
2530.27653	0.91904
2528.34797	0.91848
2526.41940	0.91790
2524.49084	0.91691
2522.56227	0.91565
2520.63371	0.91455
2518.70514	0.91363
2516.77658	0.91249
2514.84802	0.91086
2512.91945	0.90908
2510.99089	0.90740
2509.06232	0.90570
2507.13376	0.90421
2505.20519	0.90314
2503.27663	0.90255
2501.34806	0.90196
2499.41950	0.90070
2497.49094	0.89917
2495.56237	0.89821
2493.63381	0.89752
2491.70524	0.89649
2489.77668	0.89533
2487.84811	0.89422
2485.91955	0.89300
2483.99098	0.89178
2482.06242	0.89067
2480.13386	0.88957
2478.20529	0.88833
2476.27673	0.88696
2474.34816	0.88563
2472.41960	0.88445
2470.49103	0.88337
2468.56247	0.88209
2466.63391	0.88072
2464.70534	0.87961
2462.77678	0.87857
2460.84821	0.87722
2458.91965	0.87555
2456.99108	0.87413
2455.06252	0.87332
2453.13395	0.87261
2451.20539	0.87169
2449.27683	0.87068
2447.34826	0.86972
2445.41970	0.86905
2443.49113	0.86873
2441.56257	0.86851
2439.63400	0.86828
2437.70544	0.86799
2435.77687	0.86754
2433.84831	0.86702
2431.91975	0.86637
2429.99118	0.86554
2428.06262	0.86490
2426.13405	0.86444
2424.20549	0.86342
2422.27692	0.86193
2420.34836	0.86077
2418.41979	0.86008
2416.49123	0.85929
2414.56267	0.85808
2412.63410	0.85657
2410.70554	0.85506
2408.77697	0.85359
2406.84841	0.85198
2404.91984	0.85045
2402.99128	0.84932
2401.06271	0.84836
2399.13415	0.84739
2397.20559	0.84648
2395.27702	0.84547
2393.34846	0.84441
2391.41989	0.84368
2389.49133	0.84338
2387.56276	0.84325
2385.63420	0.84320
2383.70563	0.84323
2381.77707	0.84310
2379.84851	0.84263
2377.91994	0.84215
2375.99138	0.84203
2374.06281	0.84186
2372.13425	0.84099
2370.20568	0.83907
2368.27712	0.83576
2366.34855	0.83312
2364.41999	0.83522
2362.49143	0.83744
2360.56286	0.83113
2358.63430	0.82238
2356.70573	0.81866
2354.77717	0.81894
2352.84860	0.82113
2350.92004	0.82365
2348.99147	0.82608
2347.06291	0.82758
2345.13435	0.82650
2343.20578	0.82309
2341.27722	0.81997
2339.34865	0.81885
2337.42009	0.81963
2335.49152	0.82048
2333.56296	0.82027
2331.63440	0.81992
2329.70583	0.82019
2327.77727	0.81986
2325.84870	0.81893
2323.92014	0.81863
2321.99157	0.81935
2320.06301	0.82078
2318.13444	0.82198
2316.20588	0.82231
2314.27732	0.82174
2312.34875	0.82080
2310.42019	0.82024
2308.49162	0.81986
2306.56306	0.81917
2304.63449	0.81834
2302.70593	0.81756
2300.77736	0.81692
2298.84880	0.81661
2296.92024	0.81630
2294.99167	0.81550
2293.06311	0.81451
2291.13454	0.81377
2289.20598	0.81326
2287.27741	0.81301
2285.34885	0.81285
2283.42028	0.81241
2281.49172	0.81195
2279.56316	0.81160
2277.63459	0.81096
2275.70603	0.81013
2273.77746	0.80967
2271.84890	0.80931
2269.92033	0.80847
2267.99177	0.80751
2266.06320	0.80717
2264.13464	0.80728
2262.20608	0.80713
2260.27751	0.80636
2258.34895	0.80516
2256.42038	0.80402
2254.49182	0.80316
2252.56325	0.80238
2250.63469	0.80163
2248.70612	0.80100
2246.77756	0.80040
2244.84900	0.79958
2242.92043	0.79850
2240.99187	0.79741
2239.06330	0.79668
2237.13474	0.79628
2235.20617	0.79585
2233.27761	0.79528
2231.34904	0.79482
2229.42048	0.79465
2227.49192	0.79464
2225.56335	0.79465
2223.63479	0.79462
2221.70622	0.79450
2219.77766	0.79424
2217.84909	0.79408
2215.92053	0.79412
2213.99196	0.79408
2212.06340	0.79381
2210.13484	0.79371
2208.20627	0.79389
2206.27771	0.79388
2204.34914	0.79344
2202.42058	0.79285
2200.49201	0.79231
2198.56345	0.79196
2196.63488	0.79180
2194.70632	0.79166
2192.77776	0.79151
2190.84919	0.79118
2188.92063	0.79050
2186.99206	0.78971
2185.06350	0.78901
2183.13493	0.78856
2181.20637	0.78859
2179.27781	0.78877
2177.34924	0.78869
2175.42068	0.78852
2173.49211	0.78841
2171.56355	0.78826
2169.63498	0.78808
2167.70642	0.78769
2165.77785	0.78705
2163.84929	0.78652
2161.92073	0.78631
2159.99216	0.78604
2158.06360	0.78532
2156.13503	0.78435
2154.20647	0.78345
2152.27790	0.78257
2150.34934	0.78167
2148.42077	0.78089
2146.49221	0.78018
2144.56365	0.77939
2142.63508	0.77847
2140.70652	0.77738
2138.77795	0.77612
2136.84939	0.77492
2134.92082	0.77408
2132.99226	0.77351
2131.06369	0.77291
2129.13513	0.77236
2127.20657	0.77203
2125.27800	0.77169
2123.34944	0.77119
2121.42087	0.77062
2119.49231	0.77013
2117.56374	0.76978
2115.63518	0.76955
2113.70661	0.76950
2111.77805	0.76958
2109.84949	0.76944
2107.92092	0.76893
2105.99236	0.76824
2104.06379	0.76767
2102.13523	0.76744
2100.20666	0.76731
2098.27810	0.76702
2096.34953	0.76684
2094.42097	0.76680
2092.49241	0.76637
2090.56384	0.76536
2088.63528	0.76422
2086.70671	0.76334
2084.77815	0.76263
2082.84958	0.76171
2080.92102	0.76063
2078.99245	0.75962
2077.06389	0.75847
2075.13533	0.75717
2073.20676	0.75602
2071.27820	0.75515
2069.34963	0.75439
2067.42107	0.75341
2065.49250	0.75193
2063.56394	0.75042
2061.63537	0.74929
2059.70681	0.74825
2057.77825	0.74726
2055.84968	0.74637
2053.92112	0.74537
2051.99255	0.74422
2050.06399	0.74290
2048.13542	0.74155
2046.20686	0.74039
2044.27830	0.73932
2042.34973	0.73794
2040.42117	0.73647
2038.49260	0.73563
2036.56404	0.73525
2034.63547	0.73468
2032.70691	0.73401
2030.77834	0.73355
2028.84978	0.73308
2026.92122	0.73227
2024.99265	0.73133
2023.06409	0.73069
2021.13552	0.73039
2019.20696	0.73005
2017.27839	0.72933
2015.34983	0.72838
2013.42126	0.72739
2011.49270	0.72637
2009.56414	0.72548
2007.63557	0.72463
2005.70701	0.72363
2003.77844	0.72261
2001.84988	0.72166
1999.92131	0.72067
1997.99275	0.71979
1996.06418	0.71933
1994.13562	0.71876
1992.20706	0.71740
1990.27849	0.71585
1988.34993	0.71470
1986.42136	0.71370
1984.49280	0.71284
1982.56423	0.71184
1980.63567	0.71044
1978.70710	0.70878
1976.77854	0.70699
1974.84998	0.70522
1972.92141	0.70365
1970.99285	0.70222
1969.06428	0.70055
1967.13572	0.69839
1965.20715	0.69651
1963.27859	0.69520
1961.35002	0.69377
1959.42146	0.69219
1957.49290	0.69073
1955.56433	0.68924
1953.63577	0.68773
1951.70720	0.68647
1949.77864	0.68550
1947.85007	0.68462
1945.92151	0.68374
1943.99294	0.68235
1942.06438	0.68025
1940.13582	0.67865
1938.20725	0.67779
1936.27869	0.67713
1934.35012	0.67663
1932.42156	0.67624
1930.49299	0.67584
1928.56443	0.67557
1926.63586	0.67564
1924.70730	0.67574
1922.77874	0.67560
1920.85017	0.67595
1918.92161	0.67647
1916.99304	0.67661
1915.06448	0.67732
1913.13591	0.67870
1911.20735	0.67976
1909.27878	0.68006
1907.35022	0.68020
1905.42166	0.68058
1903.49309	0.68085
1901.56453	0.68083
1899.63596	0.68068
1897.70740	0.68031
1895.77883	0.67936
1893.85027	0.67831
1891.92171	0.67755
1889.99314	0.67588
1888.06458	0.67354
1886.13601	0.67196
1884.20745	0.67066
1882.27888	0.66923
1880.35032	0.66772
1878.42175	0.66612
1876.49319	0.66458
1874.56463	0.66328
1872.63606	0.66261
1870.70750	0.66187
1868.77893	0.65945
1866.85037	0.65685
1864.92180	0.65627
1862.99324	0.65639
1861.06467	0.65595
1859.13611	0.65505
1857.20755	0.65426
1855.27898	0.65380
1853.35042	0.65356
1851.42185	0.65354
1849.49329	0.65363
1847.56472	0.65386
1845.63616	0.65352
1843.70759	0.65170
1841.77903	0.65092
1839.85047	0.65172
1837.92190	0.65221
1835.99334	0.65218
1834.06477	0.65277
1832.13621	0.65355
1830.20764	0.65279
1828.27908	0.65188
1826.35051	0.65238
1824.42195	0.65290
1822.49339	0.65360
1820.56482	0.65482
1818.63626	0.65597
1816.70769	0.65719
1814.77913	0.65901
1812.85056	0.66081
1810.92200	0.66193
1808.99343	0.66313
1807.06487	0.66511
1805.13631	0.66759
1803.20774	0.66982
1801.27918	0.67098
1799.35061	0.67153
1797.42205	0.67278
1795.49348	0.67453
1793.56492	0.67525
1791.63635	0.67426
1789.70779	0.67430
1787.77923	0.67577
1785.85066	0.67681
1783.92210	0.67729
1781.99353	0.67782
1780.06497	0.67822
1778.13640	0.67903
1776.20784	0.68061
1774.27927	0.68217
1772.35071	0.68223
1770.42215	0.68255
1768.49358	0.68487
1766.56502	0.68810
1764.63645	0.69176
1762.70789	0.69534
1760.77932	0.69916
1758.85076	0.70405
1756.92220	0.71018
1754.99363	0.71730
1753.06507	0.72512
1751.13650	0.73393
1749.20794	0.74330
1747.27937	0.75238
1745.35081	0.76070
1743.42224	0.76794
1741.49368	0.77365
1739.56512	0.77771
1737.63655	0.78102
1735.70799	0.78345
1733.77942	0.78394
1731.85086	0.78523
1729.92229	0.78841
1727.99373	0.79206
1726.06516	0.79591
1724.13660	0.80015
1722.20804	0.80509
1720.27947	0.81096
1718.35091	0.81814
1716.42234	0.82683
1714.49378	0.83602
1712.56521	0.84654
1710.63665	0.85960
1708.70808	0.87544
1706.77952	0.89726
1704.85096	0.92599
1702.92239	0.95452
1700.99383	0.99349
1699.06526	1.05116
1697.13670	1.10607
1695.20813	1.16230
1693.27957	1.20635
1691.35100	1.24164
1689.42244	1.28196
1687.49388	1.31974
1685.56531	1.35764
1683.63675	1.41011
1681.70818	1.44719
1679.77962	1.47056
1677.85105	1.49410
1675.92249	1.52145
1673.99392	1.54977
1672.06536	1.57272
1670.13680	1.59621
1668.20823	1.61981
1666.27967	1.63425
1664.35110	1.64709
1662.42254	1.66165
1660.49397	1.67306
1658.56541	1.68189
1656.63684	1.68925
1654.70828	1.69498
1652.77972	1.69297
1650.85115	1.69189
1648.92259	1.69446
1646.99402	1.69157
1645.06546	1.68423
1643.13689	1.67977
1641.20833	1.67748
1639.27976	1.67536
1637.35120	1.67301
1635.42264	1.66769
1633.49407	1.66202
1631.56551	1.65723
1629.63694	1.64752
1627.70838	1.63311
1625.77981	1.61858
1623.85125	1.59943
1621.92269	1.57444
1619.99412	1.55328
1618.06556	1.52478
1616.13699	1.47842
1614.20843	1.44291
1612.27986	1.41717
1610.35130	1.38849
1608.42273	1.35863
1606.49417	1.33416
1604.56561	1.31581
1602.63704	1.30127
1600.70848	1.29095
1598.77991	1.28464
1596.85135	1.28048
1594.92278	1.27736
1592.99422	1.27576
1591.06565	1.27613
1589.13709	1.27864
1587.20853	1.28375
1585.27996	1.29103
1583.35140	1.30013
1581.42283	1.31054
1579.49427	1.32109
1577.56570	1.33335
1575.63714	1.34977
1573.70857	1.36349
1571.78001	1.37456
1569.85145	1.38888
1567.92288	1.40481
1565.99432	1.41929
1564.06575	1.43391
1562.13719	1.44542
1560.20862	1.45545
1558.28006	1.47689
1556.35149	1.49578
1554.42293	1.50711
1552.49437	1.51614
1550.56580	1.52363
1548.63724	1.52846
1546.70867	1.53015
1544.78011	1.52853
1542.85154	1.52355
1540.92298	1.51583
1538.99441	1.50945
1537.06585	1.50793
1535.13729	1.50411
1533.20872	1.49481
1531.28016	1.48574
1529.35159	1.47968
1527.42303	1.47278
1525.49446	1.46626
1523.56590	1.46298
1521.63733	1.45801
1519.70877	1.45326
1517.78021	1.44823
1515.85164	1.43815
1513.92308	1.42614
1511.99451	1.41275
1510.06595	1.39732
1508.13738	1.36850
1506.20882	1.31696
1504.28025	1.29240
1502.35169	1.27884
1500.42313	1.26139
1498.49456	1.23581
1496.56600	1.20409
1494.63743	1.18135
1492.70887	1.16774
1490.78030	1.15062
1488.85174	1.12533
1486.92317	1.10700
1484.99461	1.09757
1483.06605	1.09122
1481.13748	1.08644
1479.20892	1.08529
1477.28035	1.08897
1475.35179	1.09671
1473.42322	1.10926
1471.49466	1.12410
1469.56610	1.13488
1467.63753	1.14309
1465.70897	1.15078
1463.78040	1.15766
1461.85184	1.16308
1459.92327	1.16818
1457.99471	1.17450
1456.06614	1.18098
1454.13758	1.18473
1452.20902	1.18658
1450.28045	1.18722
1448.35189	1.18661
1446.42332	1.18448
1444.49476	1.18140
1442.56619	1.17766
1440.63763	1.17415
1438.70906	1.16968
1436.78050	1.15990
1434.85194	1.14910
1432.92337	1.14235
1430.99481	1.13497
1429.06624	1.12680
1427.13768	1.12215
1425.20911	1.12052
1423.28055	1.12039
1421.35198	1.12154
1419.42342	1.12310
1417.49486	1.12474
1415.56629	1.12668
1413.63773	1.12838
1411.70916	1.13001
1409.78060	1.13207
1407.85203	1.13470
1405.92347	1.13830
1403.99490	1.14311
1402.06634	1.14846
1400.13778	1.15352
1398.20921	1.15707
1396.28065	1.15895
1394.35208	1.16076
1392.42352	1.16405
1390.49495	1.16851
1388.56639	1.17366
1386.63782	1.18005
1384.70926	1.18752
1382.78070	1.19427
1380.85213	1.19771
1378.92357	1.19654
1376.99500	1.19048
1375.06644	1.17721
1373.13787	1.15864
1371.20931	1.14163
1369.28074	1.12431
1367.35218	1.10557
1365.42362	1.08862
1363.49505	1.07139
1361.56649	1.05479
1359.63792	1.04465
1357.70936	1.03933
1355.78079	1.03557
1353.85223	1.03263
1351.92366	1.03077
1349.99510	1.02969
1348.06654	1.02900
1346.13797	1.02891
1344.20941	1.02981
1342.28084	1.03138
1340.35228	1.03282
1338.42371	1.03444
1336.49515	1.03779
1334.56659	1.04298
1332.63802	1.04918
1330.70946	1.05561
1328.78089	1.06097
1326.85233	1.06437
1324.92376	1.06593
1322.99520	1.06659
1321.06663	1.06741
1319.13807	1.06842
1317.20951	1.06914
1315.28094	1.06946
1313.35238	1.06946
1311.42381	1.06927
1309.49525	1.06901
1307.56668	1.06833
1305.63812	1.06714
1303.70955	1.06600
1301.78099	1.06479
1299.85243	1.06268
1297.92386	1.05956
1295.99530	1.05667
1294.06673	1.05495
1292.13817	1.05406
1290.20960	1.05378
1288.28104	1.05411
1286.35247	1.05486
1284.42391	1.05574
1282.49535	1.05591
1280.56678	1.05496
1278.63822	1.05401
1276.70965	1.05415
1274.78109	1.05516
1272.85252	1.05655
1270.92396	1.05824
1268.99539	1.06014
1267.06683	1.06188
1265.13827	1.06291
1263.20970	1.06325
1261.28114	1.06318
1259.35257	1.06298
1257.42401	1.06307
1255.49544	1.06350
1253.56688	1.06416
1251.63831	1.06524
1249.70975	1.06693
1247.78119	1.06892
1245.85262	1.07083
1243.92406	1.07266
1241.99549	1.07432
1240.06693	1.07523
1238.13836	1.07491
1236.20980	1.07351
1234.28123	1.07116
1232.35267	1.06773
1230.42411	1.06343
1228.49554	1.05842
1226.56698	1.05214
1224.63841	1.04431
1222.70985	1.03604
1220.78128	1.02833
1218.85272	1.02111
1216.92415	1.01456
1214.99559	1.00940
1213.06703	1.00611
1211.13846	1.00478
1209.20990	1.00446
1207.28133	1.00333
1205.35277	1.00046
1203.42420	0.99615
1201.49564	0.99095
1199.56708	0.98530
1197.63851	0.97964
1195.70995	0.97471
1193.78138	0.97122
1191.85282	0.96947
1189.92425	0.96949
1187.99569	0.97113
1186.06712	0.97393
1184.13856	0.97727
1182.21000	0.98114
1180.28143	0.98640
1178.35287	0.99376
1176.42430	1.00248
1174.49574	1.01123
1172.56717	1.01969
1170.63861	1.02824
1168.71004	1.03756
1166.78148	1.04836
1164.85292	1.05986
1162.92435	1.06951
1160.99579	1.07493
1159.06722	1.07508
1157.13866	1.06970
1155.21009	1.05947
1153.28153	1.04579
1151.35296	1.02995
1149.42440	1.01388
1147.49584	1.00010
1145.56727	0.99001
1143.63871	0.98393
1141.71014	0.98173
1139.78158	0.98272
1137.85301	0.98624
1135.92445	0.99235
1133.99588	1.00155
1132.06732	1.01394
1130.13876	1.02853
1128.21019	1.04405
1126.28163	1.05984
1124.35306	1.07476
1122.42450	1.08730
1120.49593	1.09739
1118.56737	1.10533
1116.63880	1.10961
1114.71024	1.10924
1112.78168	1.10606
1110.85311	1.10177
1108.92455	1.09685
1106.99598	1.09236
1105.06742	1.08971
1103.13885	1.08971
1101.21029	1.09163
1099.28172	1.09459
1097.35316	1.09973
1095.42460	1.10826
1093.49603	1.11942
1091.56747	1.13145
1089.63890	1.14389
1087.71034	1.15745
1085.78177	1.17208
1083.85321	1.18696
1081.92464	1.20052
1079.99608	1.20981
1078.06752	1.21310
1076.13895	1.21122
1074.21039	1.20505
1072.28182	1.19487
1070.35326	1.18171
1068.42469	1.16843
1066.49613	1.15702
1064.56756	1.14561
1062.63900	1.13317
1060.71044	1.12140
1058.78187	1.11112
1056.85331	1.10272
1054.92474	1.09666
1052.99618	1.09218
1051.06761	1.08879
1049.13905	1.08702
1047.21049	1.08758
1045.28192	1.09096
1043.35336	1.09709
1041.42479	1.10468
1039.49623	1.11129
1037.56766	1.11561
1035.63910	1.11788
1033.71053	1.11815
1031.78197	1.11671
1029.85341	1.11353
1027.92484	1.10800
1025.99628	1.10064
1024.06771	1.09231
1022.13915	1.08358
1020.21058	1.07574
1018.28202	1.06919
1016.35345	1.06240
1014.42489	1.05404
1012.49633	1.04351
1010.56776	1.03011
1008.63920	1.01422
1006.71063	0.99773
1004.78207	0.98220
1002.85350	0.96818
1000.92494	0.95613
998.99637	0.94665
997.06781	0.93952
995.13925	0.93374
993.21068	0.92836
991.28212	0.92284
989.35355	0.91705
987.42499	0.91133
985.49642	0.90642
983.56786	0.90284
981.63929	0.90082
979.71073	0.90022
977.78217	0.89975
975.85360	0.89792
973.92504	0.89443
971.99647	0.88949
970.06791	0.88332
968.13934	0.87672
966.21078	0.87101
964.28221	0.86774
962.35365	0.86852
960.42509	0.87391
958.49652	0.88251
956.56796	0.89100
954.63939	0.89563
952.71083	0.89491
950.78226	0.89006
948.85370	0.88316
946.92513	0.87600
944.99657	0.86997
943.06801	0.86559
941.13944	0.86214
939.21088	0.85890
937.28231	0.85560
935.35375	0.85218
933.42518	0.84911
931.49662	0.84662
929.56805	0.84420
927.63949	0.84214
925.71093	0.84162
923.78236	0.84269
921.85380	0.84426
919.92523	0.84555
917.99667	0.84671
916.06810	0.84837
914.13954	0.85098
912.21098	0.85498
910.28241	0.86060
908.35385	0.86759
906.42528	0.87590
904.49672	0.88517
902.56815	0.89426
900.63959	0.90205
898.71102	0.90767
896.78246	0.91096
894.85390	0.91267
892.92533	0.91307
890.99677	0.91188
889.06820	0.90937
887.13964	0.90604
885.21107	0.90212
883.28251	0.89802
881.35394	0.89447
879.42538	0.89125
877.49682	0.88718
875.56825	0.88240
873.63969	0.87827
871.71112	0.87529
869.78256	0.87325
867.85399	0.87180
865.92543	0.87087
863.99686	0.87152
862.06830	0.87488
860.13974	0.88085
858.21117	0.88861
856.28261	0.89705
854.35404	0.90593
852.42548	0.91577
850.49691	0.92578
848.56835	0.93508
846.63978	0.94359
844.71122	0.95126
842.78266	0.95881
840.85409	0.96650
838.92553	0.97280
836.99696	0.97688
835.06840	0.97929
833.13983	0.98002
831.21127	0.97914
829.28270	0.97725
827.35414	0.97445
825.42558	0.97088
823.49701	0.96732
821.56845	0.96430
819.63988	0.96160
817.71132	0.95913
815.78275	0.95717
813.85419	0.95614
811.92562	0.95671
809.99706	0.95894
808.06850	0.96202
806.13993	0.96548
804.21137	0.96932
802.28280	0.97349
800.35424	0.97819
798.42567	0.98312
796.49711	0.98701
794.56854	0.98952
792.63998	0.99155
790.71142	0.99349
788.78285	0.99490
786.85429	0.99546
784.92572	0.99540
782.99716	0.99472
781.06859	0.99300
779.14003	0.99011
777.21147	0.98692
775.28290	0.98456
773.35434	0.98274
771.42577	0.98049
769.49721	0.97823
767.56864	0.97679
765.64008	0.97608
763.71151	0.97592
761.78295	0.97687
759.85439	0.97962
757.92582	0.98376
755.99726	0.98862
754.06869	0.99437
752.14013	1.00104
750.21156	1.00842
748.28300	1.01641
746.35443	1.02415
744.42587	1.03100
742.49731	1.03772
740.56874	1.04454
738.64018	1.05086
736.71161	1.05626
734.78305	1.06019
732.85448	1.06274
730.92592	1.06419
728.99735	1.06479
727.06879	1.06509
725.14023	1.06480
723.21166	1.06394
721.28310	1.06319
719.35453	1.06168
717.42597	1.05844
715.49740	1.05478
713.56884	1.05189
711.64027	1.04948
709.71171	1.04796
707.78315	1.04800
705.85458	1.04898
703.92602	1.04994
701.99745	1.05026
700.06889	1.04961
698.14032	1.04869
696.21176	1.04806
694.28319	1.04665
692.35463	1.04377
690.42607	1.03992
688.49750	1.03428
686.56894	1.02560
684.64037	1.01516
682.71181	1.00484
680.78324	0.99510
678.85468	0.98508
676.92611	0.97312
674.99755	0.95980
673.06899	0.94837
671.14042	0.93933
669.21186	0.92757
667.28329	0.91420
665.35473	0.90799
663.42616	0.90449
661.49760	0.90251
659.56903	0.90310
657.64047	0.90460
655.71191	0.90610
653.78334	0.90940
651.85478	0.91581
649.92621	0.92456
647.99765	0.93518
646.06908	0.94784
644.14052	0.96216
642.21195	0.97787
640.28339	0.99494
638.35483	1.01225
636.42626	1.02736
634.49770	1.03869
632.56913	1.04876
630.64057	1.05947
628.71200	1.06731
626.78344	1.07048
624.85488	1.07142
622.92631	1.07048
620.99775	1.06662
619.06918	1.06102
617.14062	1.05380
615.21205	1.04380
613.28349	1.03174
611.35492	1.01952
609.42636	1.00921
607.49780	1.00168
605.56923	0.99631
603.64067	0.99213
601.71210	0.98907
599.78354	0.98738
