3997.91406	0.62404
3995.98550	0.62398
3994.05693	0.62400
3992.12837	0.62368
3990.19980	0.62268
3988.27124	0.62162
3986.34268	0.62126
3984.41411	0.62138
3982.48555	0.62120
3980.55698	0.62062
3978.62842	0.62024
3976.69985	0.62016
3974.77129	0.61980
3972.84272	0.61896
3970.91416	0.61826
3968.98560	0.61831
3967.05703	0.61893
3965.12847	0.61954
3963.19990	0.61972
3961.27134	0.61936
3959.34277	0.61857
3957.41421	0.61746
3955.48564	0.61657
3953.55708	0.61657
3951.62852	0.61705
3949.69995	0.61694
3947.77139	0.61664
3945.84282	0.61708
3943.91426	0.61716
3941.98569	0.61659
3940.05713	0.61663
3938.12856	0.61720
3936.20000	0.61814
3934.27144	0.61870
3932.34287	0.61723
3930.41431	0.61496
3928.48574	0.61452
3926.55718	0.61513
3924.62861	0.61514
3922.70005	0.61515
3920.77148	0.61558
3918.84292	0.61504
3916.91436	0.61303
3914.98579	0.61141
3913.05723	0.61116
3911.12866	0.61134
3909.20010	0.61188
3907.27153	0.61287
3905.34297	0.61236
3903.41440	0.60944
3901.48584	0.60672
3899.55728	0.60486
3897.62871	0.60480
3895.70015	0.60655
3893.77158	0.60755
3891.84302	0.60596
3889.91445	0.60512
3887.98589	0.60635
3886.05733	0.60626
3884.12876	0.60524
3882.20020	0.60469
3880.27163	0.60241
3878.34307	0.60205
3876.41450	0.60430
3874.48594	0.60557
3872.55737	0.60545
3870.62881	0.60400
3868.70025	0.60209
3866.77168	0.60192
3864.84312	0.60092
3862.91455	0.59916
3860.98599	0.59972
3859.05742	0.60187
3857.12886	0.60455
3855.20029	0.60561
3853.27173	0.59993
3851.34317	0.59603
3849.41460	0.59748
3847.48604	0.59944
3845.55747	0.60026
3843.62891	0.59975
3841.70034	0.59891
3839.77178	0.59728
3837.84321	0.59475
3835.91465	0.59493
3833.98609	0.59658
3832.05752	0.59668
3830.12896	0.59565
3828.20039	0.59468
3826.27183	0.59436
3824.34326	0.59582
3822.41470	0.59642
3820.48613	0.59315
3818.55757	0.59155
3816.62901	0.59066
3814.70044	0.58942
3812.77188	0.59037
3810.84331	0.59234
3808.91475	0.59338
3806.98618	0.59180
3805.05762	0.59008
3803.12905	0.58880
3801.20049	0.58619
3799.27193	0.58627
3797.34336	0.58724
3795.41480	0.58692
3793.48623	0.58727
3791.55767	0.58795
3789.62910	0.58793
3787.70054	0.58755
3785.77197	0.58670
3783.84341	0.58624
3781.91485	0.58696
3779.98628	0.58664
3778.05772	0.58489
3776.12915	0.58445
3774.20059	0.58542
3772.27202	0.58605
3770.34346	0.58472
3768.41489	0.58319
3766.48633	0.58260
3764.55777	0.58182
3762.62920	0.58183
3760.70064	0.58154
3758.77207	0.57988
3756.84351	0.58006
3754.91494	0.58255
3752.98638	0.58436
3751.05781	0.58128
3749.12925	0.57783
3747.20069	0.57861
3745.27212	0.57726
3743.34356	0.57411
3741.41499	0.57541
3739.48643	0.57870
3737.55786	0.58019
3735.62930	0.57719
3733.70074	0.57292
3731.77217	0.57246
3729.84361	0.57415
3727.91504	0.57579
3725.98648	0.57605
3724.05791	0.57494
3722.12935	0.57324
3720.20078	0.57158
3718.27222	0.57111
3716.34366	0.57218
3714.41509	0.57338
3712.48653	0.57160
3710.55796	0.56719
3708.62940	0.56640
3706.70083	0.56814
3704.77227	0.56986
3702.84370	0.56996
3700.91514	0.56905
3698.98658	0.56898
3697.05801	0.56925
3695.12945	0.56993
3693.20088	0.57161
3691.27232	0.57240
3689.34375	0.56967
3687.41519	0.56846
3685.48662	0.57034
3683.55806	0.57244
3681.62950	0.57385
3679.70093	0.57504
3677.77237	0.57614
3675.84380	0.57491
3673.91524	0.57423
3671.98667	0.57625
3670.05811	0.57748
3668.12954	0.57885
3666.20098	0.58145
3664.27242	0.58406
3662.34385	0.58668
3660.41529	0.58948
3658.48672	0.59132
3656.55816	0.59149
3654.62959	0.59303
3652.70103	0.59697
3650.77246	0.59959
3648.84390	0.59827
3646.91534	0.59982
3644.98677	0.60363
3643.05821	0.60673
3641.12964	0.60903
3639.20108	0.61135
3637.27251	0.61373
3635.34395	0.61619
3633.41538	0.61952
3631.48682	0.62289
3629.55826	0.62314
3627.62969	0.62232
3625.70113	0.62574
3623.77256	0.63052
3621.84400	0.63457
3619.91543	0.63681
3617.98687	0.63838
3616.05830	0.64150
3614.12974	0.64454
3612.20118	0.64674
3610.27261	0.64930
3608.34405	0.65235
3606.41548	0.65560
3604.48692	0.65905
3602.55835	0.66260
3600.62979	0.66577
3598.70123	0.66865
3596.77266	0.67155
3594.84410	0.67425
3592.91553	0.67741
3590.98697	0.68151
3589.05840	0.68547
3587.12984	0.68778
3585.20127	0.69018
3583.27271	0.69376
3581.34415	0.69727
3579.41558	0.70023
3577.48702	0.70293
3575.55845	0.70576
3573.62989	0.70908
3571.70132	0.71332
3569.77276	0.71767
3567.84419	0.72063
3565.91563	0.72306
3563.98707	0.72646
3562.05850	0.72995
3560.12994	0.73293
3558.20137	0.73562
3556.27281	0.73809
3554.34424	0.74022
3552.41568	0.74237
3550.48711	0.74534
3548.55855	0.74962
3546.62999	0.75415
3544.70142	0.75723
3542.77286	0.75962
3540.84429	0.76275
3538.91573	0.76640
3536.98716	0.76994
3535.05860	0.77311
3533.13003	0.77620
3531.20147	0.77969
3529.27291	0.78341
3527.34434	0.78707
3525.41578	0.79057
3523.48721	0.79367
3521.55865	0.79668
3519.63008	0.80024
3517.70152	0.80487
3515.77295	0.81025
3513.84439	0.81535
3511.91583	0.81945
3509.98726	0.82278
3508.05870	0.82634
3506.13013	0.83044
3504.20157	0.83527
3502.27300	0.84051
3500.34444	0.84546
3498.41587	0.85079
3496.48731	0.85645
3494.55875	0.86094
3492.63018	0.86401
3490.70162	0.86714
3488.77305	0.87133
3486.84449	0.87567
3484.91592	0.87879
3482.98736	0.88140
3481.05879	0.88411
3479.13023	0.88556
3477.20167	0.88589
3475.27310	0.88697
3473.34454	0.88962
3471.41597	0.89262
3469.48741	0.89474
3467.55884	0.89642
3465.63028	0.89838
3463.70171	0.90020
3461.77315	0.90187
3459.84459	0.90398
3457.91602	0.90641
3455.98746	0.90891
3454.05889	0.91068
3452.13033	0.91117
3450.20176	0.91208
3448.27320	0.91436
3446.34464	0.91627
3444.41607	0.91675
3442.48751	0.91740
3440.55894	0.91936
3438.63038	0.92111
3436.70181	0.92125
3434.77325	0.92096
3432.84468	0.92172
3430.91612	0.92296
3428.98756	0.92322
3427.05899	0.92199
3425.13043	0.92042
3423.20186	0.92000
3421.27330	0.92067
3419.34473	0.92142
3417.41617	0.92159
3415.48760	0.92111
3413.55904	0.92057
3411.63048	0.92099
3409.70191	0.92252
3407.77335	0.92414
3405.84478	0.92519
3403.91622	0.92612
3401.98765	0.92691
3400.05909	0.92680
3398.13052	0.92614
3396.20196	0.92576
3394.27340	0.92577
3392.34483	0.92639
3390.41627	0.92803
3388.48770	0.93023
3386.55914	0.93209
3384.63057	0.93303
3382.70201	0.93310
3380.77344	0.93297
3378.84488	0.93295
3376.91632	0.93313
3374.98775	0.93397
3373.05919	0.93518
3371.13062	0.93592
3369.20206	0.93604
3367.27349	0.93640
3365.34493	0.93722
3363.41636	0.93761
3361.48780	0.93773
3359.55924	0.93861
3357.63067	0.94047
3355.70211	0.94241
3353.77354	0.94328
3351.84498	0.94305
3349.91641	0.94264
3347.98785	0.94333
3346.05928	0.94544
3344.13072	0.94765
3342.20216	0.94932
3340.27359	0.95072
3338.34503	0.95172
3336.41646	0.95277
3334.48790	0.95446
3332.55933	0.95648
3330.63077	0.95842
3328.70220	0.96052
3326.77364	0.96318
3324.84508	0.96583
3322.91651	0.96771
3320.98795	0.96904
3319.05938	0.97037
3317.13082	0.97195
3315.20225	0.97359
3313.27369	0.97527
3311.34513	0.97683
3309.41656	0.97813
3307.48800	0.97968
3305.55943	0.98161
3303.63087	0.98369
3301.70230	0.98571
3299.77374	0.98697
3297.84517	0.98759
3295.91661	0.98884
3293.98805	0.99051
3292.05948	0.99108
3290.13092	0.99058
3288.20235	0.99059
3286.27379	0.99135
3284.34522	0.99135
3282.41666	0.99030
3280.48809	0.98941
3278.55953	0.98915
3276.63097	0.98913
3274.70240	0.98887
3272.77384	0.98804
3270.84527	0.98639
3268.91671	0.98405
3266.98814	0.98142
3265.05958	0.97876
3263.13101	0.97622
3261.20245	0.97364
3259.27389	0.97064
3257.34532	0.96724
3255.41676	0.96395
3253.48819	0.96062
3251.55963	0.95689
3249.63106	0.95310
3247.70250	0.94932
3245.77393	0.94537
3243.84537	0.94175
3241.91681	0.93890
3239.98824	0.93630
3238.05968	0.93297
3236.13111	0.92904
3234.20255	0.92554
3232.27398	0.92271
3230.34542	0.92018
3228.41685	0.91788
3226.48829	0.91600
3224.55973	0.91424
3222.63116	0.91178
3220.70260	0.90858
3218.77403	0.90581
3216.84547	0.90396
3214.91690	0.90252
3212.98834	0.90098
3211.05977	0.89850
3209.13121	0.89492
3207.20265	0.89147
3205.27408	0.88886
3203.34552	0.88680
3201.41695	0.88496
3199.48839	0.88297
3197.55982	0.88062
3195.63126	0.87815
3193.70269	0.87563
3191.77413	0.87301
3189.84557	0.87069
3187.91700	0.86856
3185.98844	0.86576
3184.05987	0.86259
3182.13131	0.86012
3180.20274	0.85798
3178.27418	0.85549
3176.34562	0.85312
3174.41705	0.85073
3172.48849	0.84794
3170.55992	0.84566
3168.63136	0.84409
3166.70279	0.84234
3164.77423	0.83990
3162.84566	0.83734
3160.91710	0.83543
3158.98854	0.83371
3157.05997	0.83198
3155.13141	0.83090
3153.20284	0.82992
3151.27428	0.82851
3149.34571	0.82736
3147.41715	0.82635
3145.48858	0.82506
3143.56002	0.82396
3141.63146	0.82331
3139.70289	0.82287
3137.77433	0.82219
3135.84576	0.82127
3133.91720	0.82088
3131.98863	0.82140
3130.06007	0.82204
3128.13150	0.82205
3126.20294	0.82162
3124.27438	0.82149
3122.34581	0.82185
3120.41725	0.82223
3118.48868	0.82239
3116.56012	0.82240
3114.63155	0.82237
3112.70299	0.82204
3110.77442	0.82147
3108.84586	0.82142
3106.91730	0.82164
3104.98873	0.82118
3103.06017	0.82031
3101.13160	0.81952
3099.20304	0.81903
3097.27447	0.81889
3095.34591	0.81852
3093.41734	0.81777
3091.48878	0.81688
3089.56022	0.81548
3087.63165	0.81372
3085.70309	0.81248
3083.77452	0.81220
3081.84596	0.81244
3079.91739	0.81230
3077.98883	0.81146
3076.06026	0.81021
3074.13170	0.80888
3072.20314	0.80744
3070.27457	0.80573
3068.34601	0.80437
3066.41744	0.80366
3064.48888	0.80259
3062.56031	0.80090
3060.63175	0.79917
3058.70318	0.79727
3056.77462	0.79502
3054.84606	0.79297
3052.91749	0.79148
3050.98893	0.79003
3049.06036	0.78793
3047.13180	0.78547
3045.20323	0.78339
3043.27467	0.78156
3041.34610	0.77957
3039.41754	0.77733
3037.48898	0.77497
3035.56041	0.77253
3033.63185	0.77025
3031.70328	0.76863
3029.77472	0.76761
3027.84615	0.76639
3025.91759	0.76470
3023.98903	0.76318
3022.06046	0.76197
3020.13190	0.76073
3018.20333	0.75999
3016.27477	0.75968
3014.34620	0.75879
3012.41764	0.75734
3010.48907	0.75620
3008.56051	0.75568
3006.63195	0.75534
3004.70338	0.75490
3002.77482	0.75500
3000.84625	0.75602
2998.91769	0.75719
2996.98912	0.75802
2995.06056	0.75936
2993.13199	0.76194
2991.20343	0.76503
2989.27487	0.76782
2987.34630	0.77095
2985.41774	0.77496
2983.48917	0.77944
2981.56061	0.78394
2979.63204	0.78811
2977.70348	0.79193
2975.77491	0.79578
2973.84635	0.79984
2971.91779	0.80411
2969.98922	0.80854
2968.06066	0.81301
2966.13209	0.81705
2964.20353	0.81979
2962.27496	0.82099
2960.34640	0.82112
2958.41783	0.82027
2956.48927	0.81810
2954.56071	0.81457
2952.63214	0.81046
2950.70358	0.80714
2948.77501	0.80547
2946.84645	0.80547
2944.91788	0.80710
2942.98932	0.81052
2941.06075	0.81551
2939.13219	0.82129
2937.20363	0.82728
2935.27506	0.83352
2933.34650	0.83978
2931.41793	0.84529
2929.48937	0.84982
2927.56080	0.85397
2925.63224	0.85806
2923.70367	0.86156
2921.77511	0.86399
2919.84655	0.86491
2917.91798	0.86272
2915.98942	0.85556
2914.06085	0.84399
2912.13229	0.83115
2910.20372	0.82008
2908.27516	0.81166
2906.34659	0.80535
2904.41803	0.80082
2902.48947	0.79777
2900.56090	0.79537
2898.63234	0.79315
2896.70377	0.79128
2894.77521	0.78985
2892.84664	0.78848
2890.91808	0.78675
2888.98952	0.78464
2887.06095	0.78276
2885.13239	0.78162
2883.20382	0.78085
2881.27526	0.78025
2879.34669	0.78019
2877.41813	0.78024
2875.48956	0.77954
2873.56100	0.77798
2871.63244	0.77545
2869.70387	0.77173
2867.77531	0.76774
2865.84674	0.76474
2863.91818	0.76282
2861.98961	0.76198
2860.06105	0.76318
2858.13248	0.76660
2856.20392	0.77117
2854.27536	0.77644
2852.34679	0.78196
2850.41823	0.78396
2848.48966	0.77709
2846.56110	0.76199
2844.63253	0.74541
2842.70397	0.73221
2840.77540	0.72310
2838.84684	0.71707
2836.91828	0.71290
2834.98971	0.71003
2833.06115	0.70813
2831.13258	0.70677
2829.20402	0.70567
2827.27545	0.70466
2825.34689	0.70373
2823.41832	0.70294
2821.48976	0.70219
2819.56120	0.70144
2817.63263	0.70035
2815.70407	0.69870
2813.77550	0.69703
2811.84694	0.69589
2809.91837	0.69494
2807.98981	0.69335
2806.06124	0.69094
2804.13268	0.68844
2802.20412	0.68625
2800.27555	0.68408
2798.34699	0.68192
2796.41842	0.68011
2794.48986	0.67850
2792.56129	0.67670
2790.63273	0.67466
2788.70416	0.67274
2786.77560	0.67109
2784.84704	0.66948
2782.91847	0.66770
2780.98991	0.66588
2779.06134	0.66436
2777.13278	0.66338
2775.20421	0.66291
2773.27565	0.66261
2771.34708	0.66217
2769.41852	0.66167
2767.48996	0.66121
2765.56139	0.66079
2763.63283	0.66055
2761.70426	0.66034
2759.77570	0.65988
2757.84713	0.65929
2755.91857	0.65888
2753.99001	0.65856
2752.06144	0.65814
2750.13288	0.65766
2748.20431	0.65717
2746.27575	0.65676
2744.34718	0.65651
2742.41862	0.65648
2740.49005	0.65633
2738.56149	0.65558
2736.63293	0.65451
2734.70436	0.65386
2732.77580	0.65348
2730.84723	0.65293
2728.91867	0.65216
2726.99010	0.65125
2725.06154	0.65038
2723.13297	0.64969
2721.20441	0.64901
2719.27585	0.64819
2717.34728	0.64729
2715.41872	0.64635
2713.49015	0.64520
2711.56159	0.64358
2709.63302	0.64170
2707.70446	0.64007
2705.77589	0.63875
2703.84733	0.63751
2701.91877	0.63606
2699.99020	0.63449
2698.06164	0.63313
2696.13307	0.63192
2694.20451	0.63076
2692.27594	0.62978
2690.34738	0.62899
2688.41881	0.62820
2686.49025	0.62750
2684.56169	0.62714
2682.63312	0.62702
2680.70456	0.62691
2678.77599	0.62686
2676.84743	0.62693
2674.91886	0.62690
2672.99030	0.62687
2671.06173	0.62711
2669.13317	0.62732
2667.20461	0.62716
2665.27604	0.62689
2663.34748	0.62673
2661.41891	0.62675
2659.49035	0.62685
2657.56178	0.62673
2655.63322	0.62617
2653.70465	0.62528
2651.77609	0.62436
2649.84753	0.62366
2647.91896	0.62314
2645.99040	0.62255
2644.06183	0.62170
2642.13327	0.62060
2640.20470	0.61958
2638.27614	0.61869
2636.34757	0.61765
2634.41901	0.61656
2632.49045	0.61569
2630.56188	0.61491
2628.63332	0.61409
2626.70475	0.61322
2624.77619	0.61226
2622.84762	0.61131
2620.91906	0.61059
2618.99049	0.61014
2617.06193	0.60974
2615.13337	0.60921
2613.20480	0.60857
2611.27624	0.60797
2609.34767	0.60742
2607.41911	0.60685
2605.49054	0.60629
2603.56198	0.60573
2601.63342	0.60509
2599.70485	0.60445
2597.77629	0.60395
2595.84772	0.60357
2593.91916	0.60311
2591.99059	0.60251
2590.06203	0.60186
2588.13346	0.60123
2586.20490	0.60062
2584.27634	0.60002
2582.34777	0.59940
2580.41921	0.59872
2578.49064	0.59803
2576.56208	0.59732
2574.63351	0.59656
2572.70495	0.59590
2570.77638	0.59536
2568.84782	0.59471
2566.91926	0.59399
2564.99069	0.59344
2563.06213	0.59303
2561.13356	0.59252
2559.20500	0.59174
2557.27643	0.59084
2555.34787	0.59002
2553.41930	0.58936
2551.49074	0.58888
2549.56218	0.58836
2547.63361	0.58766
2545.70505	0.58710
2543.77648	0.58674
2541.84792	0.58626
2539.91935	0.58555
2537.99079	0.58485
2536.06222	0.58449
2534.13366	0.58431
2532.20510	0.58385
2530.27653	0.58309
2528.34797	0.58252
2526.41940	0.58232
2524.49084	0.58205
2522.56227	0.58148
2520.63371	0.58077
2518.70514	0.58020
2516.77658	0.57982
2514.84802	0.57941
2512.91945	0.57881
2510.99089	0.57820
2509.06232	0.57769
2507.13376	0.57718
2505.20519	0.57666
2503.27663	0.57611
2501.34806	0.57556
2499.41950	0.57511
2497.49094	0.57475
2495.56237	0.57431
2493.63381	0.57377
2491.70524	0.57342
2489.77668	0.57329
2487.84811	0.57305
2485.91955	0.57261
2483.99098	0.57225
2482.06242	0.57212
2480.13386	0.57198
2478.20529	0.57172
2476.27673	0.57146
2474.34816	0.57115
2472.41960	0.57063
2470.49103	0.56991
2468.56247	0.56919
2466.63391	0.56860
2464.70534	0.56798
2462.77678	0.56712
2460.84821	0.56610
2458.91965	0.56499
2456.99108	0.56392
2455.06252	0.56309
2453.13395	0.56250
2451.20539	0.56201
2449.27683	0.56136
2447.34826	0.56046
2445.41970	0.55960
2443.49113	0.55907
2441.56257	0.55884
2439.63400	0.55877
2437.70544	0.55856
2435.77687	0.55812
2433.84831	0.55779
2431.91975	0.55768
2429.99118	0.55768
2428.06262	0.55779
2426.13405	0.55793
2424.20549	0.55806
2422.27692	0.55823
2420.34836	0.55833
2418.41979	0.55814
2416.49123	0.55777
2414.56267	0.55748
2412.63410	0.55711
2410.70554	0.55643
2408.77697	0.55563
2406.84841	0.55482
2404.91984	0.55390
2402.99128	0.55298
2401.06271	0.55214
2399.13415	0.55130
2397.20559	0.55058
2395.27702	0.54992
2393.34846	0.54911
2391.41989	0.54842
2389.49133	0.54815
2387.56276	0.54812
2385.63420	0.54807
2383.70563	0.54783
2381.77707	0.54751
2379.84851	0.54745
2377.91994	0.54767
2375.99138	0.54789
2374.06281	0.54803
2372.13425	0.54790
2370.20568	0.54710
2368.27712	0.54640
2366.34855	0.54667
2364.41999	0.54654
2362.49143	0.54486
2360.56286	0.54300
2358.63430	0.54243
2356.70573	0.54243
2354.77717	0.54250
2352.84860	0.54326
2350.92004	0.54456
2348.99147	0.54601
2347.06291	0.54705
2345.13435	0.54666
2343.20578	0.54510
2341.27722	0.54440
2339.34865	0.54514
2337.42009	0.54559
2335.49152	0.54440
2333.56296	0.54289
2331.63440	0.54252
2329.70583	0.54326
2327.77727	0.54419
2325.84870	0.54451
2323.92014	0.54435
2321.99157	0.54402
2320.06301	0.54377
2318.13444	0.54372
2316.20588	0.54347
2314.27732	0.54282
2312.34875	0.54206
2310.42019	0.54134
2308.49162	0.54083
2306.56306	0.54060
2304.63449	0.54025
2302.70593	0.53961
2300.77736	0.53891
2298.84880	0.53824
2296.92024	0.53759
2294.99167	0.53702
2293.06311	0.53658
2291.13454	0.53623
2289.20598	0.53591
2287.27741	0.53549
2285.34885	0.53492
2283.42028	0.53448
2281.49172	0.53436
2279.56316	0.53445
2277.63459	0.53466
2275.70603	0.53496
2273.77746	0.53520
2271.84890	0.53527
2269.92033	0.53519
2267.99177	0.53507
2266.06320	0.53523
2264.13464	0.53560
2262.20608	0.53574
2260.27751	0.53559
2258.34895	0.53541
2256.42038	0.53524
2254.49182	0.53513
2252.56325	0.53516
2250.63469	0.53522
2248.70612	0.53523
2246.77756	0.53524
2244.84900	0.53530
2242.92043	0.53537
2240.99187	0.53545
2239.06330	0.53556
2237.13474	0.53560
2235.20617	0.53553
2233.27761	0.53538
2231.34904	0.53515
2229.42048	0.53487
2227.49192	0.53462
2225.56335	0.53438
2223.63479	0.53391
2221.70622	0.53309
2219.77766	0.53215
2217.84909	0.53129
2215.92053	0.53053
2213.99196	0.52977
2212.06340	0.52896
2210.13484	0.52816
2208.20627	0.52740
2206.27771	0.52663
2204.34914	0.52590
2202.42058	0.52539
2200.49201	0.52503
2198.56345	0.52467
2196.63488	0.52448
2194.70632	0.52448
2192.77776	0.52446
2190.84919	0.52434
2188.92063	0.52420
2186.99206	0.52421
2185.06350	0.52445
2183.13493	0.52491
2181.20637	0.52543
2179.27781	0.52583
2177.34924	0.52608
2175.42068	0.52626
2173.49211	0.52636
2171.56355	0.52644
2169.63498	0.52655
2167.70642	0.52665
2165.77785	0.52679
2163.84929	0.52691
2161.92073	0.52688
2159.99216	0.52679
2158.06360	0.52683
2156.13503	0.52692
2154.20647	0.52687
2152.27790	0.52678
2150.34934	0.52667
2148.42077	0.52636
2146.49221	0.52589
2144.56365	0.52541
2142.63508	0.52490
2140.70652	0.52432
2138.77795	0.52366
2136.84939	0.52289
2134.92082	0.52207
2132.99226	0.52130
2131.06369	0.52059
2129.13513	0.51993
2127.20657	0.51927
2125.27800	0.51849
2123.34944	0.51752
2121.42087	0.51647
2119.49231	0.51552
2117.56374	0.51472
2115.63518	0.51391
2113.70661	0.51307
2111.77805	0.51234
2109.84949	0.51183
2107.92092	0.51149
2105.99236	0.51116
2104.06379	0.51076
2102.13523	0.51051
2100.20666	0.51067
2098.27810	0.51112
2096.34953	0.51157
2094.42097	0.51194
2092.49241	0.51235
2090.56384	0.51288
2088.63528	0.51356
2086.70671	0.51431
2084.77815	0.51499
2082.84958	0.51563
2080.92102	0.51637
2078.99245	0.51705
2077.06389	0.51750
2075.13533	0.51778
2073.20676	0.51778
2071.27820	0.51735
2069.34963	0.51675
2067.42107	0.51615
2065.49250	0.51535
2063.56394	0.51432
2061.63537	0.51322
2059.70681	0.51199
2057.77825	0.51064
2055.84968	0.50939
2053.92112	0.50815
2051.99255	0.50673
2050.06399	0.50520
2048.13542	0.50370
2046.20686	0.50229
2044.27830	0.50092
2042.34973	0.49950
2040.42117	0.49813
2038.49260	0.49701
2036.56404	0.49602
2034.63547	0.49502
2032.70691	0.49404
2030.77834	0.49321
2028.84978	0.49242
2026.92122	0.49162
2024.99265	0.49095
2023.06409	0.49041
2021.13552	0.48986
2019.20696	0.48931
2017.27839	0.48869
2015.34983	0.48818
2013.42126	0.48796
2011.49270	0.48788
2009.56414	0.48779
2007.63557	0.48765
2005.70701	0.48743
2003.77844	0.48727
2001.84988	0.48727
1999.92131	0.48742
1997.99275	0.48769
1996.06418	0.48803
1994.13562	0.48819
1992.20706	0.48793
1990.27849	0.48751
1988.34993	0.48722
1986.42136	0.48697
1984.49280	0.48677
1982.56423	0.48645
1980.63567	0.48585
1978.70710	0.48516
1976.77854	0.48444
1974.84998	0.48356
1972.92141	0.48258
1970.99285	0.48176
1969.06428	0.48089
1967.13572	0.47951
1965.20715	0.47803
1963.27859	0.47695
1961.35002	0.47601
1959.42146	0.47505
1957.49290	0.47417
1955.56433	0.47320
1953.63577	0.47213
1951.70720	0.47122
1949.77864	0.47052
1947.85007	0.47000
1945.92151	0.46962
1943.99294	0.46901
1942.06438	0.46810
1940.13582	0.46759
1938.20725	0.46757
1936.27869	0.46771
1934.35012	0.46796
1932.42156	0.46813
1930.49299	0.46813
1928.56443	0.46822
1926.63586	0.46865
1924.70730	0.46919
1922.77874	0.46935
1920.85017	0.46930
1918.92161	0.46914
1916.99304	0.46878
1915.06448	0.46871
1913.13591	0.46889
1911.20735	0.46872
1909.27878	0.46804
1907.35022	0.46730
1905.42166	0.46677
1903.49309	0.46628
1901.56453	0.46561
1899.63596	0.46473
1897.70740	0.46366
1895.77883	0.46227
1893.85027	0.46077
1891.92171	0.45948
1889.99314	0.45781
1888.06458	0.45579
1886.13601	0.45410
1884.20745	0.45234
1882.27888	0.45034
1880.35032	0.44837
1878.42175	0.44642
1876.49319	0.44450
1874.56463	0.44287
1872.63606	0.44186
1870.70750	0.44105
1868.77893	0.43930
1866.85037	0.43732
1864.92180	0.43661
1862.99324	0.43662
1861.06467	0.43665
1859.13611	0.43664
1857.20755	0.43685
1855.27898	0.43746
1853.35042	0.43835
1851.42185	0.43934
1849.49329	0.44039
1847.56472	0.44148
1845.63616	0.44218
1843.70759	0.44211
1841.77903	0.44238
1839.85047	0.44325
1837.92190	0.44387
1835.99334	0.44401
1834.06477	0.44417
1832.13621	0.44436
1830.20764	0.44371
1828.27908	0.44259
1826.35051	0.44173
1824.42195	0.44037
1822.49339	0.43893
1820.56482	0.43782
1818.63626	0.43659
1816.70769	0.43525
1814.77913	0.43415
1812.85056	0.43309
1810.92200	0.43163
1808.99343	0.43021
1807.06487	0.42927
1805.13631	0.42863
1803.20774	0.42799
1801.27918	0.42718
1799.35061	0.42648
1797.42205	0.42643
1795.49348	0.42682
1793.56492	0.42679
1791.63635	0.42607
1789.70779	0.42615
1787.77923	0.42728
1785.85066	0.42849
1783.92210	0.42954
1781.99353	0.43058
1780.06497	0.43155
1778.13640	0.43279
1776.20784	0.43431
1774.27927	0.43575
1772.35071	0.43661
1770.42215	0.43749
1768.49358	0.43905
1766.56502	0.44106
1764.63645	0.44344
1762.70789	0.44602
1760.77932	0.44878
1758.85076	0.45196
1756.92220	0.45610
1754.99363	0.46106
1753.06507	0.46655
1751.13650	0.47314
1749.20794	0.48028
1747.27937	0.48660
1745.35081	0.49215
1743.42224	0.49720
1741.49368	0.50144
1739.56512	0.50463
1737.63655	0.50722
1735.70799	0.50914
1733.77942	0.50984
1731.85086	0.51063
1729.92229	0.51241
1727.99373	0.51468
1726.06516	0.51753
1724.13660	0.52125
1722.20804	0.52555
1720.27947	0.53020
1718.35091	0.53606
1716.42234	0.54443
1714.49378	0.55293
1712.56521	0.56108
1710.63665	0.57046
1708.70808	0.58141
1706.77952	0.59595
1704.85096	0.61430
1702.92239	0.63154
1700.99383	0.65396
1699.06526	0.68630
1697.13670	0.71561
1695.20813	0.74321
1693.27957	0.76420
1691.35100	0.78176
1689.42244	0.80232
1687.49388	0.82133
1685.56531	0.84077
1683.63675	0.87032
1681.70818	0.89309
1679.77962	0.90802
1677.85105	0.92254
1675.92249	0.93949
1673.99392	0.95708
1672.06536	0.97098
1670.13680	0.98666
1668.20823	1.00402
1666.27967	1.01526
1664.35110	1.02544
1662.42254	1.03887
1660.49397	1.05102
1658.56541	1.05904
1656.63684	1.06442
1654.70828	1.06900
1652.77972	1.07388
1650.85115	1.07643
1648.92259	1.07761
1646.99402	1.07803
1645.06546	1.07823
1643.13689	1.07813
1641.20833	1.07791
1639.27976	1.07752
1637.35120	1.07707
1635.42264	1.07620
1633.49407	1.07490
1631.56551	1.07375
1629.63694	1.07160
1627.70838	1.06779
1625.77981	1.06238
1623.85125	1.05349
1621.92269	1.04178
1619.99412	1.03193
1618.06556	1.01846
1616.13699	0.99451
1614.20843	0.97377
1612.27986	0.95810
1610.35130	0.94109
1608.42273	0.92290
1606.49417	0.90741
1604.56561	0.89585
1602.63704	0.88663
1600.70848	0.87940
1598.77991	0.87442
1596.85135	0.87103
1594.92278	0.86844
1592.99422	0.86657
1591.06565	0.86582
1589.13709	0.86656
1587.20853	0.86918
1585.27996	0.87345
1583.35140	0.87896
1581.42283	0.88515
1579.49427	0.89129
1577.56570	0.89846
1575.63714	0.90851
1573.70857	0.91663
1571.78001	0.92283
1569.85145	0.93152
1567.92288	0.94119
1565.99432	0.94908
1564.06575	0.95708
1562.13719	0.96404
1560.20862	0.97114
1558.28006	0.98356
1556.35149	0.99094
1554.42293	0.99456
1552.49437	0.99743
1550.56580	0.99954
1548.63724	1.00066
1546.70867	1.00081
1544.78011	1.00016
1542.85154	0.99931
1540.92298	0.99699
1538.99441	0.99242
1537.06585	0.99063
1535.13729	0.98938
1533.20872	0.98706
1531.28016	0.98455
1529.35159	0.98287
1527.42303	0.98171
1525.49446	0.98116
1523.56590	0.98212
1521.63733	0.98499
1519.70877	0.98835
1517.78021	0.98985
1515.85164	0.98846
1513.92308	0.98410
1511.99451	0.97766
1510.06595	0.97028
1508.13738	0.95687
1506.20882	0.93115
1504.28025	0.91675
1502.35169	0.90721
1500.42313	0.89483
1498.49456	0.87650
1496.56600	0.85259
1494.63743	0.83408
1492.70887	0.82192
1490.78030	0.80676
1488.85174	0.78469
1486.92317	0.76736
1484.99461	0.75681
1483.06605	0.74888
1481.13748	0.74240
1479.20892	0.73862
1477.28035	0.73825
1475.35179	0.74145
1473.42322	0.74948
1471.49466	0.75915
1469.56610	0.76536
1467.63753	0.77012
1465.70897	0.77552
1463.78040	0.78129
1461.85184	0.78580
1459.92327	0.78968
1457.99471	0.79494
1456.06614	0.80110
1454.13758	0.80472
1452.20902	0.80719
1450.28045	0.80904
1448.35189	0.80982
1446.42332	0.80954
1444.49476	0.80888
1442.56619	0.80783
1440.63763	0.80653
1438.70906	0.80449
1436.78050	0.79963
1434.85194	0.79351
1432.92337	0.78898
1430.99481	0.78364
1429.06624	0.77716
1427.13768	0.77251
1425.20911	0.76971
1423.28055	0.76783
1421.35198	0.76699
1419.42342	0.76633
1417.49486	0.76469
1415.56629	0.76269
1413.63773	0.76041
1411.70916	0.75757
1409.78060	0.75475
1407.85203	0.75259
1405.92347	0.75077
1403.99490	0.74918
1402.06634	0.74831
1400.13778	0.74779
1398.20921	0.74727
1396.28065	0.74702
1394.35208	0.74738
1392.42352	0.74907
1390.49495	0.75230
1388.56639	0.75780
1386.63782	0.76666
1384.70926	0.77690
1382.78070	0.78662
1380.85213	0.79495
1378.92357	0.80022
1376.99500	0.80124
1375.06644	0.79692
1373.13787	0.78803
1371.20931	0.77805
1369.28074	0.76645
1367.35218	0.75335
1365.42362	0.74143
1363.49505	0.72979
1361.56649	0.71896
1359.63792	0.71238
1357.70936	0.70899
1355.78079	0.70677
1353.85223	0.70530
1351.92366	0.70470
1349.99510	0.70479
1348.06654	0.70530
1346.13797	0.70614
1344.20941	0.70736
1342.28084	0.70894
1340.35228	0.71083
1338.42371	0.71313
1336.49515	0.71640
1334.56659	0.72096
1332.63802	0.72649
1330.70946	0.73210
1328.78089	0.73643
1326.85233	0.73859
1324.92376	0.73890
1322.99520	0.73837
1321.06663	0.73775
1319.13807	0.73697
1317.20951	0.73577
1315.28094	0.73421
1313.35238	0.73242
1311.42381	0.73040
1309.49525	0.72798
1307.56668	0.72483
1305.63812	0.72115
1303.70955	0.71759
1301.78099	0.71424
1299.85243	0.71062
1297.92386	0.70656
1295.99530	0.70271
1294.06673	0.70002
1292.13817	0.69880
1290.20960	0.69896
1288.28104	0.70028
1286.35247	0.70239
1284.42391	0.70474
1282.49535	0.70709
1280.56678	0.70971
1278.63822	0.71290
1276.70965	0.71675
1274.78109	0.72137
1272.85252	0.72689
1270.92396	0.73288
1268.99539	0.73856
1267.06683	0.74357
1265.13827	0.74768
1263.20970	0.75059
1261.28114	0.75238
1259.35257	0.75336
1257.42401	0.75375
1255.49544	0.75382
1253.56688	0.75384
1251.63831	0.75374
1249.70975	0.75334
1247.78119	0.75269
1245.85262	0.75212
1243.92406	0.75172
1241.99549	0.75118
1240.06693	0.75020
1238.13836	0.74877
1236.20980	0.74681
1234.28123	0.74416
1232.35267	0.74089
1230.42411	0.73702
1228.49554	0.73245
1226.56698	0.72731
1224.63841	0.72191
1222.70985	0.71640
1220.78128	0.71090
1218.85272	0.70567
1216.92415	0.70101
1214.99559	0.69743
1213.06703	0.69532
1211.13846	0.69443
1209.20990	0.69412
1207.28133	0.69354
1205.35277	0.69145
1203.42420	0.68703
1201.49564	0.68094
1199.56708	0.67451
1197.63851	0.66843
1195.70995	0.66302
1193.78138	0.65858
1191.85282	0.65559
1189.92425	0.65446
1187.99569	0.65509
1186.06712	0.65701
1184.13856	0.65967
1182.21000	0.66288
1180.28143	0.66720
1178.35287	0.67314
1176.42430	0.68033
1174.49574	0.68806
1172.56717	0.69582
1170.63861	0.70366
1168.71004	0.71234
1166.78148	0.72234
1164.85292	0.73296
1162.92435	0.74274
1160.99579	0.75010
1159.06722	0.75338
1157.13866	0.75173
1155.21009	0.74545
1153.28153	0.73537
1151.35296	0.72290
1149.42440	0.70974
1147.49584	0.69709
1145.56727	0.68609
1143.63871	0.67767
1141.71014	0.67220
1139.78158	0.66986
1137.85301	0.67023
1135.92445	0.67238
1133.99588	0.67613
1132.06732	0.68221
1130.13876	0.69111
1128.21019	0.70235
1126.28163	0.71453
1124.35306	0.72600
1122.42450	0.73589
1120.49593	0.74405
1118.56737	0.75022
1116.63880	0.75395
1114.71024	0.75487
1112.78168	0.75316
1110.85311	0.74971
1108.92455	0.74543
1106.99598	0.74091
1105.06742	0.73671
1103.13885	0.73325
1101.21029	0.73062
1099.28172	0.72902
1097.35316	0.72899
1095.42460	0.73123
1093.49603	0.73606
1091.56747	0.74308
1089.63890	0.75171
1087.71034	0.76175
1085.78177	0.77341
1083.85321	0.78640
1081.92464	0.79946
1079.99608	0.81131
1078.06752	0.82110
1076.13895	0.82712
1074.21039	0.82821
1072.28182	0.82602
1070.35326	0.82229
1068.42469	0.81712
1066.49613	0.81109
1064.56756	0.80500
1062.63900	0.79901
1060.71044	0.79289
1058.78187	0.78652
1056.85331	0.78011
1054.92474	0.77409
1052.99618	0.76891
1051.06761	0.76452
1049.13905	0.76077
1047.21049	0.75828
1045.28192	0.75798
1043.35336	0.75980
1041.42479	0.76264
1039.49623	0.76576
1037.56766	0.76906
1035.63910	0.77213
1033.71053	0.77450
1031.78197	0.77623
1029.85341	0.77703
1027.92484	0.77630
1025.99628	0.77414
1024.06771	0.77090
1022.13915	0.76722
1020.21058	0.76421
1018.28202	0.76217
1016.35345	0.76022
1014.42489	0.75749
1012.49633	0.75316
1010.56776	0.74666
1008.63920	0.73832
1006.71063	0.72882
1004.78207	0.71883
1002.85350	0.70884
1000.92494	0.69910
998.99637	0.68998
997.06781	0.68205
995.13925	0.67531
993.21068	0.66920
991.28212	0.66313
989.35355	0.65688
987.42499	0.65074
985.49642	0.64529
983.56786	0.64098
981.63929	0.63803
979.71073	0.63630
977.78217	0.63501
975.85360	0.63329
973.92504	0.63068
971.99647	0.62698
970.06791	0.62225
968.13934	0.61717
966.21078	0.61256
964.28221	0.60903
962.35365	0.60740
960.42509	0.60865
958.49652	0.61289
956.56796	0.61823
954.63939	0.62169
952.71083	0.62132
950.78226	0.61691
948.85370	0.60979
946.92513	0.60205
944.99657	0.59518
943.06801	0.58958
941.13944	0.58518
939.21088	0.58178
937.28231	0.57892
935.35375	0.57641
933.42518	0.57438
931.49662	0.57293
929.56805	0.57198
927.63949	0.57142
925.71093	0.57126
923.78236	0.57146
921.85380	0.57173
919.92523	0.57165
917.99667	0.57105
916.06810	0.57037
914.13954	0.57020
912.21098	0.57078
910.28241	0.57209
908.35385	0.57435
906.42528	0.57784
904.49672	0.58220
902.56815	0.58657
900.63959	0.59038
898.71102	0.59353
896.78246	0.59577
894.85390	0.59666
892.92533	0.59617
890.99677	0.59464
889.06820	0.59234
887.13964	0.58940
885.21107	0.58607
883.28251	0.58272
881.35394	0.57971
879.42538	0.57712
877.49682	0.57467
875.56825	0.57208
873.63969	0.56950
871.71112	0.56731
869.78256	0.56570
867.85399	0.56462
865.92543	0.56411
863.99686	0.56447
862.06830	0.56572
860.13974	0.56778
858.21117	0.57082
856.28261	0.57484
854.35404	0.57951
852.42548	0.58445
850.49691	0.58929
848.56835	0.59374
846.63978	0.59754
844.71122	0.60067
842.78266	0.60318
840.85409	0.60519
838.92553	0.60662
836.99696	0.60718
835.06840	0.60685
833.13983	0.60574
831.21127	0.60387
829.28270	0.60133
827.35414	0.59830
825.42558	0.59518
823.49701	0.59228
821.56845	0.58953
819.63988	0.58679
817.71132	0.58407
815.78275	0.58153
813.85419	0.57941
811.92562	0.57783
809.99706	0.57697
808.06850	0.57666
806.13993	0.57638
804.21137	0.57621
802.28280	0.57680
800.35424	0.57840
798.42567	0.58091
796.49711	0.58453
794.56854	0.58948
792.63998	0.59556
790.71142	0.60240
788.78285	0.60996
786.85429	0.61798
784.92572	0.62598
782.99716	0.63352
781.06859	0.64017
779.14003	0.64580
777.21147	0.65038
775.28290	0.65362
773.35434	0.65546
771.42577	0.65580
769.49721	0.65465
767.56864	0.65257
765.64008	0.64983
763.71151	0.64645
761.78295	0.64295
759.85439	0.64024
757.92582	0.63860
755.99726	0.63759
754.06869	0.63718
752.14013	0.63770
750.21156	0.63940
748.28300	0.64246
746.35443	0.64694
744.42587	0.65235
742.49731	0.65792
740.56874	0.66370
738.64018	0.67033
736.71161	0.67757
734.78305	0.68438
732.85448	0.69045
730.92592	0.69611
728.99735	0.70115
727.06879	0.70514
725.14023	0.70747
723.21166	0.70801
721.28310	0.70775
719.35453	0.70684
717.42597	0.70406
715.49740	0.69917
713.56884	0.69325
711.64027	0.68747
709.71171	0.68192
707.78315	0.67621
705.85458	0.67087
703.92602	0.66626
701.99745	0.66193
700.06889	0.65809
698.14032	0.65539
696.21176	0.65408
694.28319	0.65445
692.35463	0.65662
690.42607	0.66034
688.49750	0.66545
686.56894	0.67174
684.64037	0.67840
682.71181	0.68520
680.78324	0.69247
678.85468	0.69965
676.92611	0.70590
674.99755	0.71082
673.06899	0.71442
671.14042	0.71688
669.21186	0.71731
667.28329	0.71483
665.35473	0.71218
663.42616	0.70910
661.49760	0.70480
659.56903	0.69989
657.64047	0.69493
655.71191	0.69047
653.78334	0.68695
651.85478	0.68400
649.92621	0.68118
647.99765	0.67896
646.06908	0.67784
644.14052	0.67794
642.21195	0.68006
640.28339	0.68440
638.35483	0.68967
636.42626	0.69476
634.49770	0.69994
632.56913	0.70581
630.64057	0.71202
628.71200	0.71830
626.78344	0.72549
624.85488	0.73363
622.92631	0.74075
620.99775	0.74630
619.06918	0.75185
617.14062	0.75694
615.21205	0.75986
613.28349	0.76148
611.35492	0.76194
609.42636	0.75940
607.49780	0.75458
605.56923	0.74985
603.64067	0.74518
601.71210	0.73964
599.78354	0.73384
