3997.91406	0.91351
3995.98550	0.91216
3994.05693	0.91097
3992.12837	0.91099
3990.19980	0.91087
3988.27124	0.91012
3986.34268	0.90992
3984.41411	0.90886
3982.48555	0.90593
3980.55698	0.90489
3978.62842	0.90665
3976.69985	0.90704
3974.77129	0.90513
3972.84272	0.90378
3970.91416	0.90350
3968.98560	0.90286
3967.05703	0.90171
3965.12847	0.90052
3963.19990	0.89920
3961.27134	0.89813
3959.34277	0.89768
3957.41421	0.89713
3955.48564	0.89624
3953.55708	0.89523
3951.62852	0.89434
3949.69995	0.89345
3947.77139	0.89322
3945.84282	0.89442
3943.91426	0.89416
3941.98569	0.89160
3940.05713	0.89045
3938.12856	0.89095
3936.20000	0.89232
3934.27144	0.89333
3932.34287	0.89121
3930.41431	0.88815
3928.48574	0.88819
3926.55718	0.88898
3924.62861	0.88738
3922.70005	0.88554
3920.77148	0.88519
3918.84292	0.88417
3916.91436	0.88194
3914.98579	0.88083
3913.05723	0.88172
3911.12866	0.88337
3909.20010	0.88517
3907.27153	0.88592
3905.34297	0.88276
3903.41440	0.87742
3901.48584	0.87541
3899.55728	0.87494
3897.62871	0.87564
3895.70015	0.87842
3893.77158	0.87927
3891.84302	0.87449
3889.91445	0.87226
3887.98589	0.87536
3886.05733	0.87615
3884.12876	0.87476
3882.20020	0.87417
3880.27163	0.87120
3878.34307	0.87077
3876.41450	0.87294
3874.48594	0.87213
3872.55737	0.86963
3870.62881	0.86710
3868.70025	0.86498
3866.77168	0.86505
3864.84312	0.86429
3862.91455	0.86358
3860.98599	0.86590
3859.05742	0.86940
3857.12886	0.87255
3855.20029	0.87112
3853.27173	0.86000
3851.34317	0.85739
3849.41460	0.86312
3847.48604	0.86846
3845.55747	0.87146
3843.62891	0.87193
3841.70034	0.87099
3839.77178	0.86886
3837.84321	0.86657
3835.91465	0.86709
3833.98609	0.86820
3832.05752	0.86859
3830.12896	0.87005
3828.20039	0.87143
3826.27183	0.87092
3824.34326	0.87110
3822.41470	0.87048
3820.48613	0.86663
3818.55757	0.86627
3816.62901	0.86446
3814.70044	0.86037
3812.77188	0.86087
3810.84331	0.86377
3808.91475	0.86484
3806.98618	0.86261
3805.05762	0.86281
3803.12905	0.86258
3801.20049	0.85516
3799.27193	0.85297
3797.34336	0.85536
3795.41480	0.85534
3793.48623	0.85569
3791.55767	0.85660
3789.62910	0.85697
3787.70054	0.85747
3785.77197	0.85681
3783.84341	0.85522
3781.91485	0.85478
3779.98628	0.85314
3778.05772	0.85075
3776.12915	0.85162
3774.20059	0.85414
3772.27202	0.85526
3770.34346	0.85307
3768.41489	0.85018
3766.48633	0.84885
3764.55777	0.84856
3762.62920	0.85036
3760.70064	0.85090
3758.77207	0.84744
3756.84351	0.84638
3754.91494	0.84902
3752.98638	0.84866
3751.05781	0.83959
3749.12925	0.83619
3747.20069	0.84125
3745.27212	0.84095
3743.34356	0.83743
3741.41499	0.84076
3739.48643	0.84642
3737.55786	0.84830
3735.62930	0.84225
3733.70074	0.83529
3731.77217	0.83569
3729.84361	0.83900
3727.91504	0.84073
3725.98648	0.84017
3724.05791	0.84033
3722.12935	0.84100
3720.20078	0.84030
3718.27222	0.84029
3716.34366	0.84271
3714.41509	0.84562
3712.48653	0.84317
3710.55796	0.83558
3708.62940	0.83376
3706.70083	0.83679
3704.77227	0.84079
3702.84370	0.84119
3700.91514	0.83817
3698.98658	0.83803
3697.05801	0.83969
3695.12945	0.84150
3693.20088	0.84506
3691.27232	0.84778
3689.34375	0.84289
3687.41519	0.83934
3685.48662	0.84269
3683.55806	0.84748
3681.62950	0.85124
3679.70093	0.85397
3677.77237	0.85514
3675.84380	0.85180
3673.91524	0.85132
3671.98667	0.85575
3670.05811	0.85652
3668.12954	0.85652
3666.20098	0.86054
3664.27242	0.86520
3662.34385	0.86965
3660.41529	0.87495
3658.48672	0.87909
3656.55816	0.87959
3654.62959	0.88183
3652.70103	0.88883
3650.77246	0.89398
3648.84390	0.88937
3646.91534	0.88911
3644.98677	0.89567
3643.05821	0.90181
3641.12964	0.90630
3639.20108	0.91085
3637.27251	0.91580
3635.34395	0.91991
3633.41538	0.92401
3631.48682	0.92809
3629.55826	0.92673
3627.62969	0.92448
3625.70113	0.93181
3623.77256	0.94121
3621.84400	0.94658
3619.91543	0.94697
3617.98687	0.94920
3616.05830	0.95564
3614.12974	0.96061
3612.20118	0.96459
3610.27261	0.97084
3608.34405	0.97724
3606.41548	0.98148
3604.48692	0.98537
3602.55835	0.98955
3600.62979	0.99331
3598.70123	0.99773
3596.77266	1.00265
3594.84410	1.00684
3592.91553	1.01195
3590.98697	1.01853
3589.05840	1.02421
3587.12984	1.02638
3585.20127	1.02859
3583.27271	1.03404
3581.34415	1.03998
3579.41558	1.04361
3577.48702	1.04683
3575.55845	1.05227
3573.62989	1.05867
3571.70132	1.06480
3569.77276	1.06922
3567.84419	1.06888
3565.91563	1.06783
3563.98707	1.07311
3562.05850	1.08092
3560.12994	1.08770
3558.20137	1.09326
3556.27281	1.09792
3554.34424	1.10184
3552.41568	1.10617
3550.48711	1.11187
3548.55855	1.11877
3546.62999	1.12532
3544.70142	1.12971
3542.77286	1.13313
3540.84429	1.13693
3538.91573	1.14103
3536.98716	1.14569
3535.05860	1.15047
3533.13003	1.15416
3531.20147	1.15709
3529.27291	1.16000
3527.34434	1.16394
3525.41578	1.17052
3523.48721	1.17850
3521.55865	1.18475
3519.63008	1.19031
3517.70152	1.19781
3515.77295	1.20585
3513.84439	1.21195
3511.91583	1.21677
3509.98726	1.22257
3508.05870	1.22972
3506.13013	1.23803
3504.20157	1.24811
3502.27300	1.25675
3500.34444	1.26264
3498.41587	1.26964
3496.48731	1.27893
3494.55875	1.28865
3492.63018	1.29695
3490.70162	1.30297
3488.77305	1.30773
3486.84449	1.31307
3484.91592	1.31744
3482.98736	1.32040
3481.05879	1.32418
3479.13023	1.32785
3477.20167	1.33053
3475.27310	1.33198
3473.34454	1.33256
3471.41597	1.33593
3469.48741	1.34288
3467.55884	1.34864
3465.63028	1.35044
3463.70171	1.34958
3461.77315	1.34937
3459.84459	1.35292
3457.91602	1.35714
3455.98746	1.35908
3454.05889	1.36069
3452.13033	1.36299
3450.20176	1.36643
3448.27320	1.37035
3446.34464	1.37224
3444.41607	1.37328
3442.48751	1.37667
3440.55894	1.38179
3438.63038	1.38652
3436.70181	1.39072
3434.77325	1.39269
3432.84468	1.39133
3430.91612	1.38929
3428.98756	1.38764
3427.05899	1.38598
3425.13043	1.38527
3423.20186	1.38497
3421.27330	1.38359
3419.34473	1.38247
3417.41617	1.38371
3415.48760	1.38651
3413.55904	1.38811
3411.63048	1.38764
3409.70191	1.38651
3407.77335	1.38566
3405.84478	1.38682
3403.91622	1.39062
3401.98765	1.39383
3400.05909	1.39412
3398.13052	1.39301
3396.20196	1.39211
3394.27340	1.39153
3392.34483	1.39104
3390.41627	1.39068
3388.48770	1.39111
3386.55914	1.39258
3384.63057	1.39451
3382.70201	1.39615
3380.77344	1.39677
3378.84488	1.39692
3376.91632	1.39735
3374.98775	1.39721
3373.05919	1.39692
3371.13062	1.39773
3369.20206	1.39875
3367.27349	1.39909
3365.34493	1.39961
3363.41636	1.40099
3361.48780	1.40255
3359.55924	1.40419
3357.63067	1.40736
3355.70211	1.41147
3353.77354	1.41379
3351.84498	1.41394
3349.91641	1.41405
3347.98785	1.41514
3346.05928	1.41774
3344.13072	1.42216
3342.20216	1.42637
3340.27359	1.42863
3338.34503	1.42915
3336.41646	1.42956
3334.48790	1.43233
3332.55933	1.43703
3330.63077	1.44126
3328.70220	1.44452
3326.77364	1.44799
3324.84508	1.45144
3322.91651	1.45343
3320.98795	1.45448
3319.05938	1.45533
3317.13082	1.45715
3315.20225	1.46207
3313.27369	1.46797
3311.34513	1.47102
3309.41656	1.47348
3307.48800	1.47912
3305.55943	1.48609
3303.63087	1.49087
3301.70230	1.49283
3299.77374	1.49239
3297.84517	1.49046
3295.91661	1.49008
3293.98805	1.49303
3292.05948	1.49694
3290.13092	1.49930
3288.20235	1.50049
3286.27379	1.50138
3284.34522	1.50200
3282.41666	1.50273
3280.48809	1.50346
3278.55953	1.50397
3276.63097	1.50402
3274.70240	1.50232
3272.77384	1.50100
3270.84527	1.50200
3268.91671	1.49951
3266.98814	1.49061
3265.05958	1.48209
3263.13101	1.47893
3261.20245	1.47953
3259.27389	1.47931
3257.34532	1.47373
3255.41676	1.46417
3253.48819	1.45576
3251.55963	1.44991
3249.63106	1.44545
3247.70250	1.43907
3245.77393	1.42799
3243.84537	1.41658
3241.91681	1.41022
3239.98824	1.40733
3238.05968	1.40286
3236.13111	1.39501
3234.20255	1.38749
3232.27398	1.38288
3230.34542	1.37827
3228.41685	1.37209
3226.48829	1.36718
3224.55973	1.36417
3222.63116	1.36045
3220.70260	1.35564
3218.77403	1.35101
3216.84547	1.34622
3214.91690	1.34115
3212.98834	1.33659
3211.05977	1.33214
3209.13121	1.32748
3207.20265	1.32313
3205.27408	1.31894
3203.34552	1.31530
3201.41695	1.31247
3199.48839	1.30887
3197.55982	1.30354
3195.63126	1.29785
3193.70269	1.29308
3191.77413	1.28862
3189.84557	1.28443
3187.91700	1.28060
3185.98844	1.27506
3184.05987	1.26828
3182.13131	1.26348
3180.20274	1.26038
3178.27418	1.25641
3176.34562	1.25204
3174.41705	1.24888
3172.48849	1.24623
3170.55992	1.24300
3168.63136	1.23878
3166.70279	1.23404
3164.77423	1.23066
3162.84566	1.22871
3160.91710	1.22644
3158.98854	1.22366
3157.05997	1.22058
3155.13141	1.21656
3153.20284	1.21219
3151.27428	1.20939
3149.34571	1.20834
3147.41715	1.20697
3145.48858	1.20447
3143.56002	1.20183
3141.63146	1.19945
3139.70289	1.19747
3137.77433	1.19647
3135.84576	1.19669
3133.91720	1.19730
3131.98863	1.19708
3130.06007	1.19602
3128.13150	1.19510
3126.20294	1.19502
3124.27438	1.19586
3122.34581	1.19772
3120.41725	1.20033
3118.48868	1.20262
3116.56012	1.20442
3114.63155	1.20564
3112.70299	1.20558
3110.77442	1.20529
3108.84586	1.20598
3106.91730	1.20699
3104.98873	1.20759
3103.06017	1.20767
3101.13160	1.20714
3099.20304	1.20610
3097.27447	1.20489
3095.34591	1.20364
3093.41734	1.20232
3091.48878	1.20103
3089.56022	1.19968
3087.63165	1.19850
3085.70309	1.19718
3083.77452	1.19450
3081.84596	1.19109
3079.91739	1.18893
3077.98883	1.18781
3076.06026	1.18619
3074.13170	1.18387
3072.20314	1.18106
3070.27457	1.17772
3068.34601	1.17467
3066.41744	1.17217
3064.48888	1.16938
3062.56031	1.16608
3060.63175	1.16251
3058.70318	1.15875
3056.77462	1.15477
3054.84606	1.15089
3052.91749	1.14724
3050.98893	1.14344
3049.06036	1.14012
3047.13180	1.13791
3045.20323	1.13543
3043.27467	1.13195
3041.34610	1.12866
3039.41754	1.12578
3037.48898	1.12247
3035.56041	1.11935
3033.63185	1.11729
3031.70328	1.11582
3029.77472	1.11469
3027.84615	1.11382
3025.91759	1.11222
3023.98903	1.10925
3022.06046	1.10581
3020.13190	1.10301
3018.20333	1.10144
3016.27477	1.10099
3014.34620	1.10007
3012.41764	1.09801
3010.48907	1.09649
3008.56051	1.09581
3006.63195	1.09477
3004.70338	1.09380
3002.77482	1.09381
3000.84625	1.09413
2998.91769	1.09461
2996.98912	1.09580
2995.06056	1.09746
2993.13199	1.09967
2991.20343	1.10245
2989.27487	1.10576
2987.34630	1.11045
2985.41774	1.11616
2983.48917	1.12085
2981.56061	1.12446
2979.63204	1.12916
2977.70348	1.13530
2975.77491	1.14138
2973.84635	1.14656
2971.91779	1.15143
2969.98922	1.15700
2968.06066	1.16222
2966.13209	1.16594
2964.20353	1.16898
2962.27496	1.17115
2960.34640	1.17101
2958.41783	1.16846
2956.48927	1.16444
2954.56071	1.15972
2952.63214	1.15501
2950.70358	1.15101
2948.77501	1.14836
2946.84645	1.14810
2944.91788	1.15076
2942.98932	1.15558
2941.06075	1.16187
2939.13219	1.16935
2937.20363	1.17704
2935.27506	1.18404
2933.34650	1.19037
2931.41793	1.19665
2929.48937	1.20329
2927.56080	1.20958
2925.63224	1.21555
2923.70367	1.22204
2921.77511	1.22730
2919.84655	1.22844
2917.91798	1.22395
2915.98942	1.21316
2914.06085	1.19732
2912.13229	1.18034
2910.20372	1.16545
2908.27516	1.15334
2906.34659	1.14444
2904.41803	1.13866
2902.48947	1.13475
2900.56090	1.13238
2898.63234	1.13118
2896.70377	1.13033
2894.77521	1.12933
2892.84664	1.12733
2890.91808	1.12422
2888.98952	1.12116
2887.06095	1.11875
2885.13239	1.11687
2883.20382	1.11568
2881.27526	1.11568
2879.34669	1.11650
2877.41813	1.11668
2875.48956	1.11528
2873.56100	1.11237
2871.63244	1.10803
2869.70387	1.10244
2867.77531	1.09651
2865.84674	1.09146
2863.91818	1.08765
2861.98961	1.08511
2860.06105	1.08477
2858.13248	1.08688
2856.20392	1.09062
2854.27536	1.09586
2852.34679	1.10233
2850.41823	1.10576
2848.48966	1.09910
2846.56110	1.08186
2844.63253	1.06194
2842.70397	1.04582
2840.77540	1.03440
2838.84684	1.02604
2836.91828	1.01961
2834.98971	1.01482
2833.06115	1.01126
2831.13258	1.00831
2829.20402	1.00574
2827.27545	1.00317
2825.34689	1.00026
2823.41832	0.99756
2821.48976	0.99568
2819.56120	0.99442
2817.63263	0.99304
2815.70407	0.99079
2813.77550	0.98801
2811.84694	0.98564
2809.91837	0.98349
2807.98981	0.98079
2806.06124	0.97782
2804.13268	0.97545
2802.20412	0.97360
2800.27555	0.97174
2798.34699	0.96955
2796.41842	0.96673
2794.48986	0.96351
2792.56129	0.96085
2790.63273	0.95914
2788.70416	0.95759
2786.77560	0.95563
2784.84704	0.95349
2782.91847	0.95149
2780.98991	0.94939
2779.06134	0.94707
2777.13278	0.94522
2775.20421	0.94393
2773.27565	0.94242
2771.34708	0.94069
2769.41852	0.93919
2767.48996	0.93810
2765.56139	0.93706
2763.63283	0.93561
2761.70426	0.93400
2759.77570	0.93225
2757.84713	0.93041
2755.91857	0.92924
2753.99001	0.92854
2752.06144	0.92762
2750.13288	0.92673
2748.20431	0.92599
2746.27575	0.92502
2744.34718	0.92389
2742.41862	0.92302
2740.49005	0.92272
2738.56149	0.92265
2736.63293	0.92233
2734.70436	0.92181
2732.77580	0.92129
2730.84723	0.92083
2728.91867	0.92048
2726.99010	0.92011
2725.06154	0.91946
2723.13297	0.91844
2721.20441	0.91719
2719.27585	0.91619
2717.34728	0.91568
2715.41872	0.91532
2713.49015	0.91485
2711.56159	0.91432
2709.63302	0.91379
2707.70446	0.91310
2705.77589	0.91207
2703.84733	0.91106
2701.91877	0.91029
2699.99020	0.90951
2698.06164	0.90884
2696.13307	0.90845
2694.20451	0.90820
2692.27594	0.90790
2690.34738	0.90729
2688.41881	0.90611
2686.49025	0.90477
2684.56169	0.90393
2682.63312	0.90339
2680.70456	0.90270
2678.77599	0.90190
2676.84743	0.90111
2674.91886	0.90017
2672.99030	0.89895
2671.06173	0.89768
2669.13317	0.89661
2667.20461	0.89570
2665.27604	0.89484
2663.34748	0.89416
2661.41891	0.89352
2659.49035	0.89243
2657.56178	0.89115
2655.63322	0.89003
2653.70465	0.88868
2651.77609	0.88695
2649.84753	0.88526
2647.91896	0.88388
2645.99040	0.88276
2644.06183	0.88164
2642.13327	0.88031
2640.20470	0.87882
2638.27614	0.87726
2636.34757	0.87593
2634.41901	0.87510
2632.49045	0.87424
2630.56188	0.87287
2628.63332	0.87136
2626.70475	0.87013
2624.77619	0.86916
2622.84762	0.86826
2620.91906	0.86733
2618.99049	0.86654
2617.06193	0.86594
2615.13337	0.86542
2613.20480	0.86481
2611.27624	0.86413
2609.34767	0.86362
2607.41911	0.86328
2605.49054	0.86282
2603.56198	0.86210
2601.63342	0.86125
2599.70485	0.86053
2597.77629	0.86015
2595.84772	0.86013
2593.91916	0.86009
2591.99059	0.85980
2590.06203	0.85924
2588.13346	0.85862
2586.20490	0.85832
2584.27634	0.85824
2582.34777	0.85792
2580.41921	0.85733
2578.49064	0.85656
2576.56208	0.85564
2574.63351	0.85490
2572.70495	0.85451
2570.77638	0.85434
2568.84782	0.85427
2566.91926	0.85383
2564.99069	0.85268
2563.06213	0.85135
2561.13356	0.85044
2559.20500	0.84988
2557.27643	0.84911
2555.34787	0.84798
2553.41930	0.84698
2551.49074	0.84638
2549.56218	0.84590
2547.63361	0.84506
2545.70505	0.84402
2543.77648	0.84341
2541.84792	0.84313
2539.91935	0.84273
2537.99079	0.84218
2536.06222	0.84168
2534.13366	0.84135
2532.20510	0.84093
2530.27653	0.84010
2528.34797	0.83920
2526.41940	0.83868
2524.49084	0.83842
2522.56227	0.83841
2520.63371	0.83861
2518.70514	0.83867
2516.77658	0.83854
2514.84802	0.83830
2512.91945	0.83793
2510.99089	0.83761
2509.06232	0.83727
2507.13376	0.83666
2505.20519	0.83587
2503.27663	0.83513
2501.34806	0.83439
2499.41950	0.83355
2497.49094	0.83256
2495.56237	0.83149
2493.63381	0.83041
2491.70524	0.82917
2489.77668	0.82775
2487.84811	0.82616
2485.91955	0.82439
2483.99098	0.82299
2482.06242	0.82207
2480.13386	0.82095
2478.20529	0.81950
2476.27673	0.81816
2474.34816	0.81681
2472.41960	0.81518
2470.49103	0.81374
2468.56247	0.81275
2466.63391	0.81175
2464.70534	0.81063
2462.77678	0.80958
2460.84821	0.80842
2458.91965	0.80712
2456.99108	0.80607
2455.06252	0.80542
2453.13395	0.80477
2451.20539	0.80386
2449.27683	0.80280
2447.34826	0.80186
2445.41970	0.80126
2443.49113	0.80081
2441.56257	0.80025
2439.63400	0.79966
2437.70544	0.79921
2435.77687	0.79863
2433.84831	0.79763
2431.91975	0.79663
2429.99118	0.79606
2428.06262	0.79567
2426.13405	0.79508
2424.20549	0.79435
2422.27692	0.79377
2420.34836	0.79337
2418.41979	0.79276
2416.49123	0.79175
2414.56267	0.79053
2412.63410	0.78930
2410.70554	0.78818
2408.77697	0.78711
2406.84841	0.78582
2404.91984	0.78430
2402.99128	0.78256
2401.06271	0.78054
2399.13415	0.77861
2397.20559	0.77714
2395.27702	0.77593
2393.34846	0.77464
2391.41989	0.77334
2389.49133	0.77237
2387.56276	0.77180
2385.63420	0.77145
2383.70563	0.77134
2381.77707	0.77160
2379.84851	0.77194
2377.91994	0.77199
2375.99138	0.77191
2374.06281	0.77172
2372.13425	0.77083
2370.20568	0.76977
2368.27712	0.76990
2366.34855	0.77059
2364.41999	0.77011
2362.49143	0.76763
2360.56286	0.76376
2358.63430	0.76218
2356.70573	0.76468
2354.77717	0.76745
2352.84860	0.76848
2350.92004	0.76952
2348.99147	0.77119
2347.06291	0.77222
2345.13435	0.77115
2343.20578	0.76867
2341.27722	0.76701
2339.34865	0.76616
2337.42009	0.76532
2335.49152	0.76502
2333.56296	0.76557
2331.63440	0.76554
2329.70583	0.76478
2327.77727	0.76471
2325.84870	0.76485
2323.92014	0.76455
2321.99157	0.76445
2320.06301	0.76406
2318.13444	0.76300
2316.20588	0.76226
2314.27732	0.76197
2312.34875	0.76151
2310.42019	0.76077
2308.49162	0.75985
2306.56306	0.75886
2304.63449	0.75787
2302.70593	0.75692
2300.77736	0.75596
2298.84880	0.75490
2296.92024	0.75354
2294.99167	0.75200
2293.06311	0.75067
2291.13454	0.74948
2289.20598	0.74802
2287.27741	0.74644
2285.34885	0.74533
2283.42028	0.74468
2281.49172	0.74403
2279.56316	0.74308
2277.63459	0.74184
2275.70603	0.74057
2273.77746	0.73948
2271.84890	0.73842
2269.92033	0.73730
2267.99177	0.73612
2266.06320	0.73482
2264.13464	0.73344
2262.20608	0.73208
2260.27751	0.73075
2258.34895	0.72930
2256.42038	0.72768
2254.49182	0.72601
2252.56325	0.72443
2250.63469	0.72294
2248.70612	0.72148
2246.77756	0.72003
2244.84900	0.71865
2242.92043	0.71743
2240.99187	0.71622
2239.06330	0.71483
2237.13474	0.71352
2235.20617	0.71262
2233.27761	0.71201
2231.34904	0.71147
2229.42048	0.71094
2227.49192	0.71041
2225.56335	0.70987
2223.63479	0.70945
2221.70622	0.70927
2219.77766	0.70923
2217.84909	0.70919
2215.92053	0.70921
2213.99196	0.70934
2212.06340	0.70949
2210.13484	0.70963
2208.20627	0.70976
2206.27771	0.70970
2204.34914	0.70934
2202.42058	0.70892
2200.49201	0.70871
2198.56345	0.70850
2196.63488	0.70812
2194.70632	0.70769
2192.77776	0.70726
2190.84919	0.70686
2188.92063	0.70650
2186.99206	0.70610
2185.06350	0.70560
2183.13493	0.70494
2181.20637	0.70427
2179.27781	0.70390
2177.34924	0.70388
2175.42068	0.70387
2173.49211	0.70362
2171.56355	0.70335
2169.63498	0.70344
2167.70642	0.70363
2165.77785	0.70345
2163.84929	0.70297
2161.92073	0.70260
2159.99216	0.70242
2158.06360	0.70217
2156.13503	0.70182
2154.20647	0.70150
2152.27790	0.70114
2150.34934	0.70067
2148.42077	0.70005
2146.49221	0.69928
2144.56365	0.69863
2142.63508	0.69829
2140.70652	0.69803
2138.77795	0.69755
2136.84939	0.69676
2134.92082	0.69578
2132.99226	0.69490
2131.06369	0.69432
2129.13513	0.69390
2127.20657	0.69329
2125.27800	0.69234
2123.34944	0.69130
2121.42087	0.69039
2119.49231	0.68943
2117.56374	0.68831
2115.63518	0.68720
2113.70661	0.68605
2111.77805	0.68477
2109.84949	0.68358
2107.92092	0.68248
2105.99236	0.68119
2104.06379	0.67972
2102.13523	0.67844
2100.20666	0.67745
2098.27810	0.67649
2096.34953	0.67539
2094.42097	0.67446
2092.49241	0.67376
2090.56384	0.67284
2088.63528	0.67165
2086.70671	0.67066
2084.77815	0.67002
2082.84958	0.66958
2080.92102	0.66914
2078.99245	0.66860
2077.06389	0.66796
2075.13533	0.66728
2073.20676	0.66668
2071.27820	0.66610
2069.34963	0.66554
2067.42107	0.66505
2065.49250	0.66435
2063.56394	0.66318
2061.63537	0.66196
2059.70681	0.66096
2057.77825	0.65996
2055.84968	0.65878
2053.92112	0.65750
2051.99255	0.65638
2050.06399	0.65538
2048.13542	0.65415
2046.20686	0.65270
2044.27830	0.65130
2042.34973	0.64980
2040.42117	0.64812
2038.49260	0.64658
2036.56404	0.64524
2034.63547	0.64387
2032.70691	0.64256
2030.77834	0.64153
2028.84978	0.64066
2026.92122	0.63969
2024.99265	0.63879
2023.06409	0.63805
2021.13552	0.63746
2019.20696	0.63685
2017.27839	0.63602
2015.34983	0.63532
2013.42126	0.63494
2011.49270	0.63458
2009.56414	0.63423
2007.63557	0.63394
2005.70701	0.63363
2003.77844	0.63338
2001.84988	0.63333
1999.92131	0.63341
1997.99275	0.63352
1996.06418	0.63377
1994.13562	0.63397
1992.20706	0.63352
1990.27849	0.63274
1988.34993	0.63232
1986.42136	0.63215
1984.49280	0.63208
1982.56423	0.63206
1980.63567	0.63198
1978.70710	0.63196
1976.77854	0.63209
1974.84998	0.63210
1972.92141	0.63196
1970.99285	0.63198
1969.06428	0.63185
1967.13572	0.63107
1965.20715	0.63024
1963.27859	0.62985
1961.35002	0.62941
1959.42146	0.62872
1957.49290	0.62801
1955.56433	0.62736
1953.63577	0.62685
1951.70720	0.62635
1949.77864	0.62576
1947.85007	0.62522
1945.92151	0.62483
1943.99294	0.62426
1942.06438	0.62316
1940.13582	0.62225
1938.20725	0.62188
1936.27869	0.62174
1934.35012	0.62172
1932.42156	0.62175
1930.49299	0.62183
1928.56443	0.62201
1926.63586	0.62242
1924.70730	0.62286
1922.77874	0.62295
1920.85017	0.62317
1918.92161	0.62331
1916.99304	0.62294
1915.06448	0.62303
1913.13591	0.62367
1911.20735	0.62403
1909.27878	0.62378
1907.35022	0.62341
1905.42166	0.62325
1903.49309	0.62300
1901.56453	0.62256
1899.63596	0.62209
1897.70740	0.62147
1895.77883	0.62024
1893.85027	0.61894
1891.92171	0.61810
1889.99314	0.61656
1888.06458	0.61439
1886.13601	0.61287
1884.20745	0.61150
1882.27888	0.60989
1880.35032	0.60810
1878.42175	0.60607
1876.49319	0.60409
1874.56463	0.60251
1872.63606	0.60163
1870.70750	0.60073
1868.77893	0.59800
1866.85037	0.59485
1864.92180	0.59378
1862.99324	0.59368
1861.06467	0.59329
1859.13611	0.59250
1857.20755	0.59173
1855.27898	0.59137
1853.35042	0.59138
1851.42185	0.59169
1849.49329	0.59222
1847.56472	0.59295
1845.63616	0.59321
1843.70759	0.59216
1841.77903	0.59182
1839.85047	0.59280
1837.92190	0.59365
1835.99334	0.59403
1834.06477	0.59464
1832.13621	0.59528
1830.20764	0.59459
1828.27908	0.59353
1826.35051	0.59330
1824.42195	0.59271
1822.49339	0.59232
1820.56482	0.59270
1818.63626	0.59303
1816.70769	0.59312
1814.77913	0.59352
1812.85056	0.59394
1810.92200	0.59361
1808.99343	0.59308
1807.06487	0.59311
1805.13631	0.59374
1803.20774	0.59443
1801.27918	0.59425
1799.35061	0.59352
1797.42205	0.59365
1795.49348	0.59445
1793.56492	0.59407
1791.63635	0.59165
1789.70779	0.59044
1787.77923	0.59104
1785.85066	0.59132
1783.92210	0.59109
1781.99353	0.59106
1780.06497	0.59097
1778.13640	0.59153
1776.20784	0.59316
1774.27927	0.59495
1772.35071	0.59542
1770.42215	0.59555
1768.49358	0.59704
1766.56502	0.59966
1764.63645	0.60305
1762.70789	0.60623
1760.77932	0.60895
1758.85076	0.61218
1756.92220	0.61610
1754.99363	0.62059
1753.06507	0.62571
1751.13650	0.63133
1749.20794	0.63645
1747.27937	0.64117
1745.35081	0.64633
1743.42224	0.65155
1741.49368	0.65601
1739.56512	0.65982
1737.63655	0.66391
1735.70799	0.66781
1733.77942	0.67027
1731.85086	0.67258
1729.92229	0.67642
1727.99373	0.68105
1726.06516	0.68595
1724.13660	0.69142
1722.20804	0.69752
1720.27947	0.70419
1718.35091	0.71240
1716.42234	0.72389
1714.49378	0.73648
1712.56521	0.74952
1710.63665	0.76488
1708.70808	0.78323
1706.77952	0.80786
1704.85096	0.83933
1702.92239	0.86948
1700.99383	0.90927
1699.06526	0.96829
1697.13670	1.02301
1695.20813	1.07436
1693.27957	1.11275
1691.35100	1.14463
1689.42244	1.18303
1687.49388	1.21943
1685.56531	1.25583
1683.63675	1.30924
1681.70818	1.35000
1679.77962	1.37525
1677.85105	1.39808
1675.92249	1.42258
1673.99392	1.44780
1672.06536	1.46871
1670.13680	1.48928
1668.20823	1.50860
1666.27967	1.51897
1664.35110	1.52709
1662.42254	1.53717
1660.49397	1.54556
1658.56541	1.55105
1656.63684	1.55491
1654.70828	1.55845
1652.77972	1.55700
1650.85115	1.55582
1648.92259	1.55634
1646.99402	1.55212
1645.06546	1.54865
1643.13689	1.54857
1641.20833	1.54940
1639.27976	1.55001
1637.35120	1.54953
1635.42264	1.54510
1633.49407	1.54038
1631.56551	1.53779
1629.63694	1.53338
1627.70838	1.52683
1625.77981	1.51786
1623.85125	1.50119
1621.92269	1.47845
1619.99412	1.45933
1618.06556	1.43226
1616.13699	1.38496
1614.20843	1.34571
1612.27986	1.31537
1610.35130	1.28101
1608.42273	1.24413
1606.49417	1.21327
1604.56561	1.19088
1602.63704	1.17367
1600.70848	1.16117
1598.77991	1.15385
1596.85135	1.14974
1594.92278	1.14701
1592.99422	1.14629
1591.06565	1.14839
1589.13709	1.15331
1587.20853	1.16131
1585.27996	1.17224
1583.35140	1.18598
1581.42283	1.20149
1579.49427	1.21697
1577.56570	1.23461
1575.63714	1.25608
1573.70857	1.27182
1571.78001	1.28466
1569.85145	1.30230
1567.92288	1.32031
1565.99432	1.33452
1564.06575	1.34913
1562.13719	1.36197
1560.20862	1.37387
1558.28006	1.39080
1556.35149	1.40144
1554.42293	1.40739
1552.49437	1.41048
1550.56580	1.41033
1548.63724	1.40918
1546.70867	1.40960
1544.78011	1.41021
1542.85154	1.40949
1540.92298	1.40426
1538.99441	1.39263
1537.06585	1.38802
1535.13729	1.38439
1533.20872	1.37601
1531.28016	1.36883
1529.35159	1.36580
1527.42303	1.36204
1525.49446	1.35855
1523.56590	1.35964
1521.63733	1.36085
1519.70877	1.35914
1517.78021	1.35478
1515.85164	1.34564
1513.92308	1.33366
1511.99451	1.32026
1510.06595	1.30609
1508.13738	1.27907
1506.20882	1.22833
1504.28025	1.20452
1502.35169	1.19170
1500.42313	1.17510
1498.49456	1.15096
1496.56600	1.12141
1494.63743	1.10059
1492.70887	1.08872
1490.78030	1.07413
1488.85174	1.05154
1486.92317	1.03419
1484.99461	1.02466
1483.06605	1.01819
1481.13748	1.01360
1479.20892	1.01231
1477.28035	1.01504
1475.35179	1.02163
1473.42322	1.03293
1471.49466	1.04531
1469.56610	1.05368
1467.63753	1.06065
1465.70897	1.06846
1463.78040	1.07642
1461.85184	1.08255
1459.92327	1.08743
1457.99471	1.09195
1456.06614	1.09596
1454.13758	1.09884
1452.20902	1.10009
1450.28045	1.09956
1448.35189	1.09686
1446.42332	1.09256
1444.49476	1.08801
1442.56619	1.08293
1440.63763	1.07816
1438.70906	1.07313
1436.78050	1.06342
1434.85194	1.05274
1432.92337	1.04624
1430.99481	1.03946
1429.06624	1.03144
1427.13768	1.02565
1425.20911	1.02244
1423.28055	1.02182
1421.35198	1.02399
1419.42342	1.02695
1417.49486	1.02877
1415.56629	1.02999
1413.63773	1.03092
1411.70916	1.03109
1409.78060	1.03093
1407.85203	1.03153
1405.92347	1.03336
1403.99490	1.03605
1402.06634	1.03921
1400.13778	1.04280
1398.20921	1.04634
1396.28065	1.04943
1394.35208	1.05263
1392.42352	1.05715
1390.49495	1.06401
1388.56639	1.07461
1386.63782	1.08971
1384.70926	1.10590
1382.78070	1.12034
1380.85213	1.13106
1378.92357	1.13568
1376.99500	1.13296
1375.06644	1.12138
1373.13787	1.10352
1371.20931	1.08521
1369.28074	1.06404
1367.35218	1.04041
1365.42362	1.01946
1363.49505	0.99899
1361.56649	0.97941
1359.63792	0.96671
1357.70936	0.95913
1355.78079	0.95351
1353.85223	0.94942
1351.92366	0.94701
1349.99510	0.94599
1348.06654	0.94613
1346.13797	0.94717
1344.20941	0.94931
1342.28084	0.95266
1340.35228	0.95686
1338.42371	0.96168
1336.49515	0.96816
1334.56659	0.97713
1332.63802	0.98806
1330.70946	0.99940
1328.78089	1.00862
1326.85233	1.01425
1324.92376	1.01721
1322.99520	1.01918
1321.06663	1.02076
1319.13807	1.02155
1317.20951	1.02171
1315.28094	1.02193
1313.35238	1.02190
1311.42381	1.02078
1309.49525	1.01816
1307.56668	1.01400
1305.63812	1.00889
1303.70955	1.00342
1301.78099	0.99723
1299.85243	0.99005
1297.92386	0.98210
1295.99530	0.97419
1294.06673	0.96783
1292.13817	0.96386
1290.20960	0.96186
1288.28104	0.96105
1286.35247	0.96089
1284.42391	0.96095
1282.49535	0.96116
1280.56678	0.96195
1278.63822	0.96410
1276.70965	0.96795
1274.78109	0.97302
1272.85252	0.97941
1270.92396	0.98763
1268.99539	0.99669
1267.06683	1.00533
1265.13827	1.01276
1263.20970	1.01796
1261.28114	1.02083
1259.35257	1.02250
1257.42401	1.02410
1255.49544	1.02628
1253.56688	1.02851
1251.63831	1.03017
1249.70975	1.03170
1247.78119	1.03325
1245.85262	1.03457
1243.92406	1.03562
1241.99549	1.03645
1240.06693	1.03678
1238.13836	1.03625
1236.20980	1.03485
1234.28123	1.03236
1232.35267	1.02863
1230.42411	1.02389
1228.49554	1.01819
1226.56698	1.01143
1224.63841	1.00387
1222.70985	0.99620
1220.78128	0.98885
1218.85272	0.98229
1216.92415	0.97724
1214.99559	0.97411
1213.06703	0.97315
1211.13846	0.97439
1209.20990	0.97682
1207.28133	0.97834
1205.35277	0.97676
1203.42420	0.97138
1201.49564	0.96358
1199.56708	0.95491
1197.63851	0.94612
1195.70995	0.93820
1193.78138	0.93220
1191.85282	0.92870
1189.92425	0.92782
1187.99569	0.92922
1186.06712	0.93248
1184.13856	0.93724
1182.21000	0.94314
1180.28143	0.95049
1178.35287	0.96006
1176.42430	0.97162
1174.49574	0.98408
1172.56717	0.99693
1170.63861	1.01085
1168.71004	1.02679
1166.78148	1.04437
1164.85292	1.06149
1162.92435	1.07600
1160.99579	1.08617
1159.06722	1.09009
1157.13866	1.08707
1155.21009	1.07798
1153.28153	1.06430
1151.35296	1.04810
1149.42440	1.03122
1147.49584	1.01511
1145.56727	1.00152
1143.63871	0.99202
1141.71014	0.98713
1139.78158	0.98623
1137.85301	0.98825
1135.92445	0.99251
1133.99588	0.99972
1132.06732	1.01117
1130.13876	1.02692
1128.21019	1.04544
1126.28163	1.06410
1124.35306	1.08035
1122.42450	1.09339
1120.49593	1.10386
1118.56737	1.11204
1116.63880	1.11695
1114.71024	1.11746
1112.78168	1.11416
1110.85311	1.10877
1108.92455	1.10278
1106.99598	1.09783
1105.06742	1.09562
1103.13885	1.09630
1101.21029	1.09893
1099.28172	1.10352
1097.35316	1.11083
1095.42460	1.12145
1093.49603	1.13504
1091.56747	1.15037
1089.63890	1.16716
1087.71034	1.18533
1085.78177	1.20333
1083.85321	1.21920
1081.92464	1.23131
1079.99608	1.23943
1078.06752	1.24423
1076.13895	1.24506
1074.21039	1.24098
1072.28182	1.23260
1070.35326	1.22163
1068.42469	1.20985
1066.49613	1.19796
1064.56756	1.18603
1062.63900	1.17388
1060.71044	1.16040
1058.78187	1.14578
1056.85331	1.13304
1054.92474	1.12422
1052.99618	1.11855
1051.06761	1.11525
1049.13905	1.11474
1047.21049	1.11780
1045.28192	1.12499
1043.35336	1.13494
1041.42479	1.14442
1039.49623	1.15206
1037.56766	1.15828
1035.63910	1.16245
1033.71053	1.16423
1031.78197	1.16396
1029.85341	1.16072
1027.92484	1.15385
1025.99628	1.14480
1024.06771	1.13575
1022.13915	1.12794
1020.21058	1.12156
1018.28202	1.11602
1016.35345	1.10943
1014.42489	1.09977
1012.49633	1.08651
1010.56776	1.07003
1008.63920	1.05172
1006.71063	1.03345
1004.78207	1.01608
1002.85350	1.00029
1000.92494	0.98699
998.99637	0.97568
997.06781	0.96557
995.13925	0.95680
993.21068	0.94882
991.28212	0.94047
989.35355	0.93150
987.42499	0.92279
985.49642	0.91566
983.56786	0.91075
981.63929	0.90776
979.71073	0.90649
977.78217	0.90667
975.85360	0.90681
973.92504	0.90543
971.99647	0.90274
970.06791	0.89901
968.13934	0.89431
966.21078	0.89022
964.28221	0.88888
962.35365	0.89175
960.42509	0.90008
958.49652	0.91315
956.56796	0.92629
954.63939	0.93397
952.71083	0.93420
950.78226	0.92859
948.85370	0.92051
946.92513	0.91293
944.99657	0.90699
943.06801	0.90275
941.13944	0.90035
939.21088	0.89924
937.28231	0.89827
935.35375	0.89709
933.42518	0.89609
931.49662	0.89558
929.56805	0.89560
927.63949	0.89611
925.71093	0.89701
923.78236	0.89799
921.85380	0.89899
919.92523	0.89985
917.99667	0.90001
916.06810	0.89953
914.13954	0.89958
912.21098	0.90148
910.28241	0.90513
908.35385	0.90955
906.42528	0.91444
904.49672	0.91970
902.56815	0.92501
900.63959	0.92961
898.71102	0.93255
896.78246	0.93383
894.85390	0.93365
892.92533	0.93186
890.99677	0.92896
889.06820	0.92549
887.13964	0.92220
885.21107	0.91982
883.28251	0.91791
881.35394	0.91601
879.42538	0.91456
877.49682	0.91359
875.56825	0.91230
873.63969	0.91040
871.71112	0.90863
869.78256	0.90740
867.85399	0.90629
865.92543	0.90535
863.99686	0.90522
862.06830	0.90616
860.13974	0.90795
858.21117	0.90985
856.28261	0.91134
854.35404	0.91286
852.42548	0.91457
850.49691	0.91575
848.56835	0.91591
846.63978	0.91590
844.71122	0.91689
842.78266	0.91849
840.85409	0.91987
838.92553	0.92091
836.99696	0.92164
835.06840	0.92245
833.13983	0.92416
831.21127	0.92698
829.28270	0.93016
827.35414	0.93276
825.42558	0.93457
823.49701	0.93619
821.56845	0.93794
819.63988	0.93997
817.71132	0.94225
815.78275	0.94404
813.85419	0.94480
811.92562	0.94505
809.99706	0.94554
808.06850	0.94585
806.13993	0.94556
804.21137	0.94479
802.28280	0.94319
800.35424	0.94031
798.42567	0.93609
796.49711	0.93164
794.56854	0.92795
792.63998	0.92417
790.71142	0.91949
788.78285	0.91395
786.85429	0.90784
784.92572	0.90213
782.99716	0.89723
781.06859	0.89244
779.14003	0.88730
777.21147	0.88207
775.28290	0.87709
773.35434	0.87244
771.42577	0.86877
769.49721	0.86673
767.56864	0.86575
765.64008	0.86529
763.71151	0.86543
761.78295	0.86663
759.85439	0.86947
757.92582	0.87356
755.99726	0.87839
754.06869	0.88454
752.14013	0.89161
750.21156	0.89826
748.28300	0.90464
746.35443	0.91186
744.42587	0.92053
742.49731	0.92974
740.56874	0.93783
738.64018	0.94524
736.71161	0.95365
734.78305	0.96358
732.85448	0.97486
730.92592	0.98655
728.99735	0.99697
727.06879	1.00670
725.14023	1.01747
723.21166	1.02851
721.28310	1.03912
719.35453	1.04964
717.42597	1.05924
715.49740	1.06806
713.56884	1.07730
711.64027	1.08678
709.71171	1.09554
707.78315	1.10383
705.85458	1.11160
703.92602	1.11735
701.99745	1.12131
700.06889	1.12463
698.14032	1.12688
696.21176	1.12707
694.28319	1.12469
692.35463	1.12073
690.42607	1.11580
688.49750	1.10846
686.56894	1.09858
684.64037	1.08888
682.71181	1.08071
680.78324	1.07247
678.85468	1.06290
676.92611	1.05302
674.99755	1.04446
673.06899	1.03840
671.14042	1.03427
669.21186	1.02801
667.28329	1.02041
665.35473	1.01963
663.42616	1.02259
661.49760	1.02622
659.56903	1.02874
657.64047	1.03145
655.71191	1.03804
653.78334	1.04768
651.85478	1.05619
649.92621	1.06387
647.99765	1.07383
646.06908	1.08605
644.14052	1.09880
642.21195	1.11115
640.28339	1.12132
638.35483	1.12728
636.42626	1.13036
634.49770	1.13219
632.56913	1.13120
630.64057	1.12546
628.71200	1.11549
626.78344	1.10434
624.85488	1.09369
622.92631	1.08016
620.99775	1.06104
619.06918	1.03893
617.14062	1.01623
615.21205	0.99424
613.28349	0.97334
611.35492	0.95124
609.42636	0.92783
607.49780	0.90668
605.56923	0.88922
603.64067	0.87317
601.71210	0.85735
599.78354	0.84421
