3997.91406	0.80917
3995.98550	0.80772
3994.05693	0.80697
3992.12837	0.80708
3990.19980	0.80732
3988.27124	0.80709
3986.34268	0.80632
3984.41411	0.80570
3982.48555	0.80581
3980.55698	0.80631
3978.62842	0.80670
3976.69985	0.80667
3974.77129	0.80638
3972.84272	0.80652
3970.91416	0.80687
3968.98560	0.80691
3967.05703	0.80670
3965.12847	0.80645
3963.19990	0.80636
3961.27134	0.80650
3959.34277	0.80649
3957.41421	0.80585
3955.48564	0.80538
3953.55708	0.80574
3951.62852	0.80564
3949.69995	0.80467
3947.77139	0.80476
3945.84282	0.80608
3943.91426	0.80581
3941.98569	0.80375
3940.05713	0.80312
3938.12856	0.80429
3936.20000	0.80564
3934.27144	0.80553
3932.34287	0.80335
3930.41431	0.80160
3928.48574	0.80181
3926.55718	0.80131
3924.62861	0.79929
3922.70005	0.79918
3920.77148	0.80028
3918.84292	0.79937
3916.91436	0.79725
3914.98579	0.79596
3913.05723	0.79576
3911.12866	0.79660
3909.20010	0.79853
3907.27153	0.80027
3905.34297	0.79900
3903.41440	0.79426
3901.48584	0.78962
3899.55728	0.78709
3897.62871	0.78823
3895.70015	0.79184
3893.77158	0.79407
3891.84302	0.79207
3889.91445	0.79049
3887.98589	0.79214
3886.05733	0.79229
3884.12876	0.79031
3882.20020	0.78871
3880.27163	0.78661
3878.34307	0.78758
3876.41450	0.79067
3874.48594	0.79132
3872.55737	0.78915
3870.62881	0.78571
3868.70025	0.78509
3866.77168	0.78814
3864.84312	0.78861
3862.91455	0.78584
3860.98599	0.78572
3859.05742	0.78807
3857.12886	0.78999
3855.20029	0.78671
3853.27173	0.77623
3851.34317	0.77558
3849.41460	0.78092
3847.48604	0.78520
3845.55747	0.78768
3843.62891	0.78819
3841.70034	0.78780
3839.77178	0.78609
3837.84321	0.78162
3835.91465	0.77986
3833.98609	0.78185
3832.05752	0.78347
3830.12896	0.78365
3828.20039	0.78335
3826.27183	0.78345
3824.34326	0.78518
3822.41470	0.78505
3820.48613	0.78044
3818.55757	0.77916
3816.62901	0.77807
3814.70044	0.77572
3812.77188	0.77692
3810.84331	0.77999
3808.91475	0.78172
3806.98618	0.78022
3805.05762	0.77938
3803.12905	0.77862
3801.20049	0.77342
3799.27193	0.77150
3797.34336	0.77251
3795.41480	0.77240
3793.48623	0.77301
3791.55767	0.77387
3789.62910	0.77409
3787.70054	0.77413
3785.77197	0.77338
3783.84341	0.77296
3781.91485	0.77398
3779.98628	0.77371
3778.05772	0.77231
3776.12915	0.77281
3774.20059	0.77465
3772.27202	0.77589
3770.34346	0.77427
3768.41489	0.77161
3766.48633	0.77065
3764.55777	0.77111
3762.62920	0.77312
3760.70064	0.77423
3758.77207	0.77293
3756.84351	0.77322
3754.91494	0.77555
3752.98638	0.77551
3751.05781	0.76884
3749.12925	0.76554
3747.20069	0.76854
3745.27212	0.76775
3743.34356	0.76444
3741.41499	0.76658
3739.48643	0.77053
3737.55786	0.77106
3735.62930	0.76541
3733.70074	0.75992
3731.77217	0.76001
3729.84361	0.76209
3727.91504	0.76311
3725.98648	0.76242
3724.05791	0.76204
3722.12935	0.76243
3720.20078	0.76283
3718.27222	0.76365
3716.34366	0.76506
3714.41509	0.76675
3712.48653	0.76604
3710.55796	0.76173
3708.62940	0.76000
3706.70083	0.76147
3704.77227	0.76395
3702.84370	0.76468
3700.91514	0.76404
3698.98658	0.76541
3697.05801	0.76760
3695.12945	0.76929
3693.20088	0.77111
3691.27232	0.77155
3689.34375	0.76792
3687.41519	0.76640
3685.48662	0.76863
3683.55806	0.77096
3681.62950	0.77257
3679.70093	0.77421
3677.77237	0.77509
3675.84380	0.77244
3673.91524	0.77269
3671.98667	0.77730
3670.05811	0.77986
3668.12954	0.78137
3666.20098	0.78461
3664.27242	0.78818
3662.34385	0.79191
3660.41529	0.79642
3658.48672	0.80021
3656.55816	0.80061
3654.62959	0.80124
3652.70103	0.80581
3650.77246	0.81007
3648.84390	0.80821
3646.91534	0.80766
3644.98677	0.81101
3643.05821	0.81550
3641.12964	0.82000
3639.20108	0.82375
3637.27251	0.82726
3635.34395	0.83166
3633.41538	0.83718
3631.48682	0.84189
3629.55826	0.84284
3627.62969	0.84471
3625.70113	0.85188
3623.77256	0.85942
3621.84400	0.86559
3619.91543	0.87011
3617.98687	0.87396
3616.05830	0.87879
3614.12974	0.88241
3612.20118	0.88458
3610.27261	0.88775
3608.34405	0.89260
3606.41548	0.89930
3604.48692	0.90610
3602.55835	0.91138
3600.62979	0.91483
3598.70123	0.91783
3596.77266	0.92181
3594.84410	0.92678
3592.91553	0.93215
3590.98697	0.93697
3589.05840	0.93993
3587.12984	0.94105
3585.20127	0.94571
3583.27271	0.95353
3581.34415	0.96025
3579.41558	0.96479
3577.48702	0.96882
3575.55845	0.97316
3573.62989	0.97775
3571.70132	0.98335
3569.77276	0.98962
3567.84419	0.99505
3565.91563	0.99940
3563.98707	1.00449
3562.05850	1.01130
3560.12994	1.01873
3558.20137	1.02507
3556.27281	1.02979
3554.34424	1.03362
3552.41568	1.03836
3550.48711	1.04480
3548.55855	1.05128
3546.62999	1.05595
3544.70142	1.05925
3542.77286	1.06303
3540.84429	1.06774
3538.91573	1.07360
3536.98716	1.08062
3535.05860	1.08737
3533.13003	1.09313
3531.20147	1.09878
3529.27291	1.10440
3527.34434	1.11187
3525.41578	1.12200
3523.48721	1.13056
3521.55865	1.13596
3519.63008	1.14132
3517.70152	1.14891
3515.77295	1.15797
3513.84439	1.16651
3511.91583	1.17328
3509.98726	1.17772
3508.05870	1.18288
3506.13013	1.19180
3504.20157	1.20130
3502.27300	1.20792
3500.34444	1.21460
3498.41587	1.22240
3496.48731	1.22905
3494.55875	1.23556
3492.63018	1.24391
3490.70162	1.25350
3488.77305	1.26154
3486.84449	1.26588
3484.91592	1.26862
3482.98736	1.27290
3481.05879	1.27831
3479.13023	1.28318
3477.20167	1.28733
3475.27310	1.29075
3473.34454	1.29487
3471.41597	1.30043
3469.48741	1.30616
3467.55884	1.31122
3465.63028	1.31492
3463.70171	1.31791
3461.77315	1.32198
3459.84459	1.32622
3457.91602	1.32796
3455.98746	1.32913
3454.05889	1.33474
3452.13033	1.34385
3450.20176	1.34995
3448.27320	1.35085
3446.34464	1.35141
3444.41607	1.35523
3442.48751	1.36033
3440.55894	1.36353
3438.63038	1.36479
3436.70181	1.36670
3434.77325	1.36953
3432.84468	1.37166
3430.91612	1.37293
3428.98756	1.37487
3427.05899	1.37742
3425.13043	1.37845
3423.20186	1.37741
3421.27330	1.37547
3419.34473	1.37468
3417.41617	1.37624
3415.48760	1.37853
3413.55904	1.38056
3411.63048	1.38396
3409.70191	1.38782
3407.77335	1.38856
3405.84478	1.38728
3403.91622	1.38793
3401.98765	1.39092
3400.05909	1.39440
3398.13052	1.39633
3396.20196	1.39570
3394.27340	1.39403
3392.34483	1.39304
3390.41627	1.39382
3388.48770	1.39739
3386.55914	1.40105
3384.63057	1.40102
3382.70201	1.39980
3380.77344	1.40120
3378.84488	1.40435
3376.91632	1.40871
3374.98775	1.41449
3373.05919	1.41962
3371.13062	1.42287
3369.20206	1.42374
3367.27349	1.42395
3365.34493	1.42795
3363.41636	1.43500
3361.48780	1.44171
3359.55924	1.44750
3357.63067	1.45161
3355.70211	1.45319
3353.77354	1.45278
3351.84498	1.45206
3349.91641	1.45369
3347.98785	1.45854
3346.05928	1.46284
3344.13072	1.46323
3342.20216	1.46167
3340.27359	1.46200
3338.34503	1.46540
3336.41646	1.46922
3334.48790	1.47173
3332.55933	1.47515
3330.63077	1.47965
3328.70220	1.48262
3326.77364	1.48589
3324.84508	1.49269
3322.91651	1.50078
3320.98795	1.50795
3319.05938	1.51533
3317.13082	1.52352
3315.20225	1.53069
3313.27369	1.53371
3311.34513	1.53535
3309.41656	1.54063
3307.48800	1.54697
3305.55943	1.55233
3303.63087	1.55872
3301.70230	1.56466
3299.77374	1.56843
3297.84517	1.57064
3295.91661	1.57130
3293.98805	1.57116
3292.05948	1.57072
3290.13092	1.57071
3288.20235	1.57298
3286.27379	1.57428
3284.34522	1.57020
3282.41666	1.56420
3280.48809	1.56114
3278.55953	1.56075
3276.63097	1.55973
3274.70240	1.55603
3272.77384	1.55171
3270.84527	1.54919
3268.91671	1.54596
3266.98814	1.53866
3265.05958	1.53051
3263.13101	1.52534
3261.20245	1.52052
3259.27389	1.51372
3257.34532	1.50685
3255.41676	1.50057
3253.48819	1.49228
3251.55963	1.48143
3249.63106	1.47143
3247.70250	1.46385
3245.77393	1.45576
3243.84537	1.44604
3241.91681	1.43694
3239.98824	1.42818
3238.05968	1.41924
3236.13111	1.41132
3234.20255	1.40385
3232.27398	1.39629
3230.34542	1.38957
3228.41685	1.38419
3226.48829	1.38037
3224.55973	1.37790
3222.63116	1.37635
3220.70260	1.37410
3218.77403	1.36887
3216.84547	1.36218
3214.91690	1.35738
3212.98834	1.35427
3211.05977	1.35025
3209.13121	1.34477
3207.20265	1.33996
3205.27408	1.33639
3203.34552	1.33255
3201.41695	1.32858
3199.48839	1.32453
3197.55982	1.31864
3195.63126	1.31206
3193.70269	1.30790
3191.77413	1.30524
3189.84557	1.30119
3187.91700	1.29516
3185.98844	1.28775
3184.05987	1.28028
3182.13131	1.27465
3180.20274	1.27062
3178.27418	1.26634
3176.34562	1.26132
3174.41705	1.25583
3172.48849	1.25018
3170.55992	1.24557
3168.63136	1.24275
3166.70279	1.24093
3164.77423	1.23831
3162.84566	1.23348
3160.91710	1.22818
3158.98854	1.22558
3157.05997	1.22531
3155.13141	1.22480
3153.20284	1.22241
3151.27428	1.21806
3149.34571	1.21398
3147.41715	1.21129
3145.48858	1.20881
3143.56002	1.20624
3141.63146	1.20417
3139.70289	1.20246
3137.77433	1.20039
3135.84576	1.19808
3133.91720	1.19631
3131.98863	1.19520
3130.06007	1.19438
3128.13150	1.19344
3126.20294	1.19258
3124.27438	1.19201
3122.34581	1.19197
3120.41725	1.19343
3118.48868	1.19501
3116.56012	1.19444
3114.63155	1.19290
3112.70299	1.19228
3110.77442	1.19262
3108.84586	1.19308
3106.91730	1.19274
3104.98873	1.19141
3103.06017	1.18991
3101.13160	1.18909
3099.20304	1.18866
3097.27447	1.18814
3095.34591	1.18740
3093.41734	1.18622
3091.48878	1.18446
3089.56022	1.18207
3087.63165	1.17977
3085.70309	1.17782
3083.77452	1.17493
3081.84596	1.17142
3079.91739	1.16883
3077.98883	1.16690
3076.06026	1.16532
3074.13170	1.16345
3072.20314	1.16017
3070.27457	1.15724
3068.34601	1.15597
3066.41744	1.15503
3064.48888	1.15405
3062.56031	1.15281
3060.63175	1.15031
3058.70318	1.14637
3056.77462	1.14157
3054.84606	1.13750
3052.91749	1.13522
3050.98893	1.13334
3049.06036	1.13003
3047.13180	1.12517
3045.20323	1.12004
3043.27467	1.11578
3041.34610	1.11244
3039.41754	1.10959
3037.48898	1.10674
3035.56041	1.10255
3033.63185	1.09649
3031.70328	1.09024
3029.77472	1.08586
3027.84615	1.08291
3025.91759	1.07948
3023.98903	1.07522
3022.06046	1.07151
3020.13190	1.06932
3018.20333	1.06798
3016.27477	1.06583
3014.34620	1.06271
3012.41764	1.06024
3010.48907	1.05922
3008.56051	1.05876
3006.63195	1.05791
3004.70338	1.05677
3002.77482	1.05595
3000.84625	1.05543
2998.91769	1.05536
2996.98912	1.05620
2995.06056	1.05789
2993.13199	1.06066
2991.20343	1.06460
2989.27487	1.06909
2987.34630	1.07397
2985.41774	1.07919
2983.48917	1.08462
2981.56061	1.09080
2979.63204	1.09784
2977.70348	1.10507
2975.77491	1.11264
2973.84635	1.12139
2971.91779	1.13131
2969.98922	1.14061
2968.06066	1.14809
2966.13209	1.15509
2964.20353	1.16184
2962.27496	1.16658
2960.34640	1.16843
2958.41783	1.16774
2956.48927	1.16500
2954.56071	1.16028
2952.63214	1.15439
2950.70358	1.14936
2948.77501	1.14678
2946.84645	1.14694
2944.91788	1.14975
2942.98932	1.15558
2941.06075	1.16420
2939.13219	1.17355
2937.20363	1.18196
2935.27506	1.19065
2933.34650	1.20049
2931.41793	1.20963
2929.48937	1.21707
2927.56080	1.22321
2925.63224	1.22848
2923.70367	1.23384
2921.77511	1.23874
2919.84655	1.24009
2917.91798	1.23421
2915.98942	1.21916
2914.06085	1.19723
2912.13229	1.17370
2910.20372	1.15290
2908.27516	1.13656
2906.34659	1.12451
2904.41803	1.11615
2902.48947	1.11104
2900.56090	1.10794
2898.63234	1.10502
2896.70377	1.10125
2894.77521	1.09687
2892.84664	1.09280
2890.91808	1.08912
2888.98952	1.08525
2887.06095	1.08163
2885.13239	1.07905
2883.20382	1.07777
2881.27526	1.07783
2879.34669	1.07858
2877.41813	1.07889
2875.48956	1.07814
2873.56100	1.07613
2871.63244	1.07279
2869.70387	1.06811
2867.77531	1.06266
2865.84674	1.05778
2863.91818	1.05489
2861.98961	1.05479
2860.06105	1.05781
2858.13248	1.06371
2856.20392	1.07180
2854.27536	1.08133
2852.34679	1.09072
2850.41823	1.09429
2848.48966	1.08333
2846.56110	1.05785
2844.63253	1.02943
2842.70397	1.00692
2840.77540	0.99076
2838.84684	0.97898
2836.91828	0.96990
2834.98971	0.96218
2833.06115	0.95551
2831.13258	0.94962
2829.20402	0.94387
2827.27545	0.93840
2825.34689	0.93402
2823.41832	0.93090
2821.48976	0.92768
2819.56120	0.92316
2817.63263	0.91883
2815.70407	0.91626
2813.77550	0.91408
2811.84694	0.91123
2809.91837	0.90901
2807.98981	0.90782
2806.06124	0.90638
2804.13268	0.90468
2802.20412	0.90370
2800.27555	0.90293
2798.34699	0.90166
2796.41842	0.90011
2794.48986	0.89831
2792.56129	0.89644
2790.63273	0.89480
2788.70416	0.89293
2786.77560	0.89059
2784.84704	0.88823
2782.91847	0.88613
2780.98991	0.88423
2779.06134	0.88236
2777.13278	0.88029
2775.20421	0.87799
2773.27565	0.87593
2771.34708	0.87424
2769.41852	0.87227
2767.48996	0.86979
2765.56139	0.86752
2763.63283	0.86608
2761.70426	0.86536
2759.77570	0.86435
2757.84713	0.86260
2755.91857	0.86129
2753.99001	0.86078
2752.06144	0.85986
2750.13288	0.85836
2748.20431	0.85710
2746.27575	0.85616
2744.34718	0.85501
2742.41862	0.85330
2740.49005	0.85148
2738.56149	0.84987
2736.63293	0.84809
2734.70436	0.84597
2732.77580	0.84359
2730.84723	0.84086
2728.91867	0.83815
2726.99010	0.83572
2725.06154	0.83333
2723.13297	0.83091
2721.20441	0.82857
2719.27585	0.82648
2717.34728	0.82486
2715.41872	0.82350
2713.49015	0.82234
2711.56159	0.82157
2709.63302	0.82093
2707.70446	0.82011
2705.77589	0.81943
2703.84733	0.81921
2701.91877	0.81931
2699.99020	0.81917
2698.06164	0.81850
2696.13307	0.81768
2694.20451	0.81709
2692.27594	0.81660
2690.34738	0.81587
2688.41881	0.81481
2686.49025	0.81366
2684.56169	0.81253
2682.63312	0.81106
2680.70456	0.80931
2678.77599	0.80785
2676.84743	0.80656
2674.91886	0.80501
2672.99030	0.80317
2671.06173	0.80102
2669.13317	0.79874
2667.20461	0.79689
2665.27604	0.79557
2663.34748	0.79441
2661.41891	0.79325
2659.49035	0.79226
2657.56178	0.79166
2655.63322	0.79128
2653.70465	0.79072
2651.77609	0.79008
2649.84753	0.78954
2647.91896	0.78906
2645.99040	0.78870
2644.06183	0.78843
2642.13327	0.78800
2640.20470	0.78732
2638.27614	0.78645
2636.34757	0.78520
2634.41901	0.78364
2632.49045	0.78220
2630.56188	0.78107
2628.63332	0.78004
2626.70475	0.77873
2624.77619	0.77716
2622.84762	0.77555
2620.91906	0.77388
2618.99049	0.77231
2617.06193	0.77125
2615.13337	0.77046
2613.20480	0.76940
2611.27624	0.76807
2609.34767	0.76673
2607.41911	0.76570
2605.49054	0.76516
2603.56198	0.76481
2601.63342	0.76438
2599.70485	0.76375
2597.77629	0.76305
2595.84772	0.76246
2593.91916	0.76174
2591.99059	0.76072
2590.06203	0.75991
2588.13346	0.75949
2586.20490	0.75897
2584.27634	0.75793
2582.34777	0.75644
2580.41921	0.75490
2578.49064	0.75344
2576.56208	0.75184
2574.63351	0.75028
2572.70495	0.74902
2570.77638	0.74772
2568.84782	0.74614
2566.91926	0.74457
2564.99069	0.74320
2563.06213	0.74208
2561.13356	0.74119
2559.20500	0.74038
2557.27643	0.73976
2555.34787	0.73954
2553.41930	0.73950
2551.49074	0.73923
2549.56218	0.73881
2547.63361	0.73879
2545.70505	0.73896
2543.77648	0.73855
2541.84792	0.73763
2539.91935	0.73690
2537.99079	0.73648
2536.06222	0.73606
2534.13366	0.73553
2532.20510	0.73483
2530.27653	0.73375
2528.34797	0.73236
2526.41940	0.73083
2524.49084	0.72924
2522.56227	0.72779
2520.63371	0.72623
2518.70514	0.72440
2516.77658	0.72272
2514.84802	0.72139
2512.91945	0.72020
2510.99089	0.71901
2509.06232	0.71788
2507.13376	0.71684
2505.20519	0.71604
2503.27663	0.71543
2501.34806	0.71468
2499.41950	0.71379
2497.49094	0.71310
2495.56237	0.71248
2493.63381	0.71162
2491.70524	0.71058
2489.77668	0.70963
2487.84811	0.70873
2485.91955	0.70749
2483.99098	0.70609
2482.06242	0.70502
2480.13386	0.70409
2478.20529	0.70296
2476.27673	0.70172
2474.34816	0.70035
2472.41960	0.69896
2470.49103	0.69788
2468.56247	0.69680
2466.63391	0.69553
2464.70534	0.69459
2462.77678	0.69389
2460.84821	0.69298
2458.91965	0.69201
2456.99108	0.69131
2455.06252	0.69096
2453.13395	0.69080
2451.20539	0.69038
2449.27683	0.68957
2447.34826	0.68873
2445.41970	0.68810
2443.49113	0.68756
2441.56257	0.68694
2439.63400	0.68624
2437.70544	0.68548
2435.77687	0.68457
2433.84831	0.68349
2431.91975	0.68226
2429.99118	0.68105
2428.06262	0.67989
2426.13405	0.67858
2424.20549	0.67708
2422.27692	0.67535
2420.34836	0.67340
2418.41979	0.67163
2416.49123	0.67030
2414.56267	0.66923
2412.63410	0.66820
2410.70554	0.66705
2408.77697	0.66582
2406.84841	0.66466
2404.91984	0.66354
2402.99128	0.66250
2401.06271	0.66165
2399.13415	0.66103
2397.20559	0.66058
2395.27702	0.66002
2393.34846	0.65913
2391.41989	0.65816
2389.49133	0.65740
2387.56276	0.65676
2385.63420	0.65617
2383.70563	0.65568
2381.77707	0.65518
2379.84851	0.65470
2377.91994	0.65428
2375.99138	0.65359
2374.06281	0.65250
2372.13425	0.65138
2370.20568	0.65049
2368.27712	0.64938
2366.34855	0.64759
2364.41999	0.64625
2362.49143	0.64642
2360.56286	0.64654
2358.63430	0.64498
2356.70573	0.64275
2354.77717	0.64135
2352.84860	0.64080
2350.92004	0.64117
2348.99147	0.64212
2347.06291	0.64256
2345.13435	0.64161
2343.20578	0.64028
2341.27722	0.64011
2339.34865	0.63994
2337.42009	0.63887
2335.49152	0.63814
2333.56296	0.63832
2331.63440	0.63823
2329.70583	0.63706
2327.77727	0.63538
2325.84870	0.63436
2323.92014	0.63425
2321.99157	0.63403
2320.06301	0.63310
2318.13444	0.63162
2316.20588	0.63000
2314.27732	0.62875
2312.34875	0.62785
2310.42019	0.62686
2308.49162	0.62575
2306.56306	0.62476
2304.63449	0.62378
2302.70593	0.62264
2300.77736	0.62165
2298.84880	0.62095
2296.92024	0.62033
2294.99167	0.61984
2293.06311	0.61957
2291.13454	0.61920
2289.20598	0.61846
2287.27741	0.61757
2285.34885	0.61689
2283.42028	0.61641
2281.49172	0.61588
2279.56316	0.61534
2277.63459	0.61486
2275.70603	0.61439
2273.77746	0.61413
2271.84890	0.61407
2269.92033	0.61373
2267.99177	0.61311
2266.06320	0.61279
2264.13464	0.61281
2262.20608	0.61259
2260.27751	0.61201
2258.34895	0.61150
2256.42038	0.61119
2254.49182	0.61091
2252.56325	0.61054
2250.63469	0.61007
2248.70612	0.60949
2246.77756	0.60883
2244.84900	0.60808
2242.92043	0.60733
2240.99187	0.60663
2239.06330	0.60585
2237.13474	0.60498
2235.20617	0.60410
2233.27761	0.60315
2231.34904	0.60217
2229.42048	0.60113
2227.49192	0.59996
2225.56335	0.59886
2223.63479	0.59785
2221.70622	0.59674
2219.77766	0.59563
2217.84909	0.59488
2215.92053	0.59449
2213.99196	0.59401
2212.06340	0.59340
2210.13484	0.59293
2208.20627	0.59269
2206.27771	0.59252
2204.34914	0.59233
2202.42058	0.59211
2200.49201	0.59192
2198.56345	0.59181
2196.63488	0.59178
2194.70632	0.59175
2192.77776	0.59164
2190.84919	0.59147
2188.92063	0.59123
2186.99206	0.59102
2185.06350	0.59084
2183.13493	0.59059
2181.20637	0.59035
2179.27781	0.59018
2177.34924	0.58995
2175.42068	0.58967
2173.49211	0.58951
2171.56355	0.58960
2169.63498	0.58987
2167.70642	0.59018
2165.77785	0.59041
2163.84929	0.59049
2161.92073	0.59050
2159.99216	0.59052
2158.06360	0.59048
2156.13503	0.59036
2154.20647	0.59018
2152.27790	0.58990
2150.34934	0.58953
2148.42077	0.58907
2146.49221	0.58848
2144.56365	0.58777
2142.63508	0.58695
2140.70652	0.58600
2138.77795	0.58500
2136.84939	0.58395
2134.92082	0.58268
2132.99226	0.58118
2131.06369	0.57965
2129.13513	0.57821
2127.20657	0.57692
2125.27800	0.57589
2123.34944	0.57500
2121.42087	0.57401
2119.49231	0.57297
2117.56374	0.57208
2115.63518	0.57132
2113.70661	0.57067
2111.77805	0.57013
2109.84949	0.56971
2107.92092	0.56944
2105.99236	0.56924
2104.06379	0.56889
2102.13523	0.56837
2100.20666	0.56793
2098.27810	0.56779
2096.34953	0.56788
2094.42097	0.56790
2092.49241	0.56766
2090.56384	0.56727
2088.63528	0.56702
2086.70671	0.56700
2084.77815	0.56695
2082.84958	0.56675
2080.92102	0.56659
2078.99245	0.56647
2077.06389	0.56620
2075.13533	0.56587
2073.20676	0.56559
2071.27820	0.56539
2069.34963	0.56536
2067.42107	0.56544
2065.49250	0.56519
2063.56394	0.56455
2061.63537	0.56395
2059.70681	0.56355
2057.77825	0.56314
2055.84968	0.56254
2053.92112	0.56176
2051.99255	0.56096
2050.06399	0.56014
2048.13542	0.55914
2046.20686	0.55799
2044.27830	0.55674
2042.34973	0.55510
2040.42117	0.55316
2038.49260	0.55149
2036.56404	0.55019
2034.63547	0.54895
2032.70691	0.54760
2030.77834	0.54622
2028.84978	0.54488
2026.92122	0.54363
2024.99265	0.54246
2023.06409	0.54139
2021.13552	0.54053
2019.20696	0.53981
2017.27839	0.53900
2015.34983	0.53833
2013.42126	0.53798
2011.49270	0.53771
2009.56414	0.53746
2007.63557	0.53722
2005.70701	0.53686
2003.77844	0.53656
2001.84988	0.53640
1999.92131	0.53619
1997.99275	0.53583
1996.06418	0.53552
1994.13562	0.53522
1992.20706	0.53460
1990.27849	0.53378
1988.34993	0.53316
1986.42136	0.53265
1984.49280	0.53215
1982.56423	0.53156
1980.63567	0.53082
1978.70710	0.53009
1976.77854	0.52942
1974.84998	0.52865
1972.92141	0.52785
1970.99285	0.52739
1969.06428	0.52712
1967.13572	0.52647
1965.20715	0.52552
1963.27859	0.52481
1961.35002	0.52429
1959.42146	0.52371
1957.49290	0.52301
1955.56433	0.52219
1953.63577	0.52127
1951.70720	0.52037
1949.77864	0.51960
1947.85007	0.51898
1945.92151	0.51850
1943.99294	0.51775
1942.06438	0.51644
1940.13582	0.51530
1938.20725	0.51476
1936.27869	0.51443
1934.35012	0.51401
1932.42156	0.51350
1930.49299	0.51299
1928.56443	0.51263
1926.63586	0.51263
1924.70730	0.51278
1922.77874	0.51268
1920.85017	0.51268
1918.92161	0.51282
1916.99304	0.51280
1915.06448	0.51316
1913.13591	0.51394
1911.20735	0.51455
1909.27878	0.51485
1907.35022	0.51521
1905.42166	0.51578
1903.49309	0.51624
1901.56453	0.51647
1899.63596	0.51666
1897.70740	0.51683
1895.77883	0.51672
1893.85027	0.51641
1891.92171	0.51607
1889.99314	0.51514
1888.06458	0.51397
1886.13601	0.51344
1884.20745	0.51295
1882.27888	0.51210
1880.35032	0.51115
1878.42175	0.51019
1876.49319	0.50925
1874.56463	0.50851
1872.63606	0.50830
1870.70750	0.50811
1868.77893	0.50690
1866.85037	0.50548
1864.92180	0.50517
1862.99324	0.50527
1861.06467	0.50512
1859.13611	0.50476
1857.20755	0.50439
1855.27898	0.50410
1853.35042	0.50386
1851.42185	0.50374
1849.49329	0.50377
1847.56472	0.50383
1845.63616	0.50334
1843.70759	0.50178
1841.77903	0.50097
1839.85047	0.50135
1837.92190	0.50173
1835.99334	0.50191
1834.06477	0.50252
1832.13621	0.50352
1830.20764	0.50386
1828.27908	0.50386
1826.35051	0.50439
1824.42195	0.50482
1822.49339	0.50531
1820.56482	0.50619
1818.63626	0.50719
1816.70769	0.50820
1814.77913	0.50936
1812.85056	0.51043
1810.92200	0.51107
1808.99343	0.51164
1807.06487	0.51240
1805.13631	0.51335
1803.20774	0.51425
1801.27918	0.51452
1799.35061	0.51423
1797.42205	0.51440
1795.49348	0.51510
1793.56492	0.51502
1791.63635	0.51346
1789.70779	0.51263
1787.77923	0.51306
1785.85066	0.51340
1783.92210	0.51348
1781.99353	0.51368
1780.06497	0.51383
1778.13640	0.51443
1776.20784	0.51569
1774.27927	0.51688
1772.35071	0.51688
1770.42215	0.51675
1768.49358	0.51787
1766.56502	0.51956
1764.63645	0.52152
1762.70789	0.52334
1760.77932	0.52512
1758.85076	0.52746
1756.92220	0.53037
1754.99363	0.53389
1753.06507	0.53819
1751.13650	0.54353
1749.20794	0.54951
1747.27937	0.55547
1745.35081	0.56121
1743.42224	0.56675
1741.49368	0.57181
1739.56512	0.57629
1737.63655	0.58049
1735.70799	0.58430
1733.77942	0.58729
1731.85086	0.58996
1729.92229	0.59354
1727.99373	0.59799
1726.06516	0.60304
1724.13660	0.60889
1722.20804	0.61512
1720.27947	0.62170
1718.35091	0.63009
1716.42234	0.64084
1714.49378	0.65056
1712.56521	0.66020
1710.63665	0.67161
1708.70808	0.68480
1706.77952	0.70255
1704.85096	0.72566
1702.92239	0.74814
1700.99383	0.77908
1699.06526	0.82677
1697.13670	0.87380
1695.20813	0.92059
1693.27957	0.95650
1691.35100	0.98670
1689.42244	1.02290
1687.49388	1.05718
1685.56531	1.09283
1683.63675	1.14810
1681.70818	1.19017
1679.77962	1.21672
1677.85105	1.24333
1675.92249	1.27456
1673.99392	1.30621
1672.06536	1.33073
1670.13680	1.35869
1668.20823	1.39169
1666.27967	1.41380
1664.35110	1.43380
1662.42254	1.45946
1660.49397	1.48134
1658.56541	1.49598
1656.63684	1.50633
1654.70828	1.51373
1652.77972	1.51656
1650.85115	1.51788
1648.92259	1.51914
1646.99402	1.51614
1645.06546	1.51150
1643.13689	1.50925
1641.20833	1.50848
1639.27976	1.50739
1637.35120	1.50451
1635.42264	1.49617
1633.49407	1.48786
1631.56551	1.48273
1629.63694	1.47558
1627.70838	1.46574
1625.77981	1.45391
1623.85125	1.43375
1621.92269	1.40655
1619.99412	1.38478
1618.06556	1.35758
1616.13699	1.31192
1614.20843	1.27392
1612.27986	1.24562
1610.35130	1.21552
1608.42273	1.18464
1606.49417	1.15939
1604.56561	1.14082
1602.63704	1.12641
1600.70848	1.11587
1598.77991	1.10859
1596.85135	1.10303
1594.92278	1.09825
1592.99422	1.09459
1591.06565	1.09321
1589.13709	1.09443
1587.20853	1.09760
1585.27996	1.10203
1583.35140	1.10850
1581.42283	1.11741
1579.49427	1.12709
1577.56570	1.13795
1575.63714	1.15275
1573.70857	1.16591
1571.78001	1.17742
1569.85145	1.19422
1567.92288	1.21356
1565.99432	1.22965
1564.06575	1.24535
1562.13719	1.25913
1560.20862	1.27496
1558.28006	1.30364
1556.35149	1.32095
1554.42293	1.33030
1552.49437	1.33825
1550.56580	1.34555
1548.63724	1.35107
1546.70867	1.35407
1544.78011	1.35594
1542.85154	1.35670
1540.92298	1.34849
1538.99441	1.33148
1537.06585	1.32589
1535.13729	1.32176
1533.20872	1.31019
1531.28016	1.29741
1529.35159	1.28940
1527.42303	1.28147
1525.49446	1.27231
1523.56590	1.26445
1521.63733	1.25672
1519.70877	1.25154
1517.78021	1.24572
1515.85164	1.23470
1513.92308	1.22101
1511.99451	1.20639
1510.06595	1.19184
1508.13738	1.16598
1506.20882	1.11851
1504.28025	1.09671
1502.35169	1.08544
1500.42313	1.07130
1498.49456	1.05102
1496.56600	1.02545
1494.63743	1.00662
1492.70887	0.99511
1490.78030	0.98028
1488.85174	0.95772
1486.92317	0.93991
1484.99461	0.92907
1483.06605	0.92091
1481.13748	0.91415
1479.20892	0.91040
1477.28035	0.91097
1475.35179	0.91601
1473.42322	0.92649
1471.49466	0.93869
1469.56610	0.94711
1467.63753	0.95400
1465.70897	0.96187
1463.78040	0.97026
1461.85184	0.97661
1459.92327	0.98196
1457.99471	0.98976
1456.06614	0.99889
1454.13758	1.00360
1452.20902	1.00633
1450.28045	1.00798
1448.35189	1.00805
1446.42332	1.00687
1444.49476	1.00538
1442.56619	1.00327
1440.63763	1.00064
1438.70906	0.99654
1436.78050	0.98682
1434.85194	0.97490
1432.92337	0.96667
1430.99481	0.95780
1429.06624	0.94706
1427.13768	0.93898
1425.20911	0.93412
1423.28055	0.93119
1421.35198	0.92964
1419.42342	0.92789
1417.49486	0.92610
1415.56629	0.92567
1413.63773	0.92551
1411.70916	0.92521
1409.78060	0.92565
1407.85203	0.92741
1405.92347	0.93034
1403.99490	0.93409
1402.06634	0.93806
1400.13778	0.94196
1398.20921	0.94523
1396.28065	0.94771
1394.35208	0.95034
1392.42352	0.95366
1390.49495	0.95780
1388.56639	0.96405
1386.63782	0.97321
1384.70926	0.98253
1382.78070	0.99029
1380.85213	0.99539
1378.92357	0.99612
1376.99500	0.99191
1375.06644	0.98127
1373.13787	0.96558
1371.20931	0.95039
1369.28074	0.93441
1367.35218	0.91715
1365.42362	0.90198
1363.49505	0.88766
1361.56649	0.87462
1359.63792	0.86688
1357.70936	0.86318
1355.78079	0.86128
1353.85223	0.86053
1351.92366	0.86070
1349.99510	0.86159
1348.06654	0.86313
1346.13797	0.86511
1344.20941	0.86735
1342.28084	0.86951
1340.35228	0.87142
1338.42371	0.87317
1336.49515	0.87532
1334.56659	0.87855
1332.63802	0.88284
1330.70946	0.88734
1328.78089	0.89072
1326.85233	0.89220
1324.92376	0.89197
1322.99520	0.89106
1321.06663	0.89036
1319.13807	0.88958
1317.20951	0.88835
1315.28094	0.88695
1313.35238	0.88563
1311.42381	0.88445
1309.49525	0.88307
1307.56668	0.88122
1305.63812	0.87919
1303.70955	0.87738
1301.78099	0.87547
1299.85243	0.87309
1297.92386	0.87003
1295.99530	0.86655
1294.06673	0.86376
1292.13817	0.86251
1290.20960	0.86233
1288.28104	0.86231
1286.35247	0.86212
1284.42391	0.86164
1282.49535	0.86087
1280.56678	0.86018
1278.63822	0.85999
1276.70965	0.86048
1274.78109	0.86177
1272.85252	0.86404
1270.92396	0.86706
1268.99539	0.87059
1267.06683	0.87444
1265.13827	0.87786
1263.20970	0.88037
1261.28114	0.88210
1259.35257	0.88334
1257.42401	0.88468
1255.49544	0.88663
1253.56688	0.88919
1251.63831	0.89207
1249.70975	0.89499
1247.78119	0.89797
1245.85262	0.90116
1243.92406	0.90423
1241.99549	0.90668
1240.06693	0.90822
1238.13836	0.90853
1236.20980	0.90726
1234.28123	0.90439
1232.35267	0.90023
1230.42411	0.89484
1228.49554	0.88810
1226.56698	0.88005
1224.63841	0.87114
1222.70985	0.86210
1220.78128	0.85327
1218.85272	0.84485
1216.92415	0.83746
1214.99559	0.83155
1213.06703	0.82751
1211.13846	0.82573
1209.20990	0.82549
1207.28133	0.82479
1205.35277	0.82187
1203.42420	0.81641
1201.49564	0.80943
1199.56708	0.80221
1197.63851	0.79522
1195.70995	0.78844
1193.78138	0.78222
1191.85282	0.77726
1189.92425	0.77401
1187.99569	0.77230
1186.06712	0.77174
1184.13856	0.77201
1182.21000	0.77311
1180.28143	0.77572
1178.35287	0.78051
1176.42430	0.78728
1174.49574	0.79511
1172.56717	0.80336
1170.63861	0.81232
1168.71004	0.82267
1166.78148	0.83491
1164.85292	0.84871
1162.92435	0.86221
1160.99579	0.87286
1159.06722	0.87850
1157.13866	0.87833
1155.21009	0.87339
1153.28153	0.86503
1151.35296	0.85437
1149.42440	0.84304
1147.49584	0.83260
1145.56727	0.82409
1143.63871	0.81842
1141.71014	0.81605
1139.78158	0.81677
1137.85301	0.82022
1135.92445	0.82625
1133.99588	0.83481
1132.06732	0.84562
1130.13876	0.85804
1128.21019	0.87175
1126.28163	0.88633
1124.35306	0.90073
1122.42450	0.91383
1120.49593	0.92443
1118.56737	0.93177
1116.63880	0.93589
1114.71024	0.93673
1112.78168	0.93412
1110.85311	0.92924
1108.92455	0.92440
1106.99598	0.92039
1105.06742	0.91613
1103.13885	0.91171
1101.21029	0.90875
1099.28172	0.90814
1097.35316	0.90980
1095.42460	0.91395
1093.49603	0.92113
1091.56747	0.93095
1089.63890	0.94264
1087.71034	0.95694
1085.78177	0.97490
1083.85321	0.99476
1081.92464	1.01228
1079.99608	1.02417
1078.06752	1.02999
1076.13895	1.03010
1074.21039	1.02492
1072.28182	1.01560
1070.35326	1.00311
1068.42469	0.98901
1066.49613	0.97556
1064.56756	0.96336
1062.63900	0.95174
1060.71044	0.94079
1058.78187	0.93098
1056.85331	0.92230
1054.92474	0.91461
1052.99618	0.90833
1051.06761	0.90444
1049.13905	0.90321
1047.21049	0.90414
1045.28192	0.90793
1043.35336	0.91488
1041.42479	0.92312
1039.49623	0.93076
1037.56766	0.93729
1035.63910	0.94223
1033.71053	0.94528
1031.78197	0.94616
1029.85341	0.94415
1027.92484	0.93926
1025.99628	0.93222
1024.06771	0.92392
1022.13915	0.91573
1020.21058	0.90862
1018.28202	0.90253
1016.35345	0.89632
1014.42489	0.88834
1012.49633	0.87805
1010.56776	0.86562
1008.63920	0.85115
1006.71063	0.83600
1004.78207	0.82189
1002.85350	0.80963
1000.92494	0.79959
998.99637	0.79182
997.06781	0.78587
995.13925	0.78087
993.21068	0.77561
991.28212	0.76911
989.35355	0.76119
987.42499	0.75240
985.49642	0.74330
983.56786	0.73440
981.63929	0.72644
979.71073	0.71990
977.78217	0.71431
975.85360	0.70866
973.92504	0.70202
971.99647	0.69383
970.06791	0.68437
968.13934	0.67458
966.21078	0.66540
964.28221	0.65784
962.35365	0.65329
960.42509	0.65302
958.49652	0.65684
956.56796	0.66188
954.63939	0.66388
952.71083	0.66065
950.78226	0.65332
948.85370	0.64460
946.92513	0.63672
944.99657	0.63065
943.06801	0.62649
941.13944	0.62386
939.21088	0.62222
937.28231	0.62110
935.35375	0.62030
933.42518	0.61973
931.49662	0.61937
929.56805	0.61936
927.63949	0.61987
925.71093	0.62091
923.78236	0.62233
921.85380	0.62383
919.92523	0.62508
917.99667	0.62592
916.06810	0.62662
914.13954	0.62784
912.21098	0.62997
910.28241	0.63285
908.35385	0.63640
906.42528	0.64086
904.49672	0.64593
902.56815	0.65064
900.63959	0.65443
898.71102	0.65730
896.78246	0.65919
894.85390	0.65963
892.92533	0.65873
890.99677	0.65703
889.06820	0.65473
887.13964	0.65207
885.21107	0.64941
883.28251	0.64679
881.35394	0.64409
879.42538	0.64116
877.49682	0.63815
875.56825	0.63533
873.63969	0.63267
871.71112	0.63018
869.78256	0.62805
867.85399	0.62638
865.92543	0.62526
863.99686	0.62479
862.06830	0.62498
860.13974	0.62600
858.21117	0.62795
856.28261	0.63028
854.35404	0.63247
852.42548	0.63462
850.49691	0.63687
848.56835	0.63917
846.63978	0.64149
844.71122	0.64364
842.78266	0.64568
840.85409	0.64792
838.92553	0.65039
836.99696	0.65297
835.06840	0.65567
833.13983	0.65809
831.21127	0.66003
829.28270	0.66193
827.35414	0.66369
825.42558	0.66498
823.49701	0.66642
821.56845	0.66830
819.63988	0.67031
817.71132	0.67266
815.78275	0.67562
813.85419	0.67883
811.92562	0.68188
809.99706	0.68476
808.06850	0.68752
806.13993	0.69000
804.21137	0.69226
802.28280	0.69462
800.35424	0.69690
798.42567	0.69898
796.49711	0.70110
794.56854	0.70357
792.63998	0.70666
790.71142	0.70985
788.78285	0.71261
786.85429	0.71554
784.92572	0.71909
782.99716	0.72270
781.06859	0.72580
779.14003	0.72860
777.21147	0.73127
775.28290	0.73370
773.35434	0.73589
771.42577	0.73793
769.49721	0.73974
767.56864	0.74125
765.64008	0.74234
763.71151	0.74273
761.78295	0.74256
759.85439	0.74259
757.92582	0.74295
755.99726	0.74315
754.06869	0.74308
752.14013	0.74261
750.21156	0.74170
748.28300	0.74073
746.35443	0.73959
744.42587	0.73794
742.49731	0.73621
740.56874	0.73485
738.64018	0.73394
736.71161	0.73359
734.78305	0.73375
732.85448	0.73476
730.92592	0.73715
728.99735	0.74012
727.06879	0.74309
725.14023	0.74703
723.21166	0.75245
721.28310	0.75896
719.35453	0.76540
717.42597	0.77039
715.49740	0.77442
713.56884	0.77884
711.64027	0.78342
709.71171	0.78731
707.78315	0.79082
705.85458	0.79420
703.92602	0.79654
701.99745	0.79695
700.06889	0.79573
698.14032	0.79363
696.21176	0.79126
694.28319	0.78934
692.35463	0.78841
690.42607	0.78815
688.49750	0.78826
686.56894	0.78885
684.64037	0.78939
682.71181	0.78952
680.78324	0.79015
678.85468	0.79162
676.92611	0.79327
674.99755	0.79470
673.06899	0.79568
671.14042	0.79614
669.21186	0.79635
667.28329	0.79833
665.35473	0.80137
663.42616	0.80318
661.49760	0.80331
659.56903	0.80240
657.64047	0.80130
655.71191	0.79983
653.78334	0.79759
651.85478	0.79477
649.92621	0.79129
647.99765	0.78667
646.06908	0.78192
644.14052	0.77856
642.21195	0.77634
640.28339	0.77399
638.35483	0.77132
636.42626	0.76833
634.49770	0.76475
632.56913	0.76166
630.64057	0.76054
628.71200	0.76181
626.78344	0.76559
624.85488	0.77109
622.92631	0.77667
620.99775	0.78181
619.06918	0.78737
617.14062	0.79409
615.21205	0.80094
613.28349	0.80731
611.35492	0.81416
609.42636	0.82068
607.49780	0.82531
605.56923	0.82865
603.64067	0.83117
601.71210	0.83185
599.78354	0.83169
