3997.91406	1.02277
3995.98550	1.02314
3994.05693	1.02171
3992.12837	1.02018
3990.19980	1.01944
3988.27124	1.01931
3986.34268	1.01978
3984.41411	1.01964
3982.48555	1.01839
3980.55698	1.01710
3978.62842	1.01653
3976.69985	1.01637
3974.77129	1.01569
3972.84272	1.01491
3970.91416	1.01508
3968.98560	1.01564
3967.05703	1.01561
3965.12847	1.01489
3963.19990	1.01368
3961.27134	1.01281
3959.34277	1.01283
3957.41421	1.01244
3955.48564	1.01176
3953.55708	1.01239
3951.62852	1.01263
3949.69995	1.00952
3947.77139	1.00585
3945.84282	1.00561
3943.91426	1.00500
3941.98569	1.00178
3940.05713	1.00069
3938.12856	1.00283
3936.20000	1.00591
3934.27144	1.00646
3932.34287	1.00266
3930.41431	0.99969
3928.48574	1.00042
3926.55718	1.00079
3924.62861	0.99832
3922.70005	0.99676
3920.77148	0.99848
3918.84292	0.99867
3916.91436	0.99463
3914.98579	0.99231
3913.05723	0.99353
3911.12866	0.99487
3909.20010	0.99670
3907.27153	0.99968
3905.34297	0.99960
3903.41440	0.99490
3901.48584	0.99079
3899.55728	0.98787
3897.62871	0.98838
3895.70015	0.99330
3893.77158	0.99693
3891.84302	0.99284
3889.91445	0.98875
3887.98589	0.99088
3886.05733	0.99109
3884.12876	0.98864
3882.20020	0.98731
3880.27163	0.98316
3878.34307	0.98336
3876.41450	0.98814
3874.48594	0.98990
3872.55737	0.99012
3870.62881	0.99001
3868.70025	0.98999
3866.77168	0.99221
3864.84312	0.98886
3862.91455	0.98008
3860.98599	0.97712
3859.05742	0.97945
3857.12886	0.98338
3855.20029	0.98278
3853.27173	0.96944
3851.34317	0.96541
3849.41460	0.97173
3847.48604	0.97726
3845.55747	0.98038
3843.62891	0.98202
3841.70034	0.98341
3839.77178	0.98246
3837.84321	0.97639
3835.91465	0.97201
3833.98609	0.97176
3832.05752	0.97300
3830.12896	0.97571
3828.20039	0.97792
3826.27183	0.97764
3824.34326	0.97787
3822.41470	0.97524
3820.48613	0.96707
3818.55757	0.96612
3816.62901	0.96493
3814.70044	0.96145
3812.77188	0.96412
3810.84331	0.96915
3808.91475	0.97152
3806.98618	0.97017
3805.05762	0.97140
3803.12905	0.97165
3801.20049	0.96337
3799.27193	0.96091
3797.34336	0.96257
3795.41480	0.96092
3793.48623	0.96111
3791.55767	0.96289
3789.62910	0.96399
3787.70054	0.96500
3785.77197	0.96422
3783.84341	0.96291
3781.91485	0.96383
3779.98628	0.96241
3778.05772	0.95927
3776.12915	0.96051
3774.20059	0.96466
3772.27202	0.96790
3770.34346	0.96605
3768.41489	0.96180
3766.48633	0.95991
3764.55777	0.96040
3762.62920	0.96389
3760.70064	0.96469
3758.77207	0.95889
3756.84351	0.95668
3754.91494	0.96095
3752.98638	0.96353
3751.05781	0.95530
3749.12925	0.94980
3747.20069	0.95386
3745.27212	0.95203
3743.34356	0.94657
3741.41499	0.95020
3739.48643	0.95703
3737.55786	0.95978
3735.62930	0.95354
3733.70074	0.94447
3731.77217	0.94314
3729.84361	0.94722
3727.91504	0.95116
3725.98648	0.95071
3724.05791	0.94845
3722.12935	0.94821
3720.20078	0.94849
3718.27222	0.94927
3716.34366	0.95129
3714.41509	0.95370
3712.48653	0.95189
3710.55796	0.94388
3708.62940	0.93987
3706.70083	0.94155
3704.77227	0.94593
3702.84370	0.94810
3700.91514	0.94642
3698.98658	0.94656
3697.05801	0.94880
3695.12945	0.95185
3693.20088	0.95632
3691.27232	0.95817
3689.34375	0.95053
3687.41519	0.94623
3685.48662	0.95081
3683.55806	0.95668
3681.62950	0.96088
3679.70093	0.96396
3677.77237	0.96419
3675.84380	0.95588
3673.91524	0.95305
3671.98667	0.95903
3670.05811	0.95938
3668.12954	0.95904
3666.20098	0.96461
3664.27242	0.97004
3662.34385	0.97387
3660.41529	0.97840
3658.48672	0.98189
3656.55816	0.98081
3654.62959	0.98204
3652.70103	0.98974
3650.77246	0.99533
3648.84390	0.98915
3646.91534	0.98673
3644.98677	0.99192
3643.05821	0.99767
3641.12964	1.00191
3639.20108	1.00571
3637.27251	1.01046
3635.34395	1.01576
3633.41538	1.02140
3631.48682	1.02640
3629.55826	1.02560
3627.62969	1.02347
3625.70113	1.03052
3623.77256	1.04020
3621.84400	1.04711
3619.91543	1.04742
3617.98687	1.04622
3616.05830	1.05198
3614.12974	1.05868
3612.20118	1.06218
3610.27261	1.06519
3608.34405	1.06814
3606.41548	1.07228
3604.48692	1.07834
3602.55835	1.08381
3600.62979	1.08770
3598.70123	1.09240
3596.77266	1.09755
3594.84410	1.10080
3592.91553	1.10468
3590.98697	1.11103
3589.05840	1.11594
3587.12984	1.11603
3585.20127	1.11912
3583.27271	1.12725
3581.34415	1.13428
3579.41558	1.13766
3577.48702	1.14065
3575.55845	1.14566
3573.62989	1.15126
3571.70132	1.15696
3569.77276	1.16143
3567.84419	1.16052
3565.91563	1.15929
3563.98707	1.16621
3562.05850	1.17535
3560.12994	1.18178
3558.20137	1.18665
3556.27281	1.19127
3554.34424	1.19469
3552.41568	1.19869
3550.48711	1.20587
3548.55855	1.21443
3546.62999	1.22130
3544.70142	1.22652
3542.77286	1.23220
3540.84429	1.23795
3538.91573	1.24241
3536.98716	1.24523
3535.05860	1.24865
3533.13003	1.25471
3531.20147	1.26171
3529.27291	1.26737
3527.34434	1.27227
3525.41578	1.27697
3523.48721	1.28150
3521.55865	1.28710
3519.63008	1.29404
3517.70152	1.30184
3515.77295	1.30923
3513.84439	1.31425
3511.91583	1.31751
3509.98726	1.32295
3508.05870	1.33192
3506.13013	1.34038
3504.20157	1.34655
3502.27300	1.35332
3500.34444	1.36317
3498.41587	1.37375
3496.48731	1.38115
3494.55875	1.38541
3492.63018	1.38974
3490.70162	1.39658
3488.77305	1.40511
3486.84449	1.41116
3484.91592	1.41354
3482.98736	1.41535
3481.05879	1.41785
3479.13023	1.42011
3477.20167	1.42288
3475.27310	1.42748
3473.34454	1.43392
3471.41597	1.44083
3469.48741	1.44657
3467.55884	1.45060
3465.63028	1.45289
3463.70171	1.45420
3461.77315	1.45579
3459.84459	1.45829
3457.91602	1.46133
3455.98746	1.46399
3454.05889	1.46743
3452.13033	1.47262
3450.20176	1.47729
3448.27320	1.48020
3446.34464	1.48249
3444.41607	1.48509
3442.48751	1.48718
3440.55894	1.48871
3438.63038	1.49210
3436.70181	1.49662
3434.77325	1.49933
3432.84468	1.49999
3430.91612	1.49880
3428.98756	1.49649
3427.05899	1.49416
3425.13043	1.49238
3423.20186	1.49178
3421.27330	1.49187
3419.34473	1.49145
3417.41617	1.49185
3415.48760	1.49472
3413.55904	1.49723
3411.63048	1.49659
3409.70191	1.49623
3407.77335	1.50009
3405.84478	1.50558
3403.91622	1.50807
3401.98765	1.50880
3400.05909	1.51089
3398.13052	1.51192
3396.20196	1.50977
3394.27340	1.50713
3392.34483	1.50617
3390.41627	1.50861
3388.48770	1.51370
3386.55914	1.51542
3384.63057	1.51311
3382.70201	1.51255
3380.77344	1.51368
3378.84488	1.51367
3376.91632	1.51443
3374.98775	1.51902
3373.05919	1.52647
3371.13062	1.53119
3369.20206	1.53054
3367.27349	1.53048
3365.34493	1.53440
3363.41636	1.53792
3361.48780	1.53869
3359.55924	1.53828
3357.63067	1.53899
3355.70211	1.54139
3353.77354	1.54345
3351.84498	1.54440
3349.91641	1.54586
3347.98785	1.54890
3346.05928	1.55353
3344.13072	1.55958
3342.20216	1.56524
3340.27359	1.56894
3338.34503	1.57208
3336.41646	1.57677
3334.48790	1.58217
3332.55933	1.58579
3330.63077	1.58821
3328.70220	1.59102
3326.77364	1.59430
3324.84508	1.59751
3322.91651	1.60061
3320.98795	1.60557
3319.05938	1.61300
3317.13082	1.62084
3315.20225	1.62585
3313.27369	1.62601
3311.34513	1.62493
3309.41656	1.62671
3307.48800	1.63126
3305.55943	1.63816
3303.63087	1.64424
3301.70230	1.64471
3299.77374	1.64243
3297.84517	1.64232
3295.91661	1.64425
3293.98805	1.64798
3292.05948	1.65223
3290.13092	1.65437
3288.20235	1.65469
3286.27379	1.65413
3284.34522	1.65387
3282.41666	1.65653
3280.48809	1.66119
3278.55953	1.66100
3276.63097	1.65391
3274.70240	1.64837
3272.77384	1.64750
3270.84527	1.64476
3268.91671	1.63850
3266.98814	1.63249
3265.05958	1.62914
3263.13101	1.62770
3261.20245	1.62357
3259.27389	1.61423
3257.34532	1.60390
3255.41676	1.59634
3253.48819	1.58889
3251.55963	1.57928
3249.63106	1.56985
3247.70250	1.56177
3245.77393	1.55479
3243.84537	1.54785
3241.91681	1.53954
3239.98824	1.53137
3238.05968	1.52598
3236.13111	1.52371
3234.20255	1.52092
3232.27398	1.51494
3230.34542	1.50924
3228.41685	1.50504
3226.48829	1.49945
3224.55973	1.49441
3222.63116	1.49334
3220.70260	1.49416
3218.77403	1.49359
3216.84547	1.49086
3214.91690	1.48437
3212.98834	1.47449
3211.05977	1.46590
3209.13121	1.46099
3207.20265	1.45804
3205.27408	1.45503
3203.34552	1.45129
3201.41695	1.44788
3199.48839	1.44525
3197.55982	1.44094
3195.63126	1.43407
3193.70269	1.42729
3191.77413	1.42224
3189.84557	1.41857
3187.91700	1.41497
3185.98844	1.41041
3184.05987	1.40556
3182.13131	1.40079
3180.20274	1.39624
3178.27418	1.39386
3176.34562	1.39352
3174.41705	1.39117
3172.48849	1.38572
3170.55992	1.38047
3168.63136	1.37687
3166.70279	1.37343
3164.77423	1.36958
3162.84566	1.36595
3160.91710	1.36231
3158.98854	1.35918
3157.05997	1.35818
3155.13141	1.35760
3153.20284	1.35443
3151.27428	1.35033
3149.34571	1.34783
3147.41715	1.34601
3145.48858	1.34401
3143.56002	1.34270
3141.63146	1.34233
3139.70289	1.34195
3137.77433	1.34120
3135.84576	1.34045
3133.91720	1.33903
3131.98863	1.33675
3130.06007	1.33550
3128.13150	1.33652
3126.20294	1.33840
3124.27438	1.33876
3122.34581	1.33814
3120.41725	1.33927
3118.48868	1.34151
3116.56012	1.34191
3114.63155	1.34077
3112.70299	1.34055
3110.77442	1.34194
3108.84586	1.34336
3106.91730	1.34238
3104.98873	1.33906
3103.06017	1.33645
3101.13160	1.33524
3099.20304	1.33359
3097.27447	1.33166
3095.34591	1.32956
3093.41734	1.32775
3091.48878	1.32862
3089.56022	1.33109
3087.63165	1.33159
3085.70309	1.33007
3083.77452	1.32884
3081.84596	1.32776
3079.91739	1.32479
3077.98883	1.32074
3076.06026	1.31805
3074.13170	1.31707
3072.20314	1.31613
3070.27457	1.31340
3068.34601	1.31007
3066.41744	1.30820
3064.48888	1.30629
3062.56031	1.30310
3060.63175	1.30040
3058.70318	1.29771
3056.77462	1.29329
3054.84606	1.28927
3052.91749	1.28675
3050.98893	1.28358
3049.06036	1.27977
3047.13180	1.27699
3045.20323	1.27514
3043.27467	1.27340
3041.34610	1.27134
3039.41754	1.26846
3037.48898	1.26504
3035.56041	1.26182
3033.63185	1.25856
3031.70328	1.25530
3029.77472	1.25285
3027.84615	1.25086
3025.91759	1.24816
3023.98903	1.24515
3022.06046	1.24384
3020.13190	1.24415
3018.20333	1.24394
3016.27477	1.24269
3014.34620	1.24147
3012.41764	1.24061
3010.48907	1.23936
3008.56051	1.23784
3006.63195	1.23727
3004.70338	1.23693
3002.77482	1.23512
3000.84625	1.23276
2998.91769	1.23192
2996.98912	1.23358
2995.06056	1.23730
2993.13199	1.24148
2991.20343	1.24441
2989.27487	1.24595
2987.34630	1.24811
2985.41774	1.25245
2983.48917	1.25791
2981.56061	1.26353
2979.63204	1.26979
2977.70348	1.27678
2975.77491	1.28362
2973.84635	1.29022
2971.91779	1.29776
2969.98922	1.30638
2968.06066	1.31421
2966.13209	1.32012
2964.20353	1.32476
2962.27496	1.32823
2960.34640	1.33021
2958.41783	1.33041
2956.48927	1.32738
2954.56071	1.32150
2952.63214	1.31555
2950.70358	1.31111
2948.77501	1.30897
2946.84645	1.31035
2944.91788	1.31522
2942.98932	1.32184
2941.06075	1.32965
2939.13219	1.33929
2937.20363	1.34937
2935.27506	1.35767
2933.34650	1.36477
2931.41793	1.37330
2929.48937	1.38333
2927.56080	1.39105
2925.63224	1.39502
2923.70367	1.39812
2921.77511	1.40144
2919.84655	1.40311
2917.91798	1.39995
2915.98942	1.38805
2914.06085	1.36763
2912.13229	1.34508
2910.20372	1.32615
2908.27516	1.31177
2906.34659	1.30135
2904.41803	1.29430
2902.48947	1.28905
2900.56090	1.28424
2898.63234	1.27975
2896.70377	1.27639
2894.77521	1.27429
2892.84664	1.27177
2890.91808	1.26809
2888.98952	1.26443
2887.06095	1.26133
2885.13239	1.25923
2883.20382	1.25913
2881.27526	1.26021
2879.34669	1.26087
2877.41813	1.26120
2875.48956	1.26104
2873.56100	1.25956
2871.63244	1.25603
2869.70387	1.25024
2867.77531	1.24428
2865.84674	1.24015
2863.91818	1.23762
2861.98961	1.23746
2860.06105	1.24104
2858.13248	1.24784
2856.20392	1.25600
2854.27536	1.26329
2852.34679	1.26859
2850.41823	1.26926
2848.48966	1.25883
2846.56110	1.23612
2844.63253	1.21017
2842.70397	1.18966
2840.77540	1.17633
2838.84684	1.16804
2836.91828	1.16193
2834.98971	1.15602
2833.06115	1.15067
2831.13258	1.14707
2829.20402	1.14410
2827.27545	1.14022
2825.34689	1.13647
2823.41832	1.13395
2821.48976	1.13197
2819.56120	1.12935
2817.63263	1.12634
2815.70407	1.12420
2813.77550	1.12278
2811.84694	1.12097
2809.91837	1.11890
2807.98981	1.11681
2806.06124	1.11384
2804.13268	1.11010
2802.20412	1.10658
2800.27555	1.10321
2798.34699	1.10009
2796.41842	1.09790
2794.48986	1.09637
2792.56129	1.09465
2790.63273	1.09235
2788.70416	1.09004
2786.77560	1.08859
2784.84704	1.08791
2782.91847	1.08688
2780.98991	1.08494
2779.06134	1.08294
2777.13278	1.08153
2775.20421	1.08040
2773.27565	1.07922
2771.34708	1.07804
2769.41852	1.07685
2767.48996	1.07567
2765.56139	1.07492
2763.63283	1.07442
2761.70426	1.07350
2759.77570	1.07242
2757.84713	1.07177
2755.91857	1.07134
2753.99001	1.07060
2752.06144	1.06921
2750.13288	1.06738
2748.20431	1.06560
2746.27575	1.06403
2744.34718	1.06241
2742.41862	1.06049
2740.49005	1.05869
2738.56149	1.05745
2736.63293	1.05651
2734.70436	1.05515
2732.77580	1.05288
2730.84723	1.05020
2728.91867	1.04831
2726.99010	1.04766
2725.06154	1.04754
2723.13297	1.04660
2721.20441	1.04433
2719.27585	1.04168
2717.34728	1.03959
2715.41872	1.03835
2713.49015	1.03753
2711.56159	1.03629
2709.63302	1.03493
2707.70446	1.03387
2705.77589	1.03261
2703.84733	1.03119
2701.91877	1.02998
2699.99020	1.02872
2698.06164	1.02732
2696.13307	1.02591
2694.20451	1.02471
2692.27594	1.02414
2690.34738	1.02374
2688.41881	1.02282
2686.49025	1.02197
2684.56169	1.02130
2682.63312	1.02018
2680.70456	1.01906
2678.77599	1.01817
2676.84743	1.01728
2674.91886	1.01693
2672.99030	1.01687
2671.06173	1.01607
2669.13317	1.01477
2667.20461	1.01360
2665.27604	1.01241
2663.34748	1.01142
2661.41891	1.01106
2659.49035	1.01109
2657.56178	1.01130
2655.63322	1.01156
2653.70465	1.01149
2651.77609	1.01111
2649.84753	1.01016
2647.91896	1.00853
2645.99040	1.00717
2644.06183	1.00613
2642.13327	1.00479
2640.20470	1.00349
2638.27614	1.00223
2636.34757	1.00066
2634.41901	0.99910
2632.49045	0.99771
2630.56188	0.99647
2628.63332	0.99543
2626.70475	0.99439
2624.77619	0.99307
2622.84762	0.99165
2620.91906	0.99060
2618.99049	0.98974
2617.06193	0.98871
2615.13337	0.98814
2613.20480	0.98823
2611.27624	0.98800
2609.34767	0.98702
2607.41911	0.98575
2605.49054	0.98482
2603.56198	0.98437
2601.63342	0.98407
2599.70485	0.98356
2597.77629	0.98258
2595.84772	0.98141
2593.91916	0.98055
2591.99059	0.97982
2590.06203	0.97926
2588.13346	0.97921
2586.20490	0.97896
2584.27634	0.97805
2582.34777	0.97716
2580.41921	0.97657
2578.49064	0.97628
2576.56208	0.97639
2574.63351	0.97624
2572.70495	0.97547
2570.77638	0.97463
2568.84782	0.97398
2566.91926	0.97338
2564.99069	0.97289
2563.06213	0.97222
2561.13356	0.97101
2559.20500	0.96963
2557.27643	0.96859
2555.34787	0.96781
2553.41930	0.96661
2551.49074	0.96462
2549.56218	0.96242
2547.63361	0.96086
2545.70505	0.95973
2543.77648	0.95821
2541.84792	0.95647
2539.91935	0.95503
2537.99079	0.95382
2536.06222	0.95261
2534.13366	0.95133
2532.20510	0.95027
2530.27653	0.94954
2528.34797	0.94895
2526.41940	0.94834
2524.49084	0.94748
2522.56227	0.94650
2520.63371	0.94561
2518.70514	0.94474
2516.77658	0.94395
2514.84802	0.94334
2512.91945	0.94285
2510.99089	0.94230
2509.06232	0.94163
2507.13376	0.94116
2505.20519	0.94104
2503.27663	0.94085
2501.34806	0.94058
2499.41950	0.94070
2497.49094	0.94095
2495.56237	0.94095
2493.63381	0.94081
2491.70524	0.94044
2489.77668	0.93974
2487.84811	0.93889
2485.91955	0.93814
2483.99098	0.93782
2482.06242	0.93790
2480.13386	0.93767
2478.20529	0.93663
2476.27673	0.93504
2474.34816	0.93345
2472.41960	0.93224
2470.49103	0.93115
2468.56247	0.92963
2466.63391	0.92786
2464.70534	0.92652
2462.77678	0.92566
2460.84821	0.92471
2458.91965	0.92331
2456.99108	0.92165
2455.06252	0.92041
2453.13395	0.91974
2451.20539	0.91887
2449.27683	0.91726
2447.34826	0.91529
2445.41970	0.91358
2443.49113	0.91247
2441.56257	0.91172
2439.63400	0.91071
2437.70544	0.90934
2435.77687	0.90810
2433.84831	0.90685
2431.91975	0.90518
2429.99118	0.90351
2428.06262	0.90215
2426.13405	0.90089
2424.20549	0.89975
2422.27692	0.89856
2420.34836	0.89710
2418.41979	0.89591
2416.49123	0.89526
2414.56267	0.89485
2412.63410	0.89455
2410.70554	0.89416
2408.77697	0.89355
2406.84841	0.89283
2404.91984	0.89215
2402.99128	0.89165
2401.06271	0.89154
2399.13415	0.89186
2397.20559	0.89209
2395.27702	0.89178
2393.34846	0.89121
2391.41989	0.89082
2389.49133	0.89068
2387.56276	0.89059
2385.63420	0.89047
2383.70563	0.89033
2381.77707	0.89007
2379.84851	0.88952
2377.91994	0.88871
2375.99138	0.88786
2374.06281	0.88724
2372.13425	0.88712
2370.20568	0.88677
2368.27712	0.88459
2366.34855	0.88045
2364.41999	0.87589
2362.49143	0.87251
2360.56286	0.87195
2358.63430	0.87498
2356.70573	0.87759
2354.77717	0.87629
2352.84860	0.87497
2350.92004	0.87658
2348.99147	0.87910
2347.06291	0.88046
2345.13435	0.88031
2343.20578	0.87868
2341.27722	0.87487
2339.34865	0.87096
2337.42009	0.86904
2335.49152	0.86838
2333.56296	0.86756
2331.63440	0.86624
2329.70583	0.86549
2327.77727	0.86482
2325.84870	0.86322
2323.92014	0.86155
2321.99157	0.86052
2320.06301	0.85951
2318.13444	0.85834
2316.20588	0.85779
2314.27732	0.85799
2312.34875	0.85837
2310.42019	0.85863
2308.49162	0.85876
2306.56306	0.85890
2304.63449	0.85885
2302.70593	0.85841
2300.77736	0.85789
2298.84880	0.85734
2296.92024	0.85627
2294.99167	0.85499
2293.06311	0.85431
2291.13454	0.85389
2289.20598	0.85290
2287.27741	0.85151
2285.34885	0.85021
2283.42028	0.84930
2281.49172	0.84874
2279.56316	0.84813
2277.63459	0.84729
2275.70603	0.84627
2273.77746	0.84525
2271.84890	0.84460
2269.92033	0.84428
2267.99177	0.84374
2266.06320	0.84309
2264.13464	0.84300
2262.20608	0.84351
2260.27751	0.84386
2258.34895	0.84356
2256.42038	0.84291
2254.49182	0.84228
2252.56325	0.84149
2250.63469	0.84040
2248.70612	0.83932
2246.77756	0.83846
2244.84900	0.83758
2242.92043	0.83645
2240.99187	0.83514
2239.06330	0.83383
2237.13474	0.83265
2235.20617	0.83156
2233.27761	0.83053
2231.34904	0.82964
2229.42048	0.82892
2227.49192	0.82834
2225.56335	0.82798
2223.63479	0.82818
2221.70622	0.82864
2219.77766	0.82883
2217.84909	0.82904
2215.92053	0.82937
2213.99196	0.82938
2212.06340	0.82919
2210.13484	0.82908
2208.20627	0.82894
2206.27771	0.82867
2204.34914	0.82835
2202.42058	0.82800
2200.49201	0.82750
2198.56345	0.82695
2196.63488	0.82654
2194.70632	0.82596
2192.77776	0.82516
2190.84919	0.82460
2188.92063	0.82413
2186.99206	0.82342
2185.06350	0.82285
2183.13493	0.82239
2181.20637	0.82156
2179.27781	0.82056
2177.34924	0.82010
2175.42068	0.82029
2173.49211	0.82049
2171.56355	0.82028
2169.63498	0.81988
2167.70642	0.81948
2165.77785	0.81902
2163.84929	0.81831
2161.92073	0.81754
2159.99216	0.81688
2158.06360	0.81585
2156.13503	0.81453
2154.20647	0.81351
2152.27790	0.81259
2150.34934	0.81145
2148.42077	0.81046
2146.49221	0.80972
2144.56365	0.80894
2142.63508	0.80823
2140.70652	0.80771
2138.77795	0.80727
2136.84939	0.80683
2134.92082	0.80646
2132.99226	0.80627
2131.06369	0.80609
2129.13513	0.80581
2127.20657	0.80565
2125.27800	0.80561
2123.34944	0.80539
2121.42087	0.80490
2119.49231	0.80426
2117.56374	0.80367
2115.63518	0.80319
2113.70661	0.80255
2111.77805	0.80179
2109.84949	0.80119
2107.92092	0.80083
2105.99236	0.80059
2104.06379	0.80028
2102.13523	0.79989
2100.20666	0.79966
2098.27810	0.79969
2096.34953	0.79989
2094.42097	0.80006
2092.49241	0.79979
2090.56384	0.79903
2088.63528	0.79822
2086.70671	0.79745
2084.77815	0.79644
2082.84958	0.79522
2080.92102	0.79384
2078.99245	0.79220
2077.06389	0.79033
2075.13533	0.78830
2073.20676	0.78606
2071.27820	0.78380
2069.34963	0.78186
2067.42107	0.78026
2065.49250	0.77859
2063.56394	0.77676
2061.63537	0.77510
2059.70681	0.77399
2057.77825	0.77334
2055.84968	0.77275
2053.92112	0.77215
2051.99255	0.77155
2050.06399	0.77094
2048.13542	0.77045
2046.20686	0.77009
2044.27830	0.76966
2042.34973	0.76899
2040.42117	0.76836
2038.49260	0.76796
2036.56404	0.76749
2034.63547	0.76690
2032.70691	0.76637
2030.77834	0.76571
2028.84978	0.76483
2026.92122	0.76380
2024.99265	0.76278
2023.06409	0.76192
2021.13552	0.76114
2019.20696	0.76028
2017.27839	0.75947
2015.34983	0.75885
2013.42126	0.75828
2011.49270	0.75773
2009.56414	0.75720
2007.63557	0.75633
2005.70701	0.75505
2003.77844	0.75374
2001.84988	0.75248
1999.92131	0.75102
1997.99275	0.74956
1996.06418	0.74845
1994.13562	0.74713
1992.20706	0.74498
1990.27849	0.74277
1988.34993	0.74112
1986.42136	0.73956
1984.49280	0.73778
1982.56423	0.73577
1980.63567	0.73386
1978.70710	0.73252
1976.77854	0.73163
1974.84998	0.73078
1972.92141	0.73000
1970.99285	0.72955
1969.06428	0.72915
1967.13572	0.72838
1965.20715	0.72780
1963.27859	0.72787
1961.35002	0.72800
1959.42146	0.72795
1957.49290	0.72800
1955.56433	0.72808
1953.63577	0.72806
1951.70720	0.72790
1949.77864	0.72748
1947.85007	0.72690
1945.92151	0.72634
1943.99294	0.72549
1942.06438	0.72379
1940.13582	0.72204
1938.20725	0.72064
1936.27869	0.71908
1934.35012	0.71727
1932.42156	0.71535
1930.49299	0.71355
1928.56443	0.71205
1926.63586	0.71074
1924.70730	0.70904
1922.77874	0.70663
1920.85017	0.70479
1918.92161	0.70337
1916.99304	0.70137
1915.06448	0.69994
1913.13591	0.69940
1911.20735	0.69858
1909.27878	0.69702
1907.35022	0.69546
1905.42166	0.69419
1903.49309	0.69301
1901.56453	0.69187
1899.63596	0.69073
1897.70740	0.68959
1895.77883	0.68840
1893.85027	0.68756
1891.92171	0.68717
1889.99314	0.68607
1888.06458	0.68446
1886.13601	0.68365
1884.20745	0.68320
1882.27888	0.68280
1880.35032	0.68248
1878.42175	0.68188
1876.49319	0.68111
1874.56463	0.68060
1872.63606	0.68075
1870.70750	0.68077
1868.77893	0.67891
1866.85037	0.67650
1864.92180	0.67585
1862.99324	0.67590
1861.06467	0.67539
1859.13611	0.67418
1857.20755	0.67281
1855.27898	0.67167
1853.35042	0.67078
1851.42185	0.67003
1849.49329	0.66943
1847.56472	0.66905
1845.63616	0.66808
1843.70759	0.66552
1841.77903	0.66364
1839.85047	0.66317
1837.92190	0.66257
1835.99334	0.66154
1834.06477	0.66101
1832.13621	0.66088
1830.20764	0.65937
1828.27908	0.65710
1826.35051	0.65573
1824.42195	0.65428
1822.49339	0.65312
1820.56482	0.65253
1818.63626	0.65170
1816.70769	0.65052
1814.77913	0.64947
1812.85056	0.64837
1810.92200	0.64668
1808.99343	0.64500
1807.06487	0.64394
1805.13631	0.64337
1803.20774	0.64286
1801.27918	0.64177
1799.35061	0.64041
1797.42205	0.63998
1795.49348	0.64040
1793.56492	0.63989
1791.63635	0.63741
1789.70779	0.63623
1787.77923	0.63705
1785.85066	0.63764
1783.92210	0.63749
1781.99353	0.63710
1780.06497	0.63642
1778.13640	0.63638
1776.20784	0.63723
1774.27927	0.63781
1772.35071	0.63659
1770.42215	0.63508
1768.49358	0.63512
1766.56502	0.63609
1764.63645	0.63778
1762.70789	0.63908
1760.77932	0.64010
1758.85076	0.64224
1756.92220	0.64536
1754.99363	0.64937
1753.06507	0.65450
1751.13650	0.66077
1749.20794	0.66726
1747.27937	0.67332
1745.35081	0.67921
1743.42224	0.68490
1741.49368	0.68975
1739.56512	0.69326
1737.63655	0.69625
1735.70799	0.69861
1733.77942	0.69885
1731.85086	0.69879
1729.92229	0.70036
1727.99373	0.70272
1726.06516	0.70565
1724.13660	0.70910
1722.20804	0.71324
1720.27947	0.71853
1718.35091	0.72530
1716.42234	0.73366
1714.49378	0.74272
1712.56521	0.75269
1710.63665	0.76466
1708.70808	0.77889
1706.77952	0.79826
1704.85096	0.82342
1702.92239	0.84794
1700.99383	0.88116
1699.06526	0.93056
1697.13670	0.97751
1695.20813	1.02377
1693.27957	1.05924
1691.35100	1.08870
1689.42244	1.12394
1687.49388	1.15783
1685.56531	1.19298
1683.63675	1.24511
1681.70818	1.28542
1679.77962	1.31295
1677.85105	1.33989
1675.92249	1.37035
1673.99392	1.40300
1672.06536	1.43117
1670.13680	1.46409
1668.20823	1.50014
1666.27967	1.52199
1664.35110	1.54037
1662.42254	1.56457
1660.49397	1.58750
1658.56541	1.60429
1656.63684	1.61705
1654.70828	1.62974
1652.77972	1.64152
1650.85115	1.64613
1648.92259	1.65014
1646.99402	1.65034
1645.06546	1.64533
1643.13689	1.64268
1641.20833	1.64321
1639.27976	1.64433
1637.35120	1.64571
1635.42264	1.64839
1633.49407	1.64965
1631.56551	1.64945
1629.63694	1.64731
1627.70838	1.64330
1625.77981	1.63696
1623.85125	1.62324
1621.92269	1.60143
1619.99412	1.58174
1618.06556	1.55611
1616.13699	1.51186
1614.20843	1.47287
1612.27986	1.44195
1610.35130	1.40820
1608.42273	1.37241
1606.49417	1.34104
1604.56561	1.31551
1602.63704	1.29339
1600.70848	1.27532
1598.77991	1.26187
1596.85135	1.25100
1594.92278	1.24119
1592.99422	1.23324
1591.06565	1.22789
1589.13709	1.22565
1587.20853	1.22737
1585.27996	1.23240
1583.35140	1.23984
1581.42283	1.24900
1579.49427	1.25896
1577.56570	1.27124
1575.63714	1.28804
1573.70857	1.30205
1571.78001	1.31340
1569.85145	1.32885
1567.92288	1.34722
1565.99432	1.36489
1564.06575	1.38373
1562.13719	1.40041
1560.20862	1.41645
1558.28006	1.43883
1556.35149	1.45498
1554.42293	1.46792
1552.49437	1.47773
1550.56580	1.48347
1548.63724	1.48757
1546.70867	1.49136
1544.78011	1.49342
1542.85154	1.49196
1540.92298	1.48488
1538.99441	1.47444
1537.06585	1.47063
1535.13729	1.46745
1533.20872	1.46116
1531.28016	1.45452
1529.35159	1.44918
1527.42303	1.44272
1525.49446	1.43637
1523.56590	1.43401
1521.63733	1.43318
1519.70877	1.43197
1517.78021	1.42941
1515.85164	1.42250
1513.92308	1.41114
1511.99451	1.39690
1510.06595	1.38059
1508.13738	1.34949
1506.20882	1.29732
1504.28025	1.27327
1502.35169	1.25847
1500.42313	1.23958
1498.49456	1.21341
1496.56600	1.18061
1494.63743	1.15600
1492.70887	1.14109
1490.78030	1.12297
1488.85174	1.09562
1486.92317	1.07454
1484.99461	1.06295
1483.06605	1.05505
1481.13748	1.04872
1479.20892	1.04553
1477.28035	1.04685
1475.35179	1.05292
1473.42322	1.06541
1471.49466	1.08082
1469.56610	1.09193
1467.63753	1.10064
1465.70897	1.10898
1463.78040	1.11647
1461.85184	1.12239
1459.92327	1.12778
1457.99471	1.13393
1456.06614	1.13869
1454.13758	1.14039
1452.20902	1.14078
1450.28045	1.13971
1448.35189	1.13634
1446.42332	1.13154
1444.49476	1.12695
1442.56619	1.12187
1440.63763	1.11636
1438.70906	1.10973
1436.78050	1.09850
1434.85194	1.08691
1432.92337	1.07940
1430.99481	1.07125
1429.06624	1.06191
1427.13768	1.05529
1425.20911	1.05124
1423.28055	1.04930
1421.35198	1.04990
1419.42342	1.05103
1417.49486	1.05087
1415.56629	1.05078
1413.63773	1.05097
1411.70916	1.05078
1409.78060	1.05042
1407.85203	1.05059
1405.92347	1.05141
1403.99490	1.05279
1402.06634	1.05461
1400.13778	1.05608
1398.20921	1.05634
1396.28065	1.05580
1394.35208	1.05569
1392.42352	1.05745
1390.49495	1.06130
1388.56639	1.06771
1386.63782	1.07743
1384.70926	1.08861
1382.78070	1.09957
1380.85213	1.10846
1378.92357	1.11244
1376.99500	1.11025
1375.06644	1.10042
1373.13787	1.08482
1371.20931	1.06956
1369.28074	1.05269
1367.35218	1.03311
1365.42362	1.01486
1363.49505	0.99645
1361.56649	0.97833
1359.63792	0.96577
1357.70936	0.95726
1355.78079	0.95032
1353.85223	0.94493
1351.92366	0.94110
1349.99510	0.93820
1348.06654	0.93593
1346.13797	0.93444
1344.20941	0.93409
1342.28084	0.93483
1340.35228	0.93617
1338.42371	0.93795
1336.49515	0.94129
1334.56659	0.94695
1332.63802	0.95433
1330.70946	0.96218
1328.78089	0.96903
1326.85233	0.97387
1324.92376	0.97676
1322.99520	0.97858
1321.06663	0.98008
1319.13807	0.98121
1317.20951	0.98192
1315.28094	0.98239
1313.35238	0.98255
1311.42381	0.98187
1309.49525	0.98004
1307.56668	0.97710
1305.63812	0.97335
1303.70955	0.96915
1301.78099	0.96416
1299.85243	0.95789
1297.92386	0.95053
1295.99530	0.94297
1294.06673	0.93614
1292.13817	0.93048
1290.20960	0.92606
1288.28104	0.92261
1286.35247	0.91962
1284.42391	0.91679
1282.49535	0.91431
1280.56678	0.91253
1278.63822	0.91138
1276.70965	0.91082
1274.78109	0.91130
1272.85252	0.91338
1270.92396	0.91705
1268.99539	0.92159
1267.06683	0.92607
1265.13827	0.93000
1263.20970	0.93324
1261.28114	0.93529
1259.35257	0.93620
1257.42401	0.93715
1255.49544	0.93888
1253.56688	0.94104
1251.63831	0.94331
1249.70975	0.94569
1247.78119	0.94801
1245.85262	0.95015
1243.92406	0.95211
1241.99549	0.95387
1240.06693	0.95521
1238.13836	0.95575
1236.20980	0.95528
1234.28123	0.95375
1232.35267	0.95134
1230.42411	0.94810
1228.49554	0.94415
1226.56698	0.93934
1224.63841	0.93326
1222.70985	0.92635
1220.78128	0.91923
1218.85272	0.91190
1216.92415	0.90500
1214.99559	0.89988
1213.06703	0.89723
1211.13846	0.89661
1209.20990	0.89664
1207.28133	0.89569
1205.35277	0.89264
1203.42420	0.88672
1201.49564	0.87835
1199.56708	0.86900
1197.63851	0.85936
1195.70995	0.84970
1193.78138	0.84110
1191.85282	0.83482
1189.92425	0.83088
1187.99569	0.82821
1186.06712	0.82632
1184.13856	0.82584
1182.21000	0.82735
1180.28143	0.83104
1178.35287	0.83682
1176.42430	0.84435
1174.49574	0.85327
1172.56717	0.86341
1170.63861	0.87473
1168.71004	0.88765
1166.78148	0.90253
1164.85292	0.91883
1162.92435	0.93472
1160.99579	0.94760
1159.06722	0.95537
1157.13866	0.95712
1155.21009	0.95291
1153.28153	0.94405
1151.35296	0.93271
1149.42440	0.92071
1147.49584	0.90911
1145.56727	0.89876
1143.63871	0.89066
1141.71014	0.88575
1139.78158	0.88458
1137.85301	0.88662
1135.92445	0.89083
1133.99588	0.89701
1132.06732	0.90580
1130.13876	0.91749
1128.21019	0.93137
1126.28163	0.94627
1124.35306	0.96090
1122.42450	0.97446
1120.49593	0.98664
1118.56737	0.99639
1116.63880	1.00196
1114.71024	1.00286
1112.78168	1.00068
1110.85311	0.99734
1108.92455	0.99333
1106.99598	0.98890
1105.06742	0.98472
1103.13885	0.98102
1101.21029	0.97823
1099.28172	0.97781
1097.35316	0.98082
1095.42460	0.98675
1093.49603	0.99487
1091.56747	1.00521
1089.63890	1.01781
1087.71034	1.03243
1085.78177	1.04842
1083.85321	1.06478
1081.92464	1.08022
1079.99608	1.09237
1078.06752	1.09865
1076.13895	1.09889
1074.21039	1.09452
1072.28182	1.08693
1070.35326	1.07737
1068.42469	1.06681
1066.49613	1.05595
1064.56756	1.04492
1062.63900	1.03358
1060.71044	1.02224
1058.78187	1.01148
1056.85331	1.00170
1054.92474	0.99284
1052.99618	0.98479
1051.06761	0.97814
1049.13905	0.97424
1047.21049	0.97409
1045.28192	0.97724
1043.35336	0.98252
1041.42479	0.98897
1039.49623	0.99594
1037.56766	1.00270
1035.63910	1.00781
1033.71053	1.01058
1031.78197	1.01142
1029.85341	1.01008
1027.92484	1.00597
1025.99628	0.99923
1024.06771	0.99096
1022.13915	0.98258
1020.21058	0.97501
1018.28202	0.96801
1016.35345	0.96024
1014.42489	0.95015
1012.49633	0.93651
1010.56776	0.91951
1008.63920	0.90077
1006.71063	0.88160
1004.78207	0.86301
1002.85350	0.84644
1000.92494	0.83275
998.99637	0.82173
997.06781	0.81302
995.13925	0.80596
993.21068	0.79938
991.28212	0.79243
989.35355	0.78484
987.42499	0.77703
985.49642	0.76995
983.56786	0.76413
981.63929	0.75978
979.71073	0.75691
977.78217	0.75499
975.85360	0.75332
973.92504	0.75088
971.99647	0.74660
970.06791	0.74074
968.13934	0.73451
966.21078	0.72896
964.28221	0.72491
962.35365	0.72349
960.42509	0.72624
958.49652	0.73313
956.56796	0.74084
954.63939	0.74495
952.71083	0.74368
950.78226	0.73817
948.85370	0.73058
946.92513	0.72286
944.99657	0.71650
943.06801	0.71206
941.13944	0.70916
939.21088	0.70702
937.28231	0.70506
935.35375	0.70346
933.42518	0.70257
931.49662	0.70246
929.56805	0.70313
927.63949	0.70457
925.71093	0.70688
923.78236	0.70967
921.85380	0.71197
919.92523	0.71317
917.99667	0.71353
916.06810	0.71343
914.13954	0.71294
912.21098	0.71238
910.28241	0.71265
908.35385	0.71411
906.42528	0.71599
904.49672	0.71790
902.56815	0.72000
900.63959	0.72168
898.71102	0.72223
896.78246	0.72149
894.85390	0.71947
892.92533	0.71664
890.99677	0.71363
889.06820	0.71077
887.13964	0.70823
885.21107	0.70612
883.28251	0.70447
881.35394	0.70334
879.42538	0.70281
877.49682	0.70280
875.56825	0.70302
873.63969	0.70338
871.71112	0.70398
869.78256	0.70486
867.85399	0.70627
865.92543	0.70825
863.99686	0.71079
862.06830	0.71405
860.13974	0.71820
858.21117	0.72326
856.28261	0.72897
854.35404	0.73501
852.42548	0.74084
850.49691	0.74599
848.56835	0.75083
846.63978	0.75584
844.71122	0.76093
842.78266	0.76584
840.85409	0.77042
838.92553	0.77459
836.99696	0.77842
835.06840	0.78218
833.13983	0.78584
831.21127	0.78922
829.28270	0.79220
827.35414	0.79464
825.42558	0.79670
823.49701	0.79852
821.56845	0.79975
819.63988	0.79986
817.71132	0.79927
815.78275	0.79852
813.85419	0.79720
811.92562	0.79558
809.99706	0.79466
808.06850	0.79398
806.13993	0.79216
804.21137	0.78939
802.28280	0.78714
800.35424	0.78549
798.42567	0.78375
796.49711	0.78236
794.56854	0.78193
792.63998	0.78211
790.71142	0.78228
788.78285	0.78223
786.85429	0.78247
784.92572	0.78362
782.99716	0.78554
781.06859	0.78773
779.14003	0.78977
777.21147	0.79165
775.28290	0.79399
773.35434	0.79720
771.42577	0.80107
769.49721	0.80530
767.56864	0.81007
765.64008	0.81572
763.71151	0.82200
761.78295	0.82810
759.85439	0.83412
757.92582	0.84099
755.99726	0.84879
754.06869	0.85681
752.14013	0.86383
750.21156	0.86904
748.28300	0.87334
746.35443	0.87754
744.42587	0.88127
742.49731	0.88405
740.56874	0.88581
738.64018	0.88678
736.71161	0.88763
734.78305	0.88906
732.85448	0.89122
730.92592	0.89345
728.99735	0.89473
727.06879	0.89557
725.14023	0.89703
723.21166	0.89866
721.28310	0.90005
719.35453	0.90106
717.42597	0.90156
715.49740	0.90242
713.56884	0.90420
711.64027	0.90657
709.71171	0.90923
707.78315	0.91237
705.85458	0.91605
703.92602	0.91961
701.99745	0.92233
700.06889	0.92407
698.14032	0.92510
696.21176	0.92544
694.28319	0.92446
692.35463	0.92201
690.42607	0.91870
688.49750	0.91503
686.56894	0.91111
684.64037	0.90714
682.71181	0.90313
680.78324	0.89870
678.85468	0.89442
676.92611	0.89166
674.99755	0.89018
673.06899	0.88943
671.14042	0.88891
669.21186	0.88651
667.28329	0.88513
665.35473	0.88841
663.42616	0.89181
661.49760	0.89416
659.56903	0.89627
657.64047	0.89879
655.71191	0.90229
653.78334	0.90609
651.85478	0.90909
649.92621	0.91226
647.99765	0.91659
646.06908	0.92126
644.14052	0.92518
642.21195	0.92724
640.28339	0.92765
638.35483	0.92820
636.42626	0.92865
634.49770	0.92757
632.56913	0.92636
630.64057	0.92647
628.71200	0.92717
626.78344	0.92845
624.85488	0.93100
622.92631	0.93390
620.99775	0.93573
619.06918	0.93744
617.14062	0.94021
615.21205	0.94344
613.28349	0.94694
611.35492	0.95064
609.42636	0.95333
607.49780	0.95538
605.56923	0.95865
603.64067	0.96144
601.71210	0.96096
599.78354	0.95872
