3997.91406	0.64651
3995.98550	0.64660
3994.05693	0.64710
3992.12837	0.64739
3990.19980	0.64729
3988.27124	0.64718
3986.34268	0.64776
3984.41411	0.64819
3982.48555	0.64740
3980.55698	0.64628
3978.62842	0.64584
3976.69985	0.64544
3974.77129	0.64447
3972.84272	0.64351
3970.91416	0.64291
3968.98560	0.64250
3967.05703	0.64259
3965.12847	0.64313
3963.19990	0.64309
3961.27134	0.64243
3959.34277	0.64217
3957.41421	0.64175
3955.48564	0.64120
3953.55708	0.64185
3951.62852	0.64284
3949.69995	0.64190
3947.77139	0.64008
3945.84282	0.63974
3943.91426	0.63860
3941.98569	0.63604
3940.05713	0.63588
3938.12856	0.63805
3936.20000	0.64065
3934.27144	0.64175
3932.34287	0.63957
3930.41431	0.63714
3928.48574	0.63760
3926.55718	0.63832
3924.62861	0.63715
3922.70005	0.63672
3920.77148	0.63777
3918.84292	0.63715
3916.91436	0.63439
3914.98579	0.63271
3913.05723	0.63279
3911.12866	0.63344
3909.20010	0.63534
3907.27153	0.63816
3905.34297	0.63813
3903.41440	0.63409
3901.48584	0.63057
3899.55728	0.62739
3897.62871	0.62635
3895.70015	0.62967
3893.77158	0.63273
3891.84302	0.63006
3889.91445	0.62809
3887.98589	0.63104
3886.05733	0.63164
3884.12876	0.62946
3882.20020	0.62868
3880.27163	0.62610
3878.34307	0.62642
3876.41450	0.63016
3874.48594	0.63131
3872.55737	0.63000
3870.62881	0.62661
3868.70025	0.62409
3866.77168	0.62637
3864.84312	0.62597
3862.91455	0.62139
3860.98599	0.62128
3859.05742	0.62543
3857.12886	0.63042
3855.20029	0.63043
3853.27173	0.61699
3851.34317	0.61109
3849.41460	0.61610
3847.48604	0.62181
3845.55747	0.62557
3843.62891	0.62671
3841.70034	0.62617
3839.77178	0.62330
3837.84321	0.61788
3835.91465	0.61631
3833.98609	0.61766
3832.05752	0.61805
3830.12896	0.61864
3828.20039	0.61978
3826.27183	0.62060
3824.34326	0.62346
3822.41470	0.62497
3820.48613	0.62029
3818.55757	0.61905
3816.62901	0.61724
3814.70044	0.61306
3812.77188	0.61432
3810.84331	0.61841
3808.91475	0.62020
3806.98618	0.61739
3805.05762	0.61674
3803.12905	0.61785
3801.20049	0.61384
3799.27193	0.61266
3797.34336	0.61346
3795.41480	0.61214
3793.48623	0.61270
3791.55767	0.61425
3789.62910	0.61490
3787.70054	0.61544
3785.77197	0.61471
3783.84341	0.61337
3781.91485	0.61381
3779.98628	0.61254
3778.05772	0.60938
3776.12915	0.60962
3774.20059	0.61233
3772.27202	0.61412
3770.34346	0.61237
3768.41489	0.60947
3766.48633	0.60798
3764.55777	0.60766
3762.62920	0.61003
3760.70064	0.61160
3758.77207	0.60868
3756.84351	0.60763
3754.91494	0.61091
3752.98638	0.61282
3751.05781	0.60668
3749.12925	0.60282
3747.20069	0.60694
3745.27212	0.60706
3743.34356	0.60284
3741.41499	0.60502
3739.48643	0.61079
3737.55786	0.61355
3735.62930	0.60732
3733.70074	0.59790
3731.77217	0.59646
3729.84361	0.60089
3727.91504	0.60552
3725.98648	0.60550
3724.05791	0.60202
3722.12935	0.59953
3720.20078	0.59889
3718.27222	0.60040
3716.34366	0.60393
3714.41509	0.60764
3712.48653	0.60603
3710.55796	0.59822
3708.62940	0.59611
3706.70083	0.59908
3704.77227	0.60251
3702.84370	0.60272
3700.91514	0.59987
3698.98658	0.59927
3697.05801	0.60097
3695.12945	0.60336
3693.20088	0.60627
3691.27232	0.60669
3689.34375	0.59971
3687.41519	0.59500
3685.48662	0.59751
3683.55806	0.60187
3681.62950	0.60537
3679.70093	0.60826
3677.77237	0.61004
3675.84380	0.60553
3673.91524	0.60279
3671.98667	0.60618
3670.05811	0.60486
3668.12954	0.60207
3666.20098	0.60424
3664.27242	0.60718
3662.34385	0.60928
3660.41529	0.61189
3658.48672	0.61453
3656.55816	0.61484
3654.62959	0.61670
3652.70103	0.62310
3650.77246	0.62738
3648.84390	0.61962
3646.91534	0.61539
3644.98677	0.61965
3643.05821	0.62459
3641.12964	0.62783
3639.20108	0.63017
3637.27251	0.63261
3635.34395	0.63505
3633.41538	0.63844
3631.48682	0.64255
3629.55826	0.64111
3627.62969	0.63681
3625.70113	0.64096
3623.77256	0.64774
3621.84400	0.65260
3619.91543	0.65252
3617.98687	0.65042
3616.05830	0.65283
3614.12974	0.65581
3612.20118	0.65718
3610.27261	0.65869
3608.34405	0.65943
3606.41548	0.66142
3604.48692	0.66625
3602.55835	0.67076
3600.62979	0.67289
3598.70123	0.67469
3596.77266	0.67705
3594.84410	0.67840
3592.91553	0.68046
3590.98697	0.68460
3589.05840	0.68743
3587.12984	0.68649
3585.20127	0.68811
3583.27271	0.69308
3581.34415	0.69709
3579.41558	0.69923
3577.48702	0.70103
3575.55845	0.70308
3573.62989	0.70566
3571.70132	0.71006
3569.77276	0.71507
3567.84419	0.71572
3565.91563	0.71326
3563.98707	0.71588
3562.05850	0.72070
3560.12994	0.72377
3558.20137	0.72593
3556.27281	0.72898
3554.34424	0.73228
3552.41568	0.73447
3550.48711	0.73671
3548.55855	0.74018
3546.62999	0.74315
3544.70142	0.74482
3542.77286	0.74689
3540.84429	0.74968
3538.91573	0.75246
3536.98716	0.75506
3535.05860	0.75779
3533.13003	0.76079
3531.20147	0.76397
3529.27291	0.76714
3527.34434	0.77053
3525.41578	0.77389
3523.48721	0.77582
3521.55865	0.77724
3519.63008	0.77995
3517.70152	0.78346
3515.77295	0.78727
3513.84439	0.79155
3511.91583	0.79534
3509.98726	0.79782
3508.05870	0.80032
3506.13013	0.80391
3504.20157	0.80769
3502.27300	0.81086
3500.34444	0.81432
3498.41587	0.81852
3496.48731	0.82274
3494.55875	0.82597
3492.63018	0.82810
3490.70162	0.83030
3488.77305	0.83308
3486.84449	0.83575
3484.91592	0.83782
3482.98736	0.83949
3481.05879	0.84118
3479.13023	0.84301
3477.20167	0.84460
3475.27310	0.84605
3473.34454	0.84809
3471.41597	0.85051
3469.48741	0.85256
3467.55884	0.85384
3465.63028	0.85463
3463.70171	0.85567
3461.77315	0.85695
3459.84459	0.85865
3457.91602	0.86077
3455.98746	0.86232
3454.05889	0.86285
3452.13033	0.86374
3450.20176	0.86590
3448.27320	0.86753
3446.34464	0.86801
3444.41607	0.86937
3442.48751	0.87155
3440.55894	0.87346
3438.63038	0.87515
3436.70181	0.87642
3434.77325	0.87698
3432.84468	0.87682
3430.91612	0.87607
3428.98756	0.87574
3427.05899	0.87614
3425.13043	0.87672
3423.20186	0.87759
3421.27330	0.87808
3419.34473	0.87769
3417.41617	0.87776
3415.48760	0.87862
3413.55904	0.87909
3411.63048	0.87864
3409.70191	0.87797
3407.77335	0.87823
3405.84478	0.87975
3403.91622	0.88157
3401.98765	0.88260
3400.05909	0.88261
3398.13052	0.88224
3396.20196	0.88265
3394.27340	0.88380
3392.34483	0.88460
3390.41627	0.88504
3388.48770	0.88605
3386.55914	0.88773
3384.63057	0.88887
3382.70201	0.88875
3380.77344	0.88860
3378.84488	0.88965
3376.91632	0.89109
3374.98775	0.89198
3373.05919	0.89279
3371.13062	0.89382
3369.20206	0.89484
3367.27349	0.89578
3365.34493	0.89653
3363.41636	0.89711
3361.48780	0.89754
3359.55924	0.89844
3357.63067	0.90009
3355.70211	0.90144
3353.77354	0.90223
3351.84498	0.90301
3349.91641	0.90381
3347.98785	0.90454
3346.05928	0.90563
3344.13072	0.90711
3342.20216	0.90806
3340.27359	0.90887
3338.34503	0.91050
3336.41646	0.91212
3334.48790	0.91329
3332.55933	0.91474
3330.63077	0.91631
3328.70220	0.91749
3326.77364	0.91864
3324.84508	0.92018
3322.91651	0.92195
3320.98795	0.92386
3319.05938	0.92605
3317.13082	0.92783
3315.20225	0.92886
3313.27369	0.92996
3311.34513	0.93122
3309.41656	0.93257
3307.48800	0.93466
3305.55943	0.93690
3303.63087	0.93804
3301.70230	0.93860
3299.77374	0.93990
3297.84517	0.94164
3295.91661	0.94258
3293.98805	0.94246
3292.05948	0.94187
3290.13092	0.94201
3288.20235	0.94304
3286.27379	0.94365
3284.34522	0.94357
3282.41666	0.94319
3280.48809	0.94245
3278.55953	0.94213
3276.63097	0.94272
3274.70240	0.94244
3272.77384	0.94023
3270.84527	0.93780
3268.91671	0.93622
3266.98814	0.93520
3265.05958	0.93408
3263.13101	0.93158
3261.20245	0.92799
3259.27389	0.92534
3257.34532	0.92408
3255.41676	0.92224
3253.48819	0.91860
3251.55963	0.91425
3249.63106	0.91042
3247.70250	0.90725
3245.77393	0.90427
3243.84537	0.90137
3241.91681	0.89873
3239.98824	0.89585
3238.05968	0.89276
3236.13111	0.89013
3234.20255	0.88823
3232.27398	0.88685
3230.34542	0.88528
3228.41685	0.88296
3226.48829	0.88037
3224.55973	0.87820
3222.63116	0.87636
3220.70260	0.87474
3218.77403	0.87369
3216.84547	0.87264
3214.91690	0.87096
3212.98834	0.86917
3211.05977	0.86732
3209.13121	0.86521
3207.20265	0.86333
3205.27408	0.86154
3203.34552	0.85940
3201.41695	0.85735
3199.48839	0.85567
3197.55982	0.85372
3195.63126	0.85133
3193.70269	0.84895
3191.77413	0.84678
3189.84557	0.84506
3187.91700	0.84362
3185.98844	0.84180
3184.05987	0.83950
3182.13131	0.83723
3180.20274	0.83533
3178.27418	0.83378
3176.34562	0.83241
3174.41705	0.83062
3172.48849	0.82834
3170.55992	0.82636
3168.63136	0.82456
3166.70279	0.82245
3164.77423	0.82048
3162.84566	0.81892
3160.91710	0.81738
3158.98854	0.81592
3157.05997	0.81474
3155.13141	0.81363
3153.20284	0.81199
3151.27428	0.80971
3149.34571	0.80777
3147.41715	0.80656
3145.48858	0.80561
3143.56002	0.80496
3141.63146	0.80456
3139.70289	0.80399
3137.77433	0.80344
3135.84576	0.80325
3133.91720	0.80323
3131.98863	0.80266
3130.06007	0.80118
3128.13150	0.79941
3126.20294	0.79834
3124.27438	0.79817
3122.34581	0.79825
3120.41725	0.79808
3118.48868	0.79780
3116.56012	0.79783
3114.63155	0.79800
3112.70299	0.79771
3110.77442	0.79733
3108.84586	0.79764
3106.91730	0.79829
3104.98873	0.79861
3103.06017	0.79837
3101.13160	0.79772
3099.20304	0.79730
3097.27447	0.79714
3095.34591	0.79641
3093.41734	0.79506
3091.48878	0.79397
3089.56022	0.79356
3087.63165	0.79321
3085.70309	0.79221
3083.77452	0.79092
3081.84596	0.79005
3079.91739	0.78947
3077.98883	0.78881
3076.06026	0.78792
3074.13170	0.78659
3072.20314	0.78500
3070.27457	0.78391
3068.34601	0.78348
3066.41744	0.78294
3064.48888	0.78163
3062.56031	0.77998
3060.63175	0.77848
3058.70318	0.77681
3056.77462	0.77472
3054.84606	0.77272
3052.91749	0.77115
3050.98893	0.76947
3049.06036	0.76735
3047.13180	0.76539
3045.20323	0.76373
3043.27467	0.76179
3041.34610	0.75957
3039.41754	0.75776
3037.48898	0.75655
3035.56041	0.75542
3033.63185	0.75425
3031.70328	0.75311
3029.77472	0.75155
3027.84615	0.74961
3025.91759	0.74807
3023.98903	0.74703
3022.06046	0.74585
3020.13190	0.74448
3018.20333	0.74326
3016.27477	0.74215
3014.34620	0.74104
3012.41764	0.74002
3010.48907	0.73882
3008.56051	0.73728
3006.63195	0.73605
3004.70338	0.73549
3002.77482	0.73520
3000.84625	0.73508
2998.91769	0.73521
2996.98912	0.73543
2995.06056	0.73589
2993.13199	0.73686
2991.20343	0.73834
2989.27487	0.74035
2987.34630	0.74284
2985.41774	0.74552
2983.48917	0.74817
2981.56061	0.75077
2979.63204	0.75382
2977.70348	0.75743
2975.77491	0.76082
2973.84635	0.76360
2971.91779	0.76629
2969.98922	0.76944
2968.06066	0.77299
2966.13209	0.77645
2964.20353	0.77915
2962.27496	0.78050
2960.34640	0.78067
2958.41783	0.78002
2956.48927	0.77835
2954.56071	0.77600
2952.63214	0.77379
2950.70358	0.77210
2948.77501	0.77111
2946.84645	0.77091
2944.91788	0.77169
2942.98932	0.77379
2941.06075	0.77712
2939.13219	0.78126
2937.20363	0.78596
2935.27506	0.79080
2933.34650	0.79499
2931.41793	0.79831
2929.48937	0.80162
2927.56080	0.80522
2925.63224	0.80847
2923.70367	0.81112
2921.77511	0.81320
2919.84655	0.81433
2917.91798	0.81350
2915.98942	0.80912
2914.06085	0.80075
2912.13229	0.79046
2910.20372	0.78084
2908.27516	0.77309
2906.34659	0.76717
2904.41803	0.76257
2902.48947	0.75869
2900.56090	0.75544
2898.63234	0.75334
2896.70377	0.75217
2894.77521	0.75079
2892.84664	0.74882
2890.91808	0.74692
2888.98952	0.74537
2887.06095	0.74368
2885.13239	0.74177
2883.20382	0.74059
2881.27526	0.74056
2879.34669	0.74087
2877.41813	0.74082
2875.48956	0.74042
2873.56100	0.73942
2871.63244	0.73744
2869.70387	0.73463
2867.77531	0.73160
2865.84674	0.72908
2863.91818	0.72755
2861.98961	0.72719
2860.06105	0.72798
2858.13248	0.72982
2856.20392	0.73264
2854.27536	0.73645
2852.34679	0.74078
2850.41823	0.74295
2848.48966	0.73873
2846.56110	0.72769
2844.63253	0.71481
2842.70397	0.70444
2840.77540	0.69704
2838.84684	0.69155
2836.91828	0.68717
2834.98971	0.68361
2833.06115	0.68075
2831.13258	0.67826
2829.20402	0.67582
2827.27545	0.67349
2825.34689	0.67161
2823.41832	0.67010
2821.48976	0.66856
2819.56120	0.66681
2817.63263	0.66500
2815.70407	0.66341
2813.77550	0.66200
2811.84694	0.66061
2809.91837	0.65901
2807.98981	0.65714
2806.06124	0.65539
2804.13268	0.65385
2802.20412	0.65227
2800.27555	0.65062
2798.34699	0.64911
2796.41842	0.64760
2794.48986	0.64583
2792.56129	0.64409
2790.63273	0.64267
2788.70416	0.64146
2786.77560	0.64032
2784.84704	0.63923
2782.91847	0.63819
2780.98991	0.63709
2779.06134	0.63590
2777.13278	0.63477
2775.20421	0.63363
2773.27565	0.63243
2771.34708	0.63160
2769.41852	0.63097
2767.48996	0.62969
2765.56139	0.62789
2763.63283	0.62661
2761.70426	0.62597
2759.77570	0.62521
2757.84713	0.62395
2755.91857	0.62252
2753.99001	0.62134
2752.06144	0.62062
2750.13288	0.61998
2748.20431	0.61895
2746.27575	0.61776
2744.34718	0.61680
2742.41862	0.61608
2740.49005	0.61542
2738.56149	0.61451
2736.63293	0.61339
2734.70436	0.61251
2732.77580	0.61202
2730.84723	0.61155
2728.91867	0.61084
2726.99010	0.60994
2725.06154	0.60900
2723.13297	0.60823
2721.20441	0.60760
2719.27585	0.60688
2717.34728	0.60582
2715.41872	0.60436
2713.49015	0.60293
2711.56159	0.60171
2709.63302	0.60049
2707.70446	0.59922
2705.77589	0.59793
2703.84733	0.59674
2701.91877	0.59570
2699.99020	0.59473
2698.06164	0.59395
2696.13307	0.59338
2694.20451	0.59288
2692.27594	0.59245
2690.34738	0.59196
2688.41881	0.59116
2686.49025	0.59043
2684.56169	0.59009
2682.63312	0.58964
2680.70456	0.58862
2678.77599	0.58738
2676.84743	0.58634
2674.91886	0.58535
2672.99030	0.58416
2671.06173	0.58297
2669.13317	0.58214
2667.20461	0.58155
2665.27604	0.58078
2663.34748	0.57972
2661.41891	0.57865
2659.49035	0.57793
2657.56178	0.57748
2655.63322	0.57703
2653.70465	0.57653
2651.77609	0.57605
2649.84753	0.57556
2647.91896	0.57499
2645.99040	0.57435
2644.06183	0.57368
2642.13327	0.57304
2640.20470	0.57240
2638.27614	0.57173
2636.34757	0.57113
2634.41901	0.57060
2632.49045	0.57005
2630.56188	0.56940
2628.63332	0.56846
2626.70475	0.56723
2624.77619	0.56616
2622.84762	0.56532
2620.91906	0.56443
2618.99049	0.56350
2617.06193	0.56279
2615.13337	0.56240
2613.20480	0.56201
2611.27624	0.56132
2609.34767	0.56066
2607.41911	0.56030
2605.49054	0.55991
2603.56198	0.55922
2601.63342	0.55838
2599.70485	0.55762
2597.77629	0.55697
2595.84772	0.55612
2593.91916	0.55491
2591.99059	0.55350
2590.06203	0.55214
2588.13346	0.55093
2586.20490	0.54994
2584.27634	0.54912
2582.34777	0.54838
2580.41921	0.54769
2578.49064	0.54714
2576.56208	0.54669
2574.63351	0.54616
2572.70495	0.54562
2570.77638	0.54513
2568.84782	0.54457
2566.91926	0.54383
2564.99069	0.54295
2563.06213	0.54201
2561.13356	0.54097
2559.20500	0.53980
2557.27643	0.53870
2555.34787	0.53784
2553.41930	0.53717
2551.49074	0.53656
2549.56218	0.53585
2547.63361	0.53508
2545.70505	0.53452
2543.77648	0.53412
2541.84792	0.53366
2539.91935	0.53311
2537.99079	0.53256
2536.06222	0.53206
2534.13366	0.53140
2532.20510	0.53064
2530.27653	0.52992
2528.34797	0.52911
2526.41940	0.52814
2524.49084	0.52719
2522.56227	0.52635
2520.63371	0.52557
2518.70514	0.52484
2516.77658	0.52415
2514.84802	0.52358
2512.91945	0.52311
2510.99089	0.52254
2509.06232	0.52184
2507.13376	0.52111
2505.20519	0.52050
2503.27663	0.51986
2501.34806	0.51902
2499.41950	0.51817
2497.49094	0.51748
2495.56237	0.51695
2493.63381	0.51645
2491.70524	0.51590
2489.77668	0.51543
2487.84811	0.51503
2485.91955	0.51447
2483.99098	0.51367
2482.06242	0.51270
2480.13386	0.51167
2478.20529	0.51074
2476.27673	0.50993
2474.34816	0.50913
2472.41960	0.50822
2470.49103	0.50721
2468.56247	0.50629
2466.63391	0.50559
2464.70534	0.50506
2462.77678	0.50460
2460.84821	0.50412
2458.91965	0.50357
2456.99108	0.50307
2455.06252	0.50264
2453.13395	0.50213
2451.20539	0.50160
2449.27683	0.50104
2447.34826	0.50013
2445.41970	0.49893
2443.49113	0.49788
2441.56257	0.49702
2439.63400	0.49616
2437.70544	0.49536
2435.77687	0.49468
2433.84831	0.49394
2431.91975	0.49310
2429.99118	0.49231
2428.06262	0.49167
2426.13405	0.49111
2424.20549	0.49058
2422.27692	0.49013
2420.34836	0.48969
2418.41979	0.48911
2416.49123	0.48841
2414.56267	0.48776
2412.63410	0.48719
2410.70554	0.48664
2408.77697	0.48602
2406.84841	0.48531
2404.91984	0.48454
2402.99128	0.48380
2401.06271	0.48315
2399.13415	0.48252
2397.20559	0.48188
2395.27702	0.48128
2393.34846	0.48071
2391.41989	0.48017
2389.49133	0.47977
2387.56276	0.47958
2385.63420	0.47956
2383.70563	0.47967
2381.77707	0.47995
2379.84851	0.48045
2377.91994	0.48103
2375.99138	0.48168
2374.06281	0.48246
2372.13425	0.48314
2370.20568	0.48347
2368.27712	0.48313
2366.34855	0.48146
2364.41999	0.47870
2362.49143	0.47618
2360.56286	0.47463
2358.63430	0.47399
2356.70573	0.47367
2354.77717	0.47291
2352.84860	0.47173
2350.92004	0.47145
2348.99147	0.47259
2347.06291	0.47409
2345.13435	0.47467
2343.20578	0.47430
2341.27722	0.47375
2339.34865	0.47336
2337.42009	0.47309
2335.49152	0.47239
2333.56296	0.47132
2331.63440	0.47038
2329.70583	0.47031
2327.77727	0.47078
2325.84870	0.47051
2323.92014	0.46925
2321.99157	0.46774
2320.06301	0.46654
2318.13444	0.46559
2316.20588	0.46495
2314.27732	0.46454
2312.34875	0.46391
2310.42019	0.46302
2308.49162	0.46215
2306.56306	0.46169
2304.63449	0.46171
2302.70593	0.46175
2300.77736	0.46134
2298.84880	0.46057
2296.92024	0.45983
2294.99167	0.45925
2293.06311	0.45873
2291.13454	0.45823
2289.20598	0.45777
2287.27741	0.45732
2285.34885	0.45688
2283.42028	0.45656
2281.49172	0.45630
2279.56316	0.45602
2277.63459	0.45580
2275.70603	0.45563
2273.77746	0.45530
2271.84890	0.45478
2269.92033	0.45429
2267.99177	0.45386
2266.06320	0.45346
2264.13464	0.45315
2262.20608	0.45291
2260.27751	0.45255
2258.34895	0.45206
2256.42038	0.45168
2254.49182	0.45147
2252.56325	0.45133
2250.63469	0.45120
2248.70612	0.45104
2246.77756	0.45086
2244.84900	0.45068
2242.92043	0.45043
2240.99187	0.45006
2239.06330	0.44965
2237.13474	0.44919
2235.20617	0.44871
2233.27761	0.44829
2231.34904	0.44788
2229.42048	0.44752
2227.49192	0.44730
2225.56335	0.44719
2223.63479	0.44711
2221.70622	0.44706
2219.77766	0.44709
2217.84909	0.44719
2215.92053	0.44723
2213.99196	0.44713
2212.06340	0.44698
2210.13484	0.44683
2208.20627	0.44664
2206.27771	0.44641
2204.34914	0.44621
2202.42058	0.44599
2200.49201	0.44567
2198.56345	0.44539
2196.63488	0.44524
2194.70632	0.44515
2192.77776	0.44506
2190.84919	0.44500
2188.92063	0.44489
2186.99206	0.44467
2185.06350	0.44438
2183.13493	0.44415
2181.20637	0.44404
2179.27781	0.44392
2177.34924	0.44370
2175.42068	0.44339
2173.49211	0.44306
2171.56355	0.44277
2169.63498	0.44261
2167.70642	0.44254
2165.77785	0.44241
2163.84929	0.44221
2161.92073	0.44197
2159.99216	0.44170
2158.06360	0.44153
2156.13503	0.44157
2154.20647	0.44156
2152.27790	0.44140
2150.34934	0.44117
2148.42077	0.44089
2146.49221	0.44065
2144.56365	0.44065
2142.63508	0.44081
2140.70652	0.44081
2138.77795	0.44063
2136.84939	0.44045
2134.92082	0.44032
2132.99226	0.44018
2131.06369	0.43997
2129.13513	0.43970
2127.20657	0.43938
2125.27800	0.43899
2123.34944	0.43849
2121.42087	0.43799
2119.49231	0.43766
2117.56374	0.43750
2115.63518	0.43729
2113.70661	0.43694
2111.77805	0.43667
2109.84949	0.43664
2107.92092	0.43668
2105.99236	0.43649
2104.06379	0.43605
2102.13523	0.43563
2100.20666	0.43549
2098.27810	0.43551
2096.34953	0.43539
2094.42097	0.43516
2092.49241	0.43494
2090.56384	0.43457
2088.63528	0.43402
2086.70671	0.43342
2084.77815	0.43292
2082.84958	0.43256
2080.92102	0.43226
2078.99245	0.43190
2077.06389	0.43144
2075.13533	0.43099
2073.20676	0.43065
2071.27820	0.43036
2069.34963	0.43018
2067.42107	0.43015
2065.49250	0.43000
2063.56394	0.42970
2061.63537	0.42947
2059.70681	0.42919
2057.77825	0.42877
2055.84968	0.42836
2053.92112	0.42803
2051.99255	0.42768
2050.06399	0.42721
2048.13542	0.42661
2046.20686	0.42603
2044.27830	0.42570
2042.34973	0.42543
2040.42117	0.42502
2038.49260	0.42464
2036.56404	0.42442
2034.63547	0.42428
2032.70691	0.42423
2030.77834	0.42419
2028.84978	0.42396
2026.92122	0.42351
2024.99265	0.42297
2023.06409	0.42248
2021.13552	0.42221
2019.20696	0.42194
2017.27839	0.42133
2015.34983	0.42069
2013.42126	0.42037
2011.49270	0.42015
2009.56414	0.41984
2007.63557	0.41945
2005.70701	0.41899
2003.77844	0.41854
2001.84988	0.41828
1999.92131	0.41817
1997.99275	0.41802
1996.06418	0.41794
1994.13562	0.41785
1992.20706	0.41727
1990.27849	0.41640
1988.34993	0.41577
1986.42136	0.41532
1984.49280	0.41493
1982.56423	0.41452
1980.63567	0.41408
1978.70710	0.41368
1976.77854	0.41331
1974.84998	0.41296
1972.92141	0.41271
1970.99285	0.41274
1969.06428	0.41274
1967.13572	0.41205
1965.20715	0.41107
1963.27859	0.41064
1961.35002	0.41054
1959.42146	0.41041
1957.49290	0.41021
1955.56433	0.40989
1953.63577	0.40959
1951.70720	0.40946
1949.77864	0.40945
1947.85007	0.40949
1945.92151	0.40951
1943.99294	0.40911
1942.06438	0.40812
1940.13582	0.40737
1938.20725	0.40710
1936.27869	0.40681
1934.35012	0.40638
1932.42156	0.40593
1930.49299	0.40558
1928.56443	0.40540
1926.63586	0.40542
1924.70730	0.40538
1922.77874	0.40502
1920.85017	0.40494
1918.92161	0.40494
1916.99304	0.40446
1915.06448	0.40428
1913.13591	0.40462
1911.20735	0.40475
1909.27878	0.40430
1907.35022	0.40372
1905.42166	0.40329
1903.49309	0.40276
1901.56453	0.40216
1899.63596	0.40174
1897.70740	0.40143
1895.77883	0.40095
1893.85027	0.40065
1891.92171	0.40072
1889.99314	0.40034
1888.06458	0.39971
1886.13601	0.39970
1884.20745	0.39974
1882.27888	0.39956
1880.35032	0.39944
1878.42175	0.39918
1876.49319	0.39873
1874.56463	0.39847
1872.63606	0.39883
1870.70750	0.39916
1868.77893	0.39797
1866.85037	0.39627
1864.92180	0.39600
1862.99324	0.39633
1861.06467	0.39640
1859.13611	0.39616
1857.20755	0.39583
1855.27898	0.39563
1853.35042	0.39554
1851.42185	0.39556
1849.49329	0.39577
1847.56472	0.39622
1845.63616	0.39622
1843.70759	0.39485
1841.77903	0.39408
1839.85047	0.39456
1837.92190	0.39495
1835.99334	0.39493
1834.06477	0.39531
1832.13621	0.39606
1830.20764	0.39582
1828.27908	0.39506
1826.35051	0.39490
1824.42195	0.39432
1822.49339	0.39361
1820.56482	0.39340
1818.63626	0.39326
1816.70769	0.39305
1814.77913	0.39317
1812.85056	0.39353
1810.92200	0.39353
1808.99343	0.39331
1807.06487	0.39344
1805.13631	0.39408
1803.20774	0.39484
1801.27918	0.39497
1799.35061	0.39466
1797.42205	0.39503
1795.49348	0.39596
1793.56492	0.39591
1791.63635	0.39422
1789.70779	0.39356
1787.77923	0.39446
1785.85066	0.39522
1783.92210	0.39551
1781.99353	0.39577
1780.06497	0.39587
1778.13640	0.39641
1776.20784	0.39782
1774.27927	0.39927
1772.35071	0.39913
1770.42215	0.39816
1768.49358	0.39822
1766.56502	0.39909
1764.63645	0.40063
1762.70789	0.40191
1760.77932	0.40273
1758.85076	0.40426
1756.92220	0.40659
1754.99363	0.40970
1753.06507	0.41379
1751.13650	0.41869
1749.20794	0.42347
1747.27937	0.42792
1745.35081	0.43245
1743.42224	0.43683
1741.49368	0.44032
1739.56512	0.44255
1737.63655	0.44452
1735.70799	0.44613
1733.77942	0.44565
1731.85086	0.44484
1729.92229	0.44545
1727.99373	0.44656
1726.06516	0.44825
1724.13660	0.45056
1722.20804	0.45344
1720.27947	0.45708
1718.35091	0.46088
1716.42234	0.46387
1714.49378	0.46740
1712.56521	0.47230
1710.63665	0.47860
1708.70808	0.48629
1706.77952	0.49688
1704.85096	0.51046
1702.92239	0.52383
1700.99383	0.54247
1699.06526	0.57017
1697.13670	0.59700
1695.20813	0.62357
1693.27957	0.64435
1691.35100	0.66229
1689.42244	0.68318
1687.49388	0.70262
1685.56531	0.72182
1683.63675	0.74900
1681.70818	0.76982
1679.77962	0.78387
1677.85105	0.79760
1675.92249	0.81323
1673.99392	0.82968
1672.06536	0.84334
1670.13680	0.85739
1668.20823	0.87216
1666.27967	0.88326
1664.35110	0.89409
1662.42254	0.90658
1660.49397	0.91716
1658.56541	0.92523
1656.63684	0.93225
1654.70828	0.93801
1652.77972	0.93926
1650.85115	0.94071
1648.92259	0.94407
1646.99402	0.94402
1645.06546	0.94094
1643.13689	0.94026
1641.20833	0.94134
1639.27976	0.94303
1637.35120	0.94368
1635.42264	0.94067
1633.49407	0.93859
1631.56551	0.93887
1629.63694	0.93823
1627.70838	0.93548
1625.77981	0.93120
1623.85125	0.92348
1621.92269	0.91259
1619.99412	0.90397
1618.06556	0.89259
1616.13699	0.87221
1614.20843	0.85556
1612.27986	0.84349
1610.35130	0.82989
1608.42273	0.81512
1606.49417	0.80258
1604.56561	0.79308
1602.63704	0.78534
1600.70848	0.77935
1598.77991	0.77543
1596.85135	0.77276
1594.92278	0.77045
1592.99422	0.76883
1591.06565	0.76836
1589.13709	0.76904
1587.20853	0.77098
1585.27996	0.77404
1583.35140	0.77800
1581.42283	0.78291
1579.49427	0.78864
1577.56570	0.79543
1575.63714	0.80362
1573.70857	0.81100
1571.78001	0.81812
1569.85145	0.82744
1567.92288	0.83745
1565.99432	0.84653
1564.06575	0.85585
1562.13719	0.86398
1560.20862	0.87160
1558.28006	0.88315
1556.35149	0.89236
1554.42293	0.89865
1552.49437	0.90334
1550.56580	0.90651
1548.63724	0.90884
1546.70867	0.91119
1544.78011	0.91319
1542.85154	0.91328
1540.92298	0.90834
1538.99441	0.90203
1537.06585	0.90142
1535.13729	0.90056
1533.20872	0.89639
1531.28016	0.89282
1529.35159	0.89159
1527.42303	0.88959
1525.49446	0.88674
1523.56590	0.88508
1521.63733	0.88238
1519.70877	0.88012
1517.78021	0.87832
1515.85164	0.87333
1513.92308	0.86660
1511.99451	0.85965
1510.06595	0.85270
1508.13738	0.83861
1506.20882	0.81008
1504.28025	0.79714
1502.35169	0.79112
1500.42313	0.78311
1498.49456	0.77034
1496.56600	0.75318
1494.63743	0.74076
1492.70887	0.73388
1490.78030	0.72497
1488.85174	0.71045
1486.92317	0.69941
1484.99461	0.69378
1483.06605	0.69022
1481.13748	0.68769
1479.20892	0.68713
1477.28035	0.68929
1475.35179	0.69403
1473.42322	0.70141
1471.49466	0.70936
1469.56610	0.71543
1467.63753	0.72070
1465.70897	0.72581
1463.78040	0.73052
1461.85184	0.73452
1459.92327	0.73813
1457.99471	0.74128
1456.06614	0.74317
1454.13758	0.74472
1452.20902	0.74610
1450.28045	0.74677
1448.35189	0.74611
1446.42332	0.74455
1444.49476	0.74315
1442.56619	0.74175
1440.63763	0.74046
1438.70906	0.73877
1436.78050	0.73386
1434.85194	0.72755
1432.92337	0.72372
1430.99481	0.71996
1429.06624	0.71547
1427.13768	0.71256
1425.20911	0.71108
1423.28055	0.71036
1421.35198	0.71076
1419.42342	0.71115
1417.49486	0.71063
1415.56629	0.71073
1413.63773	0.71137
1411.70916	0.71195
1409.78060	0.71266
1407.85203	0.71384
1405.92347	0.71540
1403.99490	0.71711
1402.06634	0.71905
1400.13778	0.72094
1398.20921	0.72211
1396.28065	0.72241
1394.35208	0.72221
1392.42352	0.72275
1390.49495	0.72447
1388.56639	0.72706
1386.63782	0.73072
1384.70926	0.73531
1382.78070	0.74008
1380.85213	0.74410
1378.92357	0.74637
1376.99500	0.74603
1375.06644	0.74181
1373.13787	0.73466
1371.20931	0.72777
1369.28074	0.72003
1367.35218	0.71085
1365.42362	0.70229
1363.49505	0.69331
1361.56649	0.68392
1359.63792	0.67749
1357.70936	0.67350
1355.78079	0.67041
1353.85223	0.66803
1351.92366	0.66634
1349.99510	0.66518
1348.06654	0.66446
1346.13797	0.66405
1344.20941	0.66407
1342.28084	0.66457
1340.35228	0.66492
1338.42371	0.66457
1336.49515	0.66470
1334.56659	0.66626
1332.63802	0.66894
1330.70946	0.67215
1328.78089	0.67520
1326.85233	0.67752
1324.92376	0.67911
1322.99520	0.68053
1321.06663	0.68210
1319.13807	0.68347
1317.20951	0.68459
1315.28094	0.68576
1313.35238	0.68673
1311.42381	0.68710
1309.49525	0.68682
1307.56668	0.68596
1305.63812	0.68478
1303.70955	0.68357
1301.78099	0.68209
1299.85243	0.67989
1297.92386	0.67679
1295.99530	0.67316
1294.06673	0.66990
1292.13817	0.66743
1290.20960	0.66574
1288.28104	0.66461
1286.35247	0.66369
1284.42391	0.66265
1282.49535	0.66149
1280.56678	0.66049
1278.63822	0.65982
1276.70965	0.65958
1274.78109	0.65999
1272.85252	0.66111
1270.92396	0.66272
1268.99539	0.66463
1267.06683	0.66677
1265.13827	0.66897
1263.20970	0.67098
1261.28114	0.67249
1259.35257	0.67334
1257.42401	0.67378
1255.49544	0.67438
1253.56688	0.67531
1251.63831	0.67625
1249.70975	0.67719
1247.78119	0.67835
1245.85262	0.67965
1243.92406	0.68087
1241.99549	0.68193
1240.06693	0.68272
1238.13836	0.68312
1236.20980	0.68307
1234.28123	0.68255
1232.35267	0.68146
1230.42411	0.67952
1228.49554	0.67650
1226.56698	0.67263
1224.63841	0.66824
1222.70985	0.66353
1220.78128	0.65855
1218.85272	0.65338
1216.92415	0.64846
1214.99559	0.64439
1213.06703	0.64175
1211.13846	0.64070
1209.20990	0.64047
1207.28133	0.63983
1205.35277	0.63793
1203.42420	0.63457
1201.49564	0.63021
1199.56708	0.62537
1197.63851	0.62035
1195.70995	0.61548
1193.78138	0.61084
1191.85282	0.60640
1189.92425	0.60263
1187.99569	0.59992
1186.06712	0.59810
1184.13856	0.59697
1182.21000	0.59666
1180.28143	0.59737
1178.35287	0.59933
1176.42430	0.60250
1174.49574	0.60640
1172.56717	0.61041
1170.63861	0.61458
1168.71004	0.61973
1166.78148	0.62638
1164.85292	0.63424
1162.92435	0.64234
1160.99579	0.64950
1159.06722	0.65431
1157.13866	0.65573
1155.21009	0.65372
1153.28153	0.64883
1151.35296	0.64205
1149.42440	0.63442
1147.49584	0.62663
1145.56727	0.61930
1143.63871	0.61326
1141.71014	0.60909
1139.78158	0.60674
1137.85301	0.60576
1135.92445	0.60610
1133.99588	0.60800
1132.06732	0.61181
1130.13876	0.61774
1128.21019	0.62547
1126.28163	0.63425
1124.35306	0.64334
1122.42450	0.65211
1120.49593	0.66009
1118.56737	0.66697
1116.63880	0.67231
1114.71024	0.67554
1112.78168	0.67656
1110.85311	0.67596
1108.92455	0.67440
1106.99598	0.67264
1105.06742	0.67111
1103.13885	0.66940
1101.21029	0.66763
1099.28172	0.66658
1097.35316	0.66678
1095.42460	0.66860
1093.49603	0.67236
1091.56747	0.67809
1089.63890	0.68570
1087.71034	0.69518
1085.78177	0.70626
1083.85321	0.71827
1081.92464	0.73025
1079.99608	0.74081
1078.06752	0.74876
1076.13895	0.75343
1074.21039	0.75470
1072.28182	0.75318
1070.35326	0.74967
1068.42469	0.74474
1066.49613	0.73945
1064.56756	0.73491
1062.63900	0.73095
1060.71044	0.72673
1058.78187	0.72184
1056.85331	0.71631
1054.92474	0.71074
1052.99618	0.70566
1051.06761	0.70099
1049.13905	0.69694
1047.21049	0.69441
1045.28192	0.69425
1043.35336	0.69649
1041.42479	0.70029
1039.49623	0.70477
1037.56766	0.70935
1035.63910	0.71378
1033.71053	0.71758
1031.78197	0.72011
1029.85341	0.72115
1027.92484	0.72030
1025.99628	0.71727
1024.06771	0.71252
1022.13915	0.70700
1020.21058	0.70171
1018.28202	0.69710
1016.35345	0.69283
1014.42489	0.68801
1012.49633	0.68176
1010.56776	0.67364
1008.63920	0.66374
1006.71063	0.65263
1004.78207	0.64134
1002.85350	0.63090
1000.92494	0.62164
998.99637	0.61347
997.06781	0.60656
995.13925	0.60101
993.21068	0.59615
991.28212	0.59113
989.35355	0.58567
987.42499	0.57989
985.49642	0.57418
983.56786	0.56900
981.63929	0.56453
979.71073	0.56089
977.78217	0.55804
975.85360	0.55536
973.92504	0.55199
971.99647	0.54740
970.06791	0.54167
968.13934	0.53539
966.21078	0.52929
964.28221	0.52412
962.35365	0.52070
960.42509	0.51985
958.49652	0.52179
956.56796	0.52509
954.63939	0.52724
952.71083	0.52661
950.78226	0.52313
948.85370	0.51765
946.92513	0.51169
944.99657	0.50657
943.06801	0.50244
941.13944	0.49889
939.21088	0.49568
937.28231	0.49268
935.35375	0.48992
933.42518	0.48762
931.49662	0.48584
929.56805	0.48436
927.63949	0.48312
925.71093	0.48235
923.78236	0.48191
921.85380	0.48141
919.92523	0.48060
917.99667	0.47929
916.06810	0.47756
914.13954	0.47593
912.21098	0.47499
910.28241	0.47486
908.35385	0.47546
906.42528	0.47676
904.49672	0.47846
902.56815	0.48012
900.63959	0.48135
898.71102	0.48186
896.78246	0.48147
894.85390	0.48015
892.92533	0.47807
890.99677	0.47547
889.06820	0.47246
887.13964	0.46927
885.21107	0.46634
883.28251	0.46395
881.35394	0.46229
879.42538	0.46129
877.49682	0.46061
875.56825	0.46003
873.63969	0.45952
871.71112	0.45909
869.78256	0.45880
867.85399	0.45864
865.92543	0.45845
863.99686	0.45820
862.06830	0.45812
860.13974	0.45846
858.21117	0.45914
856.28261	0.46008
854.35404	0.46145
852.42548	0.46303
850.49691	0.46428
848.56835	0.46517
846.63978	0.46591
844.71122	0.46643
842.78266	0.46669
840.85409	0.46686
838.92553	0.46690
836.99696	0.46671
835.06840	0.46657
833.13983	0.46680
831.21127	0.46747
829.28270	0.46837
827.35414	0.46912
825.42558	0.46983
823.49701	0.47085
821.56845	0.47212
819.63988	0.47346
817.71132	0.47506
815.78275	0.47691
813.85419	0.47856
811.92562	0.47963
809.99706	0.47991
808.06850	0.47941
806.13993	0.47834
804.21137	0.47679
802.28280	0.47502
800.35424	0.47348
798.42567	0.47241
796.49711	0.47174
794.56854	0.47159
792.63998	0.47227
790.71142	0.47365
788.78285	0.47515
786.85429	0.47644
784.92572	0.47755
782.99716	0.47843
781.06859	0.47906
779.14003	0.47939
777.21147	0.47924
775.28290	0.47889
773.35434	0.47880
771.42577	0.47900
769.49721	0.47944
767.56864	0.48063
765.64008	0.48261
763.71151	0.48474
761.78295	0.48703
759.85439	0.48993
757.92582	0.49331
755.99726	0.49663
754.06869	0.49933
752.14013	0.50122
750.21156	0.50252
748.28300	0.50328
746.35443	0.50306
744.42587	0.50181
742.49731	0.50010
740.56874	0.49844
738.64018	0.49720
736.71161	0.49676
734.78305	0.49725
732.85448	0.49863
730.92592	0.50091
728.99735	0.50360
727.06879	0.50620
725.14023	0.50884
723.21166	0.51169
721.28310	0.51446
719.35453	0.51627
717.42597	0.51673
715.49740	0.51675
713.56884	0.51736
711.64027	0.51893
709.71171	0.52112
707.78315	0.52348
705.85458	0.52588
703.92602	0.52847
701.99745	0.53100
700.06889	0.53277
698.14032	0.53362
696.21176	0.53397
694.28319	0.53394
692.35463	0.53296
690.42607	0.53083
688.49750	0.52822
686.56894	0.52570
684.64037	0.52300
682.71181	0.51992
680.78324	0.51698
678.85468	0.51511
676.92611	0.51484
674.99755	0.51559
673.06899	0.51689
671.14042	0.51864
669.21186	0.52041
667.28329	0.52290
665.35473	0.52565
663.42616	0.52737
661.49760	0.52800
659.56903	0.52766
657.64047	0.52640
655.71191	0.52469
653.78334	0.52301
651.85478	0.52121
649.92621	0.51928
647.99765	0.51811
646.06908	0.51857
644.14052	0.52078
642.21195	0.52430
640.28339	0.52808
638.35483	0.53101
636.42626	0.53284
634.49770	0.53372
632.56913	0.53381
630.64057	0.53342
628.71200	0.53290
626.78344	0.53251
624.85488	0.53227
622.92631	0.53221
620.99775	0.53263
619.06918	0.53354
617.14062	0.53441
615.21205	0.53549
613.28349	0.53781
611.35492	0.54077
609.42636	0.54289
607.49780	0.54441
605.56923	0.54642
603.64067	0.54831
601.71210	0.54851
599.78354	0.54705
