3997.91406	1.04564
3995.98550	1.04694
3994.05693	1.04704
3992.12837	1.04645
3990.19980	1.04471
3988.27124	1.04356
3986.34268	1.04453
3984.41411	1.04497
3982.48555	1.04313
3980.55698	1.04148
3978.62842	1.04158
3976.69985	1.04112
3974.77129	1.03864
3972.84272	1.03699
3970.91416	1.03765
3968.98560	1.03854
3967.05703	1.03879
3965.12847	1.03931
3963.19990	1.03959
3961.27134	1.03860
3959.34277	1.03719
3957.41421	1.03586
3955.48564	1.03463
3953.55708	1.03474
3951.62852	1.03560
3949.69995	1.03369
3947.77139	1.02990
3945.84282	1.02880
3943.91426	1.02881
3941.98569	1.02903
3940.05713	1.03233
3938.12856	1.03587
3936.20000	1.03613
3934.27144	1.03344
3932.34287	1.02856
3930.41431	1.02506
3928.48574	1.02562
3926.55718	1.02647
3924.62861	1.02511
3922.70005	1.02496
3920.77148	1.02645
3918.84292	1.02535
3916.91436	1.02147
3914.98579	1.01923
3913.05723	1.01965
3911.12866	1.02129
3909.20010	1.02384
3907.27153	1.02603
3905.34297	1.02449
3903.41440	1.01894
3901.48584	1.01381
3899.55728	1.01085
3897.62871	1.01267
3895.70015	1.01829
3893.77158	1.02152
3891.84302	1.01726
3889.91445	1.01384
3887.98589	1.01608
3886.05733	1.01643
3884.12876	1.01560
3882.20020	1.01555
3880.27163	1.00999
3878.34307	1.00771
3876.41450	1.01136
3874.48594	1.01291
3872.55737	1.01088
3870.62881	1.00583
3868.70025	1.00351
3866.77168	1.00708
3864.84312	1.00684
3862.91455	1.00308
3860.98599	1.00508
3859.05742	1.01075
3857.12886	1.01631
3855.20029	1.01424
3853.27173	0.99519
3851.34317	0.98948
3849.41460	0.99666
3847.48604	1.00324
3845.55747	1.00826
3843.62891	1.01125
3841.70034	1.01162
3839.77178	1.00909
3837.84321	1.00316
3835.91465	0.99839
3833.98609	0.99613
3832.05752	0.99625
3830.12896	0.99934
3828.20039	1.00147
3826.27183	1.00106
3824.34326	1.00263
3822.41470	1.00145
3820.48613	0.99284
3818.55757	0.99201
3816.62901	0.99258
3814.70044	0.98910
3812.77188	0.99054
3810.84331	0.99616
3808.91475	0.99978
3806.98618	0.99634
3805.05762	0.99392
3803.12905	0.99311
3801.20049	0.98563
3799.27193	0.98296
3797.34336	0.98428
3795.41480	0.98349
3793.48623	0.98445
3791.55767	0.98677
3789.62910	0.98896
3787.70054	0.99127
3785.77197	0.99075
3783.84341	0.98863
3781.91485	0.98963
3779.98628	0.98872
3778.05772	0.98378
3776.12915	0.98216
3774.20059	0.98444
3772.27202	0.98699
3770.34346	0.98589
3768.41489	0.98269
3766.48633	0.98017
3764.55777	0.97933
3762.62920	0.98294
3760.70064	0.98597
3758.77207	0.98251
3756.84351	0.97994
3754.91494	0.98238
3752.98638	0.98233
3751.05781	0.97173
3749.12925	0.96814
3747.20069	0.97558
3745.27212	0.97601
3743.34356	0.96989
3741.41499	0.97169
3739.48643	0.97816
3737.55786	0.98166
3735.62930	0.97561
3733.70074	0.96776
3731.77217	0.96849
3729.84361	0.97289
3727.91504	0.97536
3725.98648	0.97290
3724.05791	0.96958
3722.12935	0.96920
3720.20078	0.96933
3718.27222	0.97007
3716.34366	0.97310
3714.41509	0.97710
3712.48653	0.97544
3710.55796	0.96734
3708.62940	0.96658
3706.70083	0.97072
3704.77227	0.97378
3702.84370	0.97199
3700.91514	0.96739
3698.98658	0.96710
3697.05801	0.96992
3695.12945	0.97318
3693.20088	0.97650
3691.27232	0.97682
3689.34375	0.96958
3687.41519	0.96536
3685.48662	0.96878
3683.55806	0.97402
3681.62950	0.97805
3679.70093	0.98077
3677.77237	0.98109
3675.84380	0.97268
3673.91524	0.96771
3671.98667	0.97221
3670.05811	0.97337
3668.12954	0.97374
3666.20098	0.97843
3664.27242	0.98308
3662.34385	0.98690
3660.41529	0.99188
3658.48672	0.99676
3656.55816	0.99736
3654.62959	0.99839
3652.70103	1.00457
3650.77246	1.00607
3648.84390	0.99264
3646.91534	0.98943
3644.98677	0.99723
3643.05821	1.00509
3641.12964	1.01014
3639.20108	1.01301
3637.27251	1.01598
3635.34395	1.01942
3633.41538	1.02366
3631.48682	1.02872
3629.55826	1.02818
3627.62969	1.02351
3625.70113	1.02782
3623.77256	1.03573
3621.84400	1.04073
3619.91543	1.03932
3617.98687	1.03830
3616.05830	1.04425
3614.12974	1.04959
3612.20118	1.05158
3610.27261	1.05363
3608.34405	1.05479
3606.41548	1.05647
3604.48692	1.06143
3602.55835	1.06730
3600.62979	1.07098
3598.70123	1.07284
3596.77266	1.07477
3594.84410	1.07744
3592.91553	1.08178
3590.98697	1.08706
3589.05840	1.08923
3587.12984	1.08636
3585.20127	1.08679
3583.27271	1.09140
3581.34415	1.09637
3579.41558	1.10080
3577.48702	1.10457
3575.55845	1.10726
3573.62989	1.10917
3571.70132	1.11265
3569.77276	1.11647
3567.84419	1.11408
3565.91563	1.10938
3563.98707	1.11402
3562.05850	1.12196
3560.12994	1.12638
3558.20137	1.12878
3556.27281	1.13294
3554.34424	1.13808
3552.41568	1.14113
3550.48711	1.14233
3548.55855	1.14438
3546.62999	1.14686
3544.70142	1.14882
3542.77286	1.15151
3540.84429	1.15512
3538.91573	1.15845
3536.98716	1.16089
3535.05860	1.16331
3533.13003	1.16558
3531.20147	1.16608
3529.27291	1.16572
3527.34434	1.16884
3525.41578	1.17515
3523.48721	1.17913
3521.55865	1.18023
3519.63008	1.18155
3517.70152	1.18387
3515.77295	1.18731
3513.84439	1.19128
3511.91583	1.19314
3509.98726	1.19281
3508.05870	1.19492
3506.13013	1.20037
3504.20157	1.20558
3502.27300	1.20887
3500.34444	1.21265
3498.41587	1.21796
3496.48731	1.22127
3494.55875	1.22094
3492.63018	1.22054
3490.70162	1.22235
3488.77305	1.22571
3486.84449	1.22864
3484.91592	1.23024
3482.98736	1.23261
3481.05879	1.23621
3479.13023	1.23785
3477.20167	1.23669
3475.27310	1.23514
3473.34454	1.23556
3471.41597	1.23796
3469.48741	1.24061
3467.55884	1.24298
3465.63028	1.24498
3463.70171	1.24594
3461.77315	1.24666
3459.84459	1.24795
3457.91602	1.24889
3455.98746	1.24944
3454.05889	1.25070
3452.13033	1.25314
3450.20176	1.25616
3448.27320	1.25737
3446.34464	1.25588
3444.41607	1.25456
3442.48751	1.25483
3440.55894	1.25673
3438.63038	1.26029
3436.70181	1.26376
3434.77325	1.26512
3432.84468	1.26416
3430.91612	1.26292
3428.98756	1.26352
3427.05899	1.26485
3425.13043	1.26524
3423.20186	1.26502
3421.27330	1.26453
3419.34473	1.26428
3417.41617	1.26549
3415.48760	1.26796
3413.55904	1.26947
3411.63048	1.26932
3409.70191	1.26940
3407.77335	1.26993
3405.84478	1.27045
3403.91622	1.27235
3401.98765	1.27539
3400.05909	1.27725
3398.13052	1.27734
3396.20196	1.27763
3394.27340	1.27939
3392.34483	1.28050
3390.41627	1.27935
3388.48770	1.27773
3386.55914	1.27674
3384.63057	1.27606
3382.70201	1.27691
3380.77344	1.27995
3378.84488	1.28240
3376.91632	1.28218
3374.98775	1.28183
3373.05919	1.28402
3371.13062	1.28792
3369.20206	1.29124
3367.27349	1.29178
3365.34493	1.28976
3363.41636	1.28851
3361.48780	1.28904
3359.55924	1.29005
3357.63067	1.29112
3355.70211	1.29115
3353.77354	1.29062
3351.84498	1.29131
3349.91641	1.29260
3347.98785	1.29355
3346.05928	1.29430
3344.13072	1.29439
3342.20216	1.29423
3340.27359	1.29577
3338.34503	1.29890
3336.41646	1.30162
3334.48790	1.30312
3332.55933	1.30297
3330.63077	1.30158
3328.70220	1.30104
3326.77364	1.30172
3324.84508	1.30275
3322.91651	1.30481
3320.98795	1.30787
3319.05938	1.31013
3317.13082	1.31050
3315.20225	1.31042
3313.27369	1.31175
3311.34513	1.31423
3309.41656	1.31714
3307.48800	1.31974
3305.55943	1.32161
3303.63087	1.32371
3301.70230	1.32602
3299.77374	1.32742
3297.84517	1.32851
3295.91661	1.33083
3293.98805	1.33304
3292.05948	1.33291
3290.13092	1.33092
3288.20235	1.32859
3286.27379	1.32787
3284.34522	1.32838
3282.41666	1.32720
3280.48809	1.32535
3278.55953	1.32693
3276.63097	1.33025
3274.70240	1.33021
3272.77384	1.32829
3270.84527	1.32679
3268.91671	1.32476
3266.98814	1.32402
3265.05958	1.32421
3263.13101	1.32269
3261.20245	1.32105
3259.27389	1.32070
3257.34532	1.32021
3255.41676	1.31847
3253.48819	1.31510
3251.55963	1.31065
3249.63106	1.30695
3247.70250	1.30520
3245.77393	1.30364
3243.84537	1.30031
3241.91681	1.29742
3239.98824	1.29699
3238.05968	1.29723
3236.13111	1.29670
3234.20255	1.29486
3232.27398	1.29171
3230.34542	1.28883
3228.41685	1.28646
3226.48829	1.28436
3224.55973	1.28287
3222.63116	1.28120
3220.70260	1.27965
3218.77403	1.27964
3216.84547	1.27996
3214.91690	1.27848
3212.98834	1.27640
3211.05977	1.27507
3209.13121	1.27276
3207.20265	1.26911
3205.27408	1.26635
3203.34552	1.26491
3201.41695	1.26249
3199.48839	1.25834
3197.55982	1.25523
3195.63126	1.25483
3193.70269	1.25513
3191.77413	1.25432
3189.84557	1.25286
3187.91700	1.25093
3185.98844	1.24838
3184.05987	1.24585
3182.13131	1.24374
3180.20274	1.24183
3178.27418	1.23990
3176.34562	1.23842
3174.41705	1.23723
3172.48849	1.23478
3170.55992	1.23097
3168.63136	1.22775
3166.70279	1.22656
3164.77423	1.22655
3162.84566	1.22580
3160.91710	1.22389
3158.98854	1.22236
3157.05997	1.22211
3155.13141	1.22154
3153.20284	1.21939
3151.27428	1.21703
3149.34571	1.21503
3147.41715	1.21252
3145.48858	1.20971
3143.56002	1.20726
3141.63146	1.20608
3139.70289	1.20634
3137.77433	1.20604
3135.84576	1.20426
3133.91720	1.20266
3131.98863	1.20220
3130.06007	1.20218
3128.13150	1.20174
3126.20294	1.20124
3124.27438	1.20183
3122.34581	1.20361
3120.41725	1.20545
3118.48868	1.20546
3116.56012	1.20321
3114.63155	1.20084
3112.70299	1.19993
3110.77442	1.20034
3108.84586	1.20070
3106.91730	1.19981
3104.98873	1.19892
3103.06017	1.19900
3101.13160	1.19846
3099.20304	1.19708
3097.27447	1.19637
3095.34591	1.19588
3093.41734	1.19473
3091.48878	1.19306
3089.56022	1.19106
3087.63165	1.18993
3085.70309	1.19059
3083.77452	1.19176
3081.84596	1.19199
3079.91739	1.19116
3077.98883	1.18952
3076.06026	1.18764
3074.13170	1.18611
3072.20314	1.18475
3070.27457	1.18349
3068.34601	1.18204
3066.41744	1.18008
3064.48888	1.17833
3062.56031	1.17670
3060.63175	1.17494
3058.70318	1.17394
3056.77462	1.17374
3054.84606	1.17283
3052.91749	1.17079
3050.98893	1.16818
3049.06036	1.16503
3047.13180	1.16236
3045.20323	1.16092
3043.27467	1.15934
3041.34610	1.15689
3039.41754	1.15428
3037.48898	1.15211
3035.56041	1.15033
3033.63185	1.14869
3031.70328	1.14737
3029.77472	1.14644
3027.84615	1.14548
3025.91759	1.14419
3023.98903	1.14250
3022.06046	1.14042
3020.13190	1.13823
3018.20333	1.13660
3016.27477	1.13581
3014.34620	1.13543
3012.41764	1.13457
3010.48907	1.13279
3008.56051	1.13107
3006.63195	1.12978
3004.70338	1.12815
3002.77482	1.12614
3000.84625	1.12436
2998.91769	1.12348
2996.98912	1.12366
2995.06056	1.12491
2993.13199	1.12733
2991.20343	1.12958
2989.27487	1.13057
2987.34630	1.13129
2985.41774	1.13311
2983.48917	1.13603
2981.56061	1.13859
2979.63204	1.14067
2977.70348	1.14392
2975.77491	1.14798
2973.84635	1.15091
2971.91779	1.15249
2969.98922	1.15427
2968.06066	1.15700
2966.13209	1.16005
2964.20353	1.16299
2962.27496	1.16539
2960.34640	1.16632
2958.41783	1.16585
2956.48927	1.16474
2954.56071	1.16303
2952.63214	1.16124
2950.70358	1.15983
2948.77501	1.15854
2946.84645	1.15794
2944.91788	1.15874
2942.98932	1.16060
2941.06075	1.16304
2939.13219	1.16626
2937.20363	1.17064
2935.27506	1.17568
2933.34650	1.18073
2931.41793	1.18574
2929.48937	1.19034
2927.56080	1.19444
2925.63224	1.19815
2923.70367	1.20116
2921.77511	1.20486
2919.84655	1.21009
2917.91798	1.21257
2915.98942	1.20831
2914.06085	1.19877
2912.13229	1.18656
2910.20372	1.17432
2908.27516	1.16464
2906.34659	1.15785
2904.41803	1.15308
2902.48947	1.14950
2900.56090	1.14674
2898.63234	1.14464
2896.70377	1.14221
2894.77521	1.13922
2892.84664	1.13640
2890.91808	1.13390
2888.98952	1.13157
2887.06095	1.12919
2885.13239	1.12677
2883.20382	1.12506
2881.27526	1.12455
2879.34669	1.12438
2877.41813	1.12378
2875.48956	1.12344
2873.56100	1.12351
2871.63244	1.12208
2869.70387	1.11842
2867.77531	1.11449
2865.84674	1.11114
2863.91818	1.10817
2861.98961	1.10732
2860.06105	1.10982
2858.13248	1.11399
2856.20392	1.11807
2854.27536	1.12267
2852.34679	1.12853
2850.41823	1.13234
2848.48966	1.12851
2846.56110	1.11692
2844.63253	1.10322
2842.70397	1.09130
2840.77540	1.08172
2838.84684	1.07477
2836.91828	1.07021
2834.98971	1.06623
2833.06115	1.06157
2831.13258	1.05748
2829.20402	1.05503
2827.27545	1.05291
2825.34689	1.04994
2823.41832	1.04681
2821.48976	1.04430
2819.56120	1.04232
2817.63263	1.04061
2815.70407	1.03876
2813.77550	1.03661
2811.84694	1.03467
2809.91837	1.03306
2807.98981	1.03118
2806.06124	1.02890
2804.13268	1.02659
2802.20412	1.02457
2800.27555	1.02344
2798.34699	1.02263
2796.41842	1.02056
2794.48986	1.01793
2792.56129	1.01647
2790.63273	1.01561
2788.70416	1.01408
2786.77560	1.01254
2784.84704	1.01148
2782.91847	1.00984
2780.98991	1.00755
2779.06134	1.00551
2777.13278	1.00401
2775.20421	1.00285
2773.27565	1.00186
2771.34708	1.00107
2769.41852	1.00005
2767.48996	0.99856
2765.56139	0.99713
2763.63283	0.99606
2761.70426	0.99510
2759.77570	0.99376
2757.84713	0.99186
2755.91857	0.98985
2753.99001	0.98841
2752.06144	0.98766
2750.13288	0.98715
2748.20431	0.98637
2746.27575	0.98506
2744.34718	0.98352
2742.41862	0.98212
2740.49005	0.98100
2738.56149	0.98008
2736.63293	0.97898
2734.70436	0.97798
2732.77580	0.97757
2730.84723	0.97702
2728.91867	0.97567
2726.99010	0.97407
2725.06154	0.97301
2723.13297	0.97218
2721.20441	0.97083
2719.27585	0.96923
2717.34728	0.96770
2715.41872	0.96593
2713.49015	0.96438
2711.56159	0.96333
2709.63302	0.96224
2707.70446	0.96138
2705.77589	0.96119
2703.84733	0.96069
2701.91877	0.95883
2699.99020	0.95644
2698.06164	0.95496
2696.13307	0.95450
2694.20451	0.95423
2692.27594	0.95361
2690.34738	0.95263
2688.41881	0.95150
2686.49025	0.95046
2684.56169	0.94953
2682.63312	0.94865
2680.70456	0.94789
2678.77599	0.94731
2676.84743	0.94654
2674.91886	0.94504
2672.99030	0.94327
2671.06173	0.94209
2669.13317	0.94105
2667.20461	0.93963
2665.27604	0.93830
2663.34748	0.93742
2661.41891	0.93673
2659.49035	0.93614
2657.56178	0.93561
2655.63322	0.93471
2653.70465	0.93370
2651.77609	0.93326
2649.84753	0.93304
2647.91896	0.93258
2645.99040	0.93208
2644.06183	0.93109
2642.13327	0.92935
2640.20470	0.92786
2638.27614	0.92718
2636.34757	0.92686
2634.41901	0.92625
2632.49045	0.92473
2630.56188	0.92312
2628.63332	0.92270
2626.70475	0.92268
2624.77619	0.92187
2622.84762	0.92071
2620.91906	0.91981
2618.99049	0.91919
2617.06193	0.91858
2615.13337	0.91767
2613.20480	0.91659
2611.27624	0.91552
2609.34767	0.91454
2607.41911	0.91388
2605.49054	0.91354
2603.56198	0.91294
2601.63342	0.91184
2599.70485	0.91090
2597.77629	0.91043
2595.84772	0.90986
2593.91916	0.90885
2591.99059	0.90756
2590.06203	0.90642
2588.13346	0.90567
2586.20490	0.90497
2584.27634	0.90406
2582.34777	0.90301
2580.41921	0.90190
2578.49064	0.90115
2576.56208	0.90098
2574.63351	0.90079
2572.70495	0.90008
2570.77638	0.89891
2568.84782	0.89747
2566.91926	0.89621
2564.99069	0.89553
2563.06213	0.89511
2561.13356	0.89442
2559.20500	0.89355
2557.27643	0.89267
2555.34787	0.89179
2553.41930	0.89092
2551.49074	0.88991
2549.56218	0.88865
2547.63361	0.88764
2545.70505	0.88730
2543.77648	0.88714
2541.84792	0.88655
2539.91935	0.88548
2537.99079	0.88419
2536.06222	0.88310
2534.13366	0.88254
2532.20510	0.88241
2530.27653	0.88220
2528.34797	0.88176
2526.41940	0.88117
2524.49084	0.88034
2522.56227	0.87934
2520.63371	0.87831
2518.70514	0.87734
2516.77658	0.87645
2514.84802	0.87563
2512.91945	0.87503
2510.99089	0.87459
2509.06232	0.87427
2507.13376	0.87419
2505.20519	0.87415
2503.27663	0.87379
2501.34806	0.87300
2499.41950	0.87191
2497.49094	0.87068
2495.56237	0.86956
2493.63381	0.86862
2491.70524	0.86762
2489.77668	0.86669
2487.84811	0.86613
2485.91955	0.86564
2483.99098	0.86480
2482.06242	0.86391
2480.13386	0.86354
2478.20529	0.86333
2476.27673	0.86253
2474.34816	0.86129
2472.41960	0.86016
2470.49103	0.85942
2468.56247	0.85903
2466.63391	0.85868
2464.70534	0.85822
2462.77678	0.85768
2460.84821	0.85719
2458.91965	0.85693
2456.99108	0.85679
2455.06252	0.85632
2453.13395	0.85524
2451.20539	0.85391
2449.27683	0.85275
2447.34826	0.85173
2445.41970	0.85098
2443.49113	0.85069
2441.56257	0.85039
2439.63400	0.84959
2437.70544	0.84858
2435.77687	0.84770
2433.84831	0.84683
2431.91975	0.84603
2429.99118	0.84540
2428.06262	0.84474
2426.13405	0.84426
2424.20549	0.84407
2422.27692	0.84376
2420.34836	0.84323
2418.41979	0.84269
2416.49123	0.84225
2414.56267	0.84190
2412.63410	0.84167
2410.70554	0.84151
2408.77697	0.84117
2406.84841	0.84047
2404.91984	0.83941
2402.99128	0.83837
2401.06271	0.83766
2399.13415	0.83705
2397.20559	0.83643
2395.27702	0.83589
2393.34846	0.83529
2391.41989	0.83476
2389.49133	0.83458
2387.56276	0.83460
2385.63420	0.83482
2383.70563	0.83548
2381.77707	0.83624
2379.84851	0.83683
2377.91994	0.83741
2375.99138	0.83831
2374.06281	0.83943
2372.13425	0.83970
2370.20568	0.83896
2368.27712	0.83858
2366.34855	0.83800
2364.41999	0.83634
2362.49143	0.83583
2360.56286	0.83701
2358.63430	0.83594
2356.70573	0.83265
2354.77717	0.83094
2352.84860	0.83050
2350.92004	0.83074
2348.99147	0.83227
2347.06291	0.83440
2345.13435	0.83519
2343.20578	0.83343
2341.27722	0.83103
2339.34865	0.82935
2337.42009	0.82781
2335.49152	0.82612
2333.56296	0.82567
2331.63440	0.82714
2329.70583	0.82833
2327.77727	0.82725
2325.84870	0.82509
2323.92014	0.82347
2321.99157	0.82268
2320.06301	0.82248
2318.13444	0.82232
2316.20588	0.82178
2314.27732	0.82096
2312.34875	0.82030
2310.42019	0.81975
2308.49162	0.81894
2306.56306	0.81792
2304.63449	0.81705
2302.70593	0.81644
2300.77736	0.81587
2298.84880	0.81508
2296.92024	0.81420
2294.99167	0.81353
2293.06311	0.81327
2291.13454	0.81319
2289.20598	0.81283
2287.27741	0.81230
2285.34885	0.81193
2283.42028	0.81164
2281.49172	0.81135
2279.56316	0.81110
2277.63459	0.81089
2275.70603	0.81067
2273.77746	0.81024
2271.84890	0.80961
2269.92033	0.80894
2267.99177	0.80828
2266.06320	0.80774
2264.13464	0.80759
2262.20608	0.80770
2260.27751	0.80756
2258.34895	0.80698
2256.42038	0.80626
2254.49182	0.80569
2252.56325	0.80521
2250.63469	0.80468
2248.70612	0.80402
2246.77756	0.80321
2244.84900	0.80254
2242.92043	0.80220
2240.99187	0.80192
2239.06330	0.80166
2237.13474	0.80153
2235.20617	0.80125
2233.27761	0.80057
2231.34904	0.79986
2229.42048	0.79938
2227.49192	0.79892
2225.56335	0.79857
2223.63479	0.79859
2221.70622	0.79870
2219.77766	0.79854
2217.84909	0.79820
2215.92053	0.79783
2213.99196	0.79733
2212.06340	0.79681
2210.13484	0.79647
2208.20627	0.79625
2206.27771	0.79602
2204.34914	0.79570
2202.42058	0.79526
2200.49201	0.79485
2198.56345	0.79464
2196.63488	0.79450
2194.70632	0.79427
2192.77776	0.79391
2190.84919	0.79322
2188.92063	0.79238
2186.99206	0.79185
2185.06350	0.79157
2183.13493	0.79120
2181.20637	0.79069
2179.27781	0.79027
2177.34924	0.79008
2175.42068	0.78991
2173.49211	0.78961
2171.56355	0.78929
2169.63498	0.78901
2167.70642	0.78882
2165.77785	0.78859
2163.84929	0.78808
2161.92073	0.78746
2159.99216	0.78705
2158.06360	0.78675
2156.13503	0.78621
2154.20647	0.78552
2152.27790	0.78506
2150.34934	0.78475
2148.42077	0.78446
2146.49221	0.78439
2144.56365	0.78434
2142.63508	0.78383
2140.70652	0.78304
2138.77795	0.78232
2136.84939	0.78156
2134.92082	0.78082
2132.99226	0.78022
2131.06369	0.77968
2129.13513	0.77919
2127.20657	0.77878
2125.27800	0.77828
2123.34944	0.77765
2121.42087	0.77715
2119.49231	0.77682
2117.56374	0.77641
2115.63518	0.77580
2113.70661	0.77505
2111.77805	0.77443
2109.84949	0.77387
2107.92092	0.77334
2105.99236	0.77301
2104.06379	0.77261
2102.13523	0.77188
2100.20666	0.77116
2098.27810	0.77058
2096.34953	0.76985
2094.42097	0.76918
2092.49241	0.76878
2090.56384	0.76835
2088.63528	0.76778
2086.70671	0.76716
2084.77815	0.76655
2082.84958	0.76604
2080.92102	0.76556
2078.99245	0.76492
2077.06389	0.76410
2075.13533	0.76326
2073.20676	0.76259
2071.27820	0.76205
2069.34963	0.76146
2067.42107	0.76082
2065.49250	0.75999
2063.56394	0.75905
2061.63537	0.75817
2059.70681	0.75734
2057.77825	0.75666
2055.84968	0.75624
2053.92112	0.75582
2051.99255	0.75518
2050.06399	0.75434
2048.13542	0.75337
2046.20686	0.75249
2044.27830	0.75181
2042.34973	0.75109
2040.42117	0.75040
2038.49260	0.74993
2036.56404	0.74949
2034.63547	0.74891
2032.70691	0.74821
2030.77834	0.74734
2028.84978	0.74634
2026.92122	0.74543
2024.99265	0.74463
2023.06409	0.74378
2021.13552	0.74303
2019.20696	0.74226
2017.27839	0.74119
2015.34983	0.74012
2013.42126	0.73945
2011.49270	0.73897
2009.56414	0.73840
2007.63557	0.73777
2005.70701	0.73719
2003.77844	0.73664
2001.84988	0.73591
1999.92131	0.73502
1997.99275	0.73438
1996.06418	0.73426
1994.13562	0.73414
1992.20706	0.73321
1990.27849	0.73185
1988.34993	0.73084
1986.42136	0.73006
1984.49280	0.72927
1982.56423	0.72831
1980.63567	0.72740
1978.70710	0.72671
1976.77854	0.72588
1974.84998	0.72471
1972.92141	0.72356
1970.99285	0.72294
1969.06428	0.72246
1967.13572	0.72129
1965.20715	0.71990
1963.27859	0.71904
1961.35002	0.71835
1959.42146	0.71764
1957.49290	0.71712
1955.56433	0.71649
1953.63577	0.71542
1951.70720	0.71422
1949.77864	0.71332
1947.85007	0.71277
1945.92151	0.71230
1943.99294	0.71127
1942.06438	0.70950
1940.13582	0.70826
1938.20725	0.70770
1936.27869	0.70702
1934.35012	0.70620
1932.42156	0.70537
1930.49299	0.70453
1928.56443	0.70377
1926.63586	0.70341
1924.70730	0.70312
1922.77874	0.70226
1920.85017	0.70138
1918.92161	0.70013
1916.99304	0.69812
1915.06448	0.69699
1913.13591	0.69687
1911.20735	0.69640
1909.27878	0.69507
1907.35022	0.69374
1905.42166	0.69312
1903.49309	0.69268
1901.56453	0.69194
1899.63596	0.69144
1897.70740	0.69137
1895.77883	0.69085
1893.85027	0.68999
1891.92171	0.68953
1889.99314	0.68847
1888.06458	0.68671
1886.13601	0.68565
1884.20745	0.68496
1882.27888	0.68410
1880.35032	0.68303
1878.42175	0.68176
1876.49319	0.68052
1874.56463	0.67950
1872.63606	0.67917
1870.70750	0.67906
1868.77893	0.67735
1866.85037	0.67484
1864.92180	0.67380
1862.99324	0.67349
1861.06467	0.67287
1859.13611	0.67178
1857.20755	0.67059
1855.27898	0.66959
1853.35042	0.66879
1851.42185	0.66823
1849.49329	0.66794
1847.56472	0.66776
1845.63616	0.66671
1843.70759	0.66372
1841.77903	0.66150
1839.85047	0.66102
1837.92190	0.66051
1835.99334	0.65954
1834.06477	0.65902
1832.13621	0.65882
1830.20764	0.65747
1828.27908	0.65583
1826.35051	0.65500
1824.42195	0.65368
1822.49339	0.65264
1820.56482	0.65243
1818.63626	0.65196
1816.70769	0.65100
1814.77913	0.65021
1812.85056	0.64946
1810.92200	0.64795
1808.99343	0.64630
1807.06487	0.64554
1805.13631	0.64553
1803.20774	0.64542
1801.27918	0.64427
1799.35061	0.64265
1797.42205	0.64215
1795.49348	0.64259
1793.56492	0.64218
1791.63635	0.63987
1789.70779	0.63849
1787.77923	0.63880
1785.85066	0.63893
1783.92210	0.63864
1781.99353	0.63836
1780.06497	0.63762
1778.13640	0.63745
1776.20784	0.63844
1774.27927	0.63920
1772.35071	0.63786
1770.42215	0.63613
1768.49358	0.63599
1766.56502	0.63671
1764.63645	0.63823
1762.70789	0.63955
1760.77932	0.64025
1758.85076	0.64165
1756.92220	0.64396
1754.99363	0.64745
1753.06507	0.65220
1751.13650	0.65772
1749.20794	0.66324
1747.27937	0.66880
1745.35081	0.67465
1743.42224	0.68042
1741.49368	0.68509
1739.56512	0.68837
1737.63655	0.69151
1735.70799	0.69425
1733.77942	0.69463
1731.85086	0.69470
1729.92229	0.69644
1727.99373	0.69891
1726.06516	0.70218
1724.13660	0.70632
1722.20804	0.71121
1720.27947	0.71716
1718.35091	0.72465
1716.42234	0.73317
1714.49378	0.74138
1712.56521	0.75027
1710.63665	0.76093
1708.70808	0.77366
1706.77952	0.79068
1704.85096	0.81208
1702.92239	0.83202
1700.99383	0.85634
1699.06526	0.88990
1697.13670	0.91988
1695.20813	0.94717
1693.27957	0.96758
1691.35100	0.98418
1689.42244	1.00257
1687.49388	1.01948
1685.56531	1.03551
1683.63675	1.05548
1681.70818	1.07122
1679.77962	1.08291
1677.85105	1.09367
1675.92249	1.10480
1673.99392	1.11668
1672.06536	1.12805
1670.13680	1.13951
1668.20823	1.15017
1666.27967	1.15887
1664.35110	1.16805
1662.42254	1.17775
1660.49397	1.18526
1658.56541	1.19145
1656.63684	1.19701
1654.70828	1.20012
1652.77972	1.19803
1650.85115	1.19921
1648.92259	1.20158
1646.99402	1.19924
1645.06546	1.19692
1643.13689	1.19841
1641.20833	1.20068
1639.27976	1.20269
1637.35120	1.20321
1635.42264	1.19959
1633.49407	1.19720
1631.56551	1.19757
1629.63694	1.19703
1627.70838	1.19473
1625.77981	1.19138
1623.85125	1.18480
1621.92269	1.17580
1619.99412	1.16944
1618.06556	1.16016
1616.13699	1.14214
1614.20843	1.12861
1612.27986	1.11997
1610.35130	1.10961
1608.42273	1.09758
1606.49417	1.08709
1604.56561	1.07889
1602.63704	1.07177
1600.70848	1.06605
1598.77991	1.06227
1596.85135	1.05973
1594.92278	1.05753
1592.99422	1.05565
1591.06565	1.05480
1589.13709	1.05535
1587.20853	1.05745
1585.27996	1.06094
1583.35140	1.06571
1581.42283	1.07166
1579.49427	1.07809
1577.56570	1.08452
1575.63714	1.09111
1573.70857	1.09750
1571.78001	1.10408
1569.85145	1.11219
1567.92288	1.12114
1565.99432	1.12920
1564.06575	1.13651
1562.13719	1.14243
1560.20862	1.14732
1558.28006	1.15440
1556.35149	1.16286
1554.42293	1.16952
1552.49437	1.17411
1550.56580	1.17731
1548.63724	1.18033
1546.70867	1.18353
1544.78011	1.18469
1542.85154	1.18060
1540.92298	1.17216
1538.99441	1.16893
1537.06585	1.17084
1535.13729	1.17062
1533.20872	1.16651
1531.28016	1.16338
1529.35159	1.16268
1527.42303	1.16115
1525.49446	1.15910
1523.56590	1.15816
1521.63733	1.15574
1519.70877	1.15400
1517.78021	1.15251
1515.85164	1.14760
1513.92308	1.14170
1511.99451	1.13636
1510.06595	1.13130
1508.13738	1.11912
1506.20882	1.09234
1504.28025	1.08014
1502.35169	1.07439
1500.42313	1.06633
1498.49456	1.05303
1496.56600	1.03480
1494.63743	1.02147
1492.70887	1.01405
1490.78030	1.00383
1488.85174	0.98614
1486.92317	0.97219
1484.99461	0.96491
1483.06605	0.95982
1481.13748	0.95535
1479.20892	0.95315
1477.28035	0.95455
1475.35179	0.95922
1473.42322	0.96633
1471.49466	0.97345
1469.56610	0.97950
1467.63753	0.98511
1465.70897	0.99003
1463.78040	0.99408
1461.85184	0.99785
1459.92327	1.00167
1457.99471	1.00526
1456.06614	1.00758
1454.13758	1.00927
1452.20902	1.01054
1450.28045	1.01098
1448.35189	1.01019
1446.42332	1.00865
1444.49476	1.00729
1442.56619	1.00563
1440.63763	1.00366
1438.70906	1.00059
1436.78050	0.99295
1434.85194	0.98426
1432.92337	0.97957
1430.99481	0.97508
1429.06624	0.96964
1427.13768	0.96622
1425.20911	0.96483
1423.28055	0.96481
1421.35198	0.96640
1419.42342	0.96785
1417.49486	0.96805
1415.56629	0.96917
1413.63773	0.97101
1411.70916	0.97249
1409.78060	0.97374
1407.85203	0.97531
1405.92347	0.97710
1403.99490	0.97897
1402.06634	0.98112
1400.13778	0.98326
1398.20921	0.98477
1396.28065	0.98530
1394.35208	0.98470
1392.42352	0.98482
1390.49495	0.98695
1388.56639	0.99050
1386.63782	0.99491
1384.70926	0.99977
1382.78070	1.00454
1380.85213	1.00803
1378.92357	1.00904
1376.99500	1.00733
1375.06644	1.00203
1373.13787	0.99353
1371.20931	0.98486
1369.28074	0.97531
1367.35218	0.96463
1365.42362	0.95484
1363.49505	0.94424
1361.56649	0.93316
1359.63792	0.92612
1357.70936	0.92233
1355.78079	0.91943
1353.85223	0.91700
1351.92366	0.91517
1349.99510	0.91381
1348.06654	0.91313
1346.13797	0.91321
1344.20941	0.91368
1342.28084	0.91441
1340.35228	0.91508
1338.42371	0.91544
1336.49515	0.91662
1334.56659	0.91927
1332.63802	0.92278
1330.70946	0.92630
1328.78089	0.92896
1326.85233	0.93051
1324.92376	0.93139
1322.99520	0.93194
1321.06663	0.93220
1319.13807	0.93224
1317.20951	0.93250
1315.28094	0.93303
1313.35238	0.93338
1311.42381	0.93329
1309.49525	0.93274
1307.56668	0.93178
1305.63812	0.93046
1303.70955	0.92885
1301.78099	0.92698
1299.85243	0.92493
1297.92386	0.92268
1295.99530	0.92022
1294.06673	0.91778
1292.13817	0.91581
1290.20960	0.91465
1288.28104	0.91422
1286.35247	0.91418
1284.42391	0.91415
1282.49535	0.91402
1280.56678	0.91406
1278.63822	0.91430
1276.70965	0.91492
1274.78109	0.91645
1272.85252	0.91874
1270.92396	0.92121
1268.99539	0.92406
1267.06683	0.92713
1265.13827	0.92963
1263.20970	0.93139
1261.28114	0.93257
1259.35257	0.93313
1257.42401	0.93344
1255.49544	0.93412
1253.56688	0.93524
1251.63831	0.93655
1249.70975	0.93778
1247.78119	0.93888
1245.85262	0.93991
1243.92406	0.94059
1241.99549	0.94069
1240.06693	0.94040
1238.13836	0.93958
1236.20980	0.93793
1234.28123	0.93557
1232.35267	0.93271
1230.42411	0.92943
1228.49554	0.92549
1226.56698	0.92053
1224.63841	0.91505
1222.70985	0.90981
1220.78128	0.90473
1218.85272	0.89969
1216.92415	0.89530
1214.99559	0.89229
1213.06703	0.89082
1211.13846	0.89077
1209.20990	0.89164
1207.28133	0.89216
1205.35277	0.89111
1203.42420	0.88813
1201.49564	0.88350
1199.56708	0.87790
1197.63851	0.87204
1195.70995	0.86664
1193.78138	0.86220
1191.85282	0.85875
1189.92425	0.85622
1187.99569	0.85486
1186.06712	0.85484
1184.13856	0.85568
1182.21000	0.85715
1180.28143	0.85993
1178.35287	0.86415
1176.42430	0.86911
1174.49574	0.87480
1172.56717	0.88137
1170.63861	0.88824
1168.71004	0.89530
1166.78148	0.90303
1164.85292	0.91165
1162.92435	0.92059
1160.99579	0.92794
1159.06722	0.93176
1157.13866	0.93153
1155.21009	0.92737
1153.28153	0.91985
1151.35296	0.91028
1149.42440	0.90022
1147.49584	0.89075
1145.56727	0.88280
1143.63871	0.87744
1141.71014	0.87465
1139.78158	0.87365
1137.85301	0.87432
1135.92445	0.87673
1133.99588	0.88068
1132.06732	0.88618
1130.13876	0.89330
1128.21019	0.90171
1126.28163	0.91069
1124.35306	0.91917
1122.42450	0.92623
1120.49593	0.93229
1118.56737	0.93785
1116.63880	0.94173
1114.71024	0.94277
1112.78168	0.94129
1110.85311	0.93856
1108.92455	0.93583
1106.99598	0.93321
1105.06742	0.93033
1103.13885	0.92767
1101.21029	0.92593
1099.28172	0.92554
1097.35316	0.92687
1095.42460	0.93021
1093.49603	0.93558
1091.56747	0.94211
1089.63890	0.94930
1087.71034	0.95790
1085.78177	0.96785
1083.85321	0.97849
1081.92464	0.98913
1079.99608	0.99812
1078.06752	1.00425
1076.13895	1.00763
1074.21039	1.00818
1072.28182	1.00560
1070.35326	1.00020
1068.42469	0.99292
1066.49613	0.98530
1064.56756	0.97819
1062.63900	0.97088
1060.71044	0.96298
1058.78187	0.95549
1056.85331	0.94880
1054.92474	0.94266
1052.99618	0.93741
1051.06761	0.93354
1049.13905	0.93108
1047.21049	0.93014
1045.28192	0.93146
1043.35336	0.93544
1041.42479	0.94093
1039.49623	0.94628
1037.56766	0.95040
1035.63910	0.95303
1033.71053	0.95475
1031.78197	0.95575
1029.85341	0.95538
1027.92484	0.95330
1025.99628	0.94979
1024.06771	0.94483
1022.13915	0.93885
1020.21058	0.93311
1018.28202	0.92793
1016.35345	0.92251
1014.42489	0.91587
1012.49633	0.90727
1010.56776	0.89697
1008.63920	0.88563
1006.71063	0.87403
1004.78207	0.86331
1002.85350	0.85416
1000.92494	0.84660
998.99637	0.84049
997.06781	0.83542
995.13925	0.83092
993.21068	0.82685
991.28212	0.82283
989.35355	0.81814
987.42499	0.81293
985.49642	0.80791
983.56786	0.80331
981.63929	0.79939
979.71073	0.79648
977.78217	0.79428
975.85360	0.79193
973.92504	0.78842
971.99647	0.78353
970.06791	0.77789
968.13934	0.77205
966.21078	0.76659
964.28221	0.76237
962.35365	0.76036
960.42509	0.76170
958.49652	0.76652
956.56796	0.77260
954.63939	0.77653
952.71083	0.77627
950.78226	0.77190
948.85370	0.76514
946.92513	0.75830
944.99657	0.75244
943.06801	0.74731
941.13944	0.74278
939.21088	0.73884
937.28231	0.73521
935.35375	0.73196
933.42518	0.72934
931.49662	0.72708
929.56805	0.72512
927.63949	0.72417
925.71093	0.72456
923.78236	0.72550
921.85380	0.72641
919.92523	0.72713
917.99667	0.72718
916.06810	0.72647
914.13954	0.72555
912.21098	0.72485
910.28241	0.72472
908.35385	0.72532
906.42528	0.72619
904.49672	0.72706
902.56815	0.72805
900.63959	0.72889
898.71102	0.72917
896.78246	0.72879
894.85390	0.72750
892.92533	0.72534
890.99677	0.72308
889.06820	0.72101
887.13964	0.71862
885.21107	0.71585
883.28251	0.71353
881.35394	0.71222
879.42538	0.71143
877.49682	0.71069
875.56825	0.71016
873.63969	0.70974
871.71112	0.70928
869.78256	0.70900
867.85399	0.70903
865.92543	0.70940
863.99686	0.71023
862.06830	0.71156
860.13974	0.71333
858.21117	0.71536
856.28261	0.71740
854.35404	0.71926
852.42548	0.72084
850.49691	0.72221
848.56835	0.72323
846.63978	0.72347
844.71122	0.72325
842.78266	0.72350
840.85409	0.72436
838.92553	0.72520
836.99696	0.72571
835.06840	0.72602
833.13983	0.72637
831.21127	0.72699
829.28270	0.72808
827.35414	0.72956
825.42558	0.73086
823.49701	0.73156
821.56845	0.73214
819.63988	0.73329
817.71132	0.73505
815.78275	0.73688
813.85419	0.73789
811.92562	0.73795
809.99706	0.73794
808.06850	0.73849
806.13993	0.73931
804.21137	0.73981
802.28280	0.73972
800.35424	0.73913
798.42567	0.73881
796.49711	0.73937
794.56854	0.74028
792.63998	0.74127
790.71142	0.74282
788.78285	0.74470
786.85429	0.74595
784.92572	0.74659
782.99716	0.74761
781.06859	0.74906
779.14003	0.75012
777.21147	0.75069
775.28290	0.75125
773.35434	0.75200
771.42577	0.75279
769.49721	0.75347
767.56864	0.75404
765.64008	0.75455
763.71151	0.75501
761.78295	0.75567
759.85439	0.75681
757.92582	0.75824
755.99726	0.76014
754.06869	0.76308
752.14013	0.76665
750.21156	0.76974
748.28300	0.77203
746.35443	0.77394
744.42587	0.77567
742.49731	0.77702
740.56874	0.77768
738.64018	0.77748
736.71161	0.77679
734.78305	0.77620
732.85448	0.77582
730.92592	0.77558
728.99735	0.77578
727.06879	0.77653
725.14023	0.77748
723.21166	0.77877
721.28310	0.78067
719.35453	0.78227
717.42597	0.78297
715.49740	0.78378
713.56884	0.78578
711.64027	0.78855
709.71171	0.79099
707.78315	0.79306
705.85458	0.79515
703.92602	0.79723
701.99745	0.79907
700.06889	0.79998
698.14032	0.79947
696.21176	0.79829
694.28319	0.79731
692.35463	0.79616
690.42607	0.79473
688.49750	0.79353
686.56894	0.79228
684.64037	0.79076
682.71181	0.78962
680.78324	0.78912
678.85468	0.78908
676.92611	0.78904
674.99755	0.78858
673.06899	0.78859
671.14042	0.78926
669.21186	0.78825
667.28329	0.78619
665.35473	0.78722
663.42616	0.78942
661.49760	0.79100
659.56903	0.79087
657.64047	0.78973
655.71191	0.78845
653.78334	0.78667
651.85478	0.78509
649.92621	0.78448
647.99765	0.78457
646.06908	0.78575
644.14052	0.78852
642.21195	0.79188
640.28339	0.79403
638.35483	0.79487
636.42626	0.79581
634.49770	0.79785
632.56913	0.80088
630.64057	0.80362
628.71200	0.80492
626.78344	0.80510
624.85488	0.80526
622.92631	0.80611
620.99775	0.80668
619.06918	0.80521
617.14062	0.80220
615.21205	0.80003
613.28349	0.79941
611.35492	0.79888
609.42636	0.79698
607.49780	0.79400
605.56923	0.79140
603.64067	0.79019
601.71210	0.79094
599.78354	0.79344
