3997.91406	1.02268
3995.98550	1.02259
3994.05693	1.02312
3992.12837	1.02308
3990.19980	1.02170
3988.27124	1.01948
3986.34268	1.01787
3984.41411	1.01737
3982.48555	1.01699
3980.55698	1.01680
3978.62842	1.01731
3976.69985	1.01778
3974.77129	1.01784
3972.84272	1.01720
3970.91416	1.01514
3968.98560	1.01293
3967.05703	1.01284
3965.12847	1.01438
3963.19990	1.01506
3961.27134	1.01404
3959.34277	1.01282
3957.41421	1.01248
3955.48564	1.01297
3953.55708	1.01300
3951.62852	1.01189
3949.69995	1.01111
3947.77139	1.01035
3945.84282	1.00857
3943.91426	1.00692
3941.98569	1.00549
3940.05713	1.00367
3938.12856	1.00277
3936.20000	1.00437
3934.27144	1.00753
3932.34287	1.00961
3930.41431	1.00942
3928.48574	1.00906
3926.55718	1.01029
3924.62861	1.01132
3922.70005	1.01009
3920.77148	1.00852
3918.84292	1.00771
3916.91436	1.00639
3914.98579	1.00448
3913.05723	1.00315
3911.12866	1.00270
3909.20010	1.00230
3907.27153	1.00104
3905.34297	0.99974
3903.41440	0.99958
3901.48584	0.99892
3899.55728	0.99733
3897.62871	0.99612
3895.70015	0.99606
3893.77158	0.99632
3891.84302	0.99474
3889.91445	0.99319
3887.98589	0.99441
3886.05733	0.99619
3884.12876	0.99634
3882.20020	0.99653
3880.27163	0.99575
3878.34307	0.99292
3876.41450	0.99120
3874.48594	0.99153
3872.55737	0.99253
3870.62881	0.99244
3868.70025	0.99103
3866.77168	0.98985
3864.84312	0.98900
3862.91455	0.98725
3860.98599	0.98517
3859.05742	0.98424
3857.12886	0.98395
3855.20029	0.98300
3853.27173	0.98328
3851.34317	0.98494
3849.41460	0.98460
3847.48604	0.98363
3845.55747	0.98397
3843.62891	0.98587
3841.70034	0.98640
3839.77178	0.98354
3837.84321	0.97999
3835.91465	0.97915
3833.98609	0.98070
3832.05752	0.98289
3830.12896	0.98289
3828.20039	0.97981
3826.27183	0.97597
3824.34326	0.97427
3822.41470	0.97501
3820.48613	0.97680
3818.55757	0.97731
3816.62901	0.97590
3814.70044	0.97385
3812.77188	0.97317
3810.84331	0.97334
3808.91475	0.97300
3806.98618	0.97191
3805.05762	0.97176
3803.12905	0.97300
3801.20049	0.97404
3799.27193	0.97298
3797.34336	0.97111
3795.41480	0.96982
3793.48623	0.96931
3791.55767	0.96882
3789.62910	0.96757
3787.70054	0.96597
3785.77197	0.96510
3783.84341	0.96518
3781.91485	0.96546
3779.98628	0.96457
3778.05772	0.96219
3776.12915	0.96067
3774.20059	0.96080
3772.27202	0.96165
3770.34346	0.96250
3768.41489	0.96267
3766.48633	0.96192
3764.55777	0.96095
3762.62920	0.96063
3760.70064	0.96097
3758.77207	0.96074
3756.84351	0.95939
3754.91494	0.95850
3752.98638	0.95914
3751.05781	0.96004
3749.12925	0.95791
3747.20069	0.95556
3745.27212	0.95439
3743.34356	0.95413
3741.41499	0.95559
3739.48643	0.95844
3737.55786	0.96097
3735.62930	0.96059
3733.70074	0.95718
3731.77217	0.95370
3729.84361	0.95227
3727.91504	0.95295
3725.98648	0.95396
3724.05791	0.95486
3722.12935	0.95619
3720.20078	0.95574
3718.27222	0.95345
3716.34366	0.95212
3714.41509	0.95210
3712.48653	0.95160
3710.55796	0.95082
3708.62940	0.95066
3706.70083	0.95014
3704.77227	0.94970
3702.84370	0.94948
3700.91514	0.94916
3698.98658	0.94884
3697.05801	0.94868
3695.12945	0.94887
3693.20088	0.94988
3691.27232	0.95208
3689.34375	0.95411
3687.41519	0.95369
3685.48662	0.95284
3683.55806	0.95268
3681.62950	0.95303
3679.70093	0.95397
3677.77237	0.95493
3675.84380	0.95502
3673.91524	0.95537
3671.98667	0.95647
3670.05811	0.95856
3668.12954	0.96075
3666.20098	0.96226
3664.27242	0.96358
3662.34385	0.96456
3660.41529	0.96577
3658.48672	0.96798
3656.55816	0.97130
3654.62959	0.97497
3652.70103	0.97849
3650.77246	0.98297
3648.84390	0.98923
3646.91534	0.99293
3644.98677	0.99431
3643.05821	0.99590
3641.12964	0.99823
3639.20108	1.00114
3637.27251	1.00427
3635.34395	1.00750
3633.41538	1.01083
3631.48682	1.01343
3629.55826	1.01688
3627.62969	1.02216
3625.70113	1.02536
3623.77256	1.02752
3621.84400	1.02998
3619.91543	1.03332
3617.98687	1.03712
3616.05830	1.04026
3614.12974	1.04341
3612.20118	1.04683
3610.27261	1.05045
3608.34405	1.05494
3606.41548	1.05911
3604.48692	1.06172
3602.55835	1.06424
3600.62979	1.06826
3598.70123	1.07287
3596.77266	1.07613
3594.84410	1.07937
3592.91553	1.08349
3590.98697	1.08632
3589.05840	1.08799
3587.12984	1.09164
3585.20127	1.09707
3583.27271	1.10094
3581.34415	1.10328
3579.41558	1.10574
3577.48702	1.10957
3575.55845	1.11424
3573.62989	1.11800
3571.70132	1.12037
3569.77276	1.12254
3567.84419	1.12739
3565.91563	1.13473
3563.98707	1.13859
3562.05850	1.14021
3560.12994	1.14265
3558.20137	1.14616
3556.27281	1.14968
3554.34424	1.15404
3552.41568	1.16044
3550.48711	1.16685
3548.55855	1.17160
3546.62999	1.17418
3544.70142	1.17599
3542.77286	1.18092
3540.84429	1.18823
3538.91573	1.19441
3536.98716	1.19742
3535.05860	1.19826
3533.13003	1.20044
3531.20147	1.20578
3529.27291	1.21279
3527.34434	1.21887
3525.41578	1.22261
3523.48721	1.22510
3521.55865	1.22920
3519.63008	1.23490
3517.70152	1.24027
3515.77295	1.24550
3513.84439	1.25076
3511.91583	1.25506
3509.98726	1.26045
3508.05870	1.26919
3506.13013	1.27830
3504.20157	1.28448
3502.27300	1.28784
3500.34444	1.29209
3498.41587	1.29951
3496.48731	1.30845
3494.55875	1.31526
3492.63018	1.31916
3490.70162	1.32209
3488.77305	1.32468
3486.84449	1.32764
3484.91592	1.33119
3482.98736	1.33441
3481.05879	1.33687
3479.13023	1.33924
3477.20167	1.34258
3475.27310	1.34549
3473.34454	1.34767
3471.41597	1.35063
3469.48741	1.35343
3467.55884	1.35627
3465.63028	1.36043
3463.70171	1.36469
3461.77315	1.36832
3459.84459	1.37093
3457.91602	1.37135
3455.98746	1.37223
3454.05889	1.37596
3452.13033	1.37937
3450.20176	1.38042
3448.27320	1.38090
3446.34464	1.38194
3444.41607	1.38294
3442.48751	1.38435
3440.55894	1.38702
3438.63038	1.39021
3436.70181	1.39208
3434.77325	1.39073
3432.84468	1.38841
3430.91612	1.38858
3428.98756	1.39005
3427.05899	1.39135
3425.13043	1.39271
3423.20186	1.39426
3421.27330	1.39603
3419.34473	1.39713
3417.41617	1.39707
3415.48760	1.39589
3413.55904	1.39294
3411.63048	1.39066
3409.70191	1.39238
3407.77335	1.39440
3405.84478	1.39252
3403.91622	1.38985
3401.98765	1.38927
3400.05909	1.38901
3398.13052	1.38877
3396.20196	1.39023
3394.27340	1.39213
3392.34483	1.39310
3390.41627	1.39353
3388.48770	1.39316
3386.55914	1.39243
3384.63057	1.39310
3382.70201	1.39601
3380.77344	1.39817
3378.84488	1.39651
3376.91632	1.39431
3374.98775	1.39532
3373.05919	1.39808
3371.13062	1.40022
3369.20206	1.40051
3367.27349	1.39937
3365.34493	1.40000
3363.41636	1.40317
3361.48780	1.40641
3359.55924	1.40948
3357.63067	1.41231
3355.70211	1.41322
3353.77354	1.41277
3351.84498	1.41360
3349.91641	1.41610
3347.98785	1.41723
3346.05928	1.41636
3344.13072	1.41651
3342.20216	1.41860
3340.27359	1.42134
3338.34503	1.42328
3336.41646	1.42386
3334.48790	1.42434
3332.55933	1.42649
3330.63077	1.43045
3328.70220	1.43534
3326.77364	1.43972
3324.84508	1.44181
3322.91651	1.44205
3320.98795	1.44245
3319.05938	1.44408
3317.13082	1.44811
3315.20225	1.45546
3313.27369	1.46261
3311.34513	1.46406
3309.41656	1.46203
3307.48800	1.46201
3305.55943	1.46445
3303.63087	1.46796
3301.70230	1.47127
3299.77374	1.47456
3297.84517	1.47859
3295.91661	1.48239
3293.98805	1.48417
3292.05948	1.48219
3290.13092	1.47929
3288.20235	1.48017
3286.27379	1.48297
3284.34522	1.48382
3282.41666	1.48367
3280.48809	1.48411
3278.55953	1.48328
3276.63097	1.48015
3274.70240	1.47773
3272.77384	1.47832
3270.84527	1.47879
3268.91671	1.47553
3266.98814	1.46909
3265.05958	1.46165
3263.13101	1.45583
3261.20245	1.45236
3259.27389	1.44833
3257.34532	1.44277
3255.41676	1.43742
3253.48819	1.43291
3251.55963	1.42889
3249.63106	1.42367
3247.70250	1.41548
3245.77393	1.40575
3243.84537	1.39721
3241.91681	1.39123
3239.98824	1.38782
3238.05968	1.38482
3236.13111	1.38030
3234.20255	1.37471
3232.27398	1.36862
3230.34542	1.36241
3228.41685	1.35711
3226.48829	1.35367
3224.55973	1.35081
3222.63116	1.34665
3220.70260	1.34231
3218.77403	1.33894
3216.84547	1.33538
3214.91690	1.33077
3212.98834	1.32623
3211.05977	1.32198
3209.13121	1.31684
3207.20265	1.31171
3205.27408	1.30776
3203.34552	1.30460
3201.41695	1.30211
3199.48839	1.29900
3197.55982	1.29391
3195.63126	1.28854
3193.70269	1.28441
3191.77413	1.28049
3189.84557	1.27566
3187.91700	1.27008
3185.98844	1.26476
3184.05987	1.26044
3182.13131	1.25712
3180.20274	1.25386
3178.27418	1.24919
3176.34562	1.24410
3174.41705	1.24003
3172.48849	1.23613
3170.55992	1.23197
3168.63136	1.22814
3166.70279	1.22472
3164.77423	1.22165
3162.84566	1.21881
3160.91710	1.21607
3158.98854	1.21357
3157.05997	1.21062
3155.13141	1.20682
3153.20284	1.20344
3151.27428	1.20076
3149.34571	1.19819
3147.41715	1.19611
3145.48858	1.19473
3143.56002	1.19379
3141.63146	1.19265
3139.70289	1.19076
3137.77433	1.18849
3135.84576	1.18660
3133.91720	1.18549
3131.98863	1.18475
3130.06007	1.18420
3128.13150	1.18389
3126.20294	1.18333
3124.27438	1.18239
3122.34581	1.18163
3120.41725	1.18194
3118.48868	1.18386
3116.56012	1.18575
3114.63155	1.18569
3112.70299	1.18461
3110.77442	1.18383
3108.84586	1.18376
3106.91730	1.18403
3104.98873	1.18315
3103.06017	1.18115
3101.13160	1.17958
3099.20304	1.17900
3097.27447	1.17869
3095.34591	1.17778
3093.41734	1.17626
3091.48878	1.17429
3089.56022	1.17223
3087.63165	1.17060
3085.70309	1.16923
3083.77452	1.16788
3081.84596	1.16631
3079.91739	1.16424
3077.98883	1.16176
3076.06026	1.15886
3074.13170	1.15559
3072.20314	1.15287
3070.27457	1.15098
3068.34601	1.14826
3066.41744	1.14414
3064.48888	1.14042
3062.56031	1.13777
3060.63175	1.13486
3058.70318	1.13128
3056.77462	1.12810
3054.84606	1.12516
3052.91749	1.12165
3050.98893	1.11819
3049.06036	1.11505
3047.13180	1.11184
3045.20323	1.10884
3043.27467	1.10603
3041.34610	1.10310
3039.41754	1.10025
3037.48898	1.09761
3035.56041	1.09525
3033.63185	1.09336
3031.70328	1.09150
3029.77472	1.08852
3027.84615	1.08453
3025.91759	1.08116
3023.98903	1.07879
3022.06046	1.07628
3020.13190	1.07324
3018.20333	1.07024
3016.27477	1.06778
3014.34620	1.06610
3012.41764	1.06533
3010.48907	1.06453
3008.56051	1.06216
3006.63195	1.05931
3004.70338	1.05833
3002.77482	1.05882
3000.84625	1.05883
2998.91769	1.05830
2996.98912	1.05916
2995.06056	1.06196
2993.13199	1.06478
2991.20343	1.06667
2989.27487	1.06890
2987.34630	1.07250
2985.41774	1.07711
2983.48917	1.08210
2981.56061	1.08708
2979.63204	1.09193
2977.70348	1.09701
2975.77491	1.10214
2973.84635	1.10720
2971.91779	1.11240
2969.98922	1.11731
2968.06066	1.12213
2966.13209	1.12767
2964.20353	1.13347
2962.27496	1.13787
2960.34640	1.13944
2958.41783	1.13791
2956.48927	1.13425
2954.56071	1.12968
2952.63214	1.12459
2950.70358	1.11990
2948.77501	1.11729
2946.84645	1.11737
2944.91788	1.12003
2942.98932	1.12485
2941.06075	1.13113
2939.13219	1.13855
2937.20363	1.14701
2935.27506	1.15593
2933.34650	1.16466
2931.41793	1.17300
2929.48937	1.18055
2927.56080	1.18673
2925.63224	1.19193
2923.70367	1.19725
2921.77511	1.20163
2919.84655	1.20168
2917.91798	1.19597
2915.98942	1.18494
2914.06085	1.16902
2912.13229	1.15086
2910.20372	1.13402
2908.27516	1.12002
2906.34659	1.10937
2904.41803	1.10185
2902.48947	1.09634
2900.56090	1.09234
2898.63234	1.08993
2896.70377	1.08836
2894.77521	1.08582
2892.84664	1.08148
2890.91808	1.07674
2888.98952	1.07325
2887.06095	1.07127
2885.13239	1.06957
2883.20382	1.06729
2881.27526	1.06556
2879.34669	1.06526
2877.41813	1.06544
2875.48956	1.06485
2873.56100	1.06333
2871.63244	1.06101
2869.70387	1.05669
2867.77531	1.04999
2865.84674	1.04335
2863.91818	1.03932
2861.98961	1.03847
2860.06105	1.04072
2858.13248	1.04563
2856.20392	1.05201
2854.27536	1.05944
2852.34679	1.06712
2850.41823	1.06981
2848.48966	1.06080
2846.56110	1.04075
2844.63253	1.01777
2842.70397	0.99894
2840.77540	0.98600
2838.84684	0.97702
2836.91828	0.96973
2834.98971	0.96354
2833.06115	0.95870
2831.13258	0.95486
2829.20402	0.95138
2827.27545	0.94829
2825.34689	0.94579
2823.41832	0.94356
2821.48976	0.94097
2819.56120	0.93801
2817.63263	0.93513
2815.70407	0.93236
2813.77550	0.92957
2811.84694	0.92678
2809.91837	0.92398
2807.98981	0.92114
2806.06124	0.91843
2804.13268	0.91629
2802.20412	0.91459
2800.27555	0.91253
2798.34699	0.90983
2796.41842	0.90709
2794.48986	0.90460
2792.56129	0.90209
2790.63273	0.89955
2788.70416	0.89733
2786.77560	0.89539
2784.84704	0.89329
2782.91847	0.89091
2780.98991	0.88853
2779.06134	0.88623
2777.13278	0.88416
2775.20421	0.88259
2773.27565	0.88119
2771.34708	0.87945
2769.41852	0.87764
2767.48996	0.87588
2765.56139	0.87396
2763.63283	0.87241
2761.70426	0.87176
2759.77570	0.87155
2757.84713	0.87115
2755.91857	0.87036
2753.99001	0.86924
2752.06144	0.86819
2750.13288	0.86746
2748.20431	0.86643
2746.27575	0.86482
2744.34718	0.86324
2742.41862	0.86200
2740.49005	0.86086
2738.56149	0.85950
2736.63293	0.85771
2734.70436	0.85565
2732.77580	0.85335
2730.84723	0.85072
2728.91867	0.84840
2726.99010	0.84694
2725.06154	0.84604
2723.13297	0.84530
2721.20441	0.84436
2719.27585	0.84298
2717.34728	0.84139
2715.41872	0.84002
2713.49015	0.83907
2711.56159	0.83848
2709.63302	0.83816
2707.70446	0.83777
2705.77589	0.83708
2703.84733	0.83623
2701.91877	0.83509
2699.99020	0.83358
2698.06164	0.83206
2696.13307	0.83067
2694.20451	0.82932
2692.27594	0.82810
2690.34738	0.82727
2688.41881	0.82655
2686.49025	0.82536
2684.56169	0.82391
2682.63312	0.82266
2680.70456	0.82157
2678.77599	0.82075
2676.84743	0.82022
2674.91886	0.81964
2672.99030	0.81878
2671.06173	0.81769
2669.13317	0.81654
2667.20461	0.81552
2665.27604	0.81465
2663.34748	0.81370
2661.41891	0.81254
2659.49035	0.81139
2657.56178	0.81035
2655.63322	0.80931
2653.70465	0.80802
2651.77609	0.80644
2649.84753	0.80503
2647.91896	0.80421
2645.99040	0.80343
2644.06183	0.80236
2642.13327	0.80166
2640.20470	0.80124
2638.27614	0.80026
2636.34757	0.79891
2634.41901	0.79792
2632.49045	0.79752
2630.56188	0.79736
2628.63332	0.79722
2626.70475	0.79733
2624.77619	0.79741
2622.84762	0.79696
2620.91906	0.79632
2618.99049	0.79565
2617.06193	0.79455
2615.13337	0.79323
2613.20480	0.79208
2611.27624	0.79103
2609.34767	0.78981
2607.41911	0.78847
2605.49054	0.78734
2603.56198	0.78616
2601.63342	0.78471
2599.70485	0.78337
2597.77629	0.78236
2595.84772	0.78162
2593.91916	0.78088
2591.99059	0.78000
2590.06203	0.77911
2588.13346	0.77835
2586.20490	0.77768
2584.27634	0.77701
2582.34777	0.77625
2580.41921	0.77527
2578.49064	0.77428
2576.56208	0.77356
2574.63351	0.77293
2572.70495	0.77199
2570.77638	0.77053
2568.84782	0.76895
2566.91926	0.76773
2564.99069	0.76656
2563.06213	0.76521
2561.13356	0.76395
2559.20500	0.76275
2557.27643	0.76147
2555.34787	0.76022
2553.41930	0.75915
2551.49074	0.75846
2549.56218	0.75801
2547.63361	0.75753
2545.70505	0.75695
2543.77648	0.75623
2541.84792	0.75542
2539.91935	0.75470
2537.99079	0.75432
2536.06222	0.75418
2534.13366	0.75388
2532.20510	0.75333
2530.27653	0.75261
2528.34797	0.75173
2526.41940	0.75083
2524.49084	0.75000
2522.56227	0.74912
2520.63371	0.74813
2518.70514	0.74716
2516.77658	0.74640
2514.84802	0.74585
2512.91945	0.74531
2510.99089	0.74478
2509.06232	0.74421
2507.13376	0.74363
2505.20519	0.74310
2503.27663	0.74234
2501.34806	0.74134
2499.41950	0.74043
2497.49094	0.73951
2495.56237	0.73852
2493.63381	0.73779
2491.70524	0.73735
2489.77668	0.73680
2487.84811	0.73603
2485.91955	0.73508
2483.99098	0.73406
2482.06242	0.73334
2480.13386	0.73293
2478.20529	0.73233
2476.27673	0.73146
2474.34816	0.73075
2472.41960	0.73023
2470.49103	0.72968
2468.56247	0.72925
2466.63391	0.72887
2464.70534	0.72815
2462.77678	0.72706
2460.84821	0.72590
2458.91965	0.72480
2456.99108	0.72389
2455.06252	0.72316
2453.13395	0.72237
2451.20539	0.72151
2449.27683	0.72065
2447.34826	0.71966
2445.41970	0.71836
2443.49113	0.71686
2441.56257	0.71547
2439.63400	0.71433
2437.70544	0.71359
2435.77687	0.71301
2433.84831	0.71233
2431.91975	0.71180
2429.99118	0.71147
2428.06262	0.71106
2426.13405	0.71041
2424.20549	0.70964
2422.27692	0.70904
2420.34836	0.70861
2418.41979	0.70811
2416.49123	0.70749
2414.56267	0.70678
2412.63410	0.70595
2410.70554	0.70519
2408.77697	0.70442
2406.84841	0.70344
2404.91984	0.70244
2402.99128	0.70167
2401.06271	0.70114
2399.13415	0.70069
2397.20559	0.70009
2395.27702	0.69925
2393.34846	0.69827
2391.41989	0.69734
2389.49133	0.69673
2387.56276	0.69688
2385.63420	0.69798
2383.70563	0.69975
2381.77707	0.70199
2379.84851	0.70486
2377.91994	0.70837
2375.99138	0.71235
2374.06281	0.71653
2372.13425	0.72059
2370.20568	0.72462
2368.27712	0.72912
2366.34855	0.73441
2364.41999	0.73928
2362.49143	0.74115
2360.56286	0.73858
2358.63430	0.73327
2356.70573	0.72953
2354.77717	0.72731
2352.84860	0.72298
2350.92004	0.71777
2348.99147	0.71533
2347.06291	0.71681
2345.13435	0.72095
2343.20578	0.72407
2341.27722	0.72475
2339.34865	0.72404
2337.42009	0.72209
2335.49152	0.72012
2333.56296	0.71951
2331.63440	0.71913
2329.70583	0.71751
2327.77727	0.71471
2325.84870	0.71107
2323.92014	0.70749
2321.99157	0.70480
2320.06301	0.70246
2318.13444	0.69968
2316.20588	0.69684
2314.27732	0.69490
2312.34875	0.69379
2310.42019	0.69238
2308.49162	0.69036
2306.56306	0.68830
2304.63449	0.68648
2302.70593	0.68501
2300.77736	0.68367
2298.84880	0.68220
2296.92024	0.68068
2294.99167	0.67927
2293.06311	0.67793
2291.13454	0.67663
2289.20598	0.67541
2287.27741	0.67422
2285.34885	0.67293
2283.42028	0.67184
2281.49172	0.67130
2279.56316	0.67123
2277.63459	0.67136
2275.70603	0.67147
2273.77746	0.67146
2271.84890	0.67134
2269.92033	0.67108
2267.99177	0.67077
2266.06320	0.67065
2264.13464	0.67062
2262.20608	0.67044
2260.27751	0.67007
2258.34895	0.66954
2256.42038	0.66887
2254.49182	0.66817
2252.56325	0.66746
2250.63469	0.66652
2248.70612	0.66535
2246.77756	0.66419
2244.84900	0.66321
2242.92043	0.66236
2240.99187	0.66144
2239.06330	0.66044
2237.13474	0.65956
2235.20617	0.65906
2233.27761	0.65889
2231.34904	0.65866
2229.42048	0.65816
2227.49192	0.65757
2225.56335	0.65728
2223.63479	0.65722
2221.70622	0.65701
2219.77766	0.65661
2217.84909	0.65619
2215.92053	0.65577
2213.99196	0.65511
2212.06340	0.65420
2210.13484	0.65338
2208.20627	0.65265
2206.27771	0.65174
2204.34914	0.65058
2202.42058	0.64943
2200.49201	0.64851
2198.56345	0.64770
2196.63488	0.64697
2194.70632	0.64649
2192.77776	0.64623
2190.84919	0.64601
2188.92063	0.64585
2186.99206	0.64568
2185.06350	0.64542
2183.13493	0.64528
2181.20637	0.64528
2179.27781	0.64527
2177.34924	0.64522
2175.42068	0.64503
2173.49211	0.64455
2171.56355	0.64398
2169.63498	0.64351
2167.70642	0.64301
2165.77785	0.64239
2163.84929	0.64178
2161.92073	0.64118
2159.99216	0.64057
2158.06360	0.64015
2156.13503	0.63993
2154.20647	0.63966
2152.27790	0.63938
2150.34934	0.63928
2148.42077	0.63930
2146.49221	0.63929
2144.56365	0.63919
2142.63508	0.63906
2140.70652	0.63905
2138.77795	0.63923
2136.84939	0.63953
2134.92082	0.63974
2132.99226	0.63969
2131.06369	0.63931
2129.13513	0.63870
2127.20657	0.63801
2125.27800	0.63742
2123.34944	0.63694
2121.42087	0.63626
2119.49231	0.63532
2117.56374	0.63444
2115.63518	0.63369
2113.70661	0.63290
2111.77805	0.63217
2109.84949	0.63163
2107.92092	0.63113
2105.99236	0.63064
2104.06379	0.63036
2102.13523	0.63029
2100.20666	0.63021
2098.27810	0.62998
2096.34953	0.62972
2094.42097	0.62956
2092.49241	0.62930
2090.56384	0.62884
2088.63528	0.62823
2086.70671	0.62745
2084.77815	0.62646
2082.84958	0.62531
2080.92102	0.62407
2078.99245	0.62270
2077.06389	0.62113
2075.13533	0.61940
2073.20676	0.61760
2071.27820	0.61586
2069.34963	0.61438
2067.42107	0.61315
2065.49250	0.61196
2063.56394	0.61080
2061.63537	0.60981
2059.70681	0.60899
2057.77825	0.60835
2055.84968	0.60792
2053.92112	0.60757
2051.99255	0.60724
2050.06399	0.60695
2048.13542	0.60658
2046.20686	0.60611
2044.27830	0.60567
2042.34973	0.60528
2040.42117	0.60474
2038.49260	0.60408
2036.56404	0.60340
2034.63547	0.60265
2032.70691	0.60177
2030.77834	0.60074
2028.84978	0.59959
2026.92122	0.59847
2024.99265	0.59737
2023.06409	0.59628
2021.13552	0.59552
2019.20696	0.59503
2017.27839	0.59443
2015.34983	0.59371
2013.42126	0.59312
2011.49270	0.59277
2009.56414	0.59267
2007.63557	0.59271
2005.70701	0.59272
2003.77844	0.59264
2001.84988	0.59252
1999.92131	0.59249
1997.99275	0.59250
1996.06418	0.59235
1994.13562	0.59214
1992.20706	0.59183
1990.27849	0.59138
1988.34993	0.59094
1986.42136	0.59040
1984.49280	0.58970
1982.56423	0.58907
1980.63567	0.58861
1978.70710	0.58811
1976.77854	0.58749
1974.84998	0.58693
1972.92141	0.58648
1970.99285	0.58621
1969.06428	0.58624
1967.13572	0.58615
1965.20715	0.58568
1963.27859	0.58527
1961.35002	0.58505
1959.42146	0.58471
1957.49290	0.58431
1955.56433	0.58396
1953.63577	0.58345
1951.70720	0.58271
1949.77864	0.58184
1947.85007	0.58084
1945.92151	0.57979
1943.99294	0.57867
1942.06438	0.57727
1940.13582	0.57573
1938.20725	0.57430
1936.27869	0.57303
1934.35012	0.57188
1932.42156	0.57066
1930.49299	0.56938
1928.56443	0.56821
1926.63586	0.56734
1924.70730	0.56681
1922.77874	0.56626
1920.85017	0.56550
1918.92161	0.56462
1916.99304	0.56349
1915.06448	0.56239
1913.13591	0.56169
1911.20735	0.56119
1909.27878	0.56046
1907.35022	0.55952
1905.42166	0.55863
1903.49309	0.55777
1901.56453	0.55692
1899.63596	0.55615
1897.70740	0.55546
1895.77883	0.55472
1893.85027	0.55383
1891.92171	0.55301
1889.99314	0.55222
1888.06458	0.55126
1886.13601	0.55046
1884.20745	0.54994
1882.27888	0.54957
1880.35032	0.54927
1878.42175	0.54896
1876.49319	0.54857
1874.56463	0.54824
1872.63606	0.54828
1870.70750	0.54876
1868.77893	0.54906
1866.85037	0.54850
1864.92180	0.54790
1862.99324	0.54780
1861.06467	0.54781
1859.13611	0.54757
1857.20755	0.54708
1855.27898	0.54657
1853.35042	0.54621
1851.42185	0.54594
1849.49329	0.54572
1847.56472	0.54555
1845.63616	0.54536
1843.70759	0.54474
1841.77903	0.54377
1839.85047	0.54305
1837.92190	0.54258
1835.99334	0.54223
1834.06477	0.54212
1832.13621	0.54248
1830.20764	0.54300
1828.27908	0.54301
1826.35051	0.54271
1824.42195	0.54241
1822.49339	0.54204
1820.56482	0.54177
1818.63626	0.54175
1816.70769	0.54184
1814.77913	0.54205
1812.85056	0.54249
1810.92200	0.54288
1808.99343	0.54281
1807.06487	0.54247
1805.13631	0.54234
1803.20774	0.54251
1801.27918	0.54273
1799.35061	0.54246
1797.42205	0.54191
1795.49348	0.54164
1793.56492	0.54151
1791.63635	0.54082
1789.70779	0.53964
1787.77923	0.53891
1785.85066	0.53866
1783.92210	0.53861
1781.99353	0.53872
1780.06497	0.53869
1778.13640	0.53856
1776.20784	0.53885
1774.27927	0.53988
1772.35071	0.54100
1770.42215	0.54106
1768.49358	0.54079
1766.56502	0.54092
1764.63645	0.54171
1762.70789	0.54338
1760.77932	0.54553
1758.85076	0.54751
1756.92220	0.55016
1754.99363	0.55339
1753.06507	0.55718
1751.13650	0.56320
1749.20794	0.57074
1747.27937	0.57661
1745.35081	0.58125
1743.42224	0.58570
1741.49368	0.58997
1739.56512	0.59371
1737.63655	0.59616
1735.70799	0.59807
1733.77942	0.60112
1731.85086	0.60340
1729.92229	0.60461
1727.99373	0.60616
1726.06516	0.60842
1724.13660	0.61198
1722.20804	0.61607
1720.27947	0.62030
1718.35091	0.62735
1716.42234	0.63887
1714.49378	0.64747
1712.56521	0.65386
1710.63665	0.66188
1708.70808	0.67252
1706.77952	0.68896
1704.85096	0.71100
1702.92239	0.73110
1700.99383	0.75900
1699.06526	0.80281
1697.13670	0.84356
1695.20813	0.88237
1693.27957	0.91091
1691.35100	0.93407
1689.42244	0.96277
1687.49388	0.99032
1685.56531	1.01912
1683.63675	1.06446
1681.70818	1.09780
1679.77962	1.11725
1677.85105	1.13596
1675.92249	1.15876
1673.99392	1.18328
1672.06536	1.20198
1670.13680	1.22151
1668.20823	1.24218
1666.27967	1.25443
1664.35110	1.26559
1662.42254	1.27991
1660.49397	1.29074
1658.56541	1.29691
1656.63684	1.30068
1654.70828	1.30344
1652.77972	1.30803
1650.85115	1.31134
1648.92259	1.31187
1646.99402	1.31129
1645.06546	1.31061
1643.13689	1.30917
1641.20833	1.30750
1639.27976	1.30554
1637.35120	1.30312
1635.42264	1.29890
1633.49407	1.29412
1631.56551	1.29026
1629.63694	1.28516
1627.70838	1.27780
1625.77981	1.26773
1623.85125	1.25149
1621.92269	1.23009
1619.99412	1.21193
1618.06556	1.18966
1616.13699	1.15394
1614.20843	1.12404
1612.27986	1.10142
1610.35130	1.07707
1608.42273	1.05171
1606.49417	1.03042
1604.56561	1.01436
1602.63704	1.00156
1600.70848	0.99159
1598.77991	0.98467
1596.85135	0.98000
1594.92278	0.97671
1592.99422	0.97502
1591.06565	0.97540
1589.13709	0.97791
1587.20853	0.98292
1585.27996	0.99064
1583.35140	1.00055
1581.42283	1.01119
1579.49427	1.02162
1577.56570	1.03536
1575.63714	1.05507
1573.70857	1.06846
1571.78001	1.07796
1569.85145	1.09387
1567.92288	1.11201
1565.99432	1.12543
1564.06575	1.13776
1562.13719	1.14770
1560.20862	1.15939
1558.28006	1.18265
1556.35149	1.19229
1554.42293	1.19383
1552.49437	1.19500
1550.56580	1.19564
1548.63724	1.19493
1546.70867	1.19343
1544.78011	1.19226
1542.85154	1.19199
1540.92298	1.18803
1538.99441	1.17757
1537.06585	1.17245
1535.13729	1.16915
1533.20872	1.16483
1531.28016	1.16081
1529.35159	1.15770
1527.42303	1.15443
1525.49446	1.15133
1523.56590	1.15035
1521.63733	1.15151
1519.70877	1.15254
1517.78021	1.14892
1515.85164	1.13849
1513.92308	1.12471
1511.99451	1.11012
1510.06595	1.09587
1508.13738	1.07416
1506.20882	1.03446
1504.28025	1.01225
1502.35169	0.99890
1500.42313	0.98427
1498.49456	0.96557
1496.56600	0.94229
1494.63743	0.92387
1492.70887	0.91226
1490.78030	0.89989
1488.85174	0.88287
1486.92317	0.86896
1484.99461	0.86008
1483.06605	0.85398
1481.13748	0.85015
1479.20892	0.84909
1477.28035	0.85151
1475.35179	0.85814
1473.42322	0.87050
1471.49466	0.88400
1469.56610	0.89206
1467.63753	0.89858
1465.70897	0.90685
1463.78040	0.91475
1461.85184	0.91910
1459.92327	0.92270
1457.99471	0.93062
1456.06614	0.93944
1454.13758	0.94091
1452.20902	0.94057
1450.28045	0.94054
1448.35189	0.94018
1446.42332	0.93815
1444.49476	0.93487
1442.56619	0.93099
1440.63763	0.92694
1438.70906	0.92244
1436.78050	0.91531
1434.85194	0.90670
1432.92337	0.89940
1430.99481	0.89147
1429.06624	0.88304
1427.13768	0.87708
1425.20911	0.87349
1423.28055	0.87128
1421.35198	0.87064
1419.42342	0.87152
1417.49486	0.87219
1415.56629	0.87156
1413.63773	0.87070
1411.70916	0.87013
1409.78060	0.87013
1407.85203	0.87104
1405.92347	0.87312
1403.99490	0.87586
1402.06634	0.87851
1400.13778	0.88148
1398.20921	0.88461
1396.28065	0.88731
1394.35208	0.88996
1392.42352	0.89306
1390.49495	0.89752
1388.56639	0.90541
1386.63782	0.91728
1384.70926	0.92909
1382.78070	0.93923
1380.85213	0.94726
1378.92357	0.95101
1376.99500	0.94935
1375.06644	0.94128
1373.13787	0.92764
1371.20931	0.91296
1369.28074	0.89691
1367.35218	0.87933
1365.42362	0.86357
1363.49505	0.84923
1361.56649	0.83639
1359.63792	0.82776
1357.70936	0.82243
1355.78079	0.81846
1353.85223	0.81523
1351.92366	0.81280
1349.99510	0.81115
1348.06654	0.81018
1346.13797	0.80974
1344.20941	0.80979
1342.28084	0.81045
1340.35228	0.81206
1338.42371	0.81452
1336.49515	0.81766
1334.56659	0.82224
1332.63802	0.82856
1330.70946	0.83593
1328.78089	0.84264
1326.85233	0.84725
1324.92376	0.84987
1322.99520	0.85162
1321.06663	0.85344
1319.13807	0.85551
1317.20951	0.85711
1315.28094	0.85782
1313.35238	0.85793
1311.42381	0.85736
1309.49525	0.85580
1307.56668	0.85313
1305.63812	0.84951
1303.70955	0.84534
1301.78099	0.84062
1299.85243	0.83512
1297.92386	0.82896
1295.99530	0.82295
1294.06673	0.81821
1292.13817	0.81536
1290.20960	0.81439
1288.28104	0.81473
1286.35247	0.81588
1284.42391	0.81743
1282.49535	0.81904
1280.56678	0.82122
1278.63822	0.82463
1276.70965	0.82901
1274.78109	0.83388
1272.85252	0.83950
1270.92396	0.84608
1268.99539	0.85312
1267.06683	0.85980
1265.13827	0.86502
1263.20970	0.86828
1261.28114	0.86976
1259.35257	0.86975
1257.42401	0.86911
1255.49544	0.86861
1253.56688	0.86841
1251.63831	0.86856
1249.70975	0.86902
1247.78119	0.86958
1245.85262	0.87020
1243.92406	0.87087
1241.99549	0.87158
1240.06693	0.87235
1238.13836	0.87306
1236.20980	0.87327
1234.28123	0.87245
1232.35267	0.87038
1230.42411	0.86709
1228.49554	0.86268
1226.56698	0.85732
1224.63841	0.85111
1222.70985	0.84423
1220.78128	0.83715
1218.85272	0.83040
1216.92415	0.82436
1214.99559	0.81966
1213.06703	0.81710
1211.13846	0.81669
1209.20990	0.81735
1207.28133	0.81763
1205.35277	0.81617
1203.42420	0.81210
1201.49564	0.80589
1199.56708	0.79921
1197.63851	0.79305
1195.70995	0.78738
1193.78138	0.78255
1191.85282	0.77929
1189.92425	0.77775
1187.99569	0.77760
1186.06712	0.77850
1184.13856	0.78004
1182.21000	0.78213
1180.28143	0.78547
1178.35287	0.79063
1176.42430	0.79720
1174.49574	0.80447
1172.56717	0.81214
1170.63861	0.82028
1168.71004	0.82981
1166.78148	0.84191
1164.85292	0.85604
1162.92435	0.86965
1160.99579	0.87998
1159.06722	0.88522
1157.13866	0.88467
1155.21009	0.87895
1153.28153	0.86948
1151.35296	0.85763
1149.42440	0.84475
1147.49584	0.83243
1145.56727	0.82206
1143.63871	0.81443
1141.71014	0.81000
1139.78158	0.80888
1137.85301	0.81047
1135.92445	0.81401
1133.99588	0.81938
1132.06732	0.82712
1130.13876	0.83762
1128.21019	0.85031
1126.28163	0.86376
1124.35306	0.87653
1122.42450	0.88778
1120.49593	0.89726
1118.56737	0.90467
1116.63880	0.90933
1114.71024	0.91053
1112.78168	0.90842
1110.85311	0.90430
1108.92455	0.90020
1106.99598	0.89709
1105.06742	0.89431
1103.13885	0.89189
1101.21029	0.89122
1099.28172	0.89266
1097.35316	0.89582
1095.42460	0.90152
1093.49603	0.91060
1091.56747	0.92201
1089.63890	0.93443
1087.71034	0.94816
1085.78177	0.96379
1083.85321	0.98027
1081.92464	0.99496
1079.99608	1.00594
1078.06752	1.01334
1076.13895	1.01697
1074.21039	1.01553
1072.28182	1.00955
1070.35326	1.00121
1068.42469	0.99191
1066.49613	0.98259
1064.56756	0.97387
1062.63900	0.96519
1060.71044	0.95557
1058.78187	0.94537
1056.85331	0.93583
1054.92474	0.92772
1052.99618	0.92118
1051.06761	0.91637
1049.13905	0.91346
1047.21049	0.91281
1045.28192	0.91511
1043.35336	0.92068
1041.42479	0.92867
1039.49623	0.93713
1037.56766	0.94431
1035.63910	0.94957
1033.71053	0.95296
1031.78197	0.95478
1029.85341	0.95508
1027.92484	0.95323
1025.99628	0.94900
1024.06771	0.94333
1022.13915	0.93742
1020.21058	0.93192
1018.28202	0.92699
1016.35345	0.92182
1014.42489	0.91473
1012.49633	0.90415
1010.56776	0.88967
1008.63920	0.87249
1006.71063	0.85485
1004.78207	0.83824
1002.85350	0.82326
1000.92494	0.81042
998.99637	0.80010
997.06781	0.79233
995.13925	0.78632
993.21068	0.78067
991.28212	0.77479
989.35355	0.76919
987.42499	0.76428
985.49642	0.76003
983.56786	0.75665
981.63929	0.75447
979.71073	0.75340
977.78217	0.75284
975.85360	0.75183
973.92504	0.74912
971.99647	0.74383
970.06791	0.73662
968.13934	0.72896
966.21078	0.72199
964.28221	0.71655
962.35365	0.71363
960.42509	0.71435
958.49652	0.71874
956.56796	0.72419
954.63939	0.72683
952.71083	0.72485
950.78226	0.71920
948.85370	0.71183
946.92513	0.70478
944.99657	0.69943
943.06801	0.69582
941.13944	0.69320
939.21088	0.69104
937.28231	0.68938
935.35375	0.68833
933.42518	0.68751
931.49662	0.68648
929.56805	0.68546
927.63949	0.68494
925.71093	0.68502
923.78236	0.68529
921.85380	0.68519
919.92523	0.68443
917.99667	0.68324
916.06810	0.68212
914.13954	0.68143
912.21098	0.68147
910.28241	0.68246
908.35385	0.68457
906.42528	0.68801
904.49672	0.69271
902.56815	0.69823
900.63959	0.70410
898.71102	0.70979
896.78246	0.71484
894.85390	0.71913
892.92533	0.72279
890.99677	0.72573
889.06820	0.72781
887.13964	0.72905
885.21107	0.72962
883.28251	0.72973
881.35394	0.72953
879.42538	0.72886
877.49682	0.72749
875.56825	0.72557
873.63969	0.72356
871.71112	0.72171
869.78256	0.71967
867.85399	0.71745
865.92543	0.71620
863.99686	0.71683
862.06830	0.71894
860.13974	0.72189
858.21117	0.72551
856.28261	0.72982
854.35404	0.73466
852.42548	0.73975
850.49691	0.74480
848.56835	0.74927
846.63978	0.75230
844.71122	0.75374
842.78266	0.75431
840.85409	0.75411
838.92553	0.75298
836.99696	0.75070
835.06840	0.74720
833.13983	0.74351
831.21127	0.74035
829.28270	0.73721
827.35414	0.73388
825.42558	0.73093
823.49701	0.72894
821.56845	0.72786
819.63988	0.72740
817.71132	0.72763
815.78275	0.72900
813.85419	0.73159
811.92562	0.73487
809.99706	0.73792
808.06850	0.74015
806.13993	0.74151
804.21137	0.74215
802.28280	0.74199
800.35424	0.74094
798.42567	0.73905
796.49711	0.73619
794.56854	0.73243
792.63998	0.72846
790.71142	0.72447
788.78285	0.72047
786.85429	0.71742
784.92572	0.71613
782.99716	0.71615
781.06859	0.71677
779.14003	0.71820
777.21147	0.72106
775.28290	0.72554
773.35434	0.73151
771.42577	0.73853
769.49721	0.74570
767.56864	0.75248
765.64008	0.75901
763.71151	0.76503
761.78295	0.77007
759.85439	0.77416
757.92582	0.77722
755.99726	0.77915
754.06869	0.78004
752.14013	0.77964
750.21156	0.77795
748.28300	0.77562
746.35443	0.77292
744.42587	0.76960
742.49731	0.76614
740.56874	0.76350
738.64018	0.76191
736.71161	0.76141
734.78305	0.76251
732.85448	0.76512
730.92592	0.76871
728.99735	0.77292
727.06879	0.77760
725.14023	0.78305
723.21166	0.78939
721.28310	0.79593
719.35453	0.80108
717.42597	0.80343
715.49740	0.80384
713.56884	0.80406
711.64027	0.80437
709.71171	0.80424
707.78315	0.80384
705.85458	0.80328
703.92602	0.80242
701.99745	0.80146
700.06889	0.80045
698.14032	0.79957
696.21176	0.79906
694.28319	0.79852
692.35463	0.79775
690.42607	0.79709
688.49750	0.79660
686.56894	0.79587
684.64037	0.79463
682.71181	0.79261
680.78324	0.78934
678.85468	0.78461
676.92611	0.77876
674.99755	0.77185
673.06899	0.76473
671.14042	0.75933
669.21186	0.75131
667.28329	0.73670
665.35473	0.72877
663.42616	0.72635
661.49760	0.72462
659.56903	0.72237
657.64047	0.72056
655.71191	0.72112
653.78334	0.72421
651.85478	0.72899
649.92621	0.73535
647.99765	0.74299
646.06908	0.75089
644.14052	0.75839
642.21195	0.76572
640.28339	0.77312
638.35483	0.77937
636.42626	0.78212
634.49770	0.78072
632.56913	0.77631
630.64057	0.76930
628.71200	0.75992
626.78344	0.74921
624.85488	0.73867
622.92631	0.72958
620.99775	0.72191
619.06918	0.71498
617.14062	0.70888
615.21205	0.70481
613.28349	0.70380
611.35492	0.70543
609.42636	0.70900
607.49780	0.71479
605.56923	0.72238
603.64067	0.73140
601.71210	0.74276
599.78354	0.75525
