3997.91406	0.85875
3995.98550	0.85608
3994.05693	0.85590
3992.12837	0.85761
3990.19980	0.85864
3988.27124	0.85845
3986.34268	0.85797
3984.41411	0.85686
3982.48555	0.85549
3980.55698	0.85495
3978.62842	0.85420
3976.69985	0.85278
3974.77129	0.85259
3972.84272	0.85362
3970.91416	0.85351
3968.98560	0.85241
3967.05703	0.85230
3965.12847	0.85283
3963.19990	0.85346
3961.27134	0.85474
3959.34277	0.85543
3957.41421	0.85396
3955.48564	0.85121
3953.55708	0.84972
3951.62852	0.85031
3949.69995	0.85210
3947.77139	0.85327
3945.84282	0.85217
3943.91426	0.85009
3941.98569	0.84839
3940.05713	0.84720
3938.12856	0.84663
3936.20000	0.84575
3934.27144	0.84429
3932.34287	0.84243
3930.41431	0.83954
3928.48574	0.83697
3926.55718	0.83620
3924.62861	0.83710
3922.70005	0.83873
3920.77148	0.84067
3918.84292	0.84295
3916.91436	0.84338
3914.98579	0.84104
3913.05723	0.83875
3911.12866	0.83716
3909.20010	0.83518
3907.27153	0.83354
3905.34297	0.83458
3903.41440	0.83805
3901.48584	0.83885
3899.55728	0.83727
3897.62871	0.83665
3895.70015	0.83672
3893.77158	0.83812
3891.84302	0.84133
3889.91445	0.84235
3887.98589	0.84168
3886.05733	0.84192
3884.12876	0.84074
3882.20020	0.83864
3880.27163	0.83861
3878.34307	0.83853
3876.41450	0.83717
3874.48594	0.83590
3872.55737	0.83605
3870.62881	0.83607
3868.70025	0.83314
3866.77168	0.83123
3864.84312	0.83428
3862.91455	0.83849
3860.98599	0.83904
3859.05742	0.83901
3857.12886	0.84081
3855.20029	0.84427
3853.27173	0.84270
3851.34317	0.83448
3849.41460	0.83045
3847.48604	0.82948
3845.55747	0.82873
3843.62891	0.82859
3841.70034	0.83120
3839.77178	0.83551
3837.84321	0.83662
3835.91465	0.83395
3833.98609	0.83142
3832.05752	0.82944
3830.12896	0.82718
3828.20039	0.82543
3826.27183	0.82515
3824.34326	0.82489
3822.41470	0.82433
3820.48613	0.82570
3818.55757	0.82742
3816.62901	0.82863
3814.70044	0.82916
3812.77188	0.82809
3810.84331	0.82581
3808.91475	0.82403
3806.98618	0.82400
3805.05762	0.82260
3803.12905	0.82057
3801.20049	0.82211
3799.27193	0.82346
3797.34336	0.82229
3795.41480	0.82011
3793.48623	0.81846
3791.55767	0.81892
3789.62910	0.82068
3787.70054	0.82170
3785.77197	0.82190
3783.84341	0.82292
3781.91485	0.82520
3779.98628	0.82642
3778.05772	0.82421
3776.12915	0.82175
3774.20059	0.82097
3772.27202	0.81975
3770.34346	0.81788
3768.41489	0.81767
3766.48633	0.81766
3764.55777	0.81633
3762.62920	0.81526
3760.70064	0.81604
3758.77207	0.81787
3756.84351	0.81790
3754.91494	0.81638
3752.98638	0.81514
3751.05781	0.81643
3749.12925	0.81828
3747.20069	0.81932
3745.27212	0.82261
3743.34356	0.82419
3741.41499	0.82167
3739.48643	0.81942
3737.55786	0.81992
3735.62930	0.82372
3733.70074	0.82458
3731.77217	0.82132
3729.84361	0.82037
3727.91504	0.82297
3725.98648	0.82585
3724.05791	0.82531
3722.12935	0.82304
3720.20078	0.82140
3718.27222	0.82071
3716.34366	0.82195
3714.41509	0.82545
3712.48653	0.82976
3710.55796	0.83154
3708.62940	0.83081
3706.70083	0.82882
3704.77227	0.82526
3702.84370	0.82221
3700.91514	0.82243
3698.98658	0.82439
3697.05801	0.82557
3695.12945	0.82481
3693.20088	0.82391
3691.27232	0.82551
3689.34375	0.82934
3687.41519	0.83243
3685.48662	0.83221
3683.55806	0.83040
3681.62950	0.83061
3679.70093	0.83204
3677.77237	0.83070
3675.84380	0.83033
3673.91524	0.83636
3671.98667	0.84199
3670.05811	0.84593
3668.12954	0.84694
3666.20098	0.84729
3664.27242	0.84968
3662.34385	0.85278
3660.41529	0.85472
3658.48672	0.85737
3656.55816	0.86340
3654.62959	0.86875
3652.70103	0.87099
3650.77246	0.87326
3648.84390	0.87670
3646.91534	0.88068
3644.98677	0.88492
3643.05821	0.88843
3641.12964	0.89118
3639.20108	0.89541
3637.27251	0.90185
3635.34395	0.90843
3633.41538	0.91500
3631.48682	0.92197
3629.55826	0.92836
3627.62969	0.92969
3625.70113	0.92859
3623.77256	0.93031
3621.84400	0.93507
3619.91543	0.94193
3617.98687	0.94664
3616.05830	0.94609
3614.12974	0.94593
3612.20118	0.94993
3610.27261	0.95506
3608.34405	0.96192
3606.41548	0.97013
3604.48692	0.97441
3602.55835	0.97625
3600.62979	0.98114
3598.70123	0.98898
3596.77266	0.99461
3594.84410	0.99767
3592.91553	1.00236
3590.98697	1.01000
3589.05840	1.01931
3587.12984	1.02662
3585.20127	1.02968
3583.27271	1.03154
3581.34415	1.03254
3579.41558	1.03361
3577.48702	1.03795
3575.55845	1.04488
3573.62989	1.04942
3571.70132	1.05110
3569.77276	1.05494
3567.84419	1.06400
3565.91563	1.07106
3563.98707	1.07172
3562.05850	1.07237
3560.12994	1.07650
3558.20137	1.08376
3556.27281	1.09036
3554.34424	1.09569
3552.41568	1.10267
3550.48711	1.10851
3548.55855	1.11016
3546.62999	1.11117
3544.70142	1.11416
3542.77286	1.11755
3540.84429	1.12130
3538.91573	1.12620
3536.98716	1.13033
3535.05860	1.13087
3533.13003	1.13208
3531.20147	1.13959
3529.27291	1.14972
3527.34434	1.15572
3525.41578	1.15939
3523.48721	1.16471
3521.55865	1.16929
3519.63008	1.17096
3517.70152	1.17362
3515.77295	1.17885
3513.84439	1.18413
3511.91583	1.18923
3509.98726	1.19507
3508.05870	1.20098
3506.13013	1.20805
3504.20157	1.21854
3502.27300	1.22772
3500.34444	1.23221
3498.41587	1.23866
3496.48731	1.24822
3494.55875	1.25402
3492.63018	1.25488
3490.70162	1.25734
3488.77305	1.26436
3486.84449	1.27121
3484.91592	1.27405
3482.98736	1.27500
3481.05879	1.27717
3479.13023	1.28106
3477.20167	1.28560
3475.27310	1.28714
3473.34454	1.28356
3471.41597	1.28163
3469.48741	1.28622
3467.55884	1.29300
3465.63028	1.29802
3463.70171	1.29992
3461.77315	1.29773
3459.84459	1.29511
3457.91602	1.29654
3455.98746	1.30178
3454.05889	1.30787
3452.13033	1.31233
3450.20176	1.31455
3448.27320	1.31446
3446.34464	1.31329
3444.41607	1.31517
3442.48751	1.31914
3440.55894	1.32061
3438.63038	1.32174
3436.70181	1.32261
3434.77325	1.31892
3432.84468	1.31690
3430.91612	1.32098
3428.98756	1.32147
3427.05899	1.31947
3425.13043	1.32523
3423.20186	1.33124
3421.27330	1.33017
3419.34473	1.33030
3417.41617	1.33308
3415.48760	1.33336
3413.55904	1.33110
3411.63048	1.32977
3409.70191	1.33012
3407.77335	1.33036
3405.84478	1.33119
3403.91622	1.33086
3401.98765	1.32682
3400.05909	1.32454
3398.13052	1.32863
3396.20196	1.33438
3394.27340	1.33753
3392.34483	1.33872
3390.41627	1.33904
3388.48770	1.34147
3386.55914	1.34518
3384.63057	1.34520
3382.70201	1.34324
3380.77344	1.34301
3378.84488	1.34198
3376.91632	1.33966
3374.98775	1.33927
3373.05919	1.33842
3371.13062	1.33497
3369.20206	1.33404
3367.27349	1.33856
3365.34493	1.34284
3363.41636	1.34250
3361.48780	1.34246
3359.55924	1.34607
3357.63067	1.34942
3355.70211	1.34783
3353.77354	1.34325
3351.84498	1.34333
3349.91641	1.34822
3347.98785	1.34965
3346.05928	1.34670
3344.13072	1.34690
3342.20216	1.35053
3340.27359	1.35334
3338.34503	1.35590
3336.41646	1.35681
3334.48790	1.35843
3332.55933	1.36556
3330.63077	1.37382
3328.70220	1.37879
3326.77364	1.38068
3324.84508	1.38209
3322.91651	1.38197
3320.98795	1.37683
3319.05938	1.37245
3317.13082	1.37236
3315.20225	1.37392
3313.27369	1.37954
3311.34513	1.38939
3309.41656	1.39704
3307.48800	1.39927
3305.55943	1.39892
3303.63087	1.39837
3301.70230	1.39757
3299.77374	1.39583
3297.84517	1.39273
3295.91661	1.38975
3293.98805	1.38925
3292.05948	1.39210
3290.13092	1.39685
3288.20235	1.39981
3286.27379	1.39969
3284.34522	1.39998
3282.41666	1.40093
3280.48809	1.39949
3278.55953	1.39705
3276.63097	1.39292
3274.70240	1.38571
3272.77384	1.38140
3270.84527	1.38233
3268.91671	1.38191
3266.98814	1.37637
3265.05958	1.37200
3263.13101	1.37463
3261.20245	1.37869
3259.27389	1.37720
3257.34532	1.37284
3255.41676	1.36964
3253.48819	1.36568
3251.55963	1.35845
3249.63106	1.34968
3247.70250	1.34389
3245.77393	1.34073
3243.84537	1.33413
3241.91681	1.32452
3239.98824	1.31662
3238.05968	1.31306
3236.13111	1.31750
3234.20255	1.32416
3232.27398	1.32102
3230.34542	1.31206
3228.41685	1.30665
3226.48829	1.30323
3224.55973	1.29955
3222.63116	1.29706
3220.70260	1.29504
3218.77403	1.29191
3216.84547	1.28842
3214.91690	1.28638
3212.98834	1.28627
3211.05977	1.28575
3209.13121	1.28273
3207.20265	1.27808
3205.27408	1.27405
3203.34552	1.27150
3201.41695	1.26803
3199.48839	1.26241
3197.55982	1.25713
3195.63126	1.25328
3193.70269	1.25088
3191.77413	1.25058
3189.84557	1.25050
3187.91700	1.24708
3185.98844	1.24068
3184.05987	1.23639
3182.13131	1.23654
3180.20274	1.23606
3178.27418	1.23021
3176.34562	1.22168
3174.41705	1.21635
3172.48849	1.21708
3170.55992	1.21902
3168.63136	1.21456
3166.70279	1.20747
3164.77423	1.20639
3162.84566	1.20860
3160.91710	1.20814
3158.98854	1.20702
3157.05997	1.20531
3155.13141	1.20045
3153.20284	1.19546
3151.27428	1.19211
3149.34571	1.19039
3147.41715	1.19201
3145.48858	1.19384
3143.56002	1.19090
3141.63146	1.18476
3139.70289	1.17958
3137.77433	1.17677
3135.84576	1.17668
3133.91720	1.17759
3131.98863	1.17637
3130.06007	1.17405
3128.13150	1.17311
3126.20294	1.17381
3124.27438	1.17560
3122.34581	1.17665
3120.41725	1.17501
3118.48868	1.17278
3116.56012	1.17347
3114.63155	1.17549
3112.70299	1.17683
3110.77442	1.17808
3108.84586	1.17708
3106.91730	1.17453
3104.98873	1.17516
3103.06017	1.17809
3101.13160	1.17878
3099.20304	1.17548
3097.27447	1.16985
3095.34591	1.16552
3093.41734	1.16476
3091.48878	1.16570
3089.56022	1.16542
3087.63165	1.16411
3085.70309	1.16281
3083.77452	1.16104
3081.84596	1.15935
3079.91739	1.15917
3077.98883	1.16054
3076.06026	1.16193
3074.13170	1.16105
3072.20314	1.15761
3070.27457	1.15350
3068.34601	1.14950
3066.41744	1.14595
3064.48888	1.14346
3062.56031	1.14161
3060.63175	1.14012
3058.70318	1.13837
3056.77462	1.13555
3054.84606	1.13308
3052.91749	1.13228
3050.98893	1.13118
3049.06036	1.12734
3047.13180	1.12181
3045.20323	1.11717
3043.27467	1.11388
3041.34610	1.11143
3039.41754	1.10981
3037.48898	1.10867
3035.56041	1.10705
3033.63185	1.10469
3031.70328	1.10180
3029.77472	1.09827
3027.84615	1.09534
3025.91759	1.09428
3023.98903	1.09344
3022.06046	1.09170
3020.13190	1.09062
3018.20333	1.08973
3016.27477	1.08734
3014.34620	1.08512
3012.41764	1.08535
3010.48907	1.08667
3008.56051	1.08581
3006.63195	1.08254
3004.70338	1.07981
3002.77482	1.07946
3000.84625	1.08060
2998.91769	1.08180
2996.98912	1.08333
2995.06056	1.08526
2993.13199	1.08577
2991.20343	1.08544
2989.27487	1.08719
2987.34630	1.09180
2985.41774	1.09872
2983.48917	1.10682
2981.56061	1.11417
2979.63204	1.11911
2977.70348	1.12202
2975.77491	1.12672
2973.84635	1.13475
2971.91779	1.14195
2969.98922	1.14627
2968.06066	1.15080
2966.13209	1.15588
2964.20353	1.15845
2962.27496	1.15961
2960.34640	1.16198
2958.41783	1.16302
2956.48927	1.16002
2954.56071	1.15502
2952.63214	1.14989
2950.70358	1.14437
2948.77501	1.14085
2946.84645	1.14191
2944.91788	1.14527
2942.98932	1.14887
2941.06075	1.15363
2939.13219	1.16028
2937.20363	1.16927
2935.27506	1.17989
2933.34650	1.19036
2931.41793	1.20031
2929.48937	1.20942
2927.56080	1.21615
2925.63224	1.22148
2923.70367	1.22743
2921.77511	1.23161
2919.84655	1.23253
2917.91798	1.23071
2915.98942	1.22140
2914.06085	1.20279
2912.13229	1.18233
2910.20372	1.16536
2908.27516	1.15133
2906.34659	1.14042
2904.41803	1.13317
2902.48947	1.12886
2900.56090	1.12661
2898.63234	1.12304
2896.70377	1.11673
2894.77521	1.11254
2892.84664	1.11190
2890.91808	1.11012
2888.98952	1.10580
2887.06095	1.10224
2885.13239	1.10145
2883.20382	1.10250
2881.27526	1.10366
2879.34669	1.10385
2877.41813	1.10320
2875.48956	1.10183
2873.56100	1.09820
2871.63244	1.09272
2869.70387	1.08854
2867.77531	1.08616
2865.84674	1.08402
2863.91818	1.08160
2861.98961	1.08043
2860.06105	1.08346
2858.13248	1.09144
2856.20392	1.10133
2854.27536	1.10985
2852.34679	1.11703
2850.41823	1.12139
2848.48966	1.11516
2846.56110	1.09543
2844.63253	1.07124
2842.70397	1.05100
2840.77540	1.03565
2838.84684	1.02341
2836.91828	1.01363
2834.98971	1.00682
2833.06115	1.00271
2831.13258	0.99951
2829.20402	0.99605
2827.27545	0.99268
2825.34689	0.98988
2823.41832	0.98765
2821.48976	0.98536
2819.56120	0.98200
2817.63263	0.97826
2815.70407	0.97515
2813.77550	0.97170
2811.84694	0.96796
2809.91837	0.96533
2807.98981	0.96347
2806.06124	0.96110
2804.13268	0.95818
2802.20412	0.95524
2800.27555	0.95186
2798.34699	0.94852
2796.41842	0.94633
2794.48986	0.94468
2792.56129	0.94282
2790.63273	0.94098
2788.70416	0.93918
2786.77560	0.93639
2784.84704	0.93206
2782.91847	0.92792
2780.98991	0.92575
2779.06134	0.92487
2777.13278	0.92325
2775.20421	0.92055
2773.27565	0.91819
2771.34708	0.91672
2769.41852	0.91567
2767.48996	0.91494
2765.56139	0.91438
2763.63283	0.91314
2761.70426	0.91105
2759.77570	0.90921
2757.84713	0.90811
2755.91857	0.90773
2753.99001	0.90759
2752.06144	0.90610
2750.13288	0.90336
2748.20431	0.90171
2746.27575	0.90130
2744.34718	0.90035
2742.41862	0.89892
2740.49005	0.89733
2738.56149	0.89512
2736.63293	0.89292
2734.70436	0.89139
2732.77580	0.89053
2730.84723	0.88987
2728.91867	0.88864
2726.99010	0.88732
2725.06154	0.88669
2723.13297	0.88609
2721.20441	0.88477
2719.27585	0.88313
2717.34728	0.88179
2715.41872	0.88077
2713.49015	0.87983
2711.56159	0.87899
2709.63302	0.87830
2707.70446	0.87709
2705.77589	0.87462
2703.84733	0.87211
2701.91877	0.87119
2699.99020	0.87098
2698.06164	0.86999
2696.13307	0.86875
2694.20451	0.86790
2692.27594	0.86701
2690.34738	0.86631
2688.41881	0.86604
2686.49025	0.86497
2684.56169	0.86271
2682.63312	0.86102
2680.70456	0.86048
2678.77599	0.85974
2676.84743	0.85875
2674.91886	0.85827
2672.99030	0.85756
2671.06173	0.85584
2669.13317	0.85396
2667.20461	0.85257
2665.27604	0.85128
2663.34748	0.85014
2661.41891	0.84930
2659.49035	0.84808
2657.56178	0.84623
2655.63322	0.84487
2653.70465	0.84484
2651.77609	0.84493
2649.84753	0.84347
2647.91896	0.84102
2645.99040	0.83958
2644.06183	0.83910
2642.13327	0.83830
2640.20470	0.83752
2638.27614	0.83711
2636.34757	0.83615
2634.41901	0.83435
2632.49045	0.83240
2630.56188	0.83093
2628.63332	0.82982
2626.70475	0.82870
2624.77619	0.82787
2622.84762	0.82733
2620.91906	0.82668
2618.99049	0.82615
2617.06193	0.82540
2615.13337	0.82389
2613.20480	0.82248
2611.27624	0.82190
2609.34767	0.82122
2607.41911	0.81980
2605.49054	0.81887
2603.56198	0.81881
2601.63342	0.81789
2599.70485	0.81566
2597.77629	0.81361
2595.84772	0.81260
2593.91916	0.81201
2591.99059	0.81144
2590.06203	0.81118
2588.13346	0.81060
2586.20490	0.80904
2584.27634	0.80752
2582.34777	0.80684
2580.41921	0.80625
2578.49064	0.80555
2576.56208	0.80515
2574.63351	0.80424
2572.70495	0.80226
2570.77638	0.79995
2568.84782	0.79788
2566.91926	0.79611
2564.99069	0.79457
2563.06213	0.79333
2561.13356	0.79215
2559.20500	0.79074
2557.27643	0.78928
2555.34787	0.78816
2553.41930	0.78745
2551.49074	0.78672
2549.56218	0.78568
2547.63361	0.78461
2545.70505	0.78338
2543.77648	0.78164
2541.84792	0.78013
2539.91935	0.77973
2537.99079	0.77966
2536.06222	0.77894
2534.13366	0.77803
2532.20510	0.77725
2530.27653	0.77614
2528.34797	0.77468
2526.41940	0.77362
2524.49084	0.77329
2522.56227	0.77290
2520.63371	0.77208
2518.70514	0.77132
2516.77658	0.77092
2514.84802	0.77067
2512.91945	0.77043
2510.99089	0.77016
2509.06232	0.76938
2507.13376	0.76813
2505.20519	0.76711
2503.27663	0.76661
2501.34806	0.76626
2499.41950	0.76573
2497.49094	0.76514
2495.56237	0.76437
2493.63381	0.76290
2491.70524	0.76121
2489.77668	0.76027
2487.84811	0.75996
2485.91955	0.75952
2483.99098	0.75859
2482.06242	0.75741
2480.13386	0.75629
2478.20529	0.75515
2476.27673	0.75401
2474.34816	0.75305
2472.41960	0.75198
2470.49103	0.75079
2468.56247	0.74968
2466.63391	0.74856
2464.70534	0.74738
2462.77678	0.74594
2460.84821	0.74430
2458.91965	0.74291
2456.99108	0.74168
2455.06252	0.74033
2453.13395	0.73895
2451.20539	0.73767
2449.27683	0.73615
2447.34826	0.73417
2445.41970	0.73230
2443.49113	0.73110
2441.56257	0.73043
2439.63400	0.72946
2437.70544	0.72749
2435.77687	0.72516
2433.84831	0.72347
2431.91975	0.72221
2429.99118	0.72097
2428.06262	0.71984
2426.13405	0.71867
2424.20549	0.71755
2422.27692	0.71654
2420.34836	0.71539
2418.41979	0.71444
2416.49123	0.71389
2414.56267	0.71321
2412.63410	0.71224
2410.70554	0.71110
2408.77697	0.70975
2406.84841	0.70864
2404.91984	0.70798
2402.99128	0.70722
2401.06271	0.70612
2399.13415	0.70520
2397.20559	0.70472
2395.27702	0.70381
2393.34846	0.70212
2391.41989	0.70097
2389.49133	0.70094
2387.56276	0.70098
2385.63420	0.70027
2383.70563	0.69888
2381.77707	0.69775
2379.84851	0.69783
2377.91994	0.69885
2375.99138	0.70023
2374.06281	0.70204
2372.13425	0.70464
2370.20568	0.70732
2368.27712	0.70691
2366.34855	0.70232
2364.41999	0.69865
2362.49143	0.69829
2360.56286	0.69909
2358.63430	0.70079
2356.70573	0.70153
2354.77717	0.69999
2352.84860	0.69776
2350.92004	0.69551
2348.99147	0.69331
2347.06291	0.69170
2345.13435	0.69190
2343.20578	0.69320
2341.27722	0.69258
2339.34865	0.69167
2337.42009	0.69247
2335.49152	0.69259
2333.56296	0.69019
2331.63440	0.68680
2329.70583	0.68531
2327.77727	0.68622
2325.84870	0.68700
2323.92014	0.68650
2321.99157	0.68537
2320.06301	0.68381
2318.13444	0.68241
2316.20588	0.68201
2314.27732	0.68238
2312.34875	0.68256
2310.42019	0.68175
2308.49162	0.68009
2306.56306	0.67845
2304.63449	0.67696
2302.70593	0.67519
2300.77736	0.67378
2298.84880	0.67306
2296.92024	0.67214
2294.99167	0.67104
2293.06311	0.67049
2291.13454	0.67009
2289.20598	0.66894
2287.27741	0.66723
2285.34885	0.66580
2283.42028	0.66478
2281.49172	0.66392
2279.56316	0.66309
2277.63459	0.66220
2275.70603	0.66129
2273.77746	0.66002
2271.84890	0.65832
2269.92033	0.65691
2267.99177	0.65612
2266.06320	0.65551
2264.13464	0.65454
2262.20608	0.65327
2260.27751	0.65224
2258.34895	0.65163
2256.42038	0.65130
2254.49182	0.65101
2252.56325	0.65056
2250.63469	0.65019
2248.70612	0.64991
2246.77756	0.64945
2244.84900	0.64880
2242.92043	0.64817
2240.99187	0.64778
2239.06330	0.64762
2237.13474	0.64729
2235.20617	0.64644
2233.27761	0.64540
2231.34904	0.64481
2229.42048	0.64463
2227.49192	0.64435
2225.56335	0.64385
2223.63479	0.64341
2221.70622	0.64314
2219.77766	0.64288
2217.84909	0.64239
2215.92053	0.64182
2213.99196	0.64143
2212.06340	0.64091
2210.13484	0.64018
2208.20627	0.63955
2206.27771	0.63905
2204.34914	0.63851
2202.42058	0.63789
2200.49201	0.63732
2198.56345	0.63688
2196.63488	0.63634
2194.70632	0.63560
2192.77776	0.63490
2190.84919	0.63407
2188.92063	0.63286
2186.99206	0.63143
2185.06350	0.63010
2183.13493	0.62913
2181.20637	0.62837
2179.27781	0.62770
2177.34924	0.62715
2175.42068	0.62661
2173.49211	0.62599
2171.56355	0.62540
2169.63498	0.62493
2167.70642	0.62437
2165.77785	0.62362
2163.84929	0.62292
2161.92073	0.62233
2159.99216	0.62186
2158.06360	0.62156
2156.13503	0.62130
2154.20647	0.62113
2152.27790	0.62124
2150.34934	0.62148
2148.42077	0.62147
2146.49221	0.62125
2144.56365	0.62145
2142.63508	0.62239
2140.70652	0.62349
2138.77795	0.62426
2136.84939	0.62496
2134.92082	0.62582
2132.99226	0.62657
2131.06369	0.62701
2129.13513	0.62740
2127.20657	0.62793
2125.27800	0.62838
2123.34944	0.62851
2121.42087	0.62844
2119.49231	0.62849
2117.56374	0.62862
2115.63518	0.62853
2113.70661	0.62812
2111.77805	0.62737
2109.84949	0.62647
2107.92092	0.62562
2105.99236	0.62461
2104.06379	0.62347
2102.13523	0.62247
2100.20666	0.62137
2098.27810	0.61994
2096.34953	0.61827
2094.42097	0.61670
2092.49241	0.61541
2090.56384	0.61404
2088.63528	0.61229
2086.70671	0.61044
2084.77815	0.60892
2082.84958	0.60773
2080.92102	0.60650
2078.99245	0.60501
2077.06389	0.60345
2075.13533	0.60196
2073.20676	0.60054
2071.27820	0.59919
2069.34963	0.59806
2067.42107	0.59723
2065.49250	0.59678
2063.56394	0.59648
2061.63537	0.59554
2059.70681	0.59408
2057.77825	0.59331
2055.84968	0.59347
2053.92112	0.59370
2051.99255	0.59347
2050.06399	0.59300
2048.13542	0.59282
2046.20686	0.59290
2044.27830	0.59265
2042.34973	0.59229
2040.42117	0.59248
2038.49260	0.59287
2036.56404	0.59277
2034.63547	0.59221
2032.70691	0.59158
2030.77834	0.59099
2028.84978	0.59038
2026.92122	0.58986
2024.99265	0.58956
2023.06409	0.58940
2021.13552	0.58902
2019.20696	0.58810
2017.27839	0.58701
2015.34983	0.58606
2013.42126	0.58519
2011.49270	0.58434
2009.56414	0.58340
2007.63557	0.58234
2005.70701	0.58109
2003.77844	0.57972
2001.84988	0.57849
1999.92131	0.57758
1997.99275	0.57685
1996.06418	0.57588
1994.13562	0.57474
1992.20706	0.57373
1990.27849	0.57252
1988.34993	0.57089
1986.42136	0.56931
1984.49280	0.56849
1982.56423	0.56813
1980.63567	0.56752
1978.70710	0.56683
1976.77854	0.56635
1974.84998	0.56597
1972.92141	0.56580
1970.99285	0.56589
1969.06428	0.56590
1967.13572	0.56554
1965.20715	0.56483
1963.27859	0.56403
1961.35002	0.56353
1959.42146	0.56349
1957.49290	0.56348
1955.56433	0.56335
1953.63577	0.56338
1951.70720	0.56339
1949.77864	0.56305
1947.85007	0.56261
1945.92151	0.56248
1943.99294	0.56258
1942.06438	0.56249
1940.13582	0.56195
1938.20725	0.56117
1936.27869	0.56049
1934.35012	0.56019
1932.42156	0.56007
1930.49299	0.55965
1928.56443	0.55903
1926.63586	0.55869
1924.70730	0.55870
1922.77874	0.55858
1920.85017	0.55805
1918.92161	0.55751
1916.99304	0.55709
1915.06448	0.55659
1913.13591	0.55602
1911.20735	0.55552
1909.27878	0.55528
1907.35022	0.55505
1905.42166	0.55462
1903.49309	0.55429
1901.56453	0.55410
1899.63596	0.55389
1897.70740	0.55385
1895.77883	0.55401
1893.85027	0.55402
1891.92171	0.55396
1889.99314	0.55408
1888.06458	0.55384
1886.13601	0.55326
1884.20745	0.55284
1882.27888	0.55228
1880.35032	0.55142
1878.42175	0.55049
1876.49319	0.54958
1874.56463	0.54863
1872.63606	0.54782
1870.70750	0.54750
1868.77893	0.54743
1866.85037	0.54632
1864.92180	0.54434
1862.99324	0.54269
1861.06467	0.54157
1859.13611	0.54038
1857.20755	0.53896
1855.27898	0.53778
1853.35042	0.53707
1851.42185	0.53660
1849.49329	0.53606
1847.56472	0.53555
1845.63616	0.53540
1843.70759	0.53516
1841.77903	0.53444
1839.85047	0.53398
1837.92190	0.53398
1835.99334	0.53391
1834.06477	0.53390
1832.13621	0.53469
1830.20764	0.53618
1828.27908	0.53711
1826.35051	0.53756
1824.42195	0.53818
1822.49339	0.53851
1820.56482	0.53874
1818.63626	0.53943
1816.70769	0.54043
1814.77913	0.54158
1812.85056	0.54308
1810.92200	0.54445
1808.99343	0.54485
1807.06487	0.54490
1805.13631	0.54545
1803.20774	0.54638
1801.27918	0.54703
1799.35061	0.54706
1797.42205	0.54720
1795.49348	0.54776
1793.56492	0.54850
1791.63635	0.54891
1789.70779	0.54839
1787.77923	0.54774
1785.85066	0.54766
1783.92210	0.54833
1781.99353	0.54953
1780.06497	0.55071
1778.13640	0.55156
1776.20784	0.55241
1774.27927	0.55392
1772.35071	0.55640
1770.42215	0.55841
1768.49358	0.55947
1766.56502	0.56047
1764.63645	0.56189
1762.70789	0.56465
1760.77932	0.56852
1758.85076	0.57212
1756.92220	0.57622
1754.99363	0.58045
1753.06507	0.58477
1751.13650	0.59126
1749.20794	0.59950
1747.27937	0.60602
1745.35081	0.61096
1743.42224	0.61563
1741.49368	0.62029
1739.56512	0.62434
1737.63655	0.62667
1735.70799	0.62879
1733.77942	0.63351
1731.85086	0.63779
1729.92229	0.64062
1727.99373	0.64423
1726.06516	0.64905
1724.13660	0.65590
1722.20804	0.66364
1720.27947	0.67144
1718.35091	0.68395
1716.42234	0.70375
1714.49378	0.71930
1712.56521	0.73192
1710.63665	0.74689
1708.70808	0.76542
1706.77952	0.79175
1704.85096	0.82522
1702.92239	0.85424
1700.99383	0.89054
1699.06526	0.94518
1697.13670	0.99302
1695.20813	1.03360
1693.27957	1.06013
1691.35100	1.07981
1689.42244	1.10427
1687.49388	1.12721
1685.56531	1.15008
1683.63675	1.17944
1681.70818	1.19391
1679.77962	1.20027
1677.85105	1.20803
1675.92249	1.21747
1673.99392	1.22486
1672.06536	1.22911
1670.13680	1.23470
1668.20823	1.24167
1666.27967	1.24538
1664.35110	1.24920
1662.42254	1.25481
1660.49397	1.25726
1658.56541	1.25645
1656.63684	1.25421
1654.70828	1.25142
1652.77972	1.24912
1650.85115	1.24699
1648.92259	1.24527
1646.99402	1.24441
1645.06546	1.24084
1643.13689	1.23499
1641.20833	1.23074
1639.27976	1.22863
1637.35120	1.22751
1635.42264	1.22543
1633.49407	1.22187
1631.56551	1.21824
1629.63694	1.21377
1627.70838	1.20801
1625.77981	1.20060
1623.85125	1.18950
1621.92269	1.17535
1619.99412	1.16353
1618.06556	1.15118
1616.13699	1.13190
1614.20843	1.11304
1612.27986	1.09758
1610.35130	1.08271
1608.42273	1.06882
1606.49417	1.05732
1604.56561	1.04787
1602.63704	1.03974
1600.70848	1.03464
1598.77991	1.03336
1596.85135	1.03440
1594.92278	1.03660
1592.99422	1.03960
1591.06565	1.04369
1589.13709	1.04952
1587.20853	1.05749
1585.27996	1.06736
1583.35140	1.07867
1581.42283	1.08986
1579.49427	1.09961
1577.56570	1.11172
1575.63714	1.12855
1573.70857	1.13895
1571.78001	1.14563
1569.85145	1.15642
1567.92288	1.16804
1565.99432	1.17628
1564.06575	1.18325
1562.13719	1.18820
1560.20862	1.19510
1558.28006	1.20679
1556.35149	1.20651
1554.42293	1.20321
1552.49437	1.20205
1550.56580	1.20297
1548.63724	1.20288
1546.70867	1.20080
1544.78011	1.19886
1542.85154	1.19621
1540.92298	1.18556
1538.99441	1.17439
1537.06585	1.17250
1535.13729	1.17201
1533.20872	1.17053
1531.28016	1.16756
1529.35159	1.16381
1527.42303	1.15945
1525.49446	1.15517
1523.56590	1.15257
1521.63733	1.15080
1519.70877	1.14799
1517.78021	1.14232
1515.85164	1.13414
1513.92308	1.12556
1511.99451	1.11644
1510.06595	1.10756
1508.13738	1.09459
1506.20882	1.06622
1504.28025	1.04588
1502.35169	1.03191
1500.42313	1.01699
1498.49456	0.99928
1496.56600	0.97930
1494.63743	0.96381
1492.70887	0.95340
1490.78030	0.94248
1488.85174	0.92876
1486.92317	0.91761
1484.99461	0.91065
1483.06605	0.90706
1481.13748	0.90647
1479.20892	0.90889
1477.28035	0.91515
1475.35179	0.92652
1473.42322	0.94449
1471.49466	0.96145
1469.56610	0.96983
1467.63753	0.97611
1465.70897	0.98453
1463.78040	0.99310
1461.85184	0.99788
1459.92327	1.00149
1457.99471	1.01008
1456.06614	1.02028
1454.13758	1.02170
1452.20902	1.02023
1450.28045	1.01878
1448.35189	1.01788
1446.42332	1.01624
1444.49476	1.01225
1442.56619	1.00699
1440.63763	1.00277
1438.70906	0.99949
1436.78050	0.99401
1434.85194	0.98577
1432.92337	0.97791
1430.99481	0.96957
1429.06624	0.96055
1427.13768	0.95389
1425.20911	0.95032
1423.28055	0.94848
1421.35198	0.94716
1419.42342	0.94662
1417.49486	0.94691
1415.56629	0.94613
1413.63773	0.94422
1411.70916	0.94230
1409.78060	0.94131
1407.85203	0.94163
1405.92347	0.94323
1403.99490	0.94448
1402.06634	0.94450
1400.13778	0.94522
1398.20921	0.94732
1396.28065	0.94961
1394.35208	0.95256
1392.42352	0.95682
1390.49495	0.96238
1388.56639	0.97110
1386.63782	0.98347
1384.70926	0.99493
1382.78070	1.00391
1380.85213	1.01010
1378.92357	1.01164
1376.99500	1.00848
1375.06644	1.00045
1373.13787	0.98808
1371.20931	0.97556
1369.28074	0.96356
1367.35218	0.95146
1365.42362	0.94008
1363.49505	0.92850
1361.56649	0.91788
1359.63792	0.91172
1357.70936	0.90912
1355.78079	0.90780
1353.85223	0.90695
1351.92366	0.90713
1349.99510	0.90840
1348.06654	0.91010
1346.13797	0.91213
1344.20941	0.91482
1342.28084	0.91830
1340.35228	0.92295
1338.42371	0.92859
1336.49515	0.93452
1334.56659	0.94107
1332.63802	0.94882
1330.70946	0.95718
1328.78089	0.96391
1326.85233	0.96799
1324.92376	0.97079
1322.99520	0.97314
1321.06663	0.97516
1319.13807	0.97755
1317.20951	0.97999
1315.28094	0.98159
1313.35238	0.98275
1311.42381	0.98361
1309.49525	0.98343
1307.56668	0.98224
1305.63812	0.98073
1303.70955	0.97952
1301.78099	0.97879
1299.85243	0.97832
1297.92386	0.97790
1295.99530	0.97746
1294.06673	0.97745
1292.13817	0.97857
1290.20960	0.98092
1288.28104	0.98389
1286.35247	0.98708
1284.42391	0.99069
1282.49535	0.99459
1280.56678	0.99792
1278.63822	1.00071
1276.70965	1.00426
1274.78109	1.00920
1272.85252	1.01525
1270.92396	1.02197
1268.99539	1.02887
1267.06683	1.03541
1265.13827	1.04041
1263.20970	1.04282
1261.28114	1.04374
1259.35257	1.04439
1257.42401	1.04473
1255.49544	1.04520
1253.56688	1.04631
1251.63831	1.04796
1249.70975	1.04968
1247.78119	1.05064
1245.85262	1.05040
1243.92406	1.04976
1241.99549	1.04949
1240.06693	1.04918
1238.13836	1.04822
1236.20980	1.04651
1234.28123	1.04410
1232.35267	1.04094
1230.42411	1.03703
1228.49554	1.03216
1226.56698	1.02589
1224.63841	1.01907
1222.70985	1.01310
1220.78128	1.00781
1218.85272	1.00235
1216.92415	0.99734
1214.99559	0.99435
1213.06703	0.99390
1211.13846	0.99481
1209.20990	0.99509
1207.28133	0.99296
1205.35277	0.98819
1203.42420	0.98211
1201.49564	0.97519
1199.56708	0.96745
1197.63851	0.95984
1195.70995	0.95328
1193.78138	0.94851
1191.85282	0.94557
1189.92425	0.94341
1187.99569	0.94167
1186.06712	0.94101
1184.13856	0.94217
1182.21000	0.94548
1180.28143	0.95064
1178.35287	0.95735
1176.42430	0.96525
1174.49574	0.97356
1172.56717	0.98178
1170.63861	0.99062
1168.71004	1.00133
1166.78148	1.01364
1164.85292	1.02481
1162.92435	1.03236
1160.99579	1.03582
1159.06722	1.03407
1157.13866	1.02631
1155.21009	1.01458
1153.28153	1.00125
1151.35296	0.98696
1149.42440	0.97291
1147.49584	0.96175
1145.56727	0.95461
1143.63871	0.95084
1141.71014	0.95057
1139.78158	0.95435
1137.85301	0.96175
1135.92445	0.97227
1133.99588	0.98516
1132.06732	0.99943
1130.13876	1.01555
1128.21019	1.03310
1126.28163	1.04931
1124.35306	1.06218
1122.42450	1.07139
1120.49593	1.07704
1118.56737	1.07951
1116.63880	1.07956
1114.71024	1.07701
1112.78168	1.07158
1110.85311	1.06545
1108.92455	1.06107
1106.99598	1.05782
1105.06742	1.05451
1103.13885	1.05268
1101.21029	1.05353
1099.28172	1.05641
1097.35316	1.06197
1095.42460	1.07120
1093.49603	1.08154
1091.56747	1.09029
1089.63890	1.09890
1087.71034	1.10875
1085.78177	1.11888
1083.85321	1.12799
1081.92464	1.13451
1079.99608	1.13741
1078.06752	1.13632
1076.13895	1.13125
1074.21039	1.12242
1072.28182	1.11018
1070.35326	1.09718
1068.42469	1.08714
1066.49613	1.08029
1064.56756	1.07424
1062.63900	1.06804
1060.71044	1.06160
1058.78187	1.05497
1056.85331	1.04963
1054.92474	1.04669
1052.99618	1.04518
1051.06761	1.04467
1049.13905	1.04614
1047.21049	1.04956
1045.28192	1.05474
1043.35336	1.06223
1041.42479	1.07069
1039.49623	1.07795
1037.56766	1.08389
1035.63910	1.08794
1033.71053	1.08829
1031.78197	1.08553
1029.85341	1.08114
1027.92484	1.07478
1025.99628	1.06713
1024.06771	1.05996
1022.13915	1.05331
1020.21058	1.04689
1018.28202	1.04180
1016.35345	1.03841
1014.42489	1.03451
1012.49633	1.02657
1010.56776	1.01354
1008.63920	0.99821
1006.71063	0.98379
1004.78207	0.97143
1002.85350	0.96023
1000.92494	0.94969
998.99637	0.94165
997.06781	0.93665
995.13925	0.93239
993.21068	0.92730
991.28212	0.92106
989.35355	0.91358
987.42499	0.90561
985.49642	0.89840
983.56786	0.89233
981.63929	0.88708
979.71073	0.88287
977.78217	0.87979
975.85360	0.87645
973.92504	0.87133
971.99647	0.86445
970.06791	0.85700
968.13934	0.85021
966.21078	0.84486
964.28221	0.84194
962.35365	0.84279
960.42509	0.84811
958.49652	0.85655
956.56796	0.86451
954.63939	0.86916
952.71083	0.86949
950.78226	0.86508
948.85370	0.85803
946.92513	0.85211
944.99657	0.84834
943.06801	0.84628
941.13944	0.84593
939.21088	0.84615
937.28231	0.84608
935.35375	0.84623
933.42518	0.84677
931.49662	0.84776
929.56805	0.84931
927.63949	0.85142
925.71093	0.85401
923.78236	0.85690
921.85380	0.86021
919.92523	0.86335
917.99667	0.86479
916.06810	0.86441
914.13954	0.86406
912.21098	0.86491
910.28241	0.86705
908.35385	0.87068
906.42528	0.87524
904.49672	0.87974
902.56815	0.88353
900.63959	0.88632
898.71102	0.88876
896.78246	0.89125
894.85390	0.89289
892.92533	0.89346
890.99677	0.89323
889.06820	0.89168
887.13964	0.88994
885.21107	0.88933
883.28251	0.88837
881.35394	0.88652
879.42538	0.88517
877.49682	0.88488
875.56825	0.88576
873.63969	0.88724
871.71112	0.88709
869.78256	0.88463
867.85399	0.88239
865.92543	0.88140
863.99686	0.87997
862.06830	0.87819
860.13974	0.87753
858.21117	0.87753
856.28261	0.87739
854.35404	0.87754
852.42548	0.87789
850.49691	0.87737
848.56835	0.87527
846.63978	0.87230
844.71122	0.86985
842.78266	0.86910
840.85409	0.87034
838.92553	0.87180
836.99696	0.87215
835.06840	0.87242
833.13983	0.87363
831.21127	0.87562
829.28270	0.87873
827.35414	0.88250
825.42558	0.88440
823.49701	0.88427
821.56845	0.88489
819.63988	0.88679
817.71132	0.88896
815.78275	0.89147
813.85419	0.89399
811.92562	0.89539
809.99706	0.89611
808.06850	0.89751
806.13993	0.89940
804.21137	0.90079
802.28280	0.90135
800.35424	0.90213
798.42567	0.90408
796.49711	0.90610
794.56854	0.90807
792.63998	0.91138
790.71142	0.91527
788.78285	0.91867
786.85429	0.92279
784.92572	0.92772
782.99716	0.93091
781.06859	0.93158
779.14003	0.93164
777.21147	0.93191
775.28290	0.93199
773.35434	0.93191
771.42577	0.93185
769.49721	0.93176
767.56864	0.93130
765.64008	0.92982
763.71151	0.92661
761.78295	0.92245
759.85439	0.91900
757.92582	0.91612
755.99726	0.91297
754.06869	0.90941
752.14013	0.90505
750.21156	0.89997
748.28300	0.89558
746.35443	0.89239
744.42587	0.88845
742.49731	0.88275
740.56874	0.87707
738.64018	0.87298
736.71161	0.86984
734.78305	0.86636
732.85448	0.86357
730.92592	0.86320
728.99735	0.86392
727.06879	0.86395
725.14023	0.86370
723.21166	0.86459
721.28310	0.86760
719.35453	0.87149
717.42597	0.87385
715.49740	0.87494
713.56884	0.87677
711.64027	0.88034
709.71171	0.88497
707.78315	0.88972
705.85458	0.89428
703.92602	0.89824
701.99745	0.90143
700.06889	0.90494
698.14032	0.91034
696.21176	0.91679
694.28319	0.92108
692.35463	0.92300
690.42607	0.92484
688.49750	0.92680
686.56894	0.92879
684.64037	0.93081
682.71181	0.93226
680.78324	0.93345
678.85468	0.93459
676.92611	0.93533
674.99755	0.93496
673.06899	0.93306
671.14042	0.93056
669.21186	0.92809
667.28329	0.92738
665.35473	0.92856
663.42616	0.92840
661.49760	0.92405
659.56903	0.91650
657.64047	0.91062
655.71191	0.90675
653.78334	0.90146
651.85478	0.89430
649.92621	0.88810
647.99765	0.88282
646.06908	0.87614
644.14052	0.87154
642.21195	0.87189
640.28339	0.87373
638.35483	0.87421
636.42626	0.87226
634.49770	0.86806
632.56913	0.86391
630.64057	0.86092
628.71200	0.85835
626.78344	0.85476
624.85488	0.85028
622.92631	0.84773
620.99775	0.84895
619.06918	0.85171
617.14062	0.85180
615.21205	0.84837
613.28349	0.84625
611.35492	0.84887
609.42636	0.85257
607.49780	0.85408
605.56923	0.85637
603.64067	0.86141
601.71210	0.86534
599.78354	0.86489
