3997.91406	0.69471
3995.98550	0.69404
3994.05693	0.69482
3992.12837	0.69615
3990.19980	0.69635
3988.27124	0.69438
3986.34268	0.69241
3984.41411	0.69247
3982.48555	0.69343
3980.55698	0.69455
3978.62842	0.69593
3976.69985	0.69682
3974.77129	0.69632
3972.84272	0.69489
3970.91416	0.69434
3968.98560	0.69403
3967.05703	0.69234
3965.12847	0.69081
3963.19990	0.69112
3961.27134	0.69213
3959.34277	0.69206
3957.41421	0.69174
3955.48564	0.69134
3953.55708	0.68977
3951.62852	0.68892
3949.69995	0.68993
3947.77139	0.69001
3945.84282	0.68790
3943.91426	0.68674
3941.98569	0.68770
3940.05713	0.68795
3938.12856	0.68786
3936.20000	0.68811
3934.27144	0.68820
3932.34287	0.68903
3930.41431	0.68826
3928.48574	0.68426
3926.55718	0.68223
3924.62861	0.68498
3922.70005	0.68642
3920.77148	0.68453
3918.84292	0.68559
3916.91436	0.68970
3914.98579	0.68968
3913.05723	0.68628
3911.12866	0.68327
3909.20010	0.67956
3907.27153	0.67567
3905.34297	0.67750
3903.41440	0.68533
3901.48584	0.68977
3899.55728	0.68977
3897.62871	0.68617
3895.70015	0.68026
3893.77158	0.67767
3891.84302	0.68150
3889.91445	0.68220
3887.98589	0.67831
3886.05733	0.67969
3884.12876	0.68325
3882.20020	0.68249
3880.27163	0.68248
3878.34307	0.67846
3876.41450	0.67172
3874.48594	0.67043
3872.55737	0.67344
3870.62881	0.67872
3868.70025	0.68145
3866.77168	0.67742
3864.84312	0.67736
3862.91455	0.68118
3860.98599	0.67753
3859.05742	0.66909
3857.12886	0.66076
3855.20029	0.65979
3853.27173	0.67723
3851.34317	0.68497
3849.41460	0.67731
3847.48604	0.66881
3845.55747	0.66494
3843.62891	0.66677
3841.70034	0.66967
3839.77178	0.67314
3837.84321	0.67902
3835.91465	0.67966
3833.98609	0.67704
3832.05752	0.67596
3830.12896	0.67386
3828.20039	0.67130
3826.27183	0.67030
3824.34326	0.66743
3822.41470	0.66740
3820.48613	0.67381
3818.55757	0.67278
3816.62901	0.67276
3814.70044	0.67528
3812.77188	0.66988
3810.84331	0.66190
3808.91475	0.65927
3806.98618	0.66411
3805.05762	0.66574
3803.12905	0.66523
3801.20049	0.67012
3799.27193	0.66954
3797.34336	0.66730
3795.41480	0.66772
3793.48623	0.66455
3791.55767	0.66008
3789.62910	0.65809
3787.70054	0.65810
3785.77197	0.65971
3783.84341	0.65976
3781.91485	0.65714
3779.98628	0.65789
3778.05772	0.66110
3776.12915	0.65993
3774.20059	0.65591
3772.27202	0.65378
3770.34346	0.65789
3768.41489	0.66312
3766.48633	0.66339
3764.55777	0.66084
3762.62920	0.65583
3760.70064	0.65332
3758.77207	0.65783
3756.84351	0.66012
3754.91494	0.65562
3752.98638	0.65110
3751.05781	0.65685
3749.12925	0.66337
3747.20069	0.66180
3745.27212	0.66613
3743.34356	0.67164
3741.41499	0.66478
3739.48643	0.65401
3737.55786	0.64796
3735.62930	0.65216
3733.70074	0.66069
3731.77217	0.66147
3729.84361	0.65577
3727.91504	0.65043
3725.98648	0.65071
3724.05791	0.65377
3722.12935	0.65491
3720.20078	0.65386
3718.27222	0.65038
3716.34366	0.64613
3714.41509	0.64401
3712.48653	0.64898
3710.55796	0.65898
3708.62940	0.66025
3706.70083	0.65532
3704.77227	0.65016
3702.84370	0.65020
3700.91514	0.65444
3698.98658	0.65436
3697.05801	0.65132
3695.12945	0.64838
3693.20088	0.64538
3691.27232	0.64612
3689.34375	0.65555
3687.41519	0.66076
3685.48662	0.65753
3683.55806	0.65356
3681.62950	0.65224
3679.70093	0.65254
3677.77237	0.65402
3675.84380	0.66471
3673.91524	0.67323
3671.98667	0.67049
3670.05811	0.67270
3668.12954	0.67698
3666.20098	0.67483
3664.27242	0.67265
3662.34385	0.67291
3660.41529	0.67304
3658.48672	0.67347
3656.55816	0.67822
3654.62959	0.68088
3652.70103	0.67750
3650.77246	0.68100
3648.84390	0.70276
3646.91534	0.71251
3644.98677	0.70884
3643.05821	0.70551
3641.12964	0.70598
3639.20108	0.70894
3637.27251	0.71127
3635.34395	0.71300
3633.41538	0.71422
3631.48682	0.71425
3629.55826	0.72259
3627.62969	0.73643
3625.70113	0.73598
3623.77256	0.73055
3621.84400	0.72873
3619.91543	0.73561
3617.98687	0.74614
3616.05830	0.75057
3614.12974	0.75334
3612.20118	0.75431
3610.27261	0.75353
3608.34405	0.75940
3606.41548	0.76832
3604.48692	0.77119
3602.55835	0.77239
3600.62979	0.77626
3598.70123	0.78049
3596.77266	0.78450
3594.84410	0.79030
3592.91553	0.79429
3590.98697	0.79340
3589.05840	0.79468
3587.12984	0.80448
3585.20127	0.81093
3583.27271	0.81207
3581.34415	0.81560
3579.41558	0.82051
3577.48702	0.82286
3575.55845	0.82462
3573.62989	0.82792
3571.70132	0.83124
3569.77276	0.83515
3567.84419	0.84491
3565.91563	0.85673
3563.98707	0.85932
3562.05850	0.85916
3560.12994	0.86154
3558.20137	0.86400
3556.27281	0.86550
3554.34424	0.86917
3552.41568	0.87613
3550.48711	0.88254
3548.55855	0.88747
3546.62999	0.89297
3544.70142	0.89712
3542.77286	0.89793
3540.84429	0.89871
3538.91573	0.90379
3536.98716	0.91324
3535.05860	0.92122
3533.13003	0.92422
3531.20147	0.92514
3529.27291	0.92750
3527.34434	0.93211
3525.41578	0.93775
3523.48721	0.94415
3521.55865	0.95044
3519.63008	0.95503
3517.70152	0.95848
3515.77295	0.96202
3513.84439	0.96556
3511.91583	0.96882
3509.98726	0.97285
3508.05870	0.97740
3506.13013	0.98207
3504.20157	0.98985
3502.27300	0.99871
3500.34444	1.00331
3498.41587	1.00671
3496.48731	1.01167
3494.55875	1.01594
3492.63018	1.01867
3490.70162	1.02168
3488.77305	1.02697
3486.84449	1.03304
3484.91592	1.03503
3482.98736	1.03500
3481.05879	1.03747
3479.13023	1.03871
3477.20167	1.03840
3475.27310	1.04224
3473.34454	1.04839
3471.41597	1.05078
3469.48741	1.05160
3467.55884	1.05515
3465.63028	1.05992
3463.70171	1.06274
3461.77315	1.06263
3459.84459	1.06287
3457.91602	1.06663
3455.98746	1.07150
3454.05889	1.07496
3452.13033	1.07701
3450.20176	1.07710
3448.27320	1.07701
3446.34464	1.08041
3444.41607	1.08625
3442.48751	1.09103
3440.55894	1.09225
3438.63038	1.09038
3436.70181	1.08894
3434.77325	1.08997
3432.84468	1.09219
3430.91612	1.09320
3428.98756	1.09301
3427.05899	1.09259
3425.13043	1.09265
3423.20186	1.09398
3421.27330	1.09576
3419.34473	1.09799
3417.41617	1.10062
3415.48760	1.10165
3413.55904	1.09930
3411.63048	1.09506
3409.70191	1.09425
3407.77335	1.09728
3405.84478	1.09855
3403.91622	1.09800
3401.98765	1.10030
3400.05909	1.10464
3398.13052	1.10790
3396.20196	1.10946
3394.27340	1.10933
3392.34483	1.11089
3390.41627	1.11581
3388.48770	1.11891
3386.55914	1.11937
3384.63057	1.12127
3382.70201	1.12231
3380.77344	1.12078
3378.84488	1.12234
3376.91632	1.12703
3374.98775	1.13009
3373.05919	1.13211
3371.13062	1.13361
3369.20206	1.13447
3367.27349	1.13708
3365.34493	1.13928
3363.41636	1.13733
3361.48780	1.13566
3359.55924	1.13933
3357.63067	1.14623
3355.70211	1.15256
3353.77354	1.15497
3351.84498	1.15417
3349.91641	1.15555
3347.98785	1.15881
3346.05928	1.15910
3344.13072	1.15663
3342.20216	1.15512
3340.27359	1.15676
3338.34503	1.16171
3336.41646	1.16679
3334.48790	1.16834
3332.55933	1.16839
3330.63077	1.17067
3328.70220	1.17442
3326.77364	1.17628
3324.84508	1.17641
3322.91651	1.17883
3320.98795	1.18277
3319.05938	1.18342
3317.13082	1.18290
3315.20225	1.18566
3313.27369	1.18843
3311.34513	1.18919
3309.41656	1.19275
3307.48800	1.19885
3305.55943	1.20268
3303.63087	1.20360
3301.70230	1.20326
3299.77374	1.20393
3297.84517	1.20637
3295.91661	1.20935
3293.98805	1.21203
3292.05948	1.21270
3290.13092	1.21088
3288.20235	1.20927
3286.27379	1.21009
3284.34522	1.21143
3282.41666	1.20927
3280.48809	1.20565
3278.55953	1.20511
3276.63097	1.20532
3274.70240	1.20342
3272.77384	1.20183
3270.84527	1.20109
3268.91671	1.19952
3266.98814	1.19846
3265.05958	1.19783
3263.13101	1.19447
3261.20245	1.18986
3259.27389	1.18597
3257.34532	1.18007
3255.41676	1.17391
3253.48819	1.17087
3251.55963	1.16821
3249.63106	1.16396
3247.70250	1.15872
3245.77393	1.15291
3243.84537	1.14766
3241.91681	1.14407
3239.98824	1.14222
3238.05968	1.14040
3236.13111	1.13633
3234.20255	1.12985
3232.27398	1.12352
3230.34542	1.12019
3228.41685	1.12013
3226.48829	1.12065
3224.55973	1.11881
3222.63116	1.11620
3220.70260	1.11595
3218.77403	1.11586
3216.84547	1.11221
3214.91690	1.10630
3212.98834	1.10244
3211.05977	1.10217
3209.13121	1.10285
3207.20265	1.10189
3205.27408	1.09914
3203.34552	1.09596
3201.41695	1.09317
3199.48839	1.09013
3197.55982	1.08650
3195.63126	1.08360
3193.70269	1.08198
3191.77413	1.07981
3189.84557	1.07655
3187.91700	1.07328
3185.98844	1.06957
3184.05987	1.06555
3182.13131	1.06223
3180.20274	1.05876
3178.27418	1.05400
3176.34562	1.04870
3174.41705	1.04444
3172.48849	1.04201
3170.55992	1.04079
3168.63136	1.04032
3166.70279	1.04020
3164.77423	1.03850
3162.84566	1.03518
3160.91710	1.03211
3158.98854	1.02966
3157.05997	1.02844
3155.13141	1.02808
3153.20284	1.02635
3151.27428	1.02339
3149.34571	1.02139
3147.41715	1.02072
3145.48858	1.01976
3143.56002	1.01708
3141.63146	1.01345
3139.70289	1.01032
3137.77433	1.00761
3135.84576	1.00565
3133.91720	1.00531
3131.98863	1.00598
3130.06007	1.00622
3128.13150	1.00535
3126.20294	1.00440
3124.27438	1.00414
3122.34581	1.00316
3120.41725	1.00091
3118.48868	0.99847
3116.56012	0.99697
3114.63155	0.99765
3112.70299	1.00067
3110.77442	1.00331
3108.84586	1.00273
3106.91730	1.00037
3104.98873	0.99916
3103.06017	0.99903
3101.13160	0.99964
3099.20304	1.00166
3097.27447	1.00336
3095.34591	1.00286
3093.41734	1.00148
3091.48878	1.00064
3089.56022	0.99921
3087.63165	0.99658
3085.70309	0.99408
3083.77452	0.99252
3081.84596	0.99186
3079.91739	0.99136
3077.98883	0.99034
3076.06026	0.99050
3074.13170	0.99218
3072.20314	0.99182
3070.27457	0.98814
3068.34601	0.98455
3066.41744	0.98313
3064.48888	0.98207
3062.56031	0.98043
3060.63175	0.97887
3058.70318	0.97652
3056.77462	0.97300
3054.84606	0.97014
3052.91749	0.96863
3050.98893	0.96703
3049.06036	0.96445
3047.13180	0.96101
3045.20323	0.95719
3043.27467	0.95426
3041.34610	0.95301
3039.41754	0.95258
3037.48898	0.95224
3035.56041	0.95171
3033.63185	0.95065
3031.70328	0.94921
3029.77472	0.94787
3027.84615	0.94622
3025.91759	0.94388
3023.98903	0.94187
3022.06046	0.94011
3020.13190	0.93760
3018.20333	0.93496
3016.27477	0.93298
3014.34620	0.93207
3012.41764	0.93188
3010.48907	0.93091
3008.56051	0.92817
3006.63195	0.92436
3004.70338	0.92212
3002.77482	0.92225
3000.84625	0.92233
2998.91769	0.92231
2996.98912	0.92355
2995.06056	0.92523
2993.13199	0.92732
2991.20343	0.93051
2989.27487	0.93378
2987.34630	0.93719
2985.41774	0.94167
2983.48917	0.94641
2981.56061	0.95083
2979.63204	0.95566
2977.70348	0.96162
2975.77491	0.96854
2973.84635	0.97590
2971.91779	0.98360
2969.98922	0.99125
2968.06066	0.99848
2966.13209	1.00422
2964.20353	1.00635
2962.27496	1.00672
2960.34640	1.00910
2958.41783	1.01181
2956.48927	1.01131
2954.56071	1.00763
2952.63214	1.00217
2950.70358	0.99661
2948.77501	0.99314
2946.84645	0.99331
2944.91788	0.99676
2942.98932	1.00146
2941.06075	1.00603
2939.13219	1.01105
2937.20363	1.01688
2935.27506	1.02256
2933.34650	1.02797
2931.41793	1.03384
2929.48937	1.04003
2927.56080	1.04541
2925.63224	1.04890
2923.70367	1.05089
2921.77511	1.05180
2919.84655	1.05080
2917.91798	1.04698
2915.98942	1.03776
2914.06085	1.02225
2912.13229	1.00585
2910.20372	0.99398
2908.27516	0.98631
2906.34659	0.97948
2904.41803	0.97225
2902.48947	0.96622
2900.56090	0.96205
2898.63234	0.95923
2896.70377	0.95702
2894.77521	0.95419
2892.84664	0.95093
2890.91808	0.94853
2888.98952	0.94646
2887.06095	0.94413
2885.13239	0.94321
2883.20382	0.94394
2881.27526	0.94431
2879.34669	0.94442
2877.41813	0.94541
2875.48956	0.94661
2873.56100	0.94656
2871.63244	0.94402
2869.70387	0.93864
2867.77531	0.93240
2865.84674	0.92852
2863.91818	0.92715
2861.98961	0.92639
2860.06105	0.92713
2858.13248	0.93023
2856.20392	0.93387
2854.27536	0.93767
2852.34679	0.94224
2850.41823	0.94417
2848.48966	0.93845
2846.56110	0.92488
2844.63253	0.90803
2842.70397	0.89247
2840.77540	0.87992
2838.84684	0.87070
2836.91828	0.86493
2834.98971	0.86079
2833.06115	0.85600
2831.13258	0.85133
2829.20402	0.84826
2827.27545	0.84633
2825.34689	0.84434
2823.41832	0.84189
2821.48976	0.83964
2819.56120	0.83761
2817.63263	0.83490
2815.70407	0.83189
2813.77550	0.82971
2811.84694	0.82822
2809.91837	0.82639
2807.98981	0.82406
2806.06124	0.82153
2804.13268	0.81896
2802.20412	0.81659
2800.27555	0.81453
2798.34699	0.81263
2796.41842	0.81040
2794.48986	0.80770
2792.56129	0.80514
2790.63273	0.80350
2788.70416	0.80292
2786.77560	0.80199
2784.84704	0.80008
2782.91847	0.79853
2780.98991	0.79743
2779.06134	0.79535
2777.13278	0.79237
2775.20421	0.78996
2773.27565	0.78846
2771.34708	0.78714
2769.41852	0.78594
2767.48996	0.78470
2765.56139	0.78273
2763.63283	0.78045
2761.70426	0.77883
2759.77570	0.77744
2757.84713	0.77558
2755.91857	0.77360
2753.99001	0.77164
2752.06144	0.76942
2750.13288	0.76737
2748.20431	0.76631
2746.27575	0.76586
2744.34718	0.76518
2742.41862	0.76399
2740.49005	0.76238
2738.56149	0.76073
2736.63293	0.75908
2734.70436	0.75786
2732.77580	0.75797
2730.84723	0.75844
2728.91867	0.75791
2726.99010	0.75715
2725.06154	0.75670
2723.13297	0.75603
2721.20441	0.75508
2719.27585	0.75415
2717.34728	0.75311
2715.41872	0.75181
2713.49015	0.75053
2711.56159	0.74940
2709.63302	0.74845
2707.70446	0.74830
2705.77589	0.74843
2703.84733	0.74744
2701.91877	0.74586
2699.99020	0.74473
2698.06164	0.74385
2696.13307	0.74321
2694.20451	0.74306
2692.27594	0.74268
2690.34738	0.74127
2688.41881	0.73954
2686.49025	0.73821
2684.56169	0.73681
2682.63312	0.73532
2680.70456	0.73441
2678.77599	0.73374
2676.84743	0.73268
2674.91886	0.73145
2672.99030	0.73014
2671.06173	0.72893
2669.13317	0.72817
2667.20461	0.72747
2665.27604	0.72661
2663.34748	0.72589
2661.41891	0.72526
2659.49035	0.72480
2657.56178	0.72465
2655.63322	0.72436
2653.70465	0.72333
2651.77609	0.72184
2649.84753	0.72069
2647.91896	0.71979
2645.99040	0.71841
2644.06183	0.71696
2642.13327	0.71606
2640.20470	0.71520
2638.27614	0.71420
2636.34757	0.71334
2634.41901	0.71208
2632.49045	0.71040
2630.56188	0.70909
2628.63332	0.70798
2626.70475	0.70647
2624.77619	0.70491
2622.84762	0.70357
2620.91906	0.70233
2618.99049	0.70125
2617.06193	0.70001
2615.13337	0.69848
2613.20480	0.69726
2611.27624	0.69619
2609.34767	0.69469
2607.41911	0.69306
2605.49054	0.69207
2603.56198	0.69191
2601.63342	0.69178
2599.70485	0.69110
2597.77629	0.69025
2595.84772	0.68925
2593.91916	0.68779
2591.99059	0.68625
2590.06203	0.68499
2588.13346	0.68406
2586.20490	0.68339
2584.27634	0.68282
2582.34777	0.68254
2580.41921	0.68234
2578.49064	0.68147
2576.56208	0.67979
2574.63351	0.67803
2572.70495	0.67679
2570.77638	0.67588
2568.84782	0.67509
2566.91926	0.67413
2564.99069	0.67266
2563.06213	0.67112
2561.13356	0.67009
2559.20500	0.66931
2557.27643	0.66821
2555.34787	0.66702
2553.41930	0.66632
2551.49074	0.66588
2549.56218	0.66539
2547.63361	0.66486
2545.70505	0.66396
2543.77648	0.66283
2541.84792	0.66233
2539.91935	0.66251
2537.99079	0.66228
2536.06222	0.66165
2534.13366	0.66162
2532.20510	0.66210
2530.27653	0.66226
2528.34797	0.66219
2526.41940	0.66244
2524.49084	0.66279
2522.56227	0.66277
2520.63371	0.66216
2518.70514	0.66112
2516.77658	0.66042
2514.84802	0.66017
2512.91945	0.65991
2510.99089	0.65955
2509.06232	0.65882
2507.13376	0.65777
2505.20519	0.65683
2503.27663	0.65578
2501.34806	0.65452
2499.41950	0.65340
2497.49094	0.65229
2495.56237	0.65105
2493.63381	0.65008
2491.70524	0.64929
2489.77668	0.64803
2487.84811	0.64612
2485.91955	0.64393
2483.99098	0.64209
2482.06242	0.64098
2480.13386	0.64014
2478.20529	0.63905
2476.27673	0.63814
2474.34816	0.63789
2472.41960	0.63767
2470.49103	0.63675
2468.56247	0.63533
2466.63391	0.63424
2464.70534	0.63404
2462.77678	0.63451
2460.84821	0.63455
2458.91965	0.63338
2456.99108	0.63190
2455.06252	0.63103
2453.13395	0.63069
2451.20539	0.63052
2449.27683	0.62997
2447.34826	0.62928
2445.41970	0.62906
2443.49113	0.62877
2441.56257	0.62780
2439.63400	0.62645
2437.70544	0.62513
2435.77687	0.62388
2433.84831	0.62262
2431.91975	0.62139
2429.99118	0.62016
2428.06262	0.61864
2426.13405	0.61682
2424.20549	0.61502
2422.27692	0.61327
2420.34836	0.61160
2418.41979	0.61000
2416.49123	0.60831
2414.56267	0.60689
2412.63410	0.60584
2410.70554	0.60467
2408.77697	0.60341
2406.84841	0.60247
2404.91984	0.60190
2402.99128	0.60158
2401.06271	0.60137
2399.13415	0.60101
2397.20559	0.60046
2395.27702	0.60010
2393.34846	0.60018
2391.41989	0.60030
2389.49133	0.60010
2387.56276	0.59966
2385.63420	0.59913
2383.70563	0.59851
2381.77707	0.59791
2379.84851	0.59782
2377.91994	0.59846
2375.99138	0.59947
2374.06281	0.60067
2372.13425	0.60209
2370.20568	0.60304
2368.27712	0.60256
2366.34855	0.60163
2364.41999	0.60252
2362.49143	0.60431
2360.56286	0.60377
2358.63430	0.60177
2356.70573	0.60135
2354.77717	0.60129
2352.84860	0.59971
2350.92004	0.59635
2348.99147	0.59249
2347.06291	0.59049
2345.13435	0.59158
2343.20578	0.59372
2341.27722	0.59619
2339.34865	0.59842
2337.42009	0.59669
2335.49152	0.59242
2333.56296	0.59135
2331.63440	0.59484
2329.70583	0.59832
2327.77727	0.59838
2325.84870	0.59688
2323.92014	0.59647
2321.99157	0.59678
2320.06301	0.59635
2318.13444	0.59566
2316.20588	0.59523
2314.27732	0.59462
2312.34875	0.59397
2310.42019	0.59346
2308.49162	0.59258
2306.56306	0.59151
2304.63449	0.59040
2302.70593	0.58888
2300.77736	0.58735
2298.84880	0.58626
2296.92024	0.58520
2294.99167	0.58403
2293.06311	0.58289
2291.13454	0.58158
2289.20598	0.58009
2287.27741	0.57870
2285.34885	0.57761
2283.42028	0.57663
2281.49172	0.57563
2279.56316	0.57476
2277.63459	0.57419
2275.70603	0.57393
2273.77746	0.57374
2271.84890	0.57365
2269.92033	0.57394
2267.99177	0.57435
2266.06320	0.57454
2264.13464	0.57476
2262.20608	0.57527
2260.27751	0.57576
2258.34895	0.57585
2256.42038	0.57564
2254.49182	0.57556
2252.56325	0.57576
2250.63469	0.57601
2248.70612	0.57623
2246.77756	0.57630
2244.84900	0.57614
2242.92043	0.57599
2240.99187	0.57601
2239.06330	0.57599
2237.13474	0.57576
2235.20617	0.57535
2233.27761	0.57467
2231.34904	0.57375
2229.42048	0.57300
2227.49192	0.57243
2225.56335	0.57177
2223.63479	0.57121
2221.70622	0.57085
2219.77766	0.57040
2217.84909	0.56997
2215.92053	0.56971
2213.99196	0.56958
2212.06340	0.56961
2210.13484	0.56965
2208.20627	0.56995
2206.27771	0.57064
2204.34914	0.57115
2202.42058	0.57144
2200.49201	0.57195
2198.56345	0.57252
2196.63488	0.57280
2194.70632	0.57295
2192.77776	0.57345
2190.84919	0.57447
2188.92063	0.57545
2186.99206	0.57585
2185.06350	0.57598
2183.13493	0.57642
2181.20637	0.57692
2179.27781	0.57696
2177.34924	0.57688
2175.42068	0.57714
2173.49211	0.57734
2171.56355	0.57727
2169.63498	0.57728
2167.70642	0.57720
2165.77785	0.57681
2163.84929	0.57658
2161.92073	0.57683
2159.99216	0.57719
2158.06360	0.57731
2156.13503	0.57737
2154.20647	0.57758
2152.27790	0.57777
2150.34934	0.57780
2148.42077	0.57783
2146.49221	0.57804
2144.56365	0.57841
2142.63508	0.57897
2140.70652	0.57971
2138.77795	0.58037
2136.84939	0.58072
2134.92082	0.58077
2132.99226	0.58083
2131.06369	0.58110
2129.13513	0.58140
2127.20657	0.58174
2125.27800	0.58205
2123.34944	0.58212
2121.42087	0.58209
2119.49231	0.58205
2117.56374	0.58185
2115.63518	0.58159
2113.70661	0.58149
2111.77805	0.58149
2109.84949	0.58135
2107.92092	0.58124
2105.99236	0.58124
2104.06379	0.58109
2102.13523	0.58080
2100.20666	0.58065
2098.27810	0.58069
2096.34953	0.58081
2094.42097	0.58077
2092.49241	0.58064
2090.56384	0.58091
2088.63528	0.58152
2086.70671	0.58188
2084.77815	0.58199
2082.84958	0.58216
2080.92102	0.58246
2078.99245	0.58292
2077.06389	0.58334
2075.13533	0.58354
2073.20676	0.58386
2071.27820	0.58436
2069.34963	0.58459
2067.42107	0.58433
2065.49250	0.58397
2063.56394	0.58391
2061.63537	0.58395
2059.70681	0.58396
2057.77825	0.58394
2055.84968	0.58376
2053.92112	0.58337
2051.99255	0.58274
2050.06399	0.58205
2048.13542	0.58156
2046.20686	0.58126
2044.27830	0.58112
2042.34973	0.58105
2040.42117	0.58067
2038.49260	0.57994
2036.56404	0.57950
2034.63547	0.57958
2032.70691	0.57962
2030.77834	0.57951
2028.84978	0.57972
2026.92122	0.58039
2024.99265	0.58117
2023.06409	0.58182
2021.13552	0.58223
2019.20696	0.58265
2017.27839	0.58340
2015.34983	0.58392
2013.42126	0.58405
2011.49270	0.58429
2009.56414	0.58465
2007.63557	0.58496
2005.70701	0.58514
2003.77844	0.58516
2001.84988	0.58492
1999.92131	0.58445
1997.99275	0.58373
1996.06418	0.58258
1994.13562	0.58153
1992.20706	0.58121
1990.27849	0.58062
1988.34993	0.57921
1986.42136	0.57780
1984.49280	0.57664
1982.56423	0.57562
1980.63567	0.57485
1978.70710	0.57430
1976.77854	0.57393
1974.84998	0.57369
1972.92141	0.57368
1970.99285	0.57389
1969.06428	0.57441
1967.13572	0.57541
1965.20715	0.57617
1963.27859	0.57622
1961.35002	0.57637
1959.42146	0.57697
1957.49290	0.57758
1955.56433	0.57813
1953.63577	0.57881
1951.70720	0.57954
1949.77864	0.58011
1947.85007	0.58044
1945.92151	0.58054
1943.99294	0.58082
1942.06438	0.58135
1940.13582	0.58098
1938.20725	0.57985
1936.27869	0.57907
1934.35012	0.57854
1932.42156	0.57760
1930.49299	0.57643
1928.56443	0.57539
1926.63586	0.57426
1924.70730	0.57344
1922.77874	0.57325
1920.85017	0.57252
1918.92161	0.57176
1916.99304	0.57179
1915.06448	0.57123
1913.13591	0.57010
1911.20735	0.56963
1909.27878	0.57009
1907.35022	0.57057
1905.42166	0.57062
1903.49309	0.57084
1901.56453	0.57112
1899.63596	0.57118
1897.70740	0.57179
1895.77883	0.57345
1893.85027	0.57481
1891.92171	0.57541
1889.99314	0.57707
1888.06458	0.57906
1886.13601	0.57968
1884.20745	0.58016
1882.27888	0.58093
1880.35032	0.58140
1878.42175	0.58171
1876.49319	0.58218
1874.56463	0.58240
1872.63606	0.58194
1870.70750	0.58216
1868.77893	0.58462
1866.85037	0.58592
1864.92180	0.58402
1862.99324	0.58190
1861.06467	0.58092
1859.13611	0.58044
1857.20755	0.57957
1855.27898	0.57832
1853.35042	0.57719
1851.42185	0.57613
1849.49329	0.57505
1847.56472	0.57407
1845.63616	0.57402
1843.70759	0.57512
1841.77903	0.57482
1839.85047	0.57354
1837.92190	0.57315
1835.99334	0.57309
1834.06477	0.57210
1832.13621	0.57139
1830.20764	0.57309
1828.27908	0.57483
1826.35051	0.57454
1824.42195	0.57442
1822.49339	0.57423
1820.56482	0.57332
1818.63626	0.57285
1816.70769	0.57285
1814.77913	0.57220
1812.85056	0.57114
1810.92200	0.57075
1808.99343	0.57036
1807.06487	0.56889
1805.13631	0.56677
1803.20774	0.56496
1801.27918	0.56449
1799.35061	0.56445
1797.42205	0.56275
1795.49348	0.55992
1793.56492	0.55844
1791.63635	0.55883
1789.70779	0.55715
1787.77923	0.55411
1785.85066	0.55238
1783.92210	0.55164
1781.99353	0.55081
1780.06497	0.55030
1778.13640	0.54951
1776.20784	0.54788
1774.27927	0.54753
1772.35071	0.55084
1770.42215	0.55375
1768.49358	0.55386
1766.56502	0.55329
1764.63645	0.55284
1762.70789	0.55459
1760.77932	0.55814
1758.85076	0.56055
1756.92220	0.56374
1754.99363	0.56689
1753.06507	0.56890
1751.13650	0.57412
1749.20794	0.58371
1747.27937	0.59086
1745.35081	0.59456
1743.42224	0.59752
1741.49368	0.60105
1739.56512	0.60458
1737.63655	0.60529
1735.70799	0.60514
1733.77942	0.61024
1731.85086	0.61501
1729.92229	0.61581
1727.99373	0.61665
1726.06516	0.61825
1724.13660	0.62172
1722.20804	0.62563
1720.27947	0.62900
1718.35091	0.63796
1716.42234	0.65634
1714.49378	0.66865
1712.56521	0.67568
1710.63665	0.68450
1708.70808	0.69670
1706.77952	0.71638
1704.85096	0.74278
1702.92239	0.76512
1700.99383	0.79584
1699.06526	0.84574
1697.13670	0.89015
1695.20813	0.92954
1693.27957	0.95586
1691.35100	0.97500
1689.42244	0.99861
1687.49388	1.01986
1685.56531	1.04040
1683.63675	1.07055
1681.70818	1.08808
1679.77962	1.09554
1677.85105	1.10200
1675.92249	1.10981
1673.99392	1.11830
1672.06536	1.12369
1670.13680	1.12953
1668.20823	1.13527
1666.27967	1.13516
1664.35110	1.13428
1662.42254	1.13579
1660.49397	1.13635
1658.56541	1.13483
1656.63684	1.13297
1654.70828	1.13407
1652.77972	1.13912
1650.85115	1.13710
1648.92259	1.13420
1646.99402	1.13603
1645.06546	1.13543
1643.13689	1.13033
1641.20833	1.12674
1639.27976	1.12538
1637.35120	1.12627
1635.42264	1.12783
1633.49407	1.12405
1631.56551	1.11849
1629.63694	1.11370
1627.70838	1.10998
1625.77981	1.10639
1623.85125	1.10191
1621.92269	1.09596
1619.99412	1.08982
1618.06556	1.08460
1616.13699	1.07803
1614.20843	1.06838
1612.27986	1.05807
1610.35130	1.04877
1608.42273	1.04088
1606.49417	1.03343
1604.56561	1.02661
1602.63704	1.02126
1600.70848	1.01697
1598.77991	1.01326
1596.85135	1.01090
1594.92278	1.00992
1592.99422	1.00952
1591.06565	1.00948
1589.13709	1.00998
1587.20853	1.01193
1585.27996	1.01614
1583.35140	1.02169
1581.42283	1.02661
1579.49427	1.03039
1577.56570	1.03779
1575.63714	1.05136
1573.70857	1.05707
1571.78001	1.05830
1569.85145	1.06559
1567.92288	1.07525
1565.99432	1.08094
1564.06575	1.08571
1562.13719	1.08896
1560.20862	1.09571
1558.28006	1.11535
1556.35149	1.11991
1554.42293	1.11644
1552.49437	1.11363
1550.56580	1.11207
1548.63724	1.11139
1546.70867	1.11013
1544.78011	1.10735
1542.85154	1.10328
1540.92298	1.10399
1538.99441	1.10751
1537.06585	1.10443
1535.13729	1.09948
1533.20872	1.09370
1531.28016	1.08720
1529.35159	1.08185
1527.42303	1.07856
1525.49446	1.07722
1523.56590	1.07703
1521.63733	1.07544
1519.70877	1.07042
1517.78021	1.06564
1515.85164	1.06040
1513.92308	1.05256
1511.99451	1.04364
1510.06595	1.03504
1508.13738	1.02598
1506.20882	1.01392
1504.28025	1.00324
1502.35169	0.99426
1500.42313	0.98572
1498.49456	0.97754
1496.56600	0.96951
1494.63743	0.96124
1492.70887	0.95308
1490.78030	0.94493
1488.85174	0.93741
1486.92317	0.93108
1484.99461	0.92532
1483.06605	0.92073
1481.13748	0.91788
1479.20892	0.91716
1477.28035	0.91957
1475.35179	0.92594
1473.42322	0.93726
1471.49466	0.94823
1469.56610	0.95164
1467.63753	0.95298
1465.70897	0.95800
1463.78040	0.96463
1461.85184	0.96639
1459.92327	0.96621
1457.99471	0.97241
1456.06614	0.98243
1454.13758	0.98272
1452.20902	0.98066
1450.28045	0.97968
1448.35189	0.97899
1446.42332	0.97680
1444.49476	0.97284
1442.56619	0.96853
1440.63763	0.96490
1438.70906	0.96164
1436.78050	0.95688
1434.85194	0.94947
1432.92337	0.94189
1430.99481	0.93533
1429.06624	0.93010
1427.13768	0.92651
1425.20911	0.92483
1423.28055	0.92420
1421.35198	0.92325
1419.42342	0.92461
1417.49486	0.92849
1415.56629	0.92983
1413.63773	0.93011
1411.70916	0.93064
1409.78060	0.93116
1407.85203	0.93239
1405.92347	0.93551
1403.99490	0.93950
1402.06634	0.94191
1400.13778	0.94371
1398.20921	0.94562
1396.28065	0.94678
1394.35208	0.94735
1392.42352	0.94701
1390.49495	0.94690
1388.56639	0.94974
1386.63782	0.95547
1384.70926	0.95965
1382.78070	0.96144
1380.85213	0.96168
1378.92357	0.96033
1376.99500	0.95775
1375.06644	0.95337
1373.13787	0.94595
1371.20931	0.93714
1369.28074	0.92830
1367.35218	0.91895
1365.42362	0.90958
1363.49505	0.90128
1361.56649	0.89490
1359.63792	0.89030
1357.70936	0.88721
1355.78079	0.88564
1353.85223	0.88527
1351.92366	0.88579
1349.99510	0.88690
1348.06654	0.88835
1346.13797	0.89014
1344.20941	0.89215
1342.28084	0.89455
1340.35228	0.89826
1338.42371	0.90259
1336.49515	0.90563
1334.56659	0.90841
1332.63802	0.91193
1330.70946	0.91572
1328.78089	0.91915
1326.85233	0.92190
1324.92376	0.92373
1322.99520	0.92468
1321.06663	0.92552
1319.13807	0.92721
1317.20951	0.92894
1315.28094	0.92933
1313.35238	0.92854
1311.42381	0.92725
1309.49525	0.92600
1307.56668	0.92498
1305.63812	0.92375
1303.70955	0.92229
1301.78099	0.92114
1299.85243	0.91978
1297.92386	0.91738
1295.99530	0.91459
1294.06673	0.91229
1292.13817	0.91072
1290.20960	0.91007
1288.28104	0.91031
1286.35247	0.91073
1284.42391	0.91087
1282.49535	0.91097
1280.56678	0.91098
1278.63822	0.91116
1276.70965	0.91202
1274.78109	0.91338
1272.85252	0.91492
1270.92396	0.91665
1268.99539	0.91871
1267.06683	0.92062
1265.13827	0.92147
1263.20970	0.92103
1261.28114	0.91977
1259.35257	0.91793
1257.42401	0.91580
1255.49544	0.91381
1253.56688	0.91176
1251.63831	0.90974
1249.70975	0.90807
1247.78119	0.90634
1245.85262	0.90434
1243.92406	0.90224
1241.99549	0.90004
1240.06693	0.89761
1238.13836	0.89506
1236.20980	0.89263
1234.28123	0.88990
1232.35267	0.88642
1230.42411	0.88282
1228.49554	0.87961
1226.56698	0.87603
1224.63841	0.87176
1222.70985	0.86738
1220.78128	0.86321
1218.85272	0.85965
1216.92415	0.85696
1214.99559	0.85514
1213.06703	0.85410
1211.13846	0.85354
1209.20990	0.85308
1207.28133	0.85226
1205.35277	0.85071
1203.42420	0.84756
1201.49564	0.84204
1199.56708	0.83523
1197.63851	0.82824
1195.70995	0.82098
1193.78138	0.81399
1191.85282	0.80782
1189.92425	0.80242
1187.99569	0.79837
1186.06712	0.79593
1184.13856	0.79468
1182.21000	0.79501
1180.28143	0.79733
1178.35287	0.80149
1176.42430	0.80755
1174.49574	0.81527
1172.56717	0.82422
1170.63861	0.83438
1168.71004	0.84552
1166.78148	0.85743
1164.85292	0.87021
1162.92435	0.88227
1160.99579	0.89114
1159.06722	0.89660
1157.13866	0.89990
1155.21009	0.90105
1153.28153	0.89943
1151.35296	0.89598
1149.42440	0.89265
1147.49584	0.89086
1145.56727	0.89049
1143.63871	0.89045
1141.71014	0.89091
1139.78158	0.89241
1137.85301	0.89431
1135.92445	0.89660
1133.99588	0.89988
1132.06732	0.90388
1130.13876	0.90791
1128.21019	0.91219
1126.28163	0.91692
1124.35306	0.92092
1122.42450	0.92371
1120.49593	0.92619
1118.56737	0.92807
1116.63880	0.92811
1114.71024	0.92645
1112.78168	0.92416
1110.85311	0.92217
1108.92455	0.92091
1106.99598	0.92041
1105.06742	0.92105
1103.13885	0.92247
1101.21029	0.92407
1099.28172	0.92729
1097.35316	0.93337
1095.42460	0.94169
1093.49603	0.95128
1091.56747	0.96098
1089.63890	0.96983
1087.71034	0.97777
1085.78177	0.98425
1083.85321	0.98794
1081.92464	0.98928
1079.99608	0.98913
1078.06752	0.98642
1076.13895	0.98179
1074.21039	0.97737
1072.28182	0.97255
1070.35326	0.96681
1068.42469	0.96122
1066.49613	0.95455
1064.56756	0.94582
1062.63900	0.93691
1060.71044	0.92847
1058.78187	0.91999
1056.85331	0.91277
1054.92474	0.90737
1052.99618	0.90161
1051.06761	0.89497
1049.13905	0.89028
1047.21049	0.88936
1045.28192	0.89136
1043.35336	0.89475
1041.42479	0.89910
1039.49623	0.90415
1037.56766	0.90809
1035.63910	0.90956
1033.71053	0.90986
1031.78197	0.91048
1029.85341	0.91092
1027.92484	0.91029
1025.99628	0.90893
1024.06771	0.90756
1022.13915	0.90624
1020.21058	0.90460
1018.28202	0.90250
1016.35345	0.90009
1014.42489	0.89640
1012.49633	0.88948
1010.56776	0.87918
1008.63920	0.86707
1006.71063	0.85444
1004.78207	0.84175
1002.85350	0.82894
1000.92494	0.81626
998.99637	0.80428
997.06781	0.79328
995.13925	0.78291
993.21068	0.77272
991.28212	0.76225
989.35355	0.75108
987.42499	0.74024
985.49642	0.73141
983.56786	0.72496
981.63929	0.72083
979.71073	0.71915
977.78217	0.71976
975.85360	0.72221
973.92504	0.72561
971.99647	0.72930
970.06791	0.73360
968.13934	0.73912
966.21078	0.74649
964.28221	0.75670
962.35365	0.77095
960.42509	0.79005
958.49652	0.81324
956.56796	0.83667
954.63939	0.85578
952.71083	0.86916
950.78226	0.87794
948.85370	0.88400
946.92513	0.88892
944.99657	0.89285
943.06801	0.89472
941.13944	0.89323
939.21088	0.88826
937.28231	0.87998
935.35375	0.86847
933.42518	0.85557
931.49662	0.84290
929.56805	0.83104
927.63949	0.82083
925.71093	0.81220
923.78236	0.80428
921.85380	0.79741
919.92523	0.79230
917.99667	0.78886
916.06810	0.78730
914.13954	0.78789
912.21098	0.79064
910.28241	0.79611
908.35385	0.80409
906.42528	0.81340
904.49672	0.82412
902.56815	0.83615
900.63959	0.84781
898.71102	0.85762
896.78246	0.86580
894.85390	0.87338
892.92533	0.88040
890.99677	0.88622
889.06820	0.89065
887.13964	0.89368
885.21107	0.89515
883.28251	0.89490
881.35394	0.89314
879.42538	0.89036
877.49682	0.88673
875.56825	0.88157
873.63969	0.87515
871.71112	0.86923
869.78256	0.86370
867.85399	0.85693
865.92543	0.84931
863.99686	0.84237
862.06830	0.83750
860.13974	0.83624
858.21117	0.83813
856.28261	0.84097
854.35404	0.84441
852.42548	0.84875
850.49691	0.85306
848.56835	0.85712
846.63978	0.86104
844.71122	0.86521
842.78266	0.87116
840.85409	0.87854
838.92553	0.88560
836.99696	0.89263
835.06840	0.89998
833.13983	0.90712
831.21127	0.91395
829.28270	0.92004
827.35414	0.92456
825.42558	0.92657
823.49701	0.92641
821.56845	0.92560
819.63988	0.92445
817.71132	0.92347
815.78275	0.92341
813.85419	0.92356
811.92562	0.92286
809.99706	0.92140
808.06850	0.91999
806.13993	0.91880
804.21137	0.91800
802.28280	0.91878
800.35424	0.92055
798.42567	0.92138
796.49711	0.92253
794.56854	0.92656
792.63998	0.93325
790.71142	0.94031
788.78285	0.94599
786.85429	0.95072
784.92572	0.95561
782.99716	0.96068
781.06859	0.96578
779.14003	0.97079
777.21147	0.97548
775.28290	0.97958
773.35434	0.98214
771.42577	0.98269
769.49721	0.98293
767.56864	0.98387
765.64008	0.98358
763.71151	0.98124
761.78295	0.97804
759.85439	0.97394
757.92582	0.96890
755.99726	0.96429
754.06869	0.96110
752.14013	0.95876
750.21156	0.95644
748.28300	0.95391
746.35443	0.95143
744.42587	0.94982
742.49731	0.94859
740.56874	0.94559
738.64018	0.94157
736.71161	0.93930
734.78305	0.93819
732.85448	0.93691
730.92592	0.93679
728.99735	0.93783
727.06879	0.93751
725.14023	0.93553
723.21166	0.93400
721.28310	0.93255
719.35453	0.92936
717.42597	0.92546
715.49740	0.92282
713.56884	0.92100
711.64027	0.91861
709.71171	0.91615
707.78315	0.91431
705.85458	0.91284
703.92602	0.91272
701.99745	0.91415
700.06889	0.91474
698.14032	0.91268
696.21176	0.90961
694.28319	0.90767
692.35463	0.90713
690.42607	0.90852
688.49750	0.91197
686.56894	0.91573
684.64037	0.91841
682.71181	0.92063
680.78324	0.92373
678.85468	0.92921
676.92611	0.93695
674.99755	0.94396
673.06899	0.94882
671.14042	0.95291
669.21186	0.95906
667.28329	0.96479
665.35473	0.96434
663.42616	0.96253
661.49760	0.96080
659.56903	0.95766
657.64047	0.95478
655.71191	0.95389
653.78334	0.95197
651.85478	0.94701
649.92621	0.94028
647.99765	0.93237
646.06908	0.92456
644.14052	0.91923
642.21195	0.91692
640.28339	0.91504
638.35483	0.91117
636.42626	0.90818
634.49770	0.90922
632.56913	0.91083
630.64057	0.90982
628.71200	0.90883
626.78344	0.90997
624.85488	0.91288
622.92631	0.91903
620.99775	0.92700
619.06918	0.93146
617.14062	0.93416
615.21205	0.94111
613.28349	0.95009
611.35492	0.95608
609.42636	0.95946
607.49780	0.96330
605.56923	0.96774
603.64067	0.96895
601.71210	0.96634
599.78354	0.96507
