3997.91406	0.62750
3995.98550	0.62735
3994.05693	0.62728
3992.12837	0.62721
3990.19980	0.62803
3988.27124	0.63013
3986.34268	0.63197
3984.41411	0.63188
3982.48555	0.63016
3980.55698	0.62809
3978.62842	0.62709
3976.69985	0.62806
3974.77129	0.62969
3972.84272	0.62987
3970.91416	0.62858
3968.98560	0.62713
3967.05703	0.62614
3965.12847	0.62560
3963.19990	0.62535
3961.27134	0.62486
3959.34277	0.62398
3957.41421	0.62363
3955.48564	0.62309
3953.55708	0.62059
3951.62852	0.61782
3949.69995	0.61817
3947.77139	0.62010
3945.84282	0.61931
3943.91426	0.61726
3941.98569	0.61667
3940.05713	0.61650
3938.12856	0.61590
3936.20000	0.61422
3934.27144	0.61244
3932.34287	0.61347
3930.41431	0.61538
3928.48574	0.61525
3926.55718	0.61551
3924.62861	0.61662
3922.70005	0.61500
3920.77148	0.61213
3918.84292	0.61313
3916.91436	0.61730
3914.98579	0.61840
3913.05723	0.61551
3911.12866	0.61199
3909.20010	0.60956
3907.27153	0.60931
3905.34297	0.61301
3903.41440	0.61697
3901.48584	0.61653
3899.55728	0.61585
3897.62871	0.61423
3895.70015	0.60968
3893.77158	0.60680
3891.84302	0.61001
3889.91445	0.61093
3887.98589	0.60665
3886.05733	0.60703
3884.12876	0.61112
3882.20020	0.61160
3880.27163	0.61217
3878.34307	0.60979
3876.41450	0.60507
3874.48594	0.60398
3872.55737	0.60565
3870.62881	0.60936
3868.70025	0.61118
3866.77168	0.60779
3864.84312	0.60874
3862.91455	0.61363
3860.98599	0.61140
3859.05742	0.60446
3857.12886	0.59749
3855.20029	0.59629
3853.27173	0.61091
3851.34317	0.61696
3849.41460	0.60907
3847.48604	0.60117
3845.55747	0.59761
3843.62891	0.59875
3841.70034	0.60191
3839.77178	0.60668
3837.84321	0.61183
3835.91465	0.61073
3833.98609	0.60669
3832.05752	0.60414
3830.12896	0.60214
3828.20039	0.60131
3826.27183	0.60157
3824.34326	0.59863
3822.41470	0.59736
3820.48613	0.60187
3818.55757	0.60011
3816.62901	0.59993
3814.70044	0.60326
3812.77188	0.60004
3810.84331	0.59393
3808.91475	0.59138
3806.98618	0.59518
3805.05762	0.59700
3803.12905	0.59688
3801.20049	0.60146
3799.27193	0.60078
3797.34336	0.59651
3795.41480	0.59403
3793.48623	0.59120
3791.55767	0.58850
3789.62910	0.58667
3787.70054	0.58575
3785.77197	0.58633
3783.84341	0.58537
3781.91485	0.58185
3779.98628	0.58168
3778.05772	0.58463
3776.12915	0.58439
3774.20059	0.58228
3772.27202	0.58164
3770.34346	0.58426
3768.41489	0.58699
3766.48633	0.58804
3764.55777	0.58810
3762.62920	0.58544
3760.70064	0.58355
3758.77207	0.58564
3756.84351	0.58632
3754.91494	0.58353
3752.98638	0.58280
3751.05781	0.59341
3749.12925	0.60141
3747.20069	0.59688
3745.27212	0.59530
3743.34356	0.59813
3741.41499	0.59477
3739.48643	0.58789
3737.55786	0.58451
3735.62930	0.59016
3733.70074	0.59595
3731.77217	0.59376
3729.84361	0.58865
3727.91504	0.58456
3725.98648	0.58488
3724.05791	0.58894
3722.12935	0.59189
3720.20078	0.59089
3718.27222	0.58645
3716.34366	0.58129
3714.41509	0.57853
3712.48653	0.58294
3710.55796	0.59044
3708.62940	0.58924
3706.70083	0.58478
3704.77227	0.58142
3702.84370	0.58244
3700.91514	0.58688
3698.98658	0.58734
3697.05801	0.58455
3695.12945	0.58131
3693.20088	0.57816
3691.27232	0.57885
3689.34375	0.58775
3687.41519	0.59355
3685.48662	0.59240
3683.55806	0.59004
3681.62950	0.58848
3679.70093	0.58804
3677.77237	0.59187
3675.84380	0.60764
3673.91524	0.61765
3671.98667	0.61655
3670.05811	0.62218
3668.12954	0.62611
3666.20098	0.62288
3664.27242	0.62219
3662.34385	0.62540
3660.41529	0.62840
3658.48672	0.63176
3656.55816	0.63967
3654.62959	0.64433
3652.70103	0.64173
3650.77246	0.64559
3648.84390	0.66833
3646.91534	0.67911
3644.98677	0.67537
3643.05821	0.67324
3641.12964	0.67684
3639.20108	0.68301
3637.27251	0.68791
3635.34395	0.69273
3633.41538	0.69826
3631.48682	0.70310
3629.55826	0.71664
3627.62969	0.73629
3625.70113	0.74095
3623.77256	0.73969
3621.84400	0.74084
3619.91543	0.74961
3617.98687	0.76114
3616.05830	0.76580
3614.12974	0.76983
3612.20118	0.77605
3610.27261	0.78273
3608.34405	0.79232
3606.41548	0.79951
3604.48692	0.80144
3602.55835	0.80606
3600.62979	0.81547
3598.70123	0.82322
3596.77266	0.82969
3594.84410	0.83947
3592.91553	0.84711
3590.98697	0.84828
3589.05840	0.85310
3587.12984	0.87133
3585.20127	0.88723
3583.27271	0.89335
3581.34415	0.89820
3579.41558	0.90477
3577.48702	0.91189
3575.55845	0.91952
3573.62989	0.92647
3571.70132	0.93147
3569.77276	0.93754
3567.84419	0.95233
3565.91563	0.97260
3563.98707	0.98248
3562.05850	0.98708
3560.12994	0.99312
3558.20137	1.00032
3556.27281	1.00655
3554.34424	1.01176
3552.41568	1.01846
3550.48711	1.02661
3548.55855	1.03467
3546.62999	1.04451
3544.70142	1.05763
3542.77286	1.07001
3540.84429	1.07969
3538.91573	1.08878
3536.98716	1.09837
3535.05860	1.10619
3533.13003	1.11011
3531.20147	1.11417
3529.27291	1.12185
3527.34434	1.13220
3525.41578	1.14548
3523.48721	1.15951
3521.55865	1.16948
3519.63008	1.17577
3517.70152	1.18249
3515.77295	1.19178
3513.84439	1.20334
3511.91583	1.21716
3509.98726	1.23305
3508.05870	1.24753
3506.13013	1.25839
3504.20157	1.26773
3502.27300	1.27549
3500.34444	1.28549
3498.41587	1.30367
3496.48731	1.32322
3494.55875	1.33403
3492.63018	1.34131
3490.70162	1.35186
3488.77305	1.36062
3486.84449	1.36487
3484.91592	1.37094
3482.98736	1.38149
3481.05879	1.39174
3479.13023	1.39701
3477.20167	1.40022
3475.27310	1.40603
3473.34454	1.41380
3471.41597	1.41996
3469.48741	1.42531
3467.55884	1.43026
3465.63028	1.43163
3463.70171	1.43147
3461.77315	1.43296
3459.84459	1.43751
3457.91602	1.44621
3455.98746	1.45425
3454.05889	1.45595
3452.13033	1.45369
3450.20176	1.45417
3448.27320	1.46126
3446.34464	1.46955
3444.41607	1.47016
3442.48751	1.46944
3440.55894	1.47601
3438.63038	1.48348
3436.70181	1.48365
3434.77325	1.47790
3432.84468	1.47180
3430.91612	1.47203
3428.98756	1.48172
3427.05899	1.49240
3425.13043	1.49597
3423.20186	1.49797
3421.27330	1.50380
3419.34473	1.50904
3417.41617	1.50922
3415.48760	1.50744
3413.55904	1.50656
3411.63048	1.50575
3409.70191	1.50580
3407.77335	1.50768
3405.84478	1.51003
3403.91622	1.51250
3401.98765	1.51838
3400.05909	1.52791
3398.13052	1.53489
3396.20196	1.53400
3394.27340	1.52480
3392.34483	1.51313
3390.41627	1.50830
3388.48770	1.51101
3386.55914	1.51457
3384.63057	1.51815
3382.70201	1.52259
3380.77344	1.52569
3378.84488	1.53076
3376.91632	1.53922
3374.98775	1.54545
3373.05919	1.54270
3371.13062	1.52938
3369.20206	1.51757
3367.27349	1.51760
3365.34493	1.52477
3363.41636	1.53453
3361.48780	1.54530
3359.55924	1.55231
3357.63067	1.55541
3355.70211	1.55830
3353.77354	1.56422
3351.84498	1.57285
3349.91641	1.58093
3347.98785	1.58784
3346.05928	1.58923
3344.13072	1.58382
3342.20216	1.58074
3340.27359	1.58353
3338.34503	1.58937
3336.41646	1.59558
3334.48790	1.59953
3332.55933	1.60050
3330.63077	1.59785
3328.70220	1.59559
3326.77364	1.59818
3324.84508	1.60105
3322.91651	1.60403
3320.98795	1.60976
3319.05938	1.61147
3317.13082	1.61002
3315.20225	1.61647
3313.27369	1.62762
3311.34513	1.62878
3309.41656	1.62290
3307.48800	1.62412
3305.55943	1.63040
3303.63087	1.63127
3301.70230	1.62694
3299.77374	1.62516
3297.84517	1.62895
3295.91661	1.63657
3293.98805	1.64384
3292.05948	1.64382
3290.13092	1.63676
3288.20235	1.62839
3286.27379	1.62108
3284.34522	1.61506
3282.41666	1.60541
3280.48809	1.59349
3278.55953	1.59106
3276.63097	1.59817
3274.70240	1.60601
3272.77384	1.61097
3270.84527	1.61005
3268.91671	1.60442
3266.98814	1.59993
3265.05958	1.59741
3263.13101	1.59252
3261.20245	1.58352
3259.27389	1.57491
3257.34532	1.56896
3255.41676	1.55953
3253.48819	1.54387
3251.55963	1.53066
3249.63106	1.52513
3247.70250	1.52401
3245.77393	1.52465
3243.84537	1.52063
3241.91681	1.50749
3239.98824	1.49499
3238.05968	1.48862
3236.13111	1.48124
3234.20255	1.47196
3232.27398	1.46627
3230.34542	1.46174
3228.41685	1.45445
3226.48829	1.44746
3224.55973	1.44231
3222.63116	1.43824
3220.70260	1.43654
3218.77403	1.43408
3216.84547	1.42731
3214.91690	1.42019
3212.98834	1.41575
3211.05977	1.41308
3209.13121	1.40899
3207.20265	1.40023
3205.27408	1.39123
3203.34552	1.38637
3201.41695	1.38242
3199.48839	1.37765
3197.55982	1.37345
3195.63126	1.36949
3193.70269	1.36640
3191.77413	1.36374
3189.84557	1.35768
3187.91700	1.34778
3185.98844	1.33976
3184.05987	1.33695
3182.13131	1.33415
3180.20274	1.32711
3178.27418	1.31858
3176.34562	1.31007
3174.41705	1.30163
3172.48849	1.29559
3170.55992	1.29211
3168.63136	1.28880
3166.70279	1.28372
3164.77423	1.27693
3162.84566	1.27186
3160.91710	1.26944
3158.98854	1.26615
3157.05997	1.26180
3155.13141	1.25714
3153.20284	1.25130
3151.27428	1.24684
3149.34571	1.24619
3147.41715	1.24637
3145.48858	1.24428
3143.56002	1.24165
3141.63146	1.23979
3139.70289	1.23684
3137.77433	1.23204
3135.84576	1.22716
3133.91720	1.22466
3131.98863	1.22409
3130.06007	1.22267
3128.13150	1.22014
3126.20294	1.21832
3124.27438	1.21697
3122.34581	1.21532
3120.41725	1.21580
3118.48868	1.21855
3116.56012	1.21983
3114.63155	1.22031
3112.70299	1.22339
3110.77442	1.22577
3108.84586	1.22355
3106.91730	1.21894
3104.98873	1.21398
3103.06017	1.21205
3101.13160	1.21593
3099.20304	1.22030
3097.27447	1.22058
3095.34591	1.21771
3093.41734	1.21355
3091.48878	1.21043
3089.56022	1.20987
3087.63165	1.21036
3085.70309	1.20908
3083.77452	1.20563
3081.84596	1.20130
3079.91739	1.19710
3077.98883	1.19316
3076.06026	1.18966
3074.13170	1.18771
3072.20314	1.18828
3070.27457	1.19051
3068.34601	1.19125
3066.41744	1.18939
3064.48888	1.18549
3062.56031	1.17799
3060.63175	1.16779
3058.70318	1.15931
3056.77462	1.15519
3054.84606	1.15373
3052.91749	1.15170
3050.98893	1.14738
3049.06036	1.14076
3047.13180	1.13373
3045.20323	1.12782
3043.27467	1.12241
3041.34610	1.11675
3039.41754	1.11202
3037.48898	1.10962
3035.56041	1.10699
3033.63185	1.10133
3031.70328	1.09570
3029.77472	1.09287
3027.84615	1.08982
3025.91759	1.08446
3023.98903	1.07897
3022.06046	1.07578
3020.13190	1.07514
3018.20333	1.07470
3016.27477	1.07235
3014.34620	1.06923
3012.41764	1.06653
3010.48907	1.06322
3008.56051	1.06023
3006.63195	1.06014
3004.70338	1.06189
3002.77482	1.06142
3000.84625	1.05765
2998.91769	1.05410
2996.98912	1.05343
2995.06056	1.05512
2993.13199	1.05922
2991.20343	1.06599
2989.27487	1.07316
2987.34630	1.07868
2985.41774	1.08386
2983.48917	1.09063
2981.56061	1.09919
2979.63204	1.11009
2977.70348	1.12268
2975.77491	1.13469
2973.84635	1.14702
2971.91779	1.16055
2969.98922	1.17359
2968.06066	1.18598
2966.13209	1.19680
2964.20353	1.20373
2962.27496	1.20701
2960.34640	1.20816
2958.41783	1.20754
2956.48927	1.20259
2954.56071	1.19109
2952.63214	1.17742
2950.70358	1.16869
2948.77501	1.16591
2946.84645	1.16635
2944.91788	1.17034
2942.98932	1.17834
2941.06075	1.18915
2939.13219	1.20215
2937.20363	1.21557
2935.27506	1.22648
2933.34650	1.23443
2931.41793	1.24104
2929.48937	1.24447
2927.56080	1.24418
2925.63224	1.24718
2923.70367	1.25476
2921.77511	1.25834
2919.84655	1.25355
2917.91798	1.24197
2915.98942	1.22336
2914.06085	1.19877
2912.13229	1.17395
2910.20372	1.15337
2908.27516	1.13709
2906.34659	1.12361
2904.41803	1.11156
2902.48947	1.10046
2900.56090	1.09233
2898.63234	1.08871
2896.70377	1.08651
2894.77521	1.08187
2892.84664	1.07552
2890.91808	1.07025
2888.98952	1.06499
2887.06095	1.05815
2885.13239	1.05322
2883.20382	1.05273
2881.27526	1.05507
2879.34669	1.05870
2877.41813	1.06259
2875.48956	1.06536
2873.56100	1.06497
2871.63244	1.06042
2869.70387	1.05280
2867.77531	1.04334
2865.84674	1.03409
2863.91818	1.02744
2861.98961	1.02412
2860.06105	1.02424
2858.13248	1.02810
2856.20392	1.03474
2854.27536	1.04069
2852.34679	1.04239
2850.41823	1.03715
2848.48966	1.02103
2846.56110	0.99517
2844.63253	0.96804
2842.70397	0.94548
2840.77540	0.92768
2838.84684	0.91449
2836.91828	0.90618
2834.98971	0.90069
2833.06115	0.89545
2831.13258	0.89064
2829.20402	0.88686
2827.27545	0.88364
2825.34689	0.88083
2823.41832	0.87827
2821.48976	0.87591
2819.56120	0.87378
2817.63263	0.87122
2815.70407	0.86799
2813.77550	0.86482
2811.84694	0.86154
2809.91837	0.85748
2807.98981	0.85294
2806.06124	0.84816
2804.13268	0.84356
2802.20412	0.83961
2800.27555	0.83556
2798.34699	0.83102
2796.41842	0.82683
2794.48986	0.82334
2792.56129	0.81985
2790.63273	0.81604
2788.70416	0.81181
2786.77560	0.80744
2784.84704	0.80369
2782.91847	0.80010
2780.98991	0.79637
2779.06134	0.79342
2777.13278	0.79097
2775.20421	0.78808
2773.27565	0.78506
2771.34708	0.78165
2769.41852	0.77746
2767.48996	0.77394
2765.56139	0.77186
2763.63283	0.76970
2761.70426	0.76659
2759.77570	0.76339
2757.84713	0.76079
2755.91857	0.75854
2753.99001	0.75638
2752.06144	0.75400
2750.13288	0.75158
2748.20431	0.74988
2746.27575	0.74900
2744.34718	0.74863
2742.41862	0.74842
2740.49005	0.74770
2738.56149	0.74627
2736.63293	0.74482
2734.70436	0.74330
2732.77580	0.74130
2730.84723	0.73949
2728.91867	0.73784
2726.99010	0.73559
2725.06154	0.73337
2723.13297	0.73171
2721.20441	0.73004
2719.27585	0.72788
2717.34728	0.72520
2715.41872	0.72237
2713.49015	0.71976
2711.56159	0.71731
2709.63302	0.71487
2707.70446	0.71264
2705.77589	0.71077
2703.84733	0.70906
2701.91877	0.70713
2699.99020	0.70495
2698.06164	0.70312
2696.13307	0.70200
2694.20451	0.70099
2692.27594	0.69983
2690.34738	0.69875
2688.41881	0.69724
2686.49025	0.69521
2684.56169	0.69312
2682.63312	0.69088
2680.70456	0.68874
2678.77599	0.68718
2676.84743	0.68545
2674.91886	0.68281
2672.99030	0.67982
2671.06173	0.67700
2669.13317	0.67425
2667.20461	0.67162
2665.27604	0.66933
2663.34748	0.66761
2661.41891	0.66647
2659.49035	0.66574
2657.56178	0.66512
2655.63322	0.66455
2653.70465	0.66380
2651.77609	0.66282
2649.84753	0.66229
2647.91896	0.66217
2645.99040	0.66157
2644.06183	0.66024
2642.13327	0.65889
2640.20470	0.65798
2638.27614	0.65700
2636.34757	0.65553
2634.41901	0.65357
2632.49045	0.65099
2630.56188	0.64824
2628.63332	0.64598
2626.70475	0.64369
2624.77619	0.64093
2622.84762	0.63861
2620.91906	0.63705
2618.99049	0.63537
2617.06193	0.63355
2615.13337	0.63204
2613.20480	0.63081
2611.27624	0.62986
2609.34767	0.62899
2607.41911	0.62801
2605.49054	0.62712
2603.56198	0.62591
2601.63342	0.62392
2599.70485	0.62204
2597.77629	0.62130
2595.84772	0.62104
2593.91916	0.61990
2591.99059	0.61793
2590.06203	0.61611
2588.13346	0.61445
2586.20490	0.61251
2584.27634	0.61037
2582.34777	0.60838
2580.41921	0.60678
2578.49064	0.60550
2576.56208	0.60409
2574.63351	0.60234
2572.70495	0.60086
2570.77638	0.59995
2568.84782	0.59903
2566.91926	0.59787
2564.99069	0.59717
2563.06213	0.59720
2561.13356	0.59739
2559.20500	0.59720
2557.27643	0.59664
2555.34787	0.59617
2553.41930	0.59591
2551.49074	0.59532
2549.56218	0.59449
2547.63361	0.59397
2545.70505	0.59341
2543.77648	0.59230
2541.84792	0.59066
2539.91935	0.58834
2537.99079	0.58575
2536.06222	0.58393
2534.13366	0.58257
2532.20510	0.58047
2530.27653	0.57756
2528.34797	0.57469
2526.41940	0.57236
2524.49084	0.57054
2522.56227	0.56895
2520.63371	0.56718
2518.70514	0.56534
2516.77658	0.56397
2514.84802	0.56284
2512.91945	0.56121
2510.99089	0.55940
2509.06232	0.55780
2507.13376	0.55629
2505.20519	0.55503
2503.27663	0.55401
2501.34806	0.55289
2499.41950	0.55155
2497.49094	0.54991
2495.56237	0.54796
2493.63381	0.54580
2491.70524	0.54358
2489.77668	0.54162
2487.84811	0.53969
2485.91955	0.53744
2483.99098	0.53520
2482.06242	0.53348
2480.13386	0.53240
2478.20529	0.53128
2476.27673	0.52955
2474.34816	0.52790
2472.41960	0.52688
2470.49103	0.52641
2468.56247	0.52613
2466.63391	0.52553
2464.70534	0.52486
2462.77678	0.52441
2460.84821	0.52401
2458.91965	0.52362
2456.99108	0.52317
2455.06252	0.52244
2453.13395	0.52165
2451.20539	0.52102
2449.27683	0.52033
2447.34826	0.51935
2445.41970	0.51797
2443.49113	0.51612
2441.56257	0.51406
2439.63400	0.51220
2437.70544	0.51065
2435.77687	0.50934
2433.84831	0.50803
2431.91975	0.50645
2429.99118	0.50474
2428.06262	0.50324
2426.13405	0.50166
2424.20549	0.49959
2422.27692	0.49743
2420.34836	0.49557
2418.41979	0.49402
2416.49123	0.49270
2414.56267	0.49140
2412.63410	0.49011
2410.70554	0.48897
2408.77697	0.48788
2406.84841	0.48666
2404.91984	0.48550
2402.99128	0.48463
2401.06271	0.48367
2399.13415	0.48218
2397.20559	0.48050
2395.27702	0.47877
2393.34846	0.47695
2391.41989	0.47547
2389.49133	0.47434
2387.56276	0.47307
2385.63420	0.47162
2383.70563	0.47041
2381.77707	0.46958
2379.84851	0.46893
2377.91994	0.46856
2375.99138	0.46887
2374.06281	0.46963
2372.13425	0.47016
2370.20568	0.47083
2368.27712	0.47230
2366.34855	0.47385
2364.41999	0.47397
2362.49143	0.47181
2360.56286	0.47011
2358.63430	0.47290
2356.70573	0.47660
2354.77717	0.47676
2352.84860	0.47513
2350.92004	0.47177
2348.99147	0.46702
2347.06291	0.46373
2345.13435	0.46433
2343.20578	0.46636
2341.27722	0.46593
2339.34865	0.46444
2337.42009	0.46346
2335.49152	0.46303
2333.56296	0.46203
2331.63440	0.46010
2329.70583	0.45903
2327.77727	0.45932
2325.84870	0.45976
2323.92014	0.45963
2321.99157	0.45790
2320.06301	0.45495
2318.13444	0.45300
2316.20588	0.45225
2314.27732	0.45148
2312.34875	0.45061
2310.42019	0.44990
2308.49162	0.44884
2306.56306	0.44751
2304.63449	0.44659
2302.70593	0.44603
2300.77736	0.44535
2298.84880	0.44471
2296.92024	0.44463
2294.99167	0.44490
2293.06311	0.44492
2291.13454	0.44467
2289.20598	0.44446
2287.27741	0.44405
2285.34885	0.44321
2283.42028	0.44231
2281.49172	0.44190
2279.56316	0.44183
2277.63459	0.44148
2275.70603	0.44082
2273.77746	0.44036
2271.84890	0.43997
2269.92033	0.43914
2267.99177	0.43806
2266.06320	0.43725
2264.13464	0.43672
2262.20608	0.43628
2260.27751	0.43594
2258.34895	0.43550
2256.42038	0.43458
2254.49182	0.43330
2252.56325	0.43229
2250.63469	0.43183
2248.70612	0.43134
2246.77756	0.43033
2244.84900	0.42902
2242.92043	0.42794
2240.99187	0.42723
2239.06330	0.42652
2237.13474	0.42569
2235.20617	0.42487
2233.27761	0.42399
2231.34904	0.42311
2229.42048	0.42259
2227.49192	0.42253
2225.56335	0.42254
2223.63479	0.42248
2221.70622	0.42255
2219.77766	0.42275
2217.84909	0.42292
2215.92053	0.42310
2213.99196	0.42331
2212.06340	0.42340
2210.13484	0.42345
2208.20627	0.42372
2206.27771	0.42418
2204.34914	0.42448
2202.42058	0.42444
2200.49201	0.42441
2198.56345	0.42459
2196.63488	0.42469
2194.70632	0.42462
2192.77776	0.42469
2190.84919	0.42504
2188.92063	0.42524
2186.99206	0.42516
2185.06350	0.42518
2183.13493	0.42532
2181.20637	0.42518
2179.27781	0.42469
2177.34924	0.42429
2175.42068	0.42402
2173.49211	0.42335
2171.56355	0.42233
2169.63498	0.42140
2167.70642	0.42050
2165.77785	0.41961
2163.84929	0.41872
2161.92073	0.41777
2159.99216	0.41681
2158.06360	0.41561
2156.13503	0.41402
2154.20647	0.41255
2152.27790	0.41144
2150.34934	0.41049
2148.42077	0.40953
2146.49221	0.40841
2144.56365	0.40711
2142.63508	0.40586
2140.70652	0.40480
2138.77795	0.40387
2136.84939	0.40299
2134.92082	0.40221
2132.99226	0.40145
2131.06369	0.40061
2129.13513	0.39969
2127.20657	0.39877
2125.27800	0.39803
2123.34944	0.39755
2121.42087	0.39731
2119.49231	0.39716
2117.56374	0.39676
2115.63518	0.39623
2113.70661	0.39592
2111.77805	0.39566
2109.84949	0.39537
2107.92092	0.39527
2105.99236	0.39532
2104.06379	0.39530
2102.13523	0.39533
2100.20666	0.39541
2098.27810	0.39531
2096.34953	0.39515
2094.42097	0.39532
2092.49241	0.39571
2090.56384	0.39603
2088.63528	0.39622
2086.70671	0.39625
2084.77815	0.39626
2082.84958	0.39642
2080.92102	0.39649
2078.99245	0.39633
2077.06389	0.39602
2075.13533	0.39557
2073.20676	0.39497
2071.27820	0.39419
2069.34963	0.39309
2067.42107	0.39187
2065.49250	0.39102
2063.56394	0.39031
2061.63537	0.38915
2059.70681	0.38774
2057.77825	0.38640
2055.84968	0.38496
2053.92112	0.38338
2051.99255	0.38185
2050.06399	0.38047
2048.13542	0.37909
2046.20686	0.37755
2044.27830	0.37597
2042.34973	0.37463
2040.42117	0.37341
2038.49260	0.37188
2036.56404	0.37020
2034.63547	0.36884
2032.70691	0.36784
2030.77834	0.36687
2028.84978	0.36585
2026.92122	0.36507
2024.99265	0.36457
2023.06409	0.36424
2021.13552	0.36384
2019.20696	0.36348
2017.27839	0.36339
2015.34983	0.36300
2013.42126	0.36216
2011.49270	0.36160
2009.56414	0.36143
2007.63557	0.36127
2005.70701	0.36107
2003.77844	0.36083
2001.84988	0.36041
1999.92131	0.35999
1997.99275	0.35977
1996.06418	0.35950
1994.13562	0.35936
1992.20706	0.35993
1990.27849	0.36054
1988.34993	0.36054
1986.42136	0.36046
1984.49280	0.36057
1982.56423	0.36074
1980.63567	0.36082
1978.70710	0.36075
1976.77854	0.36057
1974.84998	0.36014
1972.92141	0.35943
1970.99285	0.35852
1969.06428	0.35773
1967.13572	0.35733
1965.20715	0.35658
1963.27859	0.35517
1961.35002	0.35385
1959.42146	0.35265
1957.49290	0.35136
1955.56433	0.35025
1953.63577	0.34920
1951.70720	0.34787
1949.77864	0.34633
1947.85007	0.34482
1945.92151	0.34349
1943.99294	0.34268
1942.06438	0.34218
1940.13582	0.34082
1938.20725	0.33889
1936.27869	0.33734
1934.35012	0.33617
1932.42156	0.33516
1930.49299	0.33427
1928.56443	0.33349
1926.63586	0.33279
1924.70730	0.33257
1922.77874	0.33275
1920.85017	0.33219
1918.92161	0.33153
1916.99304	0.33148
1915.06448	0.33074
1913.13591	0.32951
1911.20735	0.32906
1909.27878	0.32946
1907.35022	0.32966
1905.42166	0.32944
1903.49309	0.32937
1901.56453	0.32941
1899.63596	0.32926
1897.70740	0.32921
1895.77883	0.32980
1893.85027	0.33040
1891.92171	0.33060
1889.99314	0.33165
1888.06458	0.33298
1886.13601	0.33320
1884.20745	0.33328
1882.27888	0.33376
1880.35032	0.33414
1878.42175	0.33419
1876.49319	0.33411
1874.56463	0.33391
1872.63606	0.33335
1870.70750	0.33326
1868.77893	0.33490
1866.85037	0.33593
1864.92180	0.33459
1862.99324	0.33291
1861.06467	0.33206
1859.13611	0.33165
1857.20755	0.33106
1855.27898	0.33034
1853.35042	0.32971
1851.42185	0.32905
1849.49329	0.32843
1847.56472	0.32792
1845.63616	0.32841
1843.70759	0.33004
1841.77903	0.32990
1839.85047	0.32859
1837.92190	0.32823
1835.99334	0.32834
1834.06477	0.32770
1832.13621	0.32738
1830.20764	0.32924
1828.27908	0.33123
1826.35051	0.33169
1824.42195	0.33258
1822.49339	0.33329
1820.56482	0.33318
1818.63626	0.33340
1816.70769	0.33409
1814.77913	0.33463
1812.85056	0.33546
1810.92200	0.33733
1808.99343	0.33918
1807.06487	0.34006
1805.13631	0.34050
1803.20774	0.34137
1801.27918	0.34355
1799.35061	0.34592
1797.42205	0.34695
1795.49348	0.34741
1793.56492	0.34967
1791.63635	0.35443
1789.70779	0.35671
1787.77923	0.35672
1785.85066	0.35787
1783.92210	0.36021
1781.99353	0.36266
1780.06497	0.36547
1778.13640	0.36754
1776.20784	0.36829
1774.27927	0.37007
1772.35071	0.37536
1770.42215	0.38047
1768.49358	0.38291
1766.56502	0.38463
1764.63645	0.38622
1762.70789	0.39011
1760.77932	0.39639
1758.85076	0.40192
1756.92220	0.40912
1754.99363	0.41687
1753.06507	0.42383
1751.13650	0.43566
1749.20794	0.45350
1747.27937	0.46806
1745.35081	0.47829
1743.42224	0.48790
1741.49368	0.49789
1739.56512	0.50707
1737.63655	0.51198
1735.70799	0.51552
1733.77942	0.52481
1731.85086	0.53253
1729.92229	0.53563
1727.99373	0.53901
1726.06516	0.54308
1724.13660	0.54908
1722.20804	0.55551
1720.27947	0.56124
1718.35091	0.57317
1716.42234	0.59673
1714.49378	0.61516
1712.56521	0.62812
1710.63665	0.64317
1708.70808	0.66269
1706.77952	0.69315
1704.85096	0.73421
1702.92239	0.76990
1700.99383	0.81782
1699.06526	0.89853
1697.13670	0.97555
1695.20813	1.04712
1693.27957	1.09865
1691.35100	1.13822
1689.42244	1.18652
1687.49388	1.22993
1685.56531	1.27054
1683.63675	1.33453
1681.70818	1.37888
1679.77962	1.39825
1677.85105	1.41368
1675.92249	1.43046
1673.99392	1.44796
1672.06536	1.46231
1670.13680	1.47454
1668.20823	1.48442
1666.27967	1.48687
1664.35110	1.48979
1662.42254	1.49590
1660.49397	1.49727
1658.56541	1.49619
1656.63684	1.49668
1654.70828	1.50218
1652.77972	1.50306
1650.85115	1.49185
1648.92259	1.48184
1646.99402	1.47381
1645.06546	1.47081
1643.13689	1.46621
1641.20833	1.46191
1639.27976	1.46044
1637.35120	1.46029
1635.42264	1.45630
1633.49407	1.44923
1631.56551	1.44316
1629.63694	1.43548
1627.70838	1.42537
1625.77981	1.41393
1623.85125	1.40176
1621.92269	1.38643
1619.99412	1.37010
1618.06556	1.35152
1616.13699	1.32324
1614.20843	1.29431
1612.27986	1.26754
1610.35130	1.23909
1608.42273	1.21187
1606.49417	1.19018
1604.56561	1.17325
1602.63704	1.15946
1600.70848	1.15025
1598.77991	1.14572
1596.85135	1.14537
1594.92278	1.14824
1592.99422	1.15197
1591.06565	1.15690
1589.13709	1.16550
1587.20853	1.17768
1585.27996	1.19002
1583.35140	1.20088
1581.42283	1.21037
1579.49427	1.21846
1577.56570	1.23057
1575.63714	1.25113
1573.70857	1.26468
1571.78001	1.27322
1569.85145	1.28803
1567.92288	1.30214
1565.99432	1.30976
1564.06575	1.31703
1562.13719	1.32218
1560.20862	1.33239
1558.28006	1.36115
1556.35149	1.36854
1554.42293	1.36794
1552.49437	1.37103
1550.56580	1.37291
1548.63724	1.36970
1546.70867	1.36491
1544.78011	1.36216
1542.85154	1.36270
1540.92298	1.36267
1538.99441	1.34968
1537.06585	1.33809
1535.13729	1.33038
1533.20872	1.32347
1531.28016	1.31529
1529.35159	1.30544
1527.42303	1.29424
1525.49446	1.28402
1523.56590	1.27607
1521.63733	1.26592
1519.70877	1.25630
1517.78021	1.24631
1515.85164	1.23015
1513.92308	1.21085
1511.99451	1.19083
1510.06595	1.17177
1508.13738	1.14876
1506.20882	1.10942
1504.28025	1.08189
1502.35169	1.06255
1500.42313	1.04268
1498.49456	1.02077
1496.56600	0.99738
1494.63743	0.97793
1492.70887	0.96381
1490.78030	0.95099
1488.85174	0.93674
1486.92317	0.92428
1484.99461	0.91538
1483.06605	0.90932
1481.13748	0.90547
1479.20892	0.90414
1477.28035	0.90708
1475.35179	0.91641
1473.42322	0.93421
1471.49466	0.95169
1469.56610	0.95849
1467.63753	0.96206
1465.70897	0.96863
1463.78040	0.97630
1461.85184	0.97983
1459.92327	0.98271
1457.99471	0.99333
1456.06614	1.00723
1454.13758	1.01030
1452.20902	1.01099
1450.28045	1.01295
1448.35189	1.01584
1446.42332	1.01737
1444.49476	1.01681
1442.56619	1.01525
1440.63763	1.01243
1438.70906	1.00780
1436.78050	1.00093
1434.85194	0.99194
1432.92337	0.98227
1430.99481	0.97237
1429.06624	0.96297
1427.13768	0.95523
1425.20911	0.94987
1423.28055	0.94717
1421.35198	0.94622
1419.42342	0.94770
1417.49486	0.95098
1415.56629	0.95208
1413.63773	0.95214
1411.70916	0.95332
1409.78060	0.95628
1407.85203	0.96050
1405.92347	0.96700
1403.99490	0.97561
1402.06634	0.98257
1400.13778	0.98763
1398.20921	0.99199
1396.28065	0.99633
1394.35208	1.00046
1392.42352	1.00279
1390.49495	1.00508
1388.56639	1.01069
1386.63782	1.01904
1384.70926	1.02489
1382.78070	1.02711
1380.85213	1.02568
1378.92357	1.01962
1376.99500	1.00871
1375.06644	0.99202
1373.13787	0.97136
1371.20931	0.95153
1369.28074	0.93146
1367.35218	0.91115
1365.42362	0.89371
1363.49505	0.87923
1361.56649	0.86864
1359.63792	0.86293
1357.70936	0.86085
1355.78079	0.86139
1353.85223	0.86340
1351.92366	0.86666
1349.99510	0.87139
1348.06654	0.87650
1346.13797	0.88094
1344.20941	0.88463
1342.28084	0.88756
1340.35228	0.89053
1338.42371	0.89392
1336.49515	0.89678
1334.56659	0.89961
1332.63802	0.90305
1330.70946	0.90649
1328.78089	0.90872
1326.85233	0.90937
1324.92376	0.90908
1322.99520	0.90881
1321.06663	0.90981
1319.13807	0.91255
1317.20951	0.91585
1315.28094	0.91927
1313.35238	0.92391
1311.42381	0.92928
1309.49525	0.93387
1307.56668	0.93734
1305.63812	0.94017
1303.70955	0.94259
1301.78099	0.94374
1299.85243	0.94286
1297.92386	0.94029
1295.99530	0.93670
1294.06673	0.93282
1292.13817	0.92906
1290.20960	0.92533
1288.28104	0.92123
1286.35247	0.91669
1284.42391	0.91222
1282.49535	0.90822
1280.56678	0.90493
1278.63822	0.90285
1276.70965	0.90256
1274.78109	0.90424
1272.85252	0.90778
1270.92396	0.91293
1268.99539	0.91956
1267.06683	0.92717
1265.13827	0.93414
1263.20970	0.93936
1261.28114	0.94373
1259.35257	0.94799
1257.42401	0.95213
1255.49544	0.95639
1253.56688	0.96037
1251.63831	0.96333
1249.70975	0.96568
1247.78119	0.96782
1245.85262	0.96918
1243.92406	0.96948
1241.99549	0.96874
1240.06693	0.96660
1238.13836	0.96280
1236.20980	0.95785
1234.28123	0.95218
1232.35267	0.94524
1230.42411	0.93632
1228.49554	0.92622
1226.56698	0.91613
1224.63841	0.90588
1222.70985	0.89578
1220.78128	0.88742
1218.85272	0.88105
1216.92415	0.87593
1214.99559	0.87264
1213.06703	0.87193
1211.13846	0.87350
1209.20990	0.87651
1207.28133	0.87932
1205.35277	0.87966
1203.42420	0.87631
1201.49564	0.87028
1199.56708	0.86295
1197.63851	0.85428
1195.70995	0.84431
1193.78138	0.83447
1191.85282	0.82604
1189.92425	0.81896
1187.99569	0.81315
1186.06712	0.80883
1184.13856	0.80607
1182.21000	0.80568
1180.28143	0.80860
1178.35287	0.81518
1176.42430	0.82499
1174.49574	0.83624
1172.56717	0.84762
1170.63861	0.86024
1168.71004	0.87556
1166.78148	0.89291
1164.85292	0.91015
1162.92435	0.92545
1160.99579	0.93718
1159.06722	0.94319
1157.13866	0.94269
1155.21009	0.93703
1153.28153	0.92761
1151.35296	0.91515
1149.42440	0.90096
1147.49584	0.88723
1145.56727	0.87584
1143.63871	0.86768
1141.71014	0.86320
1139.78158	0.86226
1137.85301	0.86453
1135.92445	0.87000
1133.99588	0.87833
1132.06732	0.88971
1130.13876	0.90496
1128.21019	0.92231
1126.28163	0.93805
1124.35306	0.95136
1122.42450	0.96326
1120.49593	0.97292
1118.56737	0.97945
1116.63880	0.98293
1114.71024	0.98295
1112.78168	0.97984
1110.85311	0.97563
1108.92455	0.97199
1106.99598	0.96834
1105.06742	0.96474
1103.13885	0.96248
1101.21029	0.96134
1099.28172	0.96231
1097.35316	0.96751
1095.42460	0.97577
1093.49603	0.98506
1091.56747	0.99596
1089.63890	1.00925
1087.71034	1.02427
1085.78177	1.03935
1083.85321	1.05145
1081.92464	1.05846
1079.99608	1.06129
1078.06752	1.06091
1076.13895	1.05655
1074.21039	1.04799
1072.28182	1.03730
1070.35326	1.02779
1068.42469	1.02115
1066.49613	1.01557
1064.56756	1.00885
1062.63900	1.00164
1060.71044	0.99571
1058.78187	0.99105
1056.85331	0.98494
1054.92474	0.97592
1052.99618	0.96662
1051.06761	0.95926
1049.13905	0.95348
1047.21049	0.94931
1045.28192	0.94826
1043.35336	0.95059
1041.42479	0.95411
1039.49623	0.95655
1037.56766	0.95768
1035.63910	0.95844
1033.71053	0.95855
1031.78197	0.95699
1029.85341	0.95390
1027.92484	0.94960
1025.99628	0.94342
1024.06771	0.93558
1022.13915	0.92800
1020.21058	0.92158
1018.28202	0.91549
1016.35345	0.90931
1014.42489	0.90159
1012.49633	0.88874
1010.56776	0.87017
1008.63920	0.84910
1006.71063	0.82764
1004.78207	0.80669
1002.85350	0.78780
1000.92494	0.77217
998.99637	0.76000
997.06781	0.75056
995.13925	0.74287
993.21068	0.73639
991.28212	0.73033
989.35355	0.72388
987.42499	0.71808
985.49642	0.71485
983.56786	0.71446
981.63929	0.71625
979.71073	0.71988
977.78217	0.72427
975.85360	0.72743
973.92504	0.72839
971.99647	0.72742
970.06791	0.72384
968.13934	0.71669
966.21078	0.70693
964.28221	0.69647
962.35365	0.68736
960.42509	0.68180
958.49652	0.68015
956.56796	0.67974
954.63939	0.67660
952.71083	0.66874
950.78226	0.65728
948.85370	0.64506
946.92513	0.63533
944.99657	0.63022
943.06801	0.62953
941.13944	0.63216
939.21088	0.63770
937.28231	0.64581
935.35375	0.65536
933.42518	0.66522
931.49662	0.67471
929.56805	0.68315
927.63949	0.68978
925.71093	0.69360
923.78236	0.69387
921.85380	0.69053
919.92523	0.68340
917.99667	0.67310
916.06810	0.66138
914.13954	0.64976
912.21098	0.63988
910.28241	0.63314
908.35385	0.62935
906.42528	0.62818
904.49672	0.63034
902.56815	0.63570
900.63959	0.64309
898.71102	0.65181
896.78246	0.66142
894.85390	0.67140
892.92533	0.68145
890.99677	0.69105
889.06820	0.69972
887.13964	0.70777
885.21107	0.71497
883.28251	0.72028
881.35394	0.72338
879.42538	0.72422
877.49682	0.72220
875.56825	0.71662
873.63969	0.70760
871.71112	0.69687
869.78256	0.68574
867.85399	0.67412
865.92543	0.66263
863.99686	0.65222
862.06830	0.64334
860.13974	0.63733
858.21117	0.63537
856.28261	0.63693
854.35404	0.64112
852.42548	0.64743
850.49691	0.65517
848.56835	0.66416
846.63978	0.67499
844.71122	0.68758
842.78266	0.70133
840.85409	0.71555
838.92553	0.72977
836.99696	0.74350
835.06840	0.75504
833.13983	0.76270
831.21127	0.76657
829.28270	0.76715
827.35414	0.76459
825.42558	0.75890
823.49701	0.75034
821.56845	0.74040
819.63988	0.73060
817.71132	0.72130
815.78275	0.71330
813.85419	0.70810
811.92562	0.70621
809.99706	0.70734
808.06850	0.71128
806.13993	0.71744
804.21137	0.72556
802.28280	0.73637
800.35424	0.75013
798.42567	0.76583
796.49711	0.78242
794.56854	0.79893
792.63998	0.81428
790.71142	0.82803
788.78285	0.83886
786.85429	0.84494
784.92572	0.84670
782.99716	0.84432
781.06859	0.83700
779.14003	0.82623
777.21147	0.81476
775.28290	0.80371
773.35434	0.79224
771.42577	0.78035
769.49721	0.77013
767.56864	0.76318
765.64008	0.75921
763.71151	0.75742
761.78295	0.75869
759.85439	0.76408
757.92582	0.77204
755.99726	0.78086
754.06869	0.79157
752.14013	0.80467
750.21156	0.81885
748.28300	0.83402
746.35443	0.84987
744.42587	0.86453
742.49731	0.87690
740.56874	0.88627
738.64018	0.89228
736.71161	0.89592
734.78305	0.89725
732.85448	0.89532
730.92592	0.88972
728.99735	0.88149
727.06879	0.87315
725.14023	0.86613
723.21166	0.86036
721.28310	0.85554
719.35453	0.85136
717.42597	0.84797
715.49740	0.84608
713.56884	0.84686
711.64027	0.85113
709.71171	0.85739
707.78315	0.86432
705.85458	0.87369
703.92602	0.88574
701.99745	0.89788
700.06889	0.91036
698.14032	0.92384
696.21176	0.93514
694.28319	0.94219
692.35463	0.94617
690.42607	0.94777
688.49750	0.94683
686.56894	0.94242
684.64037	0.93297
682.71181	0.92033
680.78324	0.90881
678.85468	0.89788
676.92611	0.88574
674.99755	0.87505
673.06899	0.86720
671.14042	0.86161
669.21186	0.85921
667.28329	0.86054
665.35473	0.86233
663.42616	0.86428
661.49760	0.86727
659.56903	0.87321
657.64047	0.88274
655.71191	0.89264
653.78334	0.90165
651.85478	0.91155
649.92621	0.92261
647.99765	0.93328
646.06908	0.94236
644.14052	0.94949
642.21195	0.95506
640.28339	0.96111
638.35483	0.96640
636.42626	0.96550
634.49770	0.95853
632.56913	0.95064
630.64057	0.94266
628.71200	0.93376
626.78344	0.92515
624.85488	0.91726
622.92631	0.90908
620.99775	0.90039
619.06918	0.89433
617.14062	0.89325
615.21205	0.89396
613.28349	0.89451
611.35492	0.89641
609.42636	0.89956
607.49780	0.90405
605.56923	0.90927
603.64067	0.91253
601.71210	0.91475
599.78354	0.91926
