3997.91406	0.81131
3995.98550	0.80954
3994.05693	0.80648
3992.12837	0.80274
3990.19980	0.80036
3988.27124	0.79970
3986.34268	0.79921
3984.41411	0.79925
3982.48555	0.80003
3980.55698	0.79954
3978.62842	0.79699
3976.69985	0.79429
3974.77129	0.79267
3972.84272	0.79120
3970.91416	0.79029
3968.98560	0.79073
3967.05703	0.79145
3965.12847	0.79121
3963.19990	0.78958
3961.27134	0.78802
3959.34277	0.78785
3957.41421	0.78812
3955.48564	0.78847
3953.55708	0.78916
3951.62852	0.78928
3949.69995	0.78838
3947.77139	0.78717
3945.84282	0.78610
3943.91426	0.78599
3941.98569	0.78631
3940.05713	0.78504
3938.12856	0.78254
3936.20000	0.78026
3934.27144	0.77949
3932.34287	0.77962
3930.41431	0.77780
3928.48574	0.77427
3926.55718	0.77218
3924.62861	0.77353
3922.70005	0.77481
3920.77148	0.77290
3918.84292	0.77079
3916.91436	0.76957
3914.98579	0.76692
3913.05723	0.76439
3911.12866	0.76387
3909.20010	0.76430
3907.27153	0.76555
3905.34297	0.76852
3903.41440	0.77005
3901.48584	0.76766
3899.55728	0.76650
3897.62871	0.76922
3895.70015	0.77229
3893.77158	0.77397
3891.84302	0.77525
3889.91445	0.77568
3887.98589	0.77563
3886.05733	0.77768
3884.12876	0.78064
3882.20020	0.78147
3880.27163	0.78028
3878.34307	0.77734
3876.41450	0.77428
3874.48594	0.77175
3872.55737	0.76987
3870.62881	0.77087
3868.70025	0.77354
3866.77168	0.77550
3864.84312	0.77918
3862.91455	0.78085
3860.98599	0.77670
3859.05742	0.77210
3857.12886	0.77037
3855.20029	0.77141
3853.27173	0.77545
3851.34317	0.77766
3849.41460	0.77589
3847.48604	0.77368
3845.55747	0.77337
3843.62891	0.77460
3841.70034	0.77560
3839.77178	0.77612
3837.84321	0.77546
3835.91465	0.77355
3833.98609	0.77159
3832.05752	0.76922
3830.12896	0.76736
3828.20039	0.76841
3826.27183	0.77127
3824.34326	0.77203
3822.41470	0.77392
3820.48613	0.77992
3818.55757	0.78238
3816.62901	0.78238
3814.70044	0.77987
3812.77188	0.77428
3810.84331	0.76869
3808.91475	0.76622
3806.98618	0.76764
3805.05762	0.76721
3803.12905	0.76615
3801.20049	0.76858
3799.27193	0.76801
3797.34336	0.76483
3795.41480	0.76254
3793.48623	0.76049
3791.55767	0.75826
3789.62910	0.75575
3787.70054	0.75339
3785.77197	0.75197
3783.84341	0.75126
3781.91485	0.75150
3779.98628	0.75350
3778.05772	0.75486
3776.12915	0.75331
3774.20059	0.75099
3772.27202	0.75060
3770.34346	0.75224
3768.41489	0.75221
3766.48633	0.75011
3764.55777	0.74809
3762.62920	0.74666
3760.70064	0.74771
3758.77207	0.75056
3756.84351	0.74989
3754.91494	0.74849
3752.98638	0.75175
3751.05781	0.75659
3749.12925	0.75234
3747.20069	0.74723
3745.27212	0.74871
3743.34356	0.75099
3741.41499	0.74843
3739.48643	0.74605
3737.55786	0.74746
3735.62930	0.75243
3733.70074	0.75484
3731.77217	0.75304
3729.84361	0.75001
3727.91504	0.74836
3725.98648	0.74947
3724.05791	0.75036
3722.12935	0.74910
3720.20078	0.74732
3718.27222	0.74529
3716.34366	0.74290
3714.41509	0.74163
3712.48653	0.74537
3710.55796	0.75218
3708.62940	0.75217
3706.70083	0.74930
3704.77227	0.74812
3702.84370	0.74892
3700.91514	0.74895
3698.98658	0.74761
3697.05801	0.74807
3695.12945	0.74967
3693.20088	0.74956
3691.27232	0.74977
3689.34375	0.75472
3687.41519	0.75822
3685.48662	0.75800
3683.55806	0.75876
3681.62950	0.76173
3679.70093	0.76494
3677.77237	0.76768
3675.84380	0.77379
3673.91524	0.77820
3671.98667	0.77806
3670.05811	0.78295
3668.12954	0.78950
3666.20098	0.78981
3664.27242	0.78891
3662.34385	0.79112
3660.41529	0.79676
3658.48672	0.80548
3656.55816	0.81513
3654.62959	0.81753
3652.70103	0.81432
3650.77246	0.81625
3648.84390	0.83259
3646.91534	0.84432
3644.98677	0.84579
3643.05821	0.84633
3641.12964	0.84948
3639.20108	0.85481
3637.27251	0.85995
3635.34395	0.86343
3633.41538	0.86592
3631.48682	0.86927
3629.55826	0.87855
3627.62969	0.89054
3625.70113	0.89488
3623.77256	0.89671
3621.84400	0.89974
3619.91543	0.90562
3617.98687	0.91192
3616.05830	0.91652
3614.12974	0.92413
3612.20118	0.93268
3610.27261	0.93790
3608.34405	0.94552
3606.41548	0.95327
3604.48692	0.95514
3602.55835	0.95770
3600.62979	0.96615
3598.70123	0.97646
3596.77266	0.98396
3594.84410	0.98786
3592.91553	0.98934
3590.98697	0.99087
3589.05840	0.99628
3587.12984	1.00761
3585.20127	1.01575
3583.27271	1.01826
3581.34415	1.02045
3579.41558	1.02488
3577.48702	1.03137
3575.55845	1.03971
3573.62989	1.04840
3571.70132	1.05425
3569.77276	1.05761
3567.84419	1.06606
3565.91563	1.08137
3563.98707	1.09078
3562.05850	1.09558
3560.12994	1.10050
3558.20137	1.10565
3556.27281	1.11127
3554.34424	1.12049
3552.41568	1.13360
3550.48711	1.14280
3548.55855	1.14832
3546.62999	1.16040
3544.70142	1.17686
3542.77286	1.18229
3540.84429	1.17837
3538.91573	1.17739
3536.98716	1.18482
3535.05860	1.19634
3533.13003	1.20483
3531.20147	1.20854
3529.27291	1.21023
3527.34434	1.21675
3525.41578	1.22998
3523.48721	1.24175
3521.55865	1.24611
3519.63008	1.24695
3517.70152	1.25154
3515.77295	1.26186
3513.84439	1.27409
3511.91583	1.28266
3509.98726	1.28547
3508.05870	1.28925
3506.13013	1.29990
3504.20157	1.31540
3502.27300	1.32702
3500.34444	1.33087
3498.41587	1.33422
3496.48731	1.34254
3494.55875	1.35512
3492.63018	1.36344
3490.70162	1.36267
3488.77305	1.36103
3486.84449	1.36637
3484.91592	1.37610
3482.98736	1.38552
3481.05879	1.39251
3479.13023	1.39608
3477.20167	1.40131
3475.27310	1.41060
3473.34454	1.41841
3471.41597	1.42693
3469.48741	1.43454
3467.55884	1.42757
3465.63028	1.41363
3463.70171	1.41192
3461.77315	1.41843
3459.84459	1.42029
3457.91602	1.41938
3455.98746	1.42133
3454.05889	1.42381
3452.13033	1.42410
3450.20176	1.42471
3448.27320	1.43028
3446.34464	1.43968
3444.41607	1.44321
3442.48751	1.44000
3440.55894	1.43957
3438.63038	1.44332
3436.70181	1.44561
3434.77325	1.44612
3432.84468	1.44760
3430.91612	1.44907
3428.98756	1.45067
3427.05899	1.45394
3425.13043	1.45412
3423.20186	1.45026
3421.27330	1.45073
3419.34473	1.45671
3417.41617	1.46111
3415.48760	1.46103
3413.55904	1.45818
3411.63048	1.45729
3409.70191	1.46046
3407.77335	1.46401
3405.84478	1.46604
3403.91622	1.46734
3401.98765	1.46764
3400.05909	1.46616
3398.13052	1.46242
3396.20196	1.45967
3394.27340	1.46096
3392.34483	1.46721
3390.41627	1.47761
3388.48770	1.48372
3386.55914	1.48134
3384.63057	1.47428
3382.70201	1.46494
3380.77344	1.45963
3378.84488	1.46238
3376.91632	1.46942
3374.98775	1.47481
3373.05919	1.47540
3371.13062	1.47791
3369.20206	1.48398
3367.27349	1.48188
3365.34493	1.47306
3363.41636	1.47226
3361.48780	1.48144
3359.55924	1.49138
3357.63067	1.49695
3355.70211	1.49905
3353.77354	1.49726
3351.84498	1.49014
3349.91641	1.48406
3347.98785	1.48752
3346.05928	1.49761
3344.13072	1.50764
3342.20216	1.51478
3340.27359	1.51549
3338.34503	1.51150
3336.41646	1.50840
3334.48790	1.50589
3332.55933	1.50308
3330.63077	1.50292
3328.70220	1.50615
3326.77364	1.50965
3324.84508	1.51076
3322.91651	1.50808
3320.98795	1.50527
3319.05938	1.51087
3317.13082	1.52252
3315.20225	1.52904
3313.27369	1.52860
3311.34513	1.52575
3309.41656	1.52527
3307.48800	1.52768
3305.55943	1.52625
3303.63087	1.52126
3301.70230	1.52021
3299.77374	1.52293
3297.84517	1.52738
3295.91661	1.53523
3293.98805	1.54042
3292.05948	1.53694
3290.13092	1.53013
3288.20235	1.52483
3286.27379	1.52381
3284.34522	1.52804
3282.41666	1.53243
3280.48809	1.53232
3278.55953	1.52670
3276.63097	1.52105
3274.70240	1.52217
3272.77384	1.52633
3270.84527	1.52740
3268.91671	1.52378
3266.98814	1.51493
3265.05958	1.50629
3263.13101	1.50543
3261.20245	1.50876
3259.27389	1.50365
3257.34532	1.48737
3255.41676	1.47202
3253.48819	1.46565
3251.55963	1.46163
3249.63106	1.45467
3247.70250	1.45045
3245.77393	1.45072
3243.84537	1.44987
3241.91681	1.44441
3239.98824	1.43628
3238.05968	1.43021
3236.13111	1.42540
3234.20255	1.41984
3232.27398	1.41698
3230.34542	1.41779
3228.41685	1.41816
3226.48829	1.41348
3224.55973	1.40598
3222.63116	1.40375
3220.70260	1.40584
3218.77403	1.40381
3216.84547	1.39735
3214.91690	1.39027
3212.98834	1.38419
3211.05977	1.38165
3209.13121	1.38158
3207.20265	1.37972
3205.27408	1.37523
3203.34552	1.36889
3201.41695	1.36337
3199.48839	1.36217
3197.55982	1.36328
3195.63126	1.36197
3193.70269	1.35635
3191.77413	1.34957
3189.84557	1.34736
3187.91700	1.34861
3185.98844	1.34839
3184.05987	1.34551
3182.13131	1.33891
3180.20274	1.33085
3178.27418	1.32649
3176.34562	1.32449
3174.41705	1.32153
3172.48849	1.31924
3170.55992	1.31888
3168.63136	1.31727
3166.70279	1.31237
3164.77423	1.30646
3162.84566	1.30008
3160.91710	1.29168
3158.98854	1.28442
3157.05997	1.28374
3155.13141	1.28732
3153.20284	1.28712
3151.27428	1.28193
3149.34571	1.27740
3147.41715	1.27580
3145.48858	1.27524
3143.56002	1.27528
3141.63146	1.27441
3139.70289	1.27117
3137.77433	1.26975
3135.84576	1.27083
3133.91720	1.26987
3131.98863	1.26868
3130.06007	1.26948
3128.13150	1.26844
3126.20294	1.26537
3124.27438	1.26387
3122.34581	1.26406
3120.41725	1.26475
3118.48868	1.26464
3116.56012	1.26214
3114.63155	1.25891
3112.70299	1.25698
3110.77442	1.25490
3108.84586	1.25093
3106.91730	1.24806
3104.98873	1.25032
3103.06017	1.25391
3101.13160	1.25391
3099.20304	1.25352
3097.27447	1.25429
3095.34591	1.25381
3093.41734	1.25275
3091.48878	1.25150
3089.56022	1.25081
3087.63165	1.25142
3085.70309	1.25055
3083.77452	1.24907
3081.84596	1.24941
3079.91739	1.24906
3077.98883	1.24749
3076.06026	1.24584
3074.13170	1.24278
3072.20314	1.23941
3070.27457	1.23845
3068.34601	1.23779
3066.41744	1.23401
3064.48888	1.22943
3062.56031	1.22737
3060.63175	1.22599
3058.70318	1.22310
3056.77462	1.21933
3054.84606	1.21448
3052.91749	1.20900
3050.98893	1.20523
3049.06036	1.20145
3047.13180	1.19540
3045.20323	1.19115
3043.27467	1.19018
3041.34610	1.18888
3039.41754	1.18666
3037.48898	1.18390
3035.56041	1.18018
3033.63185	1.17682
3031.70328	1.17450
3029.77472	1.17265
3027.84615	1.17006
3025.91759	1.16625
3023.98903	1.16423
3022.06046	1.16563
3020.13190	1.16625
3018.20333	1.16414
3016.27477	1.16412
3014.34620	1.16639
3012.41764	1.16475
3010.48907	1.16051
3008.56051	1.15944
3006.63195	1.16077
3004.70338	1.16185
3002.77482	1.16185
3000.84625	1.16004
2998.91769	1.15751
2996.98912	1.15673
2995.06056	1.15944
2993.13199	1.16454
2991.20343	1.16863
2989.27487	1.17105
2987.34630	1.17300
2985.41774	1.17448
2983.48917	1.17697
2981.56061	1.18261
2979.63204	1.19107
2977.70348	1.20113
2975.77491	1.21042
2973.84635	1.21638
2971.91779	1.22241
2969.98922	1.23293
2968.06066	1.24349
2966.13209	1.24691
2964.20353	1.24533
2962.27496	1.24625
2960.34640	1.24991
2958.41783	1.25086
2956.48927	1.24795
2954.56071	1.24375
2952.63214	1.23911
2950.70358	1.23503
2948.77501	1.23414
2946.84645	1.23613
2944.91788	1.23877
2942.98932	1.24278
2941.06075	1.24980
2939.13219	1.25905
2937.20363	1.26884
2935.27506	1.27784
2933.34650	1.28448
2931.41793	1.28946
2929.48937	1.29522
2927.56080	1.30151
2925.63224	1.30688
2923.70367	1.31037
2921.77511	1.31020
2919.84655	1.30443
2917.91798	1.29131
2915.98942	1.27157
2914.06085	1.24962
2912.13229	1.22992
2910.20372	1.21414
2908.27516	1.20183
2906.34659	1.19304
2904.41803	1.18715
2902.48947	1.18087
2900.56090	1.17336
2898.63234	1.16767
2896.70377	1.16531
2894.77521	1.16389
2892.84664	1.16011
2890.91808	1.15514
2888.98952	1.15192
2887.06095	1.15033
2885.13239	1.14896
2883.20382	1.14813
2881.27526	1.15021
2879.34669	1.15486
2877.41813	1.15886
2875.48956	1.16040
2873.56100	1.15830
2871.63244	1.15301
2869.70387	1.14726
2867.77531	1.14291
2865.84674	1.13933
2863.91818	1.13621
2861.98961	1.13548
2860.06105	1.13831
2858.13248	1.14325
2856.20392	1.14815
2854.27536	1.15288
2852.34679	1.15706
2850.41823	1.15566
2848.48966	1.14254
2846.56110	1.11910
2844.63253	1.09439
2842.70397	1.07508
2840.77540	1.06126
2838.84684	1.05097
2836.91828	1.04271
2834.98971	1.03613
2833.06115	1.03180
2831.13258	1.02904
2829.20402	1.02595
2827.27545	1.02203
2825.34689	1.01823
2823.41832	1.01568
2821.48976	1.01489
2819.56120	1.01420
2817.63263	1.01165
2815.70407	1.00814
2813.77550	1.00544
2811.84694	1.00292
2809.91837	0.99926
2807.98981	0.99571
2806.06124	0.99306
2804.13268	0.98920
2802.20412	0.98365
2800.27555	0.97893
2798.34699	0.97615
2796.41842	0.97388
2794.48986	0.97035
2792.56129	0.96471
2790.63273	0.95879
2788.70416	0.95493
2786.77560	0.95209
2784.84704	0.94827
2782.91847	0.94372
2780.98991	0.93978
2779.06134	0.93667
2777.13278	0.93344
2775.20421	0.92961
2773.27565	0.92578
2771.34708	0.92222
2769.41852	0.91899
2767.48996	0.91695
2765.56139	0.91601
2763.63283	0.91498
2761.70426	0.91335
2759.77570	0.91103
2757.84713	0.90876
2755.91857	0.90757
2753.99001	0.90696
2752.06144	0.90589
2750.13288	0.90492
2748.20431	0.90494
2746.27575	0.90498
2744.34718	0.90360
2742.41862	0.90070
2740.49005	0.89757
2738.56149	0.89575
2736.63293	0.89490
2734.70436	0.89413
2732.77580	0.89357
2730.84723	0.89335
2728.91867	0.89285
2726.99010	0.89122
2725.06154	0.88910
2723.13297	0.88790
2721.20441	0.88733
2719.27585	0.88621
2717.34728	0.88428
2715.41872	0.88218
2713.49015	0.88036
2711.56159	0.87871
2709.63302	0.87657
2707.70446	0.87358
2705.77589	0.87105
2703.84733	0.87006
2701.91877	0.86989
2699.99020	0.86984
2698.06164	0.86956
2696.13307	0.86897
2694.20451	0.86822
2692.27594	0.86712
2690.34738	0.86602
2688.41881	0.86507
2686.49025	0.86355
2684.56169	0.86220
2682.63312	0.86192
2680.70456	0.86207
2678.77599	0.86192
2676.84743	0.86111
2674.91886	0.85979
2672.99030	0.85869
2671.06173	0.85827
2669.13317	0.85845
2667.20461	0.85854
2665.27604	0.85779
2663.34748	0.85652
2661.41891	0.85553
2659.49035	0.85481
2657.56178	0.85462
2655.63322	0.85503
2653.70465	0.85486
2651.77609	0.85391
2649.84753	0.85292
2647.91896	0.85192
2645.99040	0.85069
2644.06183	0.84886
2642.13327	0.84632
2640.20470	0.84368
2638.27614	0.84117
2636.34757	0.83863
2634.41901	0.83586
2632.49045	0.83286
2630.56188	0.83002
2628.63332	0.82727
2626.70475	0.82467
2624.77619	0.82279
2622.84762	0.82133
2620.91906	0.81991
2618.99049	0.81835
2617.06193	0.81619
2615.13337	0.81373
2613.20480	0.81155
2611.27624	0.80968
2609.34767	0.80790
2607.41911	0.80641
2605.49054	0.80572
2603.56198	0.80501
2601.63342	0.80328
2599.70485	0.80140
2597.77629	0.80000
2595.84772	0.79809
2593.91916	0.79556
2591.99059	0.79403
2590.06203	0.79377
2588.13346	0.79292
2586.20490	0.79044
2584.27634	0.78735
2582.34777	0.78470
2580.41921	0.78233
2578.49064	0.78007
2576.56208	0.77851
2574.63351	0.77760
2572.70495	0.77632
2570.77638	0.77363
2568.84782	0.76993
2566.91926	0.76729
2564.99069	0.76653
2563.06213	0.76602
2561.13356	0.76446
2559.20500	0.76269
2557.27643	0.76203
2555.34787	0.76188
2553.41930	0.76101
2551.49074	0.75981
2549.56218	0.75937
2547.63361	0.75986
2545.70505	0.76061
2543.77648	0.76130
2541.84792	0.76214
2539.91935	0.76308
2537.99079	0.76409
2536.06222	0.76546
2534.13366	0.76719
2532.20510	0.76890
2530.27653	0.77034
2528.34797	0.77105
2526.41940	0.77112
2524.49084	0.77176
2522.56227	0.77282
2520.63371	0.77304
2518.70514	0.77306
2516.77658	0.77388
2514.84802	0.77446
2512.91945	0.77393
2510.99089	0.77255
2509.06232	0.77027
2507.13376	0.76760
2505.20519	0.76527
2503.27663	0.76351
2501.34806	0.76229
2499.41950	0.76131
2497.49094	0.76011
2495.56237	0.75826
2493.63381	0.75581
2491.70524	0.75364
2489.77668	0.75230
2487.84811	0.75151
2485.91955	0.75064
2483.99098	0.74934
2482.06242	0.74804
2480.13386	0.74719
2478.20529	0.74616
2476.27673	0.74493
2474.34816	0.74454
2472.41960	0.74493
2470.49103	0.74500
2468.56247	0.74420
2466.63391	0.74331
2464.70534	0.74283
2462.77678	0.74206
2460.84821	0.74060
2458.91965	0.73873
2456.99108	0.73686
2455.06252	0.73508
2453.13395	0.73293
2451.20539	0.73017
2449.27683	0.72707
2447.34826	0.72400
2445.41970	0.72059
2443.49113	0.71708
2441.56257	0.71432
2439.63400	0.71149
2437.70544	0.70746
2435.77687	0.70278
2433.84831	0.69833
2431.91975	0.69454
2429.99118	0.69151
2428.06262	0.68879
2426.13405	0.68584
2424.20549	0.68277
2422.27692	0.68022
2420.34836	0.67827
2418.41979	0.67634
2416.49123	0.67439
2414.56267	0.67300
2412.63410	0.67235
2410.70554	0.67194
2408.77697	0.67125
2406.84841	0.67063
2404.91984	0.67037
2402.99128	0.67024
2401.06271	0.67050
2399.13415	0.67145
2397.20559	0.67242
2395.27702	0.67256
2393.34846	0.67211
2391.41989	0.67164
2389.49133	0.67130
2387.56276	0.67106
2385.63420	0.67084
2383.70563	0.67064
2381.77707	0.67045
2379.84851	0.66971
2377.91994	0.66842
2375.99138	0.66812
2374.06281	0.66876
2372.13425	0.66840
2370.20568	0.66772
2368.27712	0.66804
2366.34855	0.66803
2364.41999	0.66845
2362.49143	0.67104
2360.56286	0.67104
2358.63430	0.66755
2356.70573	0.66844
2354.77717	0.67174
2352.84860	0.67031
2350.92004	0.66605
2348.99147	0.66384
2347.06291	0.66580
2345.13435	0.67214
2343.20578	0.67883
2341.27722	0.68130
2339.34865	0.68158
2337.42009	0.68302
2335.49152	0.68537
2333.56296	0.68690
2331.63440	0.68682
2329.70583	0.68688
2327.77727	0.68979
2325.84870	0.69379
2323.92014	0.69535
2321.99157	0.69440
2320.06301	0.69260
2318.13444	0.69091
2316.20588	0.68957
2314.27732	0.68819
2312.34875	0.68682
2310.42019	0.68586
2308.49162	0.68460
2306.56306	0.68229
2304.63449	0.67942
2302.70593	0.67660
2300.77736	0.67372
2298.84880	0.67093
2296.92024	0.66830
2294.99167	0.66542
2293.06311	0.66257
2291.13454	0.66040
2289.20598	0.65875
2287.27741	0.65717
2285.34885	0.65555
2283.42028	0.65367
2281.49172	0.65164
2279.56316	0.65013
2277.63459	0.64934
2275.70603	0.64892
2273.77746	0.64852
2271.84890	0.64816
2269.92033	0.64791
2267.99177	0.64733
2266.06320	0.64636
2264.13464	0.64523
2262.20608	0.64408
2260.27751	0.64328
2258.34895	0.64233
2256.42038	0.64069
2254.49182	0.63887
2252.56325	0.63705
2250.63469	0.63488
2248.70612	0.63221
2246.77756	0.62923
2244.84900	0.62622
2242.92043	0.62340
2240.99187	0.62066
2239.06330	0.61775
2237.13474	0.61491
2235.20617	0.61239
2233.27761	0.61006
2231.34904	0.60790
2229.42048	0.60615
2227.49192	0.60483
2225.56335	0.60379
2223.63479	0.60318
2221.70622	0.60309
2219.77766	0.60315
2217.84909	0.60320
2215.92053	0.60333
2213.99196	0.60370
2212.06340	0.60456
2210.13484	0.60578
2208.20627	0.60727
2206.27771	0.60920
2204.34914	0.61108
2202.42058	0.61252
2200.49201	0.61409
2198.56345	0.61607
2196.63488	0.61798
2194.70632	0.61949
2192.77776	0.62078
2190.84919	0.62215
2188.92063	0.62337
2186.99206	0.62430
2185.06350	0.62535
2183.13493	0.62658
2181.20637	0.62747
2179.27781	0.62772
2177.34924	0.62767
2175.42068	0.62763
2173.49211	0.62759
2171.56355	0.62772
2169.63498	0.62812
2167.70642	0.62853
2165.77785	0.62880
2163.84929	0.62917
2161.92073	0.62982
2159.99216	0.63042
2158.06360	0.63071
2156.13503	0.63102
2154.20647	0.63167
2152.27790	0.63279
2150.34934	0.63421
2148.42077	0.63530
2146.49221	0.63599
2144.56365	0.63674
2142.63508	0.63738
2140.70652	0.63751
2138.77795	0.63745
2136.84939	0.63764
2134.92082	0.63795
2132.99226	0.63806
2131.06369	0.63769
2129.13513	0.63676
2127.20657	0.63583
2125.27800	0.63502
2123.34944	0.63353
2121.42087	0.63164
2119.49231	0.63032
2117.56374	0.62934
2115.63518	0.62798
2113.70661	0.62608
2111.77805	0.62393
2109.84949	0.62169
2107.92092	0.61959
2105.99236	0.61772
2104.06379	0.61566
2102.13523	0.61345
2100.20666	0.61133
2098.27810	0.60906
2096.34953	0.60667
2094.42097	0.60452
2092.49241	0.60250
2090.56384	0.60074
2088.63528	0.59939
2086.70671	0.59791
2084.77815	0.59602
2082.84958	0.59395
2080.92102	0.59183
2078.99245	0.58994
2077.06389	0.58856
2075.13533	0.58735
2073.20676	0.58576
2071.27820	0.58380
2069.34963	0.58181
2067.42107	0.57991
2065.49250	0.57820
2063.56394	0.57656
2061.63537	0.57474
2059.70681	0.57305
2057.77825	0.57195
2055.84968	0.57140
2053.92112	0.57070
2051.99255	0.56957
2050.06399	0.56865
2048.13542	0.56807
2046.20686	0.56732
2044.27830	0.56644
2042.34973	0.56598
2040.42117	0.56601
2038.49260	0.56596
2036.56404	0.56555
2034.63547	0.56515
2032.70691	0.56485
2030.77834	0.56440
2028.84978	0.56393
2026.92122	0.56366
2024.99265	0.56366
2023.06409	0.56387
2021.13552	0.56383
2019.20696	0.56348
2017.27839	0.56324
2015.34983	0.56325
2013.42126	0.56355
2011.49270	0.56414
2009.56414	0.56477
2007.63557	0.56519
2005.70701	0.56564
2003.77844	0.56666
2001.84988	0.56790
1999.92131	0.56864
1997.99275	0.56892
1996.06418	0.56911
1994.13562	0.56975
1992.20706	0.57100
1990.27849	0.57222
1988.34993	0.57308
1986.42136	0.57373
1984.49280	0.57438
1982.56423	0.57527
1980.63567	0.57638
1978.70710	0.57742
1976.77854	0.57815
1974.84998	0.57861
1972.92141	0.57888
1970.99285	0.57907
1969.06428	0.57922
1967.13572	0.57905
1965.20715	0.57847
1963.27859	0.57784
1961.35002	0.57712
1959.42146	0.57598
1957.49290	0.57455
1955.56433	0.57303
1953.63577	0.57149
1951.70720	0.57007
1949.77864	0.56897
1947.85007	0.56811
1945.92151	0.56711
1943.99294	0.56593
1942.06438	0.56471
1940.13582	0.56333
1938.20725	0.56201
1936.27869	0.56094
1934.35012	0.56006
1932.42156	0.55910
1930.49299	0.55797
1928.56443	0.55694
1926.63586	0.55603
1924.70730	0.55525
1922.77874	0.55466
1920.85017	0.55403
1918.92161	0.55350
1916.99304	0.55301
1915.06448	0.55193
1913.13591	0.55033
1911.20735	0.54877
1909.27878	0.54749
1907.35022	0.54622
1905.42166	0.54482
1903.49309	0.54346
1901.56453	0.54210
1899.63596	0.54055
1897.70740	0.53883
1895.77883	0.53707
1893.85027	0.53528
1891.92171	0.53368
1889.99314	0.53267
1888.06458	0.53170
1886.13601	0.53029
1884.20745	0.52889
1882.27888	0.52780
1880.35032	0.52709
1878.42175	0.52658
1876.49319	0.52594
1874.56463	0.52525
1872.63606	0.52488
1870.70750	0.52526
1868.77893	0.52655
1866.85037	0.52739
1864.92180	0.52692
1862.99324	0.52614
1861.06467	0.52587
1859.13611	0.52621
1857.20755	0.52656
1855.27898	0.52660
1853.35042	0.52665
1851.42185	0.52689
1849.49329	0.52726
1847.56472	0.52772
1845.63616	0.52865
1843.70759	0.52953
1841.77903	0.52887
1839.85047	0.52778
1837.92190	0.52729
1835.99334	0.52678
1834.06477	0.52567
1832.13621	0.52471
1830.20764	0.52442
1828.27908	0.52383
1826.35051	0.52284
1824.42195	0.52216
1822.49339	0.52136
1820.56482	0.52029
1818.63626	0.51968
1816.70769	0.51962
1814.77913	0.51965
1812.85056	0.52007
1810.92200	0.52137
1808.99343	0.52271
1807.06487	0.52350
1805.13631	0.52435
1803.20774	0.52574
1801.27918	0.52773
1799.35061	0.52960
1797.42205	0.53077
1795.49348	0.53178
1793.56492	0.53349
1791.63635	0.53582
1789.70779	0.53664
1787.77923	0.53648
1785.85066	0.53665
1783.92210	0.53689
1781.99353	0.53683
1780.06497	0.53647
1778.13640	0.53564
1776.20784	0.53451
1774.27927	0.53360
1772.35071	0.53271
1770.42215	0.53103
1768.49358	0.52900
1766.56502	0.52701
1764.63645	0.52543
1762.70789	0.52492
1760.77932	0.52531
1758.85076	0.52609
1756.92220	0.52827
1754.99363	0.53129
1753.06507	0.53491
1751.13650	0.54204
1749.20794	0.55269
1747.27937	0.56183
1745.35081	0.56920
1743.42224	0.57632
1741.49368	0.58335
1739.56512	0.58982
1737.63655	0.59396
1735.70799	0.59748
1733.77942	0.60466
1731.85086	0.61029
1729.92229	0.61279
1727.99373	0.61614
1726.06516	0.62103
1724.13660	0.62786
1722.20804	0.63473
1720.27947	0.64079
1718.35091	0.65070
1716.42234	0.66804
1714.49378	0.68285
1712.56521	0.69489
1710.63665	0.70920
1708.70808	0.72733
1706.77952	0.75464
1704.85096	0.79170
1702.92239	0.82579
1700.99383	0.87223
1699.06526	0.94661
1697.13670	1.01764
1695.20813	1.08643
1693.27957	1.13643
1691.35100	1.17455
1689.42244	1.22017
1687.49388	1.26119
1685.56531	1.29902
1683.63675	1.35621
1681.70818	1.39722
1679.77962	1.41659
1677.85105	1.43270
1675.92249	1.45336
1673.99392	1.47446
1672.06536	1.48732
1670.13680	1.49720
1668.20823	1.50637
1666.27967	1.50871
1664.35110	1.50884
1662.42254	1.50895
1660.49397	1.50758
1658.56541	1.50654
1656.63684	1.50502
1654.70828	1.50300
1652.77972	1.49612
1650.85115	1.48852
1648.92259	1.48351
1646.99402	1.47585
1645.06546	1.46966
1643.13689	1.46612
1641.20833	1.46270
1639.27976	1.45935
1637.35120	1.45779
1635.42264	1.45738
1633.49407	1.45307
1631.56551	1.44753
1629.63694	1.44308
1627.70838	1.43971
1625.77981	1.43367
1623.85125	1.42168
1621.92269	1.40635
1619.99412	1.39491
1618.06556	1.38457
1616.13699	1.36751
1614.20843	1.34900
1612.27986	1.33152
1610.35130	1.31286
1608.42273	1.29385
1606.49417	1.27599
1604.56561	1.26084
1602.63704	1.24934
1600.70848	1.24168
1598.77991	1.23658
1596.85135	1.23320
1594.92278	1.23154
1592.99422	1.23189
1591.06565	1.23389
1589.13709	1.23685
1587.20853	1.24265
1585.27996	1.25246
1583.35140	1.26422
1581.42283	1.27518
1579.49427	1.28442
1577.56570	1.29686
1575.63714	1.31622
1573.70857	1.32796
1571.78001	1.33320
1569.85145	1.34067
1567.92288	1.34855
1565.99432	1.35528
1564.06575	1.36355
1562.13719	1.37083
1560.20862	1.37792
1558.28006	1.38504
1556.35149	1.38627
1554.42293	1.38749
1552.49437	1.38678
1550.56580	1.38389
1548.63724	1.38160
1546.70867	1.38081
1544.78011	1.38040
1542.85154	1.38174
1540.92298	1.38325
1538.99441	1.37393
1537.06585	1.36680
1535.13729	1.36324
1533.20872	1.35899
1531.28016	1.35388
1529.35159	1.34873
1527.42303	1.34239
1525.49446	1.33664
1523.56590	1.33422
1521.63733	1.33216
1519.70877	1.32720
1517.78021	1.32108
1515.85164	1.31626
1513.92308	1.31052
1511.99451	1.30056
1510.06595	1.28823
1508.13738	1.27190
1506.20882	1.24615
1504.28025	1.22977
1502.35169	1.21789
1500.42313	1.20330
1498.49456	1.18314
1496.56600	1.15873
1494.63743	1.13955
1492.70887	1.12564
1490.78030	1.10878
1488.85174	1.08644
1486.92317	1.06791
1484.99461	1.05419
1483.06605	1.04324
1481.13748	1.03528
1479.20892	1.03154
1477.28035	1.03248
1475.35179	1.03928
1473.42322	1.05547
1471.49466	1.07282
1469.56610	1.07970
1467.63753	1.08318
1465.70897	1.08974
1463.78040	1.09842
1461.85184	1.10321
1459.92327	1.10600
1457.99471	1.11497
1456.06614	1.12852
1454.13758	1.13219
1452.20902	1.13308
1450.28045	1.13529
1448.35189	1.13743
1446.42332	1.13609
1444.49476	1.13211
1442.56619	1.12838
1440.63763	1.12504
1438.70906	1.12027
1436.78050	1.11253
1434.85194	1.10387
1432.92337	1.09604
1430.99481	1.08732
1429.06624	1.07794
1427.13768	1.07061
1425.20911	1.06609
1423.28055	1.06377
1421.35198	1.06286
1419.42342	1.06373
1417.49486	1.06515
1415.56629	1.06360
1413.63773	1.06005
1411.70916	1.05674
1409.78060	1.05520
1407.85203	1.05550
1405.92347	1.05714
1403.99490	1.05927
1402.06634	1.06087
1400.13778	1.06247
1398.20921	1.06437
1396.28065	1.06556
1394.35208	1.06603
1392.42352	1.06695
1390.49495	1.06948
1388.56639	1.07544
1386.63782	1.08537
1384.70926	1.09583
1382.78070	1.10505
1380.85213	1.11248
1378.92357	1.11652
1376.99500	1.11588
1375.06644	1.10984
1373.13787	1.10000
1371.20931	1.08952
1369.28074	1.07698
1367.35218	1.06153
1365.42362	1.04652
1363.49505	1.03237
1361.56649	1.01925
1359.63792	1.01012
1357.70936	1.00427
1355.78079	0.99939
1353.85223	0.99486
1351.92366	0.99151
1349.99510	0.98950
1348.06654	0.98808
1346.13797	0.98648
1344.20941	0.98496
1342.28084	0.98409
1340.35228	0.98410
1338.42371	0.98513
1336.49515	0.98752
1334.56659	0.99204
1332.63802	0.99900
1330.70946	1.00747
1328.78089	1.01568
1326.85233	1.02215
1324.92376	1.02694
1322.99520	1.03187
1321.06663	1.03833
1319.13807	1.04547
1317.20951	1.05143
1315.28094	1.05635
1313.35238	1.06153
1311.42381	1.06633
1309.49525	1.06938
1307.56668	1.07087
1305.63812	1.07155
1303.70955	1.07158
1301.78099	1.07059
1299.85243	1.06784
1297.92386	1.06295
1295.99530	1.05680
1294.06673	1.05107
1292.13817	1.04653
1290.20960	1.04237
1288.28104	1.03748
1286.35247	1.03229
1284.42391	1.02798
1282.49535	1.02425
1280.56678	1.02038
1278.63822	1.01710
1276.70965	1.01522
1274.78109	1.01500
1272.85252	1.01688
1270.92396	1.02027
1268.99539	1.02396
1267.06683	1.02785
1265.13827	1.03179
1263.20970	1.03522
1261.28114	1.03832
1259.35257	1.04136
1257.42401	1.04445
1255.49544	1.04800
1253.56688	1.05202
1251.63831	1.05596
1249.70975	1.05923
1247.78119	1.06167
1245.85262	1.06374
1243.92406	1.06578
1241.99549	1.06744
1240.06693	1.06775
1238.13836	1.06557
1236.20980	1.06047
1234.28123	1.05350
1232.35267	1.04616
1230.42411	1.03802
1228.49554	1.02760
1226.56698	1.01522
1224.63841	1.00219
1222.70985	0.98863
1220.78128	0.97441
1218.85272	0.96020
1216.92415	0.94707
1214.99559	0.93601
1213.06703	0.92718
1211.13846	0.92086
1209.20990	0.91702
1207.28133	0.91352
1205.35277	0.90750
1203.42420	0.89802
1201.49564	0.88699
1199.56708	0.87710
1197.63851	0.86903
1195.70995	0.86259
1193.78138	0.85834
1191.85282	0.85672
1189.92425	0.85793
1187.99569	0.86228
1186.06712	0.86958
1184.13856	0.87936
1182.21000	0.89170
1180.28143	0.90684
1178.35287	0.92437
1176.42430	0.94356
1174.49574	0.96399
1172.56717	0.98470
1170.63861	1.00472
1168.71004	1.02433
1166.78148	1.04407
1164.85292	1.06354
1162.92435	1.07998
1160.99579	1.08908
1159.06722	1.08923
1157.13866	1.08238
1155.21009	1.07080
1153.28153	1.05470
1151.35296	1.03429
1149.42440	1.01218
1147.49584	0.99134
1145.56727	0.97428
1143.63871	0.96299
1141.71014	0.95800
1139.78158	0.95901
1137.85301	0.96534
1135.92445	0.97630
1133.99588	0.99130
1132.06732	1.00987
1130.13876	1.03304
1128.21019	1.06063
1126.28163	1.08882
1124.35306	1.11456
1122.42450	1.13759
1120.49593	1.15715
1118.56737	1.17201
1116.63880	1.18295
1114.71024	1.19029
1112.78168	1.19247
1110.85311	1.19066
1108.92455	1.18757
1106.99598	1.18377
1105.06742	1.17957
1103.13885	1.17582
1101.21029	1.17173
1099.28172	1.16665
1097.35316	1.16307
1095.42460	1.16207
1093.49603	1.16178
1091.56747	1.16264
1089.63890	1.16687
1087.71034	1.17518
1085.78177	1.18532
1083.85321	1.19397
1081.92464	1.19952
1079.99608	1.20087
1078.06752	1.19669
1076.13895	1.18761
1074.21039	1.17641
1072.28182	1.16373
1070.35326	1.14890
1068.42469	1.13396
1066.49613	1.12140
1064.56756	1.11165
1062.63900	1.10351
1060.71044	1.09577
1058.78187	1.08924
1056.85331	1.08587
1054.92474	1.08597
1052.99618	1.08785
1051.06761	1.08979
1049.13905	1.09131
1047.21049	1.09507
1045.28192	1.10360
1043.35336	1.11415
1041.42479	1.12311
1039.49623	1.12883
1037.56766	1.13034
1035.63910	1.12790
1033.71053	1.12166
1031.78197	1.11143
1029.85341	1.09646
1027.92484	1.07629
1025.99628	1.05194
1024.06771	1.02560
1022.13915	1.00024
1020.21058	0.97729
1018.28202	0.95572
1016.35345	0.93390
1014.42489	0.91138
1012.49633	0.88796
1010.56776	0.86239
1008.63920	0.83510
1006.71063	0.80856
1004.78207	0.78502
1002.85350	0.76652
1000.92494	0.75341
998.99637	0.74436
997.06781	0.73877
995.13925	0.73658
993.21068	0.73691
991.28212	0.73880
989.35355	0.74171
987.42499	0.74591
985.49642	0.75273
983.56786	0.76277
981.63929	0.77495
979.71073	0.78832
977.78217	0.80232
975.85360	0.81498
973.92504	0.82359
971.99647	0.82769
970.06791	0.82805
968.13934	0.82439
966.21078	0.81751
964.28221	0.81053
962.35365	0.80664
960.42509	0.80697
958.49652	0.80984
956.56796	0.81111
954.63939	0.80672
952.71083	0.79567
950.78226	0.78010
948.85370	0.76328
946.92513	0.74805
944.99657	0.73616
943.06801	0.72823
941.13944	0.72450
939.21088	0.72494
937.28231	0.72854
935.35375	0.73413
933.42518	0.74181
931.49662	0.75219
929.56805	0.76495
927.63949	0.77940
925.71093	0.79521
923.78236	0.81184
921.85380	0.82895
919.92523	0.84578
917.99667	0.86053
916.06810	0.87231
914.13954	0.88119
912.21098	0.88740
910.28241	0.89118
908.35385	0.89288
906.42528	0.89297
904.49672	0.89073
902.56815	0.88546
900.63959	0.87732
898.71102	0.86636
896.78246	0.85300
894.85390	0.83796
892.92533	0.82199
890.99677	0.80620
889.06820	0.79161
887.13964	0.77913
885.21107	0.76877
883.28251	0.76026
881.35394	0.75408
879.42538	0.75055
877.49682	0.74990
875.56825	0.75181
873.63969	0.75521
871.71112	0.76003
869.78256	0.76676
867.85399	0.77477
865.92543	0.78310
863.99686	0.79153
862.06830	0.80111
860.13974	0.81259
858.21117	0.82486
856.28261	0.83679
854.35404	0.84788
852.42548	0.85675
850.49691	0.86284
848.56835	0.86698
846.63978	0.86965
844.71122	0.87138
842.78266	0.87196
840.85409	0.87019
838.92553	0.86604
836.99696	0.86050
835.06840	0.85371
833.13983	0.84574
831.21127	0.83780
829.28270	0.83074
827.35414	0.82419
825.42558	0.81840
823.49701	0.81397
821.56845	0.81082
819.63988	0.80925
817.71132	0.80987
815.78275	0.81272
813.85419	0.81810
811.92562	0.82638
809.99706	0.83695
808.06850	0.84945
806.13993	0.86342
804.21137	0.87815
802.28280	0.89429
800.35424	0.91216
798.42567	0.93042
796.49711	0.94787
794.56854	0.96428
792.63998	0.97984
790.71142	0.99498
788.78285	1.00884
786.85429	1.01939
784.92572	1.02680
782.99716	1.03209
781.06859	1.03461
779.14003	1.03428
777.21147	1.03209
775.28290	1.02901
773.35434	1.02569
771.42577	1.02218
769.49721	1.01803
767.56864	1.01297
765.64008	1.00796
763.71151	1.00503
761.78295	1.00501
759.85439	1.00638
757.92582	1.00765
755.99726	1.00917
754.06869	1.01230
752.14013	1.01761
750.21156	1.02361
748.28300	1.02968
746.35443	1.03696
744.42587	1.04437
742.49731	1.04993
740.56874	1.05401
738.64018	1.05695
736.71161	1.05872
734.78305	1.05950
732.85448	1.05879
730.92592	1.05705
728.99735	1.05458
727.06879	1.05068
725.14023	1.04623
723.21166	1.04276
721.28310	1.03933
719.35453	1.03478
717.42597	1.03061
715.49740	1.02773
713.56884	1.02509
711.64027	1.02244
709.71171	1.02150
707.78315	1.02269
705.85458	1.02424
703.92602	1.02488
701.99745	1.02466
700.06889	1.02531
698.14032	1.02738
696.21176	1.02826
694.28319	1.02634
692.35463	1.02377
690.42607	1.02412
688.49750	1.02728
686.56894	1.03073
684.64037	1.03513
682.71181	1.04268
680.78324	1.05221
678.85468	1.06049
676.92611	1.06673
674.99755	1.07095
673.06899	1.07277
671.14042	1.07256
669.21186	1.07520
667.28329	1.08599
665.35473	1.09122
663.42616	1.08961
661.49760	1.08604
659.56903	1.08297
657.64047	1.08073
655.71191	1.07548
653.78334	1.06649
651.85478	1.05860
649.92621	1.05384
647.99765	1.05131
646.06908	1.05003
644.14052	1.04777
642.21195	1.04412
640.28339	1.04392
638.35483	1.04860
636.42626	1.05247
634.49770	1.05356
632.56913	1.05656
630.64057	1.06526
628.71200	1.07741
626.78344	1.08730
624.85488	1.09398
622.92631	1.10255
620.99775	1.11202
619.06918	1.11583
617.14062	1.11704
615.21205	1.12217
613.28349	1.12763
611.35492	1.13042
609.42636	1.13263
607.49780	1.13323
605.56923	1.13229
603.64067	1.13225
601.71210	1.13044
599.78354	1.12316
