3997.91406	0.64345
3995.98550	0.64318
3994.05693	0.64215
3992.12837	0.64218
3990.19980	0.64231
3988.27124	0.64117
3986.34268	0.63993
3984.41411	0.63983
3982.48555	0.64006
3980.55698	0.63935
3978.62842	0.63820
3976.69985	0.63732
3974.77129	0.63612
3972.84272	0.63495
3970.91416	0.63535
3968.98560	0.63724
3967.05703	0.63821
3965.12847	0.63724
3963.19990	0.63677
3961.27134	0.63697
3959.34277	0.63536
3957.41421	0.63327
3955.48564	0.63299
3953.55708	0.63386
3951.62852	0.63368
3949.69995	0.63248
3947.77139	0.63201
3945.84282	0.63112
3943.91426	0.62995
3941.98569	0.62978
3940.05713	0.62962
3938.12856	0.62899
3936.20000	0.62724
3934.27144	0.62602
3932.34287	0.62862
3930.41431	0.63103
3928.48574	0.62942
3926.55718	0.62915
3924.62861	0.63215
3922.70005	0.63156
3920.77148	0.62710
3918.84292	0.62577
3916.91436	0.62924
3914.98579	0.63094
3913.05723	0.62845
3911.12866	0.62564
3909.20010	0.62319
3907.27153	0.62059
3905.34297	0.62247
3903.41440	0.63006
3901.48584	0.63513
3899.55728	0.63568
3897.62871	0.63204
3895.70015	0.62612
3893.77158	0.62409
3891.84302	0.62956
3889.91445	0.63078
3887.98589	0.62441
3886.05733	0.62251
3884.12876	0.62623
3882.20020	0.62905
3880.27163	0.63260
3878.34307	0.63000
3876.41450	0.62372
3874.48594	0.62243
3872.55737	0.62510
3870.62881	0.62914
3868.70025	0.62808
3866.77168	0.62034
3864.84312	0.61834
3862.91455	0.62287
3860.98599	0.62239
3859.05742	0.61737
3857.12886	0.61135
3855.20029	0.61139
3853.27173	0.62659
3851.34317	0.62927
3849.41460	0.61892
3847.48604	0.60950
3845.55747	0.60447
3843.62891	0.60439
3841.70034	0.60642
3839.77178	0.61061
3837.84321	0.61819
3835.91465	0.62053
3833.98609	0.61770
3832.05752	0.61485
3830.12896	0.61172
3828.20039	0.60959
3826.27183	0.60989
3824.34326	0.60866
3822.41470	0.60946
3820.48613	0.61523
3818.55757	0.61390
3816.62901	0.61259
3814.70044	0.61305
3812.77188	0.60805
3810.84331	0.60082
3808.91475	0.59640
3806.98618	0.59859
3805.05762	0.60034
3803.12905	0.60179
3801.20049	0.61016
3799.27193	0.61051
3797.34336	0.60550
3795.41480	0.60442
3793.48623	0.60218
3791.55767	0.59841
3789.62910	0.59660
3787.70054	0.59651
3785.77197	0.59744
3783.84341	0.59752
3781.91485	0.59635
3779.98628	0.59853
3778.05772	0.60123
3776.12915	0.59869
3774.20059	0.59503
3772.27202	0.59466
3770.34346	0.59937
3768.41489	0.60419
3766.48633	0.60524
3764.55777	0.60407
3762.62920	0.60066
3760.70064	0.59995
3758.77207	0.60399
3756.84351	0.60269
3754.91494	0.59618
3752.98638	0.59528
3751.05781	0.60906
3749.12925	0.61586
3747.20069	0.60876
3745.27212	0.60898
3743.34356	0.61474
3741.41499	0.61102
3739.48643	0.60344
3737.55786	0.59962
3735.62930	0.60561
3733.70074	0.61441
3731.77217	0.61274
3729.84361	0.60491
3727.91504	0.59869
3725.98648	0.59841
3724.05791	0.60110
3722.12935	0.60294
3720.20078	0.60314
3718.27222	0.60006
3716.34366	0.59502
3714.41509	0.59162
3712.48653	0.59615
3710.55796	0.60669
3708.62940	0.60722
3706.70083	0.60173
3704.77227	0.59738
3702.84370	0.59790
3700.91514	0.60112
3698.98658	0.60047
3697.05801	0.59795
3695.12945	0.59647
3693.20088	0.59599
3691.27232	0.59926
3689.34375	0.60927
3687.41519	0.61465
3685.48662	0.61279
3683.55806	0.60998
3681.62950	0.60837
3679.70093	0.60760
3677.77237	0.60910
3675.84380	0.62045
3673.91524	0.62915
3671.98667	0.62886
3670.05811	0.63628
3668.12954	0.64316
3666.20098	0.64069
3664.27242	0.63874
3662.34385	0.64017
3660.41529	0.64137
3658.48672	0.64303
3656.55816	0.65036
3654.62959	0.65551
3652.70103	0.65307
3650.77246	0.65635
3648.84390	0.67707
3646.91534	0.68790
3644.98677	0.68743
3643.05821	0.68774
3641.12964	0.69046
3639.20108	0.69411
3637.27251	0.69760
3635.34395	0.70124
3633.41538	0.70464
3631.48682	0.70766
3629.55826	0.72037
3627.62969	0.74002
3625.70113	0.74511
3623.77256	0.74416
3621.84400	0.74539
3619.91543	0.75324
3617.98687	0.76215
3616.05830	0.76583
3614.12974	0.77173
3612.20118	0.77842
3610.27261	0.78258
3608.34405	0.79074
3606.41548	0.79914
3604.48692	0.80157
3602.55835	0.80441
3600.62979	0.81191
3598.70123	0.81987
3596.77266	0.82687
3594.84410	0.83740
3592.91553	0.84777
3590.98697	0.85110
3589.05840	0.85438
3587.12984	0.86795
3585.20127	0.88036
3583.27271	0.88450
3581.34415	0.88804
3579.41558	0.89388
3577.48702	0.90022
3575.55845	0.90842
3573.62989	0.91778
3571.70132	0.92369
3569.77276	0.92922
3567.84419	0.94466
3565.91563	0.96357
3563.98707	0.96932
3562.05850	0.97124
3560.12994	0.97682
3558.20137	0.98525
3556.27281	0.99459
3554.34424	1.00467
3552.41568	1.01369
3550.48711	1.01769
3548.55855	1.02130
3546.62999	1.03127
3544.70142	1.04328
3542.77286	1.05197
3540.84429	1.06009
3538.91573	1.06808
3536.98716	1.07541
3535.05860	1.08326
3533.13003	1.09155
3531.20147	1.10094
3529.27291	1.11166
3527.34434	1.12294
3525.41578	1.13553
3523.48721	1.14817
3521.55865	1.15736
3519.63008	1.16346
3517.70152	1.17044
3515.77295	1.17884
3513.84439	1.18694
3511.91583	1.19711
3509.98726	1.21170
3508.05870	1.22600
3506.13013	1.23736
3504.20157	1.25194
3502.27300	1.26952
3500.34444	1.28325
3498.41587	1.29396
3496.48731	1.30374
3494.55875	1.31332
3492.63018	1.32194
3490.70162	1.32983
3488.77305	1.34035
3486.84449	1.35254
3484.91592	1.36245
3482.98736	1.37079
3481.05879	1.37817
3479.13023	1.38128
3477.20167	1.37987
3475.27310	1.37953
3473.34454	1.38557
3471.41597	1.39444
3469.48741	1.40056
3467.55884	1.40561
3465.63028	1.41099
3463.70171	1.41457
3461.77315	1.41879
3459.84459	1.43002
3457.91602	1.44659
3455.98746	1.45798
3454.05889	1.45870
3452.13033	1.45512
3450.20176	1.45632
3448.27320	1.46302
3446.34464	1.46461
3444.41607	1.45732
3442.48751	1.45616
3440.55894	1.46811
3438.63038	1.48245
3436.70181	1.49108
3434.77325	1.49177
3432.84468	1.48684
3430.91612	1.48622
3428.98756	1.49047
3427.05899	1.48891
3425.13043	1.48257
3423.20186	1.48113
3421.27330	1.48599
3419.34473	1.49130
3417.41617	1.49303
3415.48760	1.49503
3413.55904	1.50174
3411.63048	1.50742
3409.70191	1.50358
3407.77335	1.49432
3405.84478	1.48869
3403.91622	1.48586
3401.98765	1.48282
3400.05909	1.48313
3398.13052	1.49157
3396.20196	1.50626
3394.27340	1.51711
3392.34483	1.51795
3390.41627	1.51454
3388.48770	1.51264
3386.55914	1.51066
3384.63057	1.50998
3382.70201	1.51519
3380.77344	1.52181
3378.84488	1.52570
3376.91632	1.53181
3374.98775	1.53767
3373.05919	1.53565
3371.13062	1.53195
3369.20206	1.53628
3367.27349	1.54546
3365.34493	1.54981
3363.41636	1.54893
3361.48780	1.55015
3359.55924	1.55350
3357.63067	1.55299
3355.70211	1.54852
3353.77354	1.54792
3351.84498	1.55608
3349.91641	1.56635
3347.98785	1.57310
3346.05928	1.57782
3344.13072	1.57869
3342.20216	1.57858
3340.27359	1.58169
3338.34503	1.58237
3336.41646	1.58084
3334.48790	1.58010
3332.55933	1.57786
3330.63077	1.57833
3328.70220	1.58297
3326.77364	1.58709
3324.84508	1.59418
3322.91651	1.60712
3320.98795	1.62022
3319.05938	1.63024
3317.13082	1.63456
3315.20225	1.63145
3313.27369	1.62835
3311.34513	1.63108
3309.41656	1.63670
3307.48800	1.64038
3305.55943	1.63899
3303.63087	1.63259
3301.70230	1.62759
3299.77374	1.62933
3297.84517	1.63327
3295.91661	1.63578
3293.98805	1.63892
3292.05948	1.64231
3290.13092	1.64035
3288.20235	1.63350
3286.27379	1.63166
3284.34522	1.63467
3282.41666	1.63527
3280.48809	1.63462
3278.55953	1.63616
3276.63097	1.63769
3274.70240	1.63749
3272.77384	1.63894
3270.84527	1.63628
3268.91671	1.62470
3266.98814	1.61356
3265.05958	1.60496
3263.13101	1.59437
3261.20245	1.58573
3259.27389	1.58025
3257.34532	1.57096
3255.41676	1.55853
3253.48819	1.54981
3251.55963	1.54258
3249.63106	1.53517
3247.70250	1.52953
3245.77393	1.52318
3243.84537	1.51504
3241.91681	1.50641
3239.98824	1.50002
3238.05968	1.49550
3236.13111	1.48571
3234.20255	1.47128
3232.27398	1.46217
3230.34542	1.46021
3228.41685	1.45593
3226.48829	1.44576
3224.55973	1.43878
3222.63116	1.43828
3220.70260	1.43806
3218.77403	1.43759
3216.84547	1.43827
3214.91690	1.43422
3212.98834	1.42343
3211.05977	1.41288
3209.13121	1.40556
3207.20265	1.39799
3205.27408	1.39079
3203.34552	1.38818
3201.41695	1.38796
3199.48839	1.38580
3197.55982	1.38191
3195.63126	1.37594
3193.70269	1.36878
3191.77413	1.36515
3189.84557	1.36652
3187.91700	1.36551
3185.98844	1.35407
3184.05987	1.33856
3182.13131	1.32974
3180.20274	1.32638
3178.27418	1.32316
3176.34562	1.31857
3174.41705	1.31366
3172.48849	1.31010
3170.55992	1.30588
3168.63136	1.29929
3166.70279	1.29436
3164.77423	1.29179
3162.84566	1.28843
3160.91710	1.28587
3158.98854	1.28555
3157.05997	1.28376
3155.13141	1.27835
3153.20284	1.27157
3151.27428	1.26498
3149.34571	1.25891
3147.41715	1.25453
3145.48858	1.25205
3143.56002	1.25049
3141.63146	1.25020
3139.70289	1.25121
3137.77433	1.24972
3135.84576	1.24465
3133.91720	1.24125
3131.98863	1.24138
3130.06007	1.24161
3128.13150	1.24025
3126.20294	1.23841
3124.27438	1.23741
3122.34581	1.23758
3120.41725	1.23880
3118.48868	1.23975
3116.56012	1.23919
3114.63155	1.23855
3112.70299	1.23923
3110.77442	1.24041
3108.84586	1.24197
3106.91730	1.24380
3104.98873	1.24467
3103.06017	1.24416
3101.13160	1.24239
3099.20304	1.24124
3097.27447	1.24002
3095.34591	1.23662
3093.41734	1.23481
3091.48878	1.23476
3089.56022	1.23183
3087.63165	1.22647
3085.70309	1.22149
3083.77452	1.21860
3081.84596	1.21695
3079.91739	1.21399
3077.98883	1.21041
3076.06026	1.20953
3074.13170	1.20985
3072.20314	1.20640
3070.27457	1.19992
3068.34601	1.19380
3066.41744	1.18913
3064.48888	1.18629
3062.56031	1.18334
3060.63175	1.17862
3058.70318	1.17322
3056.77462	1.16759
3054.84606	1.16147
3052.91749	1.15607
3050.98893	1.15205
3049.06036	1.14784
3047.13180	1.14309
3045.20323	1.13912
3043.27467	1.13387
3041.34610	1.12513
3039.41754	1.11708
3037.48898	1.11331
3035.56041	1.11104
3033.63185	1.10766
3031.70328	1.10390
3029.77472	1.10111
3027.84615	1.09863
3025.91759	1.09485
3023.98903	1.09088
3022.06046	1.08796
3020.13190	1.08473
3018.20333	1.08093
3016.27477	1.07800
3014.34620	1.07534
3012.41764	1.07143
3010.48907	1.06779
3008.56051	1.06670
3006.63195	1.06679
3004.70338	1.06563
3002.77482	1.06429
3000.84625	1.06500
2998.91769	1.06675
2996.98912	1.06749
2995.06056	1.06739
2993.13199	1.06792
2991.20343	1.07084
2989.27487	1.07616
2987.34630	1.08132
2985.41774	1.08641
2983.48917	1.09391
2981.56061	1.10236
2979.63204	1.10882
2977.70348	1.11601
2975.77491	1.12696
2973.84635	1.13843
2971.91779	1.14799
2969.98922	1.15797
2968.06066	1.16975
2966.13209	1.18076
2964.20353	1.18761
2962.27496	1.19029
2960.34640	1.18888
2958.41783	1.18329
2956.48927	1.17746
2954.56071	1.17301
2952.63214	1.16781
2950.70358	1.16201
2948.77501	1.15662
2946.84645	1.15307
2944.91788	1.15461
2942.98932	1.16163
2941.06075	1.17176
2939.13219	1.18341
2937.20363	1.19406
2935.27506	1.20163
2933.34650	1.20673
2931.41793	1.21216
2929.48937	1.22107
2927.56080	1.23139
2925.63224	1.23779
2923.70367	1.23836
2921.77511	1.23560
2919.84655	1.23248
2917.91798	1.22560
2915.98942	1.20924
2914.06085	1.18528
2912.13229	1.16021
2910.20372	1.13845
2908.27516	1.12168
2906.34659	1.11031
2904.41803	1.10291
2902.48947	1.09641
2900.56090	1.08959
2898.63234	1.08410
2896.70377	1.08089
2894.77521	1.07753
2892.84664	1.07163
2890.91808	1.06530
2888.98952	1.06169
2887.06095	1.06059
2885.13239	1.06017
2883.20382	1.06058
2881.27526	1.06188
2879.34669	1.06163
2877.41813	1.06021
2875.48956	1.05995
2873.56100	1.05811
2871.63244	1.05166
2869.70387	1.04207
2867.77531	1.03154
2865.84674	1.02244
2863.91818	1.01669
2861.98961	1.01357
2860.06105	1.01204
2858.13248	1.01318
2856.20392	1.01771
2854.27536	1.02315
2852.34679	1.02666
2850.41823	1.02576
2848.48966	1.01490
2846.56110	0.99269
2844.63253	0.96721
2842.70397	0.94587
2840.77540	0.93023
2838.84684	0.91939
2836.91828	0.91160
2834.98971	0.90493
2833.06115	0.89884
2831.13258	0.89358
2829.20402	0.88853
2827.27545	0.88328
2825.34689	0.87837
2823.41832	0.87354
2821.48976	0.86871
2819.56120	0.86466
2817.63263	0.86087
2815.70407	0.85671
2813.77550	0.85259
2811.84694	0.84832
2809.91837	0.84403
2807.98981	0.84037
2806.06124	0.83641
2804.13268	0.83162
2802.20412	0.82750
2800.27555	0.82445
2798.34699	0.82117
2796.41842	0.81774
2794.48986	0.81520
2792.56129	0.81298
2790.63273	0.81053
2788.70416	0.80836
2786.77560	0.80634
2784.84704	0.80442
2782.91847	0.80320
2780.98991	0.80200
2779.06134	0.79952
2777.13278	0.79586
2775.20421	0.79218
2773.27565	0.78920
2771.34708	0.78630
2769.41852	0.78301
2767.48996	0.77980
2765.56139	0.77703
2763.63283	0.77423
2761.70426	0.77072
2759.77570	0.76675
2757.84713	0.76327
2755.91857	0.76072
2753.99001	0.75910
2752.06144	0.75768
2750.13288	0.75564
2748.20431	0.75349
2746.27575	0.75198
2744.34718	0.75096
2742.41862	0.75020
2740.49005	0.74986
2738.56149	0.74951
2736.63293	0.74843
2734.70436	0.74681
2732.77580	0.74542
2730.84723	0.74440
2728.91867	0.74349
2726.99010	0.74262
2725.06154	0.74151
2723.13297	0.73986
2721.20441	0.73813
2719.27585	0.73668
2717.34728	0.73476
2715.41872	0.73203
2713.49015	0.72943
2711.56159	0.72703
2709.63302	0.72437
2707.70446	0.72196
2705.77589	0.72009
2703.84733	0.71856
2701.91877	0.71733
2699.99020	0.71633
2698.06164	0.71566
2696.13307	0.71562
2694.20451	0.71622
2692.27594	0.71706
2690.34738	0.71772
2688.41881	0.71799
2686.49025	0.71814
2684.56169	0.71860
2682.63312	0.71908
2680.70456	0.71916
2678.77599	0.71915
2676.84743	0.71942
2674.91886	0.71992
2672.99030	0.72021
2671.06173	0.71963
2669.13317	0.71853
2667.20461	0.71767
2665.27604	0.71623
2663.34748	0.71344
2661.41891	0.71046
2659.49035	0.70862
2657.56178	0.70761
2655.63322	0.70611
2653.70465	0.70355
2651.77609	0.70055
2649.84753	0.69781
2647.91896	0.69570
2645.99040	0.69421
2644.06183	0.69299
2642.13327	0.69162
2640.20470	0.68977
2638.27614	0.68771
2636.34757	0.68626
2634.41901	0.68593
2632.49045	0.68619
2630.56188	0.68573
2628.63332	0.68403
2626.70475	0.68201
2624.77619	0.68033
2622.84762	0.67846
2620.91906	0.67603
2618.99049	0.67376
2617.06193	0.67201
2615.13337	0.67001
2613.20480	0.66754
2611.27624	0.66520
2609.34767	0.66326
2607.41911	0.66137
2605.49054	0.65920
2603.56198	0.65694
2601.63342	0.65489
2599.70485	0.65305
2597.77629	0.65136
2595.84772	0.64990
2593.91916	0.64888
2591.99059	0.64827
2590.06203	0.64785
2588.13346	0.64728
2586.20490	0.64664
2584.27634	0.64641
2582.34777	0.64654
2580.41921	0.64685
2578.49064	0.64749
2576.56208	0.64836
2574.63351	0.64922
2572.70495	0.64975
2570.77638	0.64965
2568.84782	0.64945
2566.91926	0.64967
2564.99069	0.64982
2563.06213	0.64974
2561.13356	0.64967
2559.20500	0.64923
2557.27643	0.64831
2555.34787	0.64734
2553.41930	0.64688
2551.49074	0.64691
2549.56218	0.64641
2547.63361	0.64517
2545.70505	0.64416
2543.77648	0.64372
2541.84792	0.64336
2539.91935	0.64271
2537.99079	0.64173
2536.06222	0.64060
2534.13366	0.63989
2532.20510	0.63994
2530.27653	0.63986
2528.34797	0.63896
2526.41940	0.63784
2524.49084	0.63708
2522.56227	0.63641
2520.63371	0.63543
2518.70514	0.63440
2516.77658	0.63375
2514.84802	0.63309
2512.91945	0.63161
2510.99089	0.62936
2509.06232	0.62699
2507.13376	0.62494
2505.20519	0.62315
2503.27663	0.62099
2501.34806	0.61840
2499.41950	0.61611
2497.49094	0.61411
2495.56237	0.61179
2493.63381	0.60936
2491.70524	0.60737
2489.77668	0.60554
2487.84811	0.60352
2485.91955	0.60161
2483.99098	0.60017
2482.06242	0.59913
2480.13386	0.59826
2478.20529	0.59744
2476.27673	0.59682
2474.34816	0.59646
2472.41960	0.59622
2470.49103	0.59611
2468.56247	0.59577
2466.63391	0.59500
2464.70534	0.59468
2462.77678	0.59504
2460.84821	0.59507
2458.91965	0.59462
2456.99108	0.59456
2455.06252	0.59497
2453.13395	0.59536
2451.20539	0.59566
2449.27683	0.59588
2447.34826	0.59603
2445.41970	0.59625
2443.49113	0.59670
2441.56257	0.59710
2439.63400	0.59723
2437.70544	0.59737
2435.77687	0.59773
2433.84831	0.59823
2431.91975	0.59867
2429.99118	0.59876
2428.06262	0.59874
2426.13405	0.59877
2424.20549	0.59841
2422.27692	0.59770
2420.34836	0.59718
2418.41979	0.59680
2416.49123	0.59598
2414.56267	0.59471
2412.63410	0.59362
2410.70554	0.59273
2408.77697	0.59156
2406.84841	0.59001
2404.91984	0.58809
2402.99128	0.58615
2401.06271	0.58447
2399.13415	0.58271
2397.20559	0.58063
2395.27702	0.57838
2393.34846	0.57607
2391.41989	0.57371
2389.49133	0.57138
2387.56276	0.56919
2385.63420	0.56687
2383.70563	0.56427
2381.77707	0.56170
2379.84851	0.55936
2377.91994	0.55744
2375.99138	0.55618
2374.06281	0.55536
2372.13425	0.55436
2370.20568	0.55265
2368.27712	0.55064
2366.34855	0.55011
2364.41999	0.55111
2362.49143	0.55142
2360.56286	0.54997
2358.63430	0.54690
2356.70573	0.54403
2354.77717	0.54434
2352.84860	0.54616
2350.92004	0.54474
2348.99147	0.54064
2347.06291	0.53774
2345.13435	0.53849
2343.20578	0.53974
2341.27722	0.53849
2339.34865	0.53771
2337.42009	0.53777
2335.49152	0.53700
2333.56296	0.53546
2331.63440	0.53422
2329.70583	0.53380
2327.77727	0.53400
2325.84870	0.53437
2323.92014	0.53460
2321.99157	0.53513
2320.06301	0.53617
2318.13444	0.53725
2316.20588	0.53816
2314.27732	0.53894
2312.34875	0.53988
2310.42019	0.54136
2308.49162	0.54303
2306.56306	0.54406
2304.63449	0.54443
2302.70593	0.54482
2300.77736	0.54527
2298.84880	0.54547
2296.92024	0.54541
2294.99167	0.54526
2293.06311	0.54517
2291.13454	0.54472
2289.20598	0.54352
2287.27741	0.54189
2285.34885	0.54052
2283.42028	0.53966
2281.49172	0.53870
2279.56316	0.53733
2277.63459	0.53595
2275.70603	0.53444
2273.77746	0.53256
2271.84890	0.53066
2269.92033	0.52895
2267.99177	0.52742
2266.06320	0.52618
2264.13464	0.52516
2262.20608	0.52415
2260.27751	0.52289
2258.34895	0.52125
2256.42038	0.51955
2254.49182	0.51824
2252.56325	0.51732
2250.63469	0.51637
2248.70612	0.51526
2246.77756	0.51422
2244.84900	0.51322
2242.92043	0.51216
2240.99187	0.51093
2239.06330	0.50926
2237.13474	0.50716
2235.20617	0.50524
2233.27761	0.50365
2231.34904	0.50209
2229.42048	0.50070
2227.49192	0.49956
2225.56335	0.49835
2223.63479	0.49707
2221.70622	0.49587
2219.77766	0.49486
2217.84909	0.49406
2215.92053	0.49341
2213.99196	0.49310
2212.06340	0.49326
2210.13484	0.49395
2208.20627	0.49500
2206.27771	0.49607
2204.34914	0.49702
2202.42058	0.49792
2200.49201	0.49891
2198.56345	0.50033
2196.63488	0.50217
2194.70632	0.50383
2192.77776	0.50508
2190.84919	0.50637
2188.92063	0.50781
2186.99206	0.50912
2185.06350	0.51017
2183.13493	0.51096
2181.20637	0.51148
2179.27781	0.51175
2177.34924	0.51187
2175.42068	0.51209
2173.49211	0.51241
2171.56355	0.51239
2169.63498	0.51195
2167.70642	0.51146
2165.77785	0.51115
2163.84929	0.51107
2161.92073	0.51108
2159.99216	0.51077
2158.06360	0.51026
2156.13503	0.51031
2154.20647	0.51111
2152.27790	0.51182
2150.34934	0.51183
2148.42077	0.51137
2146.49221	0.51087
2144.56365	0.51046
2142.63508	0.50980
2140.70652	0.50860
2138.77795	0.50715
2136.84939	0.50569
2134.92082	0.50388
2132.99226	0.50153
2131.06369	0.49889
2129.13513	0.49604
2127.20657	0.49299
2125.27800	0.48984
2123.34944	0.48662
2121.42087	0.48330
2119.49231	0.47983
2117.56374	0.47642
2115.63518	0.47349
2113.70661	0.47099
2111.77805	0.46866
2109.84949	0.46650
2107.92092	0.46470
2105.99236	0.46330
2104.06379	0.46211
2102.13523	0.46111
2100.20666	0.46064
2098.27810	0.46067
2096.34953	0.46082
2094.42097	0.46098
2092.49241	0.46118
2090.56384	0.46141
2088.63528	0.46177
2086.70671	0.46220
2084.77815	0.46247
2082.84958	0.46249
2080.92102	0.46239
2078.99245	0.46224
2077.06389	0.46195
2075.13533	0.46143
2073.20676	0.46075
2071.27820	0.46008
2069.34963	0.45942
2067.42107	0.45886
2065.49250	0.45866
2063.56394	0.45866
2061.63537	0.45875
2059.70681	0.45926
2057.77825	0.46025
2055.84968	0.46147
2053.92112	0.46268
2051.99255	0.46392
2050.06399	0.46559
2048.13542	0.46778
2046.20686	0.46985
2044.27830	0.47155
2042.34973	0.47344
2040.42117	0.47546
2038.49260	0.47695
2036.56404	0.47799
2034.63547	0.47875
2032.70691	0.47904
2030.77834	0.47883
2028.84978	0.47816
2026.92122	0.47707
2024.99265	0.47576
2023.06409	0.47414
2021.13552	0.47192
2019.20696	0.46922
2017.27839	0.46623
2015.34983	0.46301
2013.42126	0.45983
2011.49270	0.45668
2009.56414	0.45335
2007.63557	0.44998
2005.70701	0.44683
2003.77844	0.44403
2001.84988	0.44141
1999.92131	0.43871
1997.99275	0.43614
1996.06418	0.43391
1994.13562	0.43202
1992.20706	0.43050
1990.27849	0.42908
1988.34993	0.42745
1986.42136	0.42587
1984.49280	0.42458
1982.56423	0.42350
1980.63567	0.42250
1978.70710	0.42168
1976.77854	0.42100
1974.84998	0.42014
1972.92141	0.41896
1970.99285	0.41758
1969.06428	0.41659
1967.13572	0.41644
1965.20715	0.41622
1963.27859	0.41522
1961.35002	0.41428
1959.42146	0.41396
1957.49290	0.41393
1955.56433	0.41407
1953.63577	0.41448
1951.70720	0.41497
1949.77864	0.41533
1947.85007	0.41569
1945.92151	0.41636
1943.99294	0.41783
1942.06438	0.41968
1940.13582	0.42035
1938.20725	0.42037
1936.27869	0.42113
1934.35012	0.42258
1932.42156	0.42408
1930.49299	0.42543
1928.56443	0.42674
1926.63586	0.42781
1924.70730	0.42890
1922.77874	0.43038
1920.85017	0.43124
1918.92161	0.43179
1916.99304	0.43282
1915.06448	0.43323
1913.13591	0.43285
1911.20735	0.43258
1909.27878	0.43279
1907.35022	0.43285
1905.42166	0.43229
1903.49309	0.43142
1901.56453	0.43037
1899.63596	0.42912
1897.70740	0.42795
1895.77883	0.42705
1893.85027	0.42608
1891.92171	0.42496
1889.99314	0.42425
1888.06458	0.42320
1886.13601	0.42117
1884.20745	0.41912
1882.27888	0.41753
1880.35032	0.41599
1878.42175	0.41422
1876.49319	0.41241
1874.56463	0.41065
1872.63606	0.40883
1870.70750	0.40779
1868.77893	0.40861
1866.85037	0.40875
1864.92180	0.40665
1862.99324	0.40462
1861.06467	0.40372
1859.13611	0.40332
1857.20755	0.40272
1855.27898	0.40186
1853.35042	0.40092
1851.42185	0.39993
1849.49329	0.39893
1847.56472	0.39788
1845.63616	0.39771
1843.70759	0.39886
1841.77903	0.39851
1839.85047	0.39697
1837.92190	0.39626
1835.99334	0.39602
1834.06477	0.39502
1832.13621	0.39427
1830.20764	0.39544
1828.27908	0.39652
1826.35051	0.39618
1824.42195	0.39640
1822.49339	0.39651
1820.56482	0.39594
1818.63626	0.39602
1816.70769	0.39681
1814.77913	0.39734
1812.85056	0.39810
1810.92200	0.40021
1808.99343	0.40257
1807.06487	0.40387
1805.13631	0.40474
1803.20774	0.40623
1801.27918	0.40919
1799.35061	0.41255
1797.42205	0.41474
1795.49348	0.41620
1793.56492	0.41876
1791.63635	0.42302
1789.70779	0.42487
1787.77923	0.42460
1785.85066	0.42531
1783.92210	0.42702
1781.99353	0.42862
1780.06497	0.43019
1778.13640	0.43058
1776.20784	0.42951
1774.27927	0.42917
1772.35071	0.43116
1770.42215	0.43231
1768.49358	0.43135
1766.56502	0.42989
1764.63645	0.42842
1762.70789	0.42862
1760.77932	0.43070
1758.85076	0.43280
1756.92220	0.43639
1754.99363	0.44041
1753.06507	0.44418
1751.13650	0.45219
1749.20794	0.46495
1747.27937	0.47528
1745.35081	0.48255
1743.42224	0.48908
1741.49368	0.49562
1739.56512	0.50190
1737.63655	0.50518
1735.70799	0.50729
1733.77942	0.51451
1731.85086	0.52095
1729.92229	0.52313
1727.99373	0.52513
1726.06516	0.52799
1724.13660	0.53337
1722.20804	0.53963
1720.27947	0.54519
1718.35091	0.55652
1716.42234	0.57913
1714.49378	0.59694
1712.56521	0.60933
1710.63665	0.62397
1708.70808	0.64330
1706.77952	0.67343
1704.85096	0.71393
1702.92239	0.74941
1700.99383	0.79694
1699.06526	0.87486
1697.13670	0.94899
1695.20813	1.02070
1693.27957	1.07343
1691.35100	1.11349
1689.42244	1.16216
1687.49388	1.20798
1685.56531	1.25437
1683.63675	1.32506
1681.70818	1.37183
1679.77962	1.39282
1677.85105	1.41200
1675.92249	1.43961
1673.99392	1.47257
1672.06536	1.49610
1670.13680	1.51216
1668.20823	1.52365
1666.27967	1.52772
1664.35110	1.53135
1662.42254	1.53512
1660.49397	1.53445
1658.56541	1.53183
1656.63684	1.52616
1654.70828	1.51644
1652.77972	1.50895
1650.85115	1.51044
1648.92259	1.50971
1646.99402	1.50374
1645.06546	1.49578
1643.13689	1.48766
1641.20833	1.48181
1639.27976	1.47747
1637.35120	1.47107
1635.42264	1.46108
1633.49407	1.45229
1631.56551	1.44422
1629.63694	1.43440
1627.70838	1.42436
1625.77981	1.41294
1623.85125	1.39630
1621.92269	1.37800
1619.99412	1.36379
1618.06556	1.34745
1616.13699	1.32352
1614.20843	1.30292
1612.27986	1.28422
1610.35130	1.26309
1608.42273	1.24319
1606.49417	1.22776
1604.56561	1.21553
1602.63704	1.20563
1600.70848	1.19867
1598.77991	1.19347
1596.85135	1.18976
1594.92278	1.18838
1592.99422	1.18875
1591.06565	1.19113
1589.13709	1.19729
1587.20853	1.20704
1585.27996	1.21812
1583.35140	1.23035
1581.42283	1.24310
1579.49427	1.25440
1577.56570	1.26905
1575.63714	1.29079
1573.70857	1.30316
1571.78001	1.30959
1569.85145	1.32313
1567.92288	1.33825
1565.99432	1.34680
1564.06575	1.35500
1562.13719	1.36161
1560.20862	1.36774
1558.28006	1.38251
1556.35149	1.39000
1554.42293	1.39259
1552.49437	1.39574
1550.56580	1.39695
1548.63724	1.39399
1546.70867	1.38970
1544.78011	1.38581
1542.85154	1.38058
1540.92298	1.37245
1538.99441	1.36240
1537.06585	1.35528
1535.13729	1.34932
1533.20872	1.34388
1531.28016	1.33919
1529.35159	1.33476
1527.42303	1.32820
1525.49446	1.31793
1523.56590	1.30861
1521.63733	1.30311
1519.70877	1.29811
1517.78021	1.28812
1515.85164	1.27520
1513.92308	1.26228
1511.99451	1.24692
1510.06595	1.23067
1508.13738	1.21144
1506.20882	1.17885
1504.28025	1.15604
1502.35169	1.13984
1500.42313	1.12234
1498.49456	1.10148
1496.56600	1.07663
1494.63743	1.05518
1492.70887	1.03940
1490.78030	1.02274
1488.85174	1.00222
1486.92317	0.98560
1484.99461	0.97444
1483.06605	0.96708
1481.13748	0.96318
1479.20892	0.96270
1477.28035	0.96667
1475.35179	0.97696
1473.42322	0.99571
1471.49466	1.01498
1469.56610	1.02383
1467.63753	1.02892
1465.70897	1.03668
1463.78040	1.04530
1461.85184	1.04907
1459.92327	1.05143
1457.99471	1.06074
1456.06614	1.07198
1454.13758	1.07135
1452.20902	1.06769
1450.28045	1.06493
1448.35189	1.06328
1446.42332	1.06172
1444.49476	1.05913
1442.56619	1.05554
1440.63763	1.05135
1438.70906	1.04649
1436.78050	1.04090
1434.85194	1.03487
1432.92337	1.02898
1430.99481	1.02390
1429.06624	1.02000
1427.13768	1.01748
1425.20911	1.01722
1423.28055	1.01915
1421.35198	1.02156
1419.42342	1.02599
1417.49486	1.03088
1415.56629	1.03017
1413.63773	1.02629
1411.70916	1.02273
1409.78060	1.02043
1407.85203	1.01890
1405.92347	1.01832
1403.99490	1.01780
1402.06634	1.01632
1400.13778	1.01523
1398.20921	1.01523
1396.28065	1.01564
1394.35208	1.01623
1392.42352	1.01713
1390.49495	1.01950
1388.56639	1.02629
1386.63782	1.03844
1384.70926	1.05130
1382.78070	1.06318
1380.85213	1.07358
1378.92357	1.07969
1376.99500	1.07955
1375.06644	1.07230
1373.13787	1.05951
1371.20931	1.04448
1369.28074	1.02641
1367.35218	1.00539
1365.42362	0.98441
1363.49505	0.96381
1361.56649	0.94598
1359.63792	0.93316
1357.70936	0.92239
1355.78079	0.91273
1353.85223	0.90562
1351.92366	0.90100
1349.99510	0.89755
1348.06654	0.89479
1346.13797	0.89308
1344.20941	0.89288
1342.28084	0.89452
1340.35228	0.89848
1338.42371	0.90480
1336.49515	0.91325
1334.56659	0.92428
1332.63802	0.93751
1330.70946	0.95145
1328.78089	0.96430
1326.85233	0.97481
1324.92376	0.98306
1322.99520	0.98998
1321.06663	0.99628
1319.13807	1.00190
1317.20951	1.00600
1315.28094	1.00821
1313.35238	1.00911
1311.42381	1.00873
1309.49525	1.00673
1307.56668	1.00319
1305.63812	0.99834
1303.70955	0.99259
1301.78099	0.98637
1299.85243	0.97950
1297.92386	0.97191
1295.99530	0.96488
1294.06673	0.95948
1292.13817	0.95557
1290.20960	0.95349
1288.28104	0.95349
1286.35247	0.95428
1284.42391	0.95488
1282.49535	0.95631
1280.56678	0.95946
1278.63822	0.96373
1276.70965	0.96828
1274.78109	0.97315
1272.85252	0.97892
1270.92396	0.98532
1268.99539	0.99160
1267.06683	0.99798
1265.13827	1.00402
1263.20970	1.00781
1261.28114	1.00843
1259.35257	1.00698
1257.42401	1.00502
1255.49544	1.00324
1253.56688	1.00163
1251.63831	1.00037
1249.70975	0.99954
1247.78119	0.99894
1245.85262	0.99870
1243.92406	0.99875
1241.99549	0.99842
1240.06693	0.99754
1238.13836	0.99664
1236.20980	0.99559
1234.28123	0.99326
1232.35267	0.98908
1230.42411	0.98400
1228.49554	0.97928
1226.56698	0.97480
1224.63841	0.96954
1222.70985	0.96286
1220.78128	0.95471
1218.85272	0.94606
1216.92415	0.93839
1214.99559	0.93261
1213.06703	0.92918
1211.13846	0.92808
1209.20990	0.92802
1207.28133	0.92732
1205.35277	0.92468
1203.42420	0.91895
1201.49564	0.91044
1199.56708	0.90095
1197.63851	0.89144
1195.70995	0.88217
1193.78138	0.87451
1191.85282	0.86981
1189.92425	0.86774
1187.99569	0.86739
1186.06712	0.86810
1184.13856	0.86979
1182.21000	0.87298
1180.28143	0.87781
1178.35287	0.88456
1176.42430	0.89403
1174.49574	0.90572
1172.56717	0.91829
1170.63861	0.93130
1168.71004	0.94527
1166.78148	0.96156
1164.85292	0.97988
1162.92435	0.99654
1160.99579	1.00824
1159.06722	1.01421
1157.13866	1.01389
1155.21009	1.00710
1153.28153	0.99507
1151.35296	0.97994
1149.42440	0.96419
1147.49584	0.94924
1145.56727	0.93582
1143.63871	0.92610
1141.71014	0.92176
1139.78158	0.92153
1137.85301	0.92399
1135.92445	0.92903
1133.99588	0.93671
1132.06732	0.94743
1130.13876	0.96135
1128.21019	0.97783
1126.28163	0.99573
1124.35306	1.01254
1122.42450	1.02682
1120.49593	1.04025
1118.56737	1.05295
1116.63880	1.06185
1114.71024	1.06511
1112.78168	1.06448
1110.85311	1.06349
1108.92455	1.06433
1106.99598	1.06677
1105.06742	1.07002
1103.13885	1.07386
1101.21029	1.07876
1099.28172	1.08625
1097.35316	1.09670
1095.42460	1.10929
1093.49603	1.12452
1091.56747	1.14152
1089.63890	1.15905
1087.71034	1.17762
1085.78177	1.19486
1083.85321	1.20843
1081.92464	1.21907
1079.99608	1.22571
1078.06752	1.22646
1076.13895	1.22069
1074.21039	1.20897
1072.28182	1.19421
1070.35326	1.17864
1068.42469	1.16239
1066.49613	1.14642
1064.56756	1.13195
1062.63900	1.11923
1060.71044	1.10781
1058.78187	1.09698
1056.85331	1.08757
1054.92474	1.08080
1052.99618	1.07597
1051.06761	1.07210
1049.13905	1.06983
1047.21049	1.07104
1045.28192	1.07609
1043.35336	1.08278
1041.42479	1.08922
1039.49623	1.09521
1037.56766	1.09963
1035.63910	1.10044
1033.71053	1.09729
1031.78197	1.09014
1029.85341	1.07845
1027.92484	1.06271
1025.99628	1.04490
1024.06771	1.02765
1022.13915	1.01184
1020.21058	0.99715
1018.28202	0.98388
1016.35345	0.97144
1014.42489	0.95787
1012.49633	0.94187
1010.56776	0.92339
1008.63920	0.90350
1006.71063	0.88421
1004.78207	0.86733
1002.85350	0.85347
1000.92494	0.84280
998.99637	0.83626
997.06781	0.83397
995.13925	0.83355
993.21068	0.83228
991.28212	0.82901
989.35355	0.82353
987.42499	0.81592
985.49642	0.80678
983.56786	0.79685
981.63929	0.78666
979.71073	0.77674
977.78217	0.76633
975.85360	0.75376
973.92504	0.73822
971.99647	0.72007
970.06791	0.70045
968.13934	0.68079
966.21078	0.66260
964.28221	0.64764
962.35365	0.63829
960.42509	0.63698
958.49652	0.64376
956.56796	0.65477
954.63939	0.66436
952.71083	0.66919
950.78226	0.67009
948.85370	0.67080
946.92513	0.67512
944.99657	0.68455
943.06801	0.69808
941.13944	0.71380
939.21088	0.73050
937.28231	0.74734
935.35375	0.76273
933.42518	0.77506
931.49662	0.78332
929.56805	0.78710
927.63949	0.78659
925.71093	0.78217
923.78236	0.77431
921.85380	0.76380
919.92523	0.75144
917.99667	0.73818
916.06810	0.72501
914.13954	0.71309
912.21098	0.70456
910.28241	0.70094
908.35385	0.70177
906.42528	0.70617
904.49672	0.71368
902.56815	0.72331
900.63959	0.73343
898.71102	0.74341
896.78246	0.75297
894.85390	0.76087
892.92533	0.76624
890.99677	0.76903
889.06820	0.76922
887.13964	0.76643
885.21107	0.76060
883.28251	0.75258
881.35394	0.74273
879.42538	0.73042
877.49682	0.71542
875.56825	0.69869
873.63969	0.68165
871.71112	0.66514
869.78256	0.64969
867.85399	0.63624
865.92543	0.62537
863.99686	0.61684
862.06830	0.61083
860.13974	0.60823
858.21117	0.60907
856.28261	0.61288
854.35404	0.61980
852.42548	0.62948
850.49691	0.64095
848.56835	0.65401
846.63978	0.66938
844.71122	0.68732
842.78266	0.70706
840.85409	0.72778
838.92553	0.74922
836.99696	0.77049
835.06840	0.79011
833.13983	0.80715
831.21127	0.82033
829.28270	0.82784
827.35414	0.83032
825.42558	0.83020
823.49701	0.82745
821.56845	0.82081
819.63988	0.81087
817.71132	0.79911
815.78275	0.78705
813.85419	0.77618
811.92562	0.76719
809.99706	0.75996
808.06850	0.75534
806.13993	0.75438
804.21137	0.75652
802.28280	0.76080
800.35424	0.76733
798.42567	0.77694
796.49711	0.78985
794.56854	0.80518
792.63998	0.82171
790.71142	0.83844
788.78285	0.85451
786.85429	0.86971
784.92572	0.88418
782.99716	0.89642
781.06859	0.90496
779.14003	0.91029
777.21147	0.91283
775.28290	0.91224
773.35434	0.90844
771.42577	0.90296
769.49721	0.89771
767.56864	0.89253
765.64008	0.88794
763.71151	0.88528
761.78295	0.88344
759.85439	0.88131
757.92582	0.88045
755.99726	0.88235
754.06869	0.88633
752.14013	0.89200
750.21156	0.89950
748.28300	0.90717
746.35443	0.91409
744.42587	0.92087
742.49731	0.92681
740.56874	0.93185
738.64018	0.93589
736.71161	0.93773
734.78305	0.93821
732.85448	0.93915
730.92592	0.94047
728.99735	0.94026
727.06879	0.93737
725.14023	0.93346
723.21166	0.92992
721.28310	0.92615
719.35453	0.92198
717.42597	0.91690
715.49740	0.91068
713.56884	0.90589
711.64027	0.90483
709.71171	0.90660
707.78315	0.90868
705.85458	0.90975
703.92602	0.91122
701.99745	0.91435
700.06889	0.91864
698.14032	0.92375
696.21176	0.92966
694.28319	0.93596
692.35463	0.94254
690.42607	0.94927
688.49750	0.95605
686.56894	0.96450
684.64037	0.97389
682.71181	0.98046
680.78324	0.98524
678.85468	0.99091
676.92611	0.99466
674.99755	0.99418
673.06899	0.99275
671.14042	0.99471
669.21186	1.00003
667.28329	0.99858
665.35473	0.99178
663.42616	0.98774
661.49760	0.98563
659.56903	0.98452
657.64047	0.98382
655.71191	0.98227
653.78334	0.98085
651.85478	0.98121
649.92621	0.98356
647.99765	0.98684
646.06908	0.98753
644.14052	0.98375
642.21195	0.97847
640.28339	0.97511
638.35483	0.97408
636.42626	0.97331
634.49770	0.97113
632.56913	0.96833
630.64057	0.96502
628.71200	0.96086
626.78344	0.95981
624.85488	0.96286
622.92631	0.96315
620.99775	0.95961
619.06918	0.95711
617.14062	0.95522
615.21205	0.95417
613.28349	0.95725
611.35492	0.96307
609.42636	0.97028
607.49780	0.98018
605.56923	0.98952
603.64067	0.99512
601.71210	0.99916
599.78354	1.00391
