3997.91406	0.80131
3995.98550	0.79977
3994.05693	0.79936
3992.12837	0.79877
3990.19980	0.79797
3988.27124	0.79720
3986.34268	0.79736
3984.41411	0.79930
3982.48555	0.80068
3980.55698	0.79916
3978.62842	0.79781
3976.69985	0.80017
3974.77129	0.80319
3972.84272	0.80297
3970.91416	0.80249
3968.98560	0.80481
3967.05703	0.80678
3965.12847	0.80499
3963.19990	0.80220
3961.27134	0.80154
3959.34277	0.80071
3957.41421	0.79912
3955.48564	0.79935
3953.55708	0.80012
3951.62852	0.79878
3949.69995	0.79682
3947.77139	0.79543
3945.84282	0.79316
3943.91426	0.79124
3941.98569	0.79021
3940.05713	0.78755
3938.12856	0.78424
3936.20000	0.78260
3934.27144	0.78284
3932.34287	0.78457
3930.41431	0.78525
3928.48574	0.78409
3926.55718	0.78499
3924.62861	0.78804
3922.70005	0.78881
3920.77148	0.78807
3918.84292	0.78919
3916.91436	0.79193
3914.98579	0.79228
3913.05723	0.78931
3911.12866	0.78633
3909.20010	0.78495
3907.27153	0.78452
3905.34297	0.78681
3903.41440	0.79328
3901.48584	0.79883
3899.55728	0.79833
3897.62871	0.79199
3895.70015	0.78529
3893.77158	0.78272
3891.84302	0.78447
3889.91445	0.78434
3887.98589	0.78198
3886.05733	0.78242
3884.12876	0.78250
3882.20020	0.77813
3880.27163	0.77391
3878.34307	0.77093
3876.41450	0.76933
3874.48594	0.77154
3872.55737	0.77465
3870.62881	0.77595
3868.70025	0.77479
3866.77168	0.77093
3864.84312	0.77090
3862.91455	0.77576
3860.98599	0.77590
3859.05742	0.77137
3857.12886	0.76618
3855.20029	0.76381
3853.27173	0.76958
3851.34317	0.77274
3849.41460	0.77018
3847.48604	0.76643
3845.55747	0.76217
3843.62891	0.75933
3841.70034	0.75981
3839.77178	0.76414
3837.84321	0.76997
3835.91465	0.76986
3833.98609	0.76620
3832.05752	0.76438
3830.12896	0.76309
3828.20039	0.76117
3826.27183	0.75945
3824.34326	0.75608
3822.41470	0.75468
3820.48613	0.76038
3818.55757	0.76426
3816.62901	0.76669
3814.70044	0.76698
3812.77188	0.76236
3810.84331	0.75721
3808.91475	0.75512
3806.98618	0.75778
3805.05762	0.75929
3803.12905	0.75977
3801.20049	0.76605
3799.27193	0.76918
3797.34336	0.76702
3795.41480	0.76524
3793.48623	0.76353
3791.55767	0.76185
3789.62910	0.76074
3787.70054	0.75918
3785.77197	0.75732
3783.84341	0.75500
3781.91485	0.75236
3779.98628	0.75311
3778.05772	0.75538
3776.12915	0.75351
3774.20059	0.74963
3772.27202	0.74696
3770.34346	0.74770
3768.41489	0.74975
3766.48633	0.74990
3764.55777	0.74939
3762.62920	0.74770
3760.70064	0.74581
3758.77207	0.74606
3756.84351	0.74622
3754.91494	0.74505
3752.98638	0.74505
3751.05781	0.74890
3749.12925	0.75021
3747.20069	0.74808
3745.27212	0.75038
3743.34356	0.75335
3741.41499	0.74981
3739.48643	0.74505
3737.55786	0.74385
3735.62930	0.74884
3733.70074	0.75495
3731.77217	0.75397
3729.84361	0.74927
3727.91504	0.74651
3725.98648	0.74727
3724.05791	0.74860
3722.12935	0.74915
3720.20078	0.74914
3718.27222	0.74708
3716.34366	0.74331
3714.41509	0.74011
3712.48653	0.74035
3710.55796	0.74318
3708.62940	0.74310
3706.70083	0.74159
3704.77227	0.74078
3702.84370	0.74149
3700.91514	0.74246
3698.98658	0.74238
3697.05801	0.74220
3695.12945	0.74176
3693.20088	0.74199
3691.27232	0.74619
3689.34375	0.75368
3687.41519	0.75487
3685.48662	0.75148
3683.55806	0.74894
3681.62950	0.74840
3679.70093	0.74935
3677.77237	0.75348
3675.84380	0.76345
3673.91524	0.76572
3671.98667	0.76223
3670.05811	0.76763
3668.12954	0.77419
3666.20098	0.77305
3664.27242	0.77079
3662.34385	0.77125
3660.41529	0.77448
3658.48672	0.77939
3656.55816	0.78513
3654.62959	0.78632
3652.70103	0.78321
3650.77246	0.78604
3648.84390	0.80388
3646.91534	0.81378
3644.98677	0.81386
3643.05821	0.81509
3641.12964	0.81811
3639.20108	0.82116
3637.27251	0.82416
3635.34395	0.82726
3633.41538	0.83052
3631.48682	0.83444
3629.55826	0.84552
3627.62969	0.85902
3625.70113	0.85986
3623.77256	0.85725
3621.84400	0.85950
3619.91543	0.87020
3617.98687	0.87869
3616.05830	0.87787
3614.12974	0.88036
3612.20118	0.88830
3610.27261	0.89339
3608.34405	0.89757
3606.41548	0.90325
3604.48692	0.90685
3602.55835	0.91022
3600.62979	0.91645
3598.70123	0.92247
3596.77266	0.92689
3594.84410	0.93387
3592.91553	0.94145
3590.98697	0.94596
3589.05840	0.95231
3587.12984	0.96380
3585.20127	0.97082
3583.27271	0.97256
3581.34415	0.97549
3579.41558	0.98056
3577.48702	0.98562
3575.55845	0.99250
3573.62989	1.00179
3571.70132	1.00928
3569.77276	1.01470
3567.84419	1.02415
3565.91563	1.03513
3563.98707	1.03732
3562.05850	1.03626
3560.12994	1.03755
3558.20137	1.04092
3556.27281	1.04504
3554.34424	1.05174
3552.41568	1.06276
3550.48711	1.07354
3548.55855	1.08052
3546.62999	1.08599
3544.70142	1.09104
3542.77286	1.09464
3540.84429	1.09885
3538.91573	1.10576
3536.98716	1.11352
3535.05860	1.11916
3533.13003	1.12394
3531.20147	1.13065
3529.27291	1.13781
3527.34434	1.14382
3525.41578	1.15269
3523.48721	1.16544
3521.55865	1.17579
3519.63008	1.18146
3517.70152	1.18652
3515.77295	1.19447
3513.84439	1.20567
3511.91583	1.21605
3509.98726	1.22394
3508.05870	1.23127
3506.13013	1.23758
3504.20157	1.24603
3502.27300	1.25876
3500.34444	1.27039
3498.41587	1.27951
3496.48731	1.28844
3494.55875	1.29850
3492.63018	1.30938
3490.70162	1.31873
3488.77305	1.32594
3486.84449	1.33309
3484.91592	1.33784
3482.98736	1.33983
3481.05879	1.34635
3479.13023	1.35405
3477.20167	1.35382
3475.27310	1.35166
3473.34454	1.35480
3471.41597	1.35845
3469.48741	1.36184
3467.55884	1.36875
3465.63028	1.37757
3463.70171	1.38689
3461.77315	1.39209
3459.84459	1.38981
3457.91602	1.39025
3455.98746	1.39648
3454.05889	1.39938
3452.13033	1.40256
3450.20176	1.41190
3448.27320	1.41947
3446.34464	1.41984
3444.41607	1.41482
3442.48751	1.41010
3440.55894	1.41363
3438.63038	1.42203
3436.70181	1.42636
3434.77325	1.42862
3432.84468	1.43218
3430.91612	1.43129
3428.98756	1.42730
3427.05899	1.42803
3425.13043	1.42799
3423.20186	1.42244
3421.27330	1.42101
3419.34473	1.42547
3417.41617	1.42816
3415.48760	1.43108
3413.55904	1.43513
3411.63048	1.43684
3409.70191	1.43870
3407.77335	1.43953
3405.84478	1.43483
3403.91622	1.42847
3401.98765	1.42637
3400.05909	1.42654
3398.13052	1.42404
3396.20196	1.42041
3394.27340	1.42223
3392.34483	1.43010
3390.41627	1.43459
3388.48770	1.43419
3386.55914	1.43769
3384.63057	1.44328
3382.70201	1.44298
3380.77344	1.43939
3378.84488	1.43777
3376.91632	1.43630
3374.98775	1.43499
3373.05919	1.43691
3371.13062	1.44094
3369.20206	1.44689
3367.27349	1.45525
3365.34493	1.46070
3363.41636	1.45698
3361.48780	1.44975
3359.55924	1.44863
3357.63067	1.45132
3355.70211	1.45586
3353.77354	1.46113
3351.84498	1.46042
3349.91641	1.45723
3347.98785	1.45746
3346.05928	1.46060
3344.13072	1.46597
3342.20216	1.46989
3340.27359	1.47323
3338.34503	1.48285
3336.41646	1.49426
3334.48790	1.49767
3332.55933	1.49770
3330.63077	1.50048
3328.70220	1.50333
3326.77364	1.50315
3324.84508	1.49805
3322.91651	1.49205
3320.98795	1.49143
3319.05938	1.49557
3317.13082	1.50096
3315.20225	1.50571
3313.27369	1.51104
3311.34513	1.51732
3309.41656	1.52075
3307.48800	1.52087
3305.55943	1.52312
3303.63087	1.52931
3301.70230	1.53356
3299.77374	1.53197
3297.84517	1.52939
3295.91661	1.53305
3293.98805	1.54128
3292.05948	1.54581
3290.13092	1.54661
3288.20235	1.54741
3286.27379	1.54612
3284.34522	1.54351
3282.41666	1.54437
3280.48809	1.54642
3278.55953	1.54406
3276.63097	1.54048
3274.70240	1.53871
3272.77384	1.53517
3270.84527	1.53047
3268.91671	1.52679
3266.98814	1.52419
3265.05958	1.52310
3263.13101	1.52217
3261.20245	1.52106
3259.27389	1.51957
3257.34532	1.51434
3255.41676	1.50248
3253.48819	1.48693
3251.55963	1.47681
3249.63106	1.47407
3247.70250	1.47105
3245.77393	1.46426
3243.84537	1.45449
3241.91681	1.44212
3239.98824	1.42917
3238.05968	1.41958
3236.13111	1.41504
3234.20255	1.41058
3232.27398	1.40297
3230.34542	1.39641
3228.41685	1.39075
3226.48829	1.38408
3224.55973	1.38180
3222.63116	1.38289
3220.70260	1.37806
3218.77403	1.36972
3216.84547	1.36632
3214.91690	1.36466
3212.98834	1.36005
3211.05977	1.35675
3209.13121	1.35648
3207.20265	1.35375
3205.27408	1.34743
3203.34552	1.34181
3201.41695	1.33676
3199.48839	1.33017
3197.55982	1.32194
3195.63126	1.31122
3193.70269	1.30077
3191.77413	1.29513
3189.84557	1.29201
3187.91700	1.28717
3185.98844	1.28206
3184.05987	1.27759
3182.13131	1.27007
3180.20274	1.26009
3178.27418	1.25263
3176.34562	1.24761
3174.41705	1.24226
3172.48849	1.23709
3170.55992	1.23252
3168.63136	1.22746
3166.70279	1.22355
3164.77423	1.22204
3162.84566	1.22007
3160.91710	1.21581
3158.98854	1.20928
3157.05997	1.20071
3155.13141	1.19218
3153.20284	1.18570
3151.27428	1.18242
3149.34571	1.18088
3147.41715	1.17673
3145.48858	1.17157
3143.56002	1.17037
3141.63146	1.17015
3139.70289	1.16801
3137.77433	1.16633
3135.84576	1.16346
3133.91720	1.15797
3131.98863	1.15415
3130.06007	1.15530
3128.13150	1.15925
3126.20294	1.16140
3124.27438	1.16078
3122.34581	1.15918
3120.41725	1.15912
3118.48868	1.16254
3116.56012	1.16556
3114.63155	1.16446
3112.70299	1.16315
3110.77442	1.16498
3108.84586	1.16656
3106.91730	1.16486
3104.98873	1.16287
3103.06017	1.16310
3101.13160	1.16453
3099.20304	1.16590
3097.27447	1.16623
3095.34591	1.16544
3093.41734	1.16440
3091.48878	1.16202
3089.56022	1.15554
3087.63165	1.14634
3085.70309	1.13970
3083.77452	1.13722
3081.84596	1.13681
3079.91739	1.13708
3077.98883	1.13589
3076.06026	1.13021
3074.13170	1.12101
3072.20314	1.11389
3070.27457	1.11142
3068.34601	1.11009
3066.41744	1.10684
3064.48888	1.10167
3062.56031	1.09547
3060.63175	1.09036
3058.70318	1.08724
3056.77462	1.08396
3054.84606	1.07970
3052.91749	1.07568
3050.98893	1.07098
3049.06036	1.06480
3047.13180	1.05979
3045.20323	1.05621
3043.27467	1.05011
3041.34610	1.04187
3039.41754	1.03563
3037.48898	1.03187
3035.56041	1.02897
3033.63185	1.02604
3031.70328	1.02218
3029.77472	1.01679
3027.84615	1.01024
3025.91759	1.00458
3023.98903	1.00097
3022.06046	0.99818
3020.13190	0.99586
3018.20333	0.99428
3016.27477	0.99214
3014.34620	0.98895
3012.41764	0.98689
3010.48907	0.98740
3008.56051	0.98800
3006.63195	0.98699
3004.70338	0.98633
3002.77482	0.98652
3000.84625	0.98630
2998.91769	0.98613
2996.98912	0.98777
2995.06056	0.99186
2993.13199	0.99643
2991.20343	1.00011
2989.27487	1.00397
2987.34630	1.00856
2985.41774	1.01350
2983.48917	1.01884
2981.56061	1.02435
2979.63204	1.02992
2977.70348	1.03574
2975.77491	1.04087
2973.84635	1.04563
2971.91779	1.05128
2969.98922	1.05700
2968.06066	1.06322
2966.13209	1.07050
2964.20353	1.07516
2962.27496	1.07573
2960.34640	1.07527
2958.41783	1.07396
2956.48927	1.06946
2954.56071	1.06225
2952.63214	1.05536
2950.70358	1.05060
2948.77501	1.04795
2946.84645	1.04779
2944.91788	1.05120
2942.98932	1.05906
2941.06075	1.07044
2939.13219	1.08187
2937.20363	1.09123
2935.27506	1.09950
2933.34650	1.10750
2931.41793	1.11486
2929.48937	1.12203
2927.56080	1.12856
2925.63224	1.13185
2923.70367	1.13276
2921.77511	1.13390
2919.84655	1.13229
2917.91798	1.12287
2915.98942	1.10619
2914.06085	1.08580
2912.13229	1.06429
2910.20372	1.04597
2908.27516	1.03307
2906.34659	1.02271
2904.41803	1.01281
2902.48947	1.00505
2900.56090	1.00101
2898.63234	0.99882
2896.70377	0.99654
2894.77521	0.99479
2892.84664	0.99354
2890.91808	0.99173
2888.98952	0.98935
2887.06095	0.98651
2885.13239	0.98383
2883.20382	0.98346
2881.27526	0.98511
2879.34669	0.98572
2877.41813	0.98504
2875.48956	0.98369
2873.56100	0.98023
2871.63244	0.97422
2869.70387	0.96673
2867.77531	0.95876
2865.84674	0.95163
2863.91818	0.94684
2861.98961	0.94464
2860.06105	0.94409
2858.13248	0.94532
2856.20392	0.94955
2854.27536	0.95673
2852.34679	0.96427
2850.41823	0.96612
2848.48966	0.95565
2846.56110	0.93452
2844.63253	0.91184
2842.70397	0.89389
2840.77540	0.88097
2838.84684	0.87101
2836.91828	0.86367
2834.98971	0.85918
2833.06115	0.85550
2831.13258	0.85120
2829.20402	0.84708
2827.27545	0.84354
2825.34689	0.84017
2823.41832	0.83620
2821.48976	0.83143
2819.56120	0.82694
2817.63263	0.82331
2815.70407	0.82020
2813.77550	0.81678
2811.84694	0.81243
2809.91837	0.80865
2807.98981	0.80630
2806.06124	0.80330
2804.13268	0.79883
2802.20412	0.79445
2800.27555	0.79044
2798.34699	0.78620
2796.41842	0.78180
2794.48986	0.77747
2792.56129	0.77359
2790.63273	0.77058
2788.70416	0.76808
2786.77560	0.76511
2784.84704	0.76177
2782.91847	0.75928
2780.98991	0.75785
2779.06134	0.75641
2777.13278	0.75439
2775.20421	0.75258
2773.27565	0.75179
2771.34708	0.75110
2769.41852	0.74952
2767.48996	0.74771
2765.56139	0.74655
2763.63283	0.74608
2761.70426	0.74549
2759.77570	0.74376
2757.84713	0.74124
2755.91857	0.73948
2753.99001	0.73855
2752.06144	0.73741
2750.13288	0.73611
2748.20431	0.73485
2746.27575	0.73313
2744.34718	0.73128
2742.41862	0.73016
2740.49005	0.72946
2738.56149	0.72824
2736.63293	0.72654
2734.70436	0.72493
2732.77580	0.72350
2730.84723	0.72225
2728.91867	0.72136
2726.99010	0.72044
2725.06154	0.71939
2723.13297	0.71902
2721.20441	0.71920
2719.27585	0.71872
2717.34728	0.71752
2715.41872	0.71625
2713.49015	0.71483
2711.56159	0.71337
2709.63302	0.71224
2707.70446	0.71133
2705.77589	0.71035
2703.84733	0.70891
2701.91877	0.70710
2699.99020	0.70575
2698.06164	0.70495
2696.13307	0.70365
2694.20451	0.70169
2692.27594	0.70020
2690.34738	0.69909
2688.41881	0.69722
2686.49025	0.69461
2684.56169	0.69181
2682.63312	0.68924
2680.70456	0.68736
2678.77599	0.68596
2676.84743	0.68450
2674.91886	0.68296
2672.99030	0.68168
2671.06173	0.68048
2669.13317	0.67910
2667.20461	0.67784
2665.27604	0.67647
2663.34748	0.67478
2661.41891	0.67362
2659.49035	0.67295
2657.56178	0.67191
2655.63322	0.67090
2653.70465	0.67074
2651.77609	0.67079
2649.84753	0.67029
2647.91896	0.66980
2645.99040	0.66964
2644.06183	0.66918
2642.13327	0.66850
2640.20470	0.66804
2638.27614	0.66747
2636.34757	0.66673
2634.41901	0.66613
2632.49045	0.66536
2630.56188	0.66430
2628.63332	0.66327
2626.70475	0.66236
2624.77619	0.66173
2622.84762	0.66117
2620.91906	0.66006
2618.99049	0.65890
2617.06193	0.65837
2615.13337	0.65781
2613.20480	0.65686
2611.27624	0.65623
2609.34767	0.65579
2607.41911	0.65488
2605.49054	0.65361
2603.56198	0.65265
2601.63342	0.65231
2599.70485	0.65230
2597.77629	0.65201
2595.84772	0.65126
2593.91916	0.65034
2591.99059	0.64949
2590.06203	0.64899
2588.13346	0.64855
2586.20490	0.64752
2584.27634	0.64623
2582.34777	0.64487
2580.41921	0.64300
2578.49064	0.64101
2576.56208	0.63946
2574.63351	0.63838
2572.70495	0.63731
2570.77638	0.63588
2568.84782	0.63436
2566.91926	0.63299
2564.99069	0.63157
2563.06213	0.63002
2561.13356	0.62852
2559.20500	0.62703
2557.27643	0.62545
2555.34787	0.62411
2553.41930	0.62310
2551.49074	0.62205
2549.56218	0.62113
2547.63361	0.62056
2545.70505	0.62001
2543.77648	0.61939
2541.84792	0.61875
2539.91935	0.61791
2537.99079	0.61694
2536.06222	0.61621
2534.13366	0.61584
2532.20510	0.61570
2530.27653	0.61574
2528.34797	0.61568
2526.41940	0.61516
2524.49084	0.61442
2522.56227	0.61394
2520.63371	0.61384
2518.70514	0.61400
2516.77658	0.61426
2514.84802	0.61423
2512.91945	0.61377
2510.99089	0.61336
2509.06232	0.61316
2507.13376	0.61278
2505.20519	0.61175
2503.27663	0.61041
2501.34806	0.60959
2499.41950	0.60925
2497.49094	0.60903
2495.56237	0.60882
2493.63381	0.60841
2491.70524	0.60793
2489.77668	0.60750
2487.84811	0.60699
2485.91955	0.60624
2483.99098	0.60527
2482.06242	0.60425
2480.13386	0.60336
2478.20529	0.60273
2476.27673	0.60240
2474.34816	0.60184
2472.41960	0.60074
2470.49103	0.59944
2468.56247	0.59794
2466.63391	0.59617
2464.70534	0.59465
2462.77678	0.59331
2460.84821	0.59177
2458.91965	0.59050
2456.99108	0.58953
2455.06252	0.58802
2453.13395	0.58613
2451.20539	0.58495
2449.27683	0.58459
2447.34826	0.58402
2445.41970	0.58274
2443.49113	0.58148
2441.56257	0.58076
2439.63400	0.58026
2437.70544	0.57975
2435.77687	0.57937
2433.84831	0.57933
2431.91975	0.57979
2429.99118	0.58047
2428.06262	0.58099
2426.13405	0.58134
2424.20549	0.58137
2422.27692	0.58108
2420.34836	0.58093
2418.41979	0.58092
2416.49123	0.58081
2414.56267	0.58082
2412.63410	0.58103
2410.70554	0.58123
2408.77697	0.58143
2406.84841	0.58150
2404.91984	0.58115
2402.99128	0.58061
2401.06271	0.58022
2399.13415	0.57981
2397.20559	0.57923
2395.27702	0.57864
2393.34846	0.57802
2391.41989	0.57726
2389.49133	0.57640
2387.56276	0.57549
2385.63420	0.57464
2383.70563	0.57401
2381.77707	0.57375
2379.84851	0.57394
2377.91994	0.57451
2375.99138	0.57511
2374.06281	0.57530
2372.13425	0.57539
2370.20568	0.57643
2368.27712	0.57735
2366.34855	0.57630
2364.41999	0.57508
2362.49143	0.57530
2360.56286	0.57457
2358.63430	0.57251
2356.70573	0.57100
2354.77717	0.56917
2352.84860	0.56703
2350.92004	0.56458
2348.99147	0.56126
2347.06291	0.55843
2345.13435	0.55817
2343.20578	0.55936
2341.27722	0.55952
2339.34865	0.55993
2337.42009	0.56015
2335.49152	0.55904
2333.56296	0.55823
2331.63440	0.55856
2329.70583	0.55908
2327.77727	0.56008
2325.84870	0.56161
2323.92014	0.56252
2321.99157	0.56342
2320.06301	0.56514
2318.13444	0.56618
2316.20588	0.56581
2314.27732	0.56529
2312.34875	0.56553
2310.42019	0.56627
2308.49162	0.56665
2306.56306	0.56609
2304.63449	0.56482
2302.70593	0.56346
2300.77736	0.56236
2298.84880	0.56161
2296.92024	0.56100
2294.99167	0.56030
2293.06311	0.55972
2291.13454	0.55917
2289.20598	0.55825
2287.27741	0.55702
2285.34885	0.55581
2283.42028	0.55493
2281.49172	0.55441
2279.56316	0.55391
2277.63459	0.55293
2275.70603	0.55171
2273.77746	0.55085
2271.84890	0.55017
2269.92033	0.54936
2267.99177	0.54866
2266.06320	0.54782
2264.13464	0.54637
2262.20608	0.54496
2260.27751	0.54431
2258.34895	0.54372
2256.42038	0.54258
2254.49182	0.54138
2252.56325	0.54047
2250.63469	0.53972
2248.70612	0.53925
2246.77756	0.53875
2244.84900	0.53795
2242.92043	0.53741
2240.99187	0.53732
2239.06330	0.53710
2237.13474	0.53692
2235.20617	0.53717
2233.27761	0.53760
2231.34904	0.53787
2229.42048	0.53828
2227.49192	0.53922
2225.56335	0.54048
2223.63479	0.54183
2221.70622	0.54303
2219.77766	0.54388
2217.84909	0.54460
2215.92053	0.54554
2213.99196	0.54638
2212.06340	0.54677
2210.13484	0.54698
2208.20627	0.54744
2206.27771	0.54812
2204.34914	0.54859
2202.42058	0.54837
2200.49201	0.54775
2198.56345	0.54721
2196.63488	0.54674
2194.70632	0.54613
2192.77776	0.54532
2190.84919	0.54442
2188.92063	0.54350
2186.99206	0.54255
2185.06350	0.54158
2183.13493	0.54053
2181.20637	0.53944
2179.27781	0.53843
2177.34924	0.53762
2175.42068	0.53706
2173.49211	0.53658
2171.56355	0.53588
2169.63498	0.53506
2167.70642	0.53439
2165.77785	0.53395
2163.84929	0.53370
2161.92073	0.53343
2159.99216	0.53290
2158.06360	0.53235
2156.13503	0.53204
2154.20647	0.53187
2152.27790	0.53172
2150.34934	0.53173
2148.42077	0.53206
2146.49221	0.53257
2144.56365	0.53303
2142.63508	0.53350
2140.70652	0.53387
2138.77795	0.53403
2136.84939	0.53424
2134.92082	0.53468
2132.99226	0.53522
2131.06369	0.53566
2129.13513	0.53574
2127.20657	0.53549
2125.27800	0.53536
2123.34944	0.53541
2121.42087	0.53523
2119.49231	0.53460
2117.56374	0.53379
2115.63518	0.53313
2113.70661	0.53244
2111.77805	0.53150
2109.84949	0.53052
2107.92092	0.52964
2105.99236	0.52886
2104.06379	0.52845
2102.13523	0.52825
2100.20666	0.52766
2098.27810	0.52654
2096.34953	0.52536
2094.42097	0.52467
2092.49241	0.52444
2090.56384	0.52433
2088.63528	0.52430
2086.70671	0.52421
2084.77815	0.52410
2082.84958	0.52413
2080.92102	0.52430
2078.99245	0.52459
2077.06389	0.52477
2075.13533	0.52464
2073.20676	0.52464
2071.27820	0.52483
2069.34963	0.52467
2067.42107	0.52429
2065.49250	0.52430
2063.56394	0.52460
2061.63537	0.52469
2059.70681	0.52441
2057.77825	0.52402
2055.84968	0.52382
2053.92112	0.52379
2051.99255	0.52376
2050.06399	0.52362
2048.13542	0.52334
2046.20686	0.52314
2044.27830	0.52329
2042.34973	0.52370
2040.42117	0.52416
2038.49260	0.52441
2036.56404	0.52442
2034.63547	0.52452
2032.70691	0.52486
2030.77834	0.52522
2028.84978	0.52530
2026.92122	0.52522
2024.99265	0.52503
2023.06409	0.52459
2021.13552	0.52398
2019.20696	0.52334
2017.27839	0.52255
2015.34983	0.52135
2013.42126	0.51990
2011.49270	0.51843
2009.56414	0.51669
2007.63557	0.51457
2005.70701	0.51255
2003.77844	0.51111
2001.84988	0.50985
1999.92131	0.50828
1997.99275	0.50658
1996.06418	0.50511
1994.13562	0.50438
1992.20706	0.50440
1990.27849	0.50418
1988.34993	0.50353
1986.42136	0.50322
1984.49280	0.50345
1982.56423	0.50405
1980.63567	0.50492
1978.70710	0.50608
1976.77854	0.50745
1974.84998	0.50855
1972.92141	0.50918
1970.99285	0.50968
1969.06428	0.51053
1967.13572	0.51170
1965.20715	0.51206
1963.27859	0.51146
1961.35002	0.51083
1959.42146	0.51039
1957.49290	0.51003
1955.56433	0.50968
1953.63577	0.50908
1951.70720	0.50820
1949.77864	0.50726
1947.85007	0.50640
1945.92151	0.50572
1943.99294	0.50551
1942.06438	0.50549
1940.13582	0.50472
1938.20725	0.50386
1936.27869	0.50407
1934.35012	0.50500
1932.42156	0.50581
1930.49299	0.50644
1928.56443	0.50728
1926.63586	0.50838
1924.70730	0.50966
1922.77874	0.51091
1920.85017	0.51147
1918.92161	0.51194
1916.99304	0.51263
1915.06448	0.51271
1913.13591	0.51263
1911.20735	0.51308
1909.27878	0.51356
1907.35022	0.51297
1905.42166	0.51157
1903.49309	0.51033
1901.56453	0.50913
1899.63596	0.50753
1897.70740	0.50587
1895.77883	0.50459
1893.85027	0.50324
1891.92171	0.50179
1889.99314	0.50107
1888.06458	0.50047
1886.13601	0.49940
1884.20745	0.49850
1882.27888	0.49789
1880.35032	0.49737
1878.42175	0.49704
1876.49319	0.49678
1874.56463	0.49642
1872.63606	0.49609
1870.70750	0.49654
1868.77893	0.49813
1866.85037	0.49844
1864.92180	0.49661
1862.99324	0.49469
1861.06467	0.49348
1859.13611	0.49240
1857.20755	0.49080
1855.27898	0.48906
1853.35042	0.48781
1851.42185	0.48686
1849.49329	0.48585
1847.56472	0.48470
1845.63616	0.48424
1843.70759	0.48450
1841.77903	0.48341
1839.85047	0.48175
1837.92190	0.48120
1835.99334	0.48149
1834.06477	0.48158
1832.13621	0.48226
1830.20764	0.48506
1828.27908	0.48811
1826.35051	0.48991
1824.42195	0.49208
1822.49339	0.49404
1820.56482	0.49534
1818.63626	0.49694
1816.70769	0.49894
1814.77913	0.50078
1812.85056	0.50246
1810.92200	0.50457
1808.99343	0.50659
1807.06487	0.50768
1805.13631	0.50815
1803.20774	0.50859
1801.27918	0.50949
1799.35061	0.51008
1797.42205	0.50941
1795.49348	0.50823
1793.56492	0.50816
1791.63635	0.50944
1789.70779	0.50894
1787.77923	0.50714
1785.85066	0.50613
1783.92210	0.50580
1781.99353	0.50530
1780.06497	0.50463
1778.13640	0.50372
1776.20784	0.50265
1774.27927	0.50252
1772.35071	0.50436
1770.42215	0.50579
1768.49358	0.50583
1766.56502	0.50573
1764.63645	0.50586
1762.70789	0.50725
1760.77932	0.50946
1758.85076	0.51110
1756.92220	0.51369
1754.99363	0.51649
1753.06507	0.51891
1751.13650	0.52425
1749.20794	0.53286
1747.27937	0.53913
1745.35081	0.54296
1743.42224	0.54697
1741.49368	0.55209
1739.56512	0.55749
1737.63655	0.56054
1735.70799	0.56304
1733.77942	0.56996
1731.85086	0.57576
1729.92229	0.57828
1727.99373	0.58130
1726.06516	0.58518
1724.13660	0.59106
1722.20804	0.59770
1720.27947	0.60416
1718.35091	0.61555
1716.42234	0.63438
1714.49378	0.64781
1712.56521	0.65729
1710.63665	0.66888
1708.70808	0.68394
1706.77952	0.70635
1704.85096	0.73578
1702.92239	0.76270
1700.99383	0.80187
1699.06526	0.86484
1697.13670	0.92118
1695.20813	0.97195
1693.27957	1.00792
1691.35100	1.03679
1689.42244	1.07452
1687.49388	1.11147
1685.56531	1.15015
1683.63675	1.21087
1681.70818	1.25289
1679.77962	1.27544
1677.85105	1.29831
1675.92249	1.32642
1673.99392	1.35466
1672.06536	1.37636
1670.13680	1.40058
1668.20823	1.42280
1666.27967	1.43145
1664.35110	1.43803
1662.42254	1.44728
1660.49397	1.45465
1658.56541	1.45933
1656.63684	1.46067
1654.70828	1.46241
1652.77972	1.46847
1650.85115	1.46611
1648.92259	1.46008
1646.99402	1.45687
1645.06546	1.45480
1643.13689	1.44910
1641.20833	1.44354
1639.27976	1.43937
1637.35120	1.43654
1635.42264	1.43268
1633.49407	1.42604
1631.56551	1.42011
1629.63694	1.41325
1627.70838	1.40378
1625.77981	1.39290
1623.85125	1.38165
1621.92269	1.36762
1619.99412	1.35104
1618.06556	1.32908
1616.13699	1.29934
1614.20843	1.27443
1612.27986	1.25170
1610.35130	1.22542
1608.42273	1.19787
1606.49417	1.17318
1604.56561	1.15282
1602.63704	1.13674
1600.70848	1.12498
1598.77991	1.11646
1596.85135	1.11047
1594.92278	1.10654
1592.99422	1.10459
1591.06565	1.10536
1589.13709	1.10910
1587.20853	1.11574
1585.27996	1.12474
1583.35140	1.13607
1581.42283	1.14932
1579.49427	1.16274
1577.56570	1.18028
1575.63714	1.20593
1573.70857	1.22294
1571.78001	1.23374
1569.85145	1.24990
1567.92288	1.26550
1565.99432	1.27559
1564.06575	1.28669
1562.13719	1.29783
1560.20862	1.31302
1558.28006	1.33700
1556.35149	1.33924
1554.42293	1.33477
1552.49437	1.33356
1550.56580	1.33449
1548.63724	1.33296
1546.70867	1.32871
1544.78011	1.32396
1542.85154	1.31876
1540.92298	1.31405
1538.99441	1.30885
1537.06585	1.30289
1535.13729	1.29746
1533.20872	1.29450
1531.28016	1.29305
1529.35159	1.29094
1527.42303	1.28822
1525.49446	1.28504
1523.56590	1.28451
1521.63733	1.28882
1519.70877	1.29176
1517.78021	1.28803
1515.85164	1.27916
1513.92308	1.26820
1511.99451	1.25692
1510.06595	1.24668
1508.13738	1.23026
1506.20882	1.19339
1504.28025	1.16777
1502.35169	1.15062
1500.42313	1.13214
1498.49456	1.10874
1496.56600	1.07994
1494.63743	1.05557
1492.70887	1.03800
1490.78030	1.01919
1488.85174	0.99449
1486.92317	0.97378
1484.99461	0.96024
1483.06605	0.95061
1481.13748	0.94356
1479.20892	0.94003
1477.28035	0.94118
1475.35179	0.94780
1473.42322	0.96285
1471.49466	0.98137
1469.56610	0.99161
1467.63753	0.99821
1465.70897	1.00843
1463.78040	1.02122
1461.85184	1.02863
1459.92327	1.03310
1457.99471	1.04370
1456.06614	1.05833
1454.13758	1.06262
1452.20902	1.06286
1450.28045	1.06211
1448.35189	1.06059
1446.42332	1.05790
1444.49476	1.05382
1442.56619	1.04896
1440.63763	1.04357
1438.70906	1.03703
1436.78050	1.02778
1434.85194	1.01693
1432.92337	1.00744
1430.99481	0.99858
1429.06624	0.99013
1427.13768	0.98361
1425.20911	0.97953
1423.28055	0.97772
1421.35198	0.97759
1419.42342	0.97972
1417.49486	0.98265
1415.56629	0.98301
1413.63773	0.98239
1411.70916	0.98244
1409.78060	0.98354
1407.85203	0.98513
1405.92347	0.98700
1403.99490	0.98886
1402.06634	0.99017
1400.13778	0.99189
1398.20921	0.99422
1396.28065	0.99599
1394.35208	0.99746
1392.42352	0.99979
1390.49495	1.00404
1388.56639	1.01266
1386.63782	1.02596
1384.70926	1.03844
1382.78070	1.04904
1380.85213	1.05822
1378.92357	1.06228
1376.99500	1.05911
1375.06644	1.04982
1373.13787	1.03592
1371.20931	1.01943
1369.28074	1.00017
1367.35218	0.97968
1365.42362	0.96141
1363.49505	0.94462
1361.56649	0.92968
1359.63792	0.91900
1357.70936	0.91184
1355.78079	0.90712
1353.85223	0.90442
1351.92366	0.90344
1349.99510	0.90373
1348.06654	0.90427
1346.13797	0.90470
1344.20941	0.90578
1342.28084	0.90828
1340.35228	0.91316
1338.42371	0.91959
1336.49515	0.92565
1334.56659	0.93276
1332.63802	0.94221
1330.70946	0.95294
1328.78089	0.96267
1326.85233	0.96947
1324.92376	0.97303
1322.99520	0.97523
1321.06663	0.97790
1319.13807	0.98085
1317.20951	0.98306
1315.28094	0.98420
1313.35238	0.98479
1311.42381	0.98502
1309.49525	0.98437
1307.56668	0.98282
1305.63812	0.98066
1303.70955	0.97803
1301.78099	0.97506
1299.85243	0.97155
1297.92386	0.96736
1295.99530	0.96318
1294.06673	0.96011
1292.13817	0.95860
1290.20960	0.95871
1288.28104	0.96015
1286.35247	0.96170
1284.42391	0.96269
1282.49535	0.96367
1280.56678	0.96498
1278.63822	0.96653
1276.70965	0.96847
1274.78109	0.97146
1272.85252	0.97632
1270.92396	0.98309
1268.99539	0.99061
1267.06683	0.99687
1265.13827	1.00078
1263.20970	1.00310
1261.28114	1.00391
1259.35257	1.00279
1257.42401	1.00105
1255.49544	0.99966
1253.56688	0.99826
1251.63831	0.99692
1249.70975	0.99615
1247.78119	0.99615
1245.85262	0.99666
1243.92406	0.99710
1241.99549	0.99756
1240.06693	0.99820
1238.13836	0.99794
1236.20980	0.99636
1234.28123	0.99407
1232.35267	0.99065
1230.42411	0.98588
1228.49554	0.98049
1226.56698	0.97458
1224.63841	0.96774
1222.70985	0.96010
1220.78128	0.95248
1218.85272	0.94575
1216.92415	0.94007
1214.99559	0.93546
1213.06703	0.93290
1211.13846	0.93360
1209.20990	0.93608
1207.28133	0.93632
1205.35277	0.93208
1203.42420	0.92409
1201.49564	0.91343
1199.56708	0.90118
1197.63851	0.88879
1195.70995	0.87718
1193.78138	0.86692
1191.85282	0.85834
1189.92425	0.85119
1187.99569	0.84612
1186.06712	0.84387
1184.13856	0.84342
1182.21000	0.84431
1180.28143	0.84795
1178.35287	0.85515
1176.42430	0.86536
1174.49574	0.87773
1172.56717	0.89169
1170.63861	0.90777
1168.71004	0.92672
1166.78148	0.94784
1164.85292	0.96959
1162.92435	0.98972
1160.99579	1.00429
1159.06722	1.01028
1157.13866	1.00835
1155.21009	1.00092
1153.28153	0.98940
1151.35296	0.97471
1149.42440	0.95841
1147.49584	0.94243
1145.56727	0.92896
1143.63871	0.91926
1141.71014	0.91340
1139.78158	0.91152
1137.85301	0.91363
1135.92445	0.91988
1133.99588	0.93021
1132.06732	0.94422
1130.13876	0.96197
1128.21019	0.98264
1126.28163	1.00371
1124.35306	1.02288
1122.42450	1.03922
1120.49593	1.05270
1118.56737	1.06348
1116.63880	1.07106
1114.71024	1.07440
1112.78168	1.07232
1110.85311	1.06512
1108.92455	1.05721
1106.99598	1.05200
1105.06742	1.04741
1103.13885	1.04202
1101.21029	1.03811
1099.28172	1.03792
1097.35316	1.04174
1095.42460	1.04904
1093.49603	1.05910
1091.56747	1.07017
1089.63890	1.08170
1087.71034	1.09543
1085.78177	1.11106
1083.85321	1.12631
1081.92464	1.14073
1079.99608	1.15252
1078.06752	1.15755
1076.13895	1.15554
1074.21039	1.14923
1072.28182	1.14024
1070.35326	1.12966
1068.42469	1.11865
1066.49613	1.10737
1064.56756	1.09509
1062.63900	1.08219
1060.71044	1.06957
1058.78187	1.05847
1056.85331	1.05036
1054.92474	1.04433
1052.99618	1.03908
1051.06761	1.03594
1049.13905	1.03721
1047.21049	1.04374
1045.28192	1.05508
1043.35336	1.06982
1041.42479	1.08463
1039.49623	1.09564
1037.56766	1.10293
1035.63910	1.10903
1033.71053	1.11290
1031.78197	1.11282
1029.85341	1.11007
1027.92484	1.10539
1025.99628	1.09834
1024.06771	1.08854
1022.13915	1.07664
1020.21058	1.06574
1018.28202	1.05766
1016.35345	1.04996
1014.42489	1.03927
1012.49633	1.02412
1010.56776	1.00419
1008.63920	0.98029
1006.71063	0.95494
1004.78207	0.93107
1002.85350	0.90990
1000.92494	0.89114
998.99637	0.87461
997.06781	0.86045
995.13925	0.84852
993.21068	0.83792
991.28212	0.82671
989.35355	0.81387
987.42499	0.80070
985.49642	0.78901
983.56786	0.77952
981.63929	0.77213
979.71073	0.76655
977.78217	0.76226
975.85360	0.75781
973.92504	0.75145
971.99647	0.74281
970.06791	0.73278
968.13934	0.72285
966.21078	0.71496
964.28221	0.71130
962.35365	0.71441
960.42509	0.72590
958.49652	0.74389
956.56796	0.76256
954.63939	0.77540
952.71083	0.78016
950.78226	0.77917
948.85370	0.77587
946.92513	0.77309
944.99657	0.77256
943.06801	0.77436
941.13944	0.77709
939.21088	0.77914
937.28231	0.78034
935.35375	0.78109
933.42518	0.78113
931.49662	0.78003
929.56805	0.77781
927.63949	0.77461
925.71093	0.77037
923.78236	0.76506
921.85380	0.75896
919.92523	0.75211
917.99667	0.74429
916.06810	0.73584
914.13954	0.72764
912.21098	0.72097
910.28241	0.71721
908.35385	0.71595
906.42528	0.71636
904.49672	0.71903
902.56815	0.72311
900.63959	0.72661
898.71102	0.72962
896.78246	0.73294
894.85390	0.73601
892.92533	0.73769
890.99677	0.73808
889.06820	0.73847
887.13964	0.73921
885.21107	0.73979
883.28251	0.74044
881.35394	0.74139
879.42538	0.74206
877.49682	0.74213
875.56825	0.74185
873.63969	0.74130
871.71112	0.74067
869.78256	0.73998
867.85399	0.73898
865.92543	0.73858
863.99686	0.73976
862.06830	0.74220
860.13974	0.74583
858.21117	0.75160
856.28261	0.76005
854.35404	0.76946
852.42548	0.77777
850.49691	0.78598
848.56835	0.79599
846.63978	0.80773
844.71122	0.82002
842.78266	0.83165
840.85409	0.84227
838.92553	0.85200
836.99696	0.86003
835.06840	0.86597
833.13983	0.87029
831.21127	0.87234
829.28270	0.87177
827.35414	0.86908
825.42558	0.86477
823.49701	0.86003
821.56845	0.85507
819.63988	0.84871
817.71132	0.84082
815.78275	0.83186
813.85419	0.82206
811.92562	0.81287
809.99706	0.80554
808.06850	0.79905
806.13993	0.79267
804.21137	0.78707
802.28280	0.78244
800.35424	0.77867
798.42567	0.77632
796.49711	0.77625
794.56854	0.77789
792.63998	0.77958
790.71142	0.78163
788.78285	0.78573
786.85429	0.79192
784.92572	0.79835
782.99716	0.80391
781.06859	0.80919
779.14003	0.81451
777.21147	0.81940
775.28290	0.82369
773.35434	0.82780
771.42577	0.83208
769.49721	0.83568
767.56864	0.83798
765.64008	0.84033
763.71151	0.84396
761.78295	0.84869
759.85439	0.85394
757.92582	0.85929
755.99726	0.86488
754.06869	0.87088
752.14013	0.87686
750.21156	0.88232
748.28300	0.88734
746.35443	0.89294
744.42587	0.89925
742.49731	0.90443
740.56874	0.90770
738.64018	0.90921
736.71161	0.90877
734.78305	0.90754
732.85448	0.90727
730.92592	0.90727
728.99735	0.90561
727.06879	0.90210
725.14023	0.89854
723.21166	0.89679
721.28310	0.89636
719.35453	0.89620
717.42597	0.89602
715.49740	0.89499
713.56884	0.89428
711.64027	0.89631
709.71171	0.90044
707.78315	0.90470
705.85458	0.90840
703.92602	0.91128
701.99745	0.91214
700.06889	0.90894
698.14032	0.90194
696.21176	0.89456
694.28319	0.88813
692.35463	0.87988
690.42607	0.86866
688.49750	0.85649
686.56894	0.84301
684.64037	0.82708
682.71181	0.81218
680.78324	0.80194
678.85468	0.79440
676.92611	0.78610
674.99755	0.77844
673.06899	0.77472
671.14042	0.77422
669.21186	0.77374
667.28329	0.77172
665.35473	0.77139
663.42616	0.77425
661.49760	0.78118
659.56903	0.79187
657.64047	0.80454
655.71191	0.81786
653.78334	0.83111
651.85478	0.84486
649.92621	0.86047
647.99765	0.87651
646.06908	0.89112
644.14052	0.90555
642.21195	0.92020
640.28339	0.93289
638.35483	0.94136
636.42626	0.94500
634.49770	0.94407
632.56913	0.94015
630.64057	0.93346
628.71200	0.92251
626.78344	0.90812
624.85488	0.89363
622.92631	0.88182
620.99775	0.87181
619.06918	0.86344
617.14062	0.85941
615.21205	0.85817
613.28349	0.85589
611.35492	0.85357
609.42636	0.85338
607.49780	0.85698
605.56923	0.86547
603.64067	0.87612
601.71210	0.88709
599.78354	0.89921
