3997.91406	0.96616
3995.98550	0.96679
3994.05693	0.96567
3992.12837	0.96371
3990.19980	0.96248
3988.27124	0.96298
3986.34268	0.96478
3984.41411	0.96634
3982.48555	0.96675
3980.55698	0.96526
3978.62842	0.96284
3976.69985	0.96128
3974.77129	0.96074
3972.84272	0.96005
3970.91416	0.95773
3968.98560	0.95546
3967.05703	0.95602
3965.12847	0.95793
3963.19990	0.95811
3961.27134	0.95632
3959.34277	0.95568
3957.41421	0.95733
3955.48564	0.95884
3953.55708	0.95985
3951.62852	0.96046
3949.69995	0.95761
3947.77139	0.95392
3945.84282	0.95514
3943.91426	0.95617
3941.98569	0.95321
3940.05713	0.95208
3938.12856	0.95370
3936.20000	0.95586
3934.27144	0.95532
3932.34287	0.94784
3930.41431	0.94068
3928.48574	0.94265
3926.55718	0.94686
3924.62861	0.94499
3922.70005	0.94252
3920.77148	0.94400
3918.84292	0.94302
3916.91436	0.93853
3914.98579	0.93723
3913.05723	0.93772
3911.12866	0.93638
3909.20010	0.93777
3907.27153	0.94425
3905.34297	0.94621
3903.41440	0.93741
3901.48584	0.92989
3899.55728	0.92738
3897.62871	0.92929
3895.70015	0.93748
3893.77158	0.94550
3891.84302	0.94276
3889.91445	0.93782
3887.98589	0.93917
3886.05733	0.93590
3884.12876	0.92991
3882.20020	0.92809
3880.27163	0.92359
3878.34307	0.92446
3876.41450	0.93163
3874.48594	0.93585
3872.55737	0.93541
3870.62881	0.92846
3868.70025	0.92360
3866.77168	0.92851
3864.84312	0.92754
3862.91455	0.91828
3860.98599	0.91813
3859.05742	0.92682
3857.12886	0.93701
3855.20029	0.93664
3853.27173	0.90985
3851.34317	0.89814
3849.41460	0.90862
3847.48604	0.92067
3845.55747	0.92700
3843.62891	0.92719
3841.70034	0.92533
3839.77178	0.92007
3837.84321	0.91032
3835.91465	0.90768
3833.98609	0.91025
3832.05752	0.91069
3830.12896	0.91191
3828.20039	0.91494
3826.27183	0.91675
3824.34326	0.92037
3822.41470	0.92078
3820.48613	0.91105
3818.55757	0.90701
3816.62901	0.90304
3814.70044	0.89712
3812.77188	0.89986
3810.84331	0.90716
3808.91475	0.91091
3806.98618	0.90614
3805.05762	0.90480
3803.12905	0.90664
3801.20049	0.89806
3799.27193	0.89304
3797.34336	0.89380
3795.41480	0.89424
3793.48623	0.89753
3791.55767	0.90061
3789.62910	0.90123
3787.70054	0.90198
3785.77197	0.90211
3783.84341	0.90183
3781.91485	0.90354
3779.98628	0.90152
3778.05772	0.89604
3776.12915	0.89647
3774.20059	0.90104
3772.27202	0.90421
3770.34346	0.90188
3768.41489	0.89757
3766.48633	0.89451
3764.55777	0.89140
3762.62920	0.89253
3760.70064	0.89463
3758.77207	0.89188
3756.84351	0.89124
3754.91494	0.89646
3752.98638	0.90156
3751.05781	0.89474
3749.12925	0.88826
3747.20069	0.89339
3745.27212	0.88988
3743.34356	0.87920
3741.41499	0.88274
3739.48643	0.89319
3737.55786	0.89884
3735.62930	0.89101
3733.70074	0.87602
3731.77217	0.87124
3729.84361	0.87610
3727.91504	0.88237
3725.98648	0.88430
3724.05791	0.88214
3722.12935	0.87852
3720.20078	0.87601
3718.27222	0.87755
3716.34366	0.88291
3714.41509	0.88910
3712.48653	0.88659
3710.55796	0.87033
3708.62940	0.86251
3706.70083	0.86700
3704.77227	0.87405
3702.84370	0.87523
3700.91514	0.87155
3698.98658	0.87200
3697.05801	0.87555
3695.12945	0.87926
3693.20088	0.88372
3691.27232	0.88439
3689.34375	0.87241
3687.41519	0.86428
3685.48662	0.86813
3683.55806	0.87377
3681.62950	0.87727
3679.70093	0.88134
3677.77237	0.88543
3675.84380	0.87799
3673.91524	0.87135
3671.98667	0.87587
3670.05811	0.87410
3668.12954	0.87126
3666.20098	0.87739
3664.27242	0.88464
3662.34385	0.88938
3660.41529	0.89360
3658.48672	0.89775
3656.55816	0.89861
3654.62959	0.90126
3652.70103	0.91117
3650.77246	0.91847
3648.84390	0.90467
3646.91534	0.89327
3644.98677	0.89716
3643.05821	0.90468
3641.12964	0.91005
3639.20108	0.91347
3637.27251	0.91687
3635.34395	0.92027
3633.41538	0.92486
3631.48682	0.93112
3629.55826	0.93124
3627.62969	0.92739
3625.70113	0.93325
3623.77256	0.94203
3621.84400	0.94833
3619.91543	0.94885
3617.98687	0.94659
3616.05830	0.94821
3614.12974	0.95107
3612.20118	0.95631
3610.27261	0.96197
3608.34405	0.96195
3606.41548	0.96266
3604.48692	0.96923
3602.55835	0.97624
3600.62979	0.98000
3598.70123	0.98305
3596.77266	0.98616
3594.84410	0.98885
3592.91553	0.99461
3590.98697	1.00299
3589.05840	1.00825
3587.12984	1.00643
3585.20127	1.00647
3583.27271	1.01139
3581.34415	1.01634
3579.41558	1.02057
3577.48702	1.02449
3575.55845	1.02631
3573.62989	1.02791
3571.70132	1.03431
3569.77276	1.04392
3567.84419	1.04845
3565.91563	1.04677
3563.98707	1.04967
3562.05850	1.05628
3560.12994	1.06069
3558.20137	1.06303
3556.27281	1.06688
3554.34424	1.07086
3552.41568	1.07303
3550.48711	1.07747
3548.55855	1.08495
3546.62999	1.08969
3544.70142	1.09026
3542.77286	1.09163
3540.84429	1.09665
3538.91573	1.10407
3536.98716	1.10870
3535.05860	1.10958
3533.13003	1.11170
3531.20147	1.11545
3529.27291	1.11911
3527.34434	1.12460
3525.41578	1.13227
3523.48721	1.13827
3521.55865	1.14026
3519.63008	1.14145
3517.70152	1.14654
3515.77295	1.15472
3513.84439	1.16224
3511.91583	1.16931
3509.98726	1.17634
3508.05870	1.18148
3506.13013	1.18630
3504.20157	1.19300
3502.27300	1.20094
3500.34444	1.20934
3498.41587	1.21697
3496.48731	1.22266
3494.55875	1.22764
3492.63018	1.23392
3490.70162	1.24150
3488.77305	1.24666
3486.84449	1.24786
3484.91592	1.24961
3482.98736	1.25411
3481.05879	1.25899
3479.13023	1.26170
3477.20167	1.26213
3475.27310	1.26314
3473.34454	1.26647
3471.41597	1.27100
3469.48741	1.27667
3467.55884	1.28087
3465.63028	1.27899
3463.70171	1.27606
3461.77315	1.28069
3459.84459	1.28798
3457.91602	1.28731
3455.98746	1.28307
3454.05889	1.28502
3452.13033	1.29108
3450.20176	1.29615
3448.27320	1.30029
3446.34464	1.30328
3444.41607	1.30409
3442.48751	1.30403
3440.55894	1.30701
3438.63038	1.31232
3436.70181	1.31156
3434.77325	1.30480
3432.84468	1.30131
3430.91612	1.30200
3428.98756	1.30369
3427.05899	1.30800
3425.13043	1.31405
3423.20186	1.31630
3421.27330	1.31292
3419.34473	1.30975
3417.41617	1.31273
3415.48760	1.31747
3413.55904	1.31636
3411.63048	1.31373
3409.70191	1.31527
3407.77335	1.31620
3405.84478	1.31398
3403.91622	1.31254
3401.98765	1.31252
3400.05909	1.31251
3398.13052	1.31476
3396.20196	1.32020
3394.27340	1.32398
3392.34483	1.32128
3390.41627	1.31553
3388.48770	1.31496
3386.55914	1.31950
3384.63057	1.32254
3382.70201	1.32399
3380.77344	1.32710
3378.84488	1.32895
3376.91632	1.32632
3374.98775	1.32228
3373.05919	1.32160
3371.13062	1.32591
3369.20206	1.33275
3367.27349	1.33743
3365.34493	1.33834
3363.41636	1.33692
3361.48780	1.33341
3359.55924	1.33028
3357.63067	1.33186
3355.70211	1.33690
3353.77354	1.34069
3351.84498	1.34159
3349.91641	1.34116
3347.98785	1.34115
3346.05928	1.34198
3344.13072	1.34401
3342.20216	1.34696
3340.27359	1.34921
3338.34503	1.35017
3336.41646	1.35164
3334.48790	1.35428
3332.55933	1.35721
3330.63077	1.36137
3328.70220	1.36539
3326.77364	1.36671
3324.84508	1.36710
3322.91651	1.36864
3320.98795	1.37202
3319.05938	1.37669
3317.13082	1.38102
3315.20225	1.38535
3313.27369	1.39034
3311.34513	1.39470
3309.41656	1.39777
3307.48800	1.40096
3305.55943	1.40303
3303.63087	1.40081
3301.70230	1.39759
3299.77374	1.39890
3297.84517	1.40296
3295.91661	1.40583
3293.98805	1.40573
3292.05948	1.40151
3290.13092	1.39755
3288.20235	1.39928
3286.27379	1.40455
3284.34522	1.40866
3282.41666	1.40917
3280.48809	1.40668
3278.55953	1.40448
3276.63097	1.40335
3274.70240	1.40106
3272.77384	1.39711
3270.84527	1.39407
3268.91671	1.39392
3266.98814	1.39445
3265.05958	1.39244
3263.13101	1.38854
3261.20245	1.38357
3259.27389	1.37744
3257.34532	1.37228
3255.41676	1.36874
3253.48819	1.36570
3251.55963	1.36221
3249.63106	1.35809
3247.70250	1.35486
3245.77393	1.35077
3243.84537	1.34308
3241.91681	1.33338
3239.98824	1.32447
3238.05968	1.32082
3236.13111	1.32275
3234.20255	1.32207
3232.27398	1.31457
3230.34542	1.30503
3228.41685	1.29857
3226.48829	1.29510
3224.55973	1.29113
3222.63116	1.28717
3220.70260	1.28497
3218.77403	1.28183
3216.84547	1.27781
3214.91690	1.27619
3212.98834	1.27540
3211.05977	1.27060
3209.13121	1.26234
3207.20265	1.25599
3205.27408	1.25198
3203.34552	1.24795
3201.41695	1.24517
3199.48839	1.24358
3197.55982	1.24083
3195.63126	1.23748
3193.70269	1.23537
3191.77413	1.23418
3189.84557	1.23158
3187.91700	1.22513
3185.98844	1.21622
3184.05987	1.21028
3182.13131	1.20975
3180.20274	1.21043
3178.27418	1.20768
3176.34562	1.20304
3174.41705	1.19951
3172.48849	1.19625
3170.55992	1.19233
3168.63136	1.18883
3166.70279	1.18644
3164.77423	1.18398
3162.84566	1.18046
3160.91710	1.17621
3158.98854	1.17125
3157.05997	1.16641
3155.13141	1.16258
3153.20284	1.15917
3151.27428	1.15709
3149.34571	1.15671
3147.41715	1.15575
3145.48858	1.15375
3143.56002	1.15126
3141.63146	1.14773
3139.70289	1.14345
3137.77433	1.13983
3135.84576	1.13823
3133.91720	1.13848
3131.98863	1.13936
3130.06007	1.13973
3128.13150	1.13902
3126.20294	1.13831
3124.27438	1.13809
3122.34581	1.13814
3120.41725	1.13954
3118.48868	1.14113
3116.56012	1.14066
3114.63155	1.13965
3112.70299	1.13997
3110.77442	1.14101
3108.84586	1.14171
3106.91730	1.14147
3104.98873	1.14113
3103.06017	1.14084
3101.13160	1.13895
3099.20304	1.13640
3097.27447	1.13459
3095.34591	1.13258
3093.41734	1.13101
3091.48878	1.13015
3089.56022	1.12824
3087.63165	1.12543
3085.70309	1.12296
3083.77452	1.12178
3081.84596	1.12194
3079.91739	1.12134
3077.98883	1.11833
3076.06026	1.11401
3074.13170	1.11036
3072.20314	1.10756
3070.27457	1.10450
3068.34601	1.10114
3066.41744	1.09844
3064.48888	1.09671
3062.56031	1.09430
3060.63175	1.09030
3058.70318	1.08612
3056.77462	1.08233
3054.84606	1.07884
3052.91749	1.07605
3050.98893	1.07389
3049.06036	1.07117
3047.13180	1.06698
3045.20323	1.06362
3043.27467	1.06309
3041.34610	1.06334
3039.41754	1.06238
3037.48898	1.06033
3035.56041	1.05793
3033.63185	1.05561
3031.70328	1.05302
3029.77472	1.05046
3027.84615	1.04816
3025.91759	1.04519
3023.98903	1.04193
3022.06046	1.03959
3020.13190	1.03749
3018.20333	1.03487
3016.27477	1.03288
3014.34620	1.03255
3012.41764	1.03237
3010.48907	1.03050
3008.56051	1.02806
3006.63195	1.02666
3004.70338	1.02540
3002.77482	1.02352
3000.84625	1.02183
2998.91769	1.02095
2996.98912	1.02141
2995.06056	1.02293
2993.13199	1.02434
2991.20343	1.02605
2989.27487	1.02906
2987.34630	1.03290
2985.41774	1.03678
2983.48917	1.04084
2981.56061	1.04566
2979.63204	1.05097
2977.70348	1.05570
2975.77491	1.05980
2973.84635	1.06402
2971.91779	1.06904
2969.98922	1.07474
2968.06066	1.08004
2966.13209	1.08426
2964.20353	1.08733
2962.27496	1.08930
2960.34640	1.09028
2958.41783	1.08970
2956.48927	1.08630
2954.56071	1.08062
2952.63214	1.07560
2950.70358	1.07268
2948.77501	1.07102
2946.84645	1.07114
2944.91788	1.07401
2942.98932	1.07885
2941.06075	1.08486
2939.13219	1.09270
2937.20363	1.10241
2935.27506	1.11196
2933.34650	1.11979
2931.41793	1.12537
2929.48937	1.12886
2927.56080	1.13214
2925.63224	1.13623
2923.70367	1.14027
2921.77511	1.14355
2919.84655	1.14452
2917.91798	1.14028
2915.98942	1.12966
2914.06085	1.11496
2912.13229	1.09945
2910.20372	1.08531
2908.27516	1.07306
2906.34659	1.06274
2904.41803	1.05561
2902.48947	1.05151
2900.56090	1.04818
2898.63234	1.04477
2896.70377	1.04216
2894.77521	1.04030
2892.84664	1.03727
2890.91808	1.03234
2888.98952	1.02773
2887.06095	1.02492
2885.13239	1.02297
2883.20382	1.02136
2881.27526	1.02113
2879.34669	1.02276
2877.41813	1.02490
2875.48956	1.02565
2873.56100	1.02443
2871.63244	1.02163
2869.70387	1.01654
2867.77531	1.00976
2865.84674	1.00473
2863.91818	1.00286
2861.98961	1.00279
2860.06105	1.00418
2858.13248	1.00736
2856.20392	1.01162
2854.27536	1.01648
2852.34679	1.02156
2850.41823	1.02336
2848.48966	1.01613
2846.56110	0.99924
2844.63253	0.97957
2842.70397	0.96320
2840.77540	0.95106
2838.84684	0.94241
2836.91828	0.93652
2834.98971	0.93211
2833.06115	0.92793
2831.13258	0.92397
2829.20402	0.92086
2827.27545	0.91786
2825.34689	0.91453
2823.41832	0.91183
2821.48976	0.90944
2819.56120	0.90667
2817.63263	0.90462
2815.70407	0.90348
2813.77550	0.90223
2811.84694	0.90095
2809.91837	0.89930
2807.98981	0.89648
2806.06124	0.89327
2804.13268	0.89127
2802.20412	0.88988
2800.27555	0.88698
2798.34699	0.88321
2796.41842	0.88070
2794.48986	0.87936
2792.56129	0.87797
2790.63273	0.87605
2788.70416	0.87372
2786.77560	0.87136
2784.84704	0.86932
2782.91847	0.86735
2780.98991	0.86511
2779.06134	0.86256
2777.13278	0.86014
2775.20421	0.85834
2773.27565	0.85687
2771.34708	0.85538
2769.41852	0.85396
2767.48996	0.85295
2765.56139	0.85224
2763.63283	0.85135
2761.70426	0.85021
2759.77570	0.84877
2757.84713	0.84733
2755.91857	0.84673
2753.99001	0.84673
2752.06144	0.84626
2750.13288	0.84512
2748.20431	0.84373
2746.27575	0.84209
2744.34718	0.84068
2742.41862	0.84013
2740.49005	0.83970
2738.56149	0.83846
2736.63293	0.83673
2734.70436	0.83535
2732.77580	0.83434
2730.84723	0.83320
2728.91867	0.83189
2726.99010	0.83051
2725.06154	0.82941
2723.13297	0.82882
2721.20441	0.82808
2719.27585	0.82705
2717.34728	0.82626
2715.41872	0.82508
2713.49015	0.82329
2711.56159	0.82205
2709.63302	0.82131
2707.70446	0.82001
2705.77589	0.81844
2703.84733	0.81730
2701.91877	0.81657
2699.99020	0.81594
2698.06164	0.81507
2696.13307	0.81388
2694.20451	0.81271
2692.27594	0.81164
2690.34738	0.81042
2688.41881	0.80900
2686.49025	0.80786
2684.56169	0.80714
2682.63312	0.80607
2680.70456	0.80450
2678.77599	0.80332
2676.84743	0.80240
2674.91886	0.80103
2672.99030	0.79938
2671.06173	0.79788
2669.13317	0.79661
2667.20461	0.79572
2665.27604	0.79524
2663.34748	0.79488
2661.41891	0.79432
2659.49035	0.79338
2657.56178	0.79214
2655.63322	0.79120
2653.70465	0.79103
2651.77609	0.79111
2649.84753	0.79085
2647.91896	0.79026
2645.99040	0.78959
2644.06183	0.78892
2642.13327	0.78818
2640.20470	0.78741
2638.27614	0.78644
2636.34757	0.78538
2634.41901	0.78487
2632.49045	0.78485
2630.56188	0.78440
2628.63332	0.78326
2626.70475	0.78219
2624.77619	0.78150
2622.84762	0.78069
2620.91906	0.77988
2618.99049	0.77951
2617.06193	0.77921
2615.13337	0.77849
2613.20480	0.77737
2611.27624	0.77585
2609.34767	0.77395
2607.41911	0.77222
2605.49054	0.77093
2603.56198	0.76965
2601.63342	0.76837
2599.70485	0.76747
2597.77629	0.76676
2595.84772	0.76574
2593.91916	0.76441
2591.99059	0.76337
2590.06203	0.76254
2588.13346	0.76149
2586.20490	0.76012
2584.27634	0.75851
2582.34777	0.75713
2580.41921	0.75638
2578.49064	0.75622
2576.56208	0.75613
2574.63351	0.75544
2572.70495	0.75429
2570.77638	0.75335
2568.84782	0.75268
2566.91926	0.75201
2564.99069	0.75142
2563.06213	0.75078
2561.13356	0.74997
2559.20500	0.74926
2557.27643	0.74855
2555.34787	0.74750
2553.41930	0.74641
2551.49074	0.74561
2549.56218	0.74498
2547.63361	0.74432
2545.70505	0.74364
2543.77648	0.74312
2541.84792	0.74260
2539.91935	0.74156
2537.99079	0.74037
2536.06222	0.74005
2534.13366	0.74021
2532.20510	0.73968
2530.27653	0.73844
2528.34797	0.73726
2526.41940	0.73638
2524.49084	0.73542
2522.56227	0.73455
2520.63371	0.73426
2518.70514	0.73396
2516.77658	0.73299
2514.84802	0.73197
2512.91945	0.73132
2510.99089	0.73065
2509.06232	0.72956
2507.13376	0.72802
2505.20519	0.72642
2503.27663	0.72528
2501.34806	0.72451
2499.41950	0.72363
2497.49094	0.72246
2495.56237	0.72117
2493.63381	0.71995
2491.70524	0.71888
2489.77668	0.71780
2487.84811	0.71649
2485.91955	0.71502
2483.99098	0.71376
2482.06242	0.71254
2480.13386	0.71099
2478.20529	0.70950
2476.27673	0.70849
2474.34816	0.70785
2472.41960	0.70712
2470.49103	0.70616
2468.56247	0.70525
2466.63391	0.70437
2464.70534	0.70338
2462.77678	0.70257
2460.84821	0.70193
2458.91965	0.70132
2456.99108	0.70083
2455.06252	0.70050
2453.13395	0.70019
2451.20539	0.70002
2449.27683	0.70000
2447.34826	0.69963
2445.41970	0.69866
2443.49113	0.69745
2441.56257	0.69653
2439.63400	0.69620
2437.70544	0.69617
2435.77687	0.69562
2433.84831	0.69437
2431.91975	0.69298
2429.99118	0.69159
2428.06262	0.69004
2426.13405	0.68862
2424.20549	0.68770
2422.27692	0.68695
2420.34836	0.68593
2418.41979	0.68469
2416.49123	0.68340
2414.56267	0.68212
2412.63410	0.68101
2410.70554	0.68004
2408.77697	0.67915
2406.84841	0.67831
2404.91984	0.67721
2402.99128	0.67595
2401.06271	0.67513
2399.13415	0.67461
2397.20559	0.67388
2395.27702	0.67318
2393.34846	0.67265
2391.41989	0.67191
2389.49133	0.67120
2387.56276	0.67076
2385.63420	0.67042
2383.70563	0.67030
2381.77707	0.67054
2379.84851	0.67097
2377.91994	0.67117
2375.99138	0.67128
2374.06281	0.67258
2372.13425	0.67535
2370.20568	0.67747
2368.27712	0.67711
2366.34855	0.67584
2364.41999	0.67557
2362.49143	0.67499
2360.56286	0.67254
2358.63430	0.66775
2356.70573	0.66285
2354.77717	0.66182
2352.84860	0.66301
2350.92004	0.66287
2348.99147	0.66214
2347.06291	0.66189
2345.13435	0.66105
2343.20578	0.65901
2341.27722	0.65869
2339.34865	0.66098
2337.42009	0.66227
2335.49152	0.66098
2333.56296	0.65893
2331.63440	0.65660
2329.70583	0.65450
2327.77727	0.65392
2325.84870	0.65363
2323.92014	0.65205
2321.99157	0.65012
2320.06301	0.64904
2318.13444	0.64788
2316.20588	0.64583
2314.27732	0.64382
2312.34875	0.64283
2310.42019	0.64228
2308.49162	0.64127
2306.56306	0.64008
2304.63449	0.63917
2302.70593	0.63839
2300.77736	0.63748
2298.84880	0.63645
2296.92024	0.63511
2294.99167	0.63339
2293.06311	0.63178
2291.13454	0.63065
2289.20598	0.62985
2287.27741	0.62911
2285.34885	0.62823
2283.42028	0.62720
2281.49172	0.62628
2279.56316	0.62573
2277.63459	0.62545
2275.70603	0.62502
2273.77746	0.62421
2271.84890	0.62313
2269.92033	0.62207
2267.99177	0.62102
2266.06320	0.61983
2264.13464	0.61892
2262.20608	0.61851
2260.27751	0.61812
2258.34895	0.61742
2256.42038	0.61647
2254.49182	0.61543
2252.56325	0.61440
2250.63469	0.61344
2248.70612	0.61263
2246.77756	0.61201
2244.84900	0.61125
2242.92043	0.61014
2240.99187	0.60903
2239.06330	0.60817
2237.13474	0.60723
2235.20617	0.60626
2233.27761	0.60563
2231.34904	0.60515
2229.42048	0.60444
2227.49192	0.60354
2225.56335	0.60272
2223.63479	0.60229
2221.70622	0.60225
2219.77766	0.60216
2217.84909	0.60177
2215.92053	0.60118
2213.99196	0.60059
2212.06340	0.60016
2210.13484	0.59989
2208.20627	0.59958
2206.27771	0.59906
2204.34914	0.59846
2202.42058	0.59813
2200.49201	0.59809
2198.56345	0.59799
2196.63488	0.59758
2194.70632	0.59688
2192.77776	0.59599
2190.84919	0.59513
2188.92063	0.59447
2186.99206	0.59383
2185.06350	0.59305
2183.13493	0.59226
2181.20637	0.59153
2179.27781	0.59079
2177.34924	0.58994
2175.42068	0.58896
2173.49211	0.58794
2171.56355	0.58692
2169.63498	0.58612
2167.70642	0.58560
2165.77785	0.58493
2163.84929	0.58402
2161.92073	0.58328
2159.99216	0.58280
2158.06360	0.58223
2156.13503	0.58155
2154.20647	0.58131
2152.27790	0.58141
2150.34934	0.58123
2148.42077	0.58083
2146.49221	0.58053
2144.56365	0.58032
2142.63508	0.57998
2140.70652	0.57956
2138.77795	0.57936
2136.84939	0.57935
2134.92082	0.57933
2132.99226	0.57918
2131.06369	0.57886
2129.13513	0.57849
2127.20657	0.57801
2125.27800	0.57739
2123.34944	0.57685
2121.42087	0.57648
2119.49231	0.57605
2117.56374	0.57562
2115.63518	0.57540
2113.70661	0.57532
2111.77805	0.57513
2109.84949	0.57464
2107.92092	0.57392
2105.99236	0.57308
2104.06379	0.57208
2102.13523	0.57107
2100.20666	0.57034
2098.27810	0.56985
2096.34953	0.56943
2094.42097	0.56902
2092.49241	0.56841
2090.56384	0.56758
2088.63528	0.56689
2086.70671	0.56645
2084.77815	0.56604
2082.84958	0.56544
2080.92102	0.56470
2078.99245	0.56399
2077.06389	0.56333
2075.13533	0.56257
2073.20676	0.56168
2071.27820	0.56063
2069.34963	0.55953
2067.42107	0.55844
2065.49250	0.55733
2063.56394	0.55636
2061.63537	0.55549
2059.70681	0.55458
2057.77825	0.55376
2055.84968	0.55297
2053.92112	0.55204
2051.99255	0.55110
2050.06399	0.55035
2048.13542	0.54958
2046.20686	0.54872
2044.27830	0.54810
2042.34973	0.54779
2040.42117	0.54755
2038.49260	0.54729
2036.56404	0.54701
2034.63547	0.54670
2032.70691	0.54653
2030.77834	0.54653
2028.84978	0.54645
2026.92122	0.54622
2024.99265	0.54604
2023.06409	0.54586
2021.13552	0.54556
2019.20696	0.54521
2017.27839	0.54488
2015.34983	0.54462
2013.42126	0.54440
2011.49270	0.54408
2009.56414	0.54359
2007.63557	0.54284
2005.70701	0.54198
2003.77844	0.54136
2001.84988	0.54100
1999.92131	0.54067
1997.99275	0.54016
1996.06418	0.53958
1994.13562	0.53891
1992.20706	0.53799
1990.27849	0.53720
1988.34993	0.53663
1986.42136	0.53585
1984.49280	0.53505
1982.56423	0.53450
1980.63567	0.53391
1978.70710	0.53312
1976.77854	0.53235
1974.84998	0.53178
1972.92141	0.53139
1970.99285	0.53104
1969.06428	0.53044
1967.13572	0.52944
1965.20715	0.52840
1963.27859	0.52758
1961.35002	0.52672
1959.42146	0.52584
1957.49290	0.52520
1955.56433	0.52457
1953.63577	0.52387
1951.70720	0.52328
1949.77864	0.52269
1947.85007	0.52204
1945.92151	0.52161
1943.99294	0.52110
1942.06438	0.52004
1940.13582	0.51923
1938.20725	0.51895
1936.27869	0.51871
1934.35012	0.51842
1932.42156	0.51803
1930.49299	0.51743
1928.56443	0.51677
1926.63586	0.51645
1924.70730	0.51629
1922.77874	0.51587
1920.85017	0.51546
1918.92161	0.51507
1916.99304	0.51440
1915.06448	0.51406
1913.13591	0.51414
1911.20735	0.51389
1909.27878	0.51312
1907.35022	0.51250
1905.42166	0.51229
1903.49309	0.51208
1901.56453	0.51175
1899.63596	0.51148
1897.70740	0.51121
1895.77883	0.51075
1893.85027	0.51033
1891.92171	0.51010
1889.99314	0.50963
1888.06458	0.50908
1886.13601	0.50883
1884.20745	0.50860
1882.27888	0.50810
1880.35032	0.50728
1878.42175	0.50632
1876.49319	0.50542
1874.56463	0.50463
1872.63606	0.50412
1870.70750	0.50345
1868.77893	0.50177
1866.85037	0.49995
1864.92180	0.49918
1862.99324	0.49880
1861.06467	0.49813
1859.13611	0.49727
1857.20755	0.49638
1855.27898	0.49547
1853.35042	0.49470
1851.42185	0.49422
1849.49329	0.49383
1847.56472	0.49329
1845.63616	0.49231
1843.70759	0.49078
1841.77903	0.48987
1839.85047	0.48965
1837.92190	0.48930
1835.99334	0.48882
1834.06477	0.48861
1832.13621	0.48837
1830.20764	0.48749
1828.27908	0.48663
1826.35051	0.48607
1824.42195	0.48509
1822.49339	0.48439
1820.56482	0.48427
1818.63626	0.48399
1816.70769	0.48347
1814.77913	0.48335
1812.85056	0.48353
1810.92200	0.48327
1808.99343	0.48270
1807.06487	0.48252
1805.13631	0.48282
1803.20774	0.48316
1801.27918	0.48304
1799.35061	0.48251
1797.42205	0.48227
1795.49348	0.48248
1793.56492	0.48248
1791.63635	0.48199
1789.70779	0.48197
1787.77923	0.48237
1785.85066	0.48246
1783.92210	0.48239
1781.99353	0.48246
1780.06497	0.48231
1778.13640	0.48229
1776.20784	0.48267
1774.27927	0.48306
1772.35071	0.48298
1770.42215	0.48306
1768.49358	0.48371
1766.56502	0.48469
1764.63645	0.48610
1762.70789	0.48783
1760.77932	0.48971
1758.85076	0.49198
1756.92220	0.49535
1754.99363	0.49971
1753.06507	0.50453
1751.13650	0.51058
1749.20794	0.51768
1747.27937	0.52406
1745.35081	0.52950
1743.42224	0.53444
1741.49368	0.53879
1739.56512	0.54252
1737.63655	0.54564
1735.70799	0.54816
1733.77942	0.55024
1731.85086	0.55208
1729.92229	0.55445
1727.99373	0.55759
1726.06516	0.56130
1724.13660	0.56579
1722.20804	0.57066
1720.27947	0.57563
1718.35091	0.58239
1716.42234	0.59318
1714.49378	0.60423
1712.56521	0.61447
1710.63665	0.62612
1708.70808	0.64017
1706.77952	0.65974
1704.85096	0.68458
1702.92239	0.70737
1700.99383	0.73659
1699.06526	0.77858
1697.13670	0.81633
1695.20813	0.85221
1693.27957	0.87946
1691.35100	0.90157
1689.42244	0.92680
1687.49388	0.94922
1685.56531	0.97036
1683.63675	1.00145
1681.70818	1.02611
1679.77962	1.04177
1677.85105	1.05570
1675.92249	1.07070
1673.99392	1.08614
1672.06536	1.09901
1670.13680	1.11193
1668.20823	1.12384
1666.27967	1.13085
1664.35110	1.13759
1662.42254	1.14577
1660.49397	1.15167
1658.56541	1.15558
1656.63684	1.15860
1654.70828	1.15957
1652.77972	1.15733
1650.85115	1.15787
1648.92259	1.15924
1646.99402	1.15810
1645.06546	1.15643
1643.13689	1.15596
1641.20833	1.15590
1639.27976	1.15604
1637.35120	1.15635
1635.42264	1.15443
1633.49407	1.15201
1631.56551	1.15139
1629.63694	1.14969
1627.70838	1.14561
1625.77981	1.13996
1623.85125	1.13117
1621.92269	1.11897
1619.99412	1.10717
1618.06556	1.08943
1616.13699	1.06036
1614.20843	1.03736
1612.27986	1.01992
1610.35130	0.99954
1608.42273	0.97695
1606.49417	0.95730
1604.56561	0.94214
1602.63704	0.93004
1600.70848	0.92085
1598.77991	0.91470
1596.85135	0.91097
1594.92278	0.90868
1592.99422	0.90728
1591.06565	0.90721
1589.13709	0.90925
1587.20853	0.91382
1585.27996	0.92073
1583.35140	0.92907
1581.42283	0.93741
1579.49427	0.94520
1577.56570	0.95500
1575.63714	0.96924
1573.70857	0.98051
1571.78001	0.98852
1569.85145	0.99861
1567.92288	1.00982
1565.99432	1.01957
1564.06575	1.02896
1562.13719	1.03666
1560.20862	1.04418
1558.28006	1.05621
1556.35149	1.06358
1554.42293	1.06696
1552.49437	1.06941
1550.56580	1.07209
1548.63724	1.07451
1546.70867	1.07573
1544.78011	1.07554
1542.85154	1.07354
1540.92298	1.06803
1538.99441	1.06233
1537.06585	1.06139
1535.13729	1.06002
1533.20872	1.05482
1531.28016	1.04878
1529.35159	1.04538
1527.42303	1.04252
1525.49446	1.03894
1523.56590	1.03610
1521.63733	1.03418
1519.70877	1.03431
1517.78021	1.03334
1515.85164	1.02731
1513.92308	1.01822
1511.99451	1.00838
1510.06595	0.99845
1508.13738	0.98063
1506.20882	0.94743
1504.28025	0.92988
1502.35169	0.91930
1500.42313	0.90627
1498.49456	0.88815
1496.56600	0.86560
1494.63743	0.84817
1492.70887	0.83682
1490.78030	0.82400
1488.85174	0.80716
1486.92317	0.79452
1484.99461	0.78697
1483.06605	0.78203
1481.13748	0.77919
1479.20892	0.77871
1477.28035	0.78085
1475.35179	0.78625
1473.42322	0.79716
1471.49466	0.81051
1469.56610	0.81917
1467.63753	0.82523
1465.70897	0.83159
1463.78040	0.83846
1461.85184	0.84390
1459.92327	0.84827
1457.99471	0.85364
1456.06614	0.85902
1454.13758	0.86156
1452.20902	0.86288
1450.28045	0.86328
1448.35189	0.86234
1446.42332	0.86035
1444.49476	0.85795
1442.56619	0.85484
1440.63763	0.85122
1438.70906	0.84701
1436.78050	0.84029
1434.85194	0.83276
1432.92337	0.82707
1430.99481	0.82101
1429.06624	0.81468
1427.13768	0.81052
1425.20911	0.80788
1423.28055	0.80582
1421.35198	0.80472
1419.42342	0.80469
1417.49486	0.80544
1415.56629	0.80592
1413.63773	0.80557
1411.70916	0.80458
1409.78060	0.80375
1407.85203	0.80369
1405.92347	0.80454
1403.99490	0.80625
1402.06634	0.80834
1400.13778	0.81032
1398.20921	0.81175
1396.28065	0.81286
1394.35208	0.81473
1392.42352	0.81763
1390.49495	0.82144
1388.56639	0.82776
1386.63782	0.83749
1384.70926	0.84715
1382.78070	0.85510
1380.85213	0.86120
1378.92357	0.86360
1376.99500	0.86085
1375.06644	0.85198
1373.13787	0.83891
1371.20931	0.82629
1369.28074	0.81296
1367.35218	0.79835
1365.42362	0.78521
1363.49505	0.77305
1361.56649	0.76237
1359.63792	0.75560
1357.70936	0.75163
1355.78079	0.74902
1353.85223	0.74755
1351.92366	0.74731
1349.99510	0.74808
1348.06654	0.74934
1346.13797	0.75089
1344.20941	0.75285
1342.28084	0.75512
1340.35228	0.75772
1338.42371	0.76104
1336.49515	0.76528
1334.56659	0.77043
1332.63802	0.77649
1330.70946	0.78287
1328.78089	0.78818
1326.85233	0.79145
1324.92376	0.79292
1322.99520	0.79337
1321.06663	0.79372
1319.13807	0.79431
1317.20951	0.79466
1315.28094	0.79462
1313.35238	0.79438
1311.42381	0.79378
1309.49525	0.79257
1307.56668	0.79057
1305.63812	0.78807
1303.70955	0.78552
1301.78099	0.78309
1299.85243	0.78031
1297.92386	0.77678
1295.99530	0.77326
1294.06673	0.77083
1292.13817	0.76970
1290.20960	0.76965
1288.28104	0.77049
1286.35247	0.77193
1284.42391	0.77345
1282.49535	0.77489
1280.56678	0.77651
1278.63822	0.77851
1276.70965	0.78095
1274.78109	0.78401
1272.85252	0.78783
1270.92396	0.79223
1268.99539	0.79695
1267.06683	0.80157
1265.13827	0.80519
1263.20970	0.80740
1261.28114	0.80868
1259.35257	0.80950
1257.42401	0.80990
1255.49544	0.81007
1253.56688	0.81023
1251.63831	0.81045
1249.70975	0.81063
1247.78119	0.81095
1245.85262	0.81171
1243.92406	0.81244
1241.99549	0.81273
1240.06693	0.81282
1238.13836	0.81251
1236.20980	0.81118
1234.28123	0.80917
1232.35267	0.80714
1230.42411	0.80466
1228.49554	0.80128
1226.56698	0.79717
1224.63841	0.79241
1222.70985	0.78742
1220.78128	0.78274
1218.85272	0.77847
1216.92415	0.77481
1214.99559	0.77224
1213.06703	0.77092
1211.13846	0.77101
1209.20990	0.77216
1207.28133	0.77250
1205.35277	0.77020
1203.42420	0.76533
1201.49564	0.75910
1199.56708	0.75265
1197.63851	0.74660
1195.70995	0.74106
1193.78138	0.73617
1191.85282	0.73270
1189.92425	0.73112
1187.99569	0.73096
1186.06712	0.73189
1184.13856	0.73430
1182.21000	0.73822
1180.28143	0.74339
1178.35287	0.75015
1176.42430	0.75846
1174.49574	0.76747
1172.56717	0.77681
1170.63861	0.78683
1168.71004	0.79766
1166.78148	0.80903
1164.85292	0.82022
1162.92435	0.82942
1160.99579	0.83465
1159.06722	0.83605
1157.13866	0.83448
1155.21009	0.82967
1153.28153	0.82195
1151.35296	0.81295
1149.42440	0.80425
1147.49584	0.79677
1145.56727	0.79054
1143.63871	0.78573
1141.71014	0.78327
1139.78158	0.78341
1137.85301	0.78547
1135.92445	0.78916
1133.99588	0.79500
1132.06732	0.80300
1130.13876	0.81244
1128.21019	0.82264
1126.28163	0.83301
1124.35306	0.84277
1122.42450	0.85122
1120.49593	0.85801
1118.56737	0.86287
1116.63880	0.86544
1114.71024	0.86582
1112.78168	0.86439
1110.85311	0.86198
1108.92455	0.85989
1106.99598	0.85855
1105.06742	0.85747
1103.13885	0.85648
1101.21029	0.85591
1099.28172	0.85661
1097.35316	0.85937
1095.42460	0.86342
1093.49603	0.86808
1091.56747	0.87384
1089.63890	0.88050
1087.71034	0.88815
1085.78177	0.89692
1083.85321	0.90518
1081.92464	0.91178
1079.99608	0.91650
1078.06752	0.91860
1076.13895	0.91773
1074.21039	0.91430
1072.28182	0.90867
1070.35326	0.90158
1068.42469	0.89449
1066.49613	0.88830
1064.56756	0.88254
1062.63900	0.87623
1060.71044	0.86923
1058.78187	0.86238
1056.85331	0.85680
1054.92474	0.85287
1052.99618	0.84975
1051.06761	0.84718
1049.13905	0.84629
1047.21049	0.84722
1045.28192	0.84935
1043.35336	0.85278
1041.42479	0.85715
1039.49623	0.86127
1037.56766	0.86482
1035.63910	0.86740
1033.71053	0.86809
1031.78197	0.86673
1029.85341	0.86341
1027.92484	0.85855
1025.99628	0.85330
1024.06771	0.84797
1022.13915	0.84217
1020.21058	0.83642
1018.28202	0.83173
1016.35345	0.82753
1014.42489	0.82227
1012.49633	0.81500
1010.56776	0.80548
1008.63920	0.79424
1006.71063	0.78225
1004.78207	0.77050
1002.85350	0.75970
1000.92494	0.75009
998.99637	0.74188
997.06781	0.73516
995.13925	0.72959
993.21068	0.72483
991.28212	0.72025
989.35355	0.71508
987.42499	0.70942
985.49642	0.70433
983.56786	0.70064
981.63929	0.69802
979.71073	0.69572
977.78217	0.69368
975.85360	0.69197
973.92504	0.68967
971.99647	0.68572
970.06791	0.68026
968.13934	0.67416
966.21078	0.66833
964.28221	0.66372
962.35365	0.66133
960.42509	0.66209
958.49652	0.66612
956.56796	0.67147
954.63939	0.67468
952.71083	0.67364
950.78226	0.66847
948.85370	0.66054
946.92513	0.65175
944.99657	0.64366
943.06801	0.63689
941.13944	0.63169
939.21088	0.62798
937.28231	0.62502
935.35375	0.62237
933.42518	0.62056
931.49662	0.61990
929.56805	0.61968
927.63949	0.61972
925.71093	0.62069
923.78236	0.62237
921.85380	0.62378
919.92523	0.62417
917.99667	0.62337
916.06810	0.62215
914.13954	0.62143
912.21098	0.62123
910.28241	0.62109
908.35385	0.62102
906.42528	0.62157
904.49672	0.62297
902.56815	0.62487
900.63959	0.62627
898.71102	0.62641
896.78246	0.62541
894.85390	0.62333
892.92533	0.62011
890.99677	0.61624
889.06820	0.61236
887.13964	0.60863
885.21107	0.60490
883.28251	0.60135
881.35394	0.59839
879.42538	0.59577
877.49682	0.59312
875.56825	0.59066
873.63969	0.58858
871.71112	0.58687
869.78256	0.58536
867.85399	0.58402
865.92543	0.58327
863.99686	0.58329
862.06830	0.58363
860.13974	0.58380
858.21117	0.58422
856.28261	0.58578
854.35404	0.58834
852.42548	0.59081
850.49691	0.59218
848.56835	0.59247
846.63978	0.59302
844.71122	0.59476
842.78266	0.59694
840.85409	0.59874
838.92553	0.60041
836.99696	0.60252
835.06840	0.60515
833.13983	0.60750
831.21127	0.60869
829.28270	0.60929
827.35414	0.61049
825.42558	0.61237
823.49701	0.61402
821.56845	0.61498
819.63988	0.61571
817.71132	0.61662
815.78275	0.61775
813.85419	0.61912
811.92562	0.62060
809.99706	0.62172
808.06850	0.62221
806.13993	0.62235
804.21137	0.62246
802.28280	0.62285
800.35424	0.62339
798.42567	0.62370
796.49711	0.62398
794.56854	0.62476
792.63998	0.62612
790.71142	0.62748
788.78285	0.62844
786.85429	0.62950
784.92572	0.63134
782.99716	0.63391
781.06859	0.63681
779.14003	0.63980
777.21147	0.64248
775.28290	0.64466
773.35434	0.64690
771.42577	0.64957
769.49721	0.65254
767.56864	0.65531
765.64008	0.65751
763.71151	0.65968
761.78295	0.66216
759.85439	0.66455
757.92582	0.66661
755.99726	0.66844
754.06869	0.67020
752.14013	0.67204
750.21156	0.67381
748.28300	0.67512
746.35443	0.67589
744.42587	0.67660
742.49731	0.67719
740.56874	0.67725
738.64018	0.67701
736.71161	0.67673
734.78305	0.67642
732.85448	0.67628
730.92592	0.67618
728.99735	0.67584
727.06879	0.67626
725.14023	0.67809
723.21166	0.68019
721.28310	0.68142
719.35453	0.68159
717.42597	0.68138
715.49740	0.68160
713.56884	0.68266
711.64027	0.68468
709.71171	0.68710
707.78315	0.68941
705.85458	0.69183
703.92602	0.69455
701.99745	0.69743
700.06889	0.70002
698.14032	0.70188
696.21176	0.70350
694.28319	0.70550
692.35463	0.70796
690.42607	0.71093
688.49750	0.71356
686.56894	0.71518
684.64037	0.71646
682.71181	0.71825
680.78324	0.72109
678.85468	0.72418
676.92611	0.72611
674.99755	0.72677
673.06899	0.72711
671.14042	0.72821
669.21186	0.72898
667.28329	0.72654
665.35473	0.72457
663.42616	0.72396
661.49760	0.72295
659.56903	0.72168
657.64047	0.72054
655.71191	0.71941
653.78334	0.71863
651.85478	0.71837
649.92621	0.71856
647.99765	0.71901
646.06908	0.71971
644.14052	0.72111
642.21195	0.72345
640.28339	0.72676
638.35483	0.73045
636.42626	0.73307
634.49770	0.73445
632.56913	0.73616
630.64057	0.73834
628.71200	0.73937
626.78344	0.73993
624.85488	0.74184
622.92631	0.74405
620.99775	0.74522
619.06918	0.74572
617.14062	0.74581
615.21205	0.74535
613.28349	0.74288
611.35492	0.73748
609.42636	0.73136
607.49780	0.72715
605.56923	0.72549
603.64067	0.72524
601.71210	0.72351
599.78354	0.71898
