3997.91406	0.98113
3995.98550	0.98062
3994.05693	0.98023
3992.12837	0.98108
3990.19980	0.98190
3988.27124	0.98100
3986.34268	0.97930
3984.41411	0.97733
3982.48555	0.97525
3980.55698	0.97465
3978.62842	0.97637
3976.69985	0.97821
3974.77129	0.97777
3972.84272	0.97565
3970.91416	0.97311
3968.98560	0.97200
3967.05703	0.97432
3965.12847	0.97701
3963.19990	0.97551
3961.27134	0.97287
3959.34277	0.97305
3957.41421	0.97292
3955.48564	0.97171
3953.55708	0.97192
3951.62852	0.97231
3949.69995	0.97007
3947.77139	0.96776
3945.84282	0.96926
3943.91426	0.96950
3941.98569	0.96508
3940.05713	0.96240
3938.12856	0.96358
3936.20000	0.96665
3934.27144	0.96945
3932.34287	0.96871
3930.41431	0.96595
3928.48574	0.96583
3926.55718	0.96604
3924.62861	0.96366
3922.70005	0.96297
3920.77148	0.96510
3918.84292	0.96553
3916.91436	0.96231
3914.98579	0.95867
3913.05723	0.95784
3911.12866	0.95898
3909.20010	0.96139
3907.27153	0.96408
3905.34297	0.96279
3903.41440	0.95721
3901.48584	0.95292
3899.55728	0.95021
3897.62871	0.95074
3895.70015	0.95545
3893.77158	0.95906
3891.84302	0.95552
3889.91445	0.95254
3887.98589	0.95513
3886.05733	0.95478
3884.12876	0.95198
3882.20020	0.95112
3880.27163	0.94679
3878.34307	0.94601
3876.41450	0.95027
3874.48594	0.95144
3872.55737	0.94958
3870.62881	0.94605
3868.70025	0.94486
3866.77168	0.94818
3864.84312	0.94562
3862.91455	0.93894
3860.98599	0.93910
3859.05742	0.94371
3857.12886	0.95016
3855.20029	0.95195
3853.27173	0.93353
3851.34317	0.92282
3849.41460	0.92983
3847.48604	0.93992
3845.55747	0.94623
3843.62891	0.94609
3841.70034	0.94303
3839.77178	0.93754
3837.84321	0.92909
3835.91465	0.92779
3833.98609	0.93129
3832.05752	0.93181
3830.12896	0.93159
3828.20039	0.93419
3826.27183	0.93674
3824.34326	0.93827
3822.41470	0.93607
3820.48613	0.92800
3818.55757	0.92576
3816.62901	0.92381
3814.70044	0.92041
3812.77188	0.92362
3810.84331	0.93059
3808.91475	0.93476
3806.98618	0.92901
3805.05762	0.92274
3803.12905	0.92168
3801.20049	0.91818
3799.27193	0.91813
3797.34336	0.91891
3795.41480	0.91642
3793.48623	0.91686
3791.55767	0.91951
3789.62910	0.92119
3787.70054	0.92187
3785.77197	0.92082
3783.84341	0.91959
3781.91485	0.92007
3779.98628	0.91819
3778.05772	0.91376
3776.12915	0.91255
3774.20059	0.91496
3772.27202	0.91727
3770.34346	0.91487
3768.41489	0.91247
3766.48633	0.91388
3764.55777	0.91428
3762.62920	0.91398
3760.70064	0.91163
3758.77207	0.90599
3756.84351	0.90608
3754.91494	0.91378
3752.98638	0.92010
3751.05781	0.91303
3749.12925	0.90657
3747.20069	0.91077
3745.27212	0.90772
3743.34356	0.89728
3741.41499	0.89864
3739.48643	0.90728
3737.55786	0.91248
3735.62930	0.90802
3733.70074	0.90101
3731.77217	0.89954
3729.84361	0.90255
3727.91504	0.90653
3725.98648	0.90611
3724.05791	0.90178
3722.12935	0.89976
3720.20078	0.90040
3718.27222	0.90176
3716.34366	0.90477
3714.41509	0.90909
3712.48653	0.90699
3710.55796	0.89738
3708.62940	0.89606
3706.70083	0.90012
3704.77227	0.90380
3702.84370	0.90357
3700.91514	0.89901
3698.98658	0.89765
3697.05801	0.90060
3695.12945	0.90427
3693.20088	0.90731
3691.27232	0.90774
3689.34375	0.90168
3687.41519	0.89669
3685.48662	0.89732
3683.55806	0.90005
3681.62950	0.90376
3679.70093	0.90894
3677.77237	0.91288
3675.84380	0.90592
3673.91524	0.89991
3671.98667	0.90403
3670.05811	0.90410
3668.12954	0.90227
3666.20098	0.90600
3664.27242	0.91098
3662.34385	0.91583
3660.41529	0.92056
3658.48672	0.92207
3656.55816	0.91899
3654.62959	0.92080
3652.70103	0.93047
3650.77246	0.93727
3648.84390	0.92933
3646.91534	0.92477
3644.98677	0.92990
3643.05821	0.93595
3641.12964	0.93924
3639.20108	0.94119
3637.27251	0.94423
3635.34395	0.94875
3633.41538	0.95529
3631.48682	0.96251
3629.55826	0.96354
3627.62969	0.95979
3625.70113	0.96350
3623.77256	0.97172
3621.84400	0.98000
3619.91543	0.98274
3617.98687	0.98085
3616.05830	0.98169
3614.12974	0.98314
3612.20118	0.98774
3610.27261	0.99654
3608.34405	1.00105
3606.41548	1.00251
3604.48692	1.00807
3602.55835	1.01386
3600.62979	1.01584
3598.70123	1.01861
3596.77266	1.02417
3594.84410	1.02928
3592.91553	1.03452
3590.98697	1.04153
3589.05840	1.04721
3587.12984	1.04791
3585.20127	1.05031
3583.27271	1.05614
3581.34415	1.06114
3579.41558	1.06507
3577.48702	1.06896
3575.55845	1.07281
3573.62989	1.07743
3571.70132	1.08361
3569.77276	1.08948
3567.84419	1.09293
3565.91563	1.09752
3563.98707	1.10495
3562.05850	1.10993
3560.12994	1.11104
3558.20137	1.11273
3556.27281	1.11783
3554.34424	1.12446
3552.41568	1.13054
3550.48711	1.13722
3548.55855	1.14473
3546.62999	1.15060
3544.70142	1.15514
3542.77286	1.15941
3540.84429	1.16289
3538.91573	1.16616
3536.98716	1.17059
3535.05860	1.17681
3533.13003	1.18308
3531.20147	1.18891
3529.27291	1.19486
3527.34434	1.19984
3525.41578	1.20389
3523.48721	1.20908
3521.55865	1.21644
3519.63008	1.22541
3517.70152	1.23556
3515.77295	1.24396
3513.84439	1.24907
3511.91583	1.25515
3509.98726	1.26317
3508.05870	1.27007
3506.13013	1.27687
3504.20157	1.28444
3502.27300	1.29100
3500.34444	1.29775
3498.41587	1.30673
3496.48731	1.31692
3494.55875	1.32623
3492.63018	1.33371
3490.70162	1.33942
3488.77305	1.34435
3486.84449	1.34909
3484.91592	1.35253
3482.98736	1.35636
3481.05879	1.36238
3479.13023	1.36605
3477.20167	1.36799
3475.27310	1.37279
3473.34454	1.37687
3471.41597	1.37989
3469.48741	1.38575
3467.55884	1.38981
3465.63028	1.39137
3463.70171	1.39702
3461.77315	1.40454
3459.84459	1.40673
3457.91602	1.40485
3455.98746	1.40571
3454.05889	1.41114
3452.13033	1.41951
3450.20176	1.42919
3448.27320	1.43490
3446.34464	1.43540
3444.41607	1.43669
3442.48751	1.43814
3440.55894	1.43813
3438.63038	1.43957
3436.70181	1.44042
3434.77325	1.43923
3432.84468	1.43967
3430.91612	1.44169
3428.98756	1.44409
3427.05899	1.44697
3425.13043	1.44848
3423.20186	1.44885
3421.27330	1.45148
3419.34473	1.45584
3417.41617	1.45783
3415.48760	1.45765
3413.55904	1.45752
3411.63048	1.45873
3409.70191	1.46050
3407.77335	1.45856
3405.84478	1.45402
3403.91622	1.45291
3401.98765	1.45540
3400.05909	1.45875
3398.13052	1.46024
3396.20196	1.45876
3394.27340	1.45993
3392.34483	1.46597
3390.41627	1.47011
3388.48770	1.47122
3386.55914	1.47546
3384.63057	1.48299
3382.70201	1.48827
3380.77344	1.49019
3378.84488	1.49059
3376.91632	1.49019
3374.98775	1.48947
3373.05919	1.48802
3371.13062	1.48530
3369.20206	1.48319
3367.27349	1.48403
3365.34493	1.48659
3363.41636	1.49130
3361.48780	1.49917
3359.55924	1.50328
3357.63067	1.50204
3355.70211	1.50443
3353.77354	1.51064
3351.84498	1.51303
3349.91641	1.51274
3347.98785	1.51470
3346.05928	1.51726
3344.13072	1.52033
3342.20216	1.52462
3340.27359	1.52412
3338.34503	1.51997
3336.41646	1.52090
3334.48790	1.52578
3332.55933	1.53062
3330.63077	1.53652
3328.70220	1.54080
3326.77364	1.54219
3324.84508	1.54709
3322.91651	1.55725
3320.98795	1.56347
3319.05938	1.56274
3317.13082	1.56573
3315.20225	1.57423
3313.27369	1.58121
3311.34513	1.58597
3309.41656	1.58639
3307.48800	1.58570
3305.55943	1.59446
3303.63087	1.60827
3301.70230	1.61530
3299.77374	1.61637
3297.84517	1.61772
3295.91661	1.62132
3293.98805	1.62583
3292.05948	1.62851
3290.13092	1.62622
3288.20235	1.61960
3286.27379	1.61444
3284.34522	1.61366
3282.41666	1.61485
3280.48809	1.61560
3278.55953	1.61504
3276.63097	1.61378
3274.70240	1.61150
3272.77384	1.60668
3270.84527	1.60259
3268.91671	1.60347
3266.98814	1.60472
3265.05958	1.60138
3263.13101	1.59824
3261.20245	1.59702
3259.27389	1.59092
3257.34532	1.57715
3255.41676	1.56151
3253.48819	1.55135
3251.55963	1.54747
3249.63106	1.54499
3247.70250	1.53907
3245.77393	1.52822
3243.84537	1.51605
3241.91681	1.50604
3239.98824	1.49861
3238.05968	1.49340
3236.13111	1.48872
3234.20255	1.48457
3232.27398	1.48265
3230.34542	1.48006
3228.41685	1.47499
3226.48829	1.46930
3224.55973	1.46125
3222.63116	1.45322
3220.70260	1.45057
3218.77403	1.44932
3216.84547	1.44503
3214.91690	1.44030
3212.98834	1.43652
3211.05977	1.43251
3209.13121	1.42737
3207.20265	1.41963
3205.27408	1.41080
3203.34552	1.40504
3201.41695	1.40228
3199.48839	1.39949
3197.55982	1.39465
3195.63126	1.38953
3193.70269	1.38508
3191.77413	1.37819
3189.84557	1.37214
3187.91700	1.37119
3185.98844	1.37044
3184.05987	1.36636
3182.13131	1.36216
3180.20274	1.35981
3178.27418	1.35648
3176.34562	1.35095
3174.41705	1.34552
3172.48849	1.34029
3170.55992	1.33547
3168.63136	1.33272
3166.70279	1.33026
3164.77423	1.32411
3162.84566	1.31611
3160.91710	1.31287
3158.98854	1.31345
3157.05997	1.31080
3155.13141	1.30458
3153.20284	1.29856
3151.27428	1.29350
3149.34571	1.28938
3147.41715	1.28654
3145.48858	1.28550
3143.56002	1.28671
3141.63146	1.28825
3139.70289	1.28821
3137.77433	1.28741
3135.84576	1.28567
3133.91720	1.28327
3131.98863	1.28256
3130.06007	1.28158
3128.13150	1.27793
3126.20294	1.27459
3124.27438	1.27353
3122.34581	1.27512
3120.41725	1.27958
3118.48868	1.28296
3116.56012	1.28170
3114.63155	1.27780
3112.70299	1.27534
3110.77442	1.27659
3108.84586	1.27903
3106.91730	1.27873
3104.98873	1.27672
3103.06017	1.27475
3101.13160	1.27229
3099.20304	1.27085
3097.27447	1.27080
3095.34591	1.26896
3093.41734	1.26659
3091.48878	1.26736
3089.56022	1.26841
3087.63165	1.26649
3085.70309	1.26313
3083.77452	1.25909
3081.84596	1.25438
3079.91739	1.25001
3077.98883	1.24726
3076.06026	1.24725
3074.13170	1.24834
3072.20314	1.24744
3070.27457	1.24434
3068.34601	1.24037
3066.41744	1.23625
3064.48888	1.23340
3062.56031	1.23117
3060.63175	1.22725
3058.70318	1.22332
3056.77462	1.22090
3054.84606	1.21818
3052.91749	1.21471
3050.98893	1.21017
3049.06036	1.20437
3047.13180	1.19929
3045.20323	1.19526
3043.27467	1.19125
3041.34610	1.18784
3039.41754	1.18483
3037.48898	1.18086
3035.56041	1.17633
3033.63185	1.17302
3031.70328	1.17180
3029.77472	1.17142
3027.84615	1.16956
3025.91759	1.16616
3023.98903	1.16365
3022.06046	1.16306
3020.13190	1.16261
3018.20333	1.16092
3016.27477	1.15828
3014.34620	1.15490
3012.41764	1.15176
3010.48907	1.15031
3008.56051	1.14978
3006.63195	1.14869
3004.70338	1.14677
3002.77482	1.14385
3000.84625	1.13972
2998.91769	1.13620
2996.98912	1.13681
2995.06056	1.14218
2993.13199	1.14828
2991.20343	1.15206
2989.27487	1.15446
2987.34630	1.15692
2985.41774	1.16032
2983.48917	1.16558
2981.56061	1.17170
2979.63204	1.17723
2977.70348	1.18331
2975.77491	1.19140
2973.84635	1.19988
2971.91779	1.20658
2969.98922	1.21245
2968.06066	1.21811
2966.13209	1.22292
2964.20353	1.22798
2962.27496	1.23287
2960.34640	1.23443
2958.41783	1.23134
2956.48927	1.22561
2954.56071	1.22016
2952.63214	1.21601
2950.70358	1.21341
2948.77501	1.21308
2946.84645	1.21491
2944.91788	1.21801
2942.98932	1.22186
2941.06075	1.22761
2939.13219	1.23671
2937.20363	1.24774
2935.27506	1.25862
2933.34650	1.26953
2931.41793	1.28090
2929.48937	1.29172
2927.56080	1.30034
2925.63224	1.30611
2923.70367	1.30970
2921.77511	1.31193
2919.84655	1.31244
2917.91798	1.30826
2915.98942	1.29542
2914.06085	1.27406
2912.13229	1.25070
2910.20372	1.23207
2908.27516	1.21805
2906.34659	1.20648
2904.41803	1.19814
2902.48947	1.19254
2900.56090	1.18703
2898.63234	1.18111
2896.70377	1.17689
2894.77521	1.17447
2892.84664	1.17173
2890.91808	1.16824
2888.98952	1.16482
2887.06095	1.16123
2885.13239	1.15702
2883.20382	1.15406
2881.27526	1.15455
2879.34669	1.15704
2877.41813	1.15824
2875.48956	1.15748
2873.56100	1.15625
2871.63244	1.15368
2869.70387	1.14814
2867.77531	1.14198
2865.84674	1.13751
2863.91818	1.13431
2861.98961	1.13315
2860.06105	1.13535
2858.13248	1.14000
2856.20392	1.14609
2854.27536	1.15368
2852.34679	1.16158
2850.41823	1.16393
2848.48966	1.15266
2846.56110	1.12891
2844.63253	1.10362
2842.70397	1.08472
2840.77540	1.07288
2838.84684	1.06551
2836.91828	1.05940
2834.98971	1.05318
2833.06115	1.04785
2831.13258	1.04349
2829.20402	1.03895
2827.27545	1.03449
2825.34689	1.03069
2823.41832	1.02780
2821.48976	1.02618
2819.56120	1.02456
2817.63263	1.02109
2815.70407	1.01675
2813.77550	1.01359
2811.84694	1.01151
2809.91837	1.00923
2807.98981	1.00600
2806.06124	1.00250
2804.13268	1.00005
2802.20412	0.99797
2800.27555	0.99482
2798.34699	0.99123
2796.41842	0.98843
2794.48986	0.98643
2792.56129	0.98420
2790.63273	0.98128
2788.70416	0.97853
2786.77560	0.97697
2784.84704	0.97660
2782.91847	0.97587
2780.98991	0.97397
2779.06134	0.97229
2777.13278	0.97113
2775.20421	0.96950
2773.27565	0.96734
2771.34708	0.96524
2769.41852	0.96379
2767.48996	0.96280
2765.56139	0.96166
2763.63283	0.96058
2761.70426	0.95994
2759.77570	0.95910
2757.84713	0.95767
2755.91857	0.95628
2753.99001	0.95529
2752.06144	0.95437
2750.13288	0.95334
2748.20431	0.95246
2746.27575	0.95157
2744.34718	0.95010
2742.41862	0.94840
2740.49005	0.94696
2738.56149	0.94567
2736.63293	0.94443
2734.70436	0.94303
2732.77580	0.94155
2730.84723	0.94040
2728.91867	0.93920
2726.99010	0.93741
2725.06154	0.93583
2723.13297	0.93525
2721.20441	0.93471
2719.27585	0.93333
2717.34728	0.93186
2715.41872	0.93065
2713.49015	0.92914
2711.56159	0.92743
2709.63302	0.92592
2707.70446	0.92481
2705.77589	0.92422
2703.84733	0.92361
2701.91877	0.92253
2699.99020	0.92141
2698.06164	0.92056
2696.13307	0.91958
2694.20451	0.91836
2692.27594	0.91761
2690.34738	0.91698
2688.41881	0.91558
2686.49025	0.91402
2684.56169	0.91320
2682.63312	0.91279
2680.70456	0.91200
2678.77599	0.91080
2676.84743	0.90969
2674.91886	0.90868
2672.99030	0.90772
2671.06173	0.90685
2669.13317	0.90580
2667.20461	0.90464
2665.27604	0.90404
2663.34748	0.90403
2661.41891	0.90355
2659.49035	0.90229
2657.56178	0.90096
2655.63322	0.89994
2653.70465	0.89911
2651.77609	0.89812
2649.84753	0.89681
2647.91896	0.89549
2645.99040	0.89469
2644.06183	0.89465
2642.13327	0.89458
2640.20470	0.89370
2638.27614	0.89286
2636.34757	0.89267
2634.41901	0.89255
2632.49045	0.89216
2630.56188	0.89173
2628.63332	0.89128
2626.70475	0.89018
2624.77619	0.88816
2622.84762	0.88605
2620.91906	0.88480
2618.99049	0.88451
2617.06193	0.88386
2615.13337	0.88218
2613.20480	0.88075
2611.27624	0.87996
2609.34767	0.87911
2607.41911	0.87852
2605.49054	0.87841
2603.56198	0.87792
2601.63342	0.87695
2599.70485	0.87617
2597.77629	0.87588
2595.84772	0.87578
2593.91916	0.87507
2591.99059	0.87373
2590.06203	0.87246
2588.13346	0.87163
2586.20490	0.87130
2584.27634	0.87086
2582.34777	0.86982
2580.41921	0.86838
2578.49064	0.86684
2576.56208	0.86552
2574.63351	0.86471
2572.70495	0.86398
2570.77638	0.86296
2568.84782	0.86213
2566.91926	0.86135
2564.99069	0.85983
2563.06213	0.85807
2561.13356	0.85697
2559.20500	0.85618
2557.27643	0.85569
2555.34787	0.85586
2553.41930	0.85565
2551.49074	0.85462
2549.56218	0.85391
2547.63361	0.85383
2545.70505	0.85361
2543.77648	0.85280
2541.84792	0.85184
2539.91935	0.85150
2537.99079	0.85161
2536.06222	0.85101
2534.13366	0.84955
2532.20510	0.84836
2530.27653	0.84772
2528.34797	0.84689
2526.41940	0.84566
2524.49084	0.84449
2522.56227	0.84367
2520.63371	0.84314
2518.70514	0.84268
2516.77658	0.84220
2514.84802	0.84185
2512.91945	0.84131
2510.99089	0.84019
2509.06232	0.83911
2507.13376	0.83878
2505.20519	0.83906
2503.27663	0.83934
2501.34806	0.83918
2499.41950	0.83858
2497.49094	0.83778
2495.56237	0.83710
2493.63381	0.83657
2491.70524	0.83622
2489.77668	0.83603
2487.84811	0.83562
2485.91955	0.83464
2483.99098	0.83304
2482.06242	0.83141
2480.13386	0.83033
2478.20529	0.82958
2476.27673	0.82880
2474.34816	0.82768
2472.41960	0.82612
2470.49103	0.82491
2468.56247	0.82449
2466.63391	0.82408
2464.70534	0.82309
2462.77678	0.82175
2460.84821	0.82052
2458.91965	0.81953
2456.99108	0.81858
2455.06252	0.81765
2453.13395	0.81691
2451.20539	0.81661
2449.27683	0.81672
2447.34826	0.81652
2445.41970	0.81547
2443.49113	0.81407
2441.56257	0.81321
2439.63400	0.81259
2437.70544	0.81123
2435.77687	0.80940
2433.84831	0.80785
2431.91975	0.80657
2429.99118	0.80551
2428.06262	0.80438
2426.13405	0.80271
2424.20549	0.80102
2422.27692	0.79973
2420.34836	0.79863
2418.41979	0.79782
2416.49123	0.79747
2414.56267	0.79723
2412.63410	0.79667
2410.70554	0.79610
2408.77697	0.79588
2406.84841	0.79571
2404.91984	0.79556
2402.99128	0.79552
2401.06271	0.79546
2399.13415	0.79540
2397.20559	0.79519
2395.27702	0.79484
2393.34846	0.79449
2391.41989	0.79385
2389.49133	0.79328
2387.56276	0.79382
2385.63420	0.79499
2383.70563	0.79550
2381.77707	0.79600
2379.84851	0.79791
2377.91994	0.80061
2375.99138	0.80290
2374.06281	0.80575
2372.13425	0.81111
2370.20568	0.81733
2368.27712	0.81996
2366.34855	0.81969
2364.41999	0.82000
2362.49143	0.82144
2360.56286	0.82343
2358.63430	0.82159
2356.70573	0.81571
2354.77717	0.81198
2352.84860	0.80899
2350.92004	0.80509
2348.99147	0.80401
2347.06291	0.80695
2345.13435	0.81018
2343.20578	0.80890
2341.27722	0.80644
2339.34865	0.80618
2337.42009	0.80477
2335.49152	0.80120
2333.56296	0.79875
2331.63440	0.79785
2329.70583	0.79590
2327.77727	0.79201
2325.84870	0.78820
2323.92014	0.78550
2321.99157	0.78280
2320.06301	0.78026
2318.13444	0.77861
2316.20588	0.77746
2314.27732	0.77637
2312.34875	0.77498
2310.42019	0.77317
2308.49162	0.77133
2306.56306	0.76969
2304.63449	0.76838
2302.70593	0.76760
2300.77736	0.76682
2298.84880	0.76580
2296.92024	0.76495
2294.99167	0.76402
2293.06311	0.76276
2291.13454	0.76143
2289.20598	0.76003
2287.27741	0.75859
2285.34885	0.75724
2283.42028	0.75577
2281.49172	0.75413
2279.56316	0.75261
2277.63459	0.75140
2275.70603	0.75044
2273.77746	0.74969
2271.84890	0.74900
2269.92033	0.74820
2267.99177	0.74752
2266.06320	0.74723
2264.13464	0.74679
2262.20608	0.74583
2260.27751	0.74484
2258.34895	0.74417
2256.42038	0.74373
2254.49182	0.74333
2252.56325	0.74255
2250.63469	0.74129
2248.70612	0.74025
2246.77756	0.73980
2244.84900	0.73931
2242.92043	0.73842
2240.99187	0.73723
2239.06330	0.73598
2237.13474	0.73508
2235.20617	0.73453
2233.27761	0.73408
2231.34904	0.73352
2229.42048	0.73242
2227.49192	0.73099
2225.56335	0.73008
2223.63479	0.72966
2221.70622	0.72937
2219.77766	0.72927
2217.84909	0.72929
2215.92053	0.72912
2213.99196	0.72867
2212.06340	0.72806
2210.13484	0.72763
2208.20627	0.72751
2206.27771	0.72742
2204.34914	0.72741
2202.42058	0.72741
2200.49201	0.72712
2198.56345	0.72669
2196.63488	0.72615
2194.70632	0.72534
2192.77776	0.72458
2190.84919	0.72399
2188.92063	0.72333
2186.99206	0.72240
2185.06350	0.72101
2183.13493	0.71947
2181.20637	0.71840
2179.27781	0.71759
2177.34924	0.71638
2175.42068	0.71509
2173.49211	0.71427
2171.56355	0.71365
2169.63498	0.71297
2167.70642	0.71225
2165.77785	0.71130
2163.84929	0.71033
2161.92073	0.70977
2159.99216	0.70965
2158.06360	0.70963
2156.13503	0.70936
2154.20647	0.70896
2152.27790	0.70888
2150.34934	0.70887
2148.42077	0.70850
2146.49221	0.70803
2144.56365	0.70800
2142.63508	0.70819
2140.70652	0.70794
2138.77795	0.70723
2136.84939	0.70658
2134.92082	0.70621
2132.99226	0.70585
2131.06369	0.70514
2129.13513	0.70408
2127.20657	0.70307
2125.27800	0.70227
2123.34944	0.70141
2121.42087	0.70046
2119.49231	0.69985
2117.56374	0.69946
2115.63518	0.69874
2113.70661	0.69780
2111.77805	0.69718
2109.84949	0.69677
2107.92092	0.69621
2105.99236	0.69559
2104.06379	0.69518
2102.13523	0.69480
2100.20666	0.69426
2098.27810	0.69383
2096.34953	0.69366
2094.42097	0.69355
2092.49241	0.69321
2090.56384	0.69252
2088.63528	0.69176
2086.70671	0.69117
2084.77815	0.69051
2082.84958	0.68974
2080.92102	0.68905
2078.99245	0.68839
2077.06389	0.68766
2075.13533	0.68694
2073.20676	0.68603
2071.27820	0.68471
2069.34963	0.68335
2067.42107	0.68235
2065.49250	0.68150
2063.56394	0.68044
2061.63537	0.67914
2059.70681	0.67787
2057.77825	0.67676
2055.84968	0.67590
2053.92112	0.67542
2051.99255	0.67511
2050.06399	0.67458
2048.13542	0.67376
2046.20686	0.67300
2044.27830	0.67245
2042.34973	0.67202
2040.42117	0.67169
2038.49260	0.67121
2036.56404	0.67042
2034.63547	0.66953
2032.70691	0.66856
2030.77834	0.66747
2028.84978	0.66634
2026.92122	0.66513
2024.99265	0.66397
2023.06409	0.66294
2021.13552	0.66189
2019.20696	0.66067
2017.27839	0.65926
2015.34983	0.65800
2013.42126	0.65703
2011.49270	0.65605
2009.56414	0.65511
2007.63557	0.65439
2005.70701	0.65370
2003.77844	0.65268
2001.84988	0.65142
1999.92131	0.65032
1997.99275	0.64933
1996.06418	0.64835
1994.13562	0.64748
1992.20706	0.64648
1990.27849	0.64526
1988.34993	0.64416
1986.42136	0.64325
1984.49280	0.64243
1982.56423	0.64154
1980.63567	0.64044
1978.70710	0.63918
1976.77854	0.63794
1974.84998	0.63686
1972.92141	0.63600
1970.99285	0.63525
1969.06428	0.63440
1967.13572	0.63333
1965.20715	0.63221
1963.27859	0.63111
1961.35002	0.63001
1959.42146	0.62906
1957.49290	0.62832
1955.56433	0.62768
1953.63577	0.62721
1951.70720	0.62700
1949.77864	0.62676
1947.85007	0.62627
1945.92151	0.62584
1943.99294	0.62531
1942.06438	0.62401
1940.13582	0.62263
1938.20725	0.62186
1936.27869	0.62120
1934.35012	0.62021
1932.42156	0.61901
1930.49299	0.61780
1928.56443	0.61661
1926.63586	0.61560
1924.70730	0.61476
1922.77874	0.61374
1920.85017	0.61266
1918.92161	0.61156
1916.99304	0.61034
1915.06448	0.60949
1913.13591	0.60902
1911.20735	0.60829
1909.27878	0.60716
1907.35022	0.60625
1905.42166	0.60582
1903.49309	0.60544
1901.56453	0.60479
1899.63596	0.60398
1897.70740	0.60304
1895.77883	0.60177
1893.85027	0.60049
1891.92171	0.59945
1889.99314	0.59792
1888.06458	0.59600
1886.13601	0.59462
1884.20745	0.59340
1882.27888	0.59186
1880.35032	0.59024
1878.42175	0.58871
1876.49319	0.58730
1874.56463	0.58617
1872.63606	0.58567
1870.70750	0.58530
1868.77893	0.58361
1866.85037	0.58121
1864.92180	0.57979
1862.99324	0.57889
1861.06467	0.57800
1859.13611	0.57717
1857.20755	0.57637
1855.27898	0.57559
1853.35042	0.57495
1851.42185	0.57467
1849.49329	0.57467
1847.56472	0.57472
1845.63616	0.57456
1843.70759	0.57388
1841.77903	0.57327
1839.85047	0.57292
1837.92190	0.57234
1835.99334	0.57157
1834.06477	0.57114
1832.13621	0.57105
1830.20764	0.57043
1828.27908	0.56933
1826.35051	0.56835
1824.42195	0.56710
1822.49339	0.56600
1820.56482	0.56534
1818.63626	0.56465
1816.70769	0.56380
1814.77913	0.56324
1812.85056	0.56281
1810.92200	0.56171
1808.99343	0.56018
1807.06487	0.55885
1805.13631	0.55779
1803.20774	0.55675
1801.27918	0.55523
1799.35061	0.55337
1797.42205	0.55206
1795.49348	0.55123
1793.56492	0.54979
1791.63635	0.54743
1789.70779	0.54592
1787.77923	0.54550
1785.85066	0.54497
1783.92210	0.54419
1781.99353	0.54360
1780.06497	0.54299
1778.13640	0.54260
1776.20784	0.54262
1774.27927	0.54278
1772.35071	0.54223
1770.42215	0.54102
1768.49358	0.54038
1766.56502	0.54051
1764.63645	0.54116
1762.70789	0.54162
1760.77932	0.54204
1758.85076	0.54309
1756.92220	0.54493
1754.99363	0.54770
1753.06507	0.55149
1751.13650	0.55721
1749.20794	0.56452
1747.27937	0.57072
1745.35081	0.57570
1743.42224	0.58061
1741.49368	0.58557
1739.56512	0.58981
1737.63655	0.59286
1735.70799	0.59533
1733.77942	0.59801
1731.85086	0.60027
1729.92229	0.60240
1727.99373	0.60497
1726.06516	0.60818
1724.13660	0.61261
1722.20804	0.61778
1720.27947	0.62335
1718.35091	0.63079
1716.42234	0.64096
1714.49378	0.65079
1712.56521	0.66056
1710.63665	0.67208
1708.70808	0.68621
1706.77952	0.70703
1704.85096	0.73470
1702.92239	0.76094
1700.99383	0.79707
1699.06526	0.85187
1697.13670	0.90288
1695.20813	0.95280
1693.27957	0.99184
1691.35100	1.02469
1689.42244	1.06347
1687.49388	1.09932
1685.56531	1.13624
1683.63675	1.19227
1681.70818	1.23450
1679.77962	1.26153
1677.85105	1.28785
1675.92249	1.31793
1673.99392	1.34939
1672.06536	1.37533
1670.13680	1.40337
1668.20823	1.43278
1666.27967	1.45229
1664.35110	1.47094
1662.42254	1.49222
1660.49397	1.50882
1658.56541	1.52169
1656.63684	1.53141
1654.70828	1.53611
1652.77972	1.53629
1650.85115	1.53992
1648.92259	1.54494
1646.99402	1.55038
1645.06546	1.55244
1643.13689	1.54910
1641.20833	1.54571
1639.27976	1.54411
1637.35120	1.54403
1635.42264	1.54292
1633.49407	1.54109
1631.56551	1.54048
1629.63694	1.53895
1627.70838	1.53550
1625.77981	1.52828
1623.85125	1.51508
1621.92269	1.49764
1619.99412	1.48128
1618.06556	1.45731
1616.13699	1.41620
1614.20843	1.38167
1612.27986	1.35522
1610.35130	1.32561
1608.42273	1.29362
1606.49417	1.26608
1604.56561	1.24472
1602.63704	1.22647
1600.70848	1.21113
1598.77991	1.19985
1596.85135	1.19105
1594.92278	1.18309
1592.99422	1.17704
1591.06565	1.17292
1589.13709	1.16982
1587.20853	1.16942
1585.27996	1.17276
1583.35140	1.17892
1581.42283	1.18668
1579.49427	1.19483
1577.56570	1.20461
1575.63714	1.21942
1573.70857	1.23277
1571.78001	1.24353
1569.85145	1.25925
1567.92288	1.27849
1565.99432	1.29495
1564.06575	1.30962
1562.13719	1.32107
1560.20862	1.33712
1558.28006	1.37267
1556.35149	1.38895
1554.42293	1.39180
1552.49437	1.39406
1550.56580	1.39802
1548.63724	1.40202
1546.70867	1.40327
1544.78011	1.40172
1542.85154	1.39785
1540.92298	1.39194
1538.99441	1.38738
1537.06585	1.38520
1535.13729	1.38070
1533.20872	1.37262
1531.28016	1.36488
1529.35159	1.35880
1527.42303	1.35232
1525.49446	1.34674
1523.56590	1.34271
1521.63733	1.33721
1519.70877	1.33545
1517.78021	1.33711
1515.85164	1.33270
1513.92308	1.32021
1511.99451	1.30650
1510.06595	1.29661
1508.13738	1.27808
1506.20882	1.23040
1504.28025	1.20269
1502.35169	1.18731
1500.42313	1.16850
1498.49456	1.14186
1496.56600	1.10969
1494.63743	1.08517
1492.70887	1.06867
1490.78030	1.04955
1488.85174	1.02475
1486.92317	1.00592
1484.99461	0.99389
1483.06605	0.98437
1481.13748	0.97631
1479.20892	0.97207
1477.28035	0.97327
1475.35179	0.97978
1473.42322	0.99157
1471.49466	1.00367
1469.56610	1.01163
1467.63753	1.01882
1465.70897	1.02825
1463.78040	1.03845
1461.85184	1.04513
1459.92327	1.05004
1457.99471	1.05858
1456.06614	1.06964
1454.13758	1.07403
1452.20902	1.07509
1450.28045	1.07520
1448.35189	1.07434
1446.42332	1.07187
1444.49476	1.06791
1442.56619	1.06278
1440.63763	1.05768
1438.70906	1.05183
1436.78050	1.04062
1434.85194	1.02782
1432.92337	1.01944
1430.99481	1.01125
1429.06624	1.00174
1427.13768	0.99448
1425.20911	0.99010
1423.28055	0.98768
1421.35198	0.98769
1419.42342	0.99050
1417.49486	0.99354
1415.56629	0.99469
1413.63773	0.99562
1411.70916	0.99684
1409.78060	0.99817
1407.85203	0.99970
1405.92347	1.00182
1403.99490	1.00452
1402.06634	1.00710
1400.13778	1.00892
1398.20921	1.00901
1396.28065	1.00801
1394.35208	1.00769
1392.42352	1.00850
1390.49495	1.01068
1388.56639	1.01572
1386.63782	1.02480
1384.70926	1.03540
1382.78070	1.04547
1380.85213	1.05352
1378.92357	1.05728
1376.99500	1.05562
1375.06644	1.04681
1373.13787	1.03162
1371.20931	1.01575
1369.28074	0.99868
1367.35218	0.97990
1365.42362	0.96311
1363.49505	0.94735
1361.56649	0.93263
1359.63792	0.92302
1357.70936	0.91792
1355.78079	0.91512
1353.85223	0.91345
1351.92366	0.91245
1349.99510	0.91173
1348.06654	0.91094
1346.13797	0.91013
1344.20941	0.90941
1342.28084	0.90887
1340.35228	0.90868
1338.42371	0.90847
1336.49515	0.90855
1334.56659	0.91027
1332.63802	0.91444
1330.70946	0.92014
1328.78089	0.92486
1326.85233	0.92707
1324.92376	0.92752
1322.99520	0.92804
1321.06663	0.92974
1319.13807	0.93189
1317.20951	0.93339
1315.28094	0.93479
1313.35238	0.93660
1311.42381	0.93802
1309.49525	0.93862
1307.56668	0.93873
1305.63812	0.93815
1303.70955	0.93634
1301.78099	0.93321
1299.85243	0.92894
1297.92386	0.92345
1295.99530	0.91715
1294.06673	0.91106
1292.13817	0.90585
1290.20960	0.90151
1288.28104	0.89771
1286.35247	0.89424
1284.42391	0.89107
1282.49535	0.88808
1280.56678	0.88540
1278.63822	0.88374
1276.70965	0.88365
1274.78109	0.88532
1272.85252	0.88890
1270.92396	0.89421
1268.99539	0.90079
1267.06683	0.90794
1265.13827	0.91473
1263.20970	0.92073
1261.28114	0.92591
1259.35257	0.93013
1257.42401	0.93388
1255.49544	0.93801
1253.56688	0.94226
1251.63831	0.94579
1249.70975	0.94853
1247.78119	0.95075
1245.85262	0.95244
1243.92406	0.95341
1241.99549	0.95319
1240.06693	0.95107
1238.13836	0.94732
1236.20980	0.94265
1234.28123	0.93714
1232.35267	0.93081
1230.42411	0.92333
1228.49554	0.91448
1226.56698	0.90511
1224.63841	0.89623
1222.70985	0.88788
1220.78128	0.87971
1218.85272	0.87241
1216.92415	0.86724
1214.99559	0.86467
1213.06703	0.86439
1211.13846	0.86614
1209.20990	0.86924
1207.28133	0.87175
1205.35277	0.87177
1203.42420	0.86845
1201.49564	0.86201
1199.56708	0.85322
1197.63851	0.84283
1195.70995	0.83202
1193.78138	0.82199
1191.85282	0.81301
1189.92425	0.80523
1187.99569	0.79884
1186.06712	0.79359
1184.13856	0.78978
1182.21000	0.78828
1180.28143	0.78936
1178.35287	0.79313
1176.42430	0.79982
1174.49574	0.80916
1172.56717	0.82044
1170.63861	0.83327
1168.71004	0.84797
1166.78148	0.86485
1164.85292	0.88350
1162.92435	0.90212
1160.99579	0.91765
1159.06722	0.92799
1157.13866	0.93236
1155.21009	0.93059
1153.28153	0.92411
1151.35296	0.91543
1149.42440	0.90584
1147.49584	0.89512
1145.56727	0.88390
1143.63871	0.87484
1141.71014	0.86981
1139.78158	0.86830
1137.85301	0.86959
1135.92445	0.87414
1133.99588	0.88248
1132.06732	0.89449
1130.13876	0.90933
1128.21019	0.92559
1126.28163	0.94232
1124.35306	0.95863
1122.42450	0.97294
1120.49593	0.98435
1118.56737	0.99346
1116.63880	1.00109
1114.71024	1.00612
1112.78168	1.00656
1110.85311	1.00271
1108.92455	0.99705
1106.99598	0.99192
1105.06742	0.98829
1103.13885	0.98576
1101.21029	0.98358
1099.28172	0.98187
1097.35316	0.98179
1095.42460	0.98464
1093.49603	0.99074
1091.56747	0.99933
1089.63890	1.01050
1087.71034	1.02461
1085.78177	1.04012
1083.85321	1.05429
1081.92464	1.06511
1079.99608	1.07249
1078.06752	1.07608
1076.13895	1.07435
1074.21039	1.06737
1072.28182	1.05756
1070.35326	1.04761
1068.42469	1.03840
1066.49613	1.02973
1064.56756	1.02241
1062.63900	1.01649
1060.71044	1.01000
1058.78187	1.00254
1056.85331	0.99632
1054.92474	0.99187
1052.99618	0.98766
1051.06761	0.98376
1049.13905	0.98161
1047.21049	0.98246
1045.28192	0.98717
1043.35336	0.99482
1041.42479	1.00313
1039.49623	1.01065
1037.56766	1.01653
1035.63910	1.02014
1033.71053	1.02166
1031.78197	1.02040
1029.85341	1.01510
1027.92484	1.00685
1025.99628	0.99716
1024.06771	0.98687
1022.13915	0.97803
1020.21058	0.97173
1018.28202	0.96679
1016.35345	0.96160
1014.42489	0.95449
1012.49633	0.94390
1010.56776	0.92933
1008.63920	0.91138
1006.71063	0.89204
1004.78207	0.87381
1002.85350	0.85762
1000.92494	0.84336
998.99637	0.83123
997.06781	0.82095
995.13925	0.81108
993.21068	0.80009
991.28212	0.78774
989.35355	0.77467
987.42499	0.76124
985.49642	0.74792
983.56786	0.73562
981.63929	0.72540
979.71073	0.71776
977.78217	0.71206
975.85360	0.70718
973.92504	0.70232
971.99647	0.69677
970.06791	0.69007
968.13934	0.68282
966.21078	0.67647
964.28221	0.67273
962.35365	0.67297
960.42509	0.67787
958.49652	0.68694
956.56796	0.69709
954.63939	0.70361
952.71083	0.70415
950.78226	0.69997
948.85370	0.69388
946.92513	0.68847
944.99657	0.68476
943.06801	0.68275
941.13944	0.68230
939.21088	0.68278
937.28231	0.68344
935.35375	0.68419
933.42518	0.68551
931.49662	0.68761
929.56805	0.69015
927.63949	0.69309
925.71093	0.69703
923.78236	0.70205
921.85380	0.70711
919.92523	0.71065
917.99667	0.71206
916.06810	0.71227
914.13954	0.71247
912.21098	0.71297
910.28241	0.71386
908.35385	0.71533
906.42528	0.71746
904.49672	0.72024
902.56815	0.72308
900.63959	0.72494
898.71102	0.72518
896.78246	0.72367
894.85390	0.72056
892.92533	0.71606
890.99677	0.71060
889.06820	0.70482
887.13964	0.69935
885.21107	0.69456
883.28251	0.69062
881.35394	0.68769
879.42538	0.68598
877.49682	0.68522
875.56825	0.68485
873.63969	0.68489
871.71112	0.68575
869.78256	0.68753
867.85399	0.68981
865.92543	0.69210
863.99686	0.69453
862.06830	0.69776
860.13974	0.70175
858.21117	0.70579
856.28261	0.71005
854.35404	0.71478
852.42548	0.71911
850.49691	0.72266
848.56835	0.72584
846.63978	0.72895
844.71122	0.73241
842.78266	0.73639
840.85409	0.74023
838.92553	0.74385
836.99696	0.74798
835.06840	0.75253
833.13983	0.75686
831.21127	0.76117
829.28270	0.76618
827.35414	0.77178
825.42558	0.77727
823.49701	0.78270
821.56845	0.78845
819.63988	0.79429
817.71132	0.79967
815.78275	0.80428
813.85419	0.80853
811.92562	0.81239
809.99706	0.81540
808.06850	0.81790
806.13993	0.82011
804.21137	0.82153
802.28280	0.82205
800.35424	0.82167
798.42567	0.82042
796.49711	0.81877
794.56854	0.81703
792.63998	0.81504
790.71142	0.81294
788.78285	0.81146
786.85429	0.81094
784.92572	0.81115
782.99716	0.81241
781.06859	0.81515
779.14003	0.81859
777.21147	0.82154
775.28290	0.82394
773.35434	0.82671
771.42577	0.83026
769.49721	0.83379
767.56864	0.83659
765.64008	0.83857
763.71151	0.83968
761.78295	0.84022
759.85439	0.84099
757.92582	0.84214
755.99726	0.84317
754.06869	0.84354
752.14013	0.84296
750.21156	0.84194
748.28300	0.84114
746.35443	0.84068
744.42587	0.83996
742.49731	0.83864
740.56874	0.83797
738.64018	0.83888
736.71161	0.84076
734.78305	0.84374
732.85448	0.84875
730.92592	0.85568
728.99735	0.86354
727.06879	0.87173
725.14023	0.88013
723.21166	0.88947
721.28310	0.89984
719.35453	0.90851
717.42597	0.91383
715.49740	0.91808
713.56884	0.92256
711.64027	0.92626
709.71171	0.92811
707.78315	0.92780
705.85458	0.92617
703.92602	0.92415
701.99745	0.92195
700.06889	0.91953
698.14032	0.91644
696.21176	0.91293
694.28319	0.90920
692.35463	0.90428
690.42607	0.89883
688.49750	0.89522
686.56894	0.89438
684.64037	0.89519
682.71181	0.89603
680.78324	0.89692
678.85468	0.89896
676.92611	0.90159
674.99755	0.90406
673.06899	0.90761
671.14042	0.91267
669.21186	0.91699
667.28329	0.91731
665.35473	0.91697
663.42616	0.91703
661.49760	0.91518
659.56903	0.91105
657.64047	0.90495
655.71191	0.89662
653.78334	0.88840
651.85478	0.88301
649.92621	0.87846
647.99765	0.87258
646.06908	0.86811
644.14052	0.86836
642.21195	0.87247
640.28339	0.87731
638.35483	0.88304
636.42626	0.89133
634.49770	0.90141
632.56913	0.91209
630.64057	0.92365
628.71200	0.93698
626.78344	0.95185
624.85488	0.96467
622.92631	0.97199
620.99775	0.97665
619.06918	0.98254
617.14062	0.98599
615.21205	0.98104
613.28349	0.96981
611.35492	0.95804
609.42636	0.94566
607.49780	0.92973
605.56923	0.91286
603.64067	0.89887
601.71210	0.88694
599.78354	0.87533
