3997.91406	0.60315
3995.98550	0.60263
3994.05693	0.60228
3992.12837	0.60205
3990.19980	0.60184
3988.27124	0.60152
3986.34268	0.60099
3984.41411	0.60042
3982.48555	0.59999
3980.55698	0.59952
3978.62842	0.59933
3976.69985	0.59977
3974.77129	0.60009
3972.84272	0.59937
3970.91416	0.59829
3968.98560	0.59818
3967.05703	0.59881
3965.12847	0.59909
3963.19990	0.59876
3961.27134	0.59853
3959.34277	0.59901
3957.41421	0.59954
3955.48564	0.59940
3953.55708	0.59901
3951.62852	0.59853
3949.69995	0.59765
3947.77139	0.59693
3945.84282	0.59634
3943.91426	0.59509
3941.98569	0.59382
3940.05713	0.59357
3938.12856	0.59411
3936.20000	0.59479
3934.27144	0.59476
3932.34287	0.59401
3930.41431	0.59340
3928.48574	0.59299
3926.55718	0.59291
3924.62861	0.59365
3922.70005	0.59469
3920.77148	0.59551
3918.84292	0.59580
3916.91436	0.59483
3914.98579	0.59284
3913.05723	0.59045
3911.12866	0.58850
3909.20010	0.58797
3907.27153	0.58806
3905.34297	0.58790
3903.41440	0.58854
3901.48584	0.58956
3899.55728	0.58947
3897.62871	0.58892
3895.70015	0.58875
3893.77158	0.58908
3891.84302	0.58896
3889.91445	0.58798
3887.98589	0.58810
3886.05733	0.58967
3884.12876	0.59017
3882.20020	0.58955
3880.27163	0.58945
3878.34307	0.58902
3876.41450	0.58815
3874.48594	0.58749
3872.55737	0.58790
3870.62881	0.58954
3868.70025	0.58932
3866.77168	0.58667
3864.84312	0.58417
3862.91455	0.58369
3860.98599	0.58455
3859.05742	0.58506
3857.12886	0.58484
3855.20029	0.58473
3853.27173	0.58459
3851.34317	0.58334
3849.41460	0.58258
3847.48604	0.58234
3845.55747	0.58227
3843.62891	0.58199
3841.70034	0.58077
3839.77178	0.58008
3837.84321	0.58171
3835.91465	0.58291
3833.98609	0.58288
3832.05752	0.58265
3830.12896	0.58174
3828.20039	0.58075
3826.27183	0.58078
3824.34326	0.58178
3822.41470	0.58397
3820.48613	0.58538
3818.55757	0.58361
3816.62901	0.58108
3814.70044	0.57940
3812.77188	0.57879
3810.84331	0.57875
3808.91475	0.57900
3806.98618	0.57936
3805.05762	0.57957
3803.12905	0.58057
3801.20049	0.58250
3799.27193	0.58281
3797.34336	0.58142
3795.41480	0.57913
3793.48623	0.57680
3791.55767	0.57516
3789.62910	0.57463
3787.70054	0.57573
3785.77197	0.57793
3783.84341	0.57935
3781.91485	0.57959
3779.98628	0.57912
3778.05772	0.57811
3776.12915	0.57755
3774.20059	0.57766
3772.27202	0.57838
3770.34346	0.57949
3768.41489	0.57974
3766.48633	0.57909
3764.55777	0.57802
3762.62920	0.57683
3760.70064	0.57622
3758.77207	0.57602
3756.84351	0.57535
3754.91494	0.57433
3752.98638	0.57360
3751.05781	0.57518
3749.12925	0.57775
3747.20069	0.57790
3745.27212	0.57705
3743.34356	0.57681
3741.41499	0.57689
3739.48643	0.57705
3737.55786	0.57787
3735.62930	0.57946
3733.70074	0.58036
3731.77217	0.57961
3729.84361	0.57813
3727.91504	0.57699
3725.98648	0.57654
3724.05791	0.57630
3722.12935	0.57550
3720.20078	0.57494
3718.27222	0.57539
3716.34366	0.57575
3714.41509	0.57567
3712.48653	0.57612
3710.55796	0.57682
3708.62940	0.57658
3706.70083	0.57609
3704.77227	0.57555
3702.84370	0.57553
3700.91514	0.57704
3698.98658	0.57878
3697.05801	0.57974
3695.12945	0.58047
3693.20088	0.58165
3691.27232	0.58374
3689.34375	0.58565
3687.41519	0.58530
3685.48662	0.58423
3683.55806	0.58401
3681.62950	0.58482
3679.70093	0.58594
3677.77237	0.58720
3675.84380	0.58942
3673.91524	0.59095
3671.98667	0.59126
3670.05811	0.59285
3668.12954	0.59535
3666.20098	0.59723
3664.27242	0.59925
3662.34385	0.60173
3660.41529	0.60396
3658.48672	0.60563
3656.55816	0.60835
3654.62959	0.61211
3652.70103	0.61569
3650.77246	0.61979
3648.84390	0.62341
3646.91534	0.62608
3644.98677	0.62881
3643.05821	0.63167
3641.12964	0.63496
3639.20108	0.63847
3637.27251	0.64218
3635.34395	0.64627
3633.41538	0.65018
3631.48682	0.65349
3629.55826	0.65912
3627.62969	0.66625
3625.70113	0.66963
3623.77256	0.67212
3621.84400	0.67557
3619.91543	0.67951
3617.98687	0.68314
3616.05830	0.68728
3614.12974	0.69250
3612.20118	0.69740
3610.27261	0.70107
3608.34405	0.70481
3606.41548	0.70910
3604.48692	0.71287
3602.55835	0.71672
3600.62979	0.72152
3598.70123	0.72616
3596.77266	0.72976
3594.84410	0.73358
3592.91553	0.73754
3590.98697	0.74026
3589.05840	0.74377
3587.12984	0.74998
3585.20127	0.75522
3583.27271	0.75874
3581.34415	0.76208
3579.41558	0.76581
3577.48702	0.77051
3575.55845	0.77568
3573.62989	0.78059
3571.70132	0.78564
3569.77276	0.79041
3567.84419	0.79512
3565.91563	0.80098
3563.98707	0.80636
3562.05850	0.81156
3560.12994	0.81694
3558.20137	0.82196
3556.27281	0.82730
3554.34424	0.83363
3552.41568	0.84055
3550.48711	0.84653
3548.55855	0.85150
3546.62999	0.85731
3544.70142	0.86396
3542.77286	0.86923
3540.84429	0.87304
3538.91573	0.87739
3536.98716	0.88310
3535.05860	0.88842
3533.13003	0.89258
3531.20147	0.89693
3529.27291	0.90221
3527.34434	0.90771
3525.41578	0.91182
3523.48721	0.91527
3521.55865	0.92047
3519.63008	0.92768
3517.70152	0.93596
3515.77295	0.94331
3513.84439	0.94893
3511.91583	0.95415
3509.98726	0.95968
3508.05870	0.96565
3506.13013	0.97208
3504.20157	0.97955
3502.27300	0.98827
3500.34444	0.99748
3498.41587	1.00665
3496.48731	1.01528
3494.55875	1.02356
3492.63018	1.03153
3490.70162	1.03818
3488.77305	1.04279
3486.84449	1.04550
3484.91592	1.04735
3482.98736	1.05107
3481.05879	1.05755
3479.13023	1.06279
3477.20167	1.06549
3475.27310	1.06812
3473.34454	1.07174
3471.41597	1.07612
3469.48741	1.08060
3467.55884	1.08396
3465.63028	1.08618
3463.70171	1.08906
3461.77315	1.09320
3459.84459	1.09690
3457.91602	1.09952
3455.98746	1.10254
3454.05889	1.10629
3452.13033	1.10980
3450.20176	1.11280
3448.27320	1.11528
3446.34464	1.11759
3444.41607	1.11920
3442.48751	1.11885
3440.55894	1.11890
3438.63038	1.12261
3436.70181	1.12778
3434.77325	1.13005
3432.84468	1.12990
3430.91612	1.12978
3428.98756	1.12976
3427.05899	1.12945
3425.13043	1.12901
3423.20186	1.12938
3421.27330	1.13130
3419.34473	1.13350
3417.41617	1.13561
3415.48760	1.13878
3413.55904	1.14166
3411.63048	1.14281
3409.70191	1.14390
3407.77335	1.14514
3405.84478	1.14445
3403.91622	1.14291
3401.98765	1.14350
3400.05909	1.14565
3398.13052	1.14694
3396.20196	1.14723
3394.27340	1.14833
3392.34483	1.15086
3390.41627	1.15383
3388.48770	1.15715
3386.55914	1.15997
3384.63057	1.16204
3382.70201	1.16574
3380.77344	1.17001
3378.84488	1.17160
3376.91632	1.17085
3374.98775	1.16954
3373.05919	1.17065
3371.13062	1.17635
3369.20206	1.18243
3367.27349	1.18537
3365.34493	1.18756
3363.41636	1.18884
3361.48780	1.18766
3359.55924	1.18665
3357.63067	1.18757
3355.70211	1.18934
3353.77354	1.19145
3351.84498	1.19378
3349.91641	1.19647
3347.98785	1.19943
3346.05928	1.20049
3344.13072	1.20043
3342.20216	1.20306
3340.27359	1.20664
3338.34503	1.20867
3336.41646	1.21215
3334.48790	1.21866
3332.55933	1.22677
3330.63077	1.23465
3328.70220	1.23968
3326.77364	1.24173
3324.84508	1.24288
3322.91651	1.24406
3320.98795	1.24607
3319.05938	1.25022
3317.13082	1.25537
3315.20225	1.25832
3313.27369	1.26107
3311.34513	1.26809
3309.41656	1.27537
3307.48800	1.27765
3305.55943	1.27925
3303.63087	1.28360
3301.70230	1.28795
3299.77374	1.29097
3297.84517	1.29294
3295.91661	1.29240
3293.98805	1.29019
3292.05948	1.29032
3290.13092	1.29269
3288.20235	1.29431
3286.27379	1.29535
3284.34522	1.29528
3282.41666	1.29200
3280.48809	1.28655
3278.55953	1.28126
3276.63097	1.27800
3274.70240	1.27718
3272.77384	1.27479
3270.84527	1.26932
3268.91671	1.26452
3266.98814	1.26011
3265.05958	1.25405
3263.13101	1.24911
3261.20245	1.24679
3259.27389	1.24348
3257.34532	1.23700
3255.41676	1.22936
3253.48819	1.22163
3251.55963	1.21414
3249.63106	1.20778
3247.70250	1.20146
3245.77393	1.19422
3243.84537	1.18680
3241.91681	1.17982
3239.98824	1.17471
3238.05968	1.17183
3236.13111	1.16820
3234.20255	1.16312
3232.27398	1.15953
3230.34542	1.15786
3228.41685	1.15526
3226.48829	1.15099
3224.55973	1.14762
3222.63116	1.14473
3220.70260	1.13971
3218.77403	1.13415
3216.84547	1.13003
3214.91690	1.12650
3212.98834	1.12331
3211.05977	1.11946
3209.13121	1.11366
3207.20265	1.10780
3205.27408	1.10340
3203.34552	1.09952
3201.41695	1.09610
3199.48839	1.09276
3197.55982	1.08798
3195.63126	1.08236
3193.70269	1.07766
3191.77413	1.07352
3189.84557	1.06813
3187.91700	1.06182
3185.98844	1.05735
3184.05987	1.05483
3182.13131	1.05214
3180.20274	1.04892
3178.27418	1.04539
3176.34562	1.04177
3174.41705	1.03806
3172.48849	1.03368
3170.55992	1.02959
3168.63136	1.02673
3166.70279	1.02504
3164.77423	1.02339
3162.84566	1.01888
3160.91710	1.01231
3158.98854	1.00846
3157.05997	1.00775
3155.13141	1.00628
3153.20284	1.00283
3151.27428	1.00001
3149.34571	0.99905
3147.41715	0.99863
3145.48858	0.99753
3143.56002	0.99540
3141.63146	0.99317
3139.70289	0.99119
3137.77433	0.98865
3135.84576	0.98626
3133.91720	0.98509
3131.98863	0.98494
3130.06007	0.98479
3128.13150	0.98374
3126.20294	0.98241
3124.27438	0.98178
3122.34581	0.98162
3120.41725	0.98164
3118.48868	0.98201
3116.56012	0.98290
3114.63155	0.98363
3112.70299	0.98343
3110.77442	0.98320
3108.84586	0.98360
3106.91730	0.98396
3104.98873	0.98375
3103.06017	0.98330
3101.13160	0.98362
3099.20304	0.98425
3097.27447	0.98307
3095.34591	0.98054
3093.41734	0.97950
3091.48878	0.98014
3089.56022	0.98058
3087.63165	0.97988
3085.70309	0.97825
3083.77452	0.97672
3081.84596	0.97559
3079.91739	0.97422
3077.98883	0.97236
3076.06026	0.97020
3074.13170	0.96849
3072.20314	0.96685
3070.27457	0.96440
3068.34601	0.96162
3066.41744	0.95829
3064.48888	0.95476
3062.56031	0.95222
3060.63175	0.94947
3058.70318	0.94525
3056.77462	0.94102
3054.84606	0.93811
3052.91749	0.93599
3050.98893	0.93329
3049.06036	0.92885
3047.13180	0.92338
3045.20323	0.91913
3043.27467	0.91676
3041.34610	0.91456
3039.41754	0.91122
3037.48898	0.90741
3035.56041	0.90391
3033.63185	0.90007
3031.70328	0.89638
3029.77472	0.89421
3027.84615	0.89286
3025.91759	0.89163
3023.98903	0.89071
3022.06046	0.88931
3020.13190	0.88705
3018.20333	0.88412
3016.27477	0.88059
3014.34620	0.87761
3012.41764	0.87616
3010.48907	0.87554
3008.56051	0.87488
3006.63195	0.87400
3004.70338	0.87259
3002.77482	0.87112
3000.84625	0.87076
2998.91769	0.87126
2996.98912	0.87187
2995.06056	0.87291
2993.13199	0.87470
2991.20343	0.87735
2989.27487	0.88176
2987.34630	0.88807
2985.41774	0.89386
2983.48917	0.89828
2981.56061	0.90305
2979.63204	0.90835
2977.70348	0.91398
2975.77491	0.92116
2973.84635	0.92935
2971.91779	0.93723
2969.98922	0.94546
2968.06066	0.95395
2966.13209	0.96137
2964.20353	0.96739
2962.27496	0.97151
2960.34640	0.97255
2958.41783	0.97031
2956.48927	0.96604
2954.56071	0.96111
2952.63214	0.95612
2950.70358	0.95175
2948.77501	0.94840
2946.84645	0.94683
2944.91788	0.94895
2942.98932	0.95509
2941.06075	0.96316
2939.13219	0.97163
2937.20363	0.98118
2935.27506	0.99211
2933.34650	1.00210
2931.41793	1.00986
2929.48937	1.01765
2927.56080	1.02561
2925.63224	1.03090
2923.70367	1.03371
2921.77511	1.03592
2919.84655	1.03580
2917.91798	1.02982
2915.98942	1.01669
2914.06085	0.99740
2912.13229	0.97537
2910.20372	0.95586
2908.27516	0.94101
2906.34659	0.92944
2904.41803	0.92059
2902.48947	0.91440
2900.56090	0.90947
2898.63234	0.90534
2896.70377	0.90214
2894.77521	0.89838
2892.84664	0.89389
2890.91808	0.89025
2888.98952	0.88727
2887.06095	0.88418
2885.13239	0.88171
2883.20382	0.88045
2881.27526	0.88028
2879.34669	0.88108
2877.41813	0.88205
2875.48956	0.88222
2873.56100	0.88161
2871.63244	0.87947
2869.70387	0.87462
2867.77531	0.86827
2865.84674	0.86309
2863.91818	0.86028
2861.98961	0.85970
2860.06105	0.86141
2858.13248	0.86542
2856.20392	0.87102
2854.27536	0.87790
2852.34679	0.88492
2850.41823	0.88716
2848.48966	0.87786
2846.56110	0.85718
2844.63253	0.83358
2842.70397	0.81370
2840.77540	0.79884
2838.84684	0.78813
2836.91828	0.78041
2834.98971	0.77487
2833.06115	0.77027
2831.13258	0.76543
2829.20402	0.76032
2827.27545	0.75549
2825.34689	0.75154
2823.41832	0.74863
2821.48976	0.74661
2819.56120	0.74461
2817.63263	0.74181
2815.70407	0.73896
2813.77550	0.73676
2811.84694	0.73445
2809.91837	0.73187
2807.98981	0.72968
2806.06124	0.72740
2804.13268	0.72465
2802.20412	0.72204
2800.27555	0.71984
2798.34699	0.71805
2796.41842	0.71632
2794.48986	0.71402
2792.56129	0.71139
2790.63273	0.70935
2788.70416	0.70785
2786.77560	0.70593
2784.84704	0.70357
2782.91847	0.70119
2780.98991	0.69869
2779.06134	0.69626
2777.13278	0.69430
2775.20421	0.69267
2773.27565	0.69125
2771.34708	0.69003
2769.41852	0.68872
2767.48996	0.68700
2765.56139	0.68489
2763.63283	0.68267
2761.70426	0.68051
2759.77570	0.67846
2757.84713	0.67671
2755.91857	0.67546
2753.99001	0.67459
2752.06144	0.67366
2750.13288	0.67244
2748.20431	0.67100
2746.27575	0.66910
2744.34718	0.66695
2742.41862	0.66514
2740.49005	0.66367
2738.56149	0.66234
2736.63293	0.66118
2734.70436	0.66010
2732.77580	0.65884
2730.84723	0.65761
2728.91867	0.65683
2726.99010	0.65618
2725.06154	0.65540
2723.13297	0.65473
2721.20441	0.65400
2719.27585	0.65293
2717.34728	0.65175
2715.41872	0.65051
2713.49015	0.64900
2711.56159	0.64770
2709.63302	0.64709
2707.70446	0.64661
2705.77589	0.64565
2703.84733	0.64460
2701.91877	0.64361
2699.99020	0.64211
2698.06164	0.64042
2696.13307	0.63923
2694.20451	0.63818
2692.27594	0.63669
2690.34738	0.63478
2688.41881	0.63295
2686.49025	0.63148
2684.56169	0.62980
2682.63312	0.62774
2680.70456	0.62601
2678.77599	0.62470
2676.84743	0.62337
2674.91886	0.62224
2672.99030	0.62155
2671.06173	0.62092
2669.13317	0.61990
2667.20461	0.61847
2665.27604	0.61710
2663.34748	0.61593
2661.41891	0.61489
2659.49035	0.61410
2657.56178	0.61354
2655.63322	0.61317
2653.70465	0.61272
2651.77609	0.61171
2649.84753	0.61029
2647.91896	0.60912
2645.99040	0.60858
2644.06183	0.60834
2642.13327	0.60774
2640.20470	0.60692
2638.27614	0.60612
2636.34757	0.60492
2634.41901	0.60343
2632.49045	0.60225
2630.56188	0.60153
2628.63332	0.60113
2626.70475	0.60057
2624.77619	0.59947
2622.84762	0.59820
2620.91906	0.59730
2618.99049	0.59676
2617.06193	0.59615
2615.13337	0.59519
2613.20480	0.59405
2611.27624	0.59295
2609.34767	0.59198
2607.41911	0.59102
2605.49054	0.58993
2603.56198	0.58884
2601.63342	0.58781
2599.70485	0.58664
2597.77629	0.58534
2595.84772	0.58410
2593.91916	0.58302
2591.99059	0.58201
2590.06203	0.58106
2588.13346	0.58017
2586.20490	0.57919
2584.27634	0.57803
2582.34777	0.57698
2580.41921	0.57623
2578.49064	0.57566
2576.56208	0.57497
2574.63351	0.57396
2572.70495	0.57280
2570.77638	0.57185
2568.84782	0.57118
2566.91926	0.57049
2564.99069	0.56958
2563.06213	0.56859
2561.13356	0.56759
2559.20500	0.56643
2557.27643	0.56519
2555.34787	0.56415
2553.41930	0.56317
2551.49074	0.56198
2549.56218	0.56063
2547.63361	0.55953
2545.70505	0.55890
2543.77648	0.55812
2541.84792	0.55670
2539.91935	0.55493
2537.99079	0.55331
2536.06222	0.55197
2534.13366	0.55089
2532.20510	0.55001
2530.27653	0.54918
2528.34797	0.54837
2526.41940	0.54763
2524.49084	0.54686
2522.56227	0.54602
2520.63371	0.54515
2518.70514	0.54435
2516.77658	0.54368
2514.84802	0.54330
2512.91945	0.54314
2510.99089	0.54265
2509.06232	0.54169
2507.13376	0.54083
2505.20519	0.54035
2503.27663	0.54002
2501.34806	0.53944
2499.41950	0.53864
2497.49094	0.53782
2495.56237	0.53698
2493.63381	0.53619
2491.70524	0.53563
2489.77668	0.53522
2487.84811	0.53475
2485.91955	0.53405
2483.99098	0.53295
2482.06242	0.53164
2480.13386	0.53036
2478.20529	0.52921
2476.27673	0.52812
2474.34816	0.52686
2472.41960	0.52555
2470.49103	0.52423
2468.56247	0.52263
2466.63391	0.52102
2464.70534	0.51979
2462.77678	0.51848
2460.84821	0.51668
2458.91965	0.51513
2456.99108	0.51414
2455.06252	0.51308
2453.13395	0.51185
2451.20539	0.51073
2449.27683	0.50950
2447.34826	0.50829
2445.41970	0.50728
2443.49113	0.50620
2441.56257	0.50506
2439.63400	0.50426
2437.70544	0.50395
2435.77687	0.50390
2433.84831	0.50381
2431.91975	0.50347
2429.99118	0.50287
2428.06262	0.50232
2426.13405	0.50200
2424.20549	0.50165
2422.27692	0.50112
2420.34836	0.50054
2418.41979	0.50008
2416.49123	0.49955
2414.56267	0.49873
2412.63410	0.49773
2410.70554	0.49687
2408.77697	0.49636
2406.84841	0.49588
2404.91984	0.49492
2402.99128	0.49372
2401.06271	0.49269
2399.13415	0.49178
2397.20559	0.49101
2395.27702	0.49024
2393.34846	0.48925
2391.41989	0.48822
2389.49133	0.48729
2387.56276	0.48652
2385.63420	0.48611
2383.70563	0.48630
2381.77707	0.48725
2379.84851	0.48883
2377.91994	0.49059
2375.99138	0.49252
2374.06281	0.49518
2372.13425	0.49825
2370.20568	0.50101
2368.27712	0.50383
2366.34855	0.50686
2364.41999	0.50910
2362.49143	0.51042
2360.56286	0.51166
2358.63430	0.51152
2356.70573	0.50765
2354.77717	0.50191
2352.84860	0.49633
2350.92004	0.49116
2348.99147	0.48775
2347.06291	0.48726
2345.13435	0.49029
2343.20578	0.49464
2341.27722	0.49607
2339.34865	0.49517
2337.42009	0.49438
2335.49152	0.49325
2333.56296	0.49120
2331.63440	0.48969
2329.70583	0.48920
2327.77727	0.48786
2325.84870	0.48554
2323.92014	0.48357
2321.99157	0.48187
2320.06301	0.48016
2318.13444	0.47851
2316.20588	0.47665
2314.27732	0.47457
2312.34875	0.47246
2310.42019	0.47035
2308.49162	0.46804
2306.56306	0.46566
2304.63449	0.46362
2302.70593	0.46194
2300.77736	0.46028
2298.84880	0.45852
2296.92024	0.45681
2294.99167	0.45505
2293.06311	0.45330
2291.13454	0.45164
2289.20598	0.45001
2287.27741	0.44849
2285.34885	0.44716
2283.42028	0.44603
2281.49172	0.44531
2279.56316	0.44498
2277.63459	0.44460
2275.70603	0.44399
2273.77746	0.44325
2271.84890	0.44252
2269.92033	0.44183
2267.99177	0.44117
2266.06320	0.44053
2264.13464	0.43992
2262.20608	0.43925
2260.27751	0.43853
2258.34895	0.43785
2256.42038	0.43718
2254.49182	0.43641
2252.56325	0.43558
2250.63469	0.43486
2248.70612	0.43430
2246.77756	0.43396
2244.84900	0.43383
2242.92043	0.43359
2240.99187	0.43314
2239.06330	0.43282
2237.13474	0.43287
2235.20617	0.43307
2233.27761	0.43313
2231.34904	0.43305
2229.42048	0.43287
2227.49192	0.43253
2225.56335	0.43209
2223.63479	0.43165
2221.70622	0.43110
2219.77766	0.43018
2217.84909	0.42892
2215.92053	0.42761
2213.99196	0.42633
2212.06340	0.42524
2210.13484	0.42430
2208.20627	0.42307
2206.27771	0.42153
2204.34914	0.42021
2202.42058	0.41932
2200.49201	0.41862
2198.56345	0.41805
2196.63488	0.41758
2194.70632	0.41691
2192.77776	0.41597
2190.84919	0.41513
2188.92063	0.41457
2186.99206	0.41394
2185.06350	0.41318
2183.13493	0.41268
2181.20637	0.41247
2179.27781	0.41215
2177.34924	0.41155
2175.42068	0.41090
2173.49211	0.41044
2171.56355	0.41011
2169.63498	0.40987
2167.70642	0.40975
2165.77785	0.40953
2163.84929	0.40917
2161.92073	0.40894
2159.99216	0.40877
2158.06360	0.40847
2156.13503	0.40807
2154.20647	0.40777
2152.27790	0.40760
2150.34934	0.40749
2148.42077	0.40737
2146.49221	0.40717
2144.56365	0.40693
2142.63508	0.40675
2140.70652	0.40662
2138.77795	0.40641
2136.84939	0.40606
2134.92082	0.40563
2132.99226	0.40516
2131.06369	0.40447
2129.13513	0.40357
2127.20657	0.40275
2125.27800	0.40213
2123.34944	0.40144
2121.42087	0.40046
2119.49231	0.39943
2117.56374	0.39854
2115.63518	0.39755
2113.70661	0.39634
2111.77805	0.39509
2109.84949	0.39391
2107.92092	0.39276
2105.99236	0.39157
2104.06379	0.39036
2102.13523	0.38924
2100.20666	0.38838
2098.27810	0.38763
2096.34953	0.38671
2094.42097	0.38578
2092.49241	0.38510
2090.56384	0.38462
2088.63528	0.38420
2086.70671	0.38379
2084.77815	0.38341
2082.84958	0.38306
2080.92102	0.38265
2078.99245	0.38211
2077.06389	0.38161
2075.13533	0.38120
2073.20676	0.38069
2071.27820	0.37991
2069.34963	0.37918
2067.42107	0.37882
2065.49250	0.37854
2063.56394	0.37805
2061.63537	0.37755
2059.70681	0.37708
2057.77825	0.37649
2055.84968	0.37592
2053.92112	0.37559
2051.99255	0.37531
2050.06399	0.37487
2048.13542	0.37435
2046.20686	0.37387
2044.27830	0.37332
2042.34973	0.37270
2040.42117	0.37207
2038.49260	0.37125
2036.56404	0.37025
2034.63547	0.36919
2032.70691	0.36804
2030.77834	0.36673
2028.84978	0.36532
2026.92122	0.36377
2024.99265	0.36210
2023.06409	0.36053
2021.13552	0.35910
2019.20696	0.35773
2017.27839	0.35647
2015.34983	0.35529
2013.42126	0.35411
2011.49270	0.35303
2009.56414	0.35214
2007.63557	0.35129
2005.70701	0.35037
2003.77844	0.34955
2001.84988	0.34887
1999.92131	0.34826
1997.99275	0.34760
1996.06418	0.34676
1994.13562	0.34594
1992.20706	0.34530
1990.27849	0.34453
1988.34993	0.34351
1986.42136	0.34260
1984.49280	0.34201
1982.56423	0.34151
1980.63567	0.34094
1978.70710	0.34041
1976.77854	0.34002
1974.84998	0.33965
1972.92141	0.33925
1970.99285	0.33875
1969.06428	0.33829
1967.13572	0.33783
1965.20715	0.33715
1963.27859	0.33632
1961.35002	0.33549
1959.42146	0.33456
1957.49290	0.33350
1955.56433	0.33253
1953.63577	0.33163
1951.70720	0.33068
1949.77864	0.32970
1947.85007	0.32882
1945.92151	0.32813
1943.99294	0.32740
1942.06438	0.32628
1940.13582	0.32491
1938.20725	0.32356
1936.27869	0.32233
1934.35012	0.32121
1932.42156	0.32014
1930.49299	0.31908
1928.56443	0.31806
1926.63586	0.31712
1924.70730	0.31645
1922.77874	0.31599
1920.85017	0.31531
1918.92161	0.31439
1916.99304	0.31340
1915.06448	0.31248
1913.13591	0.31187
1911.20735	0.31160
1909.27878	0.31136
1907.35022	0.31104
1905.42166	0.31074
1903.49309	0.31043
1901.56453	0.31005
1899.63596	0.30983
1897.70740	0.30989
1895.77883	0.31004
1893.85027	0.30994
1891.92171	0.30963
1889.99314	0.30936
1888.06458	0.30896
1886.13601	0.30823
1884.20745	0.30723
1882.27888	0.30606
1880.35032	0.30480
1878.42175	0.30346
1876.49319	0.30209
1874.56463	0.30081
1872.63606	0.29977
1870.70750	0.29912
1868.77893	0.29874
1866.85037	0.29791
1864.92180	0.29670
1862.99324	0.29565
1861.06467	0.29494
1859.13611	0.29459
1857.20755	0.29433
1855.27898	0.29387
1853.35042	0.29329
1851.42185	0.29285
1849.49329	0.29256
1847.56472	0.29222
1845.63616	0.29197
1843.70759	0.29157
1841.77903	0.29050
1839.85047	0.28934
1837.92190	0.28844
1835.99334	0.28756
1834.06477	0.28663
1832.13621	0.28616
1830.20764	0.28641
1828.27908	0.28652
1826.35051	0.28604
1824.42195	0.28554
1822.49339	0.28513
1820.56482	0.28477
1818.63626	0.28464
1816.70769	0.28466
1814.77913	0.28475
1812.85056	0.28501
1810.92200	0.28527
1808.99343	0.28516
1807.06487	0.28477
1805.13631	0.28448
1803.20774	0.28445
1801.27918	0.28449
1799.35061	0.28419
1797.42205	0.28360
1795.49348	0.28314
1793.56492	0.28305
1791.63635	0.28315
1789.70779	0.28259
1787.77923	0.28186
1785.85066	0.28161
1783.92210	0.28185
1781.99353	0.28232
1780.06497	0.28271
1778.13640	0.28288
1776.20784	0.28307
1774.27927	0.28393
1772.35071	0.28554
1770.42215	0.28652
1768.49358	0.28699
1766.56502	0.28770
1764.63645	0.28883
1762.70789	0.29109
1760.77932	0.29429
1758.85076	0.29726
1756.92220	0.30109
1754.99363	0.30549
1753.06507	0.31001
1751.13650	0.31702
1749.20794	0.32660
1747.27937	0.33470
1745.35081	0.34087
1743.42224	0.34630
1741.49368	0.35136
1739.56512	0.35587
1737.63655	0.35873
1735.70799	0.36089
1733.77942	0.36501
1731.85086	0.36866
1729.92229	0.37087
1727.99373	0.37353
1726.06516	0.37696
1724.13660	0.38186
1722.20804	0.38731
1720.27947	0.39274
1718.35091	0.40171
1716.42234	0.41684
1714.49378	0.42980
1712.56521	0.44049
1710.63665	0.45288
1708.70808	0.46796
1706.77952	0.48966
1704.85096	0.51839
1702.92239	0.54539
1700.99383	0.58263
1699.06526	0.63900
1697.13670	0.68985
1695.20813	0.73893
1693.27957	0.77622
1691.35100	0.80623
1689.42244	0.84205
1687.49388	0.87485
1685.56531	0.90802
1683.63675	0.96111
1681.70818	1.00100
1679.77962	1.02361
1677.85105	1.04473
1675.92249	1.07097
1673.99392	1.10045
1672.06536	1.12466
1670.13680	1.15103
1668.20823	1.17872
1666.27967	1.19457
1664.35110	1.20830
1662.42254	1.22690
1660.49397	1.24314
1658.56541	1.25444
1656.63684	1.26333
1654.70828	1.27357
1652.77972	1.28409
1650.85115	1.28553
1648.92259	1.28585
1646.99402	1.28748
1645.06546	1.28690
1643.13689	1.28389
1641.20833	1.28178
1639.27976	1.28058
1637.35120	1.28044
1635.42264	1.27767
1633.49407	1.27176
1631.56551	1.26806
1629.63694	1.26369
1627.70838	1.25632
1625.77981	1.24612
1623.85125	1.23144
1621.92269	1.21301
1619.99412	1.19718
1618.06556	1.17578
1616.13699	1.13755
1614.20843	1.10303
1612.27986	1.07543
1610.35130	1.04596
1608.42273	1.01564
1606.49417	0.98925
1604.56561	0.96800
1602.63704	0.95043
1600.70848	0.93699
1598.77991	0.92789
1596.85135	0.92199
1594.92278	0.91813
1592.99422	0.91581
1591.06565	0.91536
1589.13709	0.91730
1587.20853	0.92203
1585.27996	0.92949
1583.35140	0.93933
1581.42283	0.95030
1579.49427	0.96103
1577.56570	0.97467
1575.63714	0.99467
1573.70857	1.00970
1571.78001	1.02120
1569.85145	1.03946
1567.92288	1.05908
1565.99432	1.07305
1564.06575	1.08642
1562.13719	1.09693
1560.20862	1.10819
1558.28006	1.13677
1556.35149	1.15717
1554.42293	1.16613
1552.49437	1.17177
1550.56580	1.17582
1548.63724	1.17832
1546.70867	1.17887
1544.78011	1.17873
1542.85154	1.17881
1540.92298	1.17516
1538.99441	1.16268
1537.06585	1.15406
1535.13729	1.14776
1533.20872	1.14028
1531.28016	1.13251
1529.35159	1.12572
1527.42303	1.11873
1525.49446	1.11205
1523.56590	1.10735
1521.63733	1.10451
1519.70877	1.10498
1517.78021	1.10259
1515.85164	1.09247
1513.92308	1.07796
1511.99451	1.06159
1510.06595	1.04442
1508.13738	1.01699
1506.20882	0.96981
1504.28025	0.94300
1502.35169	0.92546
1500.42313	0.90472
1498.49456	0.87745
1496.56600	0.84528
1494.63743	0.81999
1492.70887	0.80239
1490.78030	0.78260
1488.85174	0.75681
1486.92317	0.73615
1484.99461	0.72262
1483.06605	0.71264
1481.13748	0.70529
1479.20892	0.70180
1477.28035	0.70311
1475.35179	0.70994
1473.42322	0.72504
1471.49466	0.74304
1469.56610	0.75331
1467.63753	0.76004
1465.70897	0.76849
1463.78040	0.77776
1461.85184	0.78350
1459.92327	0.78775
1457.99471	0.79662
1456.06614	0.80783
1454.13758	0.81077
1452.20902	0.81060
1450.28045	0.81015
1448.35189	0.80911
1446.42332	0.80657
1444.49476	0.80297
1442.56619	0.79871
1440.63763	0.79389
1438.70906	0.78810
1436.78050	0.77954
1434.85194	0.76961
1432.92337	0.76115
1430.99481	0.75305
1429.06624	0.74578
1427.13768	0.74120
1425.20911	0.73935
1423.28055	0.73956
1421.35198	0.74090
1419.42342	0.74391
1417.49486	0.74743
1415.56629	0.74848
1413.63773	0.74818
1411.70916	0.74768
1409.78060	0.74739
1407.85203	0.74753
1405.92347	0.74857
1403.99490	0.75037
1402.06634	0.75188
1400.13778	0.75299
1398.20921	0.75362
1396.28065	0.75353
1394.35208	0.75294
1392.42352	0.75273
1390.49495	0.75412
1388.56639	0.75896
1386.63782	0.76819
1384.70926	0.77856
1382.78070	0.78825
1380.85213	0.79606
1378.92357	0.79919
1376.99500	0.79686
1375.06644	0.78872
1373.13787	0.77543
1371.20931	0.76084
1369.28074	0.74425
1367.35218	0.72535
1365.42362	0.70749
1363.49505	0.69025
1361.56649	0.67423
1359.63792	0.66300
1357.70936	0.65563
1355.78079	0.65024
1353.85223	0.64628
1351.92366	0.64373
1349.99510	0.64234
1348.06654	0.64165
1346.13797	0.64140
1344.20941	0.64179
1342.28084	0.64308
1340.35228	0.64572
1338.42371	0.64937
1336.49515	0.65370
1334.56659	0.65977
1332.63802	0.66804
1330.70946	0.67758
1328.78089	0.68645
1326.85233	0.69312
1324.92376	0.69756
1322.99520	0.70078
1321.06663	0.70394
1319.13807	0.70727
1317.20951	0.71005
1315.28094	0.71199
1313.35238	0.71349
1311.42381	0.71439
1309.49525	0.71446
1307.56668	0.71356
1305.63812	0.71149
1303.70955	0.70873
1301.78099	0.70573
1299.85243	0.70221
1297.92386	0.69786
1295.99530	0.69307
1294.06673	0.68883
1292.13817	0.68597
1290.20960	0.68481
1288.28104	0.68480
1286.35247	0.68513
1284.42391	0.68557
1282.49535	0.68603
1280.56678	0.68638
1278.63822	0.68708
1276.70965	0.68869
1274.78109	0.69111
1272.85252	0.69445
1270.92396	0.69879
1268.99539	0.70380
1267.06683	0.70908
1265.13827	0.71372
1263.20970	0.71666
1261.28114	0.71796
1259.35257	0.71846
1257.42401	0.71884
1255.49544	0.71958
1253.56688	0.72071
1251.63831	0.72184
1249.70975	0.72285
1247.78119	0.72379
1245.85262	0.72454
1243.92406	0.72493
1241.99549	0.72504
1240.06693	0.72488
1238.13836	0.72391
1236.20980	0.72174
1234.28123	0.71847
1232.35267	0.71426
1230.42411	0.70926
1228.49554	0.70345
1226.56698	0.69669
1224.63841	0.68905
1222.70985	0.68081
1220.78128	0.67259
1218.85272	0.66498
1216.92415	0.65834
1214.99559	0.65341
1213.06703	0.65104
1211.13846	0.65107
1209.20990	0.65226
1207.28133	0.65277
1205.35277	0.65097
1203.42420	0.64619
1201.49564	0.63919
1199.56708	0.63136
1197.63851	0.62321
1195.70995	0.61493
1193.78138	0.60745
1191.85282	0.60171
1189.92425	0.59769
1187.99569	0.59486
1186.06712	0.59298
1184.13856	0.59214
1182.21000	0.59251
1180.28143	0.59466
1178.35287	0.59924
1176.42430	0.60566
1174.49574	0.61271
1172.56717	0.62010
1170.63861	0.62842
1168.71004	0.63847
1166.78148	0.65065
1164.85292	0.66418
1162.92435	0.67698
1160.99579	0.68678
1159.06722	0.69210
1157.13866	0.69218
1155.21009	0.68681
1153.28153	0.67687
1151.35296	0.66458
1149.42440	0.65202
1147.49584	0.64012
1145.56727	0.62978
1143.63871	0.62243
1141.71014	0.61888
1139.78158	0.61884
1137.85301	0.62162
1135.92445	0.62669
1133.99588	0.63406
1132.06732	0.64400
1130.13876	0.65628
1128.21019	0.67012
1126.28163	0.68474
1124.35306	0.69927
1122.42450	0.71281
1120.49593	0.72473
1118.56737	0.73419
1116.63880	0.74002
1114.71024	0.74151
1112.78168	0.73902
1110.85311	0.73407
1108.92455	0.72854
1106.99598	0.72348
1105.06742	0.71916
1103.13885	0.71544
1101.21029	0.71251
1099.28172	0.71143
1097.35316	0.71286
1095.42460	0.71686
1093.49603	0.72354
1091.56747	0.73247
1089.63890	0.74330
1087.71034	0.75658
1085.78177	0.77239
1083.85321	0.78914
1081.92464	0.80432
1079.99608	0.81653
1078.06752	0.82504
1076.13895	0.82853
1074.21039	0.82662
1072.28182	0.82027
1070.35326	0.81140
1068.42469	0.80204
1066.49613	0.79258
1064.56756	0.78275
1062.63900	0.77275
1060.71044	0.76256
1058.78187	0.75233
1056.85331	0.74257
1054.92474	0.73373
1052.99618	0.72639
1051.06761	0.72060
1049.13905	0.71611
1047.21049	0.71413
1045.28192	0.71594
1043.35336	0.72066
1041.42479	0.72640
1039.49623	0.73161
1037.56766	0.73544
1035.63910	0.73778
1033.71053	0.73866
1031.78197	0.73762
1029.85341	0.73404
1027.92484	0.72780
1025.99628	0.71945
1024.06771	0.70993
1022.13915	0.70063
1020.21058	0.69274
1018.28202	0.68608
1016.35345	0.67893
1014.42489	0.66957
1012.49633	0.65753
1010.56776	0.64350
1008.63920	0.62816
1006.71063	0.61221
1004.78207	0.59679
1002.85350	0.58273
1000.92494	0.57040
998.99637	0.56025
997.06781	0.55228
995.13925	0.54577
993.21068	0.53995
991.28212	0.53443
989.35355	0.52887
987.42499	0.52312
985.49642	0.51785
983.56786	0.51405
981.63929	0.51186
979.71073	0.51081
977.78217	0.51034
975.85360	0.50958
973.92504	0.50774
971.99647	0.50447
970.06791	0.49971
968.13934	0.49391
966.21078	0.48811
964.28221	0.48361
962.35365	0.48190
960.42509	0.48419
958.49652	0.49016
956.56796	0.49696
954.63939	0.50053
952.71083	0.49879
950.78226	0.49273
948.85370	0.48467
946.92513	0.47677
944.99657	0.47027
943.06801	0.46520
941.13944	0.46113
939.21088	0.45786
937.28231	0.45528
935.35375	0.45335
933.42518	0.45193
931.49662	0.45080
929.56805	0.45016
927.63949	0.45013
925.71093	0.45045
923.78236	0.45091
921.85380	0.45157
919.92523	0.45207
917.99667	0.45184
916.06810	0.45124
914.13954	0.45125
912.21098	0.45217
910.28241	0.45374
908.35385	0.45597
906.42528	0.45901
904.49672	0.46277
902.56815	0.46655
900.63959	0.46948
898.71102	0.47125
896.78246	0.47207
894.85390	0.47200
892.92533	0.47093
890.99677	0.46927
889.06820	0.46750
887.13964	0.46568
885.21107	0.46403
883.28251	0.46311
881.35394	0.46283
879.42538	0.46262
877.49682	0.46237
875.56825	0.46243
873.63969	0.46274
871.71112	0.46281
869.78256	0.46233
867.85399	0.46151
865.92543	0.46079
863.99686	0.46053
862.06830	0.46066
860.13974	0.46098
858.21117	0.46147
856.28261	0.46200
854.35404	0.46243
852.42548	0.46311
850.49691	0.46407
848.56835	0.46476
846.63978	0.46526
844.71122	0.46588
842.78266	0.46646
840.85409	0.46700
838.92553	0.46785
836.99696	0.46907
835.06840	0.47061
833.13983	0.47248
831.21127	0.47443
829.28270	0.47629
827.35414	0.47812
825.42558	0.47967
823.49701	0.48087
821.56845	0.48187
819.63988	0.48286
817.71132	0.48415
815.78275	0.48578
813.85419	0.48738
811.92562	0.48870
809.99706	0.48969
808.06850	0.49009
806.13993	0.48972
804.21137	0.48905
802.28280	0.48851
800.35424	0.48817
798.42567	0.48774
796.49711	0.48670
794.56854	0.48550
792.63998	0.48486
790.71142	0.48450
788.78285	0.48424
786.85429	0.48431
784.92572	0.48470
782.99716	0.48529
781.06859	0.48622
779.14003	0.48741
777.21147	0.48840
775.28290	0.48936
773.35434	0.49075
771.42577	0.49231
769.49721	0.49376
767.56864	0.49506
765.64008	0.49633
763.71151	0.49798
761.78295	0.50004
759.85439	0.50195
757.92582	0.50351
755.99726	0.50510
754.06869	0.50678
752.14013	0.50823
750.21156	0.50980
748.28300	0.51165
746.35443	0.51293
744.42587	0.51335
742.49731	0.51368
740.56874	0.51404
738.64018	0.51390
736.71161	0.51342
734.78305	0.51326
732.85448	0.51377
730.92592	0.51486
728.99735	0.51607
727.06879	0.51726
725.14023	0.51887
723.21166	0.52143
721.28310	0.52468
719.35453	0.52722
717.42597	0.52828
715.49740	0.52886
713.56884	0.53005
711.64027	0.53203
709.71171	0.53433
707.78315	0.53670
705.85458	0.53888
703.92602	0.54057
701.99745	0.54175
700.06889	0.54210
698.14032	0.54124
696.21176	0.53993
694.28319	0.53853
692.35463	0.53669
690.42607	0.53503
688.49750	0.53427
686.56894	0.53387
684.64037	0.53337
682.71181	0.53302
680.78324	0.53267
678.85468	0.53201
676.92611	0.53109
674.99755	0.53035
673.06899	0.53046
671.14042	0.53147
669.21186	0.53292
667.28329	0.53327
665.35473	0.53305
663.42616	0.53375
661.49760	0.53485
659.56903	0.53544
657.64047	0.53579
655.71191	0.53662
653.78334	0.53754
651.85478	0.53761
649.92621	0.53699
647.99765	0.53656
646.06908	0.53687
644.14052	0.53762
642.21195	0.53870
640.28339	0.54023
638.35483	0.54093
636.42626	0.53961
634.49770	0.53727
632.56913	0.53577
630.64057	0.53513
628.71200	0.53440
626.78344	0.53420
624.85488	0.53527
622.92631	0.53656
620.99775	0.53717
619.06918	0.53727
617.14062	0.53769
615.21205	0.53872
613.28349	0.53943
611.35492	0.53980
609.42636	0.54051
607.49780	0.54166
605.56923	0.54310
603.64067	0.54453
601.71210	0.54583
599.78354	0.54713
