3997.91406	0.56429
3995.98550	0.56364
3994.05693	0.56344
3992.12837	0.56377
3990.19980	0.56349
3988.27124	0.56279
3986.34268	0.56279
3984.41411	0.56307
3982.48555	0.56241
3980.55698	0.56098
3978.62842	0.56003
3976.69985	0.56026
3974.77129	0.56133
3972.84272	0.56226
3970.91416	0.56197
3968.98560	0.56066
3967.05703	0.55974
3965.12847	0.55957
3963.19990	0.55922
3961.27134	0.55856
3959.34277	0.55875
3957.41421	0.55966
3955.48564	0.55976
3953.55708	0.55922
3951.62852	0.55911
3949.69995	0.55866
3947.77139	0.55730
3945.84282	0.55674
3943.91426	0.55705
3941.98569	0.55676
3940.05713	0.55632
3938.12856	0.55645
3936.20000	0.55715
3934.27144	0.55800
3932.34287	0.55795
3930.41431	0.55723
3928.48574	0.55715
3926.55718	0.55721
3924.62861	0.55628
3922.70005	0.55519
3920.77148	0.55534
3918.84292	0.55548
3916.91436	0.55371
3914.98579	0.55202
3913.05723	0.55201
3911.12866	0.55214
3909.20010	0.55260
3907.27153	0.55450
3905.34297	0.55599
3903.41440	0.55456
3901.48584	0.55159
3899.55728	0.54859
3897.62871	0.54710
3895.70015	0.54864
3893.77158	0.55118
3891.84302	0.55056
3889.91445	0.54885
3887.98589	0.54937
3886.05733	0.54863
3884.12876	0.54646
3882.20020	0.54593
3880.27163	0.54509
3878.34307	0.54486
3876.41450	0.54609
3874.48594	0.54640
3872.55737	0.54563
3870.62881	0.54428
3868.70025	0.54316
3866.77168	0.54428
3864.84312	0.54496
3862.91455	0.54335
3860.98599	0.54298
3859.05742	0.54494
3857.12886	0.54794
3855.20029	0.54943
3853.27173	0.54446
3851.34317	0.53989
3849.41460	0.54012
3847.48604	0.54207
3845.55747	0.54407
3843.62891	0.54466
3841.70034	0.54423
3839.77178	0.54364
3837.84321	0.54212
3835.91465	0.54133
3833.98609	0.54178
3832.05752	0.54153
3830.12896	0.54066
3828.20039	0.54073
3826.27183	0.54207
3824.34326	0.54423
3822.41470	0.54507
3820.48613	0.54296
3818.55757	0.54202
3816.62901	0.54098
3814.70044	0.53889
3812.77188	0.53874
3810.84331	0.53988
3808.91475	0.54048
3806.98618	0.53937
3805.05762	0.53899
3803.12905	0.53925
3801.20049	0.53700
3799.27193	0.53541
3797.34336	0.53513
3795.41480	0.53495
3793.48623	0.53552
3791.55767	0.53557
3789.62910	0.53488
3787.70054	0.53519
3785.77197	0.53593
3783.84341	0.53566
3781.91485	0.53553
3779.98628	0.53507
3778.05772	0.53379
3776.12915	0.53357
3774.20059	0.53431
3772.27202	0.53468
3770.34346	0.53398
3768.41489	0.53376
3766.48633	0.53387
3764.55777	0.53299
3762.62920	0.53300
3760.70064	0.53394
3758.77207	0.53340
3756.84351	0.53251
3754.91494	0.53420
3752.98638	0.53770
3751.05781	0.53754
3749.12925	0.53457
3747.20069	0.53426
3745.27212	0.53203
3743.34356	0.52942
3741.41499	0.53174
3739.48643	0.53589
3737.55786	0.53874
3735.62930	0.53725
3733.70074	0.53323
3731.77217	0.53210
3729.84361	0.53311
3727.91504	0.53450
3725.98648	0.53456
3724.05791	0.53311
3722.12935	0.53168
3720.20078	0.53071
3718.27222	0.53066
3716.34366	0.53170
3714.41509	0.53312
3712.48653	0.53330
3710.55796	0.53221
3708.62940	0.53220
3706.70083	0.53320
3704.77227	0.53439
3702.84370	0.53401
3700.91514	0.53278
3698.98658	0.53369
3697.05801	0.53563
3695.12945	0.53728
3693.20088	0.53942
3691.27232	0.54216
3689.34375	0.54226
3687.41519	0.53959
3685.48662	0.53892
3683.55806	0.54101
3681.62950	0.54430
3679.70093	0.54721
3677.77237	0.54945
3675.84380	0.54986
3673.91524	0.54999
3671.98667	0.55205
3670.05811	0.55313
3668.12954	0.55395
3666.20098	0.55717
3664.27242	0.56121
3662.34385	0.56490
3660.41529	0.56879
3658.48672	0.57272
3656.55816	0.57559
3654.62959	0.57884
3652.70103	0.58470
3650.77246	0.59132
3648.84390	0.59170
3646.91534	0.59138
3644.98677	0.59586
3643.05821	0.60113
3641.12964	0.60548
3639.20108	0.60986
3637.27251	0.61522
3635.34395	0.62145
3633.41538	0.62841
3631.48682	0.63570
3629.55826	0.64192
3627.62969	0.64531
3625.70113	0.64925
3623.77256	0.65471
3621.84400	0.66044
3619.91543	0.66597
3617.98687	0.67181
3616.05830	0.67815
3614.12974	0.68400
3612.20118	0.68957
3610.27261	0.69637
3608.34405	0.70403
3606.41548	0.71055
3604.48692	0.71642
3602.55835	0.72363
3600.62979	0.73195
3598.70123	0.73939
3596.77266	0.74510
3594.84410	0.75070
3592.91553	0.75819
3590.98697	0.76679
3589.05840	0.77508
3587.12984	0.78206
3585.20127	0.78920
3583.27271	0.79661
3581.34415	0.80287
3579.41558	0.80915
3577.48702	0.81728
3575.55845	0.82644
3573.62989	0.83470
3571.70132	0.84235
3569.77276	0.85038
3567.84419	0.85882
3565.91563	0.86735
3563.98707	0.87593
3562.05850	0.88537
3560.12994	0.89526
3558.20137	0.90455
3556.27281	0.91265
3554.34424	0.92015
3552.41568	0.92800
3550.48711	0.93650
3548.55855	0.94598
3546.62999	0.95566
3544.70142	0.96367
3542.77286	0.96988
3540.84429	0.97727
3538.91573	0.98724
3536.98716	0.99764
3535.05860	1.00710
3533.13003	1.01551
3531.20147	1.02402
3529.27291	1.03413
3527.34434	1.04397
3525.41578	1.05199
3523.48721	1.06071
3521.55865	1.07066
3519.63008	1.07956
3517.70152	1.08857
3515.77295	1.09925
3513.84439	1.11014
3511.91583	1.12041
3509.98726	1.13205
3508.05870	1.14594
3506.13013	1.15947
3504.20157	1.17088
3502.27300	1.18082
3500.34444	1.19308
3498.41587	1.20788
3496.48731	1.22034
3494.55875	1.22962
3492.63018	1.23988
3490.70162	1.25285
3488.77305	1.26572
3486.84449	1.27524
3484.91592	1.28210
3482.98736	1.29045
3481.05879	1.29988
3479.13023	1.30596
3477.20167	1.31051
3475.27310	1.31583
3473.34454	1.32328
3471.41597	1.33461
3469.48741	1.34729
3467.55884	1.35742
3465.63028	1.36329
3463.70171	1.36619
3461.77315	1.36987
3459.84459	1.37660
3457.91602	1.38345
3455.98746	1.38930
3454.05889	1.39766
3452.13033	1.40719
3450.20176	1.41345
3448.27320	1.41573
3446.34464	1.41548
3444.41607	1.41629
3442.48751	1.42511
3440.55894	1.44355
3438.63038	1.46154
3436.70181	1.46874
3434.77325	1.46319
3432.84468	1.45294
3430.91612	1.45174
3428.98756	1.46080
3427.05899	1.46623
3425.13043	1.46433
3423.20186	1.46405
3421.27330	1.46882
3419.34473	1.47490
3417.41617	1.47845
3415.48760	1.48196
3413.55904	1.48679
3411.63048	1.48985
3409.70191	1.49317
3407.77335	1.49909
3405.84478	1.50626
3403.91622	1.51376
3401.98765	1.51914
3400.05909	1.52061
3398.13052	1.52037
3396.20196	1.51838
3394.27340	1.51384
3392.34483	1.51095
3390.41627	1.51149
3388.48770	1.51348
3386.55914	1.51614
3384.63057	1.51896
3382.70201	1.52318
3380.77344	1.52805
3378.84488	1.52831
3376.91632	1.52645
3374.98775	1.53170
3373.05919	1.54402
3371.13062	1.55685
3369.20206	1.56531
3367.27349	1.56662
3365.34493	1.56353
3363.41636	1.56118
3361.48780	1.56426
3359.55924	1.57393
3357.63067	1.58244
3355.70211	1.58453
3353.77354	1.58629
3351.84498	1.59255
3349.91641	1.60180
3347.98785	1.60955
3346.05928	1.61003
3344.13072	1.60745
3342.20216	1.61043
3340.27359	1.61839
3338.34503	1.62708
3336.41646	1.63290
3334.48790	1.63758
3332.55933	1.64438
3330.63077	1.65007
3328.70220	1.65313
3326.77364	1.65467
3324.84508	1.65768
3322.91651	1.66385
3320.98795	1.67072
3319.05938	1.67961
3317.13082	1.68687
3315.20225	1.68782
3313.27369	1.69281
3311.34513	1.70589
3309.41656	1.71564
3307.48800	1.71819
3305.55943	1.71991
3303.63087	1.72449
3301.70230	1.73003
3299.77374	1.73079
3297.84517	1.72853
3295.91661	1.73281
3293.98805	1.74045
3292.05948	1.74038
3290.13092	1.73653
3288.20235	1.73834
3286.27379	1.74447
3284.34522	1.74900
3282.41666	1.74752
3280.48809	1.74004
3278.55953	1.73251
3276.63097	1.72824
3274.70240	1.72671
3272.77384	1.72821
3270.84527	1.72962
3268.91671	1.72646
3266.98814	1.71818
3265.05958	1.70911
3263.13101	1.70427
3261.20245	1.70078
3259.27389	1.69129
3257.34532	1.67694
3255.41676	1.66766
3253.48819	1.66409
3251.55963	1.65537
3249.63106	1.64119
3247.70250	1.62599
3245.77393	1.60881
3243.84537	1.59473
3241.91681	1.58567
3239.98824	1.57799
3238.05968	1.57491
3236.13111	1.57673
3234.20255	1.57450
3232.27398	1.56498
3230.34542	1.55558
3228.41685	1.54894
3226.48829	1.54023
3224.55973	1.52952
3222.63116	1.52068
3220.70260	1.51299
3218.77403	1.50383
3216.84547	1.49682
3214.91690	1.49502
3212.98834	1.49300
3211.05977	1.48840
3209.13121	1.48392
3207.20265	1.47750
3205.27408	1.46792
3203.34552	1.45811
3201.41695	1.44977
3199.48839	1.44505
3197.55982	1.44222
3195.63126	1.43506
3193.70269	1.42560
3191.77413	1.41893
3189.84557	1.41432
3187.91700	1.40964
3185.98844	1.40336
3184.05987	1.39626
3182.13131	1.39027
3180.20274	1.38437
3178.27418	1.37670
3176.34562	1.36949
3174.41705	1.36502
3172.48849	1.36035
3170.55992	1.35520
3168.63136	1.35198
3166.70279	1.34709
3164.77423	1.33808
3162.84566	1.32955
3160.91710	1.32425
3158.98854	1.32038
3157.05997	1.31667
3155.13141	1.31329
3153.20284	1.31072
3151.27428	1.30767
3149.34571	1.30310
3147.41715	1.29917
3145.48858	1.29557
3143.56002	1.29108
3141.63146	1.28783
3139.70289	1.28540
3137.77433	1.28264
3135.84576	1.28109
3133.91720	1.28035
3131.98863	1.27952
3130.06007	1.27867
3128.13150	1.27772
3126.20294	1.27787
3124.27438	1.27843
3122.34581	1.27619
3120.41725	1.27134
3118.48868	1.26668
3116.56012	1.26380
3114.63155	1.26315
3112.70299	1.26349
3110.77442	1.26260
3108.84586	1.26077
3106.91730	1.26034
3104.98873	1.26057
3103.06017	1.25834
3101.13160	1.25363
3099.20304	1.24946
3097.27447	1.24728
3095.34591	1.24512
3093.41734	1.24148
3091.48878	1.23830
3089.56022	1.23691
3087.63165	1.23536
3085.70309	1.23210
3083.77452	1.22847
3081.84596	1.22578
3079.91739	1.22325
3077.98883	1.21980
3076.06026	1.21573
3074.13170	1.21155
3072.20314	1.20687
3070.27457	1.20241
3068.34601	1.19980
3066.41744	1.19834
3064.48888	1.19603
3062.56031	1.19199
3060.63175	1.18694
3058.70318	1.18198
3056.77462	1.17557
3054.84606	1.16684
3052.91749	1.15946
3050.98893	1.15571
3049.06036	1.15311
3047.13180	1.14893
3045.20323	1.14340
3043.27467	1.13762
3041.34610	1.13184
3039.41754	1.12624
3037.48898	1.12053
3035.56041	1.11457
3033.63185	1.10959
3031.70328	1.10658
3029.77472	1.10438
3027.84615	1.10101
3025.91759	1.09669
3023.98903	1.09209
3022.06046	1.08683
3020.13190	1.08211
3018.20333	1.07853
3016.27477	1.07453
3014.34620	1.07083
3012.41764	1.06877
3010.48907	1.06697
3008.56051	1.06425
3006.63195	1.06041
3004.70338	1.05596
3002.77482	1.05257
3000.84625	1.05065
2998.91769	1.04981
2996.98912	1.05104
2995.06056	1.05421
2993.13199	1.05661
2991.20343	1.05774
2989.27487	1.06090
2987.34630	1.06744
2985.41774	1.07601
2983.48917	1.08616
2981.56061	1.09730
2979.63204	1.10803
2977.70348	1.11798
2975.77491	1.12767
2973.84635	1.13760
2971.91779	1.14818
2969.98922	1.16004
2968.06066	1.17334
2966.13209	1.18566
2964.20353	1.19341
2962.27496	1.19681
2960.34640	1.19852
2958.41783	1.19817
2956.48927	1.19451
2954.56071	1.18832
2952.63214	1.18032
2950.70358	1.17156
2948.77501	1.16508
2946.84645	1.16402
2944.91788	1.16943
2942.98932	1.18018
2941.06075	1.19380
2939.13219	1.20760
2937.20363	1.22080
2935.27506	1.23519
2933.34650	1.25094
2931.41793	1.26456
2929.48937	1.27406
2927.56080	1.28060
2925.63224	1.28540
2923.70367	1.28859
2921.77511	1.28933
2919.84655	1.28762
2917.91798	1.28070
2915.98942	1.26185
2914.06085	1.23244
2912.13229	1.20212
2910.20372	1.17682
2908.27516	1.15668
2906.34659	1.14033
2904.41803	1.12761
2902.48947	1.11815
2900.56090	1.11039
2898.63234	1.10372
2896.70377	1.09826
2894.77521	1.09320
2892.84664	1.08734
2890.91808	1.08101
2888.98952	1.07623
2887.06095	1.07390
2885.13239	1.07276
2883.20382	1.07231
2881.27526	1.07299
2879.34669	1.07391
2877.41813	1.07398
2875.48956	1.07302
2873.56100	1.07027
2871.63244	1.06542
2869.70387	1.05895
2867.77531	1.05099
2865.84674	1.04242
2863.91818	1.03533
2861.98961	1.03253
2860.06105	1.03533
2858.13248	1.04199
2856.20392	1.05020
2854.27536	1.05855
2852.34679	1.06479
2850.41823	1.06274
2848.48966	1.04499
2846.56110	1.01416
2844.63253	0.98233
2842.70397	0.95701
2840.77540	0.93806
2838.84684	0.92365
2836.91828	0.91217
2834.98971	0.90235
2833.06115	0.89419
2831.13258	0.88762
2829.20402	0.88190
2827.27545	0.87661
2825.34689	0.87128
2823.41832	0.86565
2821.48976	0.86025
2819.56120	0.85543
2817.63263	0.85105
2815.70407	0.84679
2813.77550	0.84241
2811.84694	0.83803
2809.91837	0.83402
2807.98981	0.83065
2806.06124	0.82747
2804.13268	0.82414
2802.20412	0.82124
2800.27555	0.81862
2798.34699	0.81510
2796.41842	0.81082
2794.48986	0.80688
2792.56129	0.80332
2790.63273	0.80003
2788.70416	0.79726
2786.77560	0.79462
2784.84704	0.79179
2782.91847	0.78868
2780.98991	0.78557
2779.06134	0.78286
2777.13278	0.78034
2775.20421	0.77786
2773.27565	0.77548
2771.34708	0.77275
2769.41852	0.76953
2767.48996	0.76641
2765.56139	0.76404
2763.63283	0.76225
2761.70426	0.76017
2759.77570	0.75764
2757.84713	0.75519
2755.91857	0.75292
2753.99001	0.75081
2752.06144	0.74891
2750.13288	0.74699
2748.20431	0.74461
2746.27575	0.74192
2744.34718	0.73973
2742.41862	0.73802
2740.49005	0.73597
2738.56149	0.73350
2736.63293	0.73130
2734.70436	0.72954
2732.77580	0.72754
2730.84723	0.72476
2728.91867	0.72173
2726.99010	0.71928
2725.06154	0.71756
2723.13297	0.71589
2721.20441	0.71354
2719.27585	0.71044
2717.34728	0.70730
2715.41872	0.70486
2713.49015	0.70315
2711.56159	0.70146
2709.63302	0.69910
2707.70446	0.69626
2705.77589	0.69371
2703.84733	0.69166
2701.91877	0.68971
2699.99020	0.68748
2698.06164	0.68512
2696.13307	0.68310
2694.20451	0.68149
2692.27594	0.67989
2690.34738	0.67819
2688.41881	0.67662
2686.49025	0.67520
2684.56169	0.67409
2682.63312	0.67306
2680.70456	0.67158
2678.77599	0.66980
2676.84743	0.66803
2674.91886	0.66642
2672.99030	0.66494
2671.06173	0.66328
2669.13317	0.66164
2667.20461	0.66049
2665.27604	0.65964
2663.34748	0.65862
2661.41891	0.65744
2659.49035	0.65625
2657.56178	0.65483
2655.63322	0.65312
2653.70465	0.65140
2651.77609	0.64966
2649.84753	0.64807
2647.91896	0.64707
2645.99040	0.64642
2644.06183	0.64565
2642.13327	0.64477
2640.20470	0.64379
2638.27614	0.64251
2636.34757	0.64086
2634.41901	0.63918
2632.49045	0.63797
2630.56188	0.63709
2628.63332	0.63583
2626.70475	0.63414
2624.77619	0.63255
2622.84762	0.63122
2620.91906	0.62983
2618.99049	0.62808
2617.06193	0.62621
2615.13337	0.62437
2613.20480	0.62254
2611.27624	0.62086
2609.34767	0.61915
2607.41911	0.61730
2605.49054	0.61529
2603.56198	0.61298
2601.63342	0.61071
2599.70485	0.60890
2597.77629	0.60741
2595.84772	0.60588
2593.91916	0.60407
2591.99059	0.60214
2590.06203	0.60016
2588.13346	0.59802
2586.20490	0.59612
2584.27634	0.59461
2582.34777	0.59304
2580.41921	0.59143
2578.49064	0.59017
2576.56208	0.58919
2574.63351	0.58836
2572.70495	0.58743
2570.77638	0.58635
2568.84782	0.58548
2566.91926	0.58490
2564.99069	0.58443
2563.06213	0.58392
2561.13356	0.58313
2559.20500	0.58186
2557.27643	0.58047
2555.34787	0.57958
2553.41930	0.57948
2551.49074	0.57972
2549.56218	0.57940
2547.63361	0.57843
2545.70505	0.57755
2543.77648	0.57701
2541.84792	0.57664
2539.91935	0.57638
2537.99079	0.57613
2536.06222	0.57577
2534.13366	0.57524
2532.20510	0.57463
2530.27653	0.57399
2528.34797	0.57323
2526.41940	0.57239
2524.49084	0.57145
2522.56227	0.57024
2520.63371	0.56910
2518.70514	0.56830
2516.77658	0.56754
2514.84802	0.56670
2512.91945	0.56591
2510.99089	0.56491
2509.06232	0.56341
2507.13376	0.56184
2505.20519	0.56065
2503.27663	0.55957
2501.34806	0.55820
2499.41950	0.55677
2497.49094	0.55561
2495.56237	0.55432
2493.63381	0.55268
2491.70524	0.55099
2489.77668	0.54953
2487.84811	0.54831
2485.91955	0.54699
2483.99098	0.54544
2482.06242	0.54400
2480.13386	0.54272
2478.20529	0.54133
2476.27673	0.53974
2474.34816	0.53806
2472.41960	0.53643
2470.49103	0.53490
2468.56247	0.53357
2466.63391	0.53253
2464.70534	0.53161
2462.77678	0.53054
2460.84821	0.52918
2458.91965	0.52765
2456.99108	0.52615
2455.06252	0.52473
2453.13395	0.52340
2451.20539	0.52214
2449.27683	0.52083
2447.34826	0.51944
2445.41970	0.51812
2443.49113	0.51690
2441.56257	0.51558
2439.63400	0.51428
2437.70544	0.51317
2435.77687	0.51209
2433.84831	0.51099
2431.91975	0.50980
2429.99118	0.50846
2428.06262	0.50703
2426.13405	0.50568
2424.20549	0.50462
2422.27692	0.50372
2420.34836	0.50282
2418.41979	0.50183
2416.49123	0.50059
2414.56267	0.49921
2412.63410	0.49814
2410.70554	0.49766
2408.77697	0.49743
2406.84841	0.49694
2404.91984	0.49620
2402.99128	0.49536
2401.06271	0.49453
2399.13415	0.49390
2397.20559	0.49354
2395.27702	0.49319
2393.34846	0.49263
2391.41989	0.49210
2389.49133	0.49178
2387.56276	0.49179
2385.63420	0.49241
2383.70563	0.49369
2381.77707	0.49555
2379.84851	0.49777
2377.91994	0.50003
2375.99138	0.50259
2374.06281	0.50577
2372.13425	0.50961
2370.20568	0.51427
2368.27712	0.51889
2366.34855	0.52219
2364.41999	0.52448
2362.49143	0.52597
2360.56286	0.52641
2358.63430	0.52470
2356.70573	0.52015
2354.77717	0.51466
2352.84860	0.50921
2350.92004	0.50491
2348.99147	0.50356
2347.06291	0.50502
2345.13435	0.50716
2343.20578	0.50777
2341.27722	0.50760
2339.34865	0.50771
2337.42009	0.50687
2335.49152	0.50355
2333.56296	0.49934
2331.63440	0.49681
2329.70583	0.49536
2327.77727	0.49305
2325.84870	0.49006
2323.92014	0.48706
2321.99157	0.48388
2320.06301	0.48098
2318.13444	0.47864
2316.20588	0.47645
2314.27732	0.47436
2312.34875	0.47236
2310.42019	0.47033
2308.49162	0.46822
2306.56306	0.46629
2304.63449	0.46482
2302.70593	0.46381
2300.77736	0.46300
2298.84880	0.46214
2296.92024	0.46115
2294.99167	0.46013
2293.06311	0.45910
2291.13454	0.45800
2289.20598	0.45709
2287.27741	0.45653
2285.34885	0.45616
2283.42028	0.45577
2281.49172	0.45539
2279.56316	0.45524
2277.63459	0.45541
2275.70603	0.45579
2273.77746	0.45611
2271.84890	0.45607
2269.92033	0.45594
2267.99177	0.45598
2266.06320	0.45602
2264.13464	0.45601
2262.20608	0.45610
2260.27751	0.45630
2258.34895	0.45669
2256.42038	0.45714
2254.49182	0.45730
2252.56325	0.45730
2250.63469	0.45751
2248.70612	0.45779
2246.77756	0.45792
2244.84900	0.45802
2242.92043	0.45822
2240.99187	0.45835
2239.06330	0.45831
2237.13474	0.45813
2235.20617	0.45789
2233.27761	0.45780
2231.34904	0.45793
2229.42048	0.45801
2227.49192	0.45777
2225.56335	0.45731
2223.63479	0.45712
2221.70622	0.45719
2219.77766	0.45691
2217.84909	0.45630
2215.92053	0.45584
2213.99196	0.45551
2212.06340	0.45502
2210.13484	0.45445
2208.20627	0.45393
2206.27771	0.45333
2204.34914	0.45271
2202.42058	0.45226
2200.49201	0.45191
2198.56345	0.45158
2196.63488	0.45122
2194.70632	0.45088
2192.77776	0.45061
2190.84919	0.45029
2188.92063	0.44993
2186.99206	0.44969
2185.06350	0.44950
2183.13493	0.44931
2181.20637	0.44930
2179.27781	0.44953
2177.34924	0.44979
2175.42068	0.44996
2173.49211	0.45015
2171.56355	0.45030
2169.63498	0.45026
2167.70642	0.45013
2165.77785	0.45008
2163.84929	0.45020
2161.92073	0.45049
2159.99216	0.45075
2158.06360	0.45094
2156.13503	0.45117
2154.20647	0.45152
2152.27790	0.45207
2150.34934	0.45270
2148.42077	0.45300
2146.49221	0.45293
2144.56365	0.45298
2142.63508	0.45332
2140.70652	0.45377
2138.77795	0.45418
2136.84939	0.45449
2134.92082	0.45478
2132.99226	0.45510
2131.06369	0.45536
2129.13513	0.45560
2127.20657	0.45589
2125.27800	0.45616
2123.34944	0.45631
2121.42087	0.45650
2119.49231	0.45680
2117.56374	0.45709
2115.63518	0.45729
2113.70661	0.45733
2111.77805	0.45721
2109.84949	0.45686
2107.92092	0.45644
2105.99236	0.45613
2104.06379	0.45580
2102.13523	0.45541
2100.20666	0.45513
2098.27810	0.45474
2096.34953	0.45401
2094.42097	0.45321
2092.49241	0.45256
2090.56384	0.45194
2088.63528	0.45125
2086.70671	0.45051
2084.77815	0.44978
2082.84958	0.44914
2080.92102	0.44852
2078.99245	0.44772
2077.06389	0.44685
2075.13533	0.44619
2073.20676	0.44575
2071.27820	0.44536
2069.34963	0.44489
2067.42107	0.44443
2065.49250	0.44403
2063.56394	0.44365
2061.63537	0.44334
2059.70681	0.44321
2057.77825	0.44321
2055.84968	0.44316
2053.92112	0.44299
2051.99255	0.44279
2050.06399	0.44271
2048.13542	0.44274
2046.20686	0.44279
2044.27830	0.44286
2042.34973	0.44291
2040.42117	0.44303
2038.49260	0.44337
2036.56404	0.44370
2034.63547	0.44389
2032.70691	0.44403
2030.77834	0.44406
2028.84978	0.44392
2026.92122	0.44370
2024.99265	0.44342
2023.06409	0.44317
2021.13552	0.44308
2019.20696	0.44290
2017.27839	0.44224
2015.34983	0.44137
2013.42126	0.44080
2011.49270	0.44041
2009.56414	0.43993
2007.63557	0.43930
2005.70701	0.43857
2003.77844	0.43786
2001.84988	0.43717
1999.92131	0.43653
1997.99275	0.43595
1996.06418	0.43546
1994.13562	0.43491
1992.20706	0.43409
1990.27849	0.43326
1988.34993	0.43260
1986.42136	0.43196
1984.49280	0.43139
1982.56423	0.43076
1980.63567	0.42985
1978.70710	0.42885
1976.77854	0.42805
1974.84998	0.42742
1972.92141	0.42683
1970.99285	0.42637
1969.06428	0.42605
1967.13572	0.42541
1965.20715	0.42438
1963.27859	0.42347
1961.35002	0.42278
1959.42146	0.42214
1957.49290	0.42156
1955.56433	0.42103
1953.63577	0.42050
1951.70720	0.42000
1949.77864	0.41973
1947.85007	0.41976
1945.92151	0.41993
1943.99294	0.41978
1942.06438	0.41894
1940.13582	0.41806
1938.20725	0.41767
1936.27869	0.41745
1934.35012	0.41715
1932.42156	0.41683
1930.49299	0.41647
1928.56443	0.41610
1926.63586	0.41613
1924.70730	0.41660
1922.77874	0.41668
1920.85017	0.41611
1918.92161	0.41539
1916.99304	0.41477
1915.06448	0.41444
1913.13591	0.41441
1911.20735	0.41427
1909.27878	0.41374
1907.35022	0.41307
1905.42166	0.41259
1903.49309	0.41219
1901.56453	0.41176
1899.63596	0.41128
1897.70740	0.41076
1895.77883	0.41023
1893.85027	0.40978
1891.92171	0.40945
1889.99314	0.40889
1888.06458	0.40808
1886.13601	0.40757
1884.20745	0.40717
1882.27888	0.40673
1880.35032	0.40647
1878.42175	0.40628
1876.49319	0.40604
1874.56463	0.40613
1872.63606	0.40687
1870.70750	0.40786
1868.77893	0.40810
1866.85037	0.40750
1864.92180	0.40723
1862.99324	0.40755
1861.06467	0.40818
1859.13611	0.40878
1857.20755	0.40898
1855.27898	0.40890
1853.35042	0.40890
1851.42185	0.40915
1849.49329	0.40958
1847.56472	0.41002
1845.63616	0.40996
1843.70759	0.40881
1841.77903	0.40770
1839.85047	0.40723
1837.92190	0.40666
1835.99334	0.40584
1834.06477	0.40538
1832.13621	0.40538
1830.20764	0.40472
1828.27908	0.40336
1826.35051	0.40232
1824.42195	0.40128
1822.49339	0.40020
1820.56482	0.39938
1818.63626	0.39872
1816.70769	0.39808
1814.77913	0.39775
1812.85056	0.39765
1810.92200	0.39710
1808.99343	0.39620
1807.06487	0.39561
1805.13631	0.39559
1803.20774	0.39580
1801.27918	0.39555
1799.35061	0.39474
1797.42205	0.39433
1795.49348	0.39460
1793.56492	0.39468
1791.63635	0.39394
1789.70779	0.39337
1787.77923	0.39372
1785.85066	0.39440
1783.92210	0.39520
1781.99353	0.39615
1780.06497	0.39697
1778.13640	0.39785
1776.20784	0.39929
1774.27927	0.40129
1772.35071	0.40301
1770.42215	0.40398
1768.49358	0.40512
1766.56502	0.40680
1764.63645	0.40918
1762.70789	0.41225
1760.77932	0.41586
1758.85076	0.41996
1756.92220	0.42529
1754.99363	0.43145
1753.06507	0.43841
1751.13650	0.44811
1749.20794	0.45999
1747.27937	0.47041
1745.35081	0.47895
1743.42224	0.48642
1741.49368	0.49292
1739.56512	0.49819
1737.63655	0.50190
1735.70799	0.50448
1733.77942	0.50605
1731.85086	0.50646
1729.92229	0.50713
1727.99373	0.50848
1726.06516	0.51068
1724.13660	0.51421
1722.20804	0.51881
1720.27947	0.52435
1718.35091	0.53235
1716.42234	0.54326
1714.49378	0.55309
1712.56521	0.56297
1710.63665	0.57523
1708.70808	0.59026
1706.77952	0.61184
1704.85096	0.64074
1702.92239	0.66924
1700.99383	0.71113
1699.06526	0.77782
1697.13670	0.84320
1695.20813	0.91008
1693.27957	0.96345
1691.35100	1.00898
1689.42244	1.06474
1687.49388	1.11833
1685.56531	1.17271
1683.63675	1.25409
1681.70818	1.31641
1679.77962	1.35438
1677.85105	1.39006
1675.92249	1.43085
1673.99392	1.47424
1672.06536	1.50876
1670.13680	1.53967
1668.20823	1.56852
1666.27967	1.58499
1664.35110	1.59877
1662.42254	1.61519
1660.49397	1.62846
1658.56541	1.63673
1656.63684	1.64067
1654.70828	1.64225
1652.77972	1.63511
1650.85115	1.63177
1648.92259	1.63424
1646.99402	1.63013
1645.06546	1.61967
1643.13689	1.61163
1641.20833	1.60629
1639.27976	1.60194
1637.35120	1.59769
1635.42264	1.58706
1633.49407	1.57494
1631.56551	1.56690
1629.63694	1.55668
1627.70838	1.54440
1625.77981	1.53403
1623.85125	1.52148
1621.92269	1.50052
1619.99412	1.47911
1618.06556	1.45420
1616.13699	1.41810
1614.20843	1.38811
1612.27986	1.36294
1610.35130	1.33414
1608.42273	1.30342
1606.49417	1.27652
1604.56561	1.25463
1602.63704	1.23520
1600.70848	1.21845
1598.77991	1.20576
1596.85135	1.19690
1594.92278	1.19053
1592.99422	1.18630
1591.06565	1.18438
1589.13709	1.18500
1587.20853	1.18919
1585.27996	1.19658
1583.35140	1.20654
1581.42283	1.21818
1579.49427	1.22972
1577.56570	1.24423
1575.63714	1.26614
1573.70857	1.28362
1571.78001	1.29700
1569.85145	1.31633
1567.92288	1.33747
1565.99432	1.35380
1564.06575	1.36877
1562.13719	1.38177
1560.20862	1.40070
1558.28006	1.43671
1556.35149	1.45235
1554.42293	1.45824
1552.49437	1.46387
1550.56580	1.46922
1548.63724	1.47283
1546.70867	1.47437
1544.78011	1.47682
1542.85154	1.48168
1540.92298	1.47481
1538.99441	1.44813
1537.06585	1.43364
1535.13729	1.42440
1533.20872	1.41229
1531.28016	1.40191
1529.35159	1.39605
1527.42303	1.38932
1525.49446	1.37951
1523.56590	1.37012
1521.63733	1.36087
1519.70877	1.35455
1517.78021	1.34732
1515.85164	1.33428
1513.92308	1.31890
1511.99451	1.30222
1510.06595	1.28415
1508.13738	1.25235
1506.20882	1.19389
1504.28025	1.16157
1502.35169	1.14284
1500.42313	1.12195
1498.49456	1.09454
1496.56600	1.06147
1494.63743	1.03532
1492.70887	1.01726
1490.78030	0.99636
1488.85174	0.96890
1486.92317	0.94847
1484.99461	0.93666
1483.06605	0.92886
1481.13748	0.92417
1479.20892	0.92394
1477.28035	0.92916
1475.35179	0.94064
1473.42322	0.96151
1471.49466	0.98525
1469.56610	0.99949
1467.63753	1.00956
1465.70897	1.02120
1463.78040	1.03319
1461.85184	1.04103
1459.92327	1.04726
1457.99471	1.05800
1456.06614	1.06879
1454.13758	1.07029
1452.20902	1.06856
1450.28045	1.06588
1448.35189	1.06239
1446.42332	1.05807
1444.49476	1.05300
1442.56619	1.04712
1440.63763	1.04157
1438.70906	1.03581
1436.78050	1.02553
1434.85194	1.01319
1432.92337	1.00466
1430.99481	0.99773
1429.06624	0.99158
1427.13768	0.98813
1425.20911	0.98747
1423.28055	0.98908
1421.35198	0.99285
1419.42342	0.99839
1417.49486	1.00234
1415.56629	1.00381
1413.63773	1.00523
1411.70916	1.00671
1409.78060	1.00804
1407.85203	1.00940
1405.92347	1.01075
1403.99490	1.01156
1402.06634	1.01165
1400.13778	1.01116
1398.20921	1.01029
1396.28065	1.00930
1394.35208	1.00753
1392.42352	1.00560
1390.49495	1.00530
1388.56639	1.00818
1386.63782	1.01450
1384.70926	1.02165
1382.78070	1.02831
1380.85213	1.03332
1378.92357	1.03447
1376.99500	1.03054
1375.06644	1.02040
1373.13787	1.00558
1371.20931	0.99095
1369.28074	0.97543
1367.35218	0.95821
1365.42362	0.94217
1363.49505	0.92648
1361.56649	0.91201
1359.63792	0.90297
1357.70936	0.89826
1355.78079	0.89532
1353.85223	0.89335
1351.92366	0.89255
1349.99510	0.89264
1348.06654	0.89306
1346.13797	0.89355
1344.20941	0.89421
1342.28084	0.89535
1340.35228	0.89733
1338.42371	0.90003
1336.49515	0.90370
1334.56659	0.90930
1332.63802	0.91685
1330.70946	0.92510
1328.78089	0.93253
1326.85233	0.93796
1324.92376	0.94110
1322.99520	0.94347
1321.06663	0.94641
1319.13807	0.94942
1317.20951	0.95180
1315.28094	0.95313
1313.35238	0.95303
1311.42381	0.95197
1309.49525	0.95034
1307.56668	0.94764
1305.63812	0.94367
1303.70955	0.93879
1301.78099	0.93307
1299.85243	0.92594
1297.92386	0.91696
1295.99530	0.90697
1294.06673	0.89716
1292.13817	0.88853
1290.20960	0.88206
1288.28104	0.87742
1286.35247	0.87342
1284.42391	0.86961
1282.49535	0.86621
1280.56678	0.86371
1278.63822	0.86256
1276.70965	0.86274
1274.78109	0.86414
1272.85252	0.86683
1270.92396	0.87073
1268.99539	0.87590
1267.06683	0.88198
1265.13827	0.88783
1263.20970	0.89298
1261.28114	0.89771
1259.35257	0.90221
1257.42401	0.90674
1255.49544	0.91137
1253.56688	0.91618
1251.63831	0.92140
1249.70975	0.92680
1247.78119	0.93228
1245.85262	0.93802
1243.92406	0.94335
1241.99549	0.94728
1240.06693	0.94979
1238.13836	0.95140
1236.20980	0.95192
1234.28123	0.95087
1232.35267	0.94810
1230.42411	0.94400
1228.49554	0.93939
1226.56698	0.93402
1224.63841	0.92694
1222.70985	0.91922
1220.78128	0.91192
1218.85272	0.90435
1216.92415	0.89685
1214.99559	0.89121
1213.06703	0.88840
1211.13846	0.88815
1209.20990	0.88904
1207.28133	0.88886
1205.35277	0.88577
1203.42420	0.87913
1201.49564	0.86962
1199.56708	0.85843
1197.63851	0.84654
1195.70995	0.83507
1193.78138	0.82488
1191.85282	0.81656
1189.92425	0.81037
1187.99569	0.80572
1186.06712	0.80239
1184.13856	0.80099
1182.21000	0.80189
1180.28143	0.80578
1178.35287	0.81337
1176.42430	0.82393
1174.49574	0.83592
1172.56717	0.84876
1170.63861	0.86338
1168.71004	0.88110
1166.78148	0.90196
1164.85292	0.92489
1162.92435	0.94761
1160.99579	0.96640
1159.06722	0.97787
1157.13866	0.98026
1155.21009	0.97431
1153.28153	0.96311
1151.35296	0.94919
1149.42440	0.93345
1147.49584	0.91764
1145.56727	0.90439
1143.63871	0.89492
1141.71014	0.88964
1139.78158	0.88876
1137.85301	0.89156
1135.92445	0.89743
1133.99588	0.90629
1132.06732	0.91816
1130.13876	0.93331
1128.21019	0.95155
1126.28163	0.97183
1124.35306	0.99253
1122.42450	1.01160
1120.49593	1.02783
1118.56737	1.04222
1116.63880	1.05515
1114.71024	1.06371
1112.78168	1.06661
1110.85311	1.06633
1108.92455	1.06525
1106.99598	1.06533
1105.06742	1.06688
1103.13885	1.06805
1101.21029	1.06987
1099.28172	1.07518
1097.35316	1.08391
1095.42460	1.09605
1093.49603	1.11349
1091.56747	1.13678
1089.63890	1.16476
1087.71034	1.19625
1085.78177	1.22985
1083.85321	1.26198
1081.92464	1.28741
1079.99608	1.30282
1078.06752	1.30881
1076.13895	1.30753
1074.21039	1.29975
1072.28182	1.28768
1070.35326	1.27437
1068.42469	1.26054
1066.49613	1.24696
1064.56756	1.23604
1062.63900	1.22933
1060.71044	1.22452
1058.78187	1.21771
1056.85331	1.20938
1054.92474	1.20271
1052.99618	1.19812
1051.06761	1.19449
1049.13905	1.19258
1047.21049	1.19305
1045.28192	1.19508
1043.35336	1.19832
1041.42479	1.20229
1039.49623	1.20561
1037.56766	1.20720
1035.63910	1.20629
1033.71053	1.20322
1031.78197	1.19868
1029.85341	1.19135
1027.92484	1.17940
1025.99628	1.16277
1024.06771	1.14422
1022.13915	1.12720
1020.21058	1.11269
1018.28202	1.09970
1016.35345	1.08616
1014.42489	1.06955
1012.49633	1.04861
1010.56776	1.02443
1008.63920	0.99870
1006.71063	0.97220
1004.78207	0.94646
1002.85350	0.92330
1000.92494	0.90281
998.99637	0.88521
997.06781	0.87085
995.13925	0.85843
993.21068	0.84663
991.28212	0.83453
989.35355	0.82075
987.42499	0.80507
985.49642	0.78879
983.56786	0.77365
981.63929	0.76101
979.71073	0.75110
977.78217	0.74342
975.85360	0.73726
973.92504	0.73119
971.99647	0.72350
970.06791	0.71395
968.13934	0.70398
966.21078	0.69537
964.28221	0.68961
962.35365	0.68831
960.42509	0.69336
958.49652	0.70490
956.56796	0.71848
954.63939	0.72721
952.71083	0.72794
950.78226	0.72276
948.85370	0.71519
946.92513	0.70753
944.99657	0.70095
943.06801	0.69603
941.13944	0.69250
939.21088	0.68947
937.28231	0.68648
935.35375	0.68360
933.42518	0.68084
931.49662	0.67817
929.56805	0.67555
927.63949	0.67281
925.71093	0.66998
923.78236	0.66746
921.85380	0.66500
919.92523	0.66161
917.99667	0.65674
916.06810	0.65112
914.13954	0.64568
912.21098	0.64071
910.28241	0.63643
908.35385	0.63315
906.42528	0.63113
904.49672	0.63059
902.56815	0.63111
900.63959	0.63144
898.71102	0.63074
896.78246	0.62877
894.85390	0.62532
892.92533	0.62073
890.99677	0.61544
889.06820	0.60975
887.13964	0.60449
885.21107	0.60054
883.28251	0.59796
881.35394	0.59621
879.42538	0.59497
877.49682	0.59465
875.56825	0.59539
873.63969	0.59680
871.71112	0.59873
869.78256	0.60071
867.85399	0.60237
865.92543	0.60461
863.99686	0.60811
862.06830	0.61250
860.13974	0.61767
858.21117	0.62365
856.28261	0.63031
854.35404	0.63722
852.42548	0.64356
850.49691	0.64885
848.56835	0.65312
846.63978	0.65667
844.71122	0.66006
842.78266	0.66338
840.85409	0.66588
838.92553	0.66736
836.99696	0.66862
835.06840	0.66973
833.13983	0.67016
831.21127	0.67007
829.28270	0.66981
827.35414	0.66920
825.42558	0.66810
823.49701	0.66692
821.56845	0.66568
819.63988	0.66432
817.71132	0.66340
815.78275	0.66285
813.85419	0.66222
811.92562	0.66168
809.99706	0.66121
808.06850	0.66021
806.13993	0.65871
804.21137	0.65753
802.28280	0.65641
800.35424	0.65452
798.42567	0.65232
796.49711	0.65020
794.56854	0.64835
792.63998	0.64760
790.71142	0.64773
788.78285	0.64791
786.85429	0.64854
784.92572	0.65041
782.99716	0.65327
781.06859	0.65646
779.14003	0.66006
777.21147	0.66416
775.28290	0.66807
773.35434	0.67155
771.42577	0.67511
769.49721	0.67887
767.56864	0.68233
765.64008	0.68468
763.71151	0.68589
761.78295	0.68737
759.85439	0.68974
757.92582	0.69218
755.99726	0.69408
754.06869	0.69587
752.14013	0.69821
750.21156	0.70104
748.28300	0.70385
746.35443	0.70602
744.42587	0.70724
742.49731	0.70789
740.56874	0.70810
738.64018	0.70781
736.71161	0.70766
734.78305	0.70836
732.85448	0.70999
730.92592	0.71238
728.99735	0.71509
727.06879	0.71826
725.14023	0.72230
723.21166	0.72734
721.28310	0.73346
719.35453	0.73916
717.42597	0.74286
715.49740	0.74630
713.56884	0.75180
711.64027	0.75920
709.71171	0.76692
707.78315	0.77392
705.85458	0.78011
703.92602	0.78603
701.99745	0.79170
700.06889	0.79636
698.14032	0.79968
696.21176	0.80183
694.28319	0.80303
692.35463	0.80367
690.42607	0.80397
688.49750	0.80409
686.56894	0.80444
684.64037	0.80514
682.71181	0.80566
680.78324	0.80576
678.85468	0.80545
676.92611	0.80438
674.99755	0.80250
673.06899	0.80099
671.14042	0.80133
669.21186	0.80263
667.28329	0.80110
665.35473	0.79873
663.42616	0.79761
661.49760	0.79630
659.56903	0.79385
657.64047	0.79064
655.71191	0.78711
653.78334	0.78316
651.85478	0.77923
649.92621	0.77548
647.99765	0.77142
646.06908	0.76721
644.14052	0.76367
642.21195	0.76181
640.28339	0.76058
638.35483	0.75751
636.42626	0.75256
634.49770	0.74722
632.56913	0.74241
630.64057	0.73904
628.71200	0.73647
626.78344	0.73273
624.85488	0.72834
622.92631	0.72584
620.99775	0.72526
619.06918	0.72464
617.14062	0.72333
615.21205	0.72171
613.28349	0.72032
611.35492	0.71986
609.42636	0.72051
607.49780	0.72302
605.56923	0.72806
603.64067	0.73327
601.71210	0.73714
599.78354	0.74196
