3997.91406	0.94987
3995.98550	0.95138
3994.05693	0.95227
3992.12837	0.95231
3990.19980	0.95076
3988.27124	0.94765
3986.34268	0.94575
3984.41411	0.94604
3982.48555	0.94631
3980.55698	0.94569
3978.62842	0.94522
3976.69985	0.94435
3974.77129	0.94320
3972.84272	0.94283
3970.91416	0.94175
3968.98560	0.93945
3967.05703	0.93838
3965.12847	0.93965
3963.19990	0.94049
3961.27134	0.93803
3959.34277	0.93454
3957.41421	0.93306
3955.48564	0.93371
3953.55708	0.93532
3951.62852	0.93533
3949.69995	0.93284
3947.77139	0.93178
3945.84282	0.93487
3943.91426	0.93970
3941.98569	0.94257
3940.05713	0.94224
3938.12856	0.93996
3936.20000	0.93753
3934.27144	0.93605
3932.34287	0.93409
3930.41431	0.93143
3928.48574	0.93178
3926.55718	0.93470
3924.62861	0.93581
3922.70005	0.93486
3920.77148	0.93440
3918.84292	0.93392
3916.91436	0.93283
3914.98579	0.93214
3913.05723	0.93168
3911.12866	0.93116
3909.20010	0.93204
3907.27153	0.93460
3905.34297	0.93509
3903.41440	0.93013
3901.48584	0.92455
3899.55728	0.92168
3897.62871	0.92143
3895.70015	0.92370
3893.77158	0.92614
3891.84302	0.92575
3889.91445	0.92477
3887.98589	0.92600
3886.05733	0.92623
3884.12876	0.92454
3882.20020	0.92423
3880.27163	0.92342
3878.34307	0.92326
3876.41450	0.92572
3874.48594	0.92727
3872.55737	0.92492
3870.62881	0.91943
3868.70025	0.91609
3866.77168	0.91682
3864.84312	0.91595
3862.91455	0.91301
3860.98599	0.91330
3859.05742	0.91648
3857.12886	0.92068
3855.20029	0.92302
3853.27173	0.91501
3851.34317	0.90718
3849.41460	0.90825
3847.48604	0.91194
3845.55747	0.91432
3843.62891	0.91426
3841.70034	0.91522
3839.77178	0.91770
3837.84321	0.91576
3835.91465	0.91200
3833.98609	0.91092
3832.05752	0.91152
3830.12896	0.91278
3828.20039	0.91315
3826.27183	0.91189
3824.34326	0.91137
3822.41470	0.91001
3820.48613	0.90432
3818.55757	0.90138
3816.62901	0.90074
3814.70044	0.89986
3812.77188	0.90063
3810.84331	0.90277
3808.91475	0.90402
3806.98618	0.90282
3805.05762	0.90468
3803.12905	0.90757
3801.20049	0.90344
3799.27193	0.90018
3797.34336	0.89889
3795.41480	0.89502
3793.48623	0.89259
3791.55767	0.89274
3789.62910	0.89383
3787.70054	0.89503
3785.77197	0.89440
3783.84341	0.89266
3781.91485	0.89328
3779.98628	0.89301
3778.05772	0.88950
3776.12915	0.88772
3774.20059	0.88838
3772.27202	0.88890
3770.34346	0.88735
3768.41489	0.88658
3766.48633	0.88815
3764.55777	0.88886
3762.62920	0.88899
3760.70064	0.88870
3758.77207	0.88704
3756.84351	0.88660
3754.91494	0.88873
3752.98638	0.89135
3751.05781	0.88948
3749.12925	0.88658
3747.20069	0.88837
3745.27212	0.88752
3743.34356	0.88237
3741.41499	0.88236
3739.48643	0.88685
3737.55786	0.89073
3735.62930	0.88803
3733.70074	0.88130
3731.77217	0.87804
3729.84361	0.87760
3727.91504	0.87866
3725.98648	0.88002
3724.05791	0.88027
3722.12935	0.87905
3720.20078	0.87758
3718.27222	0.87687
3716.34366	0.87695
3714.41509	0.87799
3712.48653	0.87776
3710.55796	0.87391
3708.62940	0.87241
3706.70083	0.87512
3704.77227	0.87834
3702.84370	0.87746
3700.91514	0.87348
3698.98658	0.87258
3697.05801	0.87540
3695.12945	0.88025
3693.20088	0.88524
3691.27232	0.88713
3689.34375	0.88226
3687.41519	0.87712
3685.48662	0.87638
3683.55806	0.87851
3681.62950	0.88224
3679.70093	0.88536
3677.77237	0.88661
3675.84380	0.88565
3673.91524	0.88670
3671.98667	0.89014
3670.05811	0.89030
3668.12954	0.88965
3666.20098	0.89274
3664.27242	0.89675
3662.34385	0.90031
3660.41529	0.90436
3658.48672	0.90743
3656.55816	0.90757
3654.62959	0.90970
3652.70103	0.91629
3650.77246	0.92241
3648.84390	0.92198
3646.91534	0.92291
3644.98677	0.92863
3643.05821	0.93485
3641.12964	0.93893
3639.20108	0.94195
3637.27251	0.94678
3635.34395	0.95266
3633.41538	0.95828
3631.48682	0.96439
3629.55826	0.96883
3627.62969	0.96930
3625.70113	0.97245
3623.77256	0.97951
3621.84400	0.98810
3619.91543	0.99367
3617.98687	0.99493
3616.05830	0.99818
3614.12974	1.00324
3612.20118	1.00672
3610.27261	1.00834
3608.34405	1.01003
3606.41548	1.01514
3604.48692	1.02373
3602.55835	1.03292
3600.62979	1.03929
3598.70123	1.04245
3596.77266	1.04548
3594.84410	1.04966
3592.91553	1.05533
3590.98697	1.06245
3589.05840	1.06826
3587.12984	1.07060
3585.20127	1.07602
3583.27271	1.08433
3581.34415	1.09028
3579.41558	1.09469
3577.48702	1.10115
3575.55845	1.10978
3573.62989	1.11758
3571.70132	1.12300
3569.77276	1.12767
3567.84419	1.13307
3565.91563	1.13669
3563.98707	1.13942
3562.05850	1.14567
3560.12994	1.15441
3558.20137	1.16226
3556.27281	1.16792
3554.34424	1.17225
3552.41568	1.17862
3550.48711	1.18872
3548.55855	1.19883
3546.62999	1.20559
3544.70142	1.20930
3542.77286	1.21178
3540.84429	1.21502
3538.91573	1.22116
3536.98716	1.23024
3535.05860	1.24017
3533.13003	1.24891
3531.20147	1.25618
3529.27291	1.26358
3527.34434	1.27176
3525.41578	1.27915
3523.48721	1.28669
3521.55865	1.29390
3519.63008	1.29736
3517.70152	1.29946
3515.77295	1.30461
3513.84439	1.31400
3511.91583	1.32717
3509.98726	1.33970
3508.05870	1.34539
3506.13013	1.34752
3504.20157	1.35425
3502.27300	1.36580
3500.34444	1.37781
3498.41587	1.38921
3496.48731	1.39728
3494.55875	1.40039
3492.63018	1.40321
3490.70162	1.41043
3488.77305	1.42166
3486.84449	1.43384
3484.91592	1.44356
3482.98736	1.44822
3481.05879	1.44901
3479.13023	1.44966
3477.20167	1.45187
3475.27310	1.45610
3473.34454	1.46308
3471.41597	1.47163
3469.48741	1.47770
3467.55884	1.47892
3465.63028	1.48077
3463.70171	1.49073
3461.77315	1.50371
3459.84459	1.50739
3457.91602	1.50381
3455.98746	1.50465
3454.05889	1.51088
3452.13033	1.51552
3450.20176	1.51962
3448.27320	1.52832
3446.34464	1.53922
3444.41607	1.54642
3442.48751	1.54813
3440.55894	1.54624
3438.63038	1.54603
3436.70181	1.54931
3434.77325	1.55276
3432.84468	1.55559
3430.91612	1.55655
3428.98756	1.55407
3427.05899	1.55354
3425.13043	1.55761
3423.20186	1.56099
3421.27330	1.56272
3419.34473	1.56484
3417.41617	1.56704
3415.48760	1.56964
3413.55904	1.56777
3411.63048	1.56161
3409.70191	1.56202
3407.77335	1.56871
3405.84478	1.57522
3403.91622	1.58236
3401.98765	1.58745
3400.05909	1.58720
3398.13052	1.58504
3396.20196	1.58265
3394.27340	1.58088
3392.34483	1.58169
3390.41627	1.58344
3388.48770	1.58718
3386.55914	1.59592
3384.63057	1.60405
3382.70201	1.60603
3380.77344	1.60766
3378.84488	1.61341
3376.91632	1.61735
3374.98775	1.61566
3373.05919	1.61375
3371.13062	1.61503
3369.20206	1.61925
3367.27349	1.62622
3365.34493	1.63193
3363.41636	1.63408
3361.48780	1.63533
3359.55924	1.63479
3357.63067	1.63296
3355.70211	1.63793
3353.77354	1.65396
3351.84498	1.66809
3349.91641	1.66499
3347.98785	1.65552
3346.05928	1.65639
3344.13072	1.66443
3342.20216	1.67249
3340.27359	1.68028
3338.34503	1.68543
3336.41646	1.68498
3334.48790	1.68435
3332.55933	1.68721
3330.63077	1.68906
3328.70220	1.69255
3326.77364	1.69900
3324.84508	1.69819
3322.91651	1.69249
3320.98795	1.69525
3319.05938	1.70467
3317.13082	1.71039
3315.20225	1.71485
3313.27369	1.72382
3311.34513	1.73112
3309.41656	1.73088
3307.48800	1.72808
3305.55943	1.72872
3303.63087	1.73230
3301.70230	1.73875
3299.77374	1.74850
3297.84517	1.75583
3295.91661	1.75893
3293.98805	1.76320
3292.05948	1.76589
3290.13092	1.75858
3288.20235	1.74753
3286.27379	1.74605
3284.34522	1.75137
3282.41666	1.75015
3280.48809	1.74211
3278.55953	1.73845
3276.63097	1.73847
3274.70240	1.73445
3272.77384	1.72812
3270.84527	1.72203
3268.91671	1.71625
3266.98814	1.71348
3265.05958	1.71637
3263.13101	1.71777
3261.20245	1.70615
3259.27389	1.69066
3257.34532	1.68696
3255.41676	1.68931
3253.48819	1.68537
3251.55963	1.67872
3249.63106	1.67940
3247.70250	1.68536
3245.77393	1.68344
3243.84537	1.66817
3241.91681	1.64976
3239.98824	1.63553
3238.05968	1.62599
3236.13111	1.62339
3234.20255	1.62306
3232.27398	1.61702
3230.34542	1.60974
3228.41685	1.60664
3226.48829	1.60423
3224.55973	1.59829
3222.63116	1.58982
3220.70260	1.58470
3218.77403	1.58180
3216.84547	1.57283
3214.91690	1.56224
3212.98834	1.55966
3211.05977	1.55845
3209.13121	1.54938
3207.20265	1.54019
3205.27408	1.53978
3203.34552	1.54263
3201.41695	1.53986
3199.48839	1.53248
3197.55982	1.52617
3195.63126	1.52332
3193.70269	1.52240
3191.77413	1.51923
3189.84557	1.51191
3187.91700	1.50359
3185.98844	1.49845
3184.05987	1.49705
3182.13131	1.49516
3180.20274	1.49079
3178.27418	1.48652
3176.34562	1.48176
3174.41705	1.47576
3172.48849	1.47187
3170.55992	1.46924
3168.63136	1.46518
3166.70279	1.46106
3164.77423	1.45604
3162.84566	1.44891
3160.91710	1.44193
3158.98854	1.43677
3157.05997	1.43323
3155.13141	1.42890
3153.20284	1.42324
3151.27428	1.42014
3149.34571	1.41910
3147.41715	1.41481
3145.48858	1.40876
3143.56002	1.40587
3141.63146	1.40479
3139.70289	1.40273
3137.77433	1.40016
3135.84576	1.39788
3133.91720	1.39624
3131.98863	1.39656
3130.06007	1.39927
3128.13150	1.40148
3126.20294	1.40073
3124.27438	1.39746
3122.34581	1.39458
3120.41725	1.39578
3118.48868	1.39849
3116.56012	1.39743
3114.63155	1.39593
3112.70299	1.39808
3110.77442	1.39901
3108.84586	1.39747
3106.91730	1.39853
3104.98873	1.40047
3103.06017	1.40047
3101.13160	1.40007
3099.20304	1.39842
3097.27447	1.39450
3095.34591	1.38956
3093.41734	1.38677
3091.48878	1.38750
3089.56022	1.38733
3087.63165	1.38373
3085.70309	1.38059
3083.77452	1.38006
3081.84596	1.37920
3079.91739	1.37611
3077.98883	1.37197
3076.06026	1.36791
3074.13170	1.36484
3072.20314	1.36225
3070.27457	1.35915
3068.34601	1.35590
3066.41744	1.35282
3064.48888	1.35093
3062.56031	1.34922
3060.63175	1.34518
3058.70318	1.34130
3056.77462	1.33982
3054.84606	1.33896
3052.91749	1.33786
3050.98893	1.33484
3049.06036	1.32888
3047.13180	1.32316
3045.20323	1.31903
3043.27467	1.31463
3041.34610	1.30986
3039.41754	1.30555
3037.48898	1.30145
3035.56041	1.29805
3033.63185	1.29629
3031.70328	1.29511
3029.77472	1.29206
3027.84615	1.28638
3025.91759	1.28002
3023.98903	1.27533
3022.06046	1.27311
3020.13190	1.27165
3018.20333	1.26820
3016.27477	1.26335
3014.34620	1.25979
3012.41764	1.25733
3010.48907	1.25388
3008.56051	1.25037
3006.63195	1.24960
3004.70338	1.25058
3002.77482	1.25053
3000.84625	1.24947
2998.91769	1.24862
2996.98912	1.24903
2995.06056	1.25122
2993.13199	1.25424
2991.20343	1.25672
2989.27487	1.25962
2987.34630	1.26439
2985.41774	1.26973
2983.48917	1.27579
2981.56061	1.28517
2979.63204	1.29626
2977.70348	1.30540
2975.77491	1.31262
2973.84635	1.31912
2971.91779	1.32589
2969.98922	1.33296
2968.06066	1.34001
2966.13209	1.34942
2964.20353	1.35961
2962.27496	1.36440
2960.34640	1.36313
2958.41783	1.35821
2956.48927	1.35248
2954.56071	1.34891
2952.63214	1.34518
2950.70358	1.34025
2948.77501	1.33710
2946.84645	1.33541
2944.91788	1.33566
2942.98932	1.34105
2941.06075	1.35082
2939.13219	1.36169
2937.20363	1.37209
2935.27506	1.38165
2933.34650	1.38959
2931.41793	1.39560
2929.48937	1.40152
2927.56080	1.40793
2925.63224	1.41168
2923.70367	1.41277
2921.77511	1.41600
2919.84655	1.41978
2917.91798	1.41476
2915.98942	1.39746
2914.06085	1.37414
2912.13229	1.35240
2910.20372	1.33440
2908.27516	1.31771
2906.34659	1.30306
2904.41803	1.29385
2902.48947	1.28813
2900.56090	1.28200
2898.63234	1.27662
2896.70377	1.27369
2894.77521	1.27021
2892.84664	1.26334
2890.91808	1.25539
2888.98952	1.24985
2887.06095	1.24710
2885.13239	1.24552
2883.20382	1.24446
2881.27526	1.24536
2879.34669	1.24858
2877.41813	1.25185
2875.48956	1.25312
2873.56100	1.25130
2871.63244	1.24632
2869.70387	1.23997
2867.77531	1.23367
2865.84674	1.22769
2863.91818	1.22334
2861.98961	1.22176
2860.06105	1.22259
2858.13248	1.22543
2856.20392	1.22998
2854.27536	1.23566
2852.34679	1.24018
2850.41823	1.23819
2848.48966	1.22546
2846.56110	1.20418
2844.63253	1.18133
2842.70397	1.16283
2840.77540	1.14958
2838.84684	1.13932
2836.91828	1.13101
2834.98971	1.12475
2833.06115	1.11976
2831.13258	1.11458
2829.20402	1.10934
2827.27545	1.10565
2825.34689	1.10252
2823.41832	1.09769
2821.48976	1.09202
2819.56120	1.08771
2817.63263	1.08481
2815.70407	1.08194
2813.77550	1.07827
2811.84694	1.07389
2809.91837	1.06980
2807.98981	1.06670
2806.06124	1.06391
2804.13268	1.06025
2802.20412	1.05543
2800.27555	1.05119
2798.34699	1.04887
2796.41842	1.04739
2794.48986	1.04618
2792.56129	1.04539
2790.63273	1.04440
2788.70416	1.04279
2786.77560	1.04037
2784.84704	1.03705
2782.91847	1.03373
2780.98991	1.03133
2779.06134	1.02983
2777.13278	1.02879
2775.20421	1.02741
2773.27565	1.02511
2771.34708	1.02223
2769.41852	1.01937
2767.48996	1.01675
2765.56139	1.01409
2763.63283	1.01178
2761.70426	1.01011
2759.77570	1.00815
2757.84713	1.00593
2755.91857	1.00426
2753.99001	1.00295
2752.06144	1.00169
2750.13288	1.00019
2748.20431	0.99811
2746.27575	0.99627
2744.34718	0.99500
2742.41862	0.99340
2740.49005	0.99119
2738.56149	0.98906
2736.63293	0.98754
2734.70436	0.98616
2732.77580	0.98419
2730.84723	0.98223
2728.91867	0.98109
2726.99010	0.97987
2725.06154	0.97744
2723.13297	0.97430
2721.20441	0.97170
2719.27585	0.96973
2717.34728	0.96784
2715.41872	0.96626
2713.49015	0.96516
2711.56159	0.96416
2709.63302	0.96285
2707.70446	0.96087
2705.77589	0.95838
2703.84733	0.95663
2701.91877	0.95578
2699.99020	0.95443
2698.06164	0.95268
2696.13307	0.95172
2694.20451	0.95107
2692.27594	0.94990
2690.34738	0.94835
2688.41881	0.94669
2686.49025	0.94508
2684.56169	0.94362
2682.63312	0.94223
2680.70456	0.94047
2678.77599	0.93823
2676.84743	0.93603
2674.91886	0.93424
2672.99030	0.93294
2671.06173	0.93218
2669.13317	0.93175
2667.20461	0.93087
2665.27604	0.92934
2663.34748	0.92841
2661.41891	0.92866
2659.49035	0.92861
2657.56178	0.92699
2655.63322	0.92462
2653.70465	0.92278
2651.77609	0.92137
2649.84753	0.92006
2647.91896	0.91942
2645.99040	0.91930
2644.06183	0.91826
2642.13327	0.91667
2640.20470	0.91604
2638.27614	0.91532
2636.34757	0.91346
2634.41901	0.91170
2632.49045	0.91100
2630.56188	0.91082
2628.63332	0.90999
2626.70475	0.90838
2624.77619	0.90686
2622.84762	0.90592
2620.91906	0.90531
2618.99049	0.90435
2617.06193	0.90264
2615.13337	0.90082
2613.20480	0.89973
2611.27624	0.89882
2609.34767	0.89722
2607.41911	0.89557
2605.49054	0.89462
2603.56198	0.89400
2601.63342	0.89298
2599.70485	0.89156
2597.77629	0.89039
2595.84772	0.88933
2593.91916	0.88777
2591.99059	0.88604
2590.06203	0.88449
2588.13346	0.88314
2586.20490	0.88236
2584.27634	0.88175
2582.34777	0.88033
2580.41921	0.87852
2578.49064	0.87703
2576.56208	0.87575
2574.63351	0.87464
2572.70495	0.87354
2570.77638	0.87221
2568.84782	0.87130
2566.91926	0.87104
2564.99069	0.87088
2563.06213	0.87052
2561.13356	0.86963
2559.20500	0.86849
2557.27643	0.86780
2555.34787	0.86755
2553.41930	0.86730
2551.49074	0.86663
2549.56218	0.86529
2547.63361	0.86355
2545.70505	0.86205
2543.77648	0.86110
2541.84792	0.86055
2539.91935	0.86019
2537.99079	0.85955
2536.06222	0.85856
2534.13366	0.85794
2532.20510	0.85770
2530.27653	0.85690
2528.34797	0.85555
2526.41940	0.85439
2524.49084	0.85355
2522.56227	0.85299
2520.63371	0.85252
2518.70514	0.85167
2516.77658	0.85043
2514.84802	0.84882
2512.91945	0.84709
2510.99089	0.84566
2509.06232	0.84452
2507.13376	0.84352
2505.20519	0.84283
2503.27663	0.84236
2501.34806	0.84145
2499.41950	0.84013
2497.49094	0.83911
2495.56237	0.83832
2493.63381	0.83750
2491.70524	0.83666
2489.77668	0.83566
2487.84811	0.83461
2485.91955	0.83355
2483.99098	0.83209
2482.06242	0.83036
2480.13386	0.82923
2478.20529	0.82880
2476.27673	0.82819
2474.34816	0.82701
2472.41960	0.82577
2470.49103	0.82485
2468.56247	0.82401
2466.63391	0.82298
2464.70534	0.82192
2462.77678	0.82087
2460.84821	0.81954
2458.91965	0.81799
2456.99108	0.81686
2455.06252	0.81624
2453.13395	0.81545
2451.20539	0.81424
2449.27683	0.81302
2447.34826	0.81195
2445.41970	0.81096
2443.49113	0.81002
2441.56257	0.80919
2439.63400	0.80873
2437.70544	0.80843
2435.77687	0.80730
2433.84831	0.80527
2431.91975	0.80350
2429.99118	0.80263
2428.06262	0.80177
2426.13405	0.80042
2424.20549	0.79917
2422.27692	0.79817
2420.34836	0.79737
2418.41979	0.79685
2416.49123	0.79624
2414.56267	0.79558
2412.63410	0.79481
2410.70554	0.79363
2408.77697	0.79263
2406.84841	0.79204
2404.91984	0.79128
2402.99128	0.79025
2401.06271	0.78928
2399.13415	0.78837
2397.20559	0.78733
2395.27702	0.78658
2393.34846	0.78638
2391.41989	0.78603
2389.49133	0.78512
2387.56276	0.78394
2385.63420	0.78295
2383.70563	0.78285
2381.77707	0.78411
2379.84851	0.78655
2377.91994	0.78933
2375.99138	0.79173
2374.06281	0.79387
2372.13425	0.79602
2370.20568	0.79821
2368.27712	0.80091
2366.34855	0.80391
2364.41999	0.80639
2362.49143	0.80847
2360.56286	0.80859
2358.63430	0.80505
2356.70573	0.79998
2354.77717	0.79598
2352.84860	0.79307
2350.92004	0.79116
2348.99147	0.79101
2347.06291	0.79255
2345.13435	0.79427
2343.20578	0.79397
2341.27722	0.79218
2339.34865	0.79155
2337.42009	0.79286
2335.49152	0.79346
2333.56296	0.79113
2331.63440	0.78804
2329.70583	0.78658
2327.77727	0.78524
2325.84870	0.78305
2323.92014	0.78085
2321.99157	0.77837
2320.06301	0.77498
2318.13444	0.77127
2316.20588	0.76828
2314.27732	0.76648
2312.34875	0.76510
2310.42019	0.76290
2308.49162	0.75998
2306.56306	0.75773
2304.63449	0.75667
2302.70593	0.75590
2300.77736	0.75484
2298.84880	0.75364
2296.92024	0.75248
2294.99167	0.75143
2293.06311	0.75045
2291.13454	0.74957
2289.20598	0.74892
2287.27741	0.74822
2285.34885	0.74717
2283.42028	0.74628
2281.49172	0.74603
2279.56316	0.74609
2277.63459	0.74613
2275.70603	0.74649
2273.77746	0.74704
2271.84890	0.74697
2269.92033	0.74614
2267.99177	0.74505
2266.06320	0.74434
2264.13464	0.74428
2262.20608	0.74415
2260.27751	0.74342
2258.34895	0.74258
2256.42038	0.74188
2254.49182	0.74086
2252.56325	0.73950
2250.63469	0.73838
2248.70612	0.73765
2246.77756	0.73684
2244.84900	0.73573
2242.92043	0.73459
2240.99187	0.73350
2239.06330	0.73226
2237.13474	0.73101
2235.20617	0.72990
2233.27761	0.72886
2231.34904	0.72798
2229.42048	0.72714
2227.49192	0.72629
2225.56335	0.72578
2223.63479	0.72563
2221.70622	0.72523
2219.77766	0.72418
2217.84909	0.72305
2215.92053	0.72225
2213.99196	0.72164
2212.06340	0.72124
2210.13484	0.72094
2208.20627	0.72073
2206.27771	0.72068
2204.34914	0.72039
2202.42058	0.71973
2200.49201	0.71903
2198.56345	0.71820
2196.63488	0.71734
2194.70632	0.71680
2192.77776	0.71638
2190.84919	0.71608
2188.92063	0.71611
2186.99206	0.71583
2185.06350	0.71480
2183.13493	0.71381
2181.20637	0.71339
2179.27781	0.71324
2177.34924	0.71299
2175.42068	0.71243
2173.49211	0.71167
2171.56355	0.71086
2169.63498	0.70994
2167.70642	0.70899
2165.77785	0.70813
2163.84929	0.70737
2161.92073	0.70671
2159.99216	0.70601
2158.06360	0.70508
2156.13503	0.70384
2154.20647	0.70249
2152.27790	0.70151
2150.34934	0.70084
2148.42077	0.69975
2146.49221	0.69822
2144.56365	0.69687
2142.63508	0.69584
2140.70652	0.69493
2138.77795	0.69420
2136.84939	0.69364
2134.92082	0.69307
2132.99226	0.69230
2131.06369	0.69144
2129.13513	0.69068
2127.20657	0.68992
2125.27800	0.68913
2123.34944	0.68834
2121.42087	0.68747
2119.49231	0.68631
2117.56374	0.68476
2115.63518	0.68308
2113.70661	0.68150
2111.77805	0.68028
2109.84949	0.67952
2107.92092	0.67850
2105.99236	0.67688
2104.06379	0.67540
2102.13523	0.67434
2100.20666	0.67324
2098.27810	0.67218
2096.34953	0.67140
2094.42097	0.67049
2092.49241	0.66920
2090.56384	0.66803
2088.63528	0.66741
2086.70671	0.66729
2084.77815	0.66733
2082.84958	0.66715
2080.92102	0.66670
2078.99245	0.66609
2077.06389	0.66554
2075.13533	0.66513
2073.20676	0.66471
2071.27820	0.66435
2069.34963	0.66421
2067.42107	0.66399
2065.49250	0.66339
2063.56394	0.66267
2061.63537	0.66218
2059.70681	0.66167
2057.77825	0.66056
2055.84968	0.65929
2053.92112	0.65844
2051.99255	0.65748
2050.06399	0.65605
2048.13542	0.65443
2046.20686	0.65274
2044.27830	0.65108
2042.34973	0.64939
2040.42117	0.64746
2038.49260	0.64527
2036.56404	0.64291
2034.63547	0.64061
2032.70691	0.63868
2030.77834	0.63693
2028.84978	0.63483
2026.92122	0.63255
2024.99265	0.63068
2023.06409	0.62913
2021.13552	0.62754
2019.20696	0.62597
2017.27839	0.62446
2015.34983	0.62292
2013.42126	0.62166
2011.49270	0.62093
2009.56414	0.62040
2007.63557	0.61948
2005.70701	0.61838
2003.77844	0.61782
2001.84988	0.61793
1999.92131	0.61824
1997.99275	0.61831
1996.06418	0.61824
1994.13562	0.61842
1992.20706	0.61865
1990.27849	0.61840
1988.34993	0.61789
1986.42136	0.61761
1984.49280	0.61771
1982.56423	0.61776
1980.63567	0.61745
1978.70710	0.61724
1976.77854	0.61728
1974.84998	0.61712
1972.92141	0.61665
1970.99285	0.61621
1969.06428	0.61594
1967.13572	0.61532
1965.20715	0.61417
1963.27859	0.61300
1961.35002	0.61181
1959.42146	0.61048
1957.49290	0.60901
1955.56433	0.60734
1953.63577	0.60558
1951.70720	0.60374
1949.77864	0.60173
1947.85007	0.59964
1945.92151	0.59775
1943.99294	0.59570
1942.06438	0.59275
1940.13582	0.58974
1938.20725	0.58757
1936.27869	0.58591
1934.35012	0.58444
1932.42156	0.58308
1930.49299	0.58177
1928.56443	0.58064
1926.63586	0.58019
1924.70730	0.58042
1922.77874	0.58054
1920.85017	0.58029
1918.92161	0.58024
1916.99304	0.58055
1915.06448	0.58108
1913.13591	0.58174
1911.20735	0.58237
1909.27878	0.58276
1907.35022	0.58294
1905.42166	0.58302
1903.49309	0.58297
1901.56453	0.58292
1899.63596	0.58311
1897.70740	0.58342
1895.77883	0.58349
1893.85027	0.58329
1891.92171	0.58317
1889.99314	0.58298
1888.06458	0.58253
1886.13601	0.58231
1884.20745	0.58213
1882.27888	0.58159
1880.35032	0.58079
1878.42175	0.57993
1876.49319	0.57911
1874.56463	0.57851
1872.63606	0.57844
1870.70750	0.57854
1868.77893	0.57726
1866.85037	0.57419
1864.92180	0.57148
1862.99324	0.56986
1861.06467	0.56867
1859.13611	0.56735
1857.20755	0.56580
1855.27898	0.56409
1853.35042	0.56245
1851.42185	0.56152
1849.49329	0.56141
1847.56472	0.56156
1845.63616	0.56134
1843.70759	0.56032
1841.77903	0.55946
1839.85047	0.55939
1837.92190	0.55965
1835.99334	0.55992
1834.06477	0.56046
1832.13621	0.56162
1830.20764	0.56281
1828.27908	0.56335
1826.35051	0.56362
1824.42195	0.56367
1822.49339	0.56350
1820.56482	0.56339
1818.63626	0.56343
1816.70769	0.56367
1814.77913	0.56416
1812.85056	0.56466
1810.92200	0.56480
1808.99343	0.56468
1807.06487	0.56474
1805.13631	0.56535
1803.20774	0.56623
1801.27918	0.56671
1799.35061	0.56688
1797.42205	0.56766
1795.49348	0.56899
1793.56492	0.56983
1791.63635	0.56957
1789.70779	0.56925
1787.77923	0.56955
1785.85066	0.57000
1783.92210	0.57058
1781.99353	0.57145
1780.06497	0.57220
1778.13640	0.57283
1776.20784	0.57383
1774.27927	0.57526
1772.35071	0.57604
1770.42215	0.57581
1768.49358	0.57626
1766.56502	0.57759
1764.63645	0.57957
1762.70789	0.58239
1760.77932	0.58582
1758.85076	0.58932
1756.92220	0.59379
1754.99363	0.59935
1753.06507	0.60574
1751.13650	0.61433
1749.20794	0.62442
1747.27937	0.63291
1745.35081	0.63963
1743.42224	0.64550
1741.49368	0.65091
1739.56512	0.65574
1737.63655	0.65943
1735.70799	0.66239
1733.77942	0.66513
1731.85086	0.66701
1729.92229	0.66884
1727.99373	0.67122
1726.06516	0.67453
1724.13660	0.67950
1722.20804	0.68527
1720.27947	0.69148
1718.35091	0.70091
1716.42234	0.71517
1714.49378	0.72782
1712.56521	0.73970
1710.63665	0.75438
1708.70808	0.77272
1706.77952	0.79877
1704.85096	0.83273
1702.92239	0.86542
1700.99383	0.91162
1699.06526	0.98260
1697.13670	1.04871
1695.20813	1.11402
1693.27957	1.16468
1691.35100	1.20510
1689.42244	1.25254
1687.49388	1.29724
1685.56531	1.34291
1683.63675	1.41336
1681.70818	1.46586
1679.77962	1.49191
1677.85105	1.51273
1675.92249	1.53767
1673.99392	1.56592
1672.06536	1.58847
1670.13680	1.60901
1668.20823	1.62925
1666.27967	1.63989
1664.35110	1.64701
1662.42254	1.65522
1660.49397	1.66190
1658.56541	1.66758
1656.63684	1.67098
1654.70828	1.66892
1652.77972	1.66125
1650.85115	1.66318
1648.92259	1.66783
1646.99402	1.66497
1645.06546	1.65541
1643.13689	1.64878
1641.20833	1.64506
1639.27976	1.64129
1637.35120	1.63446
1635.42264	1.62262
1633.49407	1.61541
1631.56551	1.61178
1629.63694	1.60631
1627.70838	1.60025
1625.77981	1.59299
1623.85125	1.57849
1621.92269	1.55740
1619.99412	1.54009
1618.06556	1.51944
1616.13699	1.48409
1614.20843	1.45386
1612.27986	1.43087
1610.35130	1.40574
1608.42273	1.37940
1606.49417	1.35679
1604.56561	1.33898
1602.63704	1.32450
1600.70848	1.31358
1598.77991	1.30605
1596.85135	1.30036
1594.92278	1.29506
1592.99422	1.29145
1591.06565	1.29193
1589.13709	1.29559
1587.20853	1.30100
1585.27996	1.30893
1583.35140	1.32011
1581.42283	1.33326
1579.49427	1.34673
1577.56570	1.36322
1575.63714	1.38424
1573.70857	1.39841
1571.78001	1.40919
1569.85145	1.42716
1567.92288	1.44918
1565.99432	1.46755
1564.06575	1.48339
1562.13719	1.49357
1560.20862	1.50211
1558.28006	1.52587
1556.35149	1.54337
1554.42293	1.54798
1552.49437	1.54995
1550.56580	1.55175
1548.63724	1.55120
1546.70867	1.54966
1544.78011	1.54859
1542.85154	1.54589
1540.92298	1.53411
1538.99441	1.51293
1537.06585	1.50153
1535.13729	1.49384
1533.20872	1.48512
1531.28016	1.47607
1529.35159	1.46738
1527.42303	1.45815
1525.49446	1.45053
1523.56590	1.44652
1521.63733	1.44169
1519.70877	1.43634
1517.78021	1.42859
1515.85164	1.41399
1513.92308	1.39690
1511.99451	1.37942
1510.06595	1.36148
1508.13738	1.33279
1506.20882	1.28385
1504.28025	1.25716
1502.35169	1.24038
1500.42313	1.22059
1498.49456	1.19358
1496.56600	1.15977
1494.63743	1.13377
1492.70887	1.11717
1490.78030	1.09816
1488.85174	1.07232
1486.92317	1.05315
1484.99461	1.04246
1483.06605	1.03565
1481.13748	1.03184
1479.20892	1.03197
1477.28035	1.03703
1475.35179	1.04829
1473.42322	1.06822
1471.49466	1.08928
1469.56610	1.10083
1467.63753	1.10919
1465.70897	1.11996
1463.78040	1.13107
1461.85184	1.13777
1459.92327	1.14239
1457.99471	1.14896
1456.06614	1.15585
1454.13758	1.15830
1452.20902	1.15857
1450.28045	1.15722
1448.35189	1.15363
1446.42332	1.14874
1444.49476	1.14391
1442.56619	1.13864
1440.63763	1.13330
1438.70906	1.12714
1436.78050	1.11701
1434.85194	1.10639
1432.92337	1.09996
1430.99481	1.09514
1429.06624	1.09086
1427.13768	1.08866
1425.20911	1.08957
1423.28055	1.09357
1421.35198	1.09867
1419.42342	1.10438
1417.49486	1.11046
1415.56629	1.11458
1413.63773	1.11737
1411.70916	1.11989
1409.78060	1.12245
1407.85203	1.12522
1405.92347	1.12878
1403.99490	1.13188
1402.06634	1.13314
1400.13778	1.13377
1398.20921	1.13370
1396.28065	1.13190
1394.35208	1.12904
1392.42352	1.12719
1390.49495	1.12748
1388.56639	1.13085
1386.63782	1.13809
1384.70926	1.14687
1382.78070	1.15459
1380.85213	1.15965
1378.92357	1.16133
1376.99500	1.15891
1375.06644	1.14921
1373.13787	1.13268
1371.20931	1.11588
1369.28074	1.09832
1367.35218	1.07908
1365.42362	1.06167
1363.49505	1.04521
1361.56649	1.02963
1359.63792	1.01910
1357.70936	1.01298
1355.78079	1.00875
1353.85223	1.00599
1351.92366	1.00501
1349.99510	1.00513
1348.06654	1.00551
1346.13797	1.00597
1344.20941	1.00669
1342.28084	1.00779
1340.35228	1.00922
1338.42371	1.01070
1336.49515	1.01336
1334.56659	1.01863
1332.63802	1.02617
1330.70946	1.03462
1328.78089	1.04227
1326.85233	1.04787
1324.92376	1.05153
1322.99520	1.05436
1321.06663	1.05770
1319.13807	1.06179
1317.20951	1.06492
1315.28094	1.06632
1313.35238	1.06702
1311.42381	1.06769
1309.49525	1.06834
1307.56668	1.06802
1305.63812	1.06597
1303.70955	1.06331
1301.78099	1.06060
1299.85243	1.05658
1297.92386	1.05061
1295.99530	1.04409
1294.06673	1.03871
1292.13817	1.03520
1290.20960	1.03347
1288.28104	1.03248
1286.35247	1.03131
1284.42391	1.02955
1282.49535	1.02751
1280.56678	1.02655
1278.63822	1.02718
1276.70965	1.02875
1274.78109	1.03095
1272.85252	1.03381
1270.92396	1.03728
1268.99539	1.04179
1267.06683	1.04783
1265.13827	1.05509
1263.20970	1.06181
1261.28114	1.06587
1259.35257	1.06776
1257.42401	1.06980
1255.49544	1.07261
1253.56688	1.07581
1251.63831	1.07949
1249.70975	1.08306
1247.78119	1.08573
1245.85262	1.08790
1243.92406	1.08975
1241.99549	1.09065
1240.06693	1.09036
1238.13836	1.08845
1236.20980	1.08465
1234.28123	1.07966
1232.35267	1.07380
1230.42411	1.06678
1228.49554	1.05869
1226.56698	1.04952
1224.63841	1.03922
1222.70985	1.02844
1220.78128	1.01770
1218.85272	1.00747
1216.92415	0.99928
1214.99559	0.99398
1213.06703	0.99084
1211.13846	0.98914
1209.20990	0.98855
1207.28133	0.98817
1205.35277	0.98640
1203.42420	0.98205
1201.49564	0.97512
1199.56708	0.96659
1197.63851	0.95772
1195.70995	0.94924
1193.78138	0.94138
1191.85282	0.93426
1189.92425	0.92826
1187.99569	0.92410
1186.06712	0.92156
1184.13856	0.92031
1182.21000	0.92100
1180.28143	0.92386
1178.35287	0.92881
1176.42430	0.93610
1174.49574	0.94538
1172.56717	0.95589
1170.63861	0.96764
1168.71004	0.98142
1166.78148	0.99777
1164.85292	1.01588
1162.92435	1.03366
1160.99579	1.04855
1159.06722	1.05784
1157.13866	1.06020
1155.21009	1.05659
1153.28153	1.04849
1151.35296	1.03733
1149.42440	1.02459
1147.49584	1.01151
1145.56727	1.00010
1143.63871	0.99237
1141.71014	0.98886
1139.78158	0.98877
1137.85301	0.99081
1135.92445	0.99500
1133.99588	1.00211
1132.06732	1.01200
1130.13876	1.02499
1128.21019	1.04109
1126.28163	1.05785
1124.35306	1.07324
1122.42450	1.08800
1120.49593	1.10236
1118.56737	1.11416
1116.63880	1.12158
1114.71024	1.12500
1112.78168	1.12557
1110.85311	1.12344
1108.92455	1.11871
1106.99598	1.11306
1105.06742	1.10829
1103.13885	1.10496
1101.21029	1.10286
1099.28172	1.10182
1097.35316	1.10282
1095.42460	1.10685
1093.49603	1.11343
1091.56747	1.12292
1089.63890	1.13609
1087.71034	1.15171
1085.78177	1.16881
1083.85321	1.18747
1081.92464	1.20605
1079.99608	1.22076
1078.06752	1.22849
1076.13895	1.22999
1074.21039	1.22748
1072.28182	1.22200
1070.35326	1.21433
1068.42469	1.20566
1066.49613	1.19728
1064.56756	1.18878
1062.63900	1.17976
1060.71044	1.17112
1058.78187	1.16242
1056.85331	1.15290
1054.92474	1.14373
1052.99618	1.13590
1051.06761	1.12906
1049.13905	1.12331
1047.21049	1.11952
1045.28192	1.11826
1043.35336	1.11932
1041.42479	1.12217
1039.49623	1.12606
1037.56766	1.12996
1035.63910	1.13217
1033.71053	1.13191
1031.78197	1.13029
1029.85341	1.12688
1027.92484	1.11981
1025.99628	1.10930
1024.06771	1.09728
1022.13915	1.08619
1020.21058	1.07745
1018.28202	1.07077
1016.35345	1.06434
1014.42489	1.05499
1012.49633	1.04131
1010.56776	1.02393
1008.63920	1.00343
1006.71063	0.98150
1004.78207	0.96028
1002.85350	0.94093
1000.92494	0.92382
998.99637	0.90926
997.06781	0.89791
995.13925	0.88962
993.21068	0.88235
991.28212	0.87437
989.35355	0.86575
987.42499	0.85720
985.49642	0.84952
983.56786	0.84334
981.63929	0.83906
979.71073	0.83715
977.78217	0.83720
975.85360	0.83727
973.92504	0.83540
971.99647	0.83097
970.06791	0.82412
968.13934	0.81529
966.21078	0.80577
964.28221	0.79735
962.35365	0.79186
960.42509	0.79077
958.49652	0.79403
956.56796	0.79903
954.63939	0.80104
952.71083	0.79673
950.78226	0.78682
948.85370	0.77435
946.92513	0.76189
944.99657	0.75059
943.06801	0.74102
941.13944	0.73344
939.21088	0.72726
937.28231	0.72173
935.35375	0.71672
933.42518	0.71238
931.49662	0.70893
929.56805	0.70673
927.63949	0.70591
925.71093	0.70616
923.78236	0.70709
921.85380	0.70835
919.92523	0.70962
917.99667	0.71067
916.06810	0.71123
914.13954	0.71110
912.21098	0.71089
910.28241	0.71162
908.35385	0.71385
906.42528	0.71747
904.49672	0.72218
902.56815	0.72766
900.63959	0.73326
898.71102	0.73814
896.78246	0.74182
894.85390	0.74446
892.92533	0.74633
890.99677	0.74720
889.06820	0.74670
887.13964	0.74544
885.21107	0.74442
883.28251	0.74363
881.35394	0.74249
879.42538	0.74075
877.49682	0.73809
875.56825	0.73449
873.63969	0.73061
871.71112	0.72670
869.78256	0.72240
867.85399	0.71772
865.92543	0.71340
863.99686	0.71002
862.06830	0.70742
860.13974	0.70598
858.21117	0.70659
856.28261	0.70885
854.35404	0.71146
852.42548	0.71408
850.49691	0.71711
848.56835	0.72028
846.63978	0.72315
844.71122	0.72619
842.78266	0.72993
840.85409	0.73369
838.92553	0.73639
836.99696	0.73841
835.06840	0.74073
833.13983	0.74309
831.21127	0.74498
829.28270	0.74651
827.35414	0.74763
825.42558	0.74834
823.49701	0.74906
821.56845	0.75003
819.63988	0.75108
817.71132	0.75266
815.78275	0.75529
813.85419	0.75847
811.92562	0.76108
809.99706	0.76276
808.06850	0.76475
806.13993	0.76765
804.21137	0.77022
802.28280	0.77145
800.35424	0.77176
798.42567	0.77178
796.49711	0.77150
794.56854	0.77095
792.63998	0.77052
790.71142	0.76988
788.78285	0.76864
786.85429	0.76756
784.92572	0.76748
782.99716	0.76793
781.06859	0.76828
779.14003	0.76926
777.21147	0.77126
775.28290	0.77344
773.35434	0.77536
771.42577	0.77719
769.49721	0.77957
767.56864	0.78314
765.64008	0.78668
763.71151	0.78934
761.78295	0.79219
759.85439	0.79558
757.92582	0.79867
755.99726	0.80122
754.06869	0.80386
752.14013	0.80644
750.21156	0.80800
748.28300	0.80852
746.35443	0.80856
744.42587	0.80814
742.49731	0.80730
740.56874	0.80653
738.64018	0.80592
736.71161	0.80533
734.78305	0.80558
732.85448	0.80774
730.92592	0.81156
728.99735	0.81527
727.06879	0.81843
725.14023	0.82312
723.21166	0.83015
721.28310	0.83802
719.35453	0.84542
717.42597	0.85110
715.49740	0.85498
713.56884	0.85898
711.64027	0.86372
709.71171	0.86800
707.78315	0.87155
705.85458	0.87439
703.92602	0.87631
701.99745	0.87755
700.06889	0.87755
698.14032	0.87588
696.21176	0.87345
694.28319	0.87096
692.35463	0.86867
690.42607	0.86697
688.49750	0.86580
686.56894	0.86527
684.64037	0.86578
682.71181	0.86654
680.78324	0.86589
678.85468	0.86416
676.92611	0.86377
674.99755	0.86502
673.06899	0.86600
671.14042	0.86629
669.21186	0.86594
667.28329	0.86415
665.35473	0.86213
663.42616	0.85901
661.49760	0.85383
659.56903	0.84909
657.64047	0.84574
655.71191	0.84169
653.78334	0.83828
651.85478	0.83723
649.92621	0.83586
647.99765	0.83296
646.06908	0.83071
644.14052	0.83045
642.21195	0.83188
640.28339	0.83427
638.35483	0.83819
636.42626	0.84313
634.49770	0.84689
632.56913	0.85005
630.64057	0.85477
628.71200	0.86125
626.78344	0.86804
624.85488	0.87249
622.92631	0.87413
620.99775	0.87589
619.06918	0.87861
617.14062	0.88010
615.21205	0.87994
613.28349	0.87979
611.35492	0.88112
609.42636	0.88380
607.49780	0.88536
605.56923	0.88485
603.64067	0.88548
601.71210	0.88860
599.78354	0.89031
