3997.91406	0.94897
3995.98550	0.94952
3994.05693	0.94896
3992.12837	0.94747
3990.19980	0.94629
3988.27124	0.94527
3986.34268	0.94506
3984.41411	0.94575
3982.48555	0.94627
3980.55698	0.94645
3978.62842	0.94655
3976.69985	0.94665
3974.77129	0.94632
3972.84272	0.94482
3970.91416	0.94170
3968.98560	0.93900
3967.05703	0.94060
3965.12847	0.94461
3963.19990	0.94533
3961.27134	0.94290
3959.34277	0.94062
3957.41421	0.93858
3955.48564	0.93779
3953.55708	0.94006
3951.62852	0.94320
3949.69995	0.94363
3947.77139	0.94172
3945.84282	0.94026
3943.91426	0.94015
3941.98569	0.94094
3940.05713	0.94229
3938.12856	0.94397
3936.20000	0.94499
3934.27144	0.94539
3932.34287	0.94532
3930.41431	0.94224
3928.48574	0.93808
3926.55718	0.93699
3924.62861	0.93730
3922.70005	0.93706
3920.77148	0.93705
3918.84292	0.93530
3916.91436	0.93154
3914.98579	0.93071
3913.05723	0.93286
3911.12866	0.93393
3909.20010	0.93411
3907.27153	0.93483
3905.34297	0.93312
3903.41440	0.92843
3901.48584	0.92616
3899.55728	0.92612
3897.62871	0.92683
3895.70015	0.92873
3893.77158	0.93003
3891.84302	0.92825
3889.91445	0.92721
3887.98589	0.93001
3886.05733	0.93327
3884.12876	0.93440
3882.20020	0.93300
3880.27163	0.92759
3878.34307	0.92370
3876.41450	0.92352
3874.48594	0.92421
3872.55737	0.92633
3870.62881	0.92659
3868.70025	0.92318
3866.77168	0.92202
3864.84312	0.92128
3862.91455	0.91854
3860.98599	0.91705
3859.05742	0.91771
3857.12886	0.92011
3855.20029	0.92314
3853.27173	0.92076
3851.34317	0.91581
3849.41460	0.91522
3847.48604	0.91671
3845.55747	0.91920
3843.62891	0.92084
3841.70034	0.91903
3839.77178	0.91527
3837.84321	0.91382
3835.91465	0.91610
3833.98609	0.91890
3832.05752	0.92006
3830.12896	0.92014
3828.20039	0.91929
3826.27183	0.91823
3824.34326	0.92012
3822.41470	0.92310
3820.48613	0.92098
3818.55757	0.91695
3816.62901	0.91286
3814.70044	0.90968
3812.77188	0.90993
3810.84331	0.91186
3808.91475	0.91363
3806.98618	0.91280
3805.05762	0.91261
3803.12905	0.91484
3801.20049	0.91253
3799.27193	0.90741
3797.34336	0.90376
3795.41480	0.90146
3793.48623	0.90204
3791.55767	0.90343
3789.62910	0.90381
3787.70054	0.90400
3785.77197	0.90364
3783.84341	0.90277
3781.91485	0.90325
3779.98628	0.90402
3778.05772	0.90353
3776.12915	0.90271
3774.20059	0.90213
3772.27202	0.90173
3770.34346	0.90141
3768.41489	0.90329
3766.48633	0.90606
3764.55777	0.90575
3762.62920	0.90493
3760.70064	0.90455
3758.77207	0.90067
3756.84351	0.89743
3754.91494	0.90051
3752.98638	0.90685
3751.05781	0.90642
3749.12925	0.90012
3747.20069	0.89834
3745.27212	0.89655
3743.34356	0.89488
3741.41499	0.89871
3739.48643	0.90506
3737.55786	0.90898
3735.62930	0.90635
3733.70074	0.90157
3731.77217	0.90035
3729.84361	0.90092
3727.91504	0.90082
3725.98648	0.89974
3724.05791	0.90006
3722.12935	0.89912
3720.20078	0.89469
3718.27222	0.89169
3716.34366	0.89231
3714.41509	0.89444
3712.48653	0.89504
3710.55796	0.89296
3708.62940	0.89202
3706.70083	0.89351
3704.77227	0.89600
3702.84370	0.89665
3700.91514	0.89560
3698.98658	0.89667
3697.05801	0.89857
3695.12945	0.89891
3693.20088	0.90010
3691.27232	0.90454
3689.34375	0.90686
3687.41519	0.90525
3685.48662	0.90555
3683.55806	0.90673
3681.62950	0.90778
3679.70093	0.90991
3677.77237	0.91205
3675.84380	0.90979
3673.91524	0.90907
3671.98667	0.91354
3670.05811	0.91591
3668.12954	0.91600
3666.20098	0.91912
3664.27242	0.92332
3662.34385	0.92635
3660.41529	0.92909
3658.48672	0.93256
3656.55816	0.93660
3654.62959	0.94194
3652.70103	0.94935
3650.77246	0.95835
3648.84390	0.96500
3646.91534	0.96591
3644.98677	0.96603
3643.05821	0.96893
3641.12964	0.97410
3639.20108	0.97845
3637.27251	0.98204
3635.34395	0.98732
3633.41538	0.99442
3631.48682	1.00167
3629.55826	1.00777
3627.62969	1.01108
3625.70113	1.01497
3623.77256	1.02027
3621.84400	1.02367
3619.91543	1.02413
3617.98687	1.02797
3616.05830	1.03699
3614.12974	1.04480
3612.20118	1.04855
3610.27261	1.05125
3608.34405	1.05521
3606.41548	1.06127
3604.48692	1.06945
3602.55835	1.07950
3600.62979	1.08868
3598.70123	1.09249
3596.77266	1.09283
3594.84410	1.09567
3592.91553	1.10339
3590.98697	1.11310
3589.05840	1.12296
3587.12984	1.13220
3585.20127	1.13860
3583.27271	1.14284
3581.34415	1.14746
3579.41558	1.15384
3577.48702	1.16185
3575.55845	1.17008
3573.62989	1.17680
3571.70132	1.18346
3569.77276	1.19040
3567.84419	1.19447
3565.91563	1.19840
3563.98707	1.20787
3562.05850	1.21823
3560.12994	1.22317
3558.20137	1.22486
3556.27281	1.23118
3554.34424	1.24314
3552.41568	1.25291
3550.48711	1.25592
3548.55855	1.26065
3546.62999	1.27065
3544.70142	1.27683
3542.77286	1.27862
3540.84429	1.28423
3538.91573	1.29499
3536.98716	1.30557
3535.05860	1.30851
3533.13003	1.30650
3531.20147	1.30887
3529.27291	1.31765
3527.34434	1.32871
3525.41578	1.33936
3523.48721	1.34929
3521.55865	1.35857
3519.63008	1.36754
3517.70152	1.37498
3515.77295	1.37945
3513.84439	1.38493
3511.91583	1.39578
3509.98726	1.40839
3508.05870	1.41573
3506.13013	1.42080
3504.20157	1.43125
3502.27300	1.44426
3500.34444	1.45444
3498.41587	1.46417
3496.48731	1.47389
3494.55875	1.48422
3492.63018	1.49543
3490.70162	1.50209
3488.77305	1.50369
3486.84449	1.50771
3484.91592	1.51621
3482.98736	1.52305
3481.05879	1.52543
3479.13023	1.52815
3477.20167	1.53035
3475.27310	1.52999
3473.34454	1.53568
3471.41597	1.55086
3469.48741	1.56555
3467.55884	1.56902
3465.63028	1.56404
3463.70171	1.56241
3461.77315	1.56599
3459.84459	1.56877
3457.91602	1.56875
3455.98746	1.56712
3454.05889	1.56610
3452.13033	1.57052
3450.20176	1.58044
3448.27320	1.58859
3446.34464	1.59247
3444.41607	1.59555
3442.48751	1.59960
3440.55894	1.60319
3438.63038	1.60476
3436.70181	1.60699
3434.77325	1.61006
3432.84468	1.61179
3430.91612	1.61409
3428.98756	1.61687
3427.05899	1.61781
3425.13043	1.61768
3423.20186	1.61704
3421.27330	1.61811
3419.34473	1.62313
3417.41617	1.62611
3415.48760	1.62348
3413.55904	1.61741
3411.63048	1.61123
3409.70191	1.61171
3407.77335	1.61577
3405.84478	1.61542
3403.91622	1.61837
3401.98765	1.63056
3400.05909	1.64001
3398.13052	1.63635
3396.20196	1.62823
3394.27340	1.62866
3392.34483	1.63621
3390.41627	1.64046
3388.48770	1.63676
3386.55914	1.63295
3384.63057	1.63769
3382.70201	1.64574
3380.77344	1.65140
3378.84488	1.65932
3376.91632	1.67091
3374.98775	1.67986
3373.05919	1.68231
3371.13062	1.68239
3369.20206	1.68310
3367.27349	1.68232
3365.34493	1.67843
3363.41636	1.67238
3361.48780	1.66737
3359.55924	1.66868
3357.63067	1.67992
3355.70211	1.69346
3353.77354	1.69797
3351.84498	1.69725
3349.91641	1.69842
3347.98785	1.69871
3346.05928	1.69827
3344.13072	1.70217
3342.20216	1.70754
3340.27359	1.71006
3338.34503	1.71425
3336.41646	1.72163
3334.48790	1.72807
3332.55933	1.73338
3330.63077	1.73498
3328.70220	1.73274
3326.77364	1.73768
3324.84508	1.75116
3322.91651	1.75988
3320.98795	1.75815
3319.05938	1.75088
3317.13082	1.74629
3315.20225	1.75231
3313.27369	1.76493
3311.34513	1.76971
3309.41656	1.76410
3307.48800	1.75980
3305.55943	1.76123
3303.63087	1.76190
3301.70230	1.76533
3299.77374	1.78266
3297.84517	1.80042
3295.91661	1.79388
3293.98805	1.77330
3292.05948	1.76329
3290.13092	1.76863
3288.20235	1.78111
3286.27379	1.79266
3284.34522	1.79660
3282.41666	1.78946
3280.48809	1.77982
3278.55953	1.78011
3276.63097	1.78438
3274.70240	1.77842
3272.77384	1.76885
3270.84527	1.76644
3268.91671	1.76669
3266.98814	1.77052
3265.05958	1.78220
3263.13101	1.78486
3261.20245	1.76812
3259.27389	1.75240
3257.34532	1.74784
3255.41676	1.74408
3253.48819	1.73286
3251.55963	1.71497
3249.63106	1.70039
3247.70250	1.69542
3245.77393	1.69474
3243.84537	1.69341
3241.91681	1.69123
3239.98824	1.68839
3238.05968	1.68411
3236.13111	1.67657
3234.20255	1.66634
3232.27398	1.65686
3230.34542	1.64917
3228.41685	1.64253
3226.48829	1.63743
3224.55973	1.63281
3222.63116	1.62750
3220.70260	1.62191
3218.77403	1.61345
3216.84547	1.60235
3214.91690	1.59400
3212.98834	1.58916
3211.05977	1.58611
3209.13121	1.58457
3207.20265	1.58262
3205.27408	1.57864
3203.34552	1.57206
3201.41695	1.56538
3199.48839	1.56404
3197.55982	1.56622
3195.63126	1.56331
3193.70269	1.55442
3191.77413	1.54445
3189.84557	1.53494
3187.91700	1.52888
3185.98844	1.52741
3184.05987	1.52271
3182.13131	1.51166
3180.20274	1.50281
3178.27418	1.50200
3176.34562	1.50409
3174.41705	1.50288
3172.48849	1.49870
3170.55992	1.49217
3168.63136	1.48462
3166.70279	1.47824
3164.77423	1.47242
3162.84566	1.46757
3160.91710	1.46571
3158.98854	1.46400
3157.05997	1.45713
3155.13141	1.44832
3153.20284	1.44289
3151.27428	1.44043
3149.34571	1.44068
3147.41715	1.44232
3145.48858	1.44291
3143.56002	1.44145
3141.63146	1.43849
3139.70289	1.43619
3137.77433	1.43449
3135.84576	1.43262
3133.91720	1.43139
3131.98863	1.43068
3130.06007	1.42929
3128.13150	1.42731
3126.20294	1.42636
3124.27438	1.42576
3122.34581	1.42231
3120.41725	1.41605
3118.48868	1.41110
3116.56012	1.40972
3114.63155	1.40993
3112.70299	1.40980
3110.77442	1.41011
3108.84586	1.41144
3106.91730	1.41161
3104.98873	1.40895
3103.06017	1.40577
3101.13160	1.40500
3099.20304	1.40611
3097.27447	1.40619
3095.34591	1.40337
3093.41734	1.39898
3091.48878	1.39495
3089.56022	1.39154
3087.63165	1.39002
3085.70309	1.39017
3083.77452	1.38974
3081.84596	1.38923
3079.91739	1.38905
3077.98883	1.38814
3076.06026	1.38628
3074.13170	1.38400
3072.20314	1.38136
3070.27457	1.37926
3068.34601	1.37958
3066.41744	1.37923
3064.48888	1.37483
3062.56031	1.36992
3060.63175	1.36735
3058.70318	1.36527
3056.77462	1.36178
3054.84606	1.35864
3052.91749	1.35659
3050.98893	1.35250
3049.06036	1.34634
3047.13180	1.34122
3045.20323	1.33752
3043.27467	1.33353
3041.34610	1.32918
3039.41754	1.32620
3037.48898	1.32374
3035.56041	1.31844
3033.63185	1.31034
3031.70328	1.30304
3029.77472	1.29936
3027.84615	1.29827
3025.91759	1.29643
3023.98903	1.29265
3022.06046	1.28760
3020.13190	1.28280
3018.20333	1.27999
3016.27477	1.27858
3014.34620	1.27607
3012.41764	1.27034
3010.48907	1.26387
3008.56051	1.26137
3006.63195	1.26209
3004.70338	1.26157
3002.77482	1.25779
3000.84625	1.25419
2998.91769	1.25489
2996.98912	1.25791
2995.06056	1.26050
2993.13199	1.26460
2991.20343	1.26993
2989.27487	1.27361
2987.34630	1.27840
2985.41774	1.28741
2983.48917	1.29649
2981.56061	1.30189
2979.63204	1.30598
2977.70348	1.31352
2975.77491	1.32575
2973.84635	1.33822
2971.91779	1.34772
2969.98922	1.35544
2968.06066	1.36304
2966.13209	1.37141
2964.20353	1.37904
2962.27496	1.38391
2960.34640	1.38645
2958.41783	1.38605
2956.48927	1.38180
2954.56071	1.37687
2952.63214	1.37273
2950.70358	1.36661
2948.77501	1.36128
2946.84645	1.36260
2944.91788	1.36872
2942.98932	1.37467
2941.06075	1.38089
2939.13219	1.38994
2937.20363	1.40140
2935.27506	1.41271
2933.34650	1.42208
2931.41793	1.42979
2929.48937	1.43621
2927.56080	1.44018
2925.63224	1.44208
2923.70367	1.44355
2921.77511	1.44303
2919.84655	1.43904
2917.91798	1.43257
2915.98942	1.42085
2914.06085	1.40031
2912.13229	1.37583
2910.20372	1.35509
2908.27516	1.34106
2906.34659	1.33305
2904.41803	1.32731
2902.48947	1.32010
2900.56090	1.31206
2898.63234	1.30523
2896.70377	1.29948
2894.77521	1.29415
2892.84664	1.28895
2890.91808	1.28402
2888.98952	1.28017
2887.06095	1.27695
2885.13239	1.27390
2883.20382	1.27255
2881.27526	1.27320
2879.34669	1.27399
2877.41813	1.27434
2875.48956	1.27491
2873.56100	1.27448
2871.63244	1.27096
2869.70387	1.26481
2867.77531	1.25902
2865.84674	1.25491
2863.91818	1.25121
2861.98961	1.24924
2860.06105	1.25147
2858.13248	1.25574
2856.20392	1.25898
2854.27536	1.26266
2852.34679	1.26765
2850.41823	1.26718
2848.48966	1.25343
2846.56110	1.22915
2844.63253	1.20382
2842.70397	1.18341
2840.77540	1.16856
2838.84684	1.15835
2836.91828	1.15184
2834.98971	1.14670
2833.06115	1.14088
2831.13258	1.13507
2829.20402	1.13092
2827.27545	1.12810
2825.34689	1.12506
2823.41832	1.12150
2821.48976	1.11786
2819.56120	1.11462
2817.63263	1.11210
2815.70407	1.11013
2813.77550	1.10887
2811.84694	1.10738
2809.91837	1.10355
2807.98981	1.09824
2806.06124	1.09388
2804.13268	1.09015
2802.20412	1.08628
2800.27555	1.08254
2798.34699	1.07859
2796.41842	1.07441
2794.48986	1.07051
2792.56129	1.06717
2790.63273	1.06442
2788.70416	1.06183
2786.77560	1.05934
2784.84704	1.05691
2782.91847	1.05426
2780.98991	1.05187
2779.06134	1.05060
2777.13278	1.05023
2775.20421	1.04981
2773.27565	1.04922
2771.34708	1.04843
2769.41852	1.04732
2767.48996	1.04604
2765.56139	1.04408
2763.63283	1.04188
2761.70426	1.04109
2759.77570	1.04145
2757.84713	1.04083
2755.91857	1.03853
2753.99001	1.03555
2752.06144	1.03282
2750.13288	1.03096
2748.20431	1.02998
2746.27575	1.02909
2744.34718	1.02763
2742.41862	1.02566
2740.49005	1.02343
2738.56149	1.02182
2736.63293	1.02173
2734.70436	1.02170
2732.77580	1.02059
2730.84723	1.01953
2728.91867	1.01866
2726.99010	1.01726
2725.06154	1.01522
2723.13297	1.01295
2721.20441	1.01111
2719.27585	1.00948
2717.34728	1.00688
2715.41872	1.00344
2713.49015	1.00105
2711.56159	1.00015
2709.63302	0.99903
2707.70446	0.99659
2705.77589	0.99295
2703.84733	0.98912
2701.91877	0.98701
2699.99020	0.98684
2698.06164	0.98646
2696.13307	0.98509
2694.20451	0.98409
2692.27594	0.98421
2690.34738	0.98450
2688.41881	0.98407
2686.49025	0.98331
2684.56169	0.98309
2682.63312	0.98399
2680.70456	0.98504
2678.77599	0.98452
2676.84743	0.98313
2674.91886	0.98231
2672.99030	0.98125
2671.06173	0.97928
2669.13317	0.97729
2667.20461	0.97553
2665.27604	0.97358
2663.34748	0.97169
2661.41891	0.97068
2659.49035	0.97046
2657.56178	0.96953
2655.63322	0.96773
2653.70465	0.96608
2651.77609	0.96471
2649.84753	0.96371
2647.91896	0.96308
2645.99040	0.96238
2644.06183	0.96134
2642.13327	0.96013
2640.20470	0.95906
2638.27614	0.95798
2636.34757	0.95700
2634.41901	0.95642
2632.49045	0.95592
2630.56188	0.95519
2628.63332	0.95411
2626.70475	0.95271
2624.77619	0.95158
2622.84762	0.95088
2620.91906	0.94987
2618.99049	0.94880
2617.06193	0.94821
2615.13337	0.94757
2613.20480	0.94641
2611.27624	0.94485
2609.34767	0.94349
2607.41911	0.94279
2605.49054	0.94229
2603.56198	0.94151
2601.63342	0.94070
2599.70485	0.94033
2597.77629	0.94029
2595.84772	0.93975
2593.91916	0.93875
2591.99059	0.93821
2590.06203	0.93775
2588.13346	0.93641
2586.20490	0.93411
2584.27634	0.93126
2582.34777	0.92896
2580.41921	0.92756
2578.49064	0.92594
2576.56208	0.92417
2574.63351	0.92291
2572.70495	0.92163
2570.77638	0.92011
2568.84782	0.91853
2566.91926	0.91688
2564.99069	0.91536
2563.06213	0.91413
2561.13356	0.91303
2559.20500	0.91200
2557.27643	0.91139
2555.34787	0.91090
2553.41930	0.91003
2551.49074	0.90903
2549.56218	0.90784
2547.63361	0.90656
2545.70505	0.90561
2543.77648	0.90483
2541.84792	0.90401
2539.91935	0.90308
2537.99079	0.90211
2536.06222	0.90142
2534.13366	0.90083
2532.20510	0.90028
2530.27653	0.90021
2528.34797	0.90040
2526.41940	0.90020
2524.49084	0.89965
2522.56227	0.89934
2520.63371	0.89932
2518.70514	0.89905
2516.77658	0.89829
2514.84802	0.89728
2512.91945	0.89640
2510.99089	0.89582
2509.06232	0.89523
2507.13376	0.89431
2505.20519	0.89324
2503.27663	0.89206
2501.34806	0.89063
2499.41950	0.88917
2497.49094	0.88766
2495.56237	0.88589
2493.63381	0.88421
2491.70524	0.88297
2489.77668	0.88196
2487.84811	0.88047
2485.91955	0.87820
2483.99098	0.87584
2482.06242	0.87384
2480.13386	0.87207
2478.20529	0.87045
2476.27673	0.86907
2474.34816	0.86811
2472.41960	0.86734
2470.49103	0.86654
2468.56247	0.86594
2466.63391	0.86513
2464.70534	0.86395
2462.77678	0.86334
2460.84821	0.86366
2458.91965	0.86441
2456.99108	0.86491
2455.06252	0.86482
2453.13395	0.86467
2451.20539	0.86463
2449.27683	0.86413
2447.34826	0.86319
2445.41970	0.86241
2443.49113	0.86209
2441.56257	0.86199
2439.63400	0.86163
2437.70544	0.86074
2435.77687	0.85970
2433.84831	0.85918
2431.91975	0.85903
2429.99118	0.85851
2428.06262	0.85761
2426.13405	0.85671
2424.20549	0.85580
2422.27692	0.85466
2420.34836	0.85335
2418.41979	0.85211
2416.49123	0.85118
2414.56267	0.85047
2412.63410	0.84961
2410.70554	0.84824
2408.77697	0.84630
2406.84841	0.84441
2404.91984	0.84314
2402.99128	0.84184
2401.06271	0.83992
2399.13415	0.83758
2397.20559	0.83533
2395.27702	0.83360
2393.34846	0.83222
2391.41989	0.83074
2389.49133	0.82927
2387.56276	0.82867
2385.63420	0.82966
2383.70563	0.83171
2381.77707	0.83395
2379.84851	0.83649
2377.91994	0.83938
2375.99138	0.84166
2374.06281	0.84311
2372.13425	0.84621
2370.20568	0.85350
2368.27712	0.86191
2366.34855	0.86610
2364.41999	0.86807
2362.49143	0.87104
2360.56286	0.87242
2358.63430	0.87237
2356.70573	0.87190
2354.77717	0.86777
2352.84860	0.85960
2350.92004	0.85228
2348.99147	0.84991
2347.06291	0.85266
2345.13435	0.85720
2343.20578	0.85887
2341.27722	0.85829
2339.34865	0.85690
2337.42009	0.85487
2335.49152	0.85290
2333.56296	0.85070
2331.63440	0.84882
2329.70583	0.84764
2327.77727	0.84523
2325.84870	0.84187
2323.92014	0.83947
2321.99157	0.83697
2320.06301	0.83340
2318.13444	0.82980
2316.20588	0.82649
2314.27732	0.82327
2312.34875	0.82031
2310.42019	0.81796
2308.49162	0.81624
2306.56306	0.81422
2304.63449	0.81153
2302.70593	0.80916
2300.77736	0.80748
2298.84880	0.80615
2296.92024	0.80505
2294.99167	0.80383
2293.06311	0.80212
2291.13454	0.79991
2289.20598	0.79785
2287.27741	0.79664
2285.34885	0.79598
2283.42028	0.79532
2281.49172	0.79480
2279.56316	0.79486
2277.63459	0.79530
2275.70603	0.79563
2273.77746	0.79596
2271.84890	0.79619
2269.92033	0.79598
2267.99177	0.79570
2266.06320	0.79560
2264.13464	0.79528
2262.20608	0.79453
2260.27751	0.79357
2258.34895	0.79246
2256.42038	0.79121
2254.49182	0.79019
2252.56325	0.78962
2250.63469	0.78911
2248.70612	0.78829
2246.77756	0.78734
2244.84900	0.78634
2242.92043	0.78509
2240.99187	0.78379
2239.06330	0.78280
2237.13474	0.78212
2235.20617	0.78154
2233.27761	0.78090
2231.34904	0.78017
2229.42048	0.77934
2227.49192	0.77856
2225.56335	0.77814
2223.63479	0.77795
2221.70622	0.77752
2219.77766	0.77672
2217.84909	0.77584
2215.92053	0.77513
2213.99196	0.77448
2212.06340	0.77372
2210.13484	0.77299
2208.20627	0.77229
2206.27771	0.77128
2204.34914	0.77025
2202.42058	0.76962
2200.49201	0.76903
2198.56345	0.76840
2196.63488	0.76802
2194.70632	0.76777
2192.77776	0.76764
2190.84919	0.76762
2188.92063	0.76764
2186.99206	0.76768
2185.06350	0.76771
2183.13493	0.76798
2181.20637	0.76869
2179.27781	0.76932
2177.34924	0.76937
2175.42068	0.76908
2173.49211	0.76886
2171.56355	0.76879
2169.63498	0.76838
2167.70642	0.76722
2165.77785	0.76597
2163.84929	0.76504
2161.92073	0.76393
2159.99216	0.76241
2158.06360	0.76093
2156.13503	0.75997
2154.20647	0.75930
2152.27790	0.75833
2150.34934	0.75704
2148.42077	0.75583
2146.49221	0.75510
2144.56365	0.75505
2142.63508	0.75536
2140.70652	0.75547
2138.77795	0.75543
2136.84939	0.75549
2134.92082	0.75555
2132.99226	0.75553
2131.06369	0.75549
2129.13513	0.75541
2127.20657	0.75495
2125.27800	0.75389
2123.34944	0.75267
2121.42087	0.75175
2119.49231	0.75081
2117.56374	0.74958
2115.63518	0.74849
2113.70661	0.74782
2111.77805	0.74719
2109.84949	0.74629
2107.92092	0.74523
2105.99236	0.74412
2104.06379	0.74337
2102.13523	0.74311
2100.20666	0.74259
2098.27810	0.74172
2096.34953	0.74131
2094.42097	0.74119
2092.49241	0.74065
2090.56384	0.73967
2088.63528	0.73866
2086.70671	0.73812
2084.77815	0.73792
2082.84958	0.73742
2080.92102	0.73663
2078.99245	0.73556
2077.06389	0.73400
2075.13533	0.73244
2073.20676	0.73126
2071.27820	0.73001
2069.34963	0.72836
2067.42107	0.72653
2065.49250	0.72473
2063.56394	0.72324
2061.63537	0.72217
2059.70681	0.72119
2057.77825	0.72023
2055.84968	0.71973
2053.92112	0.71985
2051.99255	0.72012
2050.06399	0.72016
2048.13542	0.72008
2046.20686	0.72008
2044.27830	0.72026
2042.34973	0.72038
2040.42117	0.72004
2038.49260	0.71949
2036.56404	0.71920
2034.63547	0.71880
2032.70691	0.71771
2030.77834	0.71620
2028.84978	0.71483
2026.92122	0.71369
2024.99265	0.71271
2023.06409	0.71167
2021.13552	0.71024
2019.20696	0.70846
2017.27839	0.70677
2015.34983	0.70547
2013.42126	0.70446
2011.49270	0.70366
2009.56414	0.70307
2007.63557	0.70240
2005.70701	0.70144
2003.77844	0.70061
2001.84988	0.70012
1999.92131	0.69968
1997.99275	0.69937
1996.06418	0.69915
1994.13562	0.69841
1992.20706	0.69688
1990.27849	0.69518
1988.34993	0.69369
1986.42136	0.69206
1984.49280	0.69035
1982.56423	0.68871
1980.63567	0.68693
1978.70710	0.68524
1976.77854	0.68397
1974.84998	0.68301
1972.92141	0.68239
1970.99285	0.68218
1969.06428	0.68215
1967.13572	0.68211
1965.20715	0.68213
1963.27859	0.68204
1961.35002	0.68175
1959.42146	0.68164
1957.49290	0.68166
1955.56433	0.68118
1953.63577	0.68019
1951.70720	0.67910
1949.77864	0.67794
1947.85007	0.67654
1945.92151	0.67505
1943.99294	0.67351
1942.06438	0.67145
1940.13582	0.66911
1938.20725	0.66710
1936.27869	0.66526
1934.35012	0.66335
1932.42156	0.66146
1930.49299	0.65991
1928.56443	0.65887
1926.63586	0.65836
1924.70730	0.65819
1922.77874	0.65780
1920.85017	0.65711
1918.92161	0.65629
1916.99304	0.65534
1915.06448	0.65460
1913.13591	0.65418
1911.20735	0.65383
1909.27878	0.65348
1907.35022	0.65318
1905.42166	0.65295
1903.49309	0.65262
1901.56453	0.65199
1899.63596	0.65143
1897.70740	0.65125
1895.77883	0.65119
1893.85027	0.65098
1891.92171	0.65044
1889.99314	0.64904
1888.06458	0.64703
1886.13601	0.64548
1884.20745	0.64418
1882.27888	0.64268
1880.35032	0.64117
1878.42175	0.63985
1876.49319	0.63871
1874.56463	0.63775
1872.63606	0.63728
1870.70750	0.63728
1868.77893	0.63678
1866.85037	0.63509
1864.92180	0.63325
1862.99324	0.63204
1861.06467	0.63144
1859.13611	0.63077
1857.20755	0.62949
1855.27898	0.62796
1853.35042	0.62644
1851.42185	0.62512
1849.49329	0.62422
1847.56472	0.62354
1845.63616	0.62234
1843.70759	0.61976
1841.77903	0.61746
1839.85047	0.61656
1837.92190	0.61603
1835.99334	0.61523
1834.06477	0.61466
1832.13621	0.61474
1830.20764	0.61469
1828.27908	0.61390
1826.35051	0.61296
1824.42195	0.61194
1822.49339	0.61109
1820.56482	0.61054
1818.63626	0.60989
1816.70769	0.60870
1814.77913	0.60750
1812.85056	0.60655
1810.92200	0.60507
1808.99343	0.60308
1807.06487	0.60129
1805.13631	0.59989
1803.20774	0.59861
1801.27918	0.59705
1799.35061	0.59518
1797.42205	0.59360
1795.49348	0.59267
1793.56492	0.59173
1791.63635	0.58990
1789.70779	0.58809
1787.77923	0.58722
1785.85066	0.58640
1783.92210	0.58506
1781.99353	0.58363
1780.06497	0.58227
1778.13640	0.58141
1776.20784	0.58136
1774.27927	0.58183
1772.35071	0.58160
1770.42215	0.58050
1768.49358	0.57998
1766.56502	0.58032
1764.63645	0.58172
1762.70789	0.58389
1760.77932	0.58615
1758.85076	0.58883
1756.92220	0.59295
1754.99363	0.59781
1753.06507	0.60340
1751.13650	0.61176
1749.20794	0.62207
1747.27937	0.63055
1745.35081	0.63721
1743.42224	0.64307
1741.49368	0.64831
1739.56512	0.65257
1737.63655	0.65532
1735.70799	0.65693
1733.77942	0.65729
1731.85086	0.65608
1729.92229	0.65517
1727.99373	0.65530
1726.06516	0.65647
1724.13660	0.65874
1722.20804	0.66198
1720.27947	0.66667
1718.35091	0.67467
1716.42234	0.68614
1714.49378	0.69636
1712.56521	0.70664
1710.63665	0.71996
1708.70808	0.73739
1706.77952	0.76325
1704.85096	0.79721
1702.92239	0.82907
1700.99383	0.87372
1699.06526	0.94218
1697.13670	1.00417
1695.20813	1.06436
1693.27957	1.11136
1691.35100	1.14921
1689.42244	1.19258
1687.49388	1.23151
1685.56531	1.27144
1683.63675	1.33617
1681.70818	1.38352
1679.77962	1.40810
1677.85105	1.43099
1675.92249	1.45789
1673.99392	1.48471
1672.06536	1.50560
1670.13680	1.52813
1668.20823	1.55191
1666.27967	1.56721
1664.35110	1.58145
1662.42254	1.59806
1660.49397	1.61287
1658.56541	1.62547
1656.63684	1.63698
1654.70828	1.65265
1652.77972	1.66096
1650.85115	1.65373
1648.92259	1.65276
1646.99402	1.65307
1645.06546	1.64679
1643.13689	1.64135
1641.20833	1.64009
1639.27976	1.63885
1637.35120	1.63737
1635.42264	1.64267
1633.49407	1.65038
1631.56551	1.65464
1629.63694	1.65812
1627.70838	1.66189
1625.77981	1.66089
1623.85125	1.65185
1621.92269	1.63767
1619.99412	1.62560
1618.06556	1.60918
1616.13699	1.57557
1614.20843	1.54264
1612.27986	1.51462
1610.35130	1.48199
1608.42273	1.44543
1606.49417	1.41120
1604.56561	1.38113
1602.63704	1.35479
1600.70848	1.33447
1598.77991	1.32022
1596.85135	1.30980
1594.92278	1.30154
1592.99422	1.29502
1591.06565	1.29063
1589.13709	1.28955
1587.20853	1.29294
1585.27996	1.29955
1583.35140	1.30753
1581.42283	1.31581
1579.49427	1.32462
1577.56570	1.33724
1575.63714	1.35434
1573.70857	1.36631
1571.78001	1.37652
1569.85145	1.39231
1567.92288	1.40822
1565.99432	1.41992
1564.06575	1.43129
1562.13719	1.44158
1560.20862	1.45749
1558.28006	1.48974
1556.35149	1.50790
1554.42293	1.51868
1552.49437	1.52767
1550.56580	1.53541
1548.63724	1.54354
1546.70867	1.55089
1544.78011	1.55783
1542.85154	1.56472
1540.92298	1.56641
1538.99441	1.55945
1537.06585	1.55472
1535.13729	1.54989
1533.20872	1.54242
1531.28016	1.53547
1529.35159	1.53054
1527.42303	1.52499
1525.49446	1.51936
1523.56590	1.51589
1521.63733	1.50638
1519.70877	1.49432
1517.78021	1.48746
1515.85164	1.47677
1513.92308	1.46071
1511.99451	1.44482
1510.06595	1.43123
1508.13738	1.40519
1506.20882	1.34930
1504.28025	1.31721
1502.35169	1.29837
1500.42313	1.27783
1498.49456	1.25272
1496.56600	1.22316
1494.63743	1.19915
1492.70887	1.18268
1490.78030	1.16328
1488.85174	1.13562
1486.92317	1.11417
1484.99461	1.10157
1483.06605	1.09164
1481.13748	1.08285
1479.20892	1.07782
1477.28035	1.07794
1475.35179	1.08297
1473.42322	1.09424
1471.49466	1.10711
1469.56610	1.11475
1467.63753	1.12085
1465.70897	1.12843
1463.78040	1.13579
1461.85184	1.14078
1459.92327	1.14579
1457.99471	1.15498
1456.06614	1.16539
1454.13758	1.16868
1452.20902	1.16887
1450.28045	1.16798
1448.35189	1.16634
1446.42332	1.16411
1444.49476	1.16093
1442.56619	1.15598
1440.63763	1.15020
1438.70906	1.14362
1436.78050	1.13234
1434.85194	1.11889
1432.92337	1.10847
1430.99481	1.09797
1429.06624	1.08717
1427.13768	1.07949
1425.20911	1.07476
1423.28055	1.07207
1421.35198	1.07200
1419.42342	1.07419
1417.49486	1.07638
1415.56629	1.07788
1413.63773	1.07965
1411.70916	1.08157
1409.78060	1.08375
1407.85203	1.08672
1405.92347	1.09128
1403.99490	1.09702
1402.06634	1.10208
1400.13778	1.10572
1398.20921	1.10751
1396.28065	1.10821
1394.35208	1.10843
1392.42352	1.10831
1390.49495	1.10932
1388.56639	1.11281
1386.63782	1.11883
1384.70926	1.12548
1382.78070	1.13209
1380.85213	1.13742
1378.92357	1.13867
1376.99500	1.13452
1375.06644	1.12429
1373.13787	1.10900
1371.20931	1.09311
1369.28074	1.07560
1367.35218	1.05550
1365.42362	1.03589
1363.49505	1.01554
1361.56649	0.99548
1359.63792	0.98153
1357.70936	0.97290
1355.78079	0.96663
1353.85223	0.96143
1351.92366	0.95737
1349.99510	0.95488
1348.06654	0.95338
1346.13797	0.95159
1344.20941	0.94967
1342.28084	0.94877
1340.35228	0.94871
1338.42371	0.94848
1336.49515	0.94931
1334.56659	0.95322
1332.63802	0.96013
1330.70946	0.96805
1328.78089	0.97478
1326.85233	0.98000
1324.92376	0.98458
1322.99520	0.98910
1321.06663	0.99399
1319.13807	0.99937
1317.20951	1.00433
1315.28094	1.00825
1313.35238	1.01153
1311.42381	1.01408
1309.49525	1.01571
1307.56668	1.01637
1305.63812	1.01597
1303.70955	1.01480
1301.78099	1.01296
1299.85243	1.00996
1297.92386	1.00513
1295.99530	0.99869
1294.06673	0.99196
1292.13817	0.98616
1290.20960	0.98166
1288.28104	0.97791
1286.35247	0.97450
1284.42391	0.97130
1282.49535	0.96800
1280.56678	0.96486
1278.63822	0.96323
1276.70965	0.96356
1274.78109	0.96496
1272.85252	0.96718
1270.92396	0.97057
1268.99539	0.97541
1267.06683	0.98154
1265.13827	0.98743
1263.20970	0.99150
1261.28114	0.99388
1259.35257	0.99523
1257.42401	0.99538
1255.49544	0.99492
1253.56688	0.99532
1251.63831	0.99648
1249.70975	0.99698
1247.78119	0.99642
1245.85262	0.99541
1243.92406	0.99414
1241.99549	0.99244
1240.06693	0.99020
1238.13836	0.98772
1236.20980	0.98490
1234.28123	0.98122
1232.35267	0.97656
1230.42411	0.97112
1228.49554	0.96556
1226.56698	0.96014
1224.63841	0.95416
1222.70985	0.94723
1220.78128	0.93985
1218.85272	0.93283
1216.92415	0.92675
1214.99559	0.92212
1213.06703	0.91930
1211.13846	0.91814
1209.20990	0.91827
1207.28133	0.91856
1205.35277	0.91666
1203.42420	0.91149
1201.49564	0.90395
1199.56708	0.89480
1197.63851	0.88479
1195.70995	0.87525
1193.78138	0.86686
1191.85282	0.85948
1189.92425	0.85324
1187.99569	0.84885
1186.06712	0.84657
1184.13856	0.84605
1182.21000	0.84727
1180.28143	0.85086
1178.35287	0.85763
1176.42430	0.86737
1174.49574	0.87855
1172.56717	0.88979
1170.63861	0.90145
1168.71004	0.91499
1166.78148	0.93102
1164.85292	0.94879
1162.92435	0.96631
1160.99579	0.98022
1159.06722	0.98742
1157.13866	0.98724
1155.21009	0.98083
1153.28153	0.96962
1151.35296	0.95530
1149.42440	0.93977
1147.49584	0.92462
1145.56727	0.91139
1143.63871	0.90155
1141.71014	0.89579
1139.78158	0.89401
1137.85301	0.89563
1135.92445	0.89936
1133.99588	0.90463
1132.06732	0.91275
1130.13876	0.92475
1128.21019	0.93958
1126.28163	0.95518
1124.35306	0.96973
1122.42450	0.98207
1120.49593	0.99210
1118.56737	1.00062
1116.63880	1.00733
1114.71024	1.01028
1112.78168	1.00932
1110.85311	1.00671
1108.92455	1.00380
1106.99598	1.00096
1105.06742	0.99880
1103.13885	0.99769
1101.21029	0.99767
1099.28172	0.99912
1097.35316	1.00364
1095.42460	1.01250
1093.49603	1.02475
1091.56747	1.03892
1089.63890	1.05503
1087.71034	1.07367
1085.78177	1.09446
1083.85321	1.11628
1081.92464	1.13720
1079.99608	1.15396
1078.06752	1.16335
1076.13895	1.16419
1074.21039	1.15839
1072.28182	1.14930
1070.35326	1.13775
1068.42469	1.12395
1066.49613	1.11019
1064.56756	1.09758
1062.63900	1.08503
1060.71044	1.07133
1058.78187	1.05648
1056.85331	1.04241
1054.92474	1.03136
1052.99618	1.02320
1051.06761	1.01625
1049.13905	1.01014
1047.21049	1.00623
1045.28192	1.00645
1043.35336	1.01113
1041.42479	1.01766
1039.49623	1.02321
1037.56766	1.02754
1035.63910	1.03097
1033.71053	1.03232
1031.78197	1.03073
1029.85341	1.02674
1027.92484	1.02018
1025.99628	1.01077
1024.06771	1.00014
1022.13915	0.99026
1020.21058	0.98188
1018.28202	0.97507
1016.35345	0.96896
1014.42489	0.96133
1012.49633	0.95030
1010.56776	0.93619
1008.63920	0.92068
1006.71063	0.90511
1004.78207	0.89040
1002.85350	0.87767
1000.92494	0.86749
998.99637	0.85929
997.06781	0.85252
995.13925	0.84691
993.21068	0.84152
991.28212	0.83499
989.35355	0.82728
987.42499	0.81916
985.49642	0.81070
983.56786	0.80209
981.63929	0.79454
979.71073	0.78915
977.78217	0.78559
975.85360	0.78230
973.92504	0.77782
971.99647	0.77174
970.06791	0.76413
968.13934	0.75544
966.21078	0.74686
964.28221	0.73978
962.35365	0.73595
960.42509	0.73731
958.49652	0.74355
956.56796	0.75066
954.63939	0.75349
952.71083	0.74988
950.78226	0.74162
948.85370	0.73188
946.92513	0.72279
944.99657	0.71520
943.06801	0.70926
941.13944	0.70470
939.21088	0.70109
937.28231	0.69808
935.35375	0.69566
933.42518	0.69389
931.49662	0.69295
929.56805	0.69317
927.63949	0.69441
925.71093	0.69621
923.78236	0.69847
921.85380	0.70134
919.92523	0.70440
917.99667	0.70650
916.06810	0.70725
914.13954	0.70797
912.21098	0.70957
910.28241	0.71159
908.35385	0.71378
906.42528	0.71635
904.49672	0.71915
902.56815	0.72192
900.63959	0.72430
898.71102	0.72570
896.78246	0.72548
894.85390	0.72392
892.92533	0.72152
890.99677	0.71801
889.06820	0.71389
887.13964	0.71032
885.21107	0.70763
883.28251	0.70585
881.35394	0.70524
879.42538	0.70545
877.49682	0.70559
875.56825	0.70575
873.63969	0.70635
871.71112	0.70694
869.78256	0.70721
867.85399	0.70717
865.92543	0.70698
863.99686	0.70727
862.06830	0.70848
860.13974	0.71091
858.21117	0.71473
856.28261	0.71925
854.35404	0.72389
852.42548	0.72885
850.49691	0.73427
848.56835	0.73997
846.63978	0.74532
844.71122	0.74970
842.78266	0.75350
840.85409	0.75773
838.92553	0.76237
836.99696	0.76651
835.06840	0.77061
833.13983	0.77532
831.21127	0.77955
829.28270	0.78282
827.35414	0.78510
825.42558	0.78630
823.49701	0.78734
821.56845	0.78854
819.63988	0.78945
817.71132	0.79059
815.78275	0.79241
813.85419	0.79428
811.92562	0.79606
809.99706	0.79844
808.06850	0.80117
806.13993	0.80305
804.21137	0.80371
802.28280	0.80449
800.35424	0.80614
798.42567	0.80725
796.49711	0.80741
794.56854	0.80810
792.63998	0.80941
790.71142	0.81081
788.78285	0.81254
786.85429	0.81447
784.92572	0.81684
782.99716	0.82039
781.06859	0.82475
779.14003	0.82872
777.21147	0.83156
775.28290	0.83364
773.35434	0.83548
771.42577	0.83702
769.49721	0.83836
767.56864	0.83982
765.64008	0.84128
763.71151	0.84286
761.78295	0.84538
759.85439	0.84915
757.92582	0.85334
755.99726	0.85768
754.06869	0.86317
752.14013	0.86990
750.21156	0.87663
748.28300	0.88303
746.35443	0.88978
744.42587	0.89700
742.49731	0.90327
740.56874	0.90720
738.64018	0.91009
736.71161	0.91319
734.78305	0.91537
732.85448	0.91595
730.92592	0.91568
728.99735	0.91551
727.06879	0.91523
725.14023	0.91382
723.21166	0.91243
721.28310	0.91247
719.35453	0.91275
717.42597	0.91243
715.49740	0.91261
713.56884	0.91341
711.64027	0.91449
709.71171	0.91709
707.78315	0.92159
705.85458	0.92559
703.92602	0.92700
701.99745	0.92619
700.06889	0.92438
698.14032	0.92241
696.21176	0.92080
694.28319	0.91952
692.35463	0.91836
690.42607	0.91745
688.49750	0.91654
686.56894	0.91471
684.64037	0.91162
682.71181	0.90825
680.78324	0.90534
678.85468	0.90233
676.92611	0.89987
674.99755	0.89832
673.06899	0.89706
671.14042	0.89698
669.21186	0.89767
667.28329	0.89700
665.35473	0.89767
663.42616	0.90105
661.49760	0.90685
659.56903	0.91393
657.64047	0.92122
655.71191	0.92943
653.78334	0.93776
651.85478	0.94548
649.92621	0.95562
647.99765	0.96792
646.06908	0.97663
644.14052	0.98150
642.21195	0.98748
640.28339	0.99516
638.35483	1.00016
636.42626	1.00009
634.49770	0.99747
632.56913	0.99556
630.64057	0.99443
628.71200	0.99252
626.78344	0.98881
624.85488	0.98461
622.92631	0.98211
620.99775	0.98115
619.06918	0.98101
617.14062	0.97958
615.21205	0.97398
613.28349	0.96691
611.35492	0.96382
609.42636	0.96427
607.49780	0.96331
605.56923	0.95956
603.64067	0.95474
601.71210	0.95045
599.78354	0.94726
