3997.91406	0.50400
3995.98550	0.50451
3994.05693	0.50431
3992.12837	0.50389
3990.19980	0.50354
3988.27124	0.50298
3986.34268	0.50302
3984.41411	0.50403
3982.48555	0.50440
3980.55698	0.50367
3978.62842	0.50352
3976.69985	0.50401
3974.77129	0.50362
3972.84272	0.50226
3970.91416	0.50079
3968.98560	0.49991
3967.05703	0.49972
3965.12847	0.49942
3963.19990	0.49895
3961.27134	0.49892
3959.34277	0.49912
3957.41421	0.49873
3955.48564	0.49745
3953.55708	0.49631
3951.62852	0.49655
3949.69995	0.49729
3947.77139	0.49698
3945.84282	0.49628
3943.91426	0.49543
3941.98569	0.49424
3940.05713	0.49386
3938.12856	0.49412
3936.20000	0.49452
3934.27144	0.49500
3932.34287	0.49404
3930.41431	0.49163
3928.48574	0.49068
3926.55718	0.49112
3924.62861	0.49053
3922.70005	0.48917
3920.77148	0.48901
3918.84292	0.48947
3916.91436	0.48895
3914.98579	0.48771
3913.05723	0.48674
3911.12866	0.48663
3909.20010	0.48853
3907.27153	0.49207
3905.34297	0.49396
3903.41440	0.49155
3901.48584	0.48798
3899.55728	0.48577
3897.62871	0.48495
3895.70015	0.48572
3893.77158	0.48699
3891.84302	0.48631
3889.91445	0.48527
3887.98589	0.48632
3886.05733	0.48608
3884.12876	0.48339
3882.20020	0.48180
3880.27163	0.48067
3878.34307	0.48068
3876.41450	0.48219
3874.48594	0.48273
3872.55737	0.48217
3870.62881	0.48095
3868.70025	0.47955
3866.77168	0.48034
3864.84312	0.48046
3862.91455	0.47726
3860.98599	0.47496
3859.05742	0.47586
3857.12886	0.47932
3855.20029	0.48306
3853.27173	0.47964
3851.34317	0.47325
3849.41460	0.47208
3847.48604	0.47324
3845.55747	0.47469
3843.62891	0.47541
3841.70034	0.47566
3839.77178	0.47566
3837.84321	0.47395
3835.91465	0.47168
3833.98609	0.47043
3832.05752	0.46941
3830.12896	0.46886
3828.20039	0.46902
3826.27183	0.46947
3824.34326	0.47141
3822.41470	0.47382
3820.48613	0.47208
3818.55757	0.46951
3816.62901	0.46748
3814.70044	0.46470
3812.77188	0.46432
3810.84331	0.46646
3808.91475	0.46912
3806.98618	0.46927
3805.05762	0.46829
3803.12905	0.46793
3801.20049	0.46507
3799.27193	0.46285
3797.34336	0.46209
3795.41480	0.46031
3793.48623	0.45902
3791.55767	0.45880
3789.62910	0.45909
3787.70054	0.45985
3785.77197	0.46060
3783.84341	0.46129
3781.91485	0.46219
3779.98628	0.46124
3778.05772	0.45823
3776.12915	0.45677
3774.20059	0.45748
3772.27202	0.45887
3770.34346	0.45828
3768.41489	0.45560
3766.48633	0.45380
3764.55777	0.45367
3762.62920	0.45522
3760.70064	0.45644
3758.77207	0.45506
3756.84351	0.45402
3754.91494	0.45619
3752.98638	0.46000
3751.05781	0.45969
3749.12925	0.45637
3747.20069	0.45660
3745.27212	0.45559
3743.34356	0.45239
3741.41499	0.45298
3739.48643	0.45619
3737.55786	0.45895
3735.62930	0.45817
3733.70074	0.45399
3731.77217	0.45150
3729.84361	0.45244
3727.91504	0.45491
3725.98648	0.45587
3724.05791	0.45491
3722.12935	0.45353
3720.20078	0.45157
3718.27222	0.45008
3716.34366	0.45055
3714.41509	0.45275
3712.48653	0.45360
3710.55796	0.45030
3708.62940	0.44792
3706.70083	0.44852
3704.77227	0.45052
3702.84370	0.45164
3700.91514	0.45056
3698.98658	0.44967
3697.05801	0.45024
3695.12945	0.45184
3693.20088	0.45489
3691.27232	0.45883
3689.34375	0.45795
3687.41519	0.45349
3685.48662	0.45245
3683.55806	0.45368
3681.62950	0.45584
3679.70093	0.45936
3677.77237	0.46362
3675.84380	0.46482
3673.91524	0.46426
3671.98667	0.46609
3670.05811	0.46666
3668.12954	0.46595
3666.20098	0.46765
3664.27242	0.47067
3662.34385	0.47374
3660.41529	0.47693
3658.48672	0.48043
3656.55816	0.48356
3654.62959	0.48615
3652.70103	0.48987
3650.77246	0.49459
3648.84390	0.49684
3646.91534	0.49848
3644.98677	0.50218
3643.05821	0.50636
3641.12964	0.51006
3639.20108	0.51357
3637.27251	0.51755
3635.34395	0.52214
3633.41538	0.52732
3631.48682	0.53294
3629.55826	0.53850
3627.62969	0.54211
3625.70113	0.54535
3623.77256	0.54974
3621.84400	0.55499
3619.91543	0.56008
3617.98687	0.56376
3616.05830	0.56709
3614.12974	0.57021
3612.20118	0.57354
3610.27261	0.57813
3608.34405	0.58266
3606.41548	0.58678
3604.48692	0.59176
3602.55835	0.59736
3600.62979	0.60199
3598.70123	0.60546
3596.77266	0.60921
3594.84410	0.61344
3592.91553	0.61746
3590.98697	0.62142
3589.05840	0.62632
3587.12984	0.63247
3585.20127	0.63847
3583.27271	0.64347
3581.34415	0.64783
3579.41558	0.65215
3577.48702	0.65665
3575.55845	0.66162
3573.62989	0.66713
3571.70132	0.67330
3569.77276	0.68022
3567.84419	0.68634
3565.91563	0.68994
3563.98707	0.69369
3562.05850	0.69903
3560.12994	0.70523
3558.20137	0.71165
3556.27281	0.71746
3554.34424	0.72287
3552.41568	0.72867
3550.48711	0.73454
3548.55855	0.74069
3546.62999	0.74673
3544.70142	0.75063
3542.77286	0.75340
3540.84429	0.75821
3538.91573	0.76528
3536.98716	0.77248
3535.05860	0.77863
3533.13003	0.78396
3531.20147	0.78881
3529.27291	0.79357
3527.34434	0.79952
3525.41578	0.80686
3523.48721	0.81389
3521.55865	0.81954
3519.63008	0.82456
3517.70152	0.83051
3515.77295	0.83828
3513.84439	0.84754
3511.91583	0.85633
3509.98726	0.86327
3508.05870	0.87054
3506.13013	0.88040
3504.20157	0.89136
3502.27300	0.89954
3500.34444	0.90601
3498.41587	0.91364
3496.48731	0.92142
3494.55875	0.92921
3492.63018	0.93658
3490.70162	0.94224
3488.77305	0.94801
3486.84449	0.95522
3484.91592	0.96212
3482.98736	0.96839
3481.05879	0.97386
3479.13023	0.97731
3477.20167	0.97942
3475.27310	0.98133
3473.34454	0.98551
3471.41597	0.99324
3469.48741	1.00092
3467.55884	1.00497
3465.63028	1.00636
3463.70171	1.00834
3461.77315	1.01187
3459.84459	1.01511
3457.91602	1.01690
3455.98746	1.01937
3454.05889	1.02403
3452.13033	1.02851
3450.20176	1.03239
3448.27320	1.03837
3446.34464	1.04465
3444.41607	1.04672
3442.48751	1.04680
3440.55894	1.04907
3438.63038	1.05319
3436.70181	1.05721
3434.77325	1.06043
3432.84468	1.06299
3430.91612	1.06414
3428.98756	1.06283
3427.05899	1.06095
3425.13043	1.06112
3423.20186	1.06221
3421.27330	1.06191
3419.34473	1.06124
3417.41617	1.06147
3415.48760	1.06130
3413.55904	1.06050
3411.63048	1.06134
3409.70191	1.06338
3407.77335	1.06426
3405.84478	1.06577
3403.91622	1.06960
3401.98765	1.07339
3400.05909	1.07517
3398.13052	1.07505
3396.20196	1.07443
3394.27340	1.07466
3392.34483	1.07582
3390.41627	1.07749
3388.48770	1.07956
3386.55914	1.08228
3384.63057	1.08469
3382.70201	1.08544
3380.77344	1.08600
3378.84488	1.08803
3376.91632	1.09037
3374.98775	1.09198
3373.05919	1.09415
3371.13062	1.09790
3369.20206	1.10040
3367.27349	1.09982
3365.34493	1.10036
3363.41636	1.10411
3361.48780	1.10677
3359.55924	1.10610
3357.63067	1.10582
3355.70211	1.10923
3353.77354	1.11470
3351.84498	1.11792
3349.91641	1.11852
3347.98785	1.12029
3346.05928	1.12449
3344.13072	1.13026
3342.20216	1.13557
3340.27359	1.13754
3338.34503	1.13793
3336.41646	1.13995
3334.48790	1.14352
3332.55933	1.14843
3330.63077	1.15374
3328.70220	1.15763
3326.77364	1.16203
3324.84508	1.16902
3322.91651	1.17494
3320.98795	1.17779
3319.05938	1.18188
3317.13082	1.18973
3315.20225	1.19891
3313.27369	1.20731
3311.34513	1.21344
3309.41656	1.21503
3307.48800	1.21431
3305.55943	1.21708
3303.63087	1.22422
3301.70230	1.23174
3299.77374	1.23686
3297.84517	1.23920
3295.91661	1.23959
3293.98805	1.24055
3292.05948	1.24212
3290.13092	1.24229
3288.20235	1.24258
3286.27379	1.24362
3284.34522	1.24354
3282.41666	1.24259
3280.48809	1.24138
3278.55953	1.23865
3276.63097	1.23369
3274.70240	1.22897
3272.77384	1.22738
3270.84527	1.22825
3268.91671	1.22740
3266.98814	1.22230
3265.05958	1.21585
3263.13101	1.21017
3261.20245	1.20254
3259.27389	1.19157
3257.34532	1.18033
3255.41676	1.17078
3253.48819	1.16163
3251.55963	1.15245
3249.63106	1.14320
3247.70250	1.13351
3245.77393	1.12418
3243.84537	1.11538
3241.91681	1.10620
3239.98824	1.09733
3238.05968	1.09051
3236.13111	1.08510
3234.20255	1.07961
3232.27398	1.07413
3230.34542	1.06893
3228.41685	1.06376
3226.48829	1.05834
3224.55973	1.05373
3222.63116	1.05112
3220.70260	1.04859
3218.77403	1.04417
3216.84547	1.03885
3214.91690	1.03275
3212.98834	1.02596
3211.05977	1.02072
3209.13121	1.01693
3207.20265	1.01339
3205.27408	1.00954
3203.34552	1.00392
3201.41695	0.99731
3199.48839	0.99123
3197.55982	0.98517
3195.63126	0.97938
3193.70269	0.97476
3191.77413	0.97086
3189.84557	0.96582
3187.91700	0.95975
3185.98844	0.95532
3184.05987	0.95226
3182.13131	0.94820
3180.20274	0.94358
3178.27418	0.93941
3176.34562	0.93483
3174.41705	0.92948
3172.48849	0.92456
3170.55992	0.92078
3168.63136	0.91690
3166.70279	0.91215
3164.77423	0.90760
3162.84566	0.90396
3160.91710	0.89989
3158.98854	0.89431
3157.05997	0.88924
3155.13141	0.88657
3153.20284	0.88438
3151.27428	0.88118
3149.34571	0.87848
3147.41715	0.87647
3145.48858	0.87400
3143.56002	0.87181
3141.63146	0.87062
3139.70289	0.86985
3137.77433	0.86941
3135.84576	0.86887
3133.91720	0.86773
3131.98863	0.86682
3130.06007	0.86695
3128.13150	0.86723
3126.20294	0.86642
3124.27438	0.86558
3122.34581	0.86588
3120.41725	0.86623
3118.48868	0.86581
3116.56012	0.86527
3114.63155	0.86509
3112.70299	0.86472
3110.77442	0.86352
3108.84586	0.86216
3106.91730	0.86169
3104.98873	0.86157
3103.06017	0.86115
3101.13160	0.86094
3099.20304	0.86108
3097.27447	0.86088
3095.34591	0.85982
3093.41734	0.85832
3091.48878	0.85717
3089.56022	0.85646
3087.63165	0.85595
3085.70309	0.85493
3083.77452	0.85309
3081.84596	0.85100
3079.91739	0.84857
3077.98883	0.84571
3076.06026	0.84317
3074.13170	0.84113
3072.20314	0.83855
3070.27457	0.83496
3068.34601	0.83135
3066.41744	0.82813
3064.48888	0.82470
3062.56031	0.82092
3060.63175	0.81712
3058.70318	0.81323
3056.77462	0.80913
3054.84606	0.80522
3052.91749	0.80188
3050.98893	0.79903
3049.06036	0.79592
3047.13180	0.79206
3045.20323	0.78833
3043.27467	0.78531
3041.34610	0.78217
3039.41754	0.77879
3037.48898	0.77538
3035.56041	0.77206
3033.63185	0.76957
3031.70328	0.76752
3029.77472	0.76484
3027.84615	0.76198
3025.91759	0.75919
3023.98903	0.75613
3022.06046	0.75314
3020.13190	0.75068
3018.20333	0.74846
3016.27477	0.74635
3014.34620	0.74509
3012.41764	0.74480
3010.48907	0.74412
3008.56051	0.74258
3006.63195	0.74119
3004.70338	0.74027
3002.77482	0.73960
3000.84625	0.73951
2998.91769	0.74008
2996.98912	0.74104
2995.06056	0.74259
2993.13199	0.74517
2991.20343	0.74889
2989.27487	0.75331
2987.34630	0.75803
2985.41774	0.76336
2983.48917	0.76928
2981.56061	0.77537
2979.63204	0.78169
2977.70348	0.78803
2975.77491	0.79406
2973.84635	0.80016
2971.91779	0.80676
2969.98922	0.81448
2968.06066	0.82298
2966.13209	0.82992
2964.20353	0.83412
2962.27496	0.83637
2960.34640	0.83749
2958.41783	0.83752
2956.48927	0.83492
2954.56071	0.82944
2952.63214	0.82358
2950.70358	0.81898
2948.77501	0.81621
2946.84645	0.81661
2944.91788	0.82098
2942.98932	0.82803
2941.06075	0.83673
2939.13219	0.84725
2937.20363	0.85787
2935.27506	0.86639
2933.34650	0.87378
2931.41793	0.88171
2929.48937	0.88971
2927.56080	0.89662
2925.63224	0.90233
2923.70367	0.90687
2921.77511	0.90975
2919.84655	0.90997
2917.91798	0.90483
2915.98942	0.89140
2914.06085	0.87149
2912.13229	0.85099
2910.20372	0.83388
2908.27516	0.82075
2906.34659	0.81059
2904.41803	0.80212
2902.48947	0.79526
2900.56090	0.79058
2898.63234	0.78728
2896.70377	0.78435
2894.77521	0.78183
2892.84664	0.77924
2890.91808	0.77540
2888.98952	0.77055
2887.06095	0.76642
2885.13239	0.76405
2883.20382	0.76292
2881.27526	0.76247
2879.34669	0.76277
2877.41813	0.76293
2875.48956	0.76180
2873.56100	0.75917
2871.63244	0.75487
2869.70387	0.74912
2867.77531	0.74298
2865.84674	0.73761
2863.91818	0.73413
2861.98961	0.73318
2860.06105	0.73485
2858.13248	0.73927
2856.20392	0.74567
2854.27536	0.75287
2852.34679	0.75970
2850.41823	0.76121
2848.48966	0.75010
2846.56110	0.72766
2844.63253	0.70394
2842.70397	0.68543
2840.77540	0.67210
2838.84684	0.66217
2836.91828	0.65454
2834.98971	0.64881
2833.06115	0.64418
2831.13258	0.63981
2829.20402	0.63595
2827.27545	0.63310
2825.34689	0.63074
2823.41832	0.62818
2821.48976	0.62557
2819.56120	0.62301
2817.63263	0.62055
2815.70407	0.61817
2813.77550	0.61554
2811.84694	0.61247
2809.91837	0.60906
2807.98981	0.60577
2806.06124	0.60280
2804.13268	0.59976
2802.20412	0.59640
2800.27555	0.59282
2798.34699	0.58954
2796.41842	0.58692
2794.48986	0.58451
2792.56129	0.58194
2790.63273	0.57965
2788.70416	0.57774
2786.77560	0.57574
2784.84704	0.57362
2782.91847	0.57177
2780.98991	0.57020
2779.06134	0.56864
2777.13278	0.56751
2775.20421	0.56704
2773.27565	0.56635
2771.34708	0.56494
2769.41852	0.56328
2767.48996	0.56181
2765.56139	0.56027
2763.63283	0.55836
2761.70426	0.55640
2759.77570	0.55463
2757.84713	0.55300
2755.91857	0.55174
2753.99001	0.55089
2752.06144	0.54979
2750.13288	0.54844
2748.20431	0.54741
2746.27575	0.54642
2744.34718	0.54513
2742.41862	0.54399
2740.49005	0.54327
2738.56149	0.54287
2736.63293	0.54264
2734.70436	0.54244
2732.77580	0.54192
2730.84723	0.54067
2728.91867	0.53889
2726.99010	0.53737
2725.06154	0.53634
2723.13297	0.53525
2721.20441	0.53366
2719.27585	0.53143
2717.34728	0.52894
2715.41872	0.52672
2713.49015	0.52472
2711.56159	0.52267
2709.63302	0.52061
2707.70446	0.51858
2705.77589	0.51664
2703.84733	0.51480
2701.91877	0.51334
2699.99020	0.51230
2698.06164	0.51117
2696.13307	0.50999
2694.20451	0.50929
2692.27594	0.50902
2690.34738	0.50872
2688.41881	0.50814
2686.49025	0.50749
2684.56169	0.50705
2682.63312	0.50662
2680.70456	0.50580
2678.77599	0.50476
2676.84743	0.50392
2674.91886	0.50316
2672.99030	0.50214
2671.06173	0.50088
2669.13317	0.49972
2667.20461	0.49873
2665.27604	0.49751
2663.34748	0.49624
2661.41891	0.49539
2659.49035	0.49460
2657.56178	0.49375
2655.63322	0.49311
2653.70465	0.49239
2651.77609	0.49144
2649.84753	0.49078
2647.91896	0.49066
2645.99040	0.49074
2644.06183	0.49063
2642.13327	0.49040
2640.20470	0.49026
2638.27614	0.48992
2636.34757	0.48906
2634.41901	0.48784
2632.49045	0.48652
2630.56188	0.48520
2628.63332	0.48382
2626.70475	0.48220
2624.77619	0.48030
2622.84762	0.47833
2620.91906	0.47657
2618.99049	0.47511
2617.06193	0.47360
2615.13337	0.47201
2613.20480	0.47074
2611.27624	0.46980
2609.34767	0.46895
2607.41911	0.46814
2605.49054	0.46739
2603.56198	0.46662
2601.63342	0.46573
2599.70485	0.46495
2597.77629	0.46479
2595.84772	0.46499
2593.91916	0.46484
2591.99059	0.46419
2590.06203	0.46348
2588.13346	0.46305
2586.20490	0.46278
2584.27634	0.46230
2582.34777	0.46159
2580.41921	0.46071
2578.49064	0.45964
2576.56208	0.45854
2574.63351	0.45740
2572.70495	0.45612
2570.77638	0.45481
2568.84782	0.45361
2566.91926	0.45258
2564.99069	0.45191
2563.06213	0.45154
2561.13356	0.45108
2559.20500	0.45055
2557.27643	0.45019
2555.34787	0.44995
2553.41930	0.44965
2551.49074	0.44927
2549.56218	0.44885
2547.63361	0.44854
2545.70505	0.44827
2543.77648	0.44772
2541.84792	0.44691
2539.91935	0.44583
2537.99079	0.44430
2536.06222	0.44259
2534.13366	0.44106
2532.20510	0.43950
2530.27653	0.43773
2528.34797	0.43618
2526.41940	0.43511
2524.49084	0.43396
2522.56227	0.43229
2520.63371	0.43067
2518.70514	0.42953
2516.77658	0.42854
2514.84802	0.42775
2512.91945	0.42759
2510.99089	0.42774
2509.06232	0.42767
2507.13376	0.42741
2505.20519	0.42716
2503.27663	0.42704
2501.34806	0.42710
2499.41950	0.42734
2497.49094	0.42764
2495.56237	0.42766
2493.63381	0.42721
2491.70524	0.42658
2489.77668	0.42602
2487.84811	0.42532
2485.91955	0.42428
2483.99098	0.42296
2482.06242	0.42169
2480.13386	0.42049
2478.20529	0.41907
2476.27673	0.41752
2474.34816	0.41614
2472.41960	0.41487
2470.49103	0.41372
2468.56247	0.41287
2466.63391	0.41221
2464.70534	0.41154
2462.77678	0.41086
2460.84821	0.41032
2458.91965	0.41000
2456.99108	0.40965
2455.06252	0.40892
2453.13395	0.40791
2451.20539	0.40704
2449.27683	0.40637
2447.34826	0.40547
2445.41970	0.40417
2443.49113	0.40275
2441.56257	0.40139
2439.63400	0.40010
2437.70544	0.39861
2435.77687	0.39688
2433.84831	0.39543
2431.91975	0.39437
2429.99118	0.39320
2428.06262	0.39180
2426.13405	0.39066
2424.20549	0.38999
2422.27692	0.38943
2420.34836	0.38884
2418.41979	0.38829
2416.49123	0.38789
2414.56267	0.38779
2412.63410	0.38796
2410.70554	0.38824
2408.77697	0.38862
2406.84841	0.38884
2404.91984	0.38880
2402.99128	0.38865
2401.06271	0.38828
2399.13415	0.38763
2397.20559	0.38704
2395.27702	0.38651
2393.34846	0.38574
2391.41989	0.38471
2389.49133	0.38365
2387.56276	0.38288
2385.63420	0.38262
2383.70563	0.38281
2381.77707	0.38337
2379.84851	0.38452
2377.91994	0.38643
2375.99138	0.38894
2374.06281	0.39212
2372.13425	0.39637
2370.20568	0.40139
2368.27712	0.40624
2366.34855	0.41024
2364.41999	0.41292
2362.49143	0.41394
2360.56286	0.41347
2358.63430	0.41109
2356.70573	0.40574
2354.77717	0.39944
2352.84860	0.39423
2350.92004	0.39033
2348.99147	0.38879
2347.06291	0.39003
2345.13435	0.39270
2343.20578	0.39409
2341.27722	0.39331
2339.34865	0.39126
2337.42009	0.38892
2335.49152	0.38699
2333.56296	0.38570
2331.63440	0.38494
2329.70583	0.38438
2327.77727	0.38338
2325.84870	0.38162
2323.92014	0.37964
2321.99157	0.37751
2320.06301	0.37532
2318.13444	0.37357
2316.20588	0.37240
2314.27732	0.37158
2312.34875	0.37083
2310.42019	0.36995
2308.49162	0.36867
2306.56306	0.36674
2304.63449	0.36457
2302.70593	0.36275
2300.77736	0.36120
2298.84880	0.35968
2296.92024	0.35825
2294.99167	0.35682
2293.06311	0.35515
2291.13454	0.35342
2289.20598	0.35198
2287.27741	0.35075
2285.34885	0.34954
2283.42028	0.34849
2281.49172	0.34781
2279.56316	0.34741
2277.63459	0.34705
2275.70603	0.34669
2273.77746	0.34646
2271.84890	0.34625
2269.92033	0.34585
2267.99177	0.34531
2266.06320	0.34474
2264.13464	0.34401
2262.20608	0.34309
2260.27751	0.34224
2258.34895	0.34141
2256.42038	0.34044
2254.49182	0.33940
2252.56325	0.33837
2250.63469	0.33724
2248.70612	0.33605
2246.77756	0.33522
2244.84900	0.33483
2242.92043	0.33442
2240.99187	0.33387
2239.06330	0.33353
2237.13474	0.33349
2235.20617	0.33357
2233.27761	0.33361
2231.34904	0.33374
2229.42048	0.33386
2227.49192	0.33382
2225.56335	0.33383
2223.63479	0.33384
2221.70622	0.33359
2219.77766	0.33328
2217.84909	0.33304
2215.92053	0.33257
2213.99196	0.33173
2212.06340	0.33083
2210.13484	0.32996
2208.20627	0.32899
2206.27771	0.32809
2204.34914	0.32737
2202.42058	0.32674
2200.49201	0.32618
2198.56345	0.32582
2196.63488	0.32561
2194.70632	0.32536
2192.77776	0.32506
2190.84919	0.32491
2188.92063	0.32490
2186.99206	0.32479
2185.06350	0.32462
2183.13493	0.32467
2181.20637	0.32490
2179.27781	0.32504
2177.34924	0.32485
2175.42068	0.32417
2173.49211	0.32324
2171.56355	0.32249
2169.63498	0.32194
2167.70642	0.32131
2165.77785	0.32033
2163.84929	0.31911
2161.92073	0.31795
2159.99216	0.31698
2158.06360	0.31613
2156.13503	0.31543
2154.20647	0.31496
2152.27790	0.31458
2150.34934	0.31414
2148.42077	0.31375
2146.49221	0.31349
2144.56365	0.31329
2142.63508	0.31318
2140.70652	0.31311
2138.77795	0.31297
2136.84939	0.31270
2134.92082	0.31231
2132.99226	0.31184
2131.06369	0.31125
2129.13513	0.31052
2127.20657	0.30977
2125.27800	0.30894
2123.34944	0.30794
2121.42087	0.30699
2119.49231	0.30618
2117.56374	0.30531
2115.63518	0.30443
2113.70661	0.30368
2111.77805	0.30309
2109.84949	0.30250
2107.92092	0.30193
2105.99236	0.30149
2104.06379	0.30127
2102.13523	0.30129
2100.20666	0.30142
2098.27810	0.30141
2096.34953	0.30128
2094.42097	0.30126
2092.49241	0.30132
2090.56384	0.30126
2088.63528	0.30099
2086.70671	0.30056
2084.77815	0.30004
2082.84958	0.29931
2080.92102	0.29818
2078.99245	0.29681
2077.06389	0.29549
2075.13533	0.29424
2073.20676	0.29298
2071.27820	0.29176
2069.34963	0.29074
2067.42107	0.29001
2065.49250	0.28932
2063.56394	0.28850
2061.63537	0.28785
2059.70681	0.28739
2057.77825	0.28669
2055.84968	0.28575
2053.92112	0.28500
2051.99255	0.28442
2050.06399	0.28369
2048.13542	0.28284
2046.20686	0.28203
2044.27830	0.28118
2042.34973	0.28010
2040.42117	0.27878
2038.49260	0.27753
2036.56404	0.27637
2034.63547	0.27514
2032.70691	0.27389
2030.77834	0.27271
2028.84978	0.27167
2026.92122	0.27082
2024.99265	0.27001
2023.06409	0.26915
2021.13552	0.26844
2019.20696	0.26792
2017.27839	0.26751
2015.34983	0.26719
2013.42126	0.26697
2011.49270	0.26690
2009.56414	0.26691
2007.63557	0.26676
2005.70701	0.26646
2003.77844	0.26627
2001.84988	0.26619
1999.92131	0.26591
1997.99275	0.26537
1996.06418	0.26482
1994.13562	0.26435
1992.20706	0.26365
1990.27849	0.26263
1988.34993	0.26155
1986.42136	0.26054
1984.49280	0.25971
1982.56423	0.25898
1980.63567	0.25822
1978.70710	0.25744
1976.77854	0.25660
1974.84998	0.25576
1972.92141	0.25500
1970.99285	0.25438
1969.06428	0.25386
1967.13572	0.25313
1965.20715	0.25201
1963.27859	0.25073
1961.35002	0.24946
1959.42146	0.24821
1957.49290	0.24698
1955.56433	0.24572
1953.63577	0.24440
1951.70720	0.24313
1949.77864	0.24203
1947.85007	0.24107
1945.92151	0.24015
1943.99294	0.23904
1942.06438	0.23749
1940.13582	0.23587
1938.20725	0.23468
1936.27869	0.23380
1934.35012	0.23308
1932.42156	0.23237
1930.49299	0.23166
1928.56443	0.23111
1926.63586	0.23098
1924.70730	0.23118
1922.77874	0.23121
1920.85017	0.23089
1918.92161	0.23048
1916.99304	0.22997
1915.06448	0.22942
1913.13591	0.22914
1911.20735	0.22905
1909.27878	0.22864
1907.35022	0.22780
1905.42166	0.22692
1903.49309	0.22624
1901.56453	0.22567
1899.63596	0.22514
1897.70740	0.22467
1895.77883	0.22411
1893.85027	0.22338
1891.92171	0.22272
1889.99314	0.22193
1888.06458	0.22081
1886.13601	0.21978
1884.20745	0.21886
1882.27888	0.21789
1880.35032	0.21689
1878.42175	0.21578
1876.49319	0.21457
1874.56463	0.21343
1872.63606	0.21276
1870.70750	0.21250
1868.77893	0.21141
1866.85037	0.20894
1864.92180	0.20666
1862.99324	0.20517
1861.06467	0.20403
1859.13611	0.20289
1857.20755	0.20163
1855.27898	0.20037
1853.35042	0.19931
1851.42185	0.19862
1849.49329	0.19833
1847.56472	0.19832
1845.63616	0.19831
1843.70759	0.19742
1841.77903	0.19615
1839.85047	0.19548
1837.92190	0.19508
1835.99334	0.19457
1834.06477	0.19416
1832.13621	0.19415
1830.20764	0.19396
1828.27908	0.19317
1826.35051	0.19226
1824.42195	0.19111
1822.49339	0.18989
1820.56482	0.18893
1818.63626	0.18810
1816.70769	0.18726
1814.77913	0.18675
1812.85056	0.18666
1810.92200	0.18629
1808.99343	0.18544
1807.06487	0.18476
1805.13631	0.18471
1803.20774	0.18520
1801.27918	0.18561
1799.35061	0.18546
1797.42205	0.18533
1795.49348	0.18568
1793.56492	0.18608
1791.63635	0.18564
1789.70779	0.18463
1787.77923	0.18413
1785.85066	0.18403
1783.92210	0.18406
1781.99353	0.18410
1780.06497	0.18386
1778.13640	0.18373
1776.20784	0.18420
1774.27927	0.18525
1772.35071	0.18591
1770.42215	0.18546
1768.49358	0.18503
1766.56502	0.18521
1764.63645	0.18630
1762.70789	0.18835
1760.77932	0.19086
1758.85076	0.19359
1756.92220	0.19734
1754.99363	0.20190
1753.06507	0.20733
1751.13650	0.21552
1749.20794	0.22574
1747.27937	0.23397
1745.35081	0.24010
1743.42224	0.24556
1741.49368	0.25070
1739.56512	0.25518
1737.63655	0.25847
1735.70799	0.26104
1733.77942	0.26343
1731.85086	0.26477
1729.92229	0.26602
1727.99373	0.26803
1726.06516	0.27110
1724.13660	0.27569
1722.20804	0.28098
1720.27947	0.28684
1718.35091	0.29599
1716.42234	0.30891
1714.49378	0.31908
1712.56521	0.32823
1710.63665	0.33969
1708.70808	0.35413
1706.77952	0.37493
1704.85096	0.40190
1702.92239	0.42724
1700.99383	0.46244
1699.06526	0.51558
1697.13670	0.56447
1695.20813	0.61229
1693.27957	0.64925
1691.35100	0.68036
1689.42244	0.71863
1687.49388	0.75546
1685.56531	0.79459
1683.63675	0.85534
1681.70818	0.90034
1679.77962	0.92736
1677.85105	0.95435
1675.92249	0.98816
1673.99392	1.02504
1672.06536	1.05419
1670.13680	1.08636
1668.20823	1.12275
1666.27967	1.14563
1664.35110	1.16566
1662.42254	1.19187
1660.49397	1.21468
1658.56541	1.22997
1656.63684	1.24126
1654.70828	1.25404
1652.77972	1.26934
1650.85115	1.27428
1648.92259	1.27577
1646.99402	1.27663
1645.06546	1.27554
1643.13689	1.27319
1641.20833	1.27200
1639.27976	1.27196
1637.35120	1.27421
1635.42264	1.27643
1633.49407	1.27425
1631.56551	1.27162
1629.63694	1.26748
1627.70838	1.26001
1625.77981	1.24679
1623.85125	1.22477
1621.92269	1.19777
1619.99412	1.17454
1618.06556	1.14278
1616.13699	1.08963
1614.20843	1.04440
1612.27986	1.00973
1610.35130	0.97358
1608.42273	0.93682
1606.49417	0.90533
1604.56561	0.88024
1602.63704	0.85920
1600.70848	0.84211
1598.77991	0.82917
1596.85135	0.81945
1594.92278	0.81172
1592.99422	0.80568
1591.06565	0.80177
1589.13709	0.80066
1587.20853	0.80335
1585.27996	0.80958
1583.35140	0.81857
1581.42283	0.82927
1579.49427	0.84051
1577.56570	0.85524
1575.63714	0.87684
1573.70857	0.89399
1571.78001	0.90802
1569.85145	0.92886
1567.92288	0.95093
1565.99432	0.96805
1564.06575	0.98508
1562.13719	0.99949
1560.20862	1.01719
1558.28006	1.05288
1556.35149	1.07100
1554.42293	1.07847
1552.49437	1.08575
1550.56580	1.09195
1548.63724	1.09580
1546.70867	1.09785
1544.78011	1.09948
1542.85154	1.10016
1540.92298	1.09511
1538.99441	1.08330
1537.06585	1.07688
1535.13729	1.07112
1533.20872	1.06142
1531.28016	1.05154
1529.35159	1.04443
1527.42303	1.03718
1525.49446	1.03038
1523.56590	1.02743
1521.63733	1.02620
1519.70877	1.02560
1517.78021	1.02350
1515.85164	1.01498
1513.92308	1.00032
1511.99451	0.98318
1510.06595	0.96647
1508.13738	0.93932
1506.20882	0.88693
1504.28025	0.85622
1502.35169	0.83776
1500.42313	0.81748
1498.49456	0.79079
1496.56600	0.75729
1494.63743	0.73062
1492.70887	0.71326
1490.78030	0.69368
1488.85174	0.66627
1486.92317	0.64419
1484.99461	0.63060
1483.06605	0.62122
1481.13748	0.61456
1479.20892	0.61181
1477.28035	0.61424
1475.35179	0.62215
1473.42322	0.63714
1471.49466	0.65422
1469.56610	0.66478
1467.63753	0.67286
1465.70897	0.68259
1463.78040	0.69220
1461.85184	0.69838
1459.92327	0.70382
1457.99471	0.71314
1456.06614	0.72171
1454.13758	0.72259
1452.20902	0.72134
1450.28045	0.71958
1448.35189	0.71655
1446.42332	0.71172
1444.49476	0.70622
1442.56619	0.70037
1440.63763	0.69456
1438.70906	0.68830
1436.78050	0.67851
1434.85194	0.66748
1432.92337	0.65930
1430.99481	0.65121
1429.06624	0.64284
1427.13768	0.63732
1425.20911	0.63490
1423.28055	0.63436
1421.35198	0.63522
1419.42342	0.63722
1417.49486	0.63812
1415.56629	0.63703
1413.63773	0.63561
1411.70916	0.63421
1409.78060	0.63267
1407.85203	0.63150
1405.92347	0.63131
1403.99490	0.63176
1402.06634	0.63246
1400.13778	0.63376
1398.20921	0.63547
1396.28065	0.63711
1394.35208	0.63891
1392.42352	0.64145
1390.49495	0.64572
1388.56639	0.65391
1386.63782	0.66674
1384.70926	0.67974
1382.78070	0.69094
1380.85213	0.70001
1378.92357	0.70459
1376.99500	0.70329
1375.06644	0.69511
1373.13787	0.68093
1371.20931	0.66553
1369.28074	0.64852
1367.35218	0.62944
1365.42362	0.61162
1363.49505	0.59449
1361.56649	0.57843
1359.63792	0.56715
1357.70936	0.55984
1355.78079	0.55451
1353.85223	0.55050
1351.92366	0.54772
1349.99510	0.54608
1348.06654	0.54535
1346.13797	0.54536
1344.20941	0.54612
1342.28084	0.54776
1340.35228	0.55067
1338.42371	0.55453
1336.49515	0.55893
1334.56659	0.56477
1332.63802	0.57238
1330.70946	0.58087
1328.78089	0.58859
1326.85233	0.59413
1324.92376	0.59726
1322.99520	0.59900
1321.06663	0.60074
1319.13807	0.60271
1317.20951	0.60419
1315.28094	0.60467
1313.35238	0.60401
1311.42381	0.60243
1309.49525	0.60043
1307.56668	0.59789
1305.63812	0.59457
1303.70955	0.59083
1301.78099	0.58678
1299.85243	0.58229
1297.92386	0.57742
1295.99530	0.57262
1294.06673	0.56870
1292.13817	0.56626
1290.20960	0.56553
1288.28104	0.56600
1286.35247	0.56677
1284.42391	0.56730
1282.49535	0.56793
1280.56678	0.56931
1278.63822	0.57148
1276.70965	0.57426
1274.78109	0.57809
1272.85252	0.58343
1270.92396	0.58967
1268.99539	0.59600
1267.06683	0.60216
1265.13827	0.60751
1263.20970	0.61122
1261.28114	0.61312
1259.35257	0.61374
1257.42401	0.61410
1255.49544	0.61483
1253.56688	0.61589
1251.63831	0.61709
1249.70975	0.61819
1247.78119	0.61893
1245.85262	0.61934
1243.92406	0.61946
1241.99549	0.61919
1240.06693	0.61855
1238.13836	0.61722
1236.20980	0.61470
1234.28123	0.61104
1232.35267	0.60639
1230.42411	0.60074
1228.49554	0.59415
1226.56698	0.58687
1224.63841	0.57925
1222.70985	0.57133
1220.78128	0.56319
1218.85272	0.55554
1216.92415	0.54913
1214.99559	0.54457
1213.06703	0.54226
1211.13846	0.54168
1209.20990	0.54152
1207.28133	0.54021
1205.35277	0.53628
1203.42420	0.52931
1201.49564	0.52036
1199.56708	0.51076
1197.63851	0.50125
1195.70995	0.49259
1193.78138	0.48568
1191.85282	0.48084
1189.92425	0.47787
1187.99569	0.47650
1186.06712	0.47667
1184.13856	0.47847
1182.21000	0.48209
1180.28143	0.48795
1178.35287	0.49634
1176.42430	0.50686
1174.49574	0.51875
1172.56717	0.53144
1170.63861	0.54501
1168.71004	0.55997
1166.78148	0.57618
1164.85292	0.59248
1162.92435	0.60660
1160.99579	0.61586
1159.06722	0.61890
1157.13866	0.61557
1155.21009	0.60628
1153.28153	0.59260
1151.35296	0.57692
1149.42440	0.56112
1147.49584	0.54649
1145.56727	0.53422
1143.63871	0.52540
1141.71014	0.52075
1139.78158	0.52015
1137.85301	0.52310
1135.92445	0.52934
1133.99588	0.53869
1132.06732	0.55102
1130.13876	0.56613
1128.21019	0.58309
1126.28163	0.60017
1124.35306	0.61571
1122.42450	0.62880
1120.49593	0.63894
1118.56737	0.64581
1116.63880	0.64896
1114.71024	0.64776
1112.78168	0.64255
1110.85311	0.63527
1108.92455	0.62780
1106.99598	0.62097
1105.06742	0.61496
1103.13885	0.61054
1101.21029	0.60893
1099.28172	0.61038
1097.35316	0.61503
1095.42460	0.62373
1093.49603	0.63652
1091.56747	0.65248
1089.63890	0.67088
1087.71034	0.69171
1085.78177	0.71479
1083.85321	0.73814
1081.92464	0.75824
1079.99608	0.77154
1078.06752	0.77687
1076.13895	0.77593
1074.21039	0.76999
1072.28182	0.75940
1070.35326	0.74565
1068.42469	0.73063
1066.49613	0.71561
1064.56756	0.70125
1062.63900	0.68740
1060.71044	0.67361
1058.78187	0.66004
1056.85331	0.64723
1054.92474	0.63596
1052.99618	0.62702
1051.06761	0.62056
1049.13905	0.61667
1047.21049	0.61627
1045.28192	0.62019
1043.35336	0.62783
1041.42479	0.63730
1039.49623	0.64663
1037.56766	0.65473
1035.63910	0.66096
1033.71053	0.66449
1031.78197	0.66514
1029.85341	0.66359
1027.92484	0.65993
1025.99628	0.65389
1024.06771	0.64610
1022.13915	0.63804
1020.21058	0.63067
1018.28202	0.62339
1016.35345	0.61479
1014.42489	0.60355
1012.49633	0.58875
1010.56776	0.57060
1008.63920	0.55021
1006.71063	0.52922
1004.78207	0.50941
1002.85350	0.49196
1000.92494	0.47764
998.99637	0.46688
997.06781	0.45941
995.13925	0.45435
993.21068	0.45050
991.28212	0.44694
989.35355	0.44354
987.42499	0.44068
985.49642	0.43871
983.56786	0.43794
981.63929	0.43844
979.71073	0.43990
977.78217	0.44157
975.85360	0.44213
973.92504	0.44029
971.99647	0.43569
970.06791	0.42889
968.13934	0.42080
966.21078	0.41242
964.28221	0.40487
962.35365	0.39963
960.42509	0.39838
958.49652	0.40113
956.56796	0.40490
954.63939	0.40554
952.71083	0.40126
950.78226	0.39341
948.85370	0.38449
946.92513	0.37664
944.99657	0.37120
943.06801	0.36848
941.13944	0.36799
939.21088	0.36908
937.28231	0.37139
935.35375	0.37471
933.42518	0.37865
931.49662	0.38284
929.56805	0.38683
927.63949	0.39020
925.71093	0.39290
923.78236	0.39474
921.85380	0.39524
919.92523	0.39397
917.99667	0.39082
916.06810	0.38667
914.13954	0.38279
912.21098	0.37969
910.28241	0.37742
908.35385	0.37630
906.42528	0.37664
904.49672	0.37848
902.56815	0.38158
900.63959	0.38499
898.71102	0.38785
896.78246	0.39021
894.85390	0.39226
892.92533	0.39401
890.99677	0.39544
889.06820	0.39672
887.13964	0.39809
885.21107	0.39965
883.28251	0.40132
881.35394	0.40270
879.42538	0.40317
877.49682	0.40242
875.56825	0.40077
873.63969	0.39855
871.71112	0.39580
869.78256	0.39272
867.85399	0.38970
865.92543	0.38721
863.99686	0.38550
862.06830	0.38447
860.13974	0.38449
858.21117	0.38622
856.28261	0.38945
854.35404	0.39324
852.42548	0.39710
850.49691	0.40131
848.56835	0.40616
846.63978	0.41136
844.71122	0.41674
842.78266	0.42246
840.85409	0.42837
838.92553	0.43413
836.99696	0.43935
835.06840	0.44347
833.13983	0.44607
831.21127	0.44707
829.28270	0.44687
827.35414	0.44585
825.42558	0.44404
823.49701	0.44159
821.56845	0.43873
819.63988	0.43568
817.71132	0.43307
815.78275	0.43143
813.85419	0.43057
811.92562	0.43010
809.99706	0.43024
808.06850	0.43142
806.13993	0.43346
804.21137	0.43601
802.28280	0.43936
800.35424	0.44382
798.42567	0.44883
796.49711	0.45374
794.56854	0.45880
792.63998	0.46405
790.71142	0.46886
788.78285	0.47308
786.85429	0.47677
784.92572	0.47978
782.99716	0.48229
781.06859	0.48456
779.14003	0.48656
777.21147	0.48803
775.28290	0.48929
773.35434	0.49094
771.42577	0.49294
769.49721	0.49515
767.56864	0.49757
765.64008	0.50008
763.71151	0.50289
761.78295	0.50633
759.85439	0.51032
757.92582	0.51456
755.99726	0.51900
754.06869	0.52411
752.14013	0.53028
750.21156	0.53678
748.28300	0.54246
746.35443	0.54739
744.42587	0.55223
742.49731	0.55664
740.56874	0.55959
738.64018	0.56118
736.71161	0.56251
734.78305	0.56378
732.85448	0.56485
730.92592	0.56560
728.99735	0.56539
727.06879	0.56464
725.14023	0.56443
723.21166	0.56485
721.28310	0.56493
719.35453	0.56351
717.42597	0.56116
715.49740	0.55950
713.56884	0.55927
711.64027	0.56043
709.71171	0.56283
707.78315	0.56665
705.85458	0.57161
703.92602	0.57699
701.99745	0.58247
700.06889	0.58766
698.14032	0.59208
696.21176	0.59582
694.28319	0.59963
692.35463	0.60391
690.42607	0.60776
688.49750	0.61040
686.56894	0.61199
684.64037	0.61319
682.71181	0.61435
680.78324	0.61509
678.85468	0.61541
676.92611	0.61511
674.99755	0.61353
673.06899	0.61197
671.14042	0.61213
669.21186	0.61189
667.28329	0.60749
665.35473	0.60374
663.42616	0.60175
661.49760	0.60017
659.56903	0.59956
657.64047	0.59973
655.71191	0.59998
653.78334	0.60007
651.85478	0.60035
649.92621	0.60220
647.99765	0.60604
646.06908	0.61054
644.14052	0.61517
642.21195	0.62053
640.28339	0.62667
638.35483	0.63276
636.42626	0.63717
634.49770	0.63799
632.56913	0.63517
630.64057	0.63123
628.71200	0.62799
626.78344	0.62494
624.85488	0.62115
622.92631	0.61668
620.99775	0.61269
619.06918	0.60981
617.14062	0.60755
615.21205	0.60619
613.28349	0.60686
611.35492	0.60991
609.42636	0.61342
607.49780	0.61566
605.56923	0.61852
603.64067	0.62407
601.71210	0.63110
599.78354	0.63764
