3997.91406	0.50775
3995.98550	0.50775
3994.05693	0.50750
3992.12837	0.50667
3990.19980	0.50533
3988.27124	0.50461
3986.34268	0.50509
3984.41411	0.50564
3982.48555	0.50487
3980.55698	0.50323
3978.62842	0.50236
3976.69985	0.50248
3974.77129	0.50240
3972.84272	0.50157
3970.91416	0.50025
3968.98560	0.49905
3967.05703	0.49865
3965.12847	0.49871
3963.19990	0.49844
3961.27134	0.49764
3959.34277	0.49642
3957.41421	0.49556
3955.48564	0.49558
3953.55708	0.49612
3951.62852	0.49700
3949.69995	0.49760
3947.77139	0.49681
3945.84282	0.49569
3943.91426	0.49527
3941.98569	0.49476
3940.05713	0.49393
3938.12856	0.49318
3936.20000	0.49272
3934.27144	0.49289
3932.34287	0.49293
3930.41431	0.49172
3928.48574	0.49058
3926.55718	0.49083
3924.62861	0.49164
3922.70005	0.49168
3920.77148	0.49102
3918.84292	0.49007
3916.91436	0.48901
3914.98579	0.48813
3913.05723	0.48749
3911.12866	0.48682
3909.20010	0.48652
3907.27153	0.48734
3905.34297	0.48852
3903.41440	0.48776
3901.48584	0.48531
3899.55728	0.48313
3897.62871	0.48183
3895.70015	0.48208
3893.77158	0.48349
3891.84302	0.48314
3889.91445	0.48113
3887.98589	0.48103
3886.05733	0.48141
3884.12876	0.47985
3882.20020	0.47801
3880.27163	0.47641
3878.34307	0.47527
3876.41450	0.47513
3874.48594	0.47578
3872.55737	0.47695
3870.62881	0.47702
3868.70025	0.47590
3866.77168	0.47601
3864.84312	0.47654
3862.91455	0.47562
3860.98599	0.47457
3859.05742	0.47496
3857.12886	0.47634
3855.20029	0.47650
3853.27173	0.47286
3851.34317	0.46981
3849.41460	0.46906
3847.48604	0.46898
3845.55747	0.46891
3843.62891	0.46856
3841.70034	0.46819
3839.77178	0.46724
3837.84321	0.46548
3835.91465	0.46491
3833.98609	0.46547
3832.05752	0.46590
3830.12896	0.46594
3828.20039	0.46581
3826.27183	0.46539
3824.34326	0.46520
3822.41470	0.46546
3820.48613	0.46500
3818.55757	0.46403
3816.62901	0.46154
3814.70044	0.45753
3812.77188	0.45520
3810.84331	0.45496
3808.91475	0.45606
3806.98618	0.45675
3805.05762	0.45625
3803.12905	0.45553
3801.20049	0.45405
3799.27193	0.45299
3797.34336	0.45215
3795.41480	0.45075
3793.48623	0.45009
3791.55767	0.45025
3789.62910	0.45044
3787.70054	0.45069
3785.77197	0.45097
3783.84341	0.45109
3781.91485	0.45148
3779.98628	0.45128
3778.05772	0.44966
3776.12915	0.44835
3774.20059	0.44851
3772.27202	0.44969
3770.34346	0.45020
3768.41489	0.44929
3766.48633	0.44839
3764.55777	0.44789
3762.62920	0.44780
3760.70064	0.44795
3758.77207	0.44731
3756.84351	0.44615
3754.91494	0.44635
3752.98638	0.44861
3751.05781	0.45062
3749.12925	0.44945
3747.20069	0.44793
3745.27212	0.44612
3743.34356	0.44377
3741.41499	0.44278
3739.48643	0.44306
3737.55786	0.44407
3735.62930	0.44402
3733.70074	0.44169
3731.77217	0.43986
3729.84361	0.43942
3727.91504	0.44008
3725.98648	0.44069
3724.05791	0.43955
3722.12935	0.43751
3720.20078	0.43591
3718.27222	0.43476
3716.34366	0.43465
3714.41509	0.43641
3712.48653	0.43840
3710.55796	0.43694
3708.62940	0.43471
3706.70083	0.43462
3704.77227	0.43543
3702.84370	0.43521
3700.91514	0.43406
3698.98658	0.43409
3697.05801	0.43531
3695.12945	0.43687
3693.20088	0.43880
3691.27232	0.44125
3689.34375	0.44154
3687.41519	0.43950
3685.48662	0.43870
3683.55806	0.43895
3681.62950	0.44042
3679.70093	0.44397
3677.77237	0.44848
3675.84380	0.45056
3673.91524	0.45033
3671.98667	0.45147
3670.05811	0.45275
3668.12954	0.45290
3666.20098	0.45370
3664.27242	0.45576
3662.34385	0.45901
3660.41529	0.46292
3658.48672	0.46644
3656.55816	0.46933
3654.62959	0.47250
3652.70103	0.47694
3650.77246	0.48318
3648.84390	0.48942
3646.91534	0.49215
3644.98677	0.49348
3643.05821	0.49567
3641.12964	0.49971
3639.20108	0.50495
3637.27251	0.50992
3635.34395	0.51420
3633.41538	0.51821
3631.48682	0.52240
3629.55826	0.52810
3627.62969	0.53420
3625.70113	0.53868
3623.77256	0.54332
3621.84400	0.54882
3619.91543	0.55500
3617.98687	0.56039
3616.05830	0.56422
3614.12974	0.56709
3612.20118	0.57009
3610.27261	0.57504
3608.34405	0.58201
3606.41548	0.58866
3604.48692	0.59425
3602.55835	0.60002
3600.62979	0.60554
3598.70123	0.61007
3596.77266	0.61468
3594.84410	0.62073
3592.91553	0.62728
3590.98697	0.63285
3589.05840	0.63879
3587.12984	0.64544
3585.20127	0.65075
3583.27271	0.65541
3581.34415	0.66006
3579.41558	0.66446
3577.48702	0.66927
3575.55845	0.67535
3573.62989	0.68224
3571.70132	0.68918
3569.77276	0.69612
3567.84419	0.70368
3565.91563	0.71037
3563.98707	0.71511
3562.05850	0.71998
3560.12994	0.72520
3558.20137	0.73053
3556.27281	0.73589
3554.34424	0.74150
3552.41568	0.74831
3550.48711	0.75637
3548.55855	0.76490
3546.62999	0.77296
3544.70142	0.77974
3542.77286	0.78522
3540.84429	0.79028
3538.91573	0.79611
3536.98716	0.80250
3535.05860	0.80840
3533.13003	0.81437
3531.20147	0.82185
3529.27291	0.83039
3527.34434	0.83805
3525.41578	0.84424
3523.48721	0.85024
3521.55865	0.85732
3519.63008	0.86592
3517.70152	0.87582
3515.77295	0.88509
3513.84439	0.89266
3511.91583	0.89951
3509.98726	0.90754
3508.05870	0.91758
3506.13013	0.92731
3504.20157	0.93607
3502.27300	0.94565
3500.34444	0.95689
3498.41587	0.96846
3496.48731	0.97776
3494.55875	0.98415
3492.63018	0.99061
3490.70162	0.99968
3488.77305	1.00960
3486.84449	1.01647
3484.91592	1.01967
3482.98736	1.02371
3481.05879	1.03040
3479.13023	1.03453
3477.20167	1.03545
3475.27310	1.03730
3473.34454	1.04230
3471.41597	1.05026
3469.48741	1.05863
3467.55884	1.06422
3465.63028	1.06668
3463.70171	1.06960
3461.77315	1.07466
3459.84459	1.07976
3457.91602	1.08422
3455.98746	1.08808
3454.05889	1.09006
3452.13033	1.09195
3450.20176	1.09698
3448.27320	1.10277
3446.34464	1.10431
3444.41607	1.10246
3442.48751	1.10246
3440.55894	1.10610
3438.63038	1.11193
3436.70181	1.11901
3434.77325	1.12559
3432.84468	1.12978
3430.91612	1.13043
3428.98756	1.12749
3427.05899	1.12344
3425.13043	1.12135
3423.20186	1.12199
3421.27330	1.12382
3419.34473	1.12505
3417.41617	1.12488
3415.48760	1.12507
3413.55904	1.12740
3411.63048	1.12963
3409.70191	1.12974
3407.77335	1.12933
3405.84478	1.12988
3403.91622	1.13125
3401.98765	1.13363
3400.05909	1.13680
3398.13052	1.13946
3396.20196	1.14076
3394.27340	1.14094
3392.34483	1.14097
3390.41627	1.14081
3388.48770	1.14038
3386.55914	1.14123
3384.63057	1.14423
3382.70201	1.14821
3380.77344	1.15157
3378.84488	1.15411
3376.91632	1.15612
3374.98775	1.15794
3373.05919	1.16157
3371.13062	1.16715
3369.20206	1.17107
3367.27349	1.17190
3365.34493	1.17074
3363.41636	1.16923
3361.48780	1.17101
3359.55924	1.17648
3357.63067	1.18147
3355.70211	1.18466
3353.77354	1.18706
3351.84498	1.18888
3349.91641	1.19123
3347.98785	1.19402
3346.05928	1.19552
3344.13072	1.19620
3342.20216	1.19884
3340.27359	1.20457
3338.34503	1.20956
3336.41646	1.21157
3334.48790	1.21415
3332.55933	1.21816
3330.63077	1.22270
3328.70220	1.22825
3326.77364	1.23366
3324.84508	1.23949
3322.91651	1.24591
3320.98795	1.25082
3319.05938	1.25498
3317.13082	1.25922
3315.20225	1.26305
3313.27369	1.26736
3311.34513	1.27182
3309.41656	1.27465
3307.48800	1.27693
3305.55943	1.28042
3303.63087	1.28362
3301.70230	1.28556
3299.77374	1.28752
3297.84517	1.29067
3295.91661	1.29554
3293.98805	1.30035
3292.05948	1.30212
3290.13092	1.30214
3288.20235	1.30418
3286.27379	1.30645
3284.34522	1.30631
3282.41666	1.30571
3280.48809	1.30430
3278.55953	1.30140
3276.63097	1.29775
3274.70240	1.29281
3272.77384	1.28909
3270.84527	1.28821
3268.91671	1.28640
3266.98814	1.28052
3265.05958	1.27245
3263.13101	1.26542
3261.20245	1.25928
3259.27389	1.25244
3257.34532	1.24438
3255.41676	1.23534
3253.48819	1.22701
3251.55963	1.22050
3249.63106	1.21365
3247.70250	1.20401
3245.77393	1.19261
3243.84537	1.18327
3241.91681	1.17795
3239.98824	1.17422
3238.05968	1.16816
3236.13111	1.15798
3234.20255	1.14636
3232.27398	1.13792
3230.34542	1.13334
3228.41685	1.12974
3226.48829	1.12518
3224.55973	1.12029
3222.63116	1.11614
3220.70260	1.11179
3218.77403	1.10623
3216.84547	1.10116
3214.91690	1.09693
3212.98834	1.09142
3211.05977	1.08542
3209.13121	1.08085
3207.20265	1.07670
3205.27408	1.07201
3203.34552	1.06760
3201.41695	1.06359
3199.48839	1.05907
3197.55982	1.05384
3195.63126	1.04821
3193.70269	1.04260
3191.77413	1.03739
3189.84557	1.03214
3187.91700	1.02670
3185.98844	1.02126
3184.05987	1.01575
3182.13131	1.01041
3180.20274	1.00537
3178.27418	1.00008
3176.34562	0.99476
3174.41705	0.99034
3172.48849	0.98612
3170.55992	0.98081
3168.63136	0.97539
3166.70279	0.97094
3164.77423	0.96611
3162.84566	0.96043
3160.91710	0.95565
3158.98854	0.95284
3157.05997	0.95063
3155.13141	0.94698
3153.20284	0.94236
3151.27428	0.93867
3149.34571	0.93610
3147.41715	0.93351
3145.48858	0.93091
3143.56002	0.92885
3141.63146	0.92668
3139.70289	0.92438
3137.77433	0.92290
3135.84576	0.92227
3133.91720	0.92176
3131.98863	0.92036
3130.06007	0.91851
3128.13150	0.91773
3126.20294	0.91782
3124.27438	0.91808
3122.34581	0.91882
3120.41725	0.91988
3118.48868	0.92088
3116.56012	0.92118
3114.63155	0.91997
3112.70299	0.91857
3110.77442	0.91893
3108.84586	0.92036
3106.91730	0.92072
3104.98873	0.91955
3103.06017	0.91843
3101.13160	0.91795
3099.20304	0.91730
3097.27447	0.91585
3095.34591	0.91337
3093.41734	0.91104
3091.48878	0.91006
3089.56022	0.90936
3087.63165	0.90741
3085.70309	0.90432
3083.77452	0.90115
3081.84596	0.89807
3079.91739	0.89495
3077.98883	0.89246
3076.06026	0.89072
3074.13170	0.88912
3072.20314	0.88674
3070.27457	0.88280
3068.34601	0.87851
3066.41744	0.87524
3064.48888	0.87242
3062.56031	0.86975
3060.63175	0.86728
3058.70318	0.86406
3056.77462	0.85897
3054.84606	0.85247
3052.91749	0.84680
3050.98893	0.84289
3049.06036	0.83933
3047.13180	0.83508
3045.20323	0.83060
3043.27467	0.82650
3041.34610	0.82256
3039.41754	0.81872
3037.48898	0.81513
3035.56041	0.81141
3033.63185	0.80763
3031.70328	0.80439
3029.77472	0.80158
3027.84615	0.79860
3025.91759	0.79545
3023.98903	0.79227
3022.06046	0.78900
3020.13190	0.78618
3018.20333	0.78402
3016.27477	0.78186
3014.34620	0.77990
3012.41764	0.77830
3010.48907	0.77638
3008.56051	0.77395
3006.63195	0.77094
3004.70338	0.76807
3002.77482	0.76659
3000.84625	0.76627
2998.91769	0.76654
2996.98912	0.76759
2995.06056	0.76950
2993.13199	0.77246
2991.20343	0.77664
2989.27487	0.78184
2987.34630	0.78761
2985.41774	0.79358
2983.48917	0.79988
2981.56061	0.80709
2979.63204	0.81543
2977.70348	0.82405
2975.77491	0.83204
2973.84635	0.83972
2971.91779	0.84791
2969.98922	0.85687
2968.06066	0.86615
2966.13209	0.87478
2964.20353	0.88141
2962.27496	0.88496
2960.34640	0.88526
2958.41783	0.88230
2956.48927	0.87662
2954.56071	0.86988
2952.63214	0.86318
2950.70358	0.85712
2948.77501	0.85294
2946.84645	0.85228
2944.91788	0.85605
2942.98932	0.86348
2941.06075	0.87326
2939.13219	0.88486
2937.20363	0.89688
2935.27506	0.90809
2933.34650	0.91900
2931.41793	0.92907
2929.48937	0.93683
2927.56080	0.94293
2925.63224	0.94869
2923.70367	0.95350
2921.77511	0.95571
2919.84655	0.95439
2917.91798	0.94766
2915.98942	0.93205
2914.06085	0.90891
2912.13229	0.88557
2910.20372	0.86675
2908.27516	0.85153
2906.34659	0.83864
2904.41803	0.82864
2902.48947	0.82158
2900.56090	0.81634
2898.63234	0.81234
2896.70377	0.80964
2894.77521	0.80693
2892.84664	0.80261
2890.91808	0.79749
2888.98952	0.79304
2887.06095	0.78929
2885.13239	0.78619
2883.20382	0.78474
2881.27526	0.78551
2879.34669	0.78756
2877.41813	0.78911
2875.48956	0.78863
2873.56100	0.78572
2871.63244	0.78063
2869.70387	0.77378
2867.77531	0.76672
2865.84674	0.76090
2863.91818	0.75657
2861.98961	0.75470
2860.06105	0.75652
2858.13248	0.76141
2856.20392	0.76805
2854.27536	0.77552
2852.34679	0.78178
2850.41823	0.78168
2848.48966	0.76889
2846.56110	0.74476
2844.63253	0.71888
2842.70397	0.69783
2840.77540	0.68225
2838.84684	0.67093
2836.91828	0.66212
2834.98971	0.65464
2833.06115	0.64825
2831.13258	0.64313
2829.20402	0.63887
2827.27545	0.63453
2825.34689	0.62995
2823.41832	0.62564
2821.48976	0.62205
2819.56120	0.61926
2817.63263	0.61689
2815.70407	0.61450
2813.77550	0.61180
2811.84694	0.60899
2809.91837	0.60628
2807.98981	0.60357
2806.06124	0.60088
2804.13268	0.59826
2802.20412	0.59573
2800.27555	0.59330
2798.34699	0.59082
2796.41842	0.58828
2794.48986	0.58589
2792.56129	0.58373
2790.63273	0.58160
2788.70416	0.57935
2786.77560	0.57684
2784.84704	0.57410
2782.91847	0.57165
2780.98991	0.56963
2779.06134	0.56767
2777.13278	0.56588
2775.20421	0.56432
2773.27565	0.56265
2771.34708	0.56076
2769.41852	0.55865
2767.48996	0.55652
2765.56139	0.55446
2763.63283	0.55236
2761.70426	0.55042
2759.77570	0.54851
2757.84713	0.54623
2755.91857	0.54396
2753.99001	0.54185
2752.06144	0.53946
2750.13288	0.53712
2748.20431	0.53541
2746.27575	0.53411
2744.34718	0.53280
2742.41862	0.53149
2740.49005	0.53012
2738.56149	0.52864
2736.63293	0.52765
2734.70436	0.52739
2732.77580	0.52694
2730.84723	0.52569
2728.91867	0.52408
2726.99010	0.52294
2725.06154	0.52239
2723.13297	0.52178
2721.20441	0.52084
2719.27585	0.51987
2717.34728	0.51889
2715.41872	0.51771
2713.49015	0.51631
2711.56159	0.51481
2709.63302	0.51325
2707.70446	0.51150
2705.77589	0.50969
2703.84733	0.50795
2701.91877	0.50629
2699.99020	0.50500
2698.06164	0.50407
2696.13307	0.50290
2694.20451	0.50145
2692.27594	0.50007
2690.34738	0.49877
2688.41881	0.49750
2686.49025	0.49629
2684.56169	0.49513
2682.63312	0.49391
2680.70456	0.49245
2678.77599	0.49070
2676.84743	0.48885
2674.91886	0.48701
2672.99030	0.48530
2671.06173	0.48386
2669.13317	0.48250
2667.20461	0.48079
2665.27604	0.47891
2663.34748	0.47734
2661.41891	0.47589
2659.49035	0.47445
2657.56178	0.47333
2655.63322	0.47248
2653.70465	0.47172
2651.77609	0.47096
2649.84753	0.47023
2647.91896	0.46978
2645.99040	0.46952
2644.06183	0.46926
2642.13327	0.46898
2640.20470	0.46862
2638.27614	0.46793
2636.34757	0.46704
2634.41901	0.46629
2632.49045	0.46557
2630.56188	0.46472
2628.63332	0.46388
2626.70475	0.46299
2624.77619	0.46192
2622.84762	0.46079
2620.91906	0.45965
2618.99049	0.45846
2617.06193	0.45715
2615.13337	0.45583
2613.20480	0.45483
2611.27624	0.45415
2609.34767	0.45337
2607.41911	0.45234
2605.49054	0.45129
2603.56198	0.45049
2601.63342	0.44983
2599.70485	0.44910
2597.77629	0.44833
2595.84772	0.44755
2593.91916	0.44656
2591.99059	0.44524
2590.06203	0.44366
2588.13346	0.44217
2586.20490	0.44093
2584.27634	0.43970
2582.34777	0.43834
2580.41921	0.43685
2578.49064	0.43526
2576.56208	0.43389
2574.63351	0.43277
2572.70495	0.43143
2570.77638	0.42986
2568.84782	0.42850
2566.91926	0.42737
2564.99069	0.42630
2563.06213	0.42525
2561.13356	0.42414
2559.20500	0.42311
2557.27643	0.42243
2555.34787	0.42189
2553.41930	0.42125
2551.49074	0.42056
2549.56218	0.41972
2547.63361	0.41856
2545.70505	0.41731
2543.77648	0.41626
2541.84792	0.41537
2539.91935	0.41455
2537.99079	0.41380
2536.06222	0.41314
2534.13366	0.41264
2532.20510	0.41248
2530.27653	0.41246
2528.34797	0.41209
2526.41940	0.41144
2524.49084	0.41090
2522.56227	0.41047
2520.63371	0.41004
2518.70514	0.40975
2516.77658	0.40956
2514.84802	0.40919
2512.91945	0.40863
2510.99089	0.40818
2509.06232	0.40794
2507.13376	0.40756
2505.20519	0.40677
2503.27663	0.40575
2501.34806	0.40459
2499.41950	0.40325
2497.49094	0.40181
2495.56237	0.40032
2493.63381	0.39879
2491.70524	0.39734
2489.77668	0.39596
2487.84811	0.39447
2485.91955	0.39297
2483.99098	0.39161
2482.06242	0.39043
2480.13386	0.38928
2478.20529	0.38805
2476.27673	0.38694
2474.34816	0.38604
2472.41960	0.38529
2470.49103	0.38455
2468.56247	0.38379
2466.63391	0.38319
2464.70534	0.38273
2462.77678	0.38214
2460.84821	0.38139
2458.91965	0.38066
2456.99108	0.37980
2455.06252	0.37886
2453.13395	0.37819
2451.20539	0.37789
2449.27683	0.37762
2447.34826	0.37727
2445.41970	0.37685
2443.49113	0.37625
2441.56257	0.37564
2439.63400	0.37529
2437.70544	0.37518
2435.77687	0.37508
2433.84831	0.37481
2431.91975	0.37459
2429.99118	0.37457
2428.06262	0.37451
2426.13405	0.37435
2424.20549	0.37421
2422.27692	0.37410
2420.34836	0.37381
2418.41979	0.37315
2416.49123	0.37225
2414.56267	0.37134
2412.63410	0.37039
2410.70554	0.36920
2408.77697	0.36791
2406.84841	0.36664
2404.91984	0.36506
2402.99128	0.36317
2401.06271	0.36133
2399.13415	0.35974
2397.20559	0.35839
2395.27702	0.35724
2393.34846	0.35622
2391.41989	0.35521
2389.49133	0.35423
2387.56276	0.35362
2385.63420	0.35369
2383.70563	0.35457
2381.77707	0.35614
2379.84851	0.35805
2377.91994	0.35999
2375.99138	0.36200
2374.06281	0.36464
2372.13425	0.36818
2370.20568	0.37167
2368.27712	0.37439
2366.34855	0.37741
2364.41999	0.38141
2362.49143	0.38435
2360.56286	0.38473
2358.63430	0.38284
2356.70573	0.37839
2354.77717	0.37284
2352.84860	0.36799
2350.92004	0.36449
2348.99147	0.36297
2347.06291	0.36393
2345.13435	0.36705
2343.20578	0.36978
2341.27722	0.37052
2339.34865	0.37084
2337.42009	0.37105
2335.49152	0.37056
2333.56296	0.36973
2331.63440	0.36913
2329.70583	0.36841
2327.77727	0.36670
2325.84870	0.36413
2323.92014	0.36115
2321.99157	0.35775
2320.06301	0.35434
2318.13444	0.35109
2316.20588	0.34808
2314.27732	0.34575
2312.34875	0.34383
2310.42019	0.34187
2308.49162	0.33995
2306.56306	0.33815
2304.63449	0.33648
2302.70593	0.33509
2300.77736	0.33401
2298.84880	0.33308
2296.92024	0.33210
2294.99167	0.33110
2293.06311	0.33016
2291.13454	0.32917
2289.20598	0.32812
2287.27741	0.32726
2285.34885	0.32657
2283.42028	0.32586
2281.49172	0.32532
2279.56316	0.32508
2277.63459	0.32484
2275.70603	0.32441
2273.77746	0.32393
2271.84890	0.32361
2269.92033	0.32331
2267.99177	0.32278
2266.06320	0.32218
2264.13464	0.32182
2262.20608	0.32174
2260.27751	0.32186
2258.34895	0.32210
2256.42038	0.32234
2254.49182	0.32255
2252.56325	0.32276
2250.63469	0.32283
2248.70612	0.32280
2246.77756	0.32289
2244.84900	0.32298
2242.92043	0.32272
2240.99187	0.32211
2239.06330	0.32134
2237.13474	0.32050
2235.20617	0.31967
2233.27761	0.31876
2231.34904	0.31768
2229.42048	0.31666
2227.49192	0.31574
2225.56335	0.31486
2223.63479	0.31425
2221.70622	0.31388
2219.77766	0.31341
2217.84909	0.31290
2215.92053	0.31256
2213.99196	0.31233
2212.06340	0.31215
2210.13484	0.31207
2208.20627	0.31203
2206.27771	0.31185
2204.34914	0.31154
2202.42058	0.31135
2200.49201	0.31129
2198.56345	0.31124
2196.63488	0.31105
2194.70632	0.31077
2192.77776	0.31042
2190.84919	0.30991
2188.92063	0.30928
2186.99206	0.30868
2185.06350	0.30823
2183.13493	0.30806
2181.20637	0.30807
2179.27781	0.30796
2177.34924	0.30761
2175.42068	0.30736
2173.49211	0.30738
2171.56355	0.30741
2169.63498	0.30745
2167.70642	0.30763
2165.77785	0.30778
2163.84929	0.30769
2161.92073	0.30750
2159.99216	0.30728
2158.06360	0.30693
2156.13503	0.30651
2154.20647	0.30622
2152.27790	0.30593
2150.34934	0.30542
2148.42077	0.30488
2146.49221	0.30443
2144.56365	0.30401
2142.63508	0.30358
2140.70652	0.30311
2138.77795	0.30273
2136.84939	0.30264
2134.92082	0.30267
2132.99226	0.30258
2131.06369	0.30248
2129.13513	0.30263
2127.20657	0.30292
2125.27800	0.30314
2123.34944	0.30343
2121.42087	0.30381
2119.49231	0.30411
2117.56374	0.30423
2115.63518	0.30420
2113.70661	0.30404
2111.77805	0.30376
2109.84949	0.30334
2107.92092	0.30283
2105.99236	0.30227
2104.06379	0.30160
2102.13523	0.30075
2100.20666	0.29973
2098.27810	0.29858
2096.34953	0.29733
2094.42097	0.29610
2092.49241	0.29498
2090.56384	0.29387
2088.63528	0.29273
2086.70671	0.29165
2084.77815	0.29071
2082.84958	0.28976
2080.92102	0.28870
2078.99245	0.28774
2077.06389	0.28695
2075.13533	0.28611
2073.20676	0.28518
2071.27820	0.28428
2069.34963	0.28365
2067.42107	0.28337
2065.49250	0.28297
2063.56394	0.28232
2061.63537	0.28184
2059.70681	0.28153
2057.77825	0.28115
2055.84968	0.28077
2053.92112	0.28058
2051.99255	0.28055
2050.06399	0.28051
2048.13542	0.28030
2046.20686	0.27999
2044.27830	0.27983
2042.34973	0.27995
2040.42117	0.28012
2038.49260	0.28006
2036.56404	0.27989
2034.63547	0.27976
2032.70691	0.27958
2030.77834	0.27919
2028.84978	0.27857
2026.92122	0.27785
2024.99265	0.27705
2023.06409	0.27616
2021.13552	0.27510
2019.20696	0.27384
2017.27839	0.27228
2015.34983	0.27038
2013.42126	0.26838
2011.49270	0.26646
2009.56414	0.26445
2007.63557	0.26221
2005.70701	0.25991
2003.77844	0.25778
2001.84988	0.25590
1999.92131	0.25419
1997.99275	0.25259
1996.06418	0.25127
1994.13562	0.25035
1992.20706	0.24958
1990.27849	0.24871
1988.34993	0.24778
1986.42136	0.24695
1984.49280	0.24637
1982.56423	0.24602
1980.63567	0.24575
1978.70710	0.24566
1976.77854	0.24568
1974.84998	0.24568
1972.92141	0.24574
1970.99285	0.24593
1969.06428	0.24634
1967.13572	0.24664
1965.20715	0.24645
1963.27859	0.24596
1961.35002	0.24541
1959.42146	0.24482
1957.49290	0.24429
1955.56433	0.24370
1953.63577	0.24282
1951.70720	0.24175
1949.77864	0.24073
1947.85007	0.23981
1945.92151	0.23886
1943.99294	0.23778
1942.06438	0.23626
1940.13582	0.23429
1938.20725	0.23250
1936.27869	0.23110
1934.35012	0.22973
1932.42156	0.22818
1930.49299	0.22653
1928.56443	0.22486
1926.63586	0.22341
1924.70730	0.22231
1922.77874	0.22118
1920.85017	0.21975
1918.92161	0.21824
1916.99304	0.21662
1915.06448	0.21502
1913.13591	0.21400
1911.20735	0.21358
1909.27878	0.21312
1907.35022	0.21230
1905.42166	0.21156
1903.49309	0.21130
1901.56453	0.21142
1899.63596	0.21173
1897.70740	0.21219
1895.77883	0.21276
1893.85027	0.21320
1891.92171	0.21363
1889.99314	0.21409
1888.06458	0.21399
1886.13601	0.21349
1884.20745	0.21303
1882.27888	0.21235
1880.35032	0.21134
1878.42175	0.21023
1876.49319	0.20915
1874.56463	0.20800
1872.63606	0.20694
1870.70750	0.20624
1868.77893	0.20522
1866.85037	0.20283
1864.92180	0.20002
1862.99324	0.19781
1861.06467	0.19614
1859.13611	0.19460
1857.20755	0.19287
1855.27898	0.19106
1853.35042	0.18942
1851.42185	0.18823
1849.49329	0.18755
1847.56472	0.18708
1845.63616	0.18651
1843.70759	0.18526
1841.77903	0.18342
1839.85047	0.18198
1837.92190	0.18105
1835.99334	0.18017
1834.06477	0.17935
1832.13621	0.17919
1830.20764	0.17946
1828.27908	0.17907
1826.35051	0.17813
1824.42195	0.17711
1822.49339	0.17608
1820.56482	0.17529
1818.63626	0.17491
1816.70769	0.17469
1814.77913	0.17464
1812.85056	0.17486
1810.92200	0.17490
1808.99343	0.17441
1807.06487	0.17368
1805.13631	0.17321
1803.20774	0.17308
1801.27918	0.17291
1799.35061	0.17220
1797.42205	0.17127
1795.49348	0.17057
1793.56492	0.16989
1791.63635	0.16847
1789.70779	0.16631
1787.77923	0.16461
1785.85066	0.16359
1783.92210	0.16286
1781.99353	0.16218
1780.06497	0.16146
1778.13640	0.16105
1776.20784	0.16130
1774.27927	0.16240
1772.35071	0.16384
1770.42215	0.16434
1768.49358	0.16431
1766.56502	0.16452
1764.63645	0.16543
1762.70789	0.16747
1760.77932	0.17016
1758.85076	0.17285
1756.92220	0.17651
1754.99363	0.18078
1753.06507	0.18564
1751.13650	0.19342
1749.20794	0.20348
1747.27937	0.21134
1745.35081	0.21701
1743.42224	0.22199
1741.49368	0.22658
1739.56512	0.23031
1737.63655	0.23265
1735.70799	0.23445
1733.77942	0.23645
1731.85086	0.23678
1729.92229	0.23639
1727.99373	0.23685
1726.06516	0.23856
1724.13660	0.24189
1722.20804	0.24602
1720.27947	0.25090
1718.35091	0.25951
1716.42234	0.27277
1714.49378	0.28348
1712.56521	0.29327
1710.63665	0.30600
1708.70808	0.32257
1706.77952	0.34719
1704.85096	0.37975
1702.92239	0.41020
1700.99383	0.45234
1699.06526	0.51680
1697.13670	0.57528
1695.20813	0.63114
1693.27957	0.67389
1691.35100	0.70885
1689.42244	0.75094
1687.49388	0.79081
1685.56531	0.83209
1683.63675	0.89468
1681.70818	0.94077
1679.77962	0.96851
1677.85105	0.99603
1675.92249	1.02969
1673.99392	1.06561
1672.06536	1.09420
1670.13680	1.12498
1668.20823	1.15722
1666.27967	1.17653
1664.35110	1.19469
1662.42254	1.21811
1660.49397	1.23645
1658.56541	1.24795
1656.63684	1.25562
1654.70828	1.26405
1652.77972	1.27804
1650.85115	1.28441
1648.92259	1.28602
1646.99402	1.28879
1645.06546	1.29029
1643.13689	1.28947
1641.20833	1.29082
1639.27976	1.29281
1637.35120	1.29401
1635.42264	1.29540
1633.49407	1.29596
1631.56551	1.29485
1629.63694	1.29032
1627.70838	1.28273
1625.77981	1.27345
1623.85125	1.26155
1621.92269	1.24507
1619.99412	1.22776
1618.06556	1.20410
1616.13699	1.16441
1614.20843	1.12764
1612.27986	1.09689
1610.35130	1.06414
1608.42273	1.03027
1606.49417	1.00051
1604.56561	0.97694
1602.63704	0.95778
1600.70848	0.94246
1598.77991	0.93102
1596.85135	0.92271
1594.92278	0.91593
1592.99422	0.91028
1591.06565	0.90671
1589.13709	0.90560
1587.20853	0.90740
1585.27996	0.91210
1583.35140	0.91965
1581.42283	0.92939
1579.49427	0.94025
1577.56570	0.95470
1575.63714	0.97473
1573.70857	0.98966
1571.78001	1.00149
1569.85145	1.01978
1567.92288	1.04022
1565.99432	1.05610
1564.06575	1.07139
1562.13719	1.08470
1560.20862	1.10183
1558.28006	1.13479
1556.35149	1.15205
1554.42293	1.16046
1552.49437	1.16817
1550.56580	1.17479
1548.63724	1.17939
1546.70867	1.18197
1544.78011	1.18406
1542.85154	1.18702
1540.92298	1.18757
1538.99441	1.17628
1537.06585	1.16723
1535.13729	1.16074
1533.20872	1.15166
1531.28016	1.14099
1529.35159	1.13211
1527.42303	1.12464
1525.49446	1.11921
1523.56590	1.11585
1521.63733	1.11090
1519.70877	1.10652
1517.78021	1.10265
1515.85164	1.09446
1513.92308	1.08153
1511.99451	1.06631
1510.06595	1.05167
1508.13738	1.02766
1506.20882	0.97895
1504.28025	0.94888
1502.35169	0.92944
1500.42313	0.90712
1498.49456	0.87742
1496.56600	0.84102
1494.63743	0.81232
1492.70887	0.79285
1490.78030	0.77031
1488.85174	0.73956
1486.92317	0.71491
1484.99461	0.69938
1483.06605	0.68838
1481.13748	0.68023
1479.20892	0.67623
1477.28035	0.67781
1475.35179	0.68557
1473.42322	0.70154
1471.49466	0.72026
1469.56610	0.73186
1467.63753	0.74065
1465.70897	0.75131
1463.78040	0.76196
1461.85184	0.76833
1459.92327	0.77321
1457.99471	0.78290
1456.06614	0.79462
1454.13758	0.79778
1452.20902	0.79777
1450.28045	0.79708
1448.35189	0.79494
1446.42332	0.79083
1444.49476	0.78596
1442.56619	0.78054
1440.63763	0.77488
1438.70906	0.76869
1436.78050	0.75819
1434.85194	0.74444
1432.92337	0.73285
1430.99481	0.72115
1429.06624	0.70861
1427.13768	0.69897
1425.20911	0.69260
1423.28055	0.68851
1421.35198	0.68688
1419.42342	0.68698
1417.49486	0.68625
1415.56629	0.68406
1413.63773	0.68193
1411.70916	0.68023
1409.78060	0.67903
1407.85203	0.67874
1405.92347	0.67987
1403.99490	0.68227
1402.06634	0.68510
1400.13778	0.68847
1398.20921	0.69222
1396.28065	0.69508
1394.35208	0.69686
1392.42352	0.69892
1390.49495	0.70309
1388.56639	0.71197
1386.63782	0.72662
1384.70926	0.74231
1382.78070	0.75676
1380.85213	0.76933
1378.92357	0.77704
1376.99500	0.77776
1375.06644	0.76950
1373.13787	0.75292
1371.20931	0.73393
1369.28074	0.71216
1367.35218	0.68710
1365.42362	0.66318
1363.49505	0.63974
1361.56649	0.61768
1359.63792	0.60185
1357.70936	0.59076
1355.78079	0.58196
1353.85223	0.57520
1351.92366	0.57025
1349.99510	0.56623
1348.06654	0.56257
1346.13797	0.55947
1344.20941	0.55747
1342.28084	0.55674
1340.35228	0.55704
1338.42371	0.55784
1336.49515	0.55974
1334.56659	0.56427
1332.63802	0.57206
1330.70946	0.58202
1328.78089	0.59154
1326.85233	0.59874
1324.92376	0.60385
1322.99520	0.60824
1321.06663	0.61320
1319.13807	0.61893
1317.20951	0.62428
1315.28094	0.62867
1313.35238	0.63260
1311.42381	0.63567
1309.49525	0.63707
1307.56668	0.63660
1305.63812	0.63450
1303.70955	0.63134
1301.78099	0.62710
1299.85243	0.62123
1297.92386	0.61365
1295.99530	0.60522
1294.06673	0.59734
1292.13817	0.59105
1290.20960	0.58654
1288.28104	0.58326
1286.35247	0.58072
1284.42391	0.57856
1282.49535	0.57648
1280.56678	0.57478
1278.63822	0.57427
1276.70965	0.57539
1274.78109	0.57803
1272.85252	0.58228
1270.92396	0.58814
1268.99539	0.59507
1267.06683	0.60207
1265.13827	0.60799
1263.20970	0.61210
1261.28114	0.61414
1259.35257	0.61449
1257.42401	0.61409
1255.49544	0.61357
1253.56688	0.61314
1251.63831	0.61309
1249.70975	0.61347
1247.78119	0.61397
1245.85262	0.61441
1243.92406	0.61469
1241.99549	0.61476
1240.06693	0.61458
1238.13836	0.61397
1236.20980	0.61263
1234.28123	0.61023
1232.35267	0.60651
1230.42411	0.60126
1228.49554	0.59452
1226.56698	0.58648
1224.63841	0.57729
1222.70985	0.56712
1220.78128	0.55641
1218.85272	0.54582
1216.92415	0.53588
1214.99559	0.52745
1213.06703	0.52159
1211.13846	0.51834
1209.20990	0.51634
1207.28133	0.51368
1205.35277	0.50862
1203.42420	0.50039
1201.49564	0.48970
1199.56708	0.47793
1197.63851	0.46599
1195.70995	0.45465
1193.78138	0.44499
1191.85282	0.43777
1189.92425	0.43292
1187.99569	0.43023
1186.06712	0.42964
1184.13856	0.43104
1182.21000	0.43430
1180.28143	0.43963
1178.35287	0.44732
1176.42430	0.45724
1174.49574	0.46868
1172.56717	0.48094
1170.63861	0.49410
1168.71004	0.50902
1166.78148	0.52610
1164.85292	0.54451
1162.92435	0.56194
1160.99579	0.57526
1159.06722	0.58262
1157.13866	0.58392
1155.21009	0.57960
1153.28153	0.57059
1151.35296	0.55840
1149.42440	0.54463
1147.49584	0.53092
1145.56727	0.51871
1143.63871	0.50923
1141.71014	0.50337
1139.78158	0.50107
1137.85301	0.50169
1135.92445	0.50505
1133.99588	0.51127
1132.06732	0.52043
1130.13876	0.53256
1128.21019	0.54716
1126.28163	0.56284
1124.35306	0.57762
1122.42450	0.59007
1120.49593	0.59990
1118.56737	0.60713
1116.63880	0.61121
1114.71024	0.61146
1112.78168	0.60816
1110.85311	0.60262
1108.92455	0.59617
1106.99598	0.58996
1105.06742	0.58490
1103.13885	0.58146
1101.21029	0.57987
1099.28172	0.58054
1097.35316	0.58442
1095.42460	0.59220
1093.49603	0.60356
1091.56747	0.61763
1089.63890	0.63367
1087.71034	0.65173
1085.78177	0.67192
1083.85321	0.69277
1081.92464	0.71125
1079.99608	0.72503
1078.06752	0.73331
1076.13895	0.73582
1074.21039	0.73319
1072.28182	0.72695
1070.35326	0.71818
1068.42469	0.70815
1066.49613	0.69807
1064.56756	0.68793
1062.63900	0.67708
1060.71044	0.66535
1058.78187	0.65316
1056.85331	0.64097
1054.92474	0.62919
1052.99618	0.61825
1051.06761	0.60890
1049.13905	0.60226
1047.21049	0.59919
1045.28192	0.60013
1043.35336	0.60492
1041.42479	0.61204
1039.49623	0.61930
1037.56766	0.62545
1035.63910	0.62992
1033.71053	0.63234
1031.78197	0.63245
1029.85341	0.62970
1027.92484	0.62360
1025.99628	0.61444
1024.06771	0.60361
1022.13915	0.59297
1020.21058	0.58359
1018.28202	0.57526
1016.35345	0.56664
1014.42489	0.55572
1012.49633	0.54121
1010.56776	0.52329
1008.63920	0.50286
1006.71063	0.48178
1004.78207	0.46220
1002.85350	0.44518
1000.92494	0.43099
998.99637	0.41990
997.06781	0.41180
995.13925	0.40577
993.21068	0.40035
991.28212	0.39432
989.35355	0.38754
987.42499	0.38068
985.49642	0.37436
983.56786	0.36912
981.63929	0.36517
979.71073	0.36205
977.78217	0.35908
975.85360	0.35559
973.92504	0.35061
971.99647	0.34340
970.06791	0.33444
968.13934	0.32504
966.21078	0.31663
964.28221	0.31075
962.35365	0.30913
960.42509	0.31307
958.49652	0.32224
956.56796	0.33336
954.63939	0.34117
952.71083	0.34253
950.78226	0.33814
948.85370	0.33064
946.92513	0.32244
944.99657	0.31480
943.06801	0.30809
941.13944	0.30190
939.21088	0.29548
937.28231	0.28866
935.35375	0.28200
933.42518	0.27604
931.49662	0.27109
929.56805	0.26735
927.63949	0.26501
925.71093	0.26429
923.78236	0.26529
921.85380	0.26763
919.92523	0.27038
917.99667	0.27287
916.06810	0.27535
914.13954	0.27849
912.21098	0.28257
910.28241	0.28733
908.35385	0.29252
906.42528	0.29828
904.49672	0.30464
902.56815	0.31088
900.63959	0.31598
898.71102	0.31928
896.78246	0.32049
894.85390	0.31968
892.92533	0.31724
890.99677	0.31366
889.06820	0.30941
887.13964	0.30522
885.21107	0.30205
883.28251	0.30059
881.35394	0.30074
879.42538	0.30185
877.49682	0.30366
875.56825	0.30621
873.63969	0.30913
871.71112	0.31190
869.78256	0.31423
867.85399	0.31599
865.92543	0.31710
863.99686	0.31768
862.06830	0.31787
860.13974	0.31768
858.21117	0.31721
856.28261	0.31645
854.35404	0.31533
852.42548	0.31378
850.49691	0.31172
848.56835	0.30955
846.63978	0.30824
844.71122	0.30853
842.78266	0.31044
840.85409	0.31381
838.92553	0.31867
836.99696	0.32490
835.06840	0.33217
833.13983	0.34006
831.21127	0.34792
829.28270	0.35506
827.35414	0.36129
825.42558	0.36691
823.49701	0.37214
821.56845	0.37658
819.63988	0.37971
817.71132	0.38165
815.78275	0.38278
813.85419	0.38310
811.92562	0.38244
809.99706	0.38087
808.06850	0.37875
806.13993	0.37649
804.21137	0.37456
802.28280	0.37345
800.35424	0.37348
798.42567	0.37494
796.49711	0.37792
794.56854	0.38219
792.63998	0.38745
790.71142	0.39330
788.78285	0.39942
786.85429	0.40549
784.92572	0.41104
782.99716	0.41570
781.06859	0.41940
779.14003	0.42213
777.21147	0.42368
775.28290	0.42384
773.35434	0.42289
771.42577	0.42145
769.49721	0.41980
767.56864	0.41779
765.64008	0.41564
763.71151	0.41411
761.78295	0.41391
759.85439	0.41531
757.92582	0.41842
755.99726	0.42315
754.06869	0.42922
752.14013	0.43651
750.21156	0.44472
748.28300	0.45314
746.35443	0.46101
744.42587	0.46799
742.49731	0.47398
740.56874	0.47884
738.64018	0.48242
736.71161	0.48492
734.78305	0.48679
732.85448	0.48824
730.92592	0.48910
728.99735	0.48916
727.06879	0.48903
725.14023	0.48904
723.21166	0.48929
721.28310	0.49025
719.35453	0.49117
717.42597	0.49150
715.49740	0.49252
713.56884	0.49495
711.64027	0.49847
709.71171	0.50285
707.78315	0.50788
705.85458	0.51280
703.92602	0.51685
701.99745	0.52015
700.06889	0.52259
698.14032	0.52384
696.21176	0.52441
694.28319	0.52486
692.35463	0.52498
690.42607	0.52438
688.49750	0.52274
686.56894	0.52019
684.64037	0.51747
682.71181	0.51533
680.78324	0.51408
678.85468	0.51344
676.92611	0.51289
674.99755	0.51257
673.06899	0.51353
671.14042	0.51678
669.21186	0.52227
667.28329	0.52643
665.35473	0.52853
663.42616	0.53168
661.49760	0.53557
659.56903	0.53911
657.64047	0.54191
655.71191	0.54359
653.78334	0.54395
651.85478	0.54339
649.92621	0.54242
647.99765	0.54120
646.06908	0.54003
644.14052	0.53880
642.21195	0.53783
640.28339	0.53831
638.35483	0.53993
636.42626	0.54070
634.49770	0.53951
632.56913	0.53716
630.64057	0.53541
628.71200	0.53566
626.78344	0.53770
624.85488	0.53986
622.92631	0.54207
620.99775	0.54550
619.06918	0.54911
617.14062	0.55069
615.21205	0.55013
613.28349	0.54873
611.35492	0.54733
609.42636	0.54637
607.49780	0.54629
605.56923	0.54715
603.64067	0.54809
601.71210	0.54870
599.78354	0.54907
