3997.91406	0.87828
3995.98550	0.87963
3994.05693	0.87833
3992.12837	0.87619
3990.19980	0.87576
3988.27124	0.87581
3986.34268	0.87340
3984.41411	0.87061
3982.48555	0.87074
3980.55698	0.87203
3978.62842	0.87216
3976.69985	0.87166
3974.77129	0.87180
3972.84272	0.87197
3970.91416	0.87047
3968.98560	0.86859
3967.05703	0.86773
3965.12847	0.86713
3963.19990	0.86680
3961.27134	0.86730
3959.34277	0.86861
3957.41421	0.86945
3955.48564	0.86874
3953.55708	0.86769
3951.62852	0.86773
3949.69995	0.86822
3947.77139	0.86803
3945.84282	0.86721
3943.91426	0.86506
3941.98569	0.86281
3940.05713	0.86278
3938.12856	0.86347
3936.20000	0.86446
3934.27144	0.86578
3932.34287	0.86508
3930.41431	0.86294
3928.48574	0.86232
3926.55718	0.86277
3924.62861	0.86271
3922.70005	0.86248
3920.77148	0.86355
3918.84292	0.86573
3916.91436	0.86571
3914.98579	0.86289
3913.05723	0.86056
3911.12866	0.85924
3909.20010	0.85931
3907.27153	0.86179
3905.34297	0.86450
3903.41440	0.86279
3901.48584	0.85826
3899.55728	0.85533
3897.62871	0.85462
3895.70015	0.85606
3893.77158	0.85660
3891.84302	0.85225
3889.91445	0.84938
3887.98589	0.85102
3886.05733	0.85054
3884.12876	0.84834
3882.20020	0.84797
3880.27163	0.84509
3878.34307	0.84223
3876.41450	0.84283
3874.48594	0.84509
3872.55737	0.84771
3870.62881	0.84724
3868.70025	0.84433
3866.77168	0.84390
3864.84312	0.84290
3862.91455	0.84059
3860.98599	0.84160
3859.05742	0.84546
3857.12886	0.85052
3855.20029	0.85432
3853.27173	0.84802
3851.34317	0.83971
3849.41460	0.83891
3847.48604	0.84039
3845.55747	0.84155
3843.62891	0.84242
3841.70034	0.84483
3839.77178	0.84762
3837.84321	0.84444
3835.91465	0.83830
3833.98609	0.83692
3832.05752	0.83884
3830.12896	0.84001
3828.20039	0.83889
3826.27183	0.83663
3824.34326	0.83750
3822.41470	0.84056
3820.48613	0.83934
3818.55757	0.83707
3816.62901	0.83415
3814.70044	0.83048
3812.77188	0.83017
3810.84331	0.83178
3808.91475	0.83413
3806.98618	0.83558
3805.05762	0.83647
3803.12905	0.83622
3801.20049	0.83041
3799.27193	0.82654
3797.34336	0.82612
3795.41480	0.82480
3793.48623	0.82433
3791.55767	0.82514
3789.62910	0.82634
3787.70054	0.82745
3785.77197	0.82752
3783.84341	0.82739
3781.91485	0.82810
3779.98628	0.82647
3778.05772	0.82254
3776.12915	0.82189
3774.20059	0.82504
3772.27202	0.82898
3770.34346	0.82967
3768.41489	0.82651
3766.48633	0.82262
3764.55777	0.82110
3762.62920	0.82318
3760.70064	0.82474
3758.77207	0.82373
3756.84351	0.82495
3754.91494	0.82934
3752.98638	0.83262
3751.05781	0.82939
3749.12925	0.82676
3747.20069	0.83000
3745.27212	0.83138
3743.34356	0.82907
3741.41499	0.82993
3739.48643	0.83372
3737.55786	0.83698
3735.62930	0.83503
3733.70074	0.82858
3731.77217	0.82543
3729.84361	0.82607
3727.91504	0.82686
3725.98648	0.82492
3724.05791	0.82339
3722.12935	0.82518
3720.20078	0.82573
3718.27222	0.82419
3716.34366	0.82427
3714.41509	0.82651
3712.48653	0.82728
3710.55796	0.82365
3708.62940	0.82111
3706.70083	0.82258
3704.77227	0.82557
3702.84370	0.82524
3700.91514	0.82189
3698.98658	0.82121
3697.05801	0.82211
3695.12945	0.82319
3693.20088	0.82634
3691.27232	0.83063
3689.34375	0.82929
3687.41519	0.82475
3685.48662	0.82403
3683.55806	0.82587
3681.62950	0.82917
3679.70093	0.83363
3677.77237	0.83812
3675.84380	0.83906
3673.91524	0.83762
3671.98667	0.83786
3670.05811	0.83709
3668.12954	0.83794
3666.20098	0.84288
3664.27242	0.84814
3662.34385	0.85166
3660.41529	0.85595
3658.48672	0.86225
3656.55816	0.86688
3654.62959	0.86895
3652.70103	0.87263
3650.77246	0.87776
3648.84390	0.87849
3646.91534	0.87871
3644.98677	0.88312
3643.05821	0.88863
3641.12964	0.89355
3639.20108	0.89823
3637.27251	0.90363
3635.34395	0.90893
3633.41538	0.91333
3631.48682	0.91917
3629.55826	0.92756
3627.62969	0.93197
3625.70113	0.93307
3623.77256	0.93573
3621.84400	0.94093
3619.91543	0.94664
3617.98687	0.94925
3616.05830	0.95190
3614.12974	0.95597
3612.20118	0.95993
3610.27261	0.96459
3608.34405	0.97067
3606.41548	0.97691
3604.48692	0.98238
3602.55835	0.98655
3600.62979	0.98931
3598.70123	0.99440
3596.77266	1.00273
3594.84410	1.00877
3592.91553	1.01168
3590.98697	1.01604
3589.05840	1.02232
3587.12984	1.02685
3585.20127	1.02945
3583.27271	1.03307
3581.34415	1.03752
3579.41558	1.04250
3577.48702	1.04815
3575.55845	1.05372
3573.62989	1.05975
3571.70132	1.06756
3569.77276	1.07460
3567.84419	1.07788
3565.91563	1.08074
3563.98707	1.08555
3562.05850	1.09035
3560.12994	1.09536
3558.20137	1.10110
3556.27281	1.10677
3554.34424	1.11176
3552.41568	1.11611
3550.48711	1.12053
3548.55855	1.12647
3546.62999	1.13453
3544.70142	1.14189
3542.77286	1.14470
3540.84429	1.14674
3538.91573	1.15190
3536.98716	1.15667
3535.05860	1.15908
3533.13003	1.16281
3531.20147	1.16911
3529.27291	1.17702
3527.34434	1.18525
3525.41578	1.19085
3523.48721	1.19143
3521.55865	1.18995
3519.63008	1.19118
3517.70152	1.19559
3515.77295	1.20179
3513.84439	1.20850
3511.91583	1.21282
3509.98726	1.21443
3508.05870	1.21762
3506.13013	1.22473
3504.20157	1.23561
3502.27300	1.24729
3500.34444	1.25575
3498.41587	1.26078
3496.48731	1.26331
3494.55875	1.26605
3492.63018	1.27133
3490.70162	1.27686
3488.77305	1.28084
3486.84449	1.28561
3484.91592	1.29168
3482.98736	1.29863
3481.05879	1.30579
3479.13023	1.30863
3477.20167	1.30682
3475.27310	1.30541
3473.34454	1.30918
3471.41597	1.31703
3469.48741	1.32201
3467.55884	1.32260
3465.63028	1.32343
3463.70171	1.32670
3461.77315	1.33236
3459.84459	1.33620
3457.91602	1.33363
3455.98746	1.32938
3454.05889	1.33073
3452.13033	1.33946
3450.20176	1.35204
3448.27320	1.35976
3446.34464	1.35794
3444.41607	1.35237
3442.48751	1.34849
3440.55894	1.34875
3438.63038	1.35267
3436.70181	1.35590
3434.77325	1.35698
3432.84468	1.35840
3430.91612	1.35916
3428.98756	1.35762
3427.05899	1.35682
3425.13043	1.35630
3423.20186	1.35322
3421.27330	1.35145
3419.34473	1.35192
3417.41617	1.35094
3415.48760	1.35165
3413.55904	1.35581
3411.63048	1.36020
3409.70191	1.36451
3407.77335	1.36833
3405.84478	1.37137
3403.91622	1.37398
3401.98765	1.37267
3400.05909	1.36744
3398.13052	1.36462
3396.20196	1.36557
3394.27340	1.36672
3392.34483	1.36948
3390.41627	1.37504
3388.48770	1.37684
3386.55914	1.37282
3384.63057	1.37027
3382.70201	1.37408
3380.77344	1.38252
3378.84488	1.38952
3376.91632	1.38958
3374.98775	1.38399
3373.05919	1.37997
3371.13062	1.38267
3369.20206	1.38815
3367.27349	1.39052
3365.34493	1.38963
3363.41636	1.38572
3361.48780	1.38230
3359.55924	1.38521
3357.63067	1.39052
3355.70211	1.39242
3353.77354	1.39362
3351.84498	1.39674
3349.91641	1.40021
3347.98785	1.40045
3346.05928	1.39586
3344.13072	1.38930
3342.20216	1.38519
3340.27359	1.38648
3338.34503	1.38933
3336.41646	1.38851
3334.48790	1.38818
3332.55933	1.39229
3330.63077	1.39795
3328.70220	1.40358
3326.77364	1.40916
3324.84508	1.41276
3322.91651	1.41301
3320.98795	1.41208
3319.05938	1.41327
3317.13082	1.41552
3315.20225	1.41616
3313.27369	1.41525
3311.34513	1.41479
3309.41656	1.41831
3307.48800	1.42550
3305.55943	1.43056
3303.63087	1.43078
3301.70230	1.42918
3299.77374	1.42835
3297.84517	1.42821
3295.91661	1.42878
3293.98805	1.42860
3292.05948	1.42797
3290.13092	1.43061
3288.20235	1.43479
3286.27379	1.43749
3284.34522	1.43982
3282.41666	1.44096
3280.48809	1.44076
3278.55953	1.44135
3276.63097	1.44096
3274.70240	1.43645
3272.77384	1.43038
3270.84527	1.42715
3268.91671	1.42636
3266.98814	1.42439
3265.05958	1.41979
3263.13101	1.41579
3261.20245	1.41275
3259.27389	1.40666
3257.34532	1.39903
3255.41676	1.39360
3253.48819	1.38965
3251.55963	1.38636
3249.63106	1.38283
3247.70250	1.37699
3245.77393	1.37035
3243.84537	1.36577
3241.91681	1.36151
3239.98824	1.35611
3238.05968	1.35185
3236.13111	1.34946
3234.20255	1.34727
3232.27398	1.34395
3230.34542	1.34114
3228.41685	1.33989
3226.48829	1.33723
3224.55973	1.33379
3222.63116	1.33191
3220.70260	1.32924
3218.77403	1.32394
3216.84547	1.31723
3214.91690	1.31183
3212.98834	1.30901
3211.05977	1.30755
3209.13121	1.30616
3207.20265	1.30347
3205.27408	1.29883
3203.34552	1.29295
3201.41695	1.28757
3199.48839	1.28459
3197.55982	1.28358
3195.63126	1.28322
3193.70269	1.28241
3191.77413	1.27945
3189.84557	1.27463
3187.91700	1.26982
3185.98844	1.26514
3184.05987	1.26117
3182.13131	1.25884
3180.20274	1.25520
3178.27418	1.24800
3176.34562	1.24144
3174.41705	1.23773
3172.48849	1.23353
3170.55992	1.22911
3168.63136	1.22622
3166.70279	1.22272
3164.77423	1.21826
3162.84566	1.21423
3160.91710	1.20932
3158.98854	1.20375
3157.05997	1.20040
3155.13141	1.19840
3153.20284	1.19538
3151.27428	1.19269
3149.34571	1.19167
3147.41715	1.19128
3145.48858	1.18985
3143.56002	1.18708
3141.63146	1.18472
3139.70289	1.18315
3137.77433	1.18167
3135.84576	1.18132
3133.91720	1.18152
3131.98863	1.18032
3130.06007	1.17937
3128.13150	1.18073
3126.20294	1.18264
3124.27438	1.18348
3122.34581	1.18402
3120.41725	1.18427
3118.48868	1.18374
3116.56012	1.18396
3114.63155	1.18564
3112.70299	1.18647
3110.77442	1.18537
3108.84586	1.18427
3106.91730	1.18324
3104.98873	1.18101
3103.06017	1.17896
3101.13160	1.17791
3099.20304	1.17685
3097.27447	1.17486
3095.34591	1.17089
3093.41734	1.16654
3091.48878	1.16485
3089.56022	1.16516
3087.63165	1.16455
3085.70309	1.16188
3083.77452	1.15838
3081.84596	1.15462
3079.91739	1.15064
3077.98883	1.14786
3076.06026	1.14618
3074.13170	1.14410
3072.20314	1.14141
3070.27457	1.13857
3068.34601	1.13615
3066.41744	1.13429
3064.48888	1.13256
3062.56031	1.13056
3060.63175	1.12762
3058.70318	1.12395
3056.77462	1.12121
3054.84606	1.11906
3052.91749	1.11521
3050.98893	1.10987
3049.06036	1.10499
3047.13180	1.10206
3045.20323	1.10094
3043.27467	1.09972
3041.34610	1.09759
3039.41754	1.09495
3037.48898	1.09214
3035.56041	1.08987
3033.63185	1.08820
3031.70328	1.08553
3029.77472	1.08135
3027.84615	1.07846
3025.91759	1.07798
3023.98903	1.07751
3022.06046	1.07595
3020.13190	1.07447
3018.20333	1.07350
3016.27477	1.07120
3014.34620	1.06767
3012.41764	1.06577
3010.48907	1.06484
3008.56051	1.06225
3006.63195	1.05947
3004.70338	1.05881
3002.77482	1.05885
3000.84625	1.05798
2998.91769	1.05727
2996.98912	1.05745
2995.06056	1.05818
2993.13199	1.05903
2991.20343	1.06012
2989.27487	1.06228
2987.34630	1.06551
2985.41774	1.06868
2983.48917	1.07192
2981.56061	1.07631
2979.63204	1.08133
2977.70348	1.08624
2975.77491	1.09128
2973.84635	1.09573
2971.91779	1.09955
2969.98922	1.10446
2968.06066	1.11087
2966.13209	1.11710
2964.20353	1.12164
2962.27496	1.12416
2960.34640	1.12485
2958.41783	1.12395
2956.48927	1.12069
2954.56071	1.11546
2952.63214	1.11100
2950.70358	1.10838
2948.77501	1.10689
2946.84645	1.10679
2944.91788	1.10814
2942.98932	1.11089
2941.06075	1.11713
2939.13219	1.12743
2937.20363	1.13839
2935.27506	1.14749
2933.34650	1.15527
2931.41793	1.16333
2929.48937	1.17221
2927.56080	1.18059
2925.63224	1.18793
2923.70367	1.19487
2921.77511	1.20074
2919.84655	1.20311
2917.91798	1.19905
2915.98942	1.18634
2914.06085	1.16671
2912.13229	1.14632
2910.20372	1.12900
2908.27516	1.11442
2906.34659	1.10229
2904.41803	1.09345
2902.48947	1.08792
2900.56090	1.08399
2898.63234	1.08060
2896.70377	1.07818
2894.77521	1.07610
2892.84664	1.07260
2890.91808	1.06776
2888.98952	1.06438
2887.06095	1.06349
2885.13239	1.06247
2883.20382	1.06034
2881.27526	1.05911
2879.34669	1.05918
2877.41813	1.05917
2875.48956	1.05882
2873.56100	1.05786
2871.63244	1.05520
2869.70387	1.05107
2867.77531	1.04645
2865.84674	1.04201
2863.91818	1.03888
2861.98961	1.03851
2860.06105	1.04175
2858.13248	1.04796
2856.20392	1.05592
2854.27536	1.06542
2852.34679	1.07544
2850.41823	1.08013
2848.48966	1.07095
2846.56110	1.04779
2844.63253	1.02128
2842.70397	0.99964
2840.77540	0.98427
2838.84684	0.97389
2836.91828	0.96599
2834.98971	0.95908
2833.06115	0.95311
2831.13258	0.94796
2829.20402	0.94337
2827.27545	0.93900
2825.34689	0.93512
2823.41832	0.93214
2821.48976	0.92875
2819.56120	0.92416
2817.63263	0.92011
2815.70407	0.91752
2813.77550	0.91483
2811.84694	0.91097
2809.91837	0.90621
2807.98981	0.90138
2806.06124	0.89757
2804.13268	0.89471
2802.20412	0.89165
2800.27555	0.88796
2798.34699	0.88398
2796.41842	0.88039
2794.48986	0.87761
2792.56129	0.87441
2790.63273	0.87016
2788.70416	0.86647
2786.77560	0.86389
2784.84704	0.86138
2782.91847	0.85864
2780.98991	0.85569
2779.06134	0.85242
2777.13278	0.84948
2775.20421	0.84749
2773.27565	0.84612
2771.34708	0.84518
2769.41852	0.84456
2767.48996	0.84394
2765.56139	0.84286
2763.63283	0.84091
2761.70426	0.83868
2759.77570	0.83731
2757.84713	0.83670
2755.91857	0.83581
2753.99001	0.83476
2752.06144	0.83432
2750.13288	0.83440
2748.20431	0.83432
2746.27575	0.83374
2744.34718	0.83274
2742.41862	0.83137
2740.49005	0.82995
2738.56149	0.82885
2736.63293	0.82793
2734.70436	0.82707
2732.77580	0.82611
2730.84723	0.82488
2728.91867	0.82373
2726.99010	0.82282
2725.06154	0.82169
2723.13297	0.82026
2721.20441	0.81900
2719.27585	0.81766
2717.34728	0.81613
2715.41872	0.81502
2713.49015	0.81423
2711.56159	0.81339
2709.63302	0.81233
2707.70446	0.81079
2705.77589	0.80918
2703.84733	0.80814
2701.91877	0.80764
2699.99020	0.80740
2698.06164	0.80707
2696.13307	0.80620
2694.20451	0.80527
2692.27594	0.80517
2690.34738	0.80563
2688.41881	0.80629
2686.49025	0.80685
2684.56169	0.80643
2682.63312	0.80533
2680.70456	0.80478
2678.77599	0.80458
2676.84743	0.80403
2674.91886	0.80338
2672.99030	0.80248
2671.06173	0.80111
2669.13317	0.80016
2667.20461	0.80002
2665.27604	0.79986
2663.34748	0.79898
2661.41891	0.79755
2659.49035	0.79574
2657.56178	0.79355
2655.63322	0.79154
2653.70465	0.79003
2651.77609	0.78859
2649.84753	0.78678
2647.91896	0.78439
2645.99040	0.78196
2644.06183	0.77997
2642.13327	0.77781
2640.20470	0.77534
2638.27614	0.77332
2636.34757	0.77155
2634.41901	0.76933
2632.49045	0.76688
2630.56188	0.76468
2628.63332	0.76274
2626.70475	0.76086
2624.77619	0.75876
2622.84762	0.75656
2620.91906	0.75466
2618.99049	0.75293
2617.06193	0.75142
2615.13337	0.75030
2613.20480	0.74902
2611.27624	0.74743
2609.34767	0.74597
2607.41911	0.74456
2605.49054	0.74285
2603.56198	0.74123
2601.63342	0.74033
2599.70485	0.73961
2597.77629	0.73822
2595.84772	0.73680
2593.91916	0.73631
2591.99059	0.73586
2590.06203	0.73456
2588.13346	0.73326
2586.20490	0.73215
2584.27634	0.73063
2582.34777	0.72932
2580.41921	0.72863
2578.49064	0.72791
2576.56208	0.72659
2574.63351	0.72481
2572.70495	0.72298
2570.77638	0.72121
2568.84782	0.71958
2566.91926	0.71829
2564.99069	0.71754
2563.06213	0.71706
2561.13356	0.71633
2559.20500	0.71502
2557.27643	0.71312
2555.34787	0.71125
2553.41930	0.71004
2551.49074	0.70933
2549.56218	0.70866
2547.63361	0.70773
2545.70505	0.70682
2543.77648	0.70624
2541.84792	0.70599
2539.91935	0.70619
2537.99079	0.70668
2536.06222	0.70699
2534.13366	0.70703
2532.20510	0.70700
2530.27653	0.70699
2528.34797	0.70727
2526.41940	0.70808
2524.49084	0.70899
2522.56227	0.70960
2520.63371	0.71017
2518.70514	0.71048
2516.77658	0.71014
2514.84802	0.70980
2512.91945	0.70989
2510.99089	0.70982
2509.06232	0.70941
2507.13376	0.70890
2505.20519	0.70846
2503.27663	0.70827
2501.34806	0.70810
2499.41950	0.70735
2497.49094	0.70600
2495.56237	0.70438
2493.63381	0.70254
2491.70524	0.70070
2489.77668	0.69915
2487.84811	0.69759
2485.91955	0.69544
2483.99098	0.69268
2482.06242	0.68995
2480.13386	0.68750
2478.20529	0.68497
2476.27673	0.68245
2474.34816	0.68027
2472.41960	0.67809
2470.49103	0.67557
2468.56247	0.67317
2466.63391	0.67116
2464.70534	0.66908
2462.77678	0.66652
2460.84821	0.66360
2458.91965	0.66109
2456.99108	0.65937
2455.06252	0.65790
2453.13395	0.65632
2451.20539	0.65458
2449.27683	0.65265
2447.34826	0.65087
2445.41970	0.64942
2443.49113	0.64802
2441.56257	0.64640
2439.63400	0.64479
2437.70544	0.64360
2435.77687	0.64266
2433.84831	0.64155
2431.91975	0.64029
2429.99118	0.63896
2428.06262	0.63753
2426.13405	0.63638
2424.20549	0.63573
2422.27692	0.63507
2420.34836	0.63396
2418.41979	0.63240
2416.49123	0.63079
2414.56267	0.62961
2412.63410	0.62873
2410.70554	0.62766
2408.77697	0.62625
2406.84841	0.62482
2404.91984	0.62373
2402.99128	0.62278
2401.06271	0.62170
2399.13415	0.62038
2397.20559	0.61869
2395.27702	0.61690
2393.34846	0.61563
2391.41989	0.61485
2389.49133	0.61414
2387.56276	0.61351
2385.63420	0.61336
2383.70563	0.61363
2381.77707	0.61412
2379.84851	0.61516
2377.91994	0.61681
2375.99138	0.61864
2374.06281	0.62108
2372.13425	0.62489
2370.20568	0.62972
2368.27712	0.63431
2366.34855	0.63780
2364.41999	0.63995
2362.49143	0.64024
2360.56286	0.63928
2358.63430	0.63848
2356.70573	0.63725
2354.77717	0.63442
2352.84860	0.63039
2350.92004	0.62734
2348.99147	0.62681
2347.06291	0.62821
2345.13435	0.62942
2343.20578	0.62903
2341.27722	0.62917
2339.34865	0.63016
2337.42009	0.62992
2335.49152	0.62848
2333.56296	0.62708
2331.63440	0.62533
2329.70583	0.62315
2327.77727	0.62152
2325.84870	0.61986
2323.92014	0.61774
2321.99157	0.61619
2320.06301	0.61479
2318.13444	0.61191
2316.20588	0.60828
2314.27732	0.60532
2312.34875	0.60291
2310.42019	0.60079
2308.49162	0.59870
2306.56306	0.59610
2304.63449	0.59338
2302.70593	0.59136
2300.77736	0.58982
2298.84880	0.58816
2296.92024	0.58645
2294.99167	0.58476
2293.06311	0.58292
2291.13454	0.58130
2289.20598	0.58010
2287.27741	0.57892
2285.34885	0.57751
2283.42028	0.57625
2281.49172	0.57543
2279.56316	0.57493
2277.63459	0.57480
2275.70603	0.57488
2273.77746	0.57444
2271.84890	0.57337
2269.92033	0.57222
2267.99177	0.57113
2266.06320	0.57002
2264.13464	0.56904
2262.20608	0.56807
2260.27751	0.56683
2258.34895	0.56549
2256.42038	0.56421
2254.49182	0.56282
2252.56325	0.56133
2250.63469	0.55993
2248.70612	0.55867
2246.77756	0.55754
2244.84900	0.55632
2242.92043	0.55474
2240.99187	0.55300
2239.06330	0.55139
2237.13474	0.55012
2235.20617	0.54924
2233.27761	0.54835
2231.34904	0.54729
2229.42048	0.54639
2227.49192	0.54571
2225.56335	0.54513
2223.63479	0.54474
2221.70622	0.54461
2219.77766	0.54464
2217.84909	0.54471
2215.92053	0.54460
2213.99196	0.54423
2212.06340	0.54397
2210.13484	0.54411
2208.20627	0.54452
2206.27771	0.54488
2204.34914	0.54514
2202.42058	0.54543
2200.49201	0.54574
2198.56345	0.54611
2196.63488	0.54657
2194.70632	0.54686
2192.77776	0.54692
2190.84919	0.54695
2188.92063	0.54698
2186.99206	0.54700
2185.06350	0.54719
2183.13493	0.54741
2181.20637	0.54724
2179.27781	0.54675
2177.34924	0.54632
2175.42068	0.54593
2173.49211	0.54549
2171.56355	0.54506
2169.63498	0.54466
2167.70642	0.54420
2165.77785	0.54358
2163.84929	0.54290
2161.92073	0.54233
2159.99216	0.54181
2158.06360	0.54122
2156.13503	0.54068
2154.20647	0.54036
2152.27790	0.54044
2150.34934	0.54065
2148.42077	0.54047
2146.49221	0.54012
2144.56365	0.54020
2142.63508	0.54058
2140.70652	0.54090
2138.77795	0.54115
2136.84939	0.54149
2134.92082	0.54190
2132.99226	0.54219
2131.06369	0.54227
2129.13513	0.54240
2127.20657	0.54268
2125.27800	0.54304
2123.34944	0.54351
2121.42087	0.54398
2119.49231	0.54409
2117.56374	0.54389
2115.63518	0.54374
2113.70661	0.54377
2111.77805	0.54379
2109.84949	0.54338
2107.92092	0.54246
2105.99236	0.54142
2104.06379	0.54052
2102.13523	0.53957
2100.20666	0.53834
2098.27810	0.53702
2096.34953	0.53577
2094.42097	0.53452
2092.49241	0.53322
2090.56384	0.53183
2088.63528	0.53037
2086.70671	0.52897
2084.77815	0.52751
2082.84958	0.52577
2080.92102	0.52408
2078.99245	0.52269
2077.06389	0.52143
2075.13533	0.52029
2073.20676	0.51925
2071.27820	0.51812
2069.34963	0.51715
2067.42107	0.51660
2065.49250	0.51610
2063.56394	0.51536
2061.63537	0.51465
2059.70681	0.51422
2057.77825	0.51407
2055.84968	0.51407
2053.92112	0.51392
2051.99255	0.51346
2050.06399	0.51297
2048.13542	0.51277
2046.20686	0.51293
2044.27830	0.51329
2042.34973	0.51359
2040.42117	0.51363
2038.49260	0.51351
2036.56404	0.51354
2034.63547	0.51350
2032.70691	0.51310
2030.77834	0.51272
2028.84978	0.51257
2026.92122	0.51247
2024.99265	0.51239
2023.06409	0.51236
2021.13552	0.51233
2019.20696	0.51224
2017.27839	0.51193
2015.34983	0.51136
2013.42126	0.51092
2011.49270	0.51078
2009.56414	0.51055
2007.63557	0.50991
2005.70701	0.50899
2003.77844	0.50819
2001.84988	0.50762
1999.92131	0.50701
1997.99275	0.50630
1996.06418	0.50584
1994.13562	0.50574
1992.20706	0.50562
1990.27849	0.50527
1988.34993	0.50480
1986.42136	0.50424
1984.49280	0.50373
1982.56423	0.50352
1980.63567	0.50367
1978.70710	0.50394
1976.77854	0.50409
1974.84998	0.50413
1972.92141	0.50435
1970.99285	0.50490
1969.06428	0.50571
1967.13572	0.50650
1965.20715	0.50709
1963.27859	0.50757
1961.35002	0.50798
1959.42146	0.50833
1957.49290	0.50863
1955.56433	0.50880
1953.63577	0.50874
1951.70720	0.50861
1949.77864	0.50855
1947.85007	0.50864
1945.92151	0.50902
1943.99294	0.50930
1942.06438	0.50878
1940.13582	0.50788
1938.20725	0.50726
1936.27869	0.50674
1934.35012	0.50631
1932.42156	0.50609
1930.49299	0.50576
1928.56443	0.50516
1926.63586	0.50470
1924.70730	0.50466
1922.77874	0.50471
1920.85017	0.50455
1918.92161	0.50396
1916.99304	0.50280
1915.06448	0.50179
1913.13591	0.50141
1911.20735	0.50135
1909.27878	0.50105
1907.35022	0.50032
1905.42166	0.49947
1903.49309	0.49872
1901.56453	0.49800
1899.63596	0.49739
1897.70740	0.49717
1895.77883	0.49724
1893.85027	0.49709
1891.92171	0.49667
1889.99314	0.49598
1888.06458	0.49499
1886.13601	0.49413
1884.20745	0.49353
1882.27888	0.49304
1880.35032	0.49243
1878.42175	0.49156
1876.49319	0.49064
1874.56463	0.49011
1872.63606	0.49032
1870.70750	0.49104
1868.77893	0.49107
1866.85037	0.48951
1864.92180	0.48763
1862.99324	0.48646
1861.06467	0.48595
1859.13611	0.48552
1857.20755	0.48481
1855.27898	0.48393
1853.35042	0.48318
1851.42185	0.48288
1849.49329	0.48312
1847.56472	0.48364
1845.63616	0.48402
1843.70759	0.48346
1841.77903	0.48243
1839.85047	0.48194
1837.92190	0.48188
1835.99334	0.48194
1834.06477	0.48225
1832.13621	0.48312
1830.20764	0.48407
1828.27908	0.48439
1826.35051	0.48432
1824.42195	0.48380
1822.49339	0.48306
1820.56482	0.48281
1818.63626	0.48298
1816.70769	0.48309
1814.77913	0.48331
1812.85056	0.48385
1810.92200	0.48405
1808.99343	0.48343
1807.06487	0.48260
1805.13631	0.48232
1803.20774	0.48256
1801.27918	0.48255
1799.35061	0.48192
1797.42205	0.48150
1795.49348	0.48166
1793.56492	0.48164
1791.63635	0.48023
1789.70779	0.47833
1787.77923	0.47756
1785.85066	0.47770
1783.92210	0.47824
1781.99353	0.47871
1780.06497	0.47875
1778.13640	0.47896
1776.20784	0.47995
1774.27927	0.48173
1772.35071	0.48346
1770.42215	0.48395
1768.49358	0.48412
1766.56502	0.48484
1764.63645	0.48650
1762.70789	0.48925
1760.77932	0.49236
1758.85076	0.49523
1756.92220	0.49891
1754.99363	0.50336
1753.06507	0.50882
1751.13650	0.51704
1749.20794	0.52694
1747.27937	0.53478
1745.35081	0.54099
1743.42224	0.54688
1741.49368	0.55246
1739.56512	0.55742
1737.63655	0.56116
1735.70799	0.56436
1733.77942	0.56808
1731.85086	0.57033
1729.92229	0.57165
1727.99373	0.57359
1726.06516	0.57651
1724.13660	0.58084
1722.20804	0.58605
1720.27947	0.59227
1718.35091	0.60216
1716.42234	0.61522
1714.49378	0.62451
1712.56521	0.63315
1710.63665	0.64480
1708.70808	0.66013
1706.77952	0.68271
1704.85096	0.71197
1702.92239	0.73919
1700.99383	0.77683
1699.06526	0.83304
1697.13670	0.88273
1695.20813	0.93018
1693.27957	0.96668
1691.35100	0.99658
1689.42244	1.03219
1687.49388	1.06545
1685.56531	1.09935
1683.63675	1.14825
1681.70818	1.18036
1679.77962	1.19696
1677.85105	1.21319
1675.92249	1.23341
1673.99392	1.25542
1672.06536	1.27335
1670.13680	1.28992
1668.20823	1.30391
1666.27967	1.31148
1664.35110	1.31842
1662.42254	1.32677
1660.49397	1.33319
1658.56541	1.33666
1656.63684	1.33705
1654.70828	1.33435
1652.77972	1.32861
1650.85115	1.32577
1648.92259	1.32297
1646.99402	1.31928
1645.06546	1.31791
1643.13689	1.31558
1641.20833	1.31238
1639.27976	1.30962
1637.35120	1.30732
1635.42264	1.30253
1633.49407	1.29672
1631.56551	1.29220
1629.63694	1.28518
1627.70838	1.27476
1625.77981	1.26457
1623.85125	1.25251
1621.92269	1.23473
1619.99412	1.21753
1618.06556	1.19711
1616.13699	1.16615
1614.20843	1.13986
1612.27986	1.11939
1610.35130	1.09748
1608.42273	1.07492
1606.49417	1.05642
1604.56561	1.04304
1602.63704	1.03259
1600.70848	1.02446
1598.77991	1.01910
1596.85135	1.01635
1594.92278	1.01561
1592.99422	1.01657
1591.06565	1.01939
1589.13709	1.02446
1587.20853	1.03182
1585.27996	1.04119
1583.35140	1.05265
1581.42283	1.06537
1579.49427	1.07817
1577.56570	1.09338
1575.63714	1.11194
1573.70857	1.12456
1571.78001	1.13476
1569.85145	1.14951
1567.92288	1.16313
1565.99432	1.17240
1564.06575	1.18218
1562.13719	1.19093
1560.20862	1.20072
1558.28006	1.21790
1556.35149	1.22484
1554.42293	1.22453
1552.49437	1.22279
1550.56580	1.22083
1548.63724	1.21843
1546.70867	1.21586
1544.78011	1.21265
1542.85154	1.20745
1540.92298	1.19818
1538.99441	1.18700
1537.06585	1.18103
1535.13729	1.17604
1533.20872	1.16855
1531.28016	1.16084
1529.35159	1.15570
1527.42303	1.15073
1525.49446	1.14522
1523.56590	1.14196
1521.63733	1.13944
1519.70877	1.13529
1517.78021	1.12855
1515.85164	1.11757
1513.92308	1.10495
1511.99451	1.09356
1510.06595	1.08480
1508.13738	1.07046
1506.20882	1.03748
1504.28025	1.01855
1502.35169	1.00892
1500.42313	0.99869
1498.49456	0.98481
1496.56600	0.96782
1494.63743	0.95558
1492.70887	0.94862
1490.78030	0.94068
1488.85174	0.92840
1486.92317	0.91858
1484.99461	0.91321
1483.06605	0.90974
1481.13748	0.90771
1479.20892	0.90846
1477.28035	0.91349
1475.35179	0.92302
1473.42322	0.93629
1471.49466	0.94823
1469.56610	0.95456
1467.63753	0.95923
1465.70897	0.96489
1463.78040	0.96982
1461.85184	0.97229
1459.92327	0.97461
1457.99471	0.97889
1456.06614	0.98091
1454.13758	0.97908
1452.20902	0.97692
1450.28045	0.97416
1448.35189	0.96949
1446.42332	0.96307
1444.49476	0.95710
1442.56619	0.95187
1440.63763	0.94688
1438.70906	0.94112
1436.78050	0.93200
1434.85194	0.92206
1432.92337	0.91503
1430.99481	0.90833
1429.06624	0.90163
1427.13768	0.89778
1425.20911	0.89702
1423.28055	0.89782
1421.35198	0.89977
1419.42342	0.90349
1417.49486	0.90638
1415.56629	0.90693
1413.63773	0.90789
1411.70916	0.90978
1409.78060	0.91148
1407.85203	0.91305
1405.92347	0.91586
1403.99490	0.91952
1402.06634	0.92243
1400.13778	0.92525
1398.20921	0.92861
1396.28065	0.93184
1394.35208	0.93449
1392.42352	0.93709
1390.49495	0.94089
1388.56639	0.94776
1386.63782	0.95803
1384.70926	0.96811
1382.78070	0.97683
1380.85213	0.98346
1378.92357	0.98561
1376.99500	0.98236
1375.06644	0.97248
1373.13787	0.95651
1371.20931	0.93953
1369.28074	0.92143
1367.35218	0.90200
1365.42362	0.88447
1363.49505	0.86809
1361.56649	0.85321
1359.63792	0.84280
1357.70936	0.83570
1355.78079	0.83056
1353.85223	0.82726
1351.92366	0.82553
1349.99510	0.82512
1348.06654	0.82552
1346.13797	0.82638
1344.20941	0.82810
1342.28084	0.83123
1340.35228	0.83605
1338.42371	0.84169
1336.49515	0.84779
1334.56659	0.85551
1332.63802	0.86501
1330.70946	0.87553
1328.78089	0.88559
1326.85233	0.89373
1324.92376	0.89988
1322.99520	0.90508
1321.06663	0.91024
1319.13807	0.91569
1317.20951	0.92138
1315.28094	0.92672
1313.35238	0.93098
1311.42381	0.93364
1309.49525	0.93464
1307.56668	0.93425
1305.63812	0.93271
1303.70955	0.93061
1301.78099	0.92804
1299.85243	0.92403
1297.92386	0.91826
1295.99530	0.91195
1294.06673	0.90628
1292.13817	0.90160
1290.20960	0.89802
1288.28104	0.89540
1286.35247	0.89345
1284.42391	0.89171
1282.49535	0.89001
1280.56678	0.88867
1278.63822	0.88819
1276.70965	0.88902
1274.78109	0.89108
1272.85252	0.89394
1270.92396	0.89755
1268.99539	0.90212
1267.06683	0.90709
1265.13827	0.91135
1263.20970	0.91435
1261.28114	0.91614
1259.35257	0.91730
1257.42401	0.91844
1255.49544	0.91941
1253.56688	0.92002
1251.63831	0.92054
1249.70975	0.92103
1247.78119	0.92150
1245.85262	0.92208
1243.92406	0.92235
1241.99549	0.92191
1240.06693	0.92079
1238.13836	0.91865
1236.20980	0.91536
1234.28123	0.91106
1232.35267	0.90552
1230.42411	0.89886
1228.49554	0.89157
1226.56698	0.88337
1224.63841	0.87374
1222.70985	0.86349
1220.78128	0.85354
1218.85272	0.84394
1216.92415	0.83525
1214.99559	0.82849
1213.06703	0.82439
1211.13846	0.82267
1209.20990	0.82158
1207.28133	0.81931
1205.35277	0.81486
1203.42420	0.80741
1201.49564	0.79781
1199.56708	0.78812
1197.63851	0.77893
1195.70995	0.77011
1193.78138	0.76254
1191.85282	0.75707
1189.92425	0.75379
1187.99569	0.75283
1186.06712	0.75401
1184.13856	0.75671
1182.21000	0.76082
1180.28143	0.76684
1178.35287	0.77529
1176.42430	0.78611
1174.49574	0.79854
1172.56717	0.81164
1170.63861	0.82560
1168.71004	0.84145
1166.78148	0.85892
1164.85292	0.87647
1162.92435	0.89263
1160.99579	0.90535
1159.06722	0.91295
1157.13866	0.91575
1155.21009	0.91425
1153.28153	0.90928
1151.35296	0.90296
1149.42440	0.89607
1147.49584	0.88832
1145.56727	0.88133
1143.63871	0.87732
1141.71014	0.87673
1139.78158	0.87869
1137.85301	0.88253
1135.92445	0.88765
1133.99588	0.89382
1132.06732	0.90193
1130.13876	0.91237
1128.21019	0.92410
1126.28163	0.93601
1124.35306	0.94717
1122.42450	0.95684
1120.49593	0.96504
1118.56737	0.97174
1116.63880	0.97586
1114.71024	0.97612
1112.78168	0.97299
1110.85311	0.96838
1108.92455	0.96351
1106.99598	0.95830
1105.06742	0.95275
1103.13885	0.94774
1101.21029	0.94402
1099.28172	0.94176
1097.35316	0.94149
1095.42460	0.94453
1093.49603	0.95124
1091.56747	0.95999
1089.63890	0.96970
1087.71034	0.98152
1085.78177	0.99614
1083.85321	1.01203
1081.92464	1.02647
1079.99608	1.03734
1078.06752	1.04419
1076.13895	1.04693
1074.21039	1.04528
1072.28182	1.04026
1070.35326	1.03327
1068.42469	1.02546
1066.49613	1.01824
1064.56756	1.01171
1062.63900	1.00461
1060.71044	0.99705
1058.78187	0.99002
1056.85331	0.98393
1054.92474	0.97951
1052.99618	0.97708
1051.06761	0.97583
1049.13905	0.97494
1047.21049	0.97478
1045.28192	0.97715
1043.35336	0.98271
1041.42479	0.98937
1039.49623	0.99484
1037.56766	0.99848
1035.63910	1.00023
1033.71053	1.00029
1031.78197	0.99801
1029.85341	0.99212
1027.92484	0.98334
1025.99628	0.97336
1024.06771	0.96264
1022.13915	0.95183
1020.21058	0.94247
1018.28202	0.93509
1016.35345	0.92802
1014.42489	0.91894
1012.49633	0.90676
1010.56776	0.89177
1008.63920	0.87461
1006.71063	0.85636
1004.78207	0.83907
1002.85350	0.82370
1000.92494	0.80969
998.99637	0.79776
997.06781	0.78899
995.13925	0.78220
993.21068	0.77530
991.28212	0.76741
989.35355	0.75859
987.42499	0.74925
985.49642	0.74009
983.56786	0.73183
981.63929	0.72552
979.71073	0.72191
977.78217	0.71987
975.85360	0.71757
973.92504	0.71400
971.99647	0.70893
970.06791	0.70264
968.13934	0.69541
966.21078	0.68782
964.28221	0.68158
962.35365	0.67856
960.42509	0.67964
958.49652	0.68434
956.56796	0.68979
954.63939	0.69164
952.71083	0.68730
950.78226	0.67762
948.85370	0.66542
946.92513	0.65354
944.99657	0.64359
943.06801	0.63594
941.13944	0.63000
939.21088	0.62480
937.28231	0.62022
935.35375	0.61675
933.42518	0.61426
931.49662	0.61238
929.56805	0.61137
927.63949	0.61141
925.71093	0.61228
923.78236	0.61375
921.85380	0.61561
919.92523	0.61757
917.99667	0.61919
916.06810	0.62055
914.13954	0.62257
912.21098	0.62576
910.28241	0.63002
908.35385	0.63537
906.42528	0.64174
904.49672	0.64885
902.56815	0.65634
900.63959	0.66322
898.71102	0.66853
896.78246	0.67246
894.85390	0.67539
892.92533	0.67695
890.99677	0.67691
889.06820	0.67574
887.13964	0.67400
885.21107	0.67195
883.28251	0.66952
881.35394	0.66662
879.42538	0.66349
877.49682	0.66016
875.56825	0.65618
873.63969	0.65128
871.71112	0.64577
869.78256	0.63987
867.85399	0.63367
865.92543	0.62759
863.99686	0.62212
862.06830	0.61749
860.13974	0.61390
858.21117	0.61173
856.28261	0.61090
854.35404	0.61043
852.42548	0.60959
850.49691	0.60883
848.56835	0.60856
846.63978	0.60852
844.71122	0.60890
842.78266	0.61018
840.85409	0.61193
838.92553	0.61381
836.99696	0.61641
835.06840	0.61988
833.13983	0.62367
831.21127	0.62754
829.28270	0.63164
827.35414	0.63565
825.42558	0.63941
823.49701	0.64351
821.56845	0.64806
819.63988	0.65308
817.71132	0.65911
815.78275	0.66592
813.85419	0.67291
811.92562	0.68002
809.99706	0.68730
808.06850	0.69491
806.13993	0.70295
804.21137	0.71127
802.28280	0.71978
800.35424	0.72825
798.42567	0.73603
796.49711	0.74297
794.56854	0.75000
792.63998	0.75753
790.71142	0.76458
788.78285	0.77019
786.85429	0.77414
784.92572	0.77672
782.99716	0.77815
781.06859	0.77793
779.14003	0.77551
777.21147	0.77128
775.28290	0.76609
773.35434	0.76019
771.42577	0.75281
769.49721	0.74395
767.56864	0.73550
765.64008	0.72819
763.71151	0.72105
761.78295	0.71403
759.85439	0.70825
757.92582	0.70414
755.99726	0.70123
754.06869	0.69935
752.14013	0.69863
750.21156	0.69946
748.28300	0.70199
746.35443	0.70560
744.42587	0.71004
742.49731	0.71540
740.56874	0.72167
738.64018	0.72904
736.71161	0.73727
734.78305	0.74626
732.85448	0.75664
730.92592	0.76778
728.99735	0.77745
727.06879	0.78507
725.14023	0.79176
723.21166	0.79821
721.28310	0.80470
719.35453	0.80922
717.42597	0.80930
715.49740	0.80585
713.56884	0.80068
711.64027	0.79419
709.71171	0.78655
707.78315	0.77831
705.85458	0.76899
703.92602	0.75800
701.99745	0.74640
700.06889	0.73493
698.14032	0.72305
696.21176	0.71091
694.28319	0.70004
692.35463	0.69144
690.42607	0.68392
688.49750	0.67600
686.56894	0.66857
684.64037	0.66293
682.71181	0.65940
680.78324	0.65807
678.85468	0.65848
676.92611	0.66008
674.99755	0.66303
673.06899	0.66774
671.14042	0.67401
669.21186	0.68292
667.28329	0.69435
665.35473	0.70387
663.42616	0.71419
661.49760	0.72692
659.56903	0.73964
657.64047	0.75183
655.71191	0.76596
653.78334	0.78236
651.85478	0.79852
649.92621	0.81427
647.99765	0.83090
646.06908	0.84826
644.14052	0.86548
642.21195	0.88176
640.28339	0.89868
638.35483	0.91744
636.42626	0.93583
634.49770	0.95038
632.56913	0.96035
630.64057	0.96800
628.71200	0.97533
626.78344	0.98181
624.85488	0.98477
622.92631	0.98442
620.99775	0.98218
619.06918	0.97636
617.14062	0.96564
615.21205	0.95135
613.28349	0.93458
611.35492	0.91595
609.42636	0.89606
607.49780	0.87606
605.56923	0.85821
603.64067	0.84145
601.71210	0.82336
599.78354	0.80508
