3997.91406	0.37492
3995.98550	0.37520
3994.05693	0.37566
3992.12837	0.37571
3990.19980	0.37547
3988.27124	0.37496
3986.34268	0.37394
3984.41411	0.37317
3982.48555	0.37308
3980.55698	0.37280
3978.62842	0.37199
3976.69985	0.37122
3974.77129	0.37094
3972.84272	0.37110
3970.91416	0.37113
3968.98560	0.37067
3967.05703	0.37003
3965.12847	0.36974
3963.19990	0.37027
3961.27134	0.37115
3959.34277	0.37135
3957.41421	0.37086
3955.48564	0.37000
3953.55708	0.36908
3951.62852	0.36874
3949.69995	0.36972
3947.77139	0.37036
3945.84282	0.36896
3943.91426	0.36836
3941.98569	0.36933
3940.05713	0.36862
3938.12856	0.36668
3936.20000	0.36540
3934.27144	0.36517
3932.34287	0.36577
3930.41431	0.36563
3928.48574	0.36387
3926.55718	0.36269
3924.62861	0.36296
3922.70005	0.36149
3920.77148	0.35881
3918.84292	0.35875
3916.91436	0.36044
3914.98579	0.35971
3913.05723	0.35710
3911.12866	0.35522
3909.20010	0.35395
3907.27153	0.35296
3905.34297	0.35469
3903.41440	0.35912
3901.48584	0.36179
3899.55728	0.36253
3897.62871	0.36043
3895.70015	0.35577
3893.77158	0.35341
3891.84302	0.35657
3889.91445	0.35772
3887.98589	0.35434
3886.05733	0.35363
3884.12876	0.35525
3882.20020	0.35576
3880.27163	0.35766
3878.34307	0.35648
3876.41450	0.35291
3874.48594	0.35214
3872.55737	0.35350
3870.62881	0.35669
3868.70025	0.35858
3866.77168	0.35649
3864.84312	0.35668
3862.91455	0.35837
3860.98599	0.35576
3859.05742	0.35134
3857.12886	0.34745
3855.20029	0.34742
3853.27173	0.35797
3851.34317	0.36248
3849.41460	0.35691
3847.48604	0.35052
3845.55747	0.34688
3843.62891	0.34708
3841.70034	0.34910
3839.77178	0.35210
3837.84321	0.35545
3835.91465	0.35439
3833.98609	0.35131
3832.05752	0.34956
3830.12896	0.34763
3828.20039	0.34552
3826.27183	0.34427
3824.34326	0.34268
3822.41470	0.34467
3820.48613	0.35061
3818.55757	0.34929
3816.62901	0.34689
3814.70044	0.34581
3812.77188	0.34142
3810.84331	0.33659
3808.91475	0.33544
3806.98618	0.33865
3805.05762	0.33904
3803.12905	0.33813
3801.20049	0.34215
3799.27193	0.34263
3797.34336	0.33995
3795.41480	0.33860
3793.48623	0.33635
3791.55767	0.33364
3789.62910	0.33218
3787.70054	0.33203
3785.77197	0.33361
3783.84341	0.33484
3781.91485	0.33411
3779.98628	0.33532
3778.05772	0.33755
3776.12915	0.33604
3774.20059	0.33331
3772.27202	0.33315
3770.34346	0.33633
3768.41489	0.33824
3766.48633	0.33758
3764.55777	0.33652
3762.62920	0.33456
3760.70064	0.33451
3758.77207	0.33752
3756.84351	0.33721
3754.91494	0.33360
3752.98638	0.33331
3751.05781	0.34177
3749.12925	0.34567
3747.20069	0.34140
3745.27212	0.34121
3743.34356	0.34320
3741.41499	0.33959
3739.48643	0.33536
3737.55786	0.33618
3735.62930	0.34296
3733.70074	0.34639
3731.77217	0.34283
3729.84361	0.33741
3727.91504	0.33379
3725.98648	0.33405
3724.05791	0.33610
3722.12935	0.33673
3720.20078	0.33534
3718.27222	0.33194
3716.34366	0.32744
3714.41509	0.32444
3712.48653	0.32805
3710.55796	0.33598
3708.62940	0.33558
3706.70083	0.33043
3704.77227	0.32637
3702.84370	0.32610
3700.91514	0.32777
3698.98658	0.32726
3697.05801	0.32580
3695.12945	0.32424
3693.20088	0.32289
3691.27232	0.32534
3689.34375	0.33298
3687.41519	0.33551
3685.48662	0.33248
3683.55806	0.32947
3681.62950	0.32822
3679.70093	0.32830
3677.77237	0.33117
3675.84380	0.34130
3673.91524	0.34594
3671.98667	0.34340
3670.05811	0.34715
3668.12954	0.35013
3666.20098	0.34693
3664.27242	0.34472
3662.34385	0.34502
3660.41529	0.34578
3658.48672	0.34764
3656.55816	0.35295
3654.62959	0.35586
3652.70103	0.35404
3650.77246	0.35754
3648.84390	0.37382
3646.91534	0.38111
3644.98677	0.37843
3643.05821	0.37641
3641.12964	0.37732
3639.20108	0.37934
3637.27251	0.38121
3635.34395	0.38376
3633.41538	0.38666
3631.48682	0.38944
3629.55826	0.39888
3627.62969	0.41043
3625.70113	0.41025
3623.77256	0.40727
3621.84400	0.40801
3619.91543	0.41519
3617.98687	0.42295
3616.05830	0.42486
3614.12974	0.42678
3612.20118	0.43021
3610.27261	0.43371
3608.34405	0.43943
3606.41548	0.44376
3604.48692	0.44460
3602.55835	0.44695
3600.62979	0.45245
3598.70123	0.45727
3596.77266	0.46108
3594.84410	0.46644
3592.91553	0.47043
3590.98697	0.47128
3589.05840	0.47549
3587.12984	0.48651
3585.20127	0.49272
3583.27271	0.49342
3581.34415	0.49576
3579.41558	0.50083
3577.48702	0.50625
3575.55845	0.51120
3573.62989	0.51545
3571.70132	0.51830
3569.77276	0.52212
3567.84419	0.53332
3565.91563	0.54790
3563.98707	0.55350
3562.05850	0.55581
3560.12994	0.55975
3558.20137	0.56396
3556.27281	0.56790
3554.34424	0.57342
3552.41568	0.58084
3550.48711	0.58687
3548.55855	0.59171
3546.62999	0.59913
3544.70142	0.60741
3542.77286	0.61235
3540.84429	0.61567
3538.91573	0.62028
3536.98716	0.62706
3535.05860	0.63423
3533.13003	0.64000
3531.20147	0.64607
3529.27291	0.65425
3527.34434	0.66289
3525.41578	0.67028
3523.48721	0.67753
3521.55865	0.68420
3519.63008	0.68948
3517.70152	0.69559
3515.77295	0.70375
3513.84439	0.71269
3511.91583	0.72130
3509.98726	0.73001
3508.05870	0.73900
3506.13013	0.74789
3504.20157	0.75856
3502.27300	0.77009
3500.34444	0.77925
3498.41587	0.78790
3496.48731	0.79817
3494.55875	0.80919
3492.63018	0.81892
3490.70162	0.82639
3488.77305	0.83306
3486.84449	0.84043
3484.91592	0.84748
3482.98736	0.85447
3481.05879	0.86135
3479.13023	0.86571
3477.20167	0.86900
3475.27310	0.87336
3473.34454	0.87774
3471.41597	0.88162
3469.48741	0.88658
3467.55884	0.89383
3465.63028	0.90130
3463.70171	0.90680
3461.77315	0.91181
3459.84459	0.91829
3457.91602	0.92547
3455.98746	0.93236
3454.05889	0.93822
3452.13033	0.94187
3450.20176	0.94440
3448.27320	0.94811
3446.34464	0.95388
3444.41607	0.96065
3442.48751	0.96701
3440.55894	0.97111
3438.63038	0.97123
3436.70181	0.96919
3434.77325	0.96827
3432.84468	0.97013
3430.91612	0.97394
3428.98756	0.97694
3427.05899	0.97794
3425.13043	0.97817
3423.20186	0.97917
3421.27330	0.98145
3419.34473	0.98384
3417.41617	0.98499
3415.48760	0.98591
3413.55904	0.98741
3411.63048	0.98883
3409.70191	0.99066
3407.77335	0.99316
3405.84478	0.99545
3403.91622	0.99697
3401.98765	0.99769
3400.05909	0.99861
3398.13052	1.00067
3396.20196	1.00400
3394.27340	1.00781
3392.34483	1.01036
3390.41627	1.01199
3388.48770	1.01438
3386.55914	1.01764
3384.63057	1.02182
3382.70201	1.02562
3380.77344	1.02700
3378.84488	1.02712
3376.91632	1.02800
3374.98775	1.02960
3373.05919	1.03106
3371.13062	1.03274
3369.20206	1.03584
3367.27349	1.04051
3365.34493	1.04467
3363.41636	1.04668
3361.48780	1.04844
3359.55924	1.05137
3357.63067	1.05487
3355.70211	1.05904
3353.77354	1.06233
3351.84498	1.06299
3349.91641	1.06382
3347.98785	1.06727
3346.05928	1.07226
3344.13072	1.07812
3342.20216	1.08473
3340.27359	1.09098
3338.34503	1.09529
3336.41646	1.09829
3334.48790	1.10257
3332.55933	1.10770
3330.63077	1.11272
3328.70220	1.11937
3326.77364	1.12747
3324.84508	1.13469
3322.91651	1.14097
3320.98795	1.14801
3319.05938	1.15558
3317.13082	1.16165
3315.20225	1.16706
3313.27369	1.17391
3311.34513	1.18076
3309.41656	1.18656
3307.48800	1.19263
3305.55943	1.19864
3303.63087	1.20342
3301.70230	1.20806
3299.77374	1.21346
3297.84517	1.21794
3295.91661	1.22106
3293.98805	1.22439
3292.05948	1.22834
3290.13092	1.23243
3288.20235	1.23627
3286.27379	1.23906
3284.34522	1.23893
3282.41666	1.23516
3280.48809	1.22984
3278.55953	1.22526
3276.63097	1.22245
3274.70240	1.22122
3272.77384	1.21907
3270.84527	1.21265
3268.91671	1.20309
3266.98814	1.19408
3265.05958	1.18523
3263.13101	1.17532
3261.20245	1.16607
3259.27389	1.15730
3257.34532	1.14626
3255.41676	1.13262
3253.48819	1.11873
3251.55963	1.10648
3249.63106	1.09495
3247.70250	1.08258
3245.77393	1.07073
3243.84537	1.06018
3241.91681	1.04875
3239.98824	1.03692
3238.05968	1.02748
3236.13111	1.02007
3234.20255	1.01280
3232.27398	1.00545
3230.34542	0.99915
3228.41685	0.99437
3226.48829	0.98943
3224.55973	0.98336
3222.63116	0.97773
3220.70260	0.97333
3218.77403	0.96794
3216.84547	0.96095
3214.91690	0.95511
3212.98834	0.95123
3211.05977	0.94705
3209.13121	0.94074
3207.20265	0.93327
3205.27408	0.92706
3203.34552	0.92272
3201.41695	0.91894
3199.48839	0.91452
3197.55982	0.90977
3195.63126	0.90494
3193.70269	0.89911
3191.77413	0.89251
3189.84557	0.88665
3187.91700	0.88190
3185.98844	0.87753
3184.05987	0.87260
3182.13131	0.86666
3180.20274	0.86079
3178.27418	0.85610
3176.34562	0.85211
3174.41705	0.84809
3172.48849	0.84382
3170.55992	0.83937
3168.63136	0.83493
3166.70279	0.83038
3164.77423	0.82569
3162.84566	0.82145
3160.91710	0.81808
3158.98854	0.81477
3157.05997	0.81062
3155.13141	0.80592
3153.20284	0.80120
3151.27428	0.79696
3149.34571	0.79351
3147.41715	0.79028
3145.48858	0.78688
3143.56002	0.78328
3141.63146	0.77919
3139.70289	0.77580
3137.77433	0.77414
3135.84576	0.77262
3133.91720	0.77033
3131.98863	0.76819
3130.06007	0.76678
3128.13150	0.76594
3126.20294	0.76484
3124.27438	0.76314
3122.34581	0.76190
3120.41725	0.76188
3118.48868	0.76239
3116.56012	0.76278
3114.63155	0.76352
3112.70299	0.76453
3110.77442	0.76474
3108.84586	0.76439
3106.91730	0.76464
3104.98873	0.76503
3103.06017	0.76489
3101.13160	0.76454
3099.20304	0.76372
3097.27447	0.76222
3095.34591	0.76046
3093.41734	0.75868
3091.48878	0.75690
3089.56022	0.75533
3087.63165	0.75382
3085.70309	0.75172
3083.77452	0.74927
3081.84596	0.74698
3079.91739	0.74446
3077.98883	0.74164
3076.06026	0.73874
3074.13170	0.73539
3072.20314	0.73193
3070.27457	0.72949
3068.34601	0.72770
3066.41744	0.72525
3064.48888	0.72233
3062.56031	0.71985
3060.63175	0.71763
3058.70318	0.71472
3056.77462	0.71086
3054.84606	0.70641
3052.91749	0.70168
3050.98893	0.69764
3049.06036	0.69463
3047.13180	0.69105
3045.20323	0.68608
3043.27467	0.68116
3041.34610	0.67747
3039.41754	0.67407
3037.48898	0.66959
3035.56041	0.66445
3033.63185	0.65993
3031.70328	0.65607
3029.77472	0.65222
3027.84615	0.64826
3025.91759	0.64442
3023.98903	0.64106
3022.06046	0.63815
3020.13190	0.63552
3018.20333	0.63345
3016.27477	0.63194
3014.34620	0.63056
3012.41764	0.62924
3010.48907	0.62804
3008.56051	0.62683
3006.63195	0.62590
3004.70338	0.62557
3002.77482	0.62557
3000.84625	0.62569
2998.91769	0.62627
2996.98912	0.62760
2995.06056	0.62960
2993.13199	0.63204
2991.20343	0.63524
2989.27487	0.63954
2987.34630	0.64424
2985.41774	0.64882
2983.48917	0.65392
2981.56061	0.65980
2979.63204	0.66598
2977.70348	0.67268
2975.77491	0.68021
2973.84635	0.68801
2971.91779	0.69586
2969.98922	0.70425
2968.06066	0.71293
2966.13209	0.72076
2964.20353	0.72740
2962.27496	0.73299
2960.34640	0.73612
2958.41783	0.73537
2956.48927	0.73182
2954.56071	0.72745
2952.63214	0.72344
2950.70358	0.72032
2948.77501	0.71833
2946.84645	0.71845
2944.91788	0.72215
2942.98932	0.72936
2941.06075	0.73863
2939.13219	0.74876
2937.20363	0.75923
2935.27506	0.76966
2933.34650	0.77931
2931.41793	0.78773
2929.48937	0.79506
2927.56080	0.80120
2925.63224	0.80585
2923.70367	0.80846
2921.77511	0.80847
2919.84655	0.80585
2917.91798	0.79898
2915.98942	0.78493
2914.06085	0.76465
2912.13229	0.74379
2910.20372	0.72656
2908.27516	0.71284
2906.34659	0.70183
2904.41803	0.69363
2902.48947	0.68807
2900.56090	0.68449
2898.63234	0.68192
2896.70377	0.67990
2894.77521	0.67841
2892.84664	0.67651
2890.91808	0.67324
2888.98952	0.66945
2887.06095	0.66698
2885.13239	0.66623
2883.20382	0.66569
2881.27526	0.66473
2879.34669	0.66456
2877.41813	0.66515
2875.48956	0.66468
2873.56100	0.66211
2871.63244	0.65744
2869.70387	0.65111
2867.77531	0.64441
2865.84674	0.63878
2863.91818	0.63506
2861.98961	0.63383
2860.06105	0.63564
2858.13248	0.64031
2856.20392	0.64656
2854.27536	0.65305
2852.34679	0.65864
2850.41823	0.65953
2848.48966	0.65005
2846.56110	0.63074
2844.63253	0.60933
2842.70397	0.59181
2840.77540	0.57909
2838.84684	0.56997
2836.91828	0.56310
2834.98971	0.55740
2833.06115	0.55225
2831.13258	0.54763
2829.20402	0.54346
2827.27545	0.53926
2825.34689	0.53462
2823.41832	0.52988
2821.48976	0.52582
2819.56120	0.52224
2817.63263	0.51851
2815.70407	0.51486
2813.77550	0.51153
2811.84694	0.50838
2809.91837	0.50550
2807.98981	0.50300
2806.06124	0.50084
2804.13268	0.49871
2802.20412	0.49646
2800.27555	0.49441
2798.34699	0.49280
2796.41842	0.49138
2794.48986	0.48986
2792.56129	0.48841
2790.63273	0.48717
2788.70416	0.48599
2786.77560	0.48477
2784.84704	0.48338
2782.91847	0.48170
2780.98991	0.47982
2779.06134	0.47799
2777.13278	0.47636
2775.20421	0.47469
2773.27565	0.47278
2771.34708	0.47080
2769.41852	0.46880
2767.48996	0.46677
2765.56139	0.46474
2763.63283	0.46282
2761.70426	0.46113
2759.77570	0.45976
2757.84713	0.45859
2755.91857	0.45740
2753.99001	0.45634
2752.06144	0.45567
2750.13288	0.45515
2748.20431	0.45446
2746.27575	0.45356
2744.34718	0.45270
2742.41862	0.45213
2740.49005	0.45157
2738.56149	0.45071
2736.63293	0.44986
2734.70436	0.44915
2732.77580	0.44816
2730.84723	0.44671
2728.91867	0.44509
2726.99010	0.44356
2725.06154	0.44189
2723.13297	0.43987
2721.20441	0.43785
2719.27585	0.43605
2717.34728	0.43428
2715.41872	0.43262
2713.49015	0.43113
2711.56159	0.42960
2709.63302	0.42808
2707.70446	0.42677
2705.77589	0.42577
2703.84733	0.42506
2701.91877	0.42458
2699.99020	0.42429
2698.06164	0.42392
2696.13307	0.42335
2694.20451	0.42289
2692.27594	0.42267
2690.34738	0.42243
2688.41881	0.42193
2686.49025	0.42115
2684.56169	0.42017
2682.63312	0.41919
2680.70456	0.41815
2678.77599	0.41698
2676.84743	0.41581
2674.91886	0.41445
2672.99030	0.41276
2671.06173	0.41104
2669.13317	0.40942
2667.20461	0.40778
2665.27604	0.40618
2663.34748	0.40479
2661.41891	0.40349
2659.49035	0.40206
2657.56178	0.40059
2655.63322	0.39949
2653.70465	0.39886
2651.77609	0.39831
2649.84753	0.39752
2647.91896	0.39653
2645.99040	0.39561
2644.06183	0.39506
2642.13327	0.39475
2640.20470	0.39433
2638.27614	0.39373
2636.34757	0.39304
2634.41901	0.39223
2632.49045	0.39137
2630.56188	0.39048
2628.63332	0.38953
2626.70475	0.38848
2624.77619	0.38728
2622.84762	0.38600
2620.91906	0.38483
2618.99049	0.38369
2617.06193	0.38244
2615.13337	0.38114
2613.20480	0.37995
2611.27624	0.37909
2609.34767	0.37848
2607.41911	0.37790
2605.49054	0.37737
2603.56198	0.37692
2601.63342	0.37653
2599.70485	0.37615
2597.77629	0.37575
2595.84772	0.37550
2593.91916	0.37542
2591.99059	0.37534
2590.06203	0.37513
2588.13346	0.37479
2586.20490	0.37441
2584.27634	0.37398
2582.34777	0.37340
2580.41921	0.37263
2578.49064	0.37168
2576.56208	0.37069
2574.63351	0.36967
2572.70495	0.36843
2570.77638	0.36699
2568.84782	0.36557
2566.91926	0.36431
2564.99069	0.36315
2563.06213	0.36189
2561.13356	0.36055
2559.20500	0.35937
2557.27643	0.35847
2555.34787	0.35778
2553.41930	0.35713
2551.49074	0.35637
2549.56218	0.35552
2547.63361	0.35472
2545.70505	0.35395
2543.77648	0.35306
2541.84792	0.35212
2539.91935	0.35127
2537.99079	0.35061
2536.06222	0.35015
2534.13366	0.34970
2532.20510	0.34908
2530.27653	0.34823
2528.34797	0.34720
2526.41940	0.34615
2524.49084	0.34502
2522.56227	0.34371
2520.63371	0.34244
2518.70514	0.34147
2516.77658	0.34070
2514.84802	0.33990
2512.91945	0.33913
2510.99089	0.33847
2509.06232	0.33792
2507.13376	0.33751
2505.20519	0.33732
2503.27663	0.33744
2501.34806	0.33768
2499.41950	0.33778
2497.49094	0.33773
2495.56237	0.33761
2493.63381	0.33747
2491.70524	0.33744
2489.77668	0.33757
2487.84811	0.33760
2485.91955	0.33726
2483.99098	0.33663
2482.06242	0.33600
2480.13386	0.33540
2478.20529	0.33462
2476.27673	0.33371
2474.34816	0.33283
2472.41960	0.33201
2470.49103	0.33111
2468.56247	0.33008
2466.63391	0.32906
2464.70534	0.32816
2462.77678	0.32731
2460.84821	0.32644
2458.91965	0.32561
2456.99108	0.32490
2455.06252	0.32413
2453.13395	0.32322
2451.20539	0.32241
2449.27683	0.32176
2447.34826	0.32113
2445.41970	0.32048
2443.49113	0.31977
2441.56257	0.31895
2439.63400	0.31818
2437.70544	0.31751
2435.77687	0.31673
2433.84831	0.31591
2431.91975	0.31534
2429.99118	0.31491
2428.06262	0.31419
2426.13405	0.31307
2424.20549	0.31195
2422.27692	0.31118
2420.34836	0.31060
2418.41979	0.30988
2416.49123	0.30895
2414.56267	0.30792
2412.63410	0.30693
2410.70554	0.30609
2408.77697	0.30548
2406.84841	0.30507
2404.91984	0.30469
2402.99128	0.30433
2401.06271	0.30402
2399.13415	0.30376
2397.20559	0.30355
2395.27702	0.30348
2393.34846	0.30348
2391.41989	0.30344
2389.49133	0.30356
2387.56276	0.30399
2385.63420	0.30466
2383.70563	0.30590
2381.77707	0.30805
2379.84851	0.31082
2377.91994	0.31373
2375.99138	0.31686
2374.06281	0.32069
2372.13425	0.32534
2370.20568	0.33069
2368.27712	0.33682
2366.34855	0.34279
2364.41999	0.34639
2362.49143	0.34713
2360.56286	0.34692
2358.63430	0.34619
2356.70573	0.34321
2354.77717	0.33849
2352.84860	0.33306
2350.92004	0.32683
2348.99147	0.32175
2347.06291	0.32062
2345.13435	0.32474
2343.20578	0.33032
2341.27722	0.33257
2339.34865	0.33219
2337.42009	0.33089
2335.49152	0.32937
2333.56296	0.32801
2331.63440	0.32713
2329.70583	0.32630
2327.77727	0.32514
2325.84870	0.32367
2323.92014	0.32158
2321.99157	0.31856
2320.06301	0.31502
2318.13444	0.31150
2316.20588	0.30843
2314.27732	0.30625
2312.34875	0.30456
2310.42019	0.30268
2308.49162	0.30048
2306.56306	0.29799
2304.63449	0.29559
2302.70593	0.29381
2300.77736	0.29254
2298.84880	0.29139
2296.92024	0.29030
2294.99167	0.28921
2293.06311	0.28814
2291.13454	0.28733
2289.20598	0.28676
2287.27741	0.28621
2285.34885	0.28571
2283.42028	0.28546
2281.49172	0.28568
2279.56316	0.28634
2277.63459	0.28697
2275.70603	0.28733
2273.77746	0.28772
2271.84890	0.28807
2269.92033	0.28806
2267.99177	0.28779
2266.06320	0.28747
2264.13464	0.28714
2262.20608	0.28676
2260.27751	0.28630
2258.34895	0.28574
2256.42038	0.28511
2254.49182	0.28457
2252.56325	0.28419
2250.63469	0.28373
2248.70612	0.28309
2246.77756	0.28250
2244.84900	0.28201
2242.92043	0.28145
2240.99187	0.28089
2239.06330	0.28054
2237.13474	0.28041
2235.20617	0.28052
2233.27761	0.28075
2231.34904	0.28093
2229.42048	0.28101
2227.49192	0.28108
2225.56335	0.28131
2223.63479	0.28166
2221.70622	0.28188
2219.77766	0.28177
2217.84909	0.28146
2215.92053	0.28101
2213.99196	0.28037
2212.06340	0.27971
2210.13484	0.27924
2208.20627	0.27875
2206.27771	0.27809
2204.34914	0.27746
2202.42058	0.27695
2200.49201	0.27643
2198.56345	0.27596
2196.63488	0.27564
2194.70632	0.27539
2192.77776	0.27524
2190.84919	0.27532
2188.92063	0.27553
2186.99206	0.27562
2185.06350	0.27572
2183.13493	0.27631
2181.20637	0.27732
2179.27781	0.27825
2177.34924	0.27897
2175.42068	0.27960
2173.49211	0.28023
2171.56355	0.28087
2169.63498	0.28153
2167.70642	0.28223
2165.77785	0.28267
2163.84929	0.28262
2161.92073	0.28226
2159.99216	0.28182
2158.06360	0.28131
2156.13503	0.28074
2154.20647	0.28015
2152.27790	0.27954
2150.34934	0.27885
2148.42077	0.27805
2146.49221	0.27709
2144.56365	0.27608
2142.63508	0.27516
2140.70652	0.27430
2138.77795	0.27358
2136.84939	0.27306
2134.92082	0.27271
2132.99226	0.27240
2131.06369	0.27207
2129.13513	0.27187
2127.20657	0.27189
2125.27800	0.27195
2123.34944	0.27202
2121.42087	0.27217
2119.49231	0.27230
2117.56374	0.27231
2115.63518	0.27229
2113.70661	0.27219
2111.77805	0.27191
2109.84949	0.27149
2107.92092	0.27102
2105.99236	0.27053
2104.06379	0.27004
2102.13523	0.26951
2100.20666	0.26894
2098.27810	0.26825
2096.34953	0.26757
2094.42097	0.26705
2092.49241	0.26670
2090.56384	0.26651
2088.63528	0.26643
2086.70671	0.26645
2084.77815	0.26668
2082.84958	0.26709
2080.92102	0.26754
2078.99245	0.26805
2077.06389	0.26872
2075.13533	0.26958
2073.20676	0.27053
2071.27820	0.27144
2069.34963	0.27225
2067.42107	0.27300
2065.49250	0.27374
2063.56394	0.27432
2061.63537	0.27461
2059.70681	0.27459
2057.77825	0.27426
2055.84968	0.27376
2053.92112	0.27320
2051.99255	0.27246
2050.06399	0.27134
2048.13542	0.26980
2046.20686	0.26811
2044.27830	0.26668
2042.34973	0.26554
2040.42117	0.26430
2038.49260	0.26282
2036.56404	0.26137
2034.63547	0.26005
2032.70691	0.25888
2030.77834	0.25792
2028.84978	0.25708
2026.92122	0.25637
2024.99265	0.25585
2023.06409	0.25549
2021.13552	0.25524
2019.20696	0.25526
2017.27839	0.25546
2015.34983	0.25529
2013.42126	0.25493
2011.49270	0.25485
2009.56414	0.25480
2007.63557	0.25442
2005.70701	0.25386
2003.77844	0.25352
2001.84988	0.25352
1999.92131	0.25366
1997.99275	0.25365
1996.06418	0.25343
1994.13562	0.25355
1992.20706	0.25422
1990.27849	0.25464
1988.34993	0.25457
1986.42136	0.25455
1984.49280	0.25468
1982.56423	0.25489
1980.63567	0.25514
1978.70710	0.25549
1976.77854	0.25600
1974.84998	0.25665
1972.92141	0.25733
1970.99285	0.25779
1969.06428	0.25835
1967.13572	0.25924
1965.20715	0.25968
1963.27859	0.25947
1961.35002	0.25925
1959.42146	0.25911
1957.49290	0.25896
1955.56433	0.25875
1953.63577	0.25823
1951.70720	0.25738
1949.77864	0.25641
1947.85007	0.25539
1945.92151	0.25436
1943.99294	0.25352
1942.06438	0.25253
1940.13582	0.25044
1938.20725	0.24789
1936.27869	0.24585
1934.35012	0.24424
1932.42156	0.24275
1930.49299	0.24122
1928.56443	0.23969
1926.63586	0.23848
1924.70730	0.23819
1922.77874	0.23847
1920.85017	0.23805
1918.92161	0.23762
1916.99304	0.23780
1915.06448	0.23751
1913.13591	0.23716
1911.20735	0.23772
1909.27878	0.23883
1907.35022	0.23943
1905.42166	0.23949
1903.49309	0.23975
1901.56453	0.24032
1899.63596	0.24094
1897.70740	0.24166
1895.77883	0.24274
1893.85027	0.24366
1891.92171	0.24425
1889.99314	0.24537
1888.06458	0.24629
1886.13601	0.24620
1884.20745	0.24597
1882.27888	0.24584
1880.35032	0.24560
1878.42175	0.24534
1876.49319	0.24505
1874.56463	0.24465
1872.63606	0.24423
1870.70750	0.24473
1868.77893	0.24672
1866.85037	0.24732
1864.92180	0.24562
1862.99324	0.24414
1861.06467	0.24387
1859.13611	0.24416
1857.20755	0.24414
1855.27898	0.24362
1853.35042	0.24308
1851.42185	0.24281
1849.49329	0.24270
1847.56472	0.24255
1845.63616	0.24298
1843.70759	0.24364
1841.77903	0.24225
1839.85047	0.23991
1837.92190	0.23841
1835.99334	0.23732
1834.06477	0.23576
1832.13621	0.23490
1830.20764	0.23585
1828.27908	0.23627
1826.35051	0.23520
1824.42195	0.23445
1822.49339	0.23367
1820.56482	0.23264
1818.63626	0.23212
1816.70769	0.23197
1814.77913	0.23196
1812.85056	0.23258
1810.92200	0.23393
1808.99343	0.23487
1807.06487	0.23495
1805.13631	0.23503
1803.20774	0.23595
1801.27918	0.23803
1799.35061	0.23987
1797.42205	0.24050
1795.49348	0.24082
1793.56492	0.24233
1791.63635	0.24484
1789.70779	0.24488
1787.77923	0.24343
1785.85066	0.24304
1783.92210	0.24362
1781.99353	0.24433
1780.06497	0.24511
1778.13640	0.24530
1776.20784	0.24502
1774.27927	0.24599
1772.35071	0.24892
1770.42215	0.25023
1768.49358	0.24941
1766.56502	0.24850
1764.63645	0.24814
1762.70789	0.24959
1760.77932	0.25214
1758.85076	0.25361
1756.92220	0.25555
1754.99363	0.25777
1753.06507	0.26017
1751.13650	0.26606
1749.20794	0.27491
1747.27937	0.28097
1745.35081	0.28446
1743.42224	0.28761
1741.49368	0.29114
1739.56512	0.29471
1737.63655	0.29649
1735.70799	0.29818
1733.77942	0.30374
1731.85086	0.30706
1729.92229	0.30665
1727.99373	0.30674
1726.06516	0.30815
1724.13660	0.31145
1722.20804	0.31505
1720.27947	0.31857
1718.35091	0.32693
1716.42234	0.34147
1714.49378	0.35008
1712.56521	0.35481
1710.63665	0.36120
1708.70808	0.37060
1706.77952	0.38659
1704.85096	0.40801
1702.92239	0.42672
1700.99383	0.45541
1699.06526	0.50342
1697.13670	0.54790
1695.20813	0.58988
1693.27957	0.62051
1691.35100	0.64596
1689.42244	0.67939
1687.49388	0.71183
1685.56531	0.74693
1683.63675	0.80727
1681.70818	0.85353
1679.77962	0.87993
1677.85105	0.90576
1675.92249	0.93998
1673.99392	0.97950
1672.06536	1.01074
1670.13680	1.04748
1668.20823	1.09116
1666.27967	1.11801
1664.35110	1.14250
1662.42254	1.17854
1660.49397	1.21178
1658.56541	1.23301
1656.63684	1.24680
1654.70828	1.26080
1652.77972	1.28258
1650.85115	1.29058
1648.92259	1.29015
1646.99402	1.28922
1645.06546	1.28498
1643.13689	1.27898
1641.20833	1.27570
1639.27976	1.27473
1637.35120	1.27614
1635.42264	1.27587
1633.49407	1.26860
1631.56551	1.26055
1629.63694	1.25042
1627.70838	1.23694
1625.77981	1.22073
1623.85125	1.19700
1621.92269	1.16442
1619.99412	1.13343
1618.06556	1.09460
1616.13699	1.03593
1614.20843	0.98590
1612.27986	0.94666
1610.35130	0.90642
1608.42273	0.86625
1606.49417	0.83209
1604.56561	0.80528
1602.63704	0.78382
1600.70848	0.76726
1598.77991	0.75549
1596.85135	0.74756
1594.92278	0.74244
1592.99422	0.73964
1591.06565	0.73909
1589.13709	0.74106
1587.20853	0.74629
1585.27996	0.75482
1583.35140	0.76588
1581.42283	0.77800
1579.49427	0.79007
1577.56570	0.80678
1575.63714	0.83243
1573.70857	0.84998
1571.78001	0.86156
1569.85145	0.88121
1567.92288	0.90381
1565.99432	0.92136
1564.06575	0.93873
1562.13719	0.95242
1560.20862	0.96930
1558.28006	1.01172
1556.35149	1.03608
1554.42293	1.04552
1552.49437	1.05436
1550.56580	1.06213
1548.63724	1.06683
1546.70867	1.06815
1544.78011	1.06891
1542.85154	1.06927
1540.92298	1.06235
1538.99441	1.04648
1537.06585	1.03674
1535.13729	1.02896
1533.20872	1.01784
1531.28016	1.00562
1529.35159	0.99643
1527.42303	0.98850
1525.49446	0.98064
1523.56590	0.97563
1521.63733	0.97366
1519.70877	0.97145
1517.78021	0.96552
1515.85164	0.95351
1513.92308	0.93623
1511.99451	0.91616
1510.06595	0.89663
1508.13738	0.86933
1506.20882	0.81928
1504.28025	0.78751
1502.35169	0.76698
1500.42313	0.74557
1498.49456	0.72105
1496.56600	0.69347
1494.63743	0.67036
1492.70887	0.65422
1490.78030	0.63968
1488.85174	0.62327
1486.92317	0.60895
1484.99461	0.59898
1483.06605	0.59278
1481.13748	0.58958
1479.20892	0.58920
1477.28035	0.59267
1475.35179	0.60156
1473.42322	0.61854
1471.49466	0.63713
1469.56610	0.64641
1467.63753	0.65232
1465.70897	0.66132
1463.78040	0.67204
1461.85184	0.67864
1459.92327	0.68400
1457.99471	0.69690
1456.06614	0.71246
1454.13758	0.71554
1452.20902	0.71531
1450.28045	0.71582
1448.35189	0.71646
1446.42332	0.71528
1444.49476	0.71234
1442.56619	0.70867
1440.63763	0.70454
1438.70906	0.69985
1436.78050	0.69295
1434.85194	0.68341
1432.92337	0.67430
1430.99481	0.66548
1429.06624	0.65622
1427.13768	0.64835
1425.20911	0.64314
1423.28055	0.63997
1421.35198	0.63818
1419.42342	0.63867
1417.49486	0.63933
1415.56629	0.63730
1413.63773	0.63495
1411.70916	0.63360
1409.78060	0.63315
1407.85203	0.63390
1405.92347	0.63683
1403.99490	0.64103
1402.06634	0.64441
1400.13778	0.64827
1398.20921	0.65324
1396.28065	0.65776
1394.35208	0.66155
1392.42352	0.66421
1390.49495	0.66705
1388.56639	0.67344
1386.63782	0.68377
1384.70926	0.69297
1382.78070	0.69988
1380.85213	0.70505
1378.92357	0.70676
1376.99500	0.70374
1375.06644	0.69485
1373.13787	0.68075
1371.20931	0.66560
1369.28074	0.64934
1367.35218	0.63171
1365.42362	0.61577
1363.49505	0.60159
1361.56649	0.58862
1359.63792	0.57878
1357.70936	0.57241
1355.78079	0.56865
1353.85223	0.56686
1351.92366	0.56681
1349.99510	0.56839
1348.06654	0.57097
1346.13797	0.57402
1344.20941	0.57755
1342.28084	0.58185
1340.35228	0.58770
1338.42371	0.59380
1336.49515	0.59807
1334.56659	0.60195
1332.63802	0.60685
1330.70946	0.61220
1328.78089	0.61613
1326.85233	0.61726
1324.92376	0.61578
1322.99520	0.61307
1321.06663	0.61048
1319.13807	0.60824
1317.20951	0.60591
1315.28094	0.60348
1313.35238	0.60144
1311.42381	0.59964
1309.49525	0.59808
1307.56668	0.59738
1305.63812	0.59759
1303.70955	0.59845
1301.78099	0.60013
1299.85243	0.60233
1297.92386	0.60438
1295.99530	0.60646
1294.06673	0.60944
1292.13817	0.61377
1290.20960	0.61898
1288.28104	0.62423
1286.35247	0.62898
1284.42391	0.63276
1282.49535	0.63509
1280.56678	0.63584
1278.63822	0.63525
1276.70965	0.63391
1274.78109	0.63246
1272.85252	0.63105
1270.92396	0.62948
1268.99539	0.62775
1267.06683	0.62581
1265.13827	0.62345
1263.20970	0.62056
1261.28114	0.61700
1259.35257	0.61307
1257.42401	0.60981
1255.49544	0.60807
1253.56688	0.60814
1251.63831	0.60994
1249.70975	0.61338
1247.78119	0.61821
1245.85262	0.62431
1243.92406	0.63133
1241.99549	0.63839
1240.06693	0.64501
1238.13836	0.65120
1236.20980	0.65627
1234.28123	0.65922
1232.35267	0.65990
1230.42411	0.65847
1228.49554	0.65479
1226.56698	0.64882
1224.63841	0.64073
1222.70985	0.63073
1220.78128	0.61911
1218.85272	0.60652
1216.92415	0.59390
1214.99559	0.58242
1213.06703	0.57318
1211.13846	0.56644
1209.20990	0.56146
1207.28133	0.55686
1205.35277	0.55156
1203.42420	0.54548
1201.49564	0.53958
1199.56708	0.53483
1197.63851	0.53168
1195.70995	0.53038
1193.78138	0.53131
1191.85282	0.53457
1189.92425	0.53972
1187.99569	0.54626
1186.06712	0.55382
1184.13856	0.56198
1182.21000	0.57053
1180.28143	0.57947
1178.35287	0.58847
1176.42430	0.59678
1174.49574	0.60358
1172.56717	0.60844
1170.63861	0.61188
1168.71004	0.61531
1166.78148	0.61959
1164.85292	0.62471
1162.92435	0.63014
1160.99579	0.63433
1159.06722	0.63514
1157.13866	0.63116
1155.21009	0.62235
1153.28153	0.61005
1151.35296	0.59624
1149.42440	0.58263
1147.49584	0.57092
1145.56727	0.56288
1143.63871	0.56005
1141.71014	0.56297
1139.78158	0.57088
1137.85301	0.58268
1135.92445	0.59732
1133.99588	0.61398
1132.06732	0.63271
1130.13876	0.65350
1128.21019	0.67488
1126.28163	0.69467
1124.35306	0.71133
1122.42450	0.72386
1120.49593	0.73213
1118.56737	0.73645
1116.63880	0.73626
1114.71024	0.73103
1112.78168	0.72174
1110.85311	0.71004
1108.92455	0.69762
1106.99598	0.68583
1105.06742	0.67507
1103.13885	0.66623
1101.21029	0.66071
1099.28172	0.65903
1097.35316	0.66132
1095.42460	0.66817
1093.49603	0.68034
1091.56747	0.69834
1089.63890	0.72173
1087.71034	0.74948
1085.78177	0.78076
1083.85321	0.81327
1081.92464	0.84292
1079.99608	0.86666
1078.06752	0.88306
1076.13895	0.89148
1074.21039	0.89315
1072.28182	0.89038
1070.35326	0.88426
1068.42469	0.87435
1066.49613	0.86125
1064.56756	0.84727
1062.63900	0.83332
1060.71044	0.81800
1058.78187	0.80055
1056.85331	0.78179
1054.92474	0.76272
1052.99618	0.74378
1051.06761	0.72622
1049.13905	0.71217
1047.21049	0.70269
1045.28192	0.69799
1043.35336	0.69804
1041.42479	0.70200
1039.49623	0.70841
1037.56766	0.71636
1035.63910	0.72516
1033.71053	0.73387
1031.78197	0.74141
1029.85341	0.74712
1027.92484	0.75130
1025.99628	0.75444
1024.06771	0.75678
1022.13915	0.75908
1020.21058	0.76177
1018.28202	0.76420
1016.35345	0.76511
1014.42489	0.76303
1012.49633	0.75643
1010.56776	0.74462
1008.63920	0.72786
1006.71063	0.70651
1004.78207	0.68158
1002.85350	0.65507
1000.92494	0.62908
998.99637	0.60553
997.06781	0.58496
995.13925	0.56678
993.21068	0.55063
991.28212	0.53627
989.35355	0.52338
987.42499	0.51203
985.49642	0.50286
983.56786	0.49676
981.63929	0.49437
979.71073	0.49576
977.78217	0.50039
975.85360	0.50728
973.92504	0.51508
971.99647	0.52260
970.06791	0.52940
968.13934	0.53580
966.21078	0.54242
964.28221	0.54953
962.35365	0.55709
960.42509	0.56494
958.49652	0.57203
956.56796	0.57542
954.63939	0.57173
952.71083	0.55983
950.78226	0.54139
948.85370	0.51931
946.92513	0.49640
944.99657	0.47501
943.06801	0.45663
941.13944	0.44187
939.21088	0.43083
937.28231	0.42360
935.35375	0.42038
933.42518	0.42098
931.49662	0.42480
929.56805	0.43143
927.63949	0.44064
925.71093	0.45201
923.78236	0.46488
921.85380	0.47850
919.92523	0.49188
917.99667	0.50418
916.06810	0.51532
914.13954	0.52536
912.21098	0.53379
910.28241	0.53975
908.35385	0.54280
906.42528	0.54300
904.49672	0.54016
902.56815	0.53407
900.63959	0.52497
898.71102	0.51311
896.78246	0.49928
894.85390	0.48493
892.92533	0.47111
890.99677	0.45839
889.06820	0.44732
887.13964	0.43883
885.21107	0.43359
883.28251	0.43157
881.35394	0.43278
879.42538	0.43706
877.49682	0.44371
875.56825	0.45225
873.63969	0.46259
871.71112	0.47449
869.78256	0.48758
867.85399	0.50160
865.92543	0.51630
863.99686	0.53097
862.06830	0.54468
860.13974	0.55711
858.21117	0.56800
856.28261	0.57609
854.35404	0.57989
852.42548	0.57909
850.49691	0.57396
848.56835	0.56485
846.63978	0.55289
844.71122	0.53973
842.78266	0.52655
840.85409	0.51405
838.92553	0.50286
836.99696	0.49356
835.06840	0.48677
833.13983	0.48271
831.21127	0.48110
829.28270	0.48162
827.35414	0.48414
825.42558	0.48868
823.49701	0.49502
821.56845	0.50263
819.63988	0.51138
817.71132	0.52142
815.78275	0.53213
813.85419	0.54224
811.92562	0.55093
809.99706	0.55790
808.06850	0.56257
806.13993	0.56420
804.21137	0.56260
802.28280	0.55800
800.35424	0.55074
798.42567	0.54131
796.49711	0.53040
794.56854	0.51907
792.63998	0.50854
790.71142	0.49932
788.78285	0.49136
786.85429	0.48497
784.92572	0.48080
782.99716	0.47900
781.06859	0.47945
779.14003	0.48215
777.21147	0.48691
775.28290	0.49337
773.35434	0.50138
771.42577	0.51090
769.49721	0.52188
767.56864	0.53389
765.64008	0.54586
763.71151	0.55750
761.78295	0.56972
759.85439	0.58236
757.92582	0.59379
755.99726	0.60307
754.06869	0.61054
752.14013	0.61603
750.21156	0.61842
748.28300	0.61727
746.35443	0.61326
744.42587	0.60728
742.49731	0.59991
740.56874	0.59152
738.64018	0.58264
736.71161	0.57388
734.78305	0.56620
732.85448	0.56075
730.92592	0.55759
728.99735	0.55596
727.06879	0.55574
725.14023	0.55735
723.21166	0.56073
721.28310	0.56520
719.35453	0.56949
717.42597	0.57289
715.49740	0.57589
713.56884	0.57889
711.64027	0.58166
709.71171	0.58379
707.78315	0.58461
705.85458	0.58335
703.92602	0.58010
701.99745	0.57528
700.06889	0.56896
698.14032	0.56187
696.21176	0.55498
694.28319	0.54819
692.35463	0.54162
690.42607	0.53611
688.49750	0.53157
686.56894	0.52793
684.64037	0.52586
682.71181	0.52486
680.78324	0.52430
678.85468	0.52532
676.92611	0.52891
674.99755	0.53429
673.06899	0.54056
671.14042	0.54802
669.21186	0.55974
667.28329	0.57447
665.35473	0.58397
663.42616	0.59316
661.49760	0.60493
659.56903	0.61673
657.64047	0.62721
655.71191	0.63652
653.78334	0.64426
651.85478	0.65042
649.92621	0.65441
647.99765	0.65520
646.06908	0.65363
644.14052	0.65127
642.21195	0.64918
640.28339	0.64710
638.35483	0.64341
636.42626	0.63805
634.49770	0.63235
632.56913	0.62651
630.64057	0.62073
628.71200	0.61659
626.78344	0.61493
624.85488	0.61458
622.92631	0.61454
620.99775	0.61549
619.06918	0.61739
617.14062	0.61796
615.21205	0.61620
613.28349	0.61415
611.35492	0.61318
609.42636	0.61180
607.49780	0.60804
605.56923	0.60195
603.64067	0.59459
601.71210	0.58638
599.78354	0.57730
