3997.91406	0.97871
3995.98550	0.98031
3994.05693	0.98182
3992.12837	0.98292
3990.19980	0.98415
3988.27124	0.98336
3986.34268	0.97946
3984.41411	0.97648
3982.48555	0.97744
3980.55698	0.97969
3978.62842	0.98019
3976.69985	0.97963
3974.77129	0.97962
3972.84272	0.98000
3970.91416	0.98061
3968.98560	0.98168
3967.05703	0.98146
3965.12847	0.97994
3963.19990	0.97922
3961.27134	0.97791
3959.34277	0.97655
3957.41421	0.97778
3955.48564	0.97808
3953.55708	0.97608
3951.62852	0.97591
3949.69995	0.97835
3947.77139	0.97995
3945.84282	0.97903
3943.91426	0.97815
3941.98569	0.97815
3940.05713	0.97602
3938.12856	0.97143
3936.20000	0.96671
3934.27144	0.96422
3932.34287	0.96605
3930.41431	0.96940
3928.48574	0.96931
3926.55718	0.96793
3924.62861	0.96744
3922.70005	0.96623
3920.77148	0.96573
3918.84292	0.96849
3916.91436	0.97207
3914.98579	0.97181
3913.05723	0.96839
3911.12866	0.96481
3909.20010	0.96261
3907.27153	0.96232
3905.34297	0.96470
3903.41440	0.96905
3901.48584	0.97151
3899.55728	0.97014
3897.62871	0.96625
3895.70015	0.96349
3893.77158	0.96438
3891.84302	0.96661
3889.91445	0.96479
3887.98589	0.96182
3886.05733	0.96357
3884.12876	0.96824
3882.20020	0.97007
3880.27163	0.96894
3878.34307	0.96381
3876.41450	0.95843
3874.48594	0.95709
3872.55737	0.95982
3870.62881	0.96563
3868.70025	0.96863
3866.77168	0.96646
3864.84312	0.96378
3862.91455	0.95974
3860.98599	0.95510
3859.05742	0.95251
3857.12886	0.95157
3855.20029	0.95321
3853.27173	0.96005
3851.34317	0.96241
3849.41460	0.95954
3847.48604	0.95679
3845.55747	0.95567
3843.62891	0.95594
3841.70034	0.95682
3839.77178	0.95807
3837.84321	0.95738
3835.91465	0.95391
3833.98609	0.95222
3832.05752	0.95276
3830.12896	0.95113
3828.20039	0.94668
3826.27183	0.94359
3824.34326	0.94461
3822.41470	0.94988
3820.48613	0.95287
3818.55757	0.94712
3816.62901	0.94196
3814.70044	0.94090
3812.77188	0.93883
3810.84331	0.93496
3808.91475	0.93307
3806.98618	0.93617
3805.05762	0.93845
3803.12905	0.93869
3801.20049	0.94052
3799.27193	0.93839
3797.34336	0.93498
3795.41480	0.93442
3793.48623	0.93431
3791.55767	0.93436
3789.62910	0.93480
3787.70054	0.93526
3785.77197	0.93660
3783.84341	0.93738
3781.91485	0.93703
3779.98628	0.93889
3778.05772	0.94139
3776.12915	0.93917
3774.20059	0.93395
3772.27202	0.93087
3770.34346	0.93275
3768.41489	0.93566
3766.48633	0.93652
3764.55777	0.93644
3762.62920	0.93557
3760.70064	0.93576
3758.77207	0.93735
3756.84351	0.93712
3754.91494	0.93535
3752.98638	0.93512
3751.05781	0.94053
3749.12925	0.94433
3747.20069	0.94105
3745.27212	0.93566
3743.34356	0.93114
3741.41499	0.92920
3739.48643	0.93022
3737.55786	0.93447
3735.62930	0.93917
3733.70074	0.93817
3731.77217	0.93213
3729.84361	0.92607
3727.91504	0.92373
3725.98648	0.92525
3724.05791	0.92670
3722.12935	0.92682
3720.20078	0.92667
3718.27222	0.92528
3716.34366	0.92252
3714.41509	0.92090
3712.48653	0.92356
3710.55796	0.92649
3708.62940	0.92463
3706.70083	0.92207
3704.77227	0.91995
3702.84370	0.91964
3700.91514	0.92107
3698.98658	0.92141
3697.05801	0.92222
3695.12945	0.92298
3693.20088	0.92123
3691.27232	0.92121
3689.34375	0.92962
3687.41519	0.93505
3685.48662	0.93093
3683.55806	0.92459
3681.62950	0.92069
3679.70093	0.91935
3677.77237	0.92091
3675.84380	0.92877
3673.91524	0.93272
3671.98667	0.93144
3670.05811	0.93753
3668.12954	0.94518
3666.20098	0.94597
3664.27242	0.94520
3662.34385	0.94596
3660.41529	0.94822
3658.48672	0.95173
3656.55816	0.95743
3654.62959	0.96115
3652.70103	0.96166
3650.77246	0.96701
3648.84390	0.98026
3646.91534	0.98469
3644.98677	0.98425
3643.05821	0.98534
3641.12964	0.98707
3639.20108	0.98823
3637.27251	0.99015
3635.34395	0.99440
3633.41538	0.99922
3631.48682	1.00309
3629.55826	1.01187
3627.62969	1.02130
3625.70113	1.02071
3623.77256	1.01770
3621.84400	1.01774
3619.91543	1.02399
3617.98687	1.03154
3616.05830	1.03480
3614.12974	1.03960
3612.20118	1.04767
3610.27261	1.05511
3608.34405	1.05980
3606.41548	1.06049
3604.48692	1.06039
3602.55835	1.06302
3600.62979	1.06864
3598.70123	1.07570
3596.77266	1.08249
3594.84410	1.08806
3592.91553	1.09051
3590.98697	1.08900
3589.05840	1.08956
3587.12984	1.09901
3585.20127	1.10820
3583.27271	1.11137
3581.34415	1.11268
3579.41558	1.11537
3577.48702	1.12074
3575.55845	1.12734
3573.62989	1.13254
3571.70132	1.13548
3569.77276	1.13913
3567.84419	1.14922
3565.91563	1.16286
3563.98707	1.16991
3562.05850	1.17289
3560.12994	1.17483
3558.20137	1.17599
3556.27281	1.17720
3554.34424	1.18146
3552.41568	1.19084
3550.48711	1.20020
3548.55855	1.20549
3546.62999	1.21078
3544.70142	1.21900
3542.77286	1.22575
3540.84429	1.22929
3538.91573	1.23321
3536.98716	1.23971
3535.05860	1.24574
3533.13003	1.24916
3531.20147	1.25337
3529.27291	1.25964
3527.34434	1.26533
3525.41578	1.27044
3523.48721	1.27540
3521.55865	1.27992
3519.63008	1.28455
3517.70152	1.28869
3515.77295	1.29310
3513.84439	1.29890
3511.91583	1.30507
3509.98726	1.31218
3508.05870	1.32055
3506.13013	1.32920
3504.20157	1.33737
3502.27300	1.34329
3500.34444	1.34783
3498.41587	1.35332
3496.48731	1.36181
3494.55875	1.37211
3492.63018	1.37944
3490.70162	1.38517
3488.77305	1.39134
3486.84449	1.39433
3484.91592	1.39602
3482.98736	1.40286
3481.05879	1.41017
3479.13023	1.40930
3477.20167	1.40657
3475.27310	1.40760
3473.34454	1.40932
3471.41597	1.41184
3469.48741	1.41490
3467.55884	1.41724
3465.63028	1.42241
3463.70171	1.43181
3461.77315	1.44204
3459.84459	1.44737
3457.91602	1.44538
3455.98746	1.44206
3454.05889	1.44250
3452.13033	1.44751
3450.20176	1.45692
3448.27320	1.46583
3446.34464	1.46950
3444.41607	1.47211
3442.48751	1.47677
3440.55894	1.47947
3438.63038	1.47929
3436.70181	1.48010
3434.77325	1.48338
3432.84468	1.48603
3430.91612	1.48389
3428.98756	1.48109
3427.05899	1.48469
3425.13043	1.49195
3423.20186	1.49573
3421.27330	1.49331
3419.34473	1.48772
3417.41617	1.48456
3415.48760	1.48599
3413.55904	1.48928
3411.63048	1.49053
3409.70191	1.48862
3407.77335	1.48499
3405.84478	1.48153
3403.91622	1.48067
3401.98765	1.48263
3400.05909	1.48295
3398.13052	1.47987
3396.20196	1.47780
3394.27340	1.48049
3392.34483	1.48599
3390.41627	1.49045
3388.48770	1.49546
3386.55914	1.50185
3384.63057	1.50570
3382.70201	1.50540
3380.77344	1.50201
3378.84488	1.49885
3376.91632	1.50116
3374.98775	1.50649
3373.05919	1.50615
3371.13062	1.50086
3369.20206	1.49983
3367.27349	1.50738
3365.34493	1.51676
3363.41636	1.51876
3361.48780	1.51595
3359.55924	1.51339
3357.63067	1.51165
3355.70211	1.51423
3353.77354	1.52094
3351.84498	1.52569
3349.91641	1.52705
3347.98785	1.52670
3346.05928	1.52484
3344.13072	1.52662
3342.20216	1.53532
3340.27359	1.54238
3338.34503	1.54205
3336.41646	1.53853
3334.48790	1.53570
3332.55933	1.53611
3330.63077	1.53979
3328.70220	1.54111
3326.77364	1.53933
3324.84508	1.54200
3322.91651	1.54870
3320.98795	1.55423
3319.05938	1.55834
3317.13082	1.56013
3315.20225	1.56069
3313.27369	1.55989
3311.34513	1.55610
3309.41656	1.55564
3307.48800	1.56071
3305.55943	1.56426
3303.63087	1.56434
3301.70230	1.56500
3299.77374	1.56793
3297.84517	1.56989
3295.91661	1.56899
3293.98805	1.56590
3292.05948	1.56092
3290.13092	1.55872
3288.20235	1.56248
3286.27379	1.56887
3284.34522	1.57322
3282.41666	1.57242
3280.48809	1.56983
3278.55953	1.56839
3276.63097	1.56501
3274.70240	1.56107
3272.77384	1.55950
3270.84527	1.55823
3268.91671	1.55498
3266.98814	1.54988
3265.05958	1.54659
3263.13101	1.54710
3261.20245	1.54677
3259.27389	1.54331
3257.34532	1.53873
3255.41676	1.53186
3253.48819	1.52396
3251.55963	1.52108
3249.63106	1.52215
3247.70250	1.51936
3245.77393	1.51072
3243.84537	1.50034
3241.91681	1.49195
3239.98824	1.48729
3238.05968	1.48332
3236.13111	1.47592
3234.20255	1.46751
3232.27398	1.46457
3230.34542	1.46837
3228.41685	1.47139
3226.48829	1.46985
3224.55973	1.46741
3222.63116	1.46358
3220.70260	1.45918
3218.77403	1.45680
3216.84547	1.45218
3214.91690	1.44445
3212.98834	1.43861
3211.05977	1.43487
3209.13121	1.43120
3207.20265	1.42908
3205.27408	1.42920
3203.34552	1.42898
3201.41695	1.42690
3199.48839	1.42265
3197.55982	1.41695
3195.63126	1.41263
3193.70269	1.41070
3191.77413	1.41125
3189.84557	1.41108
3187.91700	1.40386
3185.98844	1.39361
3184.05987	1.39040
3182.13131	1.39453
3180.20274	1.39803
3178.27418	1.39563
3176.34562	1.38957
3174.41705	1.38329
3172.48849	1.37725
3170.55992	1.37104
3168.63136	1.36519
3166.70279	1.36170
3164.77423	1.36091
3162.84566	1.36007
3160.91710	1.35803
3158.98854	1.35534
3157.05997	1.35147
3155.13141	1.34739
3153.20284	1.34472
3151.27428	1.34162
3149.34571	1.33706
3147.41715	1.33373
3145.48858	1.33189
3143.56002	1.32854
3141.63146	1.32401
3139.70289	1.32025
3137.77433	1.31669
3135.84576	1.31490
3133.91720	1.31733
3131.98863	1.31968
3130.06007	1.31826
3128.13150	1.31684
3126.20294	1.31760
3124.27438	1.31891
3122.34581	1.31949
3120.41725	1.31976
3118.48868	1.31983
3116.56012	1.31779
3114.63155	1.31498
3112.70299	1.31482
3110.77442	1.31673
3108.84586	1.31846
3106.91730	1.31810
3104.98873	1.31524
3103.06017	1.31168
3101.13160	1.30786
3099.20304	1.30328
3097.27447	1.29934
3095.34591	1.29721
3093.41734	1.29701
3091.48878	1.29873
3089.56022	1.30059
3087.63165	1.30035
3085.70309	1.29836
3083.77452	1.29569
3081.84596	1.29231
3079.91739	1.28872
3077.98883	1.28543
3076.06026	1.28172
3074.13170	1.27809
3072.20314	1.27569
3070.27457	1.27428
3068.34601	1.27233
3066.41744	1.26901
3064.48888	1.26639
3062.56031	1.26542
3060.63175	1.26356
3058.70318	1.25961
3056.77462	1.25563
3054.84606	1.25255
3052.91749	1.24788
3050.98893	1.24137
3049.06036	1.23676
3047.13180	1.23503
3045.20323	1.23323
3043.27467	1.22962
3041.34610	1.22572
3039.41754	1.22361
3037.48898	1.22261
3035.56041	1.22096
3033.63185	1.21860
3031.70328	1.21600
3029.77472	1.21290
3027.84615	1.20884
3025.91759	1.20520
3023.98903	1.20249
3022.06046	1.19839
3020.13190	1.19346
3018.20333	1.19019
3016.27477	1.18700
3014.34620	1.18210
3012.41764	1.17814
3010.48907	1.17674
3008.56051	1.17602
3006.63195	1.17565
3004.70338	1.17589
3002.77482	1.17541
3000.84625	1.17372
2998.91769	1.17181
2996.98912	1.17097
2995.06056	1.17159
2993.13199	1.17342
2991.20343	1.17625
2989.27487	1.17950
2987.34630	1.18243
2985.41774	1.18563
2983.48917	1.19046
2981.56061	1.19618
2979.63204	1.20097
2977.70348	1.20529
2975.77491	1.21090
2973.84635	1.21757
2971.91779	1.22381
2969.98922	1.22929
2968.06066	1.23482
2966.13209	1.24086
2964.20353	1.24607
2962.27496	1.24936
2960.34640	1.25198
2958.41783	1.25384
2956.48927	1.25277
2954.56071	1.24891
2952.63214	1.24393
2950.70358	1.23832
2948.77501	1.23413
2946.84645	1.23461
2944.91788	1.23960
2942.98932	1.24690
2941.06075	1.25548
2939.13219	1.26484
2937.20363	1.27475
2935.27506	1.28557
2933.34650	1.29729
2931.41793	1.30845
2929.48937	1.31775
2927.56080	1.32646
2925.63224	1.33622
2923.70367	1.34673
2921.77511	1.35652
2919.84655	1.36119
2917.91798	1.35541
2915.98942	1.33800
2914.06085	1.31385
2912.13229	1.29097
2910.20372	1.27198
2908.27516	1.25499
2906.34659	1.24022
2904.41803	1.22877
2902.48947	1.22126
2900.56090	1.21667
2898.63234	1.21226
2896.70377	1.20695
2894.77521	1.20163
2892.84664	1.19672
2890.91808	1.19180
2888.98952	1.18654
2887.06095	1.18102
2885.13239	1.17577
2883.20382	1.17176
2881.27526	1.16982
2879.34669	1.16981
2877.41813	1.17045
2875.48956	1.16986
2873.56100	1.16697
2871.63244	1.16266
2869.70387	1.15791
2867.77531	1.15321
2865.84674	1.15030
2863.91818	1.14999
2861.98961	1.15201
2860.06105	1.15748
2858.13248	1.16694
2856.20392	1.17824
2854.27536	1.18932
2852.34679	1.19938
2850.41823	1.20448
2848.48966	1.19656
2846.56110	1.17330
2844.63253	1.14415
2842.70397	1.11895
2840.77540	1.10034
2838.84684	1.08784
2836.91828	1.07914
2834.98971	1.07087
2833.06115	1.06310
2831.13258	1.05782
2829.20402	1.05374
2827.27545	1.04894
2825.34689	1.04396
2823.41832	1.03978
2821.48976	1.03679
2819.56120	1.03412
2817.63263	1.03051
2815.70407	1.02690
2813.77550	1.02455
2811.84694	1.02297
2809.91837	1.02125
2807.98981	1.01929
2806.06124	1.01764
2804.13268	1.01616
2802.20412	1.01413
2800.27555	1.01166
2798.34699	1.00926
2796.41842	1.00747
2794.48986	1.00628
2792.56129	1.00447
2790.63273	1.00207
2788.70416	1.00003
2786.77560	0.99762
2784.84704	0.99456
2782.91847	0.99168
2780.98991	0.98885
2779.06134	0.98570
2777.13278	0.98262
2775.20421	0.98017
2773.27565	0.97834
2771.34708	0.97652
2769.41852	0.97460
2767.48996	0.97296
2765.56139	0.97168
2763.63283	0.97049
2761.70426	0.96866
2759.77570	0.96612
2757.84713	0.96418
2755.91857	0.96321
2753.99001	0.96217
2752.06144	0.96117
2750.13288	0.96045
2748.20431	0.95887
2746.27575	0.95629
2744.34718	0.95409
2742.41862	0.95299
2740.49005	0.95235
2738.56149	0.95167
2736.63293	0.95117
2734.70436	0.95049
2732.77580	0.94928
2730.84723	0.94820
2728.91867	0.94735
2726.99010	0.94627
2725.06154	0.94456
2723.13297	0.94228
2721.20441	0.94045
2719.27585	0.93971
2717.34728	0.93925
2715.41872	0.93814
2713.49015	0.93647
2711.56159	0.93474
2709.63302	0.93325
2707.70446	0.93180
2705.77589	0.92988
2703.84733	0.92754
2701.91877	0.92573
2699.99020	0.92487
2698.06164	0.92402
2696.13307	0.92282
2694.20451	0.92154
2692.27594	0.91990
2690.34738	0.91819
2688.41881	0.91712
2686.49025	0.91635
2684.56169	0.91516
2682.63312	0.91370
2680.70456	0.91225
2678.77599	0.91110
2676.84743	0.91042
2674.91886	0.90945
2672.99030	0.90801
2671.06173	0.90676
2669.13317	0.90544
2667.20461	0.90412
2665.27604	0.90363
2663.34748	0.90367
2661.41891	0.90320
2659.49035	0.90206
2657.56178	0.90099
2655.63322	0.90040
2653.70465	0.89959
2651.77609	0.89812
2649.84753	0.89669
2647.91896	0.89544
2645.99040	0.89371
2644.06183	0.89183
2642.13327	0.89066
2640.20470	0.88954
2638.27614	0.88776
2636.34757	0.88611
2634.41901	0.88492
2632.49045	0.88376
2630.56188	0.88263
2628.63332	0.88147
2626.70475	0.87991
2624.77619	0.87815
2622.84762	0.87690
2620.91906	0.87624
2618.99049	0.87549
2617.06193	0.87450
2615.13337	0.87338
2613.20480	0.87216
2611.27624	0.87102
2609.34767	0.87014
2607.41911	0.86957
2605.49054	0.86916
2603.56198	0.86887
2601.63342	0.86856
2599.70485	0.86776
2597.77629	0.86639
2595.84772	0.86503
2593.91916	0.86401
2591.99059	0.86314
2590.06203	0.86197
2588.13346	0.86056
2586.20490	0.85915
2584.27634	0.85760
2582.34777	0.85603
2580.41921	0.85457
2578.49064	0.85289
2576.56208	0.85092
2574.63351	0.84895
2572.70495	0.84709
2570.77638	0.84542
2568.84782	0.84433
2566.91926	0.84377
2564.99069	0.84314
2563.06213	0.84236
2561.13356	0.84148
2559.20500	0.84021
2557.27643	0.83853
2555.34787	0.83707
2553.41930	0.83624
2551.49074	0.83545
2549.56218	0.83437
2547.63361	0.83349
2545.70505	0.83252
2543.77648	0.83103
2541.84792	0.82971
2539.91935	0.82855
2537.99079	0.82711
2536.06222	0.82557
2534.13366	0.82382
2532.20510	0.82193
2530.27653	0.82030
2528.34797	0.81857
2526.41940	0.81642
2524.49084	0.81423
2522.56227	0.81243
2520.63371	0.81126
2518.70514	0.81031
2516.77658	0.80887
2514.84802	0.80743
2512.91945	0.80649
2510.99089	0.80580
2509.06232	0.80546
2507.13376	0.80559
2505.20519	0.80581
2503.27663	0.80581
2501.34806	0.80549
2499.41950	0.80530
2497.49094	0.80547
2495.56237	0.80541
2493.63381	0.80525
2491.70524	0.80575
2489.77668	0.80618
2487.84811	0.80556
2485.91955	0.80414
2483.99098	0.80254
2482.06242	0.80146
2480.13386	0.80069
2478.20529	0.79924
2476.27673	0.79696
2474.34816	0.79435
2472.41960	0.79168
2470.49103	0.78925
2468.56247	0.78745
2466.63391	0.78606
2464.70534	0.78436
2462.77678	0.78188
2460.84821	0.77906
2458.91965	0.77652
2456.99108	0.77418
2455.06252	0.77180
2453.13395	0.76967
2451.20539	0.76801
2449.27683	0.76639
2447.34826	0.76447
2445.41970	0.76277
2443.49113	0.76171
2441.56257	0.76076
2439.63400	0.75970
2437.70544	0.75905
2435.77687	0.75878
2433.84831	0.75822
2431.91975	0.75714
2429.99118	0.75613
2428.06262	0.75570
2426.13405	0.75542
2424.20549	0.75477
2422.27692	0.75385
2420.34836	0.75279
2418.41979	0.75177
2416.49123	0.75114
2414.56267	0.75083
2412.63410	0.75027
2410.70554	0.74932
2408.77697	0.74823
2406.84841	0.74730
2404.91984	0.74688
2402.99128	0.74646
2401.06271	0.74509
2399.13415	0.74327
2397.20559	0.74216
2395.27702	0.74154
2393.34846	0.74075
2391.41989	0.73989
2389.49133	0.73895
2387.56276	0.73811
2385.63420	0.73797
2383.70563	0.73876
2381.77707	0.74027
2379.84851	0.74236
2377.91994	0.74518
2375.99138	0.74894
2374.06281	0.75294
2372.13425	0.75587
2370.20568	0.75823
2368.27712	0.76181
2366.34855	0.76619
2364.41999	0.77003
2362.49143	0.77318
2360.56286	0.77320
2358.63430	0.76757
2356.70573	0.76096
2354.77717	0.75697
2352.84860	0.75227
2350.92004	0.74573
2348.99147	0.74050
2347.06291	0.73945
2345.13435	0.74358
2343.20578	0.74854
2341.27722	0.74920
2339.34865	0.74788
2337.42009	0.74733
2335.49152	0.74592
2333.56296	0.74343
2331.63440	0.74199
2329.70583	0.74029
2327.77727	0.73682
2325.84870	0.73418
2323.92014	0.73342
2321.99157	0.73160
2320.06301	0.72798
2318.13444	0.72483
2316.20588	0.72271
2314.27732	0.72102
2312.34875	0.71949
2310.42019	0.71779
2308.49162	0.71549
2306.56306	0.71300
2304.63449	0.71116
2302.70593	0.70991
2300.77736	0.70852
2298.84880	0.70694
2296.92024	0.70544
2294.99167	0.70385
2293.06311	0.70219
2291.13454	0.70053
2289.20598	0.69873
2287.27741	0.69695
2285.34885	0.69551
2283.42028	0.69426
2281.49172	0.69295
2279.56316	0.69182
2277.63459	0.69126
2275.70603	0.69083
2273.77746	0.69005
2271.84890	0.68911
2269.92033	0.68801
2267.99177	0.68641
2266.06320	0.68470
2264.13464	0.68344
2262.20608	0.68234
2260.27751	0.68100
2258.34895	0.67951
2256.42038	0.67809
2254.49182	0.67694
2252.56325	0.67609
2250.63469	0.67491
2248.70612	0.67324
2246.77756	0.67197
2244.84900	0.67114
2242.92043	0.66986
2240.99187	0.66829
2239.06330	0.66715
2237.13474	0.66644
2235.20617	0.66583
2233.27761	0.66517
2231.34904	0.66456
2229.42048	0.66395
2227.49192	0.66314
2225.56335	0.66244
2223.63479	0.66227
2221.70622	0.66231
2219.77766	0.66219
2217.84909	0.66182
2215.92053	0.66105
2213.99196	0.66013
2212.06340	0.65948
2210.13484	0.65909
2208.20627	0.65870
2206.27771	0.65811
2204.34914	0.65738
2202.42058	0.65657
2200.49201	0.65564
2198.56345	0.65472
2196.63488	0.65385
2194.70632	0.65306
2192.77776	0.65246
2190.84919	0.65201
2188.92063	0.65160
2186.99206	0.65112
2185.06350	0.65073
2183.13493	0.65067
2181.20637	0.65083
2179.27781	0.65103
2177.34924	0.65115
2175.42068	0.65112
2173.49211	0.65108
2171.56355	0.65115
2169.63498	0.65110
2167.70642	0.65083
2165.77785	0.65045
2163.84929	0.65004
2161.92073	0.64963
2159.99216	0.64897
2158.06360	0.64804
2156.13503	0.64713
2154.20647	0.64623
2152.27790	0.64525
2150.34934	0.64427
2148.42077	0.64334
2146.49221	0.64222
2144.56365	0.64086
2142.63508	0.63974
2140.70652	0.63894
2138.77795	0.63793
2136.84939	0.63663
2134.92082	0.63538
2132.99226	0.63424
2131.06369	0.63320
2129.13513	0.63230
2127.20657	0.63147
2125.27800	0.63043
2123.34944	0.62912
2121.42087	0.62794
2119.49231	0.62692
2117.56374	0.62582
2115.63518	0.62477
2113.70661	0.62392
2111.77805	0.62302
2109.84949	0.62182
2107.92092	0.62043
2105.99236	0.61922
2104.06379	0.61845
2102.13523	0.61789
2100.20666	0.61708
2098.27810	0.61595
2096.34953	0.61483
2094.42097	0.61391
2092.49241	0.61317
2090.56384	0.61242
2088.63528	0.61157
2086.70671	0.61068
2084.77815	0.60985
2082.84958	0.60937
2080.92102	0.60920
2078.99245	0.60895
2077.06389	0.60863
2075.13533	0.60847
2073.20676	0.60836
2071.27820	0.60812
2069.34963	0.60782
2067.42107	0.60754
2065.49250	0.60724
2063.56394	0.60691
2061.63537	0.60653
2059.70681	0.60577
2057.77825	0.60451
2055.84968	0.60329
2053.92112	0.60242
2051.99255	0.60137
2050.06399	0.59991
2048.13542	0.59842
2046.20686	0.59719
2044.27830	0.59610
2042.34973	0.59513
2040.42117	0.59419
2038.49260	0.59284
2036.56404	0.59120
2034.63547	0.58978
2032.70691	0.58861
2030.77834	0.58741
2028.84978	0.58615
2026.92122	0.58496
2024.99265	0.58385
2023.06409	0.58282
2021.13552	0.58207
2019.20696	0.58171
2017.27839	0.58139
2015.34983	0.58053
2013.42126	0.57935
2011.49270	0.57840
2009.56414	0.57753
2007.63557	0.57643
2005.70701	0.57534
2003.77844	0.57454
2001.84988	0.57389
1999.92131	0.57322
1997.99275	0.57233
1996.06418	0.57137
1994.13562	0.57098
1992.20706	0.57101
1990.27849	0.57037
1988.34993	0.56912
1986.42136	0.56788
1984.49280	0.56684
1982.56423	0.56607
1980.63567	0.56518
1978.70710	0.56392
1976.77854	0.56269
1974.84998	0.56172
1972.92141	0.56070
1970.99285	0.55952
1969.06428	0.55867
1967.13572	0.55821
1965.20715	0.55745
1963.27859	0.55649
1961.35002	0.55579
1959.42146	0.55517
1957.49290	0.55458
1955.56433	0.55423
1953.63577	0.55388
1951.70720	0.55338
1949.77864	0.55286
1947.85007	0.55238
1945.92151	0.55200
1943.99294	0.55172
1942.06438	0.55115
1940.13582	0.54986
1938.20725	0.54837
1936.27869	0.54729
1934.35012	0.54654
1932.42156	0.54572
1930.49299	0.54447
1928.56443	0.54293
1926.63586	0.54171
1924.70730	0.54148
1922.77874	0.54158
1920.85017	0.54060
1918.92161	0.53941
1916.99304	0.53881
1915.06448	0.53780
1913.13591	0.53654
1911.20735	0.53597
1909.27878	0.53593
1907.35022	0.53557
1905.42166	0.53482
1903.49309	0.53419
1901.56453	0.53377
1899.63596	0.53348
1897.70740	0.53347
1895.77883	0.53387
1893.85027	0.53408
1891.92171	0.53379
1889.99314	0.53355
1888.06458	0.53300
1886.13601	0.53191
1884.20745	0.53090
1882.27888	0.53007
1880.35032	0.52922
1878.42175	0.52839
1876.49319	0.52765
1874.56463	0.52694
1872.63606	0.52647
1870.70750	0.52706
1868.77893	0.52889
1866.85037	0.52928
1864.92180	0.52764
1862.99324	0.52628
1861.06467	0.52610
1859.13611	0.52645
1857.20755	0.52647
1855.27898	0.52593
1853.35042	0.52528
1851.42185	0.52499
1849.49329	0.52498
1847.56472	0.52501
1845.63616	0.52560
1843.70759	0.52634
1841.77903	0.52529
1839.85047	0.52352
1837.92190	0.52233
1835.99334	0.52119
1834.06477	0.51963
1832.13621	0.51864
1830.20764	0.51886
1828.27908	0.51867
1826.35051	0.51743
1824.42195	0.51612
1822.49339	0.51445
1820.56482	0.51267
1818.63626	0.51164
1816.70769	0.51136
1814.77913	0.51155
1812.85056	0.51236
1810.92200	0.51371
1808.99343	0.51500
1807.06487	0.51620
1805.13631	0.51778
1803.20774	0.52014
1801.27918	0.52364
1799.35061	0.52723
1797.42205	0.52978
1795.49348	0.53203
1793.56492	0.53587
1791.63635	0.54142
1789.70779	0.54436
1787.77923	0.54560
1785.85066	0.54816
1783.92210	0.55170
1781.99353	0.55490
1780.06497	0.55766
1778.13640	0.55931
1776.20784	0.56013
1774.27927	0.56197
1772.35071	0.56529
1770.42215	0.56662
1768.49358	0.56581
1766.56502	0.56498
1764.63645	0.56480
1762.70789	0.56644
1760.77932	0.56945
1758.85076	0.57211
1756.92220	0.57557
1754.99363	0.57917
1753.06507	0.58305
1751.13650	0.59102
1749.20794	0.60290
1747.27937	0.61243
1745.35081	0.61967
1743.42224	0.62693
1741.49368	0.63469
1739.56512	0.64242
1737.63655	0.64758
1735.70799	0.65215
1733.77942	0.66145
1731.85086	0.66880
1729.92229	0.67229
1727.99373	0.67656
1726.06516	0.68189
1724.13660	0.68883
1722.20804	0.69593
1720.27947	0.70264
1718.35091	0.71454
1716.42234	0.73347
1714.49378	0.74542
1712.56521	0.75279
1710.63665	0.76182
1708.70808	0.77386
1706.77952	0.79209
1704.85096	0.81503
1702.92239	0.83458
1700.99383	0.86216
1699.06526	0.90573
1697.13670	0.94386
1695.20813	0.97832
1693.27957	1.00342
1691.35100	1.02432
1689.42244	1.05038
1687.49388	1.07362
1685.56531	1.09673
1683.63675	1.13308
1681.70818	1.15776
1679.77962	1.17025
1677.85105	1.18209
1675.92249	1.19685
1673.99392	1.21168
1672.06536	1.22334
1670.13680	1.23845
1668.20823	1.25367
1666.27967	1.26021
1664.35110	1.26587
1662.42254	1.27529
1660.49397	1.28335
1658.56541	1.28747
1656.63684	1.28744
1654.70828	1.28361
1652.77972	1.28229
1650.85115	1.28458
1648.92259	1.28488
1646.99402	1.28224
1645.06546	1.27631
1643.13689	1.27124
1641.20833	1.26797
1639.27976	1.26553
1637.35120	1.26442
1635.42264	1.26258
1633.49407	1.25628
1631.56551	1.24992
1629.63694	1.24424
1627.70838	1.23807
1625.77981	1.22981
1623.85125	1.21755
1621.92269	1.20206
1619.99412	1.18797
1618.06556	1.17249
1616.13699	1.15131
1614.20843	1.13293
1612.27986	1.11880
1610.35130	1.10580
1608.42273	1.09403
1606.49417	1.08436
1604.56561	1.07745
1602.63704	1.07354
1600.70848	1.07190
1598.77991	1.07179
1596.85135	1.07350
1594.92278	1.07611
1592.99422	1.07829
1591.06565	1.08087
1589.13709	1.08511
1587.20853	1.09100
1585.27996	1.09801
1583.35140	1.10620
1581.42283	1.11541
1579.49427	1.12497
1577.56570	1.13698
1575.63714	1.15041
1573.70857	1.15651
1571.78001	1.16116
1569.85145	1.17247
1567.92288	1.18508
1565.99432	1.19193
1564.06575	1.19661
1562.13719	1.19997
1560.20862	1.20698
1558.28006	1.22551
1556.35149	1.23155
1554.42293	1.23043
1552.49437	1.22943
1550.56580	1.22835
1548.63724	1.22600
1546.70867	1.22275
1544.78011	1.22081
1542.85154	1.22177
1540.92298	1.21927
1538.99441	1.20665
1537.06585	1.19883
1535.13729	1.19440
1533.20872	1.18837
1531.28016	1.18117
1529.35159	1.17595
1527.42303	1.17138
1525.49446	1.16630
1523.56590	1.16338
1521.63733	1.16342
1519.70877	1.16217
1517.78021	1.15546
1515.85164	1.14287
1513.92308	1.12920
1511.99451	1.11688
1510.06595	1.10598
1508.13738	1.09235
1506.20882	1.06682
1504.28025	1.04790
1502.35169	1.03506
1500.42313	1.02265
1498.49456	1.00901
1496.56600	0.99264
1494.63743	0.97821
1492.70887	0.96865
1490.78030	0.96082
1488.85174	0.95159
1486.92317	0.94274
1484.99461	0.93675
1483.06605	0.93434
1481.13748	0.93535
1479.20892	0.93866
1477.28035	0.94456
1475.35179	0.95487
1473.42322	0.97182
1471.49466	0.98906
1469.56610	0.99775
1467.63753	1.00384
1465.70897	1.01225
1463.78040	1.01966
1461.85184	1.02164
1459.92327	1.02185
1457.99471	1.02500
1456.06614	1.02827
1454.13758	1.02601
1452.20902	1.02224
1450.28045	1.01870
1448.35189	1.01496
1446.42332	1.01020
1444.49476	1.00519
1442.56619	1.00030
1440.63763	0.99547
1438.70906	0.99038
1436.78050	0.98359
1434.85194	0.97588
1432.92337	0.96986
1430.99481	0.96539
1429.06624	0.96196
1427.13768	0.96005
1425.20911	0.96085
1423.28055	0.96354
1421.35198	0.96634
1419.42342	0.97210
1417.49486	0.97976
1415.56629	0.98251
1413.63773	0.98274
1411.70916	0.98349
1409.78060	0.98506
1407.85203	0.98686
1405.92347	0.98851
1403.99490	0.98894
1402.06634	0.98885
1400.13778	0.99057
1398.20921	0.99327
1396.28065	0.99448
1394.35208	0.99464
1392.42352	0.99499
1390.49495	0.99697
1388.56639	1.00282
1386.63782	1.01196
1384.70926	1.01938
1382.78070	1.02446
1380.85213	1.02778
1378.92357	1.02795
1376.99500	1.02512
1375.06644	1.01947
1373.13787	1.01050
1371.20931	1.00062
1369.28074	0.99093
1367.35218	0.98151
1365.42362	0.97371
1363.49505	0.96775
1361.56649	0.96354
1359.63792	0.96137
1357.70936	0.96111
1355.78079	0.96211
1353.85223	0.96342
1351.92366	0.96460
1349.99510	0.96562
1348.06654	0.96638
1346.13797	0.96687
1344.20941	0.96752
1342.28084	0.96910
1340.35228	0.97217
1338.42371	0.97570
1336.49515	0.97828
1334.56659	0.98088
1332.63802	0.98471
1330.70946	0.98943
1328.78089	0.99354
1326.85233	0.99590
1324.92376	0.99700
1322.99520	0.99821
1321.06663	1.00033
1319.13807	1.00303
1317.20951	1.00550
1315.28094	1.00740
1313.35238	1.00888
1311.42381	1.00979
1309.49525	1.01029
1307.56668	1.01059
1305.63812	1.01043
1303.70955	1.01027
1301.78099	1.01070
1299.85243	1.01084
1297.92386	1.01000
1295.99530	1.00903
1294.06673	1.00892
1292.13817	1.01008
1290.20960	1.01278
1288.28104	1.01641
1286.35247	1.01955
1284.42391	1.02166
1282.49535	1.02337
1280.56678	1.02522
1278.63822	1.02748
1276.70965	1.03041
1274.78109	1.03420
1272.85252	1.03888
1270.92396	1.04417
1268.99539	1.04969
1267.06683	1.05478
1265.13827	1.05835
1263.20970	1.05989
1261.28114	1.06013
1259.35257	1.06018
1257.42401	1.06076
1255.49544	1.06175
1253.56688	1.06251
1251.63831	1.06268
1249.70975	1.06264
1247.78119	1.06294
1245.85262	1.06356
1243.92406	1.06403
1241.99549	1.06399
1240.06693	1.06347
1238.13836	1.06261
1236.20980	1.06115
1234.28123	1.05870
1232.35267	1.05538
1230.42411	1.05217
1228.49554	1.04959
1226.56698	1.04671
1224.63841	1.04293
1222.70985	1.03883
1220.78128	1.03499
1218.85272	1.03200
1216.92415	1.03023
1214.99559	1.02980
1213.06703	1.03071
1211.13846	1.03246
1209.20990	1.03452
1207.28133	1.03600
1205.35277	1.03515
1203.42420	1.03149
1201.49564	1.02653
1199.56708	1.02131
1197.63851	1.01554
1195.70995	1.00938
1193.78138	1.00417
1191.85282	1.00024
1189.92425	0.99659
1187.99569	0.99381
1186.06712	0.99343
1184.13856	0.99524
1182.21000	0.99819
1180.28143	1.00223
1178.35287	1.00779
1176.42430	1.01438
1174.49574	1.02106
1172.56717	1.02829
1170.63861	1.03730
1168.71004	1.04822
1166.78148	1.06030
1164.85292	1.07245
1162.92435	1.08374
1160.99579	1.09355
1159.06722	1.10000
1157.13866	1.10097
1155.21009	1.09711
1153.28153	1.09083
1151.35296	1.08327
1149.42440	1.07370
1147.49584	1.06198
1145.56727	1.05084
1143.63871	1.04293
1141.71014	1.03719
1139.78158	1.03193
1137.85301	1.02808
1135.92445	1.02672
1133.99588	1.02710
1132.06732	1.02839
1130.13876	1.03173
1128.21019	1.03859
1126.28163	1.04770
1124.35306	1.05651
1122.42450	1.06416
1120.49593	1.07079
1118.56737	1.07619
1116.63880	1.07970
1114.71024	1.08042
1112.78168	1.07935
1110.85311	1.07911
1108.92455	1.07924
1106.99598	1.07785
1105.06742	1.07670
1103.13885	1.07687
1101.21029	1.07648
1099.28172	1.07642
1097.35316	1.07897
1095.42460	1.08338
1093.49603	1.08855
1091.56747	1.09434
1089.63890	1.09965
1087.71034	1.10442
1085.78177	1.10945
1083.85321	1.11365
1081.92464	1.11583
1079.99608	1.11695
1078.06752	1.11849
1076.13895	1.12013
1074.21039	1.11927
1072.28182	1.11412
1070.35326	1.10647
1068.42469	1.09868
1066.49613	1.09124
1064.56756	1.08423
1062.63900	1.07784
1060.71044	1.07238
1058.78187	1.06687
1056.85331	1.06050
1054.92474	1.05479
1052.99618	1.05040
1051.06761	1.04723
1049.13905	1.04657
1047.21049	1.04896
1045.28192	1.05378
1043.35336	1.05984
1041.42479	1.06609
1039.49623	1.07203
1037.56766	1.07702
1035.63910	1.08045
1033.71053	1.08244
1031.78197	1.08388
1029.85341	1.08515
1027.92484	1.08568
1025.99628	1.08563
1024.06771	1.08498
1022.13915	1.08261
1020.21058	1.07866
1018.28202	1.07439
1016.35345	1.07038
1014.42489	1.06564
1012.49633	1.05754
1010.56776	1.04546
1008.63920	1.03195
1006.71063	1.01893
1004.78207	1.00666
1002.85350	0.99536
1000.92494	0.98525
998.99637	0.97654
997.06781	0.96952
995.13925	0.96305
993.21068	0.95530
991.28212	0.94616
989.35355	0.93639
987.42499	0.92620
985.49642	0.91617
983.56786	0.90754
981.63929	0.90144
979.71073	0.89801
977.78217	0.89657
975.85360	0.89652
973.92504	0.89742
971.99647	0.89841
970.06791	0.89852
968.13934	0.89778
966.21078	0.89751
964.28221	0.89905
962.35365	0.90274
960.42509	0.90861
958.49652	0.91640
956.56796	0.92381
954.63939	0.92680
952.71083	0.92343
950.78226	0.91506
948.85370	0.90362
946.92513	0.89034
944.99657	0.87668
943.06801	0.86391
941.13944	0.85206
939.21088	0.84068
937.28231	0.82987
935.35375	0.82029
933.42518	0.81246
931.49662	0.80633
929.56805	0.80186
927.63949	0.79905
925.71093	0.79787
923.78236	0.79855
921.85380	0.80094
919.92523	0.80393
917.99667	0.80668
916.06810	0.80956
914.13954	0.81326
912.21098	0.81757
910.28241	0.82192
908.35385	0.82656
906.42528	0.83176
904.49672	0.83722
902.56815	0.84248
900.63959	0.84645
898.71102	0.84772
896.78246	0.84588
894.85390	0.84136
892.92533	0.83494
890.99677	0.82712
889.06820	0.81787
887.13964	0.80752
885.21107	0.79644
883.28251	0.78483
881.35394	0.77363
879.42538	0.76349
877.49682	0.75423
875.56825	0.74601
873.63969	0.73880
871.71112	0.73208
869.78256	0.72616
867.85399	0.72156
865.92543	0.71839
863.99686	0.71715
862.06830	0.71815
860.13974	0.72091
858.21117	0.72503
856.28261	0.73076
854.35404	0.73841
852.42548	0.74754
850.49691	0.75699
848.56835	0.76607
846.63978	0.77511
844.71122	0.78409
842.78266	0.79237
840.85409	0.79964
838.92553	0.80575
836.99696	0.81055
835.06840	0.81413
833.13983	0.81613
831.21127	0.81642
829.28270	0.81589
827.35414	0.81460
825.42558	0.81182
823.49701	0.80760
821.56845	0.80250
819.63988	0.79709
817.71132	0.79169
815.78275	0.78606
813.85419	0.78024
811.92562	0.77487
809.99706	0.77080
808.06850	0.76785
806.13993	0.76494
804.21137	0.76169
802.28280	0.75821
800.35424	0.75428
798.42567	0.75024
796.49711	0.74711
794.56854	0.74540
792.63998	0.74451
790.71142	0.74390
788.78285	0.74358
786.85429	0.74319
784.92572	0.74258
782.99716	0.74236
781.06859	0.74267
779.14003	0.74313
777.21147	0.74333
775.28290	0.74285
773.35434	0.74161
771.42577	0.74020
769.49721	0.73885
767.56864	0.73705
765.64008	0.73468
763.71151	0.73225
761.78295	0.73038
759.85439	0.72928
757.92582	0.72873
755.99726	0.72902
754.06869	0.73022
752.14013	0.73121
750.21156	0.73137
748.28300	0.73167
746.35443	0.73305
744.42587	0.73479
742.49731	0.73581
740.56874	0.73626
738.64018	0.73684
736.71161	0.73822
734.78305	0.74070
732.85448	0.74350
730.92592	0.74571
728.99735	0.74752
727.06879	0.74948
725.14023	0.75186
723.21166	0.75545
721.28310	0.76010
719.35453	0.76330
717.42597	0.76412
715.49740	0.76462
713.56884	0.76553
711.64027	0.76622
709.71171	0.76700
707.78315	0.76814
705.85458	0.76894
703.92602	0.76877
701.99745	0.76785
700.06889	0.76644
698.14032	0.76400
696.21176	0.76014
694.28319	0.75567
692.35463	0.75140
690.42607	0.74762
688.49750	0.74454
686.56894	0.74167
684.64037	0.73799
682.71181	0.73331
680.78324	0.72900
678.85468	0.72581
676.92611	0.72263
674.99755	0.71895
673.06899	0.71629
671.14042	0.71704
669.21186	0.72059
667.28329	0.71932
665.35473	0.71508
663.42616	0.71402
661.49760	0.71484
659.56903	0.71500
657.64047	0.71425
655.71191	0.71395
653.78334	0.71487
651.85478	0.71733
649.92621	0.72043
647.99765	0.72246
646.06908	0.72380
644.14052	0.72584
642.21195	0.72908
640.28339	0.73335
638.35483	0.73753
636.42626	0.74028
634.49770	0.74128
632.56913	0.74102
630.64057	0.73993
628.71200	0.73833
626.78344	0.73594
624.85488	0.73274
622.92631	0.73093
620.99775	0.73134
619.06918	0.73157
617.14062	0.73011
615.21205	0.72813
613.28349	0.72719
611.35492	0.72711
609.42636	0.72693
607.49780	0.72663
605.56923	0.72607
603.64067	0.72542
601.71210	0.72574
599.78354	0.72706
