3997.91406	0.75744
3995.98550	0.75781
3994.05693	0.75683
3992.12837	0.75637
3990.19980	0.75752
3988.27124	0.75780
3986.34268	0.75682
3984.41411	0.75698
3982.48555	0.75758
3980.55698	0.75757
3978.62842	0.75774
3976.69985	0.75795
3974.77129	0.75827
3972.84272	0.75862
3970.91416	0.75756
3968.98560	0.75546
3967.05703	0.75441
3965.12847	0.75454
3963.19990	0.75495
3961.27134	0.75561
3959.34277	0.75599
3957.41421	0.75573
3955.48564	0.75559
3953.55708	0.75570
3951.62852	0.75529
3949.69995	0.75484
3947.77139	0.75435
3945.84282	0.75252
3943.91426	0.75099
3941.98569	0.75134
3940.05713	0.75221
3938.12856	0.75209
3936.20000	0.75022
3934.27144	0.74867
3932.34287	0.75016
3930.41431	0.75175
3928.48574	0.74999
3926.55718	0.74826
3924.62861	0.74952
3922.70005	0.75047
3920.77148	0.74989
3918.84292	0.75133
3916.91436	0.75428
3914.98579	0.75443
3913.05723	0.75187
3911.12866	0.74898
3909.20010	0.74670
3907.27153	0.74591
3905.34297	0.74798
3903.41440	0.75136
3901.48584	0.75356
3899.55728	0.75508
3897.62871	0.75367
3895.70015	0.74963
3893.77158	0.74758
3891.84302	0.74929
3889.91445	0.74767
3887.98589	0.74260
3886.05733	0.74177
3884.12876	0.74385
3882.20020	0.74424
3880.27163	0.74552
3878.34307	0.74344
3876.41450	0.73958
3874.48594	0.73953
3872.55737	0.74082
3870.62881	0.74173
3868.70025	0.74218
3866.77168	0.74076
3864.84312	0.74143
3862.91455	0.74307
3860.98599	0.74098
3859.05742	0.73735
3857.12886	0.73518
3855.20029	0.73900
3853.27173	0.75138
3851.34317	0.75199
3849.41460	0.74421
3847.48604	0.73871
3845.55747	0.73762
3843.62891	0.73936
3841.70034	0.74101
3839.77178	0.74344
3837.84321	0.74629
3835.91465	0.74530
3833.98609	0.74350
3832.05752	0.74314
3830.12896	0.74143
3828.20039	0.73882
3826.27183	0.73750
3824.34326	0.73608
3822.41470	0.73815
3820.48613	0.74526
3818.55757	0.74554
3816.62901	0.74285
3814.70044	0.74052
3812.77188	0.73642
3810.84331	0.73273
3808.91475	0.73237
3806.98618	0.73568
3805.05762	0.73542
3803.12905	0.73339
3801.20049	0.73617
3799.27193	0.73644
3797.34336	0.73490
3795.41480	0.73551
3793.48623	0.73469
3791.55767	0.73273
3789.62910	0.73184
3787.70054	0.73228
3785.77197	0.73467
3783.84341	0.73670
3781.91485	0.73644
3779.98628	0.73784
3778.05772	0.74014
3776.12915	0.73890
3774.20059	0.73623
3772.27202	0.73516
3770.34346	0.73641
3768.41489	0.73701
3766.48633	0.73621
3764.55777	0.73564
3762.62920	0.73480
3760.70064	0.73560
3758.77207	0.73752
3756.84351	0.73477
3754.91494	0.72964
3752.98638	0.72929
3751.05781	0.73823
3749.12925	0.74244
3747.20069	0.73838
3745.27212	0.73876
3743.34356	0.74295
3741.41499	0.74157
3739.48643	0.73805
3737.55786	0.73692
3735.62930	0.74057
3733.70074	0.74581
3731.77217	0.74459
3729.84361	0.73916
3727.91504	0.73644
3725.98648	0.73880
3724.05791	0.74152
3722.12935	0.74202
3720.20078	0.74074
3718.27222	0.73712
3716.34366	0.73267
3714.41509	0.73049
3712.48653	0.73535
3710.55796	0.74393
3708.62940	0.74400
3706.70083	0.74023
3704.77227	0.73775
3702.84370	0.73764
3700.91514	0.73782
3698.98658	0.73640
3697.05801	0.73545
3695.12945	0.73570
3693.20088	0.73630
3691.27232	0.73897
3689.34375	0.74648
3687.41519	0.75018
3685.48662	0.74666
3683.55806	0.74203
3681.62950	0.74033
3679.70093	0.74182
3677.77237	0.74656
3675.84380	0.75843
3673.91524	0.76505
3671.98667	0.76321
3670.05811	0.76540
3668.12954	0.76754
3666.20098	0.76574
3664.27242	0.76502
3662.34385	0.76645
3660.41529	0.76867
3658.48672	0.77206
3656.55816	0.77787
3654.62959	0.78067
3652.70103	0.78017
3650.77246	0.78805
3648.84390	0.81045
3646.91534	0.81885
3644.98677	0.81456
3643.05821	0.81081
3641.12964	0.81148
3639.20108	0.81599
3637.27251	0.82125
3635.34395	0.82566
3633.41538	0.82886
3631.48682	0.83202
3629.55826	0.84269
3627.62969	0.85579
3625.70113	0.85868
3623.77256	0.86012
3621.84400	0.86407
3619.91543	0.87191
3617.98687	0.88066
3616.05830	0.88508
3614.12974	0.88875
3612.20118	0.89301
3610.27261	0.89706
3608.34405	0.90330
3606.41548	0.91049
3604.48692	0.91575
3602.55835	0.92181
3600.62979	0.92940
3598.70123	0.93442
3596.77266	0.93850
3594.84410	0.94578
3592.91553	0.95180
3590.98697	0.95416
3589.05840	0.96042
3587.12984	0.97385
3585.20127	0.98145
3583.27271	0.98240
3581.34415	0.98463
3579.41558	0.99066
3577.48702	0.99873
3575.55845	1.00671
3573.62989	1.01370
3571.70132	1.01874
3569.77276	1.02242
3567.84419	1.03025
3565.91563	1.04198
3563.98707	1.04787
3562.05850	1.05185
3560.12994	1.05868
3558.20137	1.06679
3556.27281	1.07346
3554.34424	1.07853
3552.41568	1.08375
3550.48711	1.08958
3548.55855	1.09610
3546.62999	1.10351
3544.70142	1.10989
3542.77286	1.11414
3540.84429	1.11790
3538.91573	1.12404
3536.98716	1.13449
3535.05860	1.14527
3533.13003	1.15123
3531.20147	1.15416
3529.27291	1.15855
3527.34434	1.16670
3525.41578	1.17727
3523.48721	1.18764
3521.55865	1.19547
3519.63008	1.20131
3517.70152	1.20700
3515.77295	1.21148
3513.84439	1.21650
3511.91583	1.22578
3509.98726	1.23804
3508.05870	1.24846
3506.13013	1.25551
3504.20157	1.26315
3502.27300	1.27213
3500.34444	1.28171
3498.41587	1.29424
3496.48731	1.30596
3494.55875	1.31153
3492.63018	1.31340
3490.70162	1.31727
3488.77305	1.32695
3486.84449	1.34082
3484.91592	1.35215
3482.98736	1.35734
3481.05879	1.35895
3479.13023	1.36012
3477.20167	1.36126
3475.27310	1.36328
3473.34454	1.36889
3471.41597	1.37680
3469.48741	1.38298
3467.55884	1.38735
3465.63028	1.39195
3463.70171	1.39735
3461.77315	1.40046
3459.84459	1.40071
3457.91602	1.40266
3455.98746	1.40710
3454.05889	1.41209
3452.13033	1.41647
3450.20176	1.42013
3448.27320	1.42347
3446.34464	1.42714
3444.41607	1.43390
3442.48751	1.44147
3440.55894	1.44554
3438.63038	1.44877
3436.70181	1.44959
3434.77325	1.44590
3432.84468	1.44603
3430.91612	1.45272
3428.98756	1.45861
3427.05899	1.45780
3425.13043	1.45109
3423.20186	1.44496
3421.27330	1.44452
3419.34473	1.44868
3417.41617	1.45170
3415.48760	1.45107
3413.55904	1.45031
3411.63048	1.45178
3409.70191	1.45469
3407.77335	1.45748
3405.84478	1.45926
3403.91622	1.46289
3401.98765	1.46988
3400.05909	1.47465
3398.13052	1.47241
3396.20196	1.46684
3394.27340	1.46484
3392.34483	1.46955
3390.41627	1.47889
3388.48770	1.48643
3386.55914	1.48945
3384.63057	1.49226
3382.70201	1.49542
3380.77344	1.49578
3378.84488	1.49438
3376.91632	1.49316
3374.98775	1.49311
3373.05919	1.49647
3371.13062	1.50360
3369.20206	1.51092
3367.27349	1.51675
3365.34493	1.52248
3363.41636	1.52686
3361.48780	1.52813
3359.55924	1.52946
3357.63067	1.53451
3355.70211	1.54029
3353.77354	1.54455
3351.84498	1.55080
3349.91641	1.55662
3347.98785	1.55628
3346.05928	1.55407
3344.13072	1.55665
3342.20216	1.56198
3340.27359	1.56456
3338.34503	1.56338
3336.41646	1.56367
3334.48790	1.56913
3332.55933	1.57557
3330.63077	1.57878
3328.70220	1.58171
3326.77364	1.59170
3324.84508	1.60696
3322.91651	1.61407
3320.98795	1.61246
3319.05938	1.61496
3317.13082	1.62169
3315.20225	1.62202
3313.27369	1.61615
3311.34513	1.61604
3309.41656	1.62802
3307.48800	1.64251
3305.55943	1.64791
3303.63087	1.64822
3301.70230	1.64702
3299.77374	1.64393
3297.84517	1.64724
3295.91661	1.65632
3293.98805	1.66048
3292.05948	1.66037
3290.13092	1.65947
3288.20235	1.65547
3286.27379	1.65056
3284.34522	1.64877
3282.41666	1.64685
3280.48809	1.64245
3278.55953	1.64095
3276.63097	1.64230
3274.70240	1.63918
3272.77384	1.63130
3270.84527	1.62240
3268.91671	1.61273
3266.98814	1.60499
3265.05958	1.60223
3263.13101	1.60207
3261.20245	1.59858
3259.27389	1.58775
3257.34532	1.57554
3255.41676	1.56879
3253.48819	1.56343
3251.55963	1.55370
3249.63106	1.54056
3247.70250	1.52999
3245.77393	1.52344
3243.84537	1.51575
3241.91681	1.50553
3239.98824	1.49624
3238.05968	1.49075
3236.13111	1.48694
3234.20255	1.48037
3232.27398	1.47165
3230.34542	1.46336
3228.41685	1.45691
3226.48829	1.45300
3224.55973	1.44970
3222.63116	1.44575
3220.70260	1.44257
3218.77403	1.43947
3216.84547	1.43585
3214.91690	1.43126
3212.98834	1.42326
3211.05977	1.41429
3209.13121	1.40788
3207.20265	1.40408
3205.27408	1.40304
3203.34552	1.40325
3201.41695	1.40145
3199.48839	1.39670
3197.55982	1.39146
3195.63126	1.38708
3193.70269	1.38214
3191.77413	1.37615
3189.84557	1.37055
3187.91700	1.36539
3185.98844	1.35906
3184.05987	1.35330
3182.13131	1.34898
3180.20274	1.34449
3178.27418	1.34123
3176.34562	1.34026
3174.41705	1.34063
3172.48849	1.34038
3170.55992	1.33702
3168.63136	1.33033
3166.70279	1.32353
3164.77423	1.32101
3162.84566	1.32081
3160.91710	1.31775
3158.98854	1.31402
3157.05997	1.31274
3155.13141	1.31100
3153.20284	1.30713
3151.27428	1.30289
3149.34571	1.29866
3147.41715	1.29529
3145.48858	1.29425
3143.56002	1.29420
3141.63146	1.29351
3139.70289	1.29231
3137.77433	1.29073
3135.84576	1.28948
3133.91720	1.28926
3131.98863	1.28851
3130.06007	1.28603
3128.13150	1.28311
3126.20294	1.28056
3124.27438	1.27862
3122.34581	1.27812
3120.41725	1.27789
3118.48868	1.27699
3116.56012	1.27744
3114.63155	1.27782
3112.70299	1.27547
3110.77442	1.27345
3108.84586	1.27343
3106.91730	1.27278
3104.98873	1.27128
3103.06017	1.27157
3101.13160	1.27330
3099.20304	1.27253
3097.27447	1.26929
3095.34591	1.26732
3093.41734	1.26735
3091.48878	1.26781
3089.56022	1.26784
3087.63165	1.26712
3085.70309	1.26628
3083.77452	1.26625
3081.84596	1.26530
3079.91739	1.26216
3077.98883	1.25904
3076.06026	1.25665
3074.13170	1.25394
3072.20314	1.25078
3070.27457	1.24779
3068.34601	1.24645
3066.41744	1.24629
3064.48888	1.24374
3062.56031	1.23853
3060.63175	1.23398
3058.70318	1.23047
3056.77462	1.22691
3054.84606	1.22380
3052.91749	1.22042
3050.98893	1.21532
3049.06036	1.20910
3047.13180	1.20352
3045.20323	1.20001
3043.27467	1.19823
3041.34610	1.19546
3039.41754	1.19007
3037.48898	1.18435
3035.56041	1.18123
3033.63185	1.18008
3031.70328	1.17734
3029.77472	1.17195
3027.84615	1.16713
3025.91759	1.16509
3023.98903	1.16460
3022.06046	1.16336
3020.13190	1.16077
3018.20333	1.15852
3016.27477	1.15785
3014.34620	1.15808
3012.41764	1.15680
3010.48907	1.15283
3008.56051	1.14914
3006.63195	1.14756
3004.70338	1.14760
3002.77482	1.14927
3000.84625	1.15046
2998.91769	1.15061
2996.98912	1.15216
2995.06056	1.15489
2993.13199	1.15754
2991.20343	1.16122
2989.27487	1.16761
2987.34630	1.17577
2985.41774	1.18324
2983.48917	1.18985
2981.56061	1.19750
2979.63204	1.20688
2977.70348	1.21581
2975.77491	1.22339
2973.84635	1.23262
2971.91779	1.24477
2969.98922	1.25750
2968.06066	1.26890
2966.13209	1.27858
2964.20353	1.28542
2962.27496	1.28846
2960.34640	1.28976
2958.41783	1.29108
2956.48927	1.28960
2954.56071	1.28314
2952.63214	1.27456
2950.70358	1.26760
2948.77501	1.26437
2946.84645	1.26637
2944.91788	1.27342
2942.98932	1.28242
2941.06075	1.29134
2939.13219	1.30120
2937.20363	1.31230
2935.27506	1.32490
2933.34650	1.33822
2931.41793	1.34877
2929.48937	1.35592
2927.56080	1.36219
2925.63224	1.36704
2923.70367	1.36767
2921.77511	1.36472
2919.84655	1.36033
2917.91798	1.35170
2915.98942	1.33320
2914.06085	1.30731
2912.13229	1.28302
2910.20372	1.26332
2908.27516	1.24740
2906.34659	1.23553
2904.41803	1.22634
2902.48947	1.21822
2900.56090	1.21102
2898.63234	1.20519
2896.70377	1.20148
2894.77521	1.19886
2892.84664	1.19441
2890.91808	1.18795
2888.98952	1.18152
2887.06095	1.17598
2885.13239	1.17236
2883.20382	1.17090
2881.27526	1.17064
2879.34669	1.17131
2877.41813	1.17206
2875.48956	1.17171
2873.56100	1.17037
2871.63244	1.16740
2869.70387	1.16139
2867.77531	1.15315
2865.84674	1.14537
2863.91818	1.14130
2861.98961	1.14233
2860.06105	1.14601
2858.13248	1.15082
2856.20392	1.15736
2854.27536	1.16466
2852.34679	1.16974
2850.41823	1.16695
2848.48966	1.15099
2846.56110	1.12434
2844.63253	1.09693
2842.70397	1.07577
2840.77540	1.06032
2838.84684	1.04867
2836.91828	1.04040
2834.98971	1.03427
2833.06115	1.02899
2831.13258	1.02439
2829.20402	1.02045
2827.27545	1.01636
2825.34689	1.01169
2823.41832	1.00740
2821.48976	1.00435
2819.56120	1.00186
2817.63263	0.99904
2815.70407	0.99593
2813.77550	0.99242
2811.84694	0.98852
2809.91837	0.98456
2807.98981	0.98056
2806.06124	0.97703
2804.13268	0.97472
2802.20412	0.97303
2800.27555	0.97065
2798.34699	0.96781
2796.41842	0.96521
2794.48986	0.96223
2792.56129	0.95926
2790.63273	0.95756
2788.70416	0.95652
2786.77560	0.95460
2784.84704	0.95209
2782.91847	0.95028
2780.98991	0.94885
2779.06134	0.94739
2777.13278	0.94670
2775.20421	0.94656
2773.27565	0.94582
2771.34708	0.94380
2769.41852	0.94168
2767.48996	0.94103
2765.56139	0.94096
2763.63283	0.94022
2761.70426	0.93903
2759.77570	0.93755
2757.84713	0.93580
2755.91857	0.93416
2753.99001	0.93308
2752.06144	0.93262
2750.13288	0.93237
2748.20431	0.93170
2746.27575	0.93054
2744.34718	0.92934
2742.41862	0.92822
2740.49005	0.92727
2738.56149	0.92621
2736.63293	0.92474
2734.70436	0.92338
2732.77580	0.92221
2730.84723	0.92073
2728.91867	0.91903
2726.99010	0.91728
2725.06154	0.91575
2723.13297	0.91488
2721.20441	0.91399
2719.27585	0.91202
2717.34728	0.90926
2715.41872	0.90665
2713.49015	0.90471
2711.56159	0.90340
2709.63302	0.90223
2707.70446	0.90081
2705.77589	0.89919
2703.84733	0.89748
2701.91877	0.89600
2699.99020	0.89486
2698.06164	0.89334
2696.13307	0.89103
2694.20451	0.88883
2692.27594	0.88745
2690.34738	0.88630
2688.41881	0.88478
2686.49025	0.88265
2684.56169	0.87996
2682.63312	0.87739
2680.70456	0.87513
2678.77599	0.87298
2676.84743	0.87073
2674.91886	0.86804
2672.99030	0.86520
2671.06173	0.86224
2669.13317	0.85900
2667.20461	0.85638
2665.27604	0.85452
2663.34748	0.85247
2661.41891	0.85000
2659.49035	0.84751
2657.56178	0.84549
2655.63322	0.84389
2653.70465	0.84187
2651.77609	0.83933
2649.84753	0.83684
2647.91896	0.83462
2645.99040	0.83295
2644.06183	0.83198
2642.13327	0.83128
2640.20470	0.83058
2638.27614	0.82953
2636.34757	0.82780
2634.41901	0.82608
2632.49045	0.82507
2630.56188	0.82430
2628.63332	0.82302
2626.70475	0.82131
2624.77619	0.81986
2622.84762	0.81919
2620.91906	0.81928
2618.99049	0.81953
2617.06193	0.81903
2615.13337	0.81792
2613.20480	0.81728
2611.27624	0.81709
2609.34767	0.81683
2607.41911	0.81678
2605.49054	0.81690
2603.56198	0.81664
2601.63342	0.81600
2599.70485	0.81550
2597.77629	0.81547
2595.84772	0.81583
2593.91916	0.81627
2591.99059	0.81643
2590.06203	0.81607
2588.13346	0.81552
2586.20490	0.81529
2584.27634	0.81512
2582.34777	0.81471
2580.41921	0.81443
2578.49064	0.81432
2576.56208	0.81414
2574.63351	0.81387
2572.70495	0.81360
2570.77638	0.81350
2568.84782	0.81365
2566.91926	0.81379
2564.99069	0.81376
2563.06213	0.81351
2561.13356	0.81303
2559.20500	0.81237
2557.27643	0.81189
2555.34787	0.81178
2553.41930	0.81164
2551.49074	0.81115
2549.56218	0.81041
2547.63361	0.80957
2545.70505	0.80900
2543.77648	0.80896
2541.84792	0.80920
2539.91935	0.80929
2537.99079	0.80888
2536.06222	0.80815
2534.13366	0.80757
2532.20510	0.80715
2530.27653	0.80687
2528.34797	0.80691
2526.41940	0.80689
2524.49084	0.80618
2522.56227	0.80473
2520.63371	0.80308
2518.70514	0.80185
2516.77658	0.80112
2514.84802	0.80032
2512.91945	0.79910
2510.99089	0.79768
2509.06232	0.79612
2507.13376	0.79429
2505.20519	0.79228
2503.27663	0.79007
2501.34806	0.78741
2499.41950	0.78433
2497.49094	0.78111
2495.56237	0.77809
2493.63381	0.77550
2491.70524	0.77302
2489.77668	0.77050
2487.84811	0.76819
2485.91955	0.76562
2483.99098	0.76238
2482.06242	0.75902
2480.13386	0.75598
2478.20529	0.75336
2476.27673	0.75131
2474.34816	0.74964
2472.41960	0.74780
2470.49103	0.74571
2468.56247	0.74412
2466.63391	0.74323
2464.70534	0.74240
2462.77678	0.74110
2460.84821	0.73949
2458.91965	0.73818
2456.99108	0.73724
2455.06252	0.73617
2453.13395	0.73510
2451.20539	0.73424
2449.27683	0.73369
2447.34826	0.73356
2445.41970	0.73332
2443.49113	0.73253
2441.56257	0.73145
2439.63400	0.73033
2437.70544	0.72926
2435.77687	0.72827
2433.84831	0.72738
2431.91975	0.72653
2429.99118	0.72521
2428.06262	0.72359
2426.13405	0.72258
2424.20549	0.72202
2422.27692	0.72117
2420.34836	0.72045
2418.41979	0.72017
2416.49123	0.71991
2414.56267	0.71964
2412.63410	0.71951
2410.70554	0.71939
2408.77697	0.71937
2406.84841	0.71977
2404.91984	0.72067
2402.99128	0.72180
2401.06271	0.72282
2399.13415	0.72343
2397.20559	0.72397
2395.27702	0.72503
2393.34846	0.72633
2391.41989	0.72722
2389.49133	0.72787
2387.56276	0.72911
2385.63420	0.73131
2383.70563	0.73417
2381.77707	0.73746
2379.84851	0.74110
2377.91994	0.74521
2375.99138	0.74986
2374.06281	0.75432
2372.13425	0.75861
2370.20568	0.76415
2368.27712	0.77068
2366.34855	0.77649
2364.41999	0.78062
2362.49143	0.78207
2360.56286	0.78213
2358.63430	0.78317
2356.70573	0.78236
2354.77717	0.77660
2352.84860	0.76776
2350.92004	0.75891
2348.99147	0.75224
2347.06291	0.74936
2345.13435	0.75159
2343.20578	0.75620
2341.27722	0.75815
2339.34865	0.75801
2337.42009	0.75777
2335.49152	0.75705
2333.56296	0.75533
2331.63440	0.75299
2329.70583	0.75077
2327.77727	0.74907
2325.84870	0.74718
2323.92014	0.74474
2321.99157	0.74237
2320.06301	0.74078
2318.13444	0.73980
2316.20588	0.73857
2314.27732	0.73661
2312.34875	0.73408
2310.42019	0.73167
2308.49162	0.72952
2306.56306	0.72721
2304.63449	0.72480
2302.70593	0.72239
2300.77736	0.72005
2298.84880	0.71804
2296.92024	0.71624
2294.99167	0.71418
2293.06311	0.71167
2291.13454	0.70876
2289.20598	0.70586
2287.27741	0.70363
2285.34885	0.70186
2283.42028	0.69982
2281.49172	0.69765
2279.56316	0.69595
2277.63459	0.69500
2275.70603	0.69423
2273.77746	0.69300
2271.84890	0.69153
2269.92033	0.69026
2267.99177	0.68932
2266.06320	0.68863
2264.13464	0.68787
2262.20608	0.68694
2260.27751	0.68617
2258.34895	0.68568
2256.42038	0.68546
2254.49182	0.68550
2252.56325	0.68570
2250.63469	0.68588
2248.70612	0.68597
2246.77756	0.68615
2244.84900	0.68671
2242.92043	0.68710
2240.99187	0.68688
2239.06330	0.68665
2237.13474	0.68676
2235.20617	0.68675
2233.27761	0.68641
2231.34904	0.68598
2229.42048	0.68569
2227.49192	0.68547
2225.56335	0.68507
2223.63479	0.68447
2221.70622	0.68390
2219.77766	0.68336
2217.84909	0.68286
2215.92053	0.68237
2213.99196	0.68178
2212.06340	0.68114
2210.13484	0.68064
2208.20627	0.68025
2206.27771	0.67985
2204.34914	0.67953
2202.42058	0.67939
2200.49201	0.67935
2198.56345	0.67974
2196.63488	0.68058
2194.70632	0.68104
2192.77776	0.68098
2190.84919	0.68123
2188.92063	0.68192
2186.99206	0.68253
2185.06350	0.68322
2183.13493	0.68424
2181.20637	0.68515
2179.27781	0.68575
2177.34924	0.68636
2175.42068	0.68716
2173.49211	0.68786
2171.56355	0.68809
2169.63498	0.68784
2167.70642	0.68746
2165.77785	0.68717
2163.84929	0.68688
2161.92073	0.68644
2159.99216	0.68589
2158.06360	0.68528
2156.13503	0.68448
2154.20647	0.68339
2152.27790	0.68217
2150.34934	0.68087
2148.42077	0.67942
2146.49221	0.67787
2144.56365	0.67638
2142.63508	0.67518
2140.70652	0.67425
2138.77795	0.67362
2136.84939	0.67317
2134.92082	0.67233
2132.99226	0.67118
2131.06369	0.67017
2129.13513	0.66921
2127.20657	0.66831
2125.27800	0.66761
2123.34944	0.66688
2121.42087	0.66595
2119.49231	0.66485
2117.56374	0.66373
2115.63518	0.66284
2113.70661	0.66219
2111.77805	0.66154
2109.84949	0.66078
2107.92092	0.65990
2105.99236	0.65896
2104.06379	0.65814
2102.13523	0.65741
2100.20666	0.65643
2098.27810	0.65507
2096.34953	0.65354
2094.42097	0.65216
2092.49241	0.65121
2090.56384	0.65042
2088.63528	0.64900
2086.70671	0.64696
2084.77815	0.64517
2082.84958	0.64384
2080.92102	0.64255
2078.99245	0.64110
2077.06389	0.63961
2075.13533	0.63819
2073.20676	0.63690
2071.27820	0.63586
2069.34963	0.63502
2067.42107	0.63431
2065.49250	0.63345
2063.56394	0.63218
2061.63537	0.63095
2059.70681	0.63028
2057.77825	0.62996
2055.84968	0.62953
2053.92112	0.62889
2051.99255	0.62824
2050.06399	0.62763
2048.13542	0.62675
2046.20686	0.62571
2044.27830	0.62508
2042.34973	0.62491
2040.42117	0.62458
2038.49260	0.62388
2036.56404	0.62333
2034.63547	0.62279
2032.70691	0.62181
2030.77834	0.62086
2028.84978	0.62022
2026.92122	0.61949
2024.99265	0.61854
2023.06409	0.61730
2021.13552	0.61585
2019.20696	0.61468
2017.27839	0.61390
2015.34983	0.61282
2013.42126	0.61148
2011.49270	0.61040
2009.56414	0.60944
2007.63557	0.60825
2005.70701	0.60687
2003.77844	0.60551
2001.84988	0.60432
1999.92131	0.60335
1997.99275	0.60255
1996.06418	0.60181
1994.13562	0.60124
1992.20706	0.60084
1990.27849	0.60003
1988.34993	0.59887
1986.42136	0.59798
1984.49280	0.59737
1982.56423	0.59669
1980.63567	0.59583
1978.70710	0.59505
1976.77854	0.59434
1974.84998	0.59334
1972.92141	0.59199
1970.99285	0.59063
1969.06428	0.58971
1967.13572	0.58881
1965.20715	0.58715
1963.27859	0.58529
1961.35002	0.58396
1959.42146	0.58269
1957.49290	0.58111
1955.56433	0.57962
1953.63577	0.57827
1951.70720	0.57663
1949.77864	0.57472
1947.85007	0.57301
1945.92151	0.57178
1943.99294	0.57104
1942.06438	0.57030
1940.13582	0.56868
1938.20725	0.56663
1936.27869	0.56509
1934.35012	0.56398
1932.42156	0.56287
1930.49299	0.56166
1928.56443	0.56037
1926.63586	0.55927
1924.70730	0.55914
1922.77874	0.55956
1920.85017	0.55907
1918.92161	0.55848
1916.99304	0.55835
1915.06448	0.55750
1913.13591	0.55670
1911.20735	0.55701
1909.27878	0.55763
1907.35022	0.55744
1905.42166	0.55672
1903.49309	0.55620
1901.56453	0.55588
1899.63596	0.55562
1897.70740	0.55544
1895.77883	0.55516
1893.85027	0.55426
1891.92171	0.55322
1889.99314	0.55296
1888.06458	0.55272
1886.13601	0.55178
1884.20745	0.55073
1882.27888	0.54976
1880.35032	0.54897
1878.42175	0.54840
1876.49319	0.54812
1874.56463	0.54807
1872.63606	0.54799
1870.70750	0.54866
1868.77893	0.55092
1866.85037	0.55208
1864.92180	0.55111
1862.99324	0.55025
1861.06467	0.55039
1859.13611	0.55120
1857.20755	0.55207
1855.27898	0.55273
1853.35042	0.55335
1851.42185	0.55400
1849.49329	0.55492
1847.56472	0.55617
1845.63616	0.55824
1843.70759	0.56069
1841.77903	0.56083
1839.85047	0.55972
1837.92190	0.55936
1835.99334	0.55929
1834.06477	0.55864
1832.13621	0.55846
1830.20764	0.55966
1828.27908	0.55990
1826.35051	0.55849
1824.42195	0.55737
1822.49339	0.55621
1820.56482	0.55453
1818.63626	0.55307
1816.70769	0.55188
1814.77913	0.55066
1812.85056	0.54982
1810.92200	0.54948
1808.99343	0.54853
1807.06487	0.54679
1805.13631	0.54534
1803.20774	0.54486
1801.27918	0.54539
1799.35061	0.54547
1797.42205	0.54416
1795.49348	0.54267
1793.56492	0.54293
1791.63635	0.54473
1789.70779	0.54392
1787.77923	0.54163
1785.85066	0.54063
1783.92210	0.54084
1781.99353	0.54139
1780.06497	0.54191
1778.13640	0.54157
1776.20784	0.54077
1774.27927	0.54156
1772.35071	0.54474
1770.42215	0.54630
1768.49358	0.54534
1766.56502	0.54417
1764.63645	0.54361
1762.70789	0.54506
1760.77932	0.54806
1758.85076	0.55044
1756.92220	0.55385
1754.99363	0.55761
1753.06507	0.56153
1751.13650	0.57026
1749.20794	0.58361
1747.27937	0.59311
1745.35081	0.59856
1743.42224	0.60333
1741.49368	0.60852
1739.56512	0.61357
1737.63655	0.61596
1735.70799	0.61756
1733.77942	0.62301
1731.85086	0.62605
1729.92229	0.62495
1727.99373	0.62411
1726.06516	0.62452
1724.13660	0.62689
1722.20804	0.62968
1720.27947	0.63229
1718.35091	0.63950
1716.42234	0.65327
1714.49378	0.66210
1712.56521	0.66763
1710.63665	0.67542
1708.70808	0.68715
1706.77952	0.70763
1704.85096	0.73596
1702.92239	0.76164
1700.99383	0.80124
1699.06526	0.86779
1697.13670	0.92900
1695.20813	0.98626
1693.27957	1.02878
1691.35100	1.06345
1689.42244	1.10700
1687.49388	1.14762
1685.56531	1.18761
1683.63675	1.25210
1681.70818	1.30023
1679.77962	1.32510
1677.85105	1.34674
1675.92249	1.37092
1673.99392	1.39558
1672.06536	1.41589
1670.13680	1.43958
1668.20823	1.46292
1666.27967	1.47216
1664.35110	1.47775
1662.42254	1.48452
1660.49397	1.48782
1658.56541	1.48916
1656.63684	1.48978
1654.70828	1.49264
1652.77972	1.49995
1650.85115	1.49897
1648.92259	1.49387
1646.99402	1.49020
1645.06546	1.48674
1643.13689	1.48171
1641.20833	1.47839
1639.27976	1.47667
1637.35120	1.47421
1635.42264	1.46336
1633.49407	1.45035
1631.56551	1.44241
1629.63694	1.43338
1627.70838	1.42131
1625.77981	1.40797
1623.85125	1.39211
1621.92269	1.37501
1619.99412	1.36186
1618.06556	1.34680
1616.13699	1.32104
1614.20843	1.29635
1612.27986	1.27623
1610.35130	1.25658
1608.42273	1.23836
1606.49417	1.22272
1604.56561	1.20927
1602.63704	1.19783
1600.70848	1.18916
1598.77991	1.18276
1596.85135	1.17784
1594.92278	1.17429
1592.99422	1.17272
1591.06565	1.17384
1589.13709	1.17699
1587.20853	1.18136
1585.27996	1.18708
1583.35140	1.19454
1581.42283	1.20286
1579.49427	1.21087
1577.56570	1.22274
1575.63714	1.24185
1573.70857	1.25369
1571.78001	1.25982
1569.85145	1.27113
1567.92288	1.28473
1565.99432	1.29455
1564.06575	1.30331
1562.13719	1.31015
1560.20862	1.32135
1558.28006	1.34502
1556.35149	1.35030
1554.42293	1.34867
1552.49437	1.34841
1550.56580	1.34787
1548.63724	1.34609
1546.70867	1.34505
1544.78011	1.34658
1542.85154	1.34912
1540.92298	1.34666
1538.99441	1.33465
1537.06585	1.32622
1535.13729	1.32204
1533.20872	1.31703
1531.28016	1.30851
1529.35159	1.29995
1527.42303	1.29148
1525.49446	1.28348
1523.56590	1.27899
1521.63733	1.27637
1519.70877	1.27271
1517.78021	1.26672
1515.85164	1.25501
1513.92308	1.23879
1511.99451	1.22201
1510.06595	1.20679
1508.13738	1.18757
1506.20882	1.15473
1504.28025	1.13201
1502.35169	1.11542
1500.42313	1.09763
1498.49456	1.07794
1496.56600	1.05739
1494.63743	1.04031
1492.70887	1.02757
1490.78030	1.01526
1488.85174	1.00107
1486.92317	0.98887
1484.99461	0.98057
1483.06605	0.97586
1481.13748	0.97432
1479.20892	0.97550
1477.28035	0.98043
1475.35179	0.99081
1473.42322	1.00970
1471.49466	1.03092
1469.56610	1.04172
1467.63753	1.04815
1465.70897	1.05694
1463.78040	1.06606
1461.85184	1.07044
1459.92327	1.07386
1457.99471	1.08505
1456.06614	1.09932
1454.13758	1.10130
1452.20902	1.09931
1450.28045	1.09707
1448.35189	1.09527
1446.42332	1.09383
1444.49476	1.09166
1442.56619	1.08824
1440.63763	1.08412
1438.70906	1.08031
1436.78050	1.07609
1434.85194	1.06952
1432.92337	1.06282
1430.99481	1.05799
1429.06624	1.05491
1427.13768	1.05279
1425.20911	1.05234
1423.28055	1.05423
1421.35198	1.05822
1419.42342	1.06511
1417.49486	1.06948
1415.56629	1.06811
1413.63773	1.06679
1411.70916	1.06705
1409.78060	1.06744
1407.85203	1.06739
1405.92347	1.06817
1403.99490	1.06906
1402.06634	1.06873
1400.13778	1.06869
1398.20921	1.06913
1396.28065	1.06867
1394.35208	1.06729
1392.42352	1.06586
1390.49495	1.06584
1388.56639	1.06903
1386.63782	1.07522
1384.70926	1.08114
1382.78070	1.08625
1380.85213	1.08966
1378.92357	1.08875
1376.99500	1.08354
1375.06644	1.07459
1373.13787	1.06206
1371.20931	1.04836
1369.28074	1.03316
1367.35218	1.01633
1365.42362	1.00073
1363.49505	0.98682
1361.56649	0.97478
1359.63792	0.96586
1357.70936	0.95955
1355.78079	0.95481
1353.85223	0.95034
1351.92366	0.94572
1349.99510	0.94145
1348.06654	0.93748
1346.13797	0.93362
1344.20941	0.92999
1342.28084	0.92702
1340.35228	0.92510
1338.42371	0.92336
1336.49515	0.92148
1334.56659	0.92095
1332.63802	0.92234
1330.70946	0.92494
1328.78089	0.92756
1326.85233	0.92934
1324.92376	0.93025
1322.99520	0.93116
1321.06663	0.93328
1319.13807	0.93680
1317.20951	0.94063
1315.28094	0.94417
1313.35238	0.94773
1311.42381	0.95078
1309.49525	0.95339
1307.56668	0.95671
1305.63812	0.96085
1303.70955	0.96514
1301.78099	0.96871
1299.85243	0.97093
1297.92386	0.97224
1295.99530	0.97372
1294.06673	0.97599
1292.13817	0.97935
1290.20960	0.98391
1288.28104	0.98890
1286.35247	0.99361
1284.42391	0.99799
1282.49535	1.00200
1280.56678	1.00585
1278.63822	1.01009
1276.70965	1.01527
1274.78109	1.02167
1272.85252	1.02889
1270.92396	1.03612
1268.99539	1.04312
1267.06683	1.04998
1265.13827	1.05624
1263.20970	1.06146
1261.28114	1.06558
1259.35257	1.06861
1257.42401	1.07135
1255.49544	1.07486
1253.56688	1.07855
1251.63831	1.08141
1249.70975	1.08429
1247.78119	1.08794
1245.85262	1.09154
1243.92406	1.09418
1241.99549	1.09584
1240.06693	1.09719
1238.13836	1.09813
1236.20980	1.09777
1234.28123	1.09614
1232.35267	1.09368
1230.42411	1.08991
1228.49554	1.08489
1226.56698	1.07928
1224.63841	1.07302
1222.70985	1.06647
1220.78128	1.06007
1218.85272	1.05355
1216.92415	1.04718
1214.99559	1.04150
1213.06703	1.03663
1211.13846	1.03281
1209.20990	1.03007
1207.28133	1.02731
1205.35277	1.02284
1203.42420	1.01607
1201.49564	1.00761
1199.56708	0.99818
1197.63851	0.98853
1195.70995	0.97927
1193.78138	0.97057
1191.85282	0.96268
1189.92425	0.95619
1187.99569	0.95100
1186.06712	0.94659
1184.13856	0.94324
1182.21000	0.94141
1180.28143	0.94131
1178.35287	0.94296
1176.42430	0.94621
1174.49574	0.95125
1172.56717	0.95825
1170.63861	0.96700
1168.71004	0.97698
1166.78148	0.98835
1164.85292	1.00110
1162.92435	1.01333
1160.99579	1.02246
1159.06722	1.02635
1157.13866	1.02363
1155.21009	1.01514
1153.28153	1.00377
1151.35296	0.99145
1149.42440	0.97865
1147.49584	0.96635
1145.56727	0.95522
1143.63871	0.94563
1141.71014	0.93870
1139.78158	0.93506
1137.85301	0.93485
1135.92445	0.93793
1133.99588	0.94315
1132.06732	0.95024
1130.13876	0.96020
1128.21019	0.97187
1126.28163	0.98303
1124.35306	0.99293
1122.42450	1.00165
1120.49593	1.00975
1118.56737	1.01692
1116.63880	1.02154
1114.71024	1.02221
1112.78168	1.01930
1110.85311	1.01524
1108.92455	1.01216
1106.99598	1.01039
1105.06742	1.00979
1103.13885	1.01055
1101.21029	1.01213
1099.28172	1.01495
1097.35316	1.02143
1095.42460	1.03268
1093.49603	1.04753
1091.56747	1.06447
1089.63890	1.08292
1087.71034	1.10322
1085.78177	1.12427
1083.85321	1.14232
1081.92464	1.15510
1079.99608	1.16307
1078.06752	1.16600
1076.13895	1.16427
1074.21039	1.15953
1072.28182	1.15240
1070.35326	1.14299
1068.42469	1.13284
1066.49613	1.12474
1064.56756	1.11871
1062.63900	1.11323
1060.71044	1.10927
1058.78187	1.10753
1056.85331	1.10646
1054.92474	1.10524
1052.99618	1.10472
1051.06761	1.10581
1049.13905	1.10803
1047.21049	1.11042
1045.28192	1.11369
1043.35336	1.11988
1041.42479	1.12906
1039.49623	1.13755
1037.56766	1.14178
1035.63910	1.14332
1033.71053	1.14493
1031.78197	1.14540
1029.85341	1.14247
1027.92484	1.13595
1025.99628	1.12711
1024.06771	1.11762
1022.13915	1.10880
1020.21058	1.10131
1018.28202	1.09502
1016.35345	1.08834
1014.42489	1.07898
1012.49633	1.06687
1010.56776	1.05344
1008.63920	1.03889
1006.71063	1.02342
1004.78207	1.00850
1002.85350	0.99518
1000.92494	0.98334
998.99637	0.97374
997.06781	0.96742
995.13925	0.96264
993.21068	0.95652
991.28212	0.94926
989.35355	0.94214
987.42499	0.93409
985.49642	0.92479
983.56786	0.91630
981.63929	0.90963
979.71073	0.90403
977.78217	0.89897
975.85360	0.89449
973.92504	0.88986
971.99647	0.88358
970.06791	0.87536
968.13934	0.86622
966.21078	0.85728
964.28221	0.84960
962.35365	0.84452
960.42509	0.84354
958.49652	0.84705
956.56796	0.85254
954.63939	0.85574
952.71083	0.85402
950.78226	0.84776
948.85370	0.83905
946.92513	0.83016
944.99657	0.82257
943.06801	0.81676
941.13944	0.81234
939.21088	0.80871
937.28231	0.80574
935.35375	0.80324
933.42518	0.80099
931.49662	0.79916
929.56805	0.79789
927.63949	0.79702
925.71093	0.79641
923.78236	0.79605
921.85380	0.79578
919.92523	0.79507
917.99667	0.79381
916.06810	0.79238
914.13954	0.79148
912.21098	0.79172
910.28241	0.79313
908.35385	0.79590
906.42528	0.80031
904.49672	0.80566
902.56815	0.81096
900.63959	0.81627
898.71102	0.82158
896.78246	0.82598
894.85390	0.82926
892.92533	0.83196
890.99677	0.83379
889.06820	0.83474
887.13964	0.83536
885.21107	0.83600
883.28251	0.83731
881.35394	0.83988
879.42538	0.84325
877.49682	0.84660
875.56825	0.84982
873.63969	0.85295
871.71112	0.85551
869.78256	0.85769
867.85399	0.86063
865.92543	0.86460
863.99686	0.86885
862.06830	0.87243
860.13974	0.87554
858.21117	0.87959
856.28261	0.88417
854.35404	0.88780
852.42548	0.89100
850.49691	0.89432
848.56835	0.89745
846.63978	0.90074
844.71122	0.90411
842.78266	0.90674
840.85409	0.90896
838.92553	0.91207
836.99696	0.91612
835.06840	0.92033
833.13983	0.92472
831.21127	0.92891
829.28270	0.93232
827.35414	0.93527
825.42558	0.93777
823.49701	0.93996
821.56845	0.94215
819.63988	0.94391
817.71132	0.94489
815.78275	0.94551
813.85419	0.94583
811.92562	0.94544
809.99706	0.94445
808.06850	0.94238
806.13993	0.93827
804.21137	0.93284
802.28280	0.92783
800.35424	0.92355
798.42567	0.91944
796.49711	0.91513
794.56854	0.91026
792.63998	0.90543
790.71142	0.90160
788.78285	0.89887
786.85429	0.89759
784.92572	0.89807
782.99716	0.89967
781.06859	0.90140
779.14003	0.90320
777.21147	0.90580
775.28290	0.90935
773.35434	0.91417
771.42577	0.92034
769.49721	0.92672
767.56864	0.93280
765.64008	0.93909
763.71151	0.94533
761.78295	0.95118
759.85439	0.95732
757.92582	0.96389
755.99726	0.96983
754.06869	0.97433
752.14013	0.97719
750.21156	0.97870
748.28300	0.97976
746.35443	0.98086
744.42587	0.98109
742.49731	0.97909
740.56874	0.97501
738.64018	0.97010
736.71161	0.96510
734.78305	0.96014
732.85448	0.95484
730.92592	0.94853
728.99735	0.94182
727.06879	0.93640
725.14023	0.93250
723.21166	0.92955
721.28310	0.92755
719.35453	0.92542
717.42597	0.92194
715.49740	0.91850
713.56884	0.91746
711.64027	0.91913
709.71171	0.92233
707.78315	0.92648
705.85458	0.93193
703.92602	0.93881
701.99745	0.94651
700.06889	0.95500
698.14032	0.96442
696.21176	0.97389
694.28319	0.98380
692.35463	0.99540
690.42607	1.00790
688.49750	1.02028
686.56894	1.03243
684.64037	1.04373
682.71181	1.05558
680.78324	1.06949
678.85468	1.08279
676.92611	1.09139
674.99755	1.09525
673.06899	1.09804
671.14042	1.10134
669.21186	1.10283
667.28329	1.09859
665.35473	1.09267
663.42616	1.08701
661.49760	1.07973
659.56903	1.07040
657.64047	1.05864
655.71191	1.04481
653.78334	1.03195
651.85478	1.02197
649.92621	1.01267
647.99765	1.00308
646.06908	0.99690
644.14052	0.99533
642.21195	0.99561
640.28339	0.99624
638.35483	0.99708
636.42626	0.99946
634.49770	1.00471
632.56913	1.00987
630.64057	1.01330
628.71200	1.01746
626.78344	1.02288
624.85488	1.02946
622.92631	1.03852
620.99775	1.04836
619.06918	1.05467
617.14062	1.05508
615.21205	1.05224
613.28349	1.04977
611.35492	1.04684
609.42636	1.04271
607.49780	1.03649
605.56923	1.02488
603.64067	1.01024
601.71210	0.99804
599.78354	0.98701
