3997.91406	0.70527
3995.98550	0.70510
3994.05693	0.70452
3992.12837	0.70460
3990.19980	0.70483
3988.27124	0.70490
3986.34268	0.70501
3984.41411	0.70457
3982.48555	0.70333
3980.55698	0.70236
3978.62842	0.70212
3976.69985	0.70189
3974.77129	0.70188
3972.84272	0.70213
3970.91416	0.70195
3968.98560	0.70185
3967.05703	0.70165
3965.12847	0.69993
3963.19990	0.69746
3961.27134	0.69674
3959.34277	0.69792
3957.41421	0.69898
3955.48564	0.69901
3953.55708	0.69886
3951.62852	0.69935
3949.69995	0.70040
3947.77139	0.70035
3945.84282	0.69834
3943.91426	0.69728
3941.98569	0.69820
3940.05713	0.69830
3938.12856	0.69787
3936.20000	0.69785
3934.27144	0.69717
3932.34287	0.69592
3930.41431	0.69506
3928.48574	0.69443
3926.55718	0.69516
3924.62861	0.69746
3922.70005	0.69753
3920.77148	0.69493
3918.84292	0.69304
3916.91436	0.69273
3914.98579	0.69174
3913.05723	0.68982
3911.12866	0.68865
3909.20010	0.68805
3907.27153	0.68751
3905.34297	0.68898
3903.41440	0.69288
3901.48584	0.69511
3899.55728	0.69419
3897.62871	0.69111
3895.70015	0.68757
3893.77158	0.68650
3891.84302	0.68911
3889.91445	0.68941
3887.98589	0.68609
3886.05733	0.68441
3884.12876	0.68450
3882.20020	0.68446
3880.27163	0.68597
3878.34307	0.68521
3876.41450	0.68291
3874.48594	0.68334
3872.55737	0.68515
3870.62881	0.68753
3868.70025	0.68852
3866.77168	0.68566
3864.84312	0.68366
3862.91455	0.68346
3860.98599	0.68087
3859.05742	0.67684
3857.12886	0.67385
3855.20029	0.67626
3853.27173	0.68801
3851.34317	0.68998
3849.41460	0.68363
3847.48604	0.67813
3845.55747	0.67521
3843.62891	0.67478
3841.70034	0.67484
3839.77178	0.67541
3837.84321	0.67711
3835.91465	0.67627
3833.98609	0.67460
3832.05752	0.67441
3830.12896	0.67331
3828.20039	0.67078
3826.27183	0.66864
3824.34326	0.66727
3822.41470	0.66912
3820.48613	0.67338
3818.55757	0.67251
3816.62901	0.67091
3814.70044	0.66941
3812.77188	0.66571
3810.84331	0.66272
3808.91475	0.66271
3806.98618	0.66484
3805.05762	0.66450
3803.12905	0.66397
3801.20049	0.66631
3799.27193	0.66558
3797.34336	0.66407
3795.41480	0.66397
3793.48623	0.66212
3791.55767	0.65956
3789.62910	0.65804
3787.70054	0.65768
3785.77197	0.65903
3783.84341	0.66020
3781.91485	0.65977
3779.98628	0.66015
3778.05772	0.66049
3776.12915	0.65843
3774.20059	0.65558
3772.27202	0.65466
3770.34346	0.65732
3768.41489	0.65982
3766.48633	0.65923
3764.55777	0.65724
3762.62920	0.65491
3760.70064	0.65477
3758.77207	0.65766
3756.84351	0.65863
3754.91494	0.65726
3752.98638	0.65835
3751.05781	0.66435
3749.12925	0.66523
3747.20069	0.66142
3745.27212	0.66128
3743.34356	0.66225
3741.41499	0.65923
3739.48643	0.65576
3737.55786	0.65556
3735.62930	0.66048
3733.70074	0.66446
3731.77217	0.66183
3729.84361	0.65710
3727.91504	0.65464
3725.98648	0.65547
3724.05791	0.65732
3722.12935	0.65830
3720.20078	0.65827
3718.27222	0.65682
3716.34366	0.65376
3714.41509	0.65142
3712.48653	0.65501
3710.55796	0.66167
3708.62940	0.66093
3706.70083	0.65758
3704.77227	0.65592
3702.84370	0.65720
3700.91514	0.66001
3698.98658	0.66100
3697.05801	0.66079
3695.12945	0.66021
3693.20088	0.66008
3691.27232	0.66323
3689.34375	0.66984
3687.41519	0.67240
3685.48662	0.67123
3683.55806	0.67028
3681.62950	0.67085
3679.70093	0.67285
3677.77237	0.67707
3675.84380	0.68637
3673.91524	0.69201
3671.98667	0.69310
3670.05811	0.69897
3668.12954	0.70333
3666.20098	0.70300
3664.27242	0.70356
3662.34385	0.70597
3660.41529	0.70905
3658.48672	0.71298
3656.55816	0.72046
3654.62959	0.72788
3652.70103	0.73194
3650.77246	0.74050
3648.84390	0.75882
3646.91534	0.76764
3644.98677	0.76814
3643.05821	0.76988
3641.12964	0.77464
3639.20108	0.78060
3637.27251	0.78717
3635.34395	0.79532
3633.41538	0.80284
3631.48682	0.80813
3629.55826	0.81994
3627.62969	0.83506
3625.70113	0.83867
3623.77256	0.83975
3621.84400	0.84471
3619.91543	0.85685
3617.98687	0.87006
3616.05830	0.87612
3614.12974	0.88177
3612.20118	0.88966
3610.27261	0.89722
3608.34405	0.90643
3606.41548	0.91541
3604.48692	0.92147
3602.55835	0.92813
3600.62979	0.93712
3598.70123	0.94663
3596.77266	0.95605
3594.84410	0.96585
3592.91553	0.97405
3590.98697	0.97992
3589.05840	0.98929
3587.12984	1.00450
3585.20127	1.01472
3583.27271	1.01994
3581.34415	1.02600
3579.41558	1.03329
3577.48702	1.04080
3575.55845	1.04991
3573.62989	1.05994
3571.70132	1.06770
3569.77276	1.07426
3567.84419	1.08763
3565.91563	1.10614
3563.98707	1.11652
3562.05850	1.12441
3560.12994	1.13385
3558.20137	1.14173
3556.27281	1.14815
3554.34424	1.15692
3552.41568	1.16724
3550.48711	1.17507
3548.55855	1.18441
3546.62999	1.19721
3544.70142	1.20694
3542.77286	1.21270
3540.84429	1.22027
3538.91573	1.23105
3536.98716	1.24223
3535.05860	1.25284
3533.13003	1.26334
3531.20147	1.27460
3529.27291	1.28718
3527.34434	1.29740
3525.41578	1.30422
3523.48721	1.31377
3521.55865	1.32677
3519.63008	1.33586
3517.70152	1.33973
3515.77295	1.34485
3513.84439	1.35589
3511.91583	1.37063
3509.98726	1.38420
3508.05870	1.39524
3506.13013	1.40680
3504.20157	1.42125
3502.27300	1.43357
3500.34444	1.44196
3498.41587	1.45224
3496.48731	1.46632
3494.55875	1.48161
3492.63018	1.49391
3490.70162	1.50330
3488.77305	1.51020
3486.84449	1.51409
3484.91592	1.51741
3482.98736	1.52028
3481.05879	1.52301
3479.13023	1.52620
3477.20167	1.52799
3475.27310	1.53205
3473.34454	1.54465
3471.41597	1.55870
3469.48741	1.56316
3467.55884	1.56288
3465.63028	1.56442
3463.70171	1.56369
3461.77315	1.55971
3459.84459	1.55917
3457.91602	1.56451
3455.98746	1.56985
3454.05889	1.56858
3452.13033	1.56518
3450.20176	1.56953
3448.27320	1.58165
3446.34464	1.59503
3444.41607	1.60555
3442.48751	1.61398
3440.55894	1.62007
3438.63038	1.62002
3436.70181	1.61418
3434.77325	1.60660
3432.84468	1.60128
3430.91612	1.59987
3428.98756	1.60219
3427.05899	1.60864
3425.13043	1.61398
3423.20186	1.61232
3421.27330	1.60808
3419.34473	1.60867
3417.41617	1.61581
3415.48760	1.62571
3413.55904	1.63272
3411.63048	1.63736
3409.70191	1.64061
3407.77335	1.63701
3405.84478	1.62808
3403.91622	1.62374
3401.98765	1.62647
3400.05909	1.62895
3398.13052	1.62808
3396.20196	1.62935
3394.27340	1.63523
3392.34483	1.63989
3390.41627	1.63847
3388.48770	1.63345
3386.55914	1.62741
3384.63057	1.62165
3382.70201	1.61719
3380.77344	1.61581
3378.84488	1.62229
3376.91632	1.63353
3374.98775	1.63926
3373.05919	1.63998
3371.13062	1.64314
3369.20206	1.64833
3367.27349	1.65186
3365.34493	1.65475
3363.41636	1.65654
3361.48780	1.65466
3359.55924	1.65219
3357.63067	1.65398
3355.70211	1.65956
3353.77354	1.66641
3351.84498	1.67321
3349.91641	1.67707
3347.98785	1.67796
3346.05928	1.67873
3344.13072	1.67637
3342.20216	1.67021
3340.27359	1.66719
3338.34503	1.66966
3336.41646	1.67556
3334.48790	1.68459
3332.55933	1.69365
3330.63077	1.69484
3328.70220	1.68661
3326.77364	1.68113
3324.84508	1.68543
3322.91651	1.69258
3320.98795	1.69961
3319.05938	1.70517
3317.13082	1.70201
3315.20225	1.69376
3313.27369	1.69086
3311.34513	1.69251
3309.41656	1.69615
3307.48800	1.70405
3305.55943	1.70978
3303.63087	1.70403
3301.70230	1.69171
3299.77374	1.68519
3297.84517	1.68769
3295.91661	1.69287
3293.98805	1.69698
3292.05948	1.70221
3290.13092	1.70824
3288.20235	1.70874
3286.27379	1.70261
3284.34522	1.69777
3282.41666	1.69678
3280.48809	1.69836
3278.55953	1.70250
3276.63097	1.70300
3274.70240	1.69729
3272.77384	1.69280
3270.84527	1.69219
3268.91671	1.69050
3266.98814	1.68303
3265.05958	1.67170
3263.13101	1.66506
3261.20245	1.66306
3259.27389	1.65304
3257.34532	1.63724
3255.41676	1.63121
3253.48819	1.63173
3251.55963	1.62717
3249.63106	1.62234
3247.70250	1.62214
3245.77393	1.61820
3243.84537	1.60916
3241.91681	1.60322
3239.98824	1.59979
3238.05968	1.59838
3236.13111	1.59972
3234.20255	1.59404
3232.27398	1.57959
3230.34542	1.56820
3228.41685	1.56351
3226.48829	1.56137
3224.55973	1.56051
3222.63116	1.55977
3220.70260	1.55722
3218.77403	1.55480
3216.84547	1.55480
3214.91690	1.55382
3212.98834	1.54829
3211.05977	1.54032
3209.13121	1.53199
3207.20265	1.52446
3205.27408	1.51832
3203.34552	1.51238
3201.41695	1.50633
3199.48839	1.50016
3197.55982	1.49644
3195.63126	1.49659
3193.70269	1.49549
3191.77413	1.49128
3189.84557	1.48647
3187.91700	1.48205
3185.98844	1.47871
3184.05987	1.47640
3182.13131	1.47478
3180.20274	1.47270
3178.27418	1.46840
3176.34562	1.46205
3174.41705	1.45508
3172.48849	1.44898
3170.55992	1.44388
3168.63136	1.44044
3166.70279	1.43959
3164.77423	1.43750
3162.84566	1.43154
3160.91710	1.42569
3158.98854	1.42238
3157.05997	1.42057
3155.13141	1.41789
3153.20284	1.41229
3151.27428	1.40625
3149.34571	1.40211
3147.41715	1.39902
3145.48858	1.39698
3143.56002	1.39552
3141.63146	1.39382
3139.70289	1.39182
3137.77433	1.38861
3135.84576	1.38567
3133.91720	1.38614
3131.98863	1.38831
3130.06007	1.38832
3128.13150	1.38676
3126.20294	1.38559
3124.27438	1.38474
3122.34581	1.38391
3120.41725	1.38225
3118.48868	1.37904
3116.56012	1.37715
3114.63155	1.37913
3112.70299	1.38194
3110.77442	1.38251
3108.84586	1.38003
3106.91730	1.37510
3104.98873	1.37299
3103.06017	1.37773
3101.13160	1.38335
3099.20304	1.38154
3097.27447	1.37478
3095.34591	1.37028
3093.41734	1.36919
3091.48878	1.36818
3089.56022	1.36649
3087.63165	1.36672
3085.70309	1.36732
3083.77452	1.36498
3081.84596	1.36243
3079.91739	1.36216
3077.98883	1.36140
3076.06026	1.35770
3074.13170	1.35246
3072.20314	1.34750
3070.27457	1.34443
3068.34601	1.34453
3066.41744	1.34429
3064.48888	1.34040
3062.56031	1.33640
3060.63175	1.33505
3058.70318	1.33376
3056.77462	1.32989
3054.84606	1.32459
3052.91749	1.31966
3050.98893	1.31509
3049.06036	1.31086
3047.13180	1.30658
3045.20323	1.30133
3043.27467	1.29684
3041.34610	1.29551
3039.41754	1.29527
3037.48898	1.29316
3035.56041	1.29010
3033.63185	1.28653
3031.70328	1.28054
3029.77472	1.27441
3027.84615	1.27158
3025.91759	1.26902
3023.98903	1.26438
3022.06046	1.26053
3020.13190	1.25856
3018.20333	1.25648
3016.27477	1.25403
3014.34620	1.25284
3012.41764	1.25159
3010.48907	1.24788
3008.56051	1.24361
3006.63195	1.24133
3004.70338	1.24077
3002.77482	1.24010
3000.84625	1.23842
2998.91769	1.23855
2996.98912	1.24311
2995.06056	1.24887
2993.13199	1.25210
2991.20343	1.25457
2989.27487	1.25918
2987.34630	1.26589
2985.41774	1.27292
2983.48917	1.27946
2981.56061	1.28670
2979.63204	1.29528
2977.70348	1.30455
2975.77491	1.31455
2973.84635	1.32505
2971.91779	1.33463
2969.98922	1.34339
2968.06066	1.35216
2966.13209	1.35876
2964.20353	1.36084
2962.27496	1.36152
2960.34640	1.36374
2958.41783	1.36374
2956.48927	1.35969
2954.56071	1.35531
2952.63214	1.35148
2950.70358	1.34663
2948.77501	1.34148
2946.84645	1.33976
2944.91788	1.34498
2942.98932	1.35460
2941.06075	1.36252
2939.13219	1.36869
2937.20363	1.37713
2935.27506	1.38750
2933.34650	1.39660
2931.41793	1.40291
2929.48937	1.40730
2927.56080	1.40950
2925.63224	1.40849
2923.70367	1.40754
2921.77511	1.40652
2919.84655	1.40039
2917.91798	1.39064
2915.98942	1.37995
2914.06085	1.36597
2912.13229	1.34868
2910.20372	1.33206
2908.27516	1.31855
2906.34659	1.30702
2904.41803	1.29756
2902.48947	1.29147
2900.56090	1.28739
2898.63234	1.28369
2896.70377	1.27946
2894.77521	1.27434
2892.84664	1.26954
2890.91808	1.26453
2888.98952	1.25771
2887.06095	1.25186
2885.13239	1.25139
2883.20382	1.25442
2881.27526	1.25597
2879.34669	1.25581
2877.41813	1.25586
2875.48956	1.25575
2873.56100	1.25376
2871.63244	1.24851
2869.70387	1.24030
2867.77531	1.23184
2865.84674	1.22573
2863.91818	1.22189
2861.98961	1.21962
2860.06105	1.21938
2858.13248	1.22111
2856.20392	1.22383
2854.27536	1.22701
2852.34679	1.22988
2850.41823	1.22740
2848.48966	1.21245
2846.56110	1.18644
2844.63253	1.15936
2842.70397	1.13777
2840.77540	1.12167
2838.84684	1.11011
2836.91828	1.10285
2834.98971	1.09845
2833.06115	1.09475
2831.13258	1.09028
2829.20402	1.08454
2827.27545	1.07832
2825.34689	1.07317
2823.41832	1.06962
2821.48976	1.06679
2819.56120	1.06325
2817.63263	1.05914
2815.70407	1.05662
2813.77550	1.05621
2811.84694	1.05493
2809.91837	1.05079
2807.98981	1.04570
2806.06124	1.04141
2804.13268	1.03761
2802.20412	1.03405
2800.27555	1.03069
2798.34699	1.02740
2796.41842	1.02428
2794.48986	1.02092
2792.56129	1.01778
2790.63273	1.01560
2788.70416	1.01280
2786.77560	1.00852
2784.84704	1.00425
2782.91847	1.00039
2780.98991	0.99633
2779.06134	0.99200
2777.13278	0.98763
2775.20421	0.98365
2773.27565	0.98036
2771.34708	0.97735
2769.41852	0.97437
2767.48996	0.97188
2765.56139	0.96980
2763.63283	0.96788
2761.70426	0.96598
2759.77570	0.96364
2757.84713	0.96096
2755.91857	0.95858
2753.99001	0.95695
2752.06144	0.95597
2750.13288	0.95476
2748.20431	0.95259
2746.27575	0.95021
2744.34718	0.94893
2742.41862	0.94851
2740.49005	0.94771
2738.56149	0.94619
2736.63293	0.94445
2734.70436	0.94293
2732.77580	0.94169
2730.84723	0.94065
2728.91867	0.93994
2726.99010	0.93941
2725.06154	0.93793
2723.13297	0.93514
2721.20441	0.93220
2719.27585	0.92932
2717.34728	0.92605
2715.41872	0.92298
2713.49015	0.92069
2711.56159	0.91897
2709.63302	0.91727
2707.70446	0.91531
2705.77589	0.91313
2703.84733	0.91076
2701.91877	0.90828
2699.99020	0.90584
2698.06164	0.90362
2696.13307	0.90200
2694.20451	0.90105
2692.27594	0.89986
2690.34738	0.89763
2688.41881	0.89498
2686.49025	0.89293
2684.56169	0.89201
2682.63312	0.89157
2680.70456	0.88998
2678.77599	0.88754
2676.84743	0.88569
2674.91886	0.88411
2672.99030	0.88244
2671.06173	0.88122
2669.13317	0.88071
2667.20461	0.88028
2665.27604	0.87898
2663.34748	0.87727
2661.41891	0.87565
2659.49035	0.87328
2657.56178	0.87041
2655.63322	0.86856
2653.70465	0.86754
2651.77609	0.86603
2649.84753	0.86408
2647.91896	0.86242
2645.99040	0.86111
2644.06183	0.86023
2642.13327	0.85945
2640.20470	0.85795
2638.27614	0.85576
2636.34757	0.85363
2634.41901	0.85165
2632.49045	0.84992
2630.56188	0.84895
2628.63332	0.84805
2626.70475	0.84601
2624.77619	0.84344
2622.84762	0.84200
2620.91906	0.84152
2618.99049	0.84022
2617.06193	0.83797
2615.13337	0.83607
2613.20480	0.83437
2611.27624	0.83239
2609.34767	0.83056
2607.41911	0.82903
2605.49054	0.82756
2603.56198	0.82582
2601.63342	0.82373
2599.70485	0.82164
2597.77629	0.81986
2595.84772	0.81833
2593.91916	0.81660
2591.99059	0.81434
2590.06203	0.81190
2588.13346	0.80978
2586.20490	0.80797
2584.27634	0.80604
2582.34777	0.80418
2580.41921	0.80273
2578.49064	0.80105
2576.56208	0.79877
2574.63351	0.79664
2572.70495	0.79509
2570.77638	0.79366
2568.84782	0.79196
2566.91926	0.79010
2564.99069	0.78824
2563.06213	0.78624
2561.13356	0.78412
2559.20500	0.78230
2557.27643	0.78084
2555.34787	0.77929
2553.41930	0.77737
2551.49074	0.77528
2549.56218	0.77337
2547.63361	0.77170
2545.70505	0.77022
2543.77648	0.76886
2541.84792	0.76761
2539.91935	0.76648
2537.99079	0.76524
2536.06222	0.76375
2534.13366	0.76229
2532.20510	0.76108
2530.27653	0.75986
2528.34797	0.75841
2526.41940	0.75696
2524.49084	0.75587
2522.56227	0.75462
2520.63371	0.75240
2518.70514	0.75003
2516.77658	0.74846
2514.84802	0.74719
2512.91945	0.74556
2510.99089	0.74359
2509.06232	0.74154
2507.13376	0.73963
2505.20519	0.73780
2503.27663	0.73587
2501.34806	0.73384
2499.41950	0.73211
2497.49094	0.73058
2495.56237	0.72857
2493.63381	0.72619
2491.70524	0.72397
2489.77668	0.72215
2487.84811	0.72059
2485.91955	0.71881
2483.99098	0.71657
2482.06242	0.71432
2480.13386	0.71260
2478.20529	0.71115
2476.27673	0.70955
2474.34816	0.70797
2472.41960	0.70628
2470.49103	0.70434
2468.56247	0.70249
2466.63391	0.70084
2464.70534	0.69920
2462.77678	0.69767
2460.84821	0.69631
2458.91965	0.69511
2456.99108	0.69389
2455.06252	0.69257
2453.13395	0.69116
2451.20539	0.68942
2449.27683	0.68751
2447.34826	0.68629
2445.41970	0.68571
2443.49113	0.68458
2441.56257	0.68285
2439.63400	0.68140
2437.70544	0.68035
2435.77687	0.67957
2433.84831	0.67885
2431.91975	0.67775
2429.99118	0.67618
2428.06262	0.67436
2426.13405	0.67256
2424.20549	0.67113
2422.27692	0.66999
2420.34836	0.66848
2418.41979	0.66670
2416.49123	0.66537
2414.56267	0.66436
2412.63410	0.66295
2410.70554	0.66121
2408.77697	0.65980
2406.84841	0.65883
2404.91984	0.65766
2402.99128	0.65588
2401.06271	0.65373
2399.13415	0.65173
2397.20559	0.65013
2395.27702	0.64875
2393.34846	0.64735
2391.41989	0.64602
2389.49133	0.64488
2387.56276	0.64405
2385.63420	0.64369
2383.70563	0.64407
2381.77707	0.64537
2379.84851	0.64724
2377.91994	0.64943
2375.99138	0.65235
2374.06281	0.65592
2372.13425	0.65927
2370.20568	0.66224
2368.27712	0.66488
2366.34855	0.66807
2364.41999	0.67295
2362.49143	0.67702
2360.56286	0.67875
2358.63430	0.67845
2356.70573	0.67502
2354.77717	0.67021
2352.84860	0.66455
2350.92004	0.65813
2348.99147	0.65352
2347.06291	0.65253
2345.13435	0.65505
2343.20578	0.65699
2341.27722	0.65559
2339.34865	0.65306
2337.42009	0.65070
2335.49152	0.64909
2333.56296	0.64764
2331.63440	0.64504
2329.70583	0.64214
2327.77727	0.63984
2325.84870	0.63743
2323.92014	0.63414
2321.99157	0.62984
2320.06301	0.62586
2318.13444	0.62277
2316.20588	0.61952
2314.27732	0.61614
2312.34875	0.61338
2310.42019	0.61109
2308.49162	0.60860
2306.56306	0.60572
2304.63449	0.60321
2302.70593	0.60176
2300.77736	0.60092
2298.84880	0.59989
2296.92024	0.59861
2294.99167	0.59760
2293.06311	0.59697
2291.13454	0.59607
2289.20598	0.59491
2287.27741	0.59418
2285.34885	0.59377
2283.42028	0.59334
2281.49172	0.59299
2279.56316	0.59273
2277.63459	0.59248
2275.70603	0.59221
2273.77746	0.59188
2271.84890	0.59133
2269.92033	0.59042
2267.99177	0.58933
2266.06320	0.58822
2264.13464	0.58700
2262.20608	0.58586
2260.27751	0.58490
2258.34895	0.58379
2256.42038	0.58237
2254.49182	0.58088
2252.56325	0.57953
2250.63469	0.57835
2248.70612	0.57713
2246.77756	0.57592
2244.84900	0.57509
2242.92043	0.57467
2240.99187	0.57422
2239.06330	0.57365
2237.13474	0.57334
2235.20617	0.57365
2233.27761	0.57452
2231.34904	0.57530
2229.42048	0.57564
2227.49192	0.57594
2225.56335	0.57651
2223.63479	0.57723
2221.70622	0.57805
2219.77766	0.57896
2217.84909	0.57992
2215.92053	0.58091
2213.99196	0.58177
2212.06340	0.58233
2210.13484	0.58285
2208.20627	0.58354
2206.27771	0.58408
2204.34914	0.58402
2202.42058	0.58353
2200.49201	0.58296
2198.56345	0.58238
2196.63488	0.58181
2194.70632	0.58105
2192.77776	0.58002
2190.84919	0.57901
2188.92063	0.57797
2186.99206	0.57690
2185.06350	0.57618
2183.13493	0.57553
2181.20637	0.57448
2179.27781	0.57340
2177.34924	0.57268
2175.42068	0.57223
2173.49211	0.57188
2171.56355	0.57156
2169.63498	0.57143
2167.70642	0.57168
2165.77785	0.57206
2163.84929	0.57233
2161.92073	0.57255
2159.99216	0.57290
2158.06360	0.57358
2156.13503	0.57469
2154.20647	0.57589
2152.27790	0.57697
2150.34934	0.57803
2148.42077	0.57911
2146.49221	0.58016
2144.56365	0.58123
2142.63508	0.58230
2140.70652	0.58319
2138.77795	0.58388
2136.84939	0.58436
2134.92082	0.58447
2132.99226	0.58414
2131.06369	0.58363
2129.13513	0.58331
2127.20657	0.58295
2125.27800	0.58205
2123.34944	0.58065
2121.42087	0.57901
2119.49231	0.57725
2117.56374	0.57537
2115.63518	0.57340
2113.70661	0.57147
2111.77805	0.56956
2109.84949	0.56760
2107.92092	0.56572
2105.99236	0.56413
2104.06379	0.56288
2102.13523	0.56185
2100.20666	0.56080
2098.27810	0.55967
2096.34953	0.55876
2094.42097	0.55837
2092.49241	0.55829
2090.56384	0.55821
2088.63528	0.55824
2086.70671	0.55873
2084.77815	0.55963
2082.84958	0.56053
2080.92102	0.56124
2078.99245	0.56205
2077.06389	0.56312
2075.13533	0.56407
2073.20676	0.56480
2071.27820	0.56554
2069.34963	0.56638
2067.42107	0.56717
2065.49250	0.56767
2063.56394	0.56777
2061.63537	0.56774
2059.70681	0.56772
2057.77825	0.56731
2055.84968	0.56643
2053.92112	0.56549
2051.99255	0.56439
2050.06399	0.56294
2048.13542	0.56152
2046.20686	0.56035
2044.27830	0.55908
2042.34973	0.55754
2040.42117	0.55598
2038.49260	0.55454
2036.56404	0.55316
2034.63547	0.55181
2032.70691	0.55058
2030.77834	0.54940
2028.84978	0.54829
2026.92122	0.54746
2024.99265	0.54710
2023.06409	0.54706
2021.13552	0.54699
2019.20696	0.54697
2017.27839	0.54717
2015.34983	0.54716
2013.42126	0.54706
2011.49270	0.54744
2009.56414	0.54812
2007.63557	0.54855
2005.70701	0.54865
2003.77844	0.54879
2001.84988	0.54923
1999.92131	0.54979
1997.99275	0.55024
1996.06418	0.55044
1994.13562	0.55054
1992.20706	0.55069
1990.27849	0.55051
1988.34993	0.55005
1986.42136	0.54951
1984.49280	0.54879
1982.56423	0.54790
1980.63567	0.54692
1978.70710	0.54597
1976.77854	0.54501
1974.84998	0.54377
1972.92141	0.54225
1970.99285	0.54080
1969.06428	0.53974
1967.13572	0.53871
1965.20715	0.53701
1963.27859	0.53489
1961.35002	0.53306
1959.42146	0.53156
1957.49290	0.53024
1955.56433	0.52908
1953.63577	0.52791
1951.70720	0.52687
1949.77864	0.52603
1947.85007	0.52516
1945.92151	0.52446
1943.99294	0.52436
1942.06438	0.52418
1940.13582	0.52310
1938.20725	0.52186
1936.27869	0.52103
1934.35012	0.52051
1932.42156	0.52014
1930.49299	0.51958
1928.56443	0.51875
1926.63586	0.51803
1924.70730	0.51796
1922.77874	0.51794
1920.85017	0.51697
1918.92161	0.51581
1916.99304	0.51468
1915.06448	0.51284
1913.13591	0.51100
1911.20735	0.50972
1909.27878	0.50817
1907.35022	0.50588
1905.42166	0.50368
1903.49309	0.50192
1901.56453	0.50025
1899.63596	0.49865
1897.70740	0.49735
1895.77883	0.49635
1893.85027	0.49509
1891.92171	0.49366
1889.99314	0.49264
1888.06458	0.49152
1886.13601	0.49012
1884.20745	0.48909
1882.27888	0.48829
1880.35032	0.48750
1878.42175	0.48689
1876.49319	0.48654
1874.56463	0.48625
1872.63606	0.48592
1870.70750	0.48630
1868.77893	0.48763
1866.85037	0.48732
1864.92180	0.48513
1862.99324	0.48326
1861.06467	0.48232
1859.13611	0.48174
1857.20755	0.48086
1855.27898	0.47959
1853.35042	0.47829
1851.42185	0.47720
1849.49329	0.47646
1847.56472	0.47592
1845.63616	0.47564
1843.70759	0.47502
1841.77903	0.47280
1839.85047	0.47013
1837.92190	0.46822
1835.99334	0.46665
1834.06477	0.46496
1832.13621	0.46420
1830.20764	0.46483
1828.27908	0.46459
1826.35051	0.46308
1824.42195	0.46188
1822.49339	0.46073
1820.56482	0.45960
1818.63626	0.45919
1816.70769	0.45932
1814.77913	0.45967
1812.85056	0.46067
1810.92200	0.46245
1808.99343	0.46391
1807.06487	0.46467
1805.13631	0.46554
1803.20774	0.46717
1801.27918	0.46965
1799.35061	0.47182
1797.42205	0.47305
1795.49348	0.47399
1793.56492	0.47585
1791.63635	0.47851
1789.70779	0.47894
1787.77923	0.47825
1785.85066	0.47865
1783.92210	0.47982
1781.99353	0.48098
1780.06497	0.48213
1778.13640	0.48272
1776.20784	0.48298
1774.27927	0.48466
1772.35071	0.48827
1770.42215	0.49000
1768.49358	0.48954
1766.56502	0.48938
1764.63645	0.49030
1762.70789	0.49355
1760.77932	0.49841
1758.85076	0.50276
1756.92220	0.50852
1754.99363	0.51491
1753.06507	0.52166
1751.13650	0.53350
1749.20794	0.55009
1747.27937	0.56294
1745.35081	0.57223
1743.42224	0.58129
1741.49368	0.59094
1739.56512	0.60065
1737.63655	0.60721
1735.70799	0.61302
1733.77942	0.62460
1731.85086	0.63410
1729.92229	0.63888
1727.99373	0.64400
1726.06516	0.65027
1724.13660	0.65914
1722.20804	0.66880
1720.27947	0.67788
1718.35091	0.69296
1716.42234	0.71677
1714.49378	0.73336
1712.56521	0.74537
1710.63665	0.76004
1708.70808	0.77891
1706.77952	0.80667
1704.85096	0.84301
1702.92239	0.87637
1700.99383	0.92254
1699.06526	0.99453
1697.13670	1.05878
1695.20813	1.11790
1693.27957	1.15989
1691.35100	1.19084
1689.42244	1.22699
1687.49388	1.25728
1685.56531	1.28219
1683.63675	1.31974
1681.70818	1.34625
1679.77962	1.35688
1677.85105	1.36440
1675.92249	1.37233
1673.99392	1.37835
1672.06536	1.38202
1670.13680	1.38510
1668.20823	1.38513
1666.27967	1.38083
1664.35110	1.37742
1662.42254	1.37634
1660.49397	1.37390
1658.56541	1.36969
1656.63684	1.36512
1654.70828	1.36394
1652.77972	1.36602
1650.85115	1.36387
1648.92259	1.36135
1646.99402	1.35776
1645.06546	1.35279
1643.13689	1.34809
1641.20833	1.34374
1639.27976	1.33846
1637.35120	1.33208
1635.42264	1.32521
1633.49407	1.31867
1631.56551	1.31291
1629.63694	1.30613
1627.70838	1.29812
1625.77981	1.29111
1623.85125	1.28422
1621.92269	1.27408
1619.99412	1.26376
1618.06556	1.25444
1616.13699	1.24251
1614.20843	1.23021
1612.27986	1.21922
1610.35130	1.20852
1608.42273	1.19816
1606.49417	1.18967
1604.56561	1.18350
1602.63704	1.17882
1600.70848	1.17624
1598.77991	1.17497
1596.85135	1.17425
1594.92278	1.17505
1592.99422	1.17702
1591.06565	1.17914
1589.13709	1.18191
1587.20853	1.18646
1585.27996	1.19273
1583.35140	1.20022
1581.42283	1.20779
1579.49427	1.21473
1577.56570	1.22371
1575.63714	1.23506
1573.70857	1.24109
1571.78001	1.24449
1569.85145	1.25101
1567.92288	1.25859
1565.99432	1.26361
1564.06575	1.26749
1562.13719	1.26973
1560.20862	1.27320
1558.28006	1.28013
1556.35149	1.27865
1554.42293	1.27457
1552.49437	1.27157
1550.56580	1.26927
1548.63724	1.26606
1546.70867	1.26300
1544.78011	1.26098
1542.85154	1.25764
1540.92298	1.25169
1538.99441	1.24668
1537.06585	1.24319
1535.13729	1.23897
1533.20872	1.23216
1531.28016	1.22375
1529.35159	1.21745
1527.42303	1.21386
1525.49446	1.21147
1523.56590	1.20929
1521.63733	1.20665
1519.70877	1.20153
1517.78021	1.19303
1515.85164	1.18106
1513.92308	1.16868
1511.99451	1.15810
1510.06595	1.14944
1508.13738	1.13598
1506.20882	1.11025
1504.28025	1.09449
1502.35169	1.08412
1500.42313	1.07296
1498.49456	1.05939
1496.56600	1.04131
1494.63743	1.02422
1492.70887	1.01219
1490.78030	1.00112
1488.85174	0.98680
1486.92317	0.97359
1484.99461	0.96487
1483.06605	0.96011
1481.13748	0.95924
1479.20892	0.96207
1477.28035	0.96909
1475.35179	0.98172
1473.42322	1.00179
1471.49466	1.02082
1469.56610	1.02883
1467.63753	1.03362
1465.70897	1.04185
1463.78040	1.05206
1461.85184	1.05845
1459.92327	1.06353
1457.99471	1.07301
1456.06614	1.07970
1454.13758	1.07735
1452.20902	1.07427
1450.28045	1.07223
1448.35189	1.07035
1446.42332	1.06664
1444.49476	1.06146
1442.56619	1.05615
1440.63763	1.05120
1438.70906	1.04637
1436.78050	1.03980
1434.85194	1.03190
1432.92337	1.02583
1430.99481	1.02100
1429.06624	1.01624
1427.13768	1.01248
1425.20911	1.01120
1423.28055	1.01209
1421.35198	1.01426
1419.42342	1.01979
1417.49486	1.02584
1415.56629	1.02688
1413.63773	1.02670
1411.70916	1.02790
1409.78060	1.02996
1407.85203	1.03227
1405.92347	1.03551
1403.99490	1.03904
1402.06634	1.04133
1400.13778	1.04329
1398.20921	1.04552
1396.28065	1.04795
1394.35208	1.05032
1392.42352	1.05201
1390.49495	1.05452
1388.56639	1.06066
1386.63782	1.07027
1384.70926	1.07848
1382.78070	1.08452
1380.85213	1.08896
1378.92357	1.08991
1376.99500	1.08607
1375.06644	1.07738
1373.13787	1.06550
1371.20931	1.05373
1369.28074	1.04090
1367.35218	1.02572
1365.42362	1.01110
1363.49505	0.99783
1361.56649	0.98525
1359.63792	0.97488
1357.70936	0.96702
1355.78079	0.96098
1353.85223	0.95637
1351.92366	0.95271
1349.99510	0.94968
1348.06654	0.94733
1346.13797	0.94575
1344.20941	0.94493
1342.28084	0.94517
1340.35228	0.94707
1338.42371	0.94999
1336.49515	0.95308
1334.56659	0.95734
1332.63802	0.96362
1330.70946	0.97174
1328.78089	0.98003
1326.85233	0.98670
1324.92376	0.99193
1322.99520	0.99706
1321.06663	1.00342
1319.13807	1.01074
1317.20951	1.01667
1315.28094	1.02052
1313.35238	1.02383
1311.42381	1.02701
1309.49525	1.02939
1307.56668	1.03036
1305.63812	1.02977
1303.70955	1.02831
1301.78099	1.02624
1299.85243	1.02313
1297.92386	1.01840
1295.99530	1.01215
1294.06673	1.00587
1292.13817	1.00094
1290.20960	0.99709
1288.28104	0.99342
1286.35247	0.98954
1284.42391	0.98532
1282.49535	0.98122
1280.56678	0.97795
1278.63822	0.97584
1276.70965	0.97521
1274.78109	0.97616
1272.85252	0.97833
1270.92396	0.98145
1268.99539	0.98565
1267.06683	0.99070
1265.13827	0.99546
1263.20970	0.99894
1261.28114	1.00113
1259.35257	1.00265
1257.42401	1.00431
1255.49544	1.00650
1253.56688	1.00911
1251.63831	1.01198
1249.70975	1.01502
1247.78119	1.01808
1245.85262	1.02041
1243.92406	1.02128
1241.99549	1.02136
1240.06693	1.02123
1238.13836	1.02038
1236.20980	1.01837
1234.28123	1.01549
1232.35267	1.01180
1230.42411	1.00654
1228.49554	0.99993
1226.56698	0.99287
1224.63841	0.98528
1222.70985	0.97690
1220.78128	0.96785
1218.85272	0.95841
1216.92415	0.94953
1214.99559	0.94249
1213.06703	0.93753
1211.13846	0.93388
1209.20990	0.93111
1207.28133	0.92856
1205.35277	0.92473
1203.42420	0.91839
1201.49564	0.90998
1199.56708	0.90109
1197.63851	0.89270
1195.70995	0.88496
1193.78138	0.87831
1191.85282	0.87381
1189.92425	0.87208
1187.99569	0.87256
1186.06712	0.87490
1184.13856	0.87956
1182.21000	0.88691
1180.28143	0.89736
1178.35287	0.91093
1176.42430	0.92653
1174.49574	0.94259
1172.56717	0.95807
1170.63861	0.97319
1168.71004	0.98889
1166.78148	1.00561
1164.85292	1.02232
1162.92435	1.03638
1160.99579	1.04575
1159.06722	1.04936
1157.13866	1.04591
1155.21009	1.03602
1153.28153	1.02254
1151.35296	1.00695
1149.42440	0.99020
1147.49584	0.97455
1145.56727	0.96147
1143.63871	0.95146
1141.71014	0.94554
1139.78158	0.94423
1137.85301	0.94705
1135.92445	0.95347
1133.99588	0.96312
1132.06732	0.97570
1130.13876	0.99125
1128.21019	1.00964
1126.28163	1.02965
1124.35306	1.04863
1122.42450	1.06488
1120.49593	1.07905
1118.56737	1.09090
1116.63880	1.09904
1114.71024	1.10441
1112.78168	1.10887
1110.85311	1.11195
1108.92455	1.11273
1106.99598	1.11311
1105.06742	1.11548
1103.13885	1.11978
1101.21029	1.12454
1099.28172	1.12917
1097.35316	1.13391
1095.42460	1.13952
1093.49603	1.14708
1091.56747	1.15618
1089.63890	1.16563
1087.71034	1.17526
1085.78177	1.18475
1083.85321	1.19272
1081.92464	1.19743
1079.99608	1.19784
1078.06752	1.19383
1076.13895	1.18601
1074.21039	1.17566
1072.28182	1.16389
1070.35326	1.15148
1068.42469	1.13914
1066.49613	1.12750
1064.56756	1.11735
1062.63900	1.10908
1060.71044	1.10210
1058.78187	1.09524
1056.85331	1.08793
1054.92474	1.08157
1052.99618	1.07767
1051.06761	1.07563
1049.13905	1.07516
1047.21049	1.07769
1045.28192	1.08299
1043.35336	1.08876
1041.42479	1.09446
1039.49623	1.10029
1037.56766	1.10484
1035.63910	1.10801
1033.71053	1.11091
1031.78197	1.11249
1029.85341	1.11168
1027.92484	1.10945
1025.99628	1.10594
1024.06771	1.10036
1022.13915	1.09382
1020.21058	1.08811
1018.28202	1.08357
1016.35345	1.07894
1014.42489	1.07139
1012.49633	1.05932
1010.56776	1.04444
1008.63920	1.02819
1006.71063	1.01001
1004.78207	0.99000
1002.85350	0.96938
1000.92494	0.94928
998.99637	0.93085
997.06781	0.91466
995.13925	0.90022
993.21068	0.88666
991.28212	0.87299
989.35355	0.85835
987.42499	0.84290
985.49642	0.82777
983.56786	0.81455
981.63929	0.80406
979.71073	0.79613
977.78217	0.79037
975.85360	0.78585
973.92504	0.78081
971.99647	0.77418
970.06791	0.76628
968.13934	0.75818
966.21078	0.75133
964.28221	0.74735
962.35365	0.74797
960.42509	0.75442
958.49652	0.76553
956.56796	0.77694
954.63939	0.78375
952.71083	0.78394
950.78226	0.77897
948.85370	0.77136
946.92513	0.76272
944.99657	0.75434
943.06801	0.74703
941.13944	0.74071
939.21088	0.73487
937.28231	0.72896
935.35375	0.72304
933.42518	0.71731
931.49662	0.71133
929.56805	0.70537
927.63949	0.70031
925.71093	0.69612
923.78236	0.69250
921.85380	0.68923
919.92523	0.68531
917.99667	0.68034
916.06810	0.67557
914.13954	0.67207
912.21098	0.67004
910.28241	0.66955
908.35385	0.67077
906.42528	0.67375
904.49672	0.67827
902.56815	0.68357
900.63959	0.68876
898.71102	0.69325
896.78246	0.69643
894.85390	0.69790
892.92533	0.69817
890.99677	0.69781
889.06820	0.69702
887.13964	0.69618
885.21107	0.69583
883.28251	0.69628
881.35394	0.69751
879.42538	0.69905
877.49682	0.70027
875.56825	0.70100
873.63969	0.70134
871.71112	0.70133
869.78256	0.70103
867.85399	0.70056
865.92543	0.70016
863.99686	0.70001
862.06830	0.70011
860.13974	0.70080
858.21117	0.70263
856.28261	0.70543
854.35404	0.70856
852.42548	0.71136
850.49691	0.71337
848.56835	0.71474
846.63978	0.71597
844.71122	0.71762
842.78266	0.71998
840.85409	0.72240
838.92553	0.72390
836.99696	0.72484
835.06840	0.72621
833.13983	0.72761
831.21127	0.72842
829.28270	0.72912
827.35414	0.72957
825.42558	0.72927
823.49701	0.72903
821.56845	0.72931
819.63988	0.72947
817.71132	0.72992
815.78275	0.73101
813.85419	0.73188
811.92562	0.73210
809.99706	0.73236
808.06850	0.73320
806.13993	0.73419
804.21137	0.73510
802.28280	0.73639
800.35424	0.73802
798.42567	0.74009
796.49711	0.74300
794.56854	0.74705
792.63998	0.75277
790.71142	0.76019
788.78285	0.76836
786.85429	0.77678
784.92572	0.78607
782.99716	0.79629
781.06859	0.80716
779.14003	0.81845
777.21147	0.82936
775.28290	0.83957
773.35434	0.84901
771.42577	0.85702
769.49721	0.86381
767.56864	0.86970
765.64008	0.87386
763.71151	0.87646
761.78295	0.87875
759.85439	0.88081
757.92582	0.88220
755.99726	0.88311
754.06869	0.88380
752.14013	0.88415
750.21156	0.88395
748.28300	0.88273
746.35443	0.88004
744.42587	0.87669
742.49731	0.87304
740.56874	0.86790
738.64018	0.86170
736.71161	0.85651
734.78305	0.85281
732.85448	0.85057
730.92592	0.85030
728.99735	0.85113
727.06879	0.85254
725.14023	0.85483
723.21166	0.85797
721.28310	0.86270
719.35453	0.86860
717.42597	0.87423
715.49740	0.88065
713.56884	0.88952
711.64027	0.90040
709.71171	0.91187
707.78315	0.92338
705.85458	0.93426
703.92602	0.94343
701.99745	0.95140
700.06889	0.95925
698.14032	0.96596
696.21176	0.97057
694.28319	0.97477
692.35463	0.97908
690.42607	0.98136
688.49750	0.98092
686.56894	0.97901
684.64037	0.97657
682.71181	0.97342
680.78324	0.96939
678.85468	0.96492
676.92611	0.95932
674.99755	0.95205
673.06899	0.94498
671.14042	0.94053
669.21186	0.93626
667.28329	0.92578
665.35473	0.91473
663.42616	0.90594
661.49760	0.89874
659.56903	0.89424
657.64047	0.89111
655.71191	0.88751
653.78334	0.88491
651.85478	0.88471
649.92621	0.88551
647.99765	0.88762
646.06908	0.89285
644.14052	0.90006
642.21195	0.90682
640.28339	0.91214
638.35483	0.91627
636.42626	0.92073
634.49770	0.92726
632.56913	0.93499
630.64057	0.94166
628.71200	0.94670
626.78344	0.95177
624.85488	0.95752
622.92631	0.96196
620.99775	0.96507
619.06918	0.96755
617.14062	0.96719
615.21205	0.96403
613.28349	0.96124
611.35492	0.95753
609.42636	0.95048
607.49780	0.94281
605.56923	0.93486
603.64067	0.92523
601.71210	0.91601
599.78354	0.90666
