3997.91406	1.12204
3995.98550	1.12418
3994.05693	1.12664
3992.12837	1.12814
3990.19980	1.12747
3988.27124	1.12546
3986.34268	1.12286
3984.41411	1.12038
3982.48555	1.11936
3980.55698	1.12004
3978.62842	1.12023
3976.69985	1.11890
3974.77129	1.11735
3972.84272	1.11551
3970.91416	1.11257
3968.98560	1.10927
3967.05703	1.10735
3965.12847	1.10717
3963.19990	1.10762
3961.27134	1.10744
3959.34277	1.10585
3957.41421	1.10385
3955.48564	1.10130
3953.55708	1.09887
3951.62852	1.10001
3949.69995	1.10411
3947.77139	1.10442
3945.84282	1.10022
3943.91426	1.09933
3941.98569	1.10161
3940.05713	1.10033
3938.12856	1.09798
3936.20000	1.09768
3934.27144	1.09853
3932.34287	1.10086
3930.41431	1.10120
3928.48574	1.09473
3926.55718	1.08859
3924.62861	1.09131
3922.70005	1.09497
3920.77148	1.09209
3918.84292	1.09009
3916.91436	1.09383
3914.98579	1.09555
3913.05723	1.09083
3911.12866	1.08496
3909.20010	1.08037
3907.27153	1.07693
3905.34297	1.07956
3903.41440	1.08995
3901.48584	1.09864
3899.55728	1.10075
3897.62871	1.09451
3895.70015	1.08461
3893.77158	1.08307
3891.84302	1.09384
3889.91445	1.09470
3887.98589	1.08277
3886.05733	1.07806
3884.12876	1.08075
3882.20020	1.08034
3880.27163	1.08203
3878.34307	1.07972
3876.41450	1.07414
3874.48594	1.07599
3872.55737	1.08188
3870.62881	1.08648
3868.70025	1.08664
3866.77168	1.08017
3864.84312	1.07812
3862.91455	1.08163
3860.98599	1.07955
3859.05742	1.07321
3857.12886	1.06666
3855.20029	1.06921
3853.27173	1.09661
3851.34317	1.10344
3849.41460	1.08498
3847.48604	1.06858
3845.55747	1.06046
3843.62891	1.05886
3841.70034	1.05963
3839.77178	1.06490
3837.84321	1.07652
3835.91465	1.08060
3833.98609	1.07635
3832.05752	1.07239
3830.12896	1.06809
3828.20039	1.06307
3826.27183	1.06030
3824.34326	1.05781
3822.41470	1.06124
3820.48613	1.07125
3818.55757	1.06877
3816.62901	1.06769
3814.70044	1.06982
3812.77188	1.06161
3810.84331	1.05045
3808.91475	1.04624
3806.98618	1.05146
3805.05762	1.05140
3803.12905	1.04840
3801.20049	1.05764
3799.27193	1.06081
3797.34336	1.05511
3795.41480	1.05123
3793.48623	1.04769
3791.55767	1.04530
3789.62910	1.04311
3787.70054	1.04059
3785.77197	1.04323
3783.84341	1.04604
3781.91485	1.04235
3779.98628	1.04196
3778.05772	1.04548
3776.12915	1.04232
3774.20059	1.03509
3772.27202	1.03148
3770.34346	1.03794
3768.41489	1.04629
3766.48633	1.04591
3764.55777	1.04124
3762.62920	1.03555
3760.70064	1.03335
3758.77207	1.03722
3756.84351	1.03834
3754.91494	1.03364
3752.98638	1.03027
3751.05781	1.04088
3749.12925	1.04832
3747.20069	1.03836
3745.27212	1.03607
3743.34356	1.04612
3741.41499	1.04453
3739.48643	1.03489
3737.55786	1.03108
3735.62930	1.04316
3733.70074	1.05732
3731.77217	1.05546
3729.84361	1.04543
3727.91504	1.03772
3725.98648	1.03873
3724.05791	1.04359
3722.12935	1.04323
3720.20078	1.03866
3718.27222	1.03419
3716.34366	1.02977
3714.41509	1.02510
3712.48653	1.02857
3710.55796	1.04072
3708.62940	1.04026
3706.70083	1.03098
3704.77227	1.02277
3702.84370	1.02153
3700.91514	1.02606
3698.98658	1.02676
3697.05801	1.02362
3695.12945	1.01948
3693.20088	1.01526
3691.27232	1.01637
3689.34375	1.02842
3687.41519	1.03559
3685.48662	1.03203
3683.55806	1.02612
3681.62950	1.02194
3679.70093	1.01931
3677.77237	1.01984
3675.84380	1.03407
3673.91524	1.04216
3671.98667	1.03630
3670.05811	1.04304
3668.12954	1.05006
3666.20098	1.04294
3664.27242	1.03625
3662.34385	1.03453
3660.41529	1.03412
3658.48672	1.03649
3656.55816	1.04638
3654.62959	1.05004
3652.70103	1.04025
3650.77246	1.03776
3648.84390	1.06654
3646.91534	1.08416
3644.98677	1.07845
3643.05821	1.07304
3641.12964	1.07396
3639.20108	1.07686
3637.27251	1.07778
3635.34395	1.07796
3633.41538	1.07715
3631.48682	1.07600
3629.55826	1.08814
3627.62969	1.10589
3625.70113	1.10286
3623.77256	1.09422
3621.84400	1.09079
3619.91543	1.10022
3617.98687	1.11548
3616.05830	1.11606
3614.12974	1.11118
3612.20118	1.11303
3610.27261	1.12040
3608.34405	1.13165
3606.41548	1.13848
3604.48692	1.13690
3602.55835	1.13587
3600.62979	1.14129
3598.70123	1.14972
3596.77266	1.15579
3594.84410	1.15974
3592.91553	1.16104
3590.98697	1.15966
3589.05840	1.16439
3587.12984	1.17940
3585.20127	1.18502
3583.27271	1.17893
3581.34415	1.17420
3579.41558	1.17737
3577.48702	1.18586
3575.55845	1.19408
3573.62989	1.19789
3571.70132	1.19596
3569.77276	1.19463
3567.84419	1.20595
3565.91563	1.22494
3563.98707	1.23013
3562.05850	1.22758
3560.12994	1.22675
3558.20137	1.22810
3556.27281	1.23083
3554.34424	1.23750
3552.41568	1.24755
3550.48711	1.25372
3548.55855	1.25551
3546.62999	1.26084
3544.70142	1.27149
3542.77286	1.27824
3540.84429	1.27890
3538.91573	1.28069
3536.98716	1.28709
3535.05860	1.29348
3533.13003	1.29669
3531.20147	1.29976
3529.27291	1.30676
3527.34434	1.31814
3525.41578	1.32761
3523.48721	1.33145
3521.55865	1.33430
3519.63008	1.33865
3517.70152	1.34393
3515.77295	1.34965
3513.84439	1.35422
3511.91583	1.36040
3509.98726	1.37305
3508.05870	1.38707
3506.13013	1.39621
3504.20157	1.40497
3502.27300	1.41522
3500.34444	1.42327
3498.41587	1.43058
3496.48731	1.43954
3494.55875	1.44778
3492.63018	1.45100
3490.70162	1.45119
3488.77305	1.45541
3486.84449	1.46514
3484.91592	1.47538
3482.98736	1.48376
3481.05879	1.48762
3479.13023	1.48417
3477.20167	1.48078
3475.27310	1.48311
3473.34454	1.48691
3471.41597	1.49010
3469.48741	1.49452
3467.55884	1.50165
3465.63028	1.51081
3463.70171	1.51586
3461.77315	1.51651
3459.84459	1.51984
3457.91602	1.52560
3455.98746	1.53120
3454.05889	1.53630
3452.13033	1.54165
3450.20176	1.54892
3448.27320	1.55284
3446.34464	1.55103
3444.41607	1.55122
3442.48751	1.55459
3440.55894	1.55636
3438.63038	1.55559
3436.70181	1.55650
3434.77325	1.56215
3432.84468	1.57119
3430.91612	1.57844
3428.98756	1.57857
3427.05899	1.57575
3425.13043	1.57415
3423.20186	1.57124
3421.27330	1.56994
3419.34473	1.57270
3417.41617	1.57566
3415.48760	1.57785
3413.55904	1.57802
3411.63048	1.57428
3409.70191	1.56812
3407.77335	1.56193
3405.84478	1.55953
3403.91622	1.56115
3401.98765	1.56053
3400.05909	1.55975
3398.13052	1.56709
3396.20196	1.57547
3394.27340	1.57389
3392.34483	1.57040
3390.41627	1.57357
3388.48770	1.57990
3386.55914	1.58752
3384.63057	1.59390
3382.70201	1.59282
3380.77344	1.58664
3378.84488	1.58310
3376.91632	1.58313
3374.98775	1.58244
3373.05919	1.58094
3371.13062	1.58070
3369.20206	1.57949
3367.27349	1.57741
3365.34493	1.57819
3363.41636	1.58387
3361.48780	1.59411
3359.55924	1.59991
3357.63067	1.59640
3355.70211	1.59716
3353.77354	1.60671
3351.84498	1.61225
3349.91641	1.61164
3347.98785	1.61326
3346.05928	1.61765
3344.13072	1.62070
3342.20216	1.62316
3340.27359	1.62443
3338.34503	1.62074
3336.41646	1.61937
3334.48790	1.62913
3332.55933	1.64130
3330.63077	1.64329
3328.70220	1.63915
3326.77364	1.64149
3324.84508	1.65027
3322.91651	1.65749
3320.98795	1.66396
3319.05938	1.67240
3317.13082	1.68012
3315.20225	1.68494
3313.27369	1.68939
3311.34513	1.69464
3309.41656	1.69772
3307.48800	1.70438
3305.55943	1.71616
3303.63087	1.71632
3301.70230	1.70536
3299.77374	1.70373
3297.84517	1.71288
3295.91661	1.72109
3293.98805	1.72366
3292.05948	1.72359
3290.13092	1.72927
3288.20235	1.73768
3286.27379	1.73608
3284.34522	1.72999
3282.41666	1.73068
3280.48809	1.73350
3278.55953	1.73122
3276.63097	1.72671
3274.70240	1.72768
3272.77384	1.73338
3270.84527	1.73448
3268.91671	1.72814
3266.98814	1.71834
3265.05958	1.70817
3263.13101	1.69917
3261.20245	1.69274
3259.27389	1.68853
3257.34532	1.68319
3255.41676	1.67613
3253.48819	1.66834
3251.55963	1.65661
3249.63106	1.64218
3247.70250	1.63203
3245.77393	1.62613
3243.84537	1.61926
3241.91681	1.61062
3239.98824	1.60252
3238.05968	1.59488
3236.13111	1.58383
3234.20255	1.57044
3232.27398	1.56193
3230.34542	1.55827
3228.41685	1.55440
3226.48829	1.54978
3224.55973	1.54349
3222.63116	1.53451
3220.70260	1.52755
3218.77403	1.52633
3216.84547	1.52659
3214.91690	1.52294
3212.98834	1.51663
3211.05977	1.50936
3209.13121	1.49978
3207.20265	1.49112
3205.27408	1.48812
3203.34552	1.48827
3201.41695	1.48535
3199.48839	1.47778
3197.55982	1.46920
3195.63126	1.46319
3193.70269	1.45821
3191.77413	1.44987
3189.84557	1.44109
3187.91700	1.43701
3185.98844	1.43409
3184.05987	1.42948
3182.13131	1.42628
3180.20274	1.42386
3178.27418	1.41848
3176.34562	1.41083
3174.41705	1.40383
3172.48849	1.39882
3170.55992	1.39595
3168.63136	1.39345
3166.70279	1.39055
3164.77423	1.38782
3162.84566	1.38347
3160.91710	1.37697
3158.98854	1.37261
3157.05997	1.37096
3155.13141	1.36562
3153.20284	1.35771
3151.27428	1.35475
3149.34571	1.35548
3147.41715	1.35544
3145.48858	1.35386
3143.56002	1.35042
3141.63146	1.34678
3139.70289	1.34529
3137.77433	1.34526
3135.84576	1.34381
3133.91720	1.34001
3131.98863	1.33742
3130.06007	1.33854
3128.13150	1.34031
3126.20294	1.34052
3124.27438	1.34077
3122.34581	1.34145
3120.41725	1.34135
3118.48868	1.34078
3116.56012	1.34132
3114.63155	1.34281
3112.70299	1.34351
3110.77442	1.34370
3108.84586	1.34433
3106.91730	1.34477
3104.98873	1.34461
3103.06017	1.34439
3101.13160	1.34428
3099.20304	1.34350
3097.27447	1.34223
3095.34591	1.34192
3093.41734	1.34253
3091.48878	1.34138
3089.56022	1.33718
3087.63165	1.33282
3085.70309	1.32989
3083.77452	1.32719
3081.84596	1.32493
3079.91739	1.32279
3077.98883	1.31795
3076.06026	1.31030
3074.13170	1.30528
3072.20314	1.30535
3070.27457	1.30545
3068.34601	1.30280
3066.41744	1.29955
3064.48888	1.29612
3062.56031	1.29257
3060.63175	1.28966
3058.70318	1.28668
3056.77462	1.28386
3054.84606	1.28234
3052.91749	1.27962
3050.98893	1.27291
3049.06036	1.26501
3047.13180	1.26004
3045.20323	1.25735
3043.27467	1.25365
3041.34610	1.24899
3039.41754	1.24596
3037.48898	1.24352
3035.56041	1.23890
3033.63185	1.23358
3031.70328	1.23041
3029.77472	1.22879
3027.84615	1.22687
3025.91759	1.22409
3023.98903	1.22090
3022.06046	1.21861
3020.13190	1.21765
3018.20333	1.21675
3016.27477	1.21571
3014.34620	1.21505
3012.41764	1.21315
3010.48907	1.20931
3008.56051	1.20644
3006.63195	1.20596
3004.70338	1.20567
3002.77482	1.20401
3000.84625	1.20276
2998.91769	1.20329
2996.98912	1.20382
2995.06056	1.20421
2993.13199	1.20681
2991.20343	1.21092
2989.27487	1.21478
2987.34630	1.22012
2985.41774	1.22761
2983.48917	1.23436
2981.56061	1.24006
2979.63204	1.24735
2977.70348	1.25615
2975.77491	1.26376
2973.84635	1.26967
2971.91779	1.27618
2969.98922	1.28365
2968.06066	1.29080
2966.13209	1.29831
2964.20353	1.30517
2962.27496	1.30833
2960.34640	1.30786
2958.41783	1.30474
2956.48927	1.29910
2954.56071	1.29292
2952.63214	1.28713
2950.70358	1.28007
2948.77501	1.27430
2946.84645	1.27444
2944.91788	1.27931
2942.98932	1.28609
2941.06075	1.29534
2939.13219	1.30706
2937.20363	1.31908
2935.27506	1.33102
2933.34650	1.34312
2931.41793	1.35284
2929.48937	1.36041
2927.56080	1.36847
2925.63224	1.37566
2923.70367	1.38115
2921.77511	1.38564
2919.84655	1.38660
2917.91798	1.38059
2915.98942	1.36576
2914.06085	1.34366
2912.13229	1.31959
2910.20372	1.29819
2908.27516	1.28125
2906.34659	1.26804
2904.41803	1.25754
2902.48947	1.24951
2900.56090	1.24317
2898.63234	1.23821
2896.70377	1.23484
2894.77521	1.23179
2892.84664	1.22824
2890.91808	1.22542
2888.98952	1.22366
2887.06095	1.22119
2885.13239	1.21761
2883.20382	1.21543
2881.27526	1.21642
2879.34669	1.21912
2877.41813	1.22091
2875.48956	1.22023
2873.56100	1.21698
2871.63244	1.21292
2869.70387	1.20842
2867.77531	1.20094
2865.84674	1.19184
2863.91818	1.18601
2861.98961	1.18439
2860.06105	1.18561
2858.13248	1.19030
2856.20392	1.19853
2854.27536	1.20851
2852.34679	1.21769
2850.41823	1.22081
2848.48966	1.21118
2846.56110	1.18878
2844.63253	1.16213
2842.70397	1.13946
2840.77540	1.12352
2838.84684	1.11331
2836.91828	1.10596
2834.98971	1.09879
2833.06115	1.09202
2831.13258	1.08708
2829.20402	1.08329
2827.27545	1.07979
2825.34689	1.07656
2823.41832	1.07287
2821.48976	1.06877
2819.56120	1.06513
2817.63263	1.06205
2815.70407	1.05883
2813.77550	1.05542
2811.84694	1.05289
2809.91837	1.05076
2807.98981	1.04734
2806.06124	1.04258
2804.13268	1.03857
2802.20412	1.03677
2800.27555	1.03504
2798.34699	1.03148
2796.41842	1.02780
2794.48986	1.02565
2792.56129	1.02442
2790.63273	1.02299
2788.70416	1.02115
2786.77560	1.01919
2784.84704	1.01718
2782.91847	1.01506
2780.98991	1.01281
2779.06134	1.01060
2777.13278	1.00860
2775.20421	1.00687
2773.27565	1.00550
2771.34708	1.00403
2769.41852	1.00147
2767.48996	0.99810
2765.56139	0.99567
2763.63283	0.99465
2761.70426	0.99362
2759.77570	0.99203
2757.84713	0.99042
2755.91857	0.98891
2753.99001	0.98762
2752.06144	0.98671
2750.13288	0.98603
2748.20431	0.98515
2746.27575	0.98360
2744.34718	0.98228
2742.41862	0.98166
2740.49005	0.98063
2738.56149	0.97914
2736.63293	0.97847
2734.70436	0.97829
2732.77580	0.97725
2730.84723	0.97592
2728.91867	0.97496
2726.99010	0.97343
2725.06154	0.97119
2723.13297	0.96887
2721.20441	0.96689
2719.27585	0.96546
2717.34728	0.96437
2715.41872	0.96333
2713.49015	0.96202
2711.56159	0.96025
2709.63302	0.95829
2707.70446	0.95669
2705.77589	0.95542
2703.84733	0.95436
2701.91877	0.95374
2699.99020	0.95308
2698.06164	0.95204
2696.13307	0.95110
2694.20451	0.95052
2692.27594	0.95029
2690.34738	0.94970
2688.41881	0.94821
2686.49025	0.94673
2684.56169	0.94588
2682.63312	0.94487
2680.70456	0.94269
2678.77599	0.94018
2676.84743	0.93871
2674.91886	0.93733
2672.99030	0.93484
2671.06173	0.93223
2669.13317	0.93050
2667.20461	0.92874
2665.27604	0.92636
2663.34748	0.92447
2661.41891	0.92327
2659.49035	0.92192
2657.56178	0.92056
2655.63322	0.92020
2653.70465	0.92102
2651.77609	0.92153
2649.84753	0.92060
2647.91896	0.91928
2645.99040	0.91881
2644.06183	0.91846
2642.13327	0.91722
2640.20470	0.91581
2638.27614	0.91476
2636.34757	0.91379
2634.41901	0.91327
2632.49045	0.91339
2630.56188	0.91288
2628.63332	0.91078
2626.70475	0.90827
2624.77619	0.90676
2622.84762	0.90606
2620.91906	0.90592
2618.99049	0.90623
2617.06193	0.90608
2615.13337	0.90520
2613.20480	0.90457
2611.27624	0.90464
2609.34767	0.90529
2607.41911	0.90607
2605.49054	0.90630
2603.56198	0.90600
2601.63342	0.90523
2599.70485	0.90383
2597.77629	0.90245
2595.84772	0.90147
2593.91916	0.90053
2591.99059	0.89961
2590.06203	0.89902
2588.13346	0.89860
2586.20490	0.89800
2584.27634	0.89698
2582.34777	0.89610
2580.41921	0.89611
2578.49064	0.89661
2576.56208	0.89653
2574.63351	0.89546
2572.70495	0.89439
2570.77638	0.89402
2568.84782	0.89327
2566.91926	0.89138
2564.99069	0.88906
2563.06213	0.88706
2561.13356	0.88544
2559.20500	0.88397
2557.27643	0.88243
2555.34787	0.88075
2553.41930	0.87923
2551.49074	0.87809
2549.56218	0.87723
2547.63361	0.87664
2545.70505	0.87643
2543.77648	0.87649
2541.84792	0.87621
2539.91935	0.87494
2537.99079	0.87303
2536.06222	0.87134
2534.13366	0.87002
2532.20510	0.86903
2530.27653	0.86827
2528.34797	0.86694
2526.41940	0.86459
2524.49084	0.86188
2522.56227	0.85964
2520.63371	0.85828
2518.70514	0.85761
2516.77658	0.85723
2514.84802	0.85697
2512.91945	0.85702
2510.99089	0.85735
2509.06232	0.85768
2507.13376	0.85780
2505.20519	0.85741
2503.27663	0.85669
2501.34806	0.85619
2499.41950	0.85574
2497.49094	0.85487
2495.56237	0.85387
2493.63381	0.85300
2491.70524	0.85180
2489.77668	0.85040
2487.84811	0.84936
2485.91955	0.84839
2483.99098	0.84728
2482.06242	0.84634
2480.13386	0.84594
2478.20529	0.84641
2476.27673	0.84727
2474.34816	0.84780
2472.41960	0.84777
2470.49103	0.84740
2468.56247	0.84761
2466.63391	0.84866
2464.70534	0.84939
2462.77678	0.84892
2460.84821	0.84756
2458.91965	0.84609
2456.99108	0.84512
2455.06252	0.84439
2453.13395	0.84313
2451.20539	0.84140
2449.27683	0.84009
2447.34826	0.83988
2445.41970	0.84035
2443.49113	0.84038
2441.56257	0.83966
2439.63400	0.83884
2437.70544	0.83841
2435.77687	0.83799
2433.84831	0.83755
2431.91975	0.83776
2429.99118	0.83817
2428.06262	0.83773
2426.13405	0.83674
2424.20549	0.83571
2422.27692	0.83458
2420.34836	0.83373
2418.41979	0.83295
2416.49123	0.83146
2414.56267	0.82996
2412.63410	0.82944
2410.70554	0.82940
2408.77697	0.82911
2406.84841	0.82855
2404.91984	0.82802
2402.99128	0.82744
2401.06271	0.82638
2399.13415	0.82516
2397.20559	0.82432
2395.27702	0.82348
2393.34846	0.82232
2391.41989	0.82127
2389.49133	0.82084
2387.56276	0.82121
2385.63420	0.82214
2383.70563	0.82339
2381.77707	0.82540
2379.84851	0.82881
2377.91994	0.83348
2375.99138	0.83823
2374.06281	0.84246
2372.13425	0.84781
2370.20568	0.85517
2368.27712	0.86224
2366.34855	0.87013
2364.41999	0.88043
2362.49143	0.88632
2360.56286	0.88547
2358.63430	0.88362
2356.70573	0.88051
2354.77717	0.87406
2352.84860	0.86563
2350.92004	0.85644
2348.99147	0.84932
2347.06291	0.84755
2345.13435	0.85206
2343.20578	0.85833
2341.27722	0.86216
2339.34865	0.86296
2337.42009	0.86002
2335.49152	0.85547
2333.56296	0.85244
2331.63440	0.85171
2329.70583	0.85250
2327.77727	0.85276
2325.84870	0.85104
2323.92014	0.84835
2321.99157	0.84530
2320.06301	0.84216
2318.13444	0.83941
2316.20588	0.83621
2314.27732	0.83276
2312.34875	0.83031
2310.42019	0.82853
2308.49162	0.82621
2306.56306	0.82303
2304.63449	0.81969
2302.70593	0.81709
2300.77736	0.81570
2298.84880	0.81494
2296.92024	0.81360
2294.99167	0.81156
2293.06311	0.80953
2291.13454	0.80807
2289.20598	0.80751
2287.27741	0.80736
2285.34885	0.80663
2283.42028	0.80539
2281.49172	0.80465
2279.56316	0.80488
2277.63459	0.80534
2275.70603	0.80493
2273.77746	0.80374
2271.84890	0.80246
2269.92033	0.80130
2267.99177	0.80072
2266.06320	0.80093
2264.13464	0.80132
2262.20608	0.80157
2260.27751	0.80174
2258.34895	0.80196
2256.42038	0.80221
2254.49182	0.80219
2252.56325	0.80196
2250.63469	0.80177
2248.70612	0.80141
2246.77756	0.80085
2244.84900	0.80032
2242.92043	0.79960
2240.99187	0.79879
2239.06330	0.79820
2237.13474	0.79789
2235.20617	0.79784
2233.27761	0.79782
2231.34904	0.79755
2229.42048	0.79728
2227.49192	0.79740
2225.56335	0.79763
2223.63479	0.79765
2221.70622	0.79734
2219.77766	0.79664
2217.84909	0.79594
2215.92053	0.79523
2213.99196	0.79425
2212.06340	0.79348
2210.13484	0.79315
2208.20627	0.79283
2206.27771	0.79229
2204.34914	0.79161
2202.42058	0.79122
2200.49201	0.79133
2198.56345	0.79135
2196.63488	0.79093
2194.70632	0.79048
2192.77776	0.79026
2190.84919	0.78991
2188.92063	0.78935
2186.99206	0.78878
2185.06350	0.78802
2183.13493	0.78686
2181.20637	0.78570
2179.27781	0.78487
2177.34924	0.78402
2175.42068	0.78311
2173.49211	0.78262
2171.56355	0.78235
2169.63498	0.78207
2167.70642	0.78215
2165.77785	0.78264
2163.84929	0.78320
2161.92073	0.78361
2159.99216	0.78380
2158.06360	0.78382
2156.13503	0.78384
2154.20647	0.78389
2152.27790	0.78393
2150.34934	0.78384
2148.42077	0.78326
2146.49221	0.78221
2144.56365	0.78123
2142.63508	0.78075
2140.70652	0.78045
2138.77795	0.78018
2136.84939	0.78048
2134.92082	0.78111
2132.99226	0.78136
2131.06369	0.78150
2129.13513	0.78193
2127.20657	0.78235
2125.27800	0.78257
2123.34944	0.78264
2121.42087	0.78259
2119.49231	0.78245
2117.56374	0.78221
2115.63518	0.78185
2113.70661	0.78146
2111.77805	0.78116
2109.84949	0.78088
2107.92092	0.78062
2105.99236	0.78056
2104.06379	0.78075
2102.13523	0.78106
2100.20666	0.78107
2098.27810	0.78066
2096.34953	0.78037
2094.42097	0.78045
2092.49241	0.78038
2090.56384	0.77967
2088.63528	0.77862
2086.70671	0.77772
2084.77815	0.77700
2082.84958	0.77637
2080.92102	0.77554
2078.99245	0.77424
2077.06389	0.77279
2075.13533	0.77167
2073.20676	0.77093
2071.27820	0.77033
2069.34963	0.76998
2067.42107	0.77009
2065.49250	0.77015
2063.56394	0.76953
2061.63537	0.76856
2059.70681	0.76784
2057.77825	0.76713
2055.84968	0.76603
2053.92112	0.76476
2051.99255	0.76340
2050.06399	0.76166
2048.13542	0.75973
2046.20686	0.75790
2044.27830	0.75620
2042.34973	0.75479
2040.42117	0.75363
2038.49260	0.75249
2036.56404	0.75159
2034.63547	0.75123
2032.70691	0.75136
2030.77834	0.75152
2028.84978	0.75127
2026.92122	0.75071
2024.99265	0.75007
2023.06409	0.74918
2021.13552	0.74797
2019.20696	0.74699
2017.27839	0.74635
2015.34983	0.74554
2013.42126	0.74459
2011.49270	0.74382
2009.56414	0.74335
2007.63557	0.74288
2005.70701	0.74225
2003.77844	0.74189
2001.84988	0.74205
1999.92131	0.74256
1997.99275	0.74321
1996.06418	0.74372
1994.13562	0.74417
1992.20706	0.74508
1990.27849	0.74599
1988.34993	0.74611
1986.42136	0.74579
1984.49280	0.74557
1982.56423	0.74546
1980.63567	0.74538
1978.70710	0.74558
1976.77854	0.74585
1974.84998	0.74578
1972.92141	0.74581
1970.99285	0.74614
1969.06428	0.74665
1967.13572	0.74730
1965.20715	0.74753
1963.27859	0.74740
1961.35002	0.74739
1959.42146	0.74736
1957.49290	0.74724
1955.56433	0.74710
1953.63577	0.74670
1951.70720	0.74577
1949.77864	0.74448
1947.85007	0.74331
1945.92151	0.74269
1943.99294	0.74287
1942.06438	0.74282
1940.13582	0.74120
1938.20725	0.73917
1936.27869	0.73774
1934.35012	0.73633
1932.42156	0.73494
1930.49299	0.73402
1928.56443	0.73314
1926.63586	0.73176
1924.70730	0.73060
1922.77874	0.72995
1920.85017	0.72869
1918.92161	0.72724
1916.99304	0.72579
1915.06448	0.72332
1913.13591	0.72084
1911.20735	0.71951
1909.27878	0.71891
1907.35022	0.71814
1905.42166	0.71703
1903.49309	0.71594
1901.56453	0.71497
1899.63596	0.71396
1897.70740	0.71295
1895.77883	0.71223
1893.85027	0.71101
1891.92171	0.70906
1889.99314	0.70785
1888.06458	0.70688
1886.13601	0.70509
1884.20745	0.70331
1882.27888	0.70180
1880.35032	0.70047
1878.42175	0.69958
1876.49319	0.69916
1874.56463	0.69873
1872.63606	0.69802
1870.70750	0.69855
1868.77893	0.70139
1866.85037	0.70215
1864.92180	0.69949
1862.99324	0.69733
1861.06467	0.69696
1859.13611	0.69701
1857.20755	0.69654
1855.27898	0.69593
1853.35042	0.69553
1851.42185	0.69541
1849.49329	0.69585
1847.56472	0.69692
1845.63616	0.69927
1843.70759	0.70212
1841.77903	0.70169
1839.85047	0.69970
1837.92190	0.69936
1835.99334	0.70004
1834.06477	0.69982
1832.13621	0.69992
1830.20764	0.70217
1828.27908	0.70364
1826.35051	0.70307
1824.42195	0.70299
1822.49339	0.70260
1820.56482	0.70155
1818.63626	0.70128
1816.70769	0.70169
1814.77913	0.70193
1812.85056	0.70243
1810.92200	0.70391
1808.99343	0.70508
1807.06487	0.70476
1805.13631	0.70380
1803.20774	0.70362
1801.27918	0.70478
1799.35061	0.70564
1797.42205	0.70475
1795.49348	0.70298
1793.56492	0.70248
1791.63635	0.70394
1789.70779	0.70295
1787.77923	0.70004
1785.85066	0.69846
1783.92210	0.69826
1781.99353	0.69844
1780.06497	0.69868
1778.13640	0.69797
1776.20784	0.69670
1774.27927	0.69725
1772.35071	0.70092
1770.42215	0.70281
1768.49358	0.70123
1766.56502	0.69890
1764.63645	0.69715
1762.70789	0.69789
1760.77932	0.70026
1758.85076	0.70162
1756.92220	0.70416
1754.99363	0.70699
1753.06507	0.70935
1751.13650	0.71609
1749.20794	0.72717
1747.27937	0.73425
1745.35081	0.73753
1743.42224	0.74043
1741.49368	0.74407
1739.56512	0.74793
1737.63655	0.74923
1735.70799	0.75010
1733.77942	0.75604
1731.85086	0.75946
1729.92229	0.75786
1727.99373	0.75647
1726.06516	0.75668
1724.13660	0.75947
1722.20804	0.76276
1720.27947	0.76593
1718.35091	0.77561
1716.42234	0.79315
1714.49378	0.80243
1712.56521	0.80722
1710.63665	0.81462
1708.70808	0.82576
1706.77952	0.84519
1704.85096	0.87212
1702.92239	0.89450
1700.99383	0.92500
1699.06526	0.97579
1697.13670	1.02285
1695.20813	1.06690
1693.27957	1.09823
1691.35100	1.12297
1689.42244	1.15540
1687.49388	1.18705
1685.56531	1.22229
1683.63675	1.28316
1681.70818	1.32666
1679.77962	1.34887
1677.85105	1.37075
1675.92249	1.40070
1673.99392	1.43408
1672.06536	1.45704
1670.13680	1.48096
1668.20823	1.50799
1666.27967	1.52235
1664.35110	1.53461
1662.42254	1.55107
1660.49397	1.56197
1658.56541	1.56652
1656.63684	1.56968
1654.70828	1.57662
1652.77972	1.58820
1650.85115	1.58949
1648.92259	1.58841
1646.99402	1.58861
1645.06546	1.58459
1643.13689	1.57823
1641.20833	1.57284
1639.27976	1.56731
1637.35120	1.56316
1635.42264	1.56159
1633.49407	1.55682
1631.56551	1.54973
1629.63694	1.54058
1627.70838	1.52855
1625.77981	1.51470
1623.85125	1.49727
1621.92269	1.47443
1619.99412	1.45224
1618.06556	1.42699
1616.13699	1.39138
1614.20843	1.35793
1612.27986	1.32861
1610.35130	1.29848
1608.42273	1.26818
1606.49417	1.24165
1604.56561	1.22128
1602.63704	1.20587
1600.70848	1.19400
1598.77991	1.18514
1596.85135	1.17923
1594.92278	1.17563
1592.99422	1.17421
1591.06565	1.17535
1589.13709	1.17894
1587.20853	1.18592
1585.27996	1.19656
1583.35140	1.20929
1581.42283	1.22235
1579.49427	1.23526
1577.56570	1.25336
1575.63714	1.27932
1573.70857	1.29428
1571.78001	1.30287
1569.85145	1.31997
1567.92288	1.33922
1565.99432	1.35181
1564.06575	1.36404
1562.13719	1.37468
1560.20862	1.38823
1558.28006	1.41506
1556.35149	1.42591
1554.42293	1.42880
1552.49437	1.43241
1550.56580	1.43810
1548.63724	1.44388
1546.70867	1.44626
1544.78011	1.44652
1542.85154	1.44654
1540.92298	1.44532
1538.99441	1.43610
1537.06585	1.42654
1535.13729	1.41839
1533.20872	1.40761
1531.28016	1.39598
1529.35159	1.38865
1527.42303	1.38582
1525.49446	1.38531
1523.56590	1.38434
1521.63733	1.38236
1519.70877	1.38178
1517.78021	1.38038
1515.85164	1.37351
1513.92308	1.36204
1511.99451	1.34853
1510.06595	1.33425
1508.13738	1.31248
1506.20882	1.27113
1504.28025	1.24138
1502.35169	1.22009
1500.42313	1.19822
1498.49456	1.17405
1496.56600	1.14759
1494.63743	1.12566
1492.70887	1.11049
1490.78030	1.09654
1488.85174	1.07863
1486.92317	1.06046
1484.99461	1.04666
1483.06605	1.03737
1481.13748	1.03154
1479.20892	1.02860
1477.28035	1.02969
1475.35179	1.03646
1473.42322	1.05063
1471.49466	1.06490
1469.56610	1.06987
1467.63753	1.07213
1465.70897	1.07858
1463.78040	1.08762
1461.85184	1.09228
1459.92327	1.09556
1457.99471	1.10627
1456.06614	1.11999
1454.13758	1.12203
1452.20902	1.12139
1450.28045	1.12219
1448.35189	1.12363
1446.42332	1.12320
1444.49476	1.12003
1442.56619	1.11536
1440.63763	1.11051
1438.70906	1.10602
1436.78050	1.10047
1434.85194	1.09161
1432.92337	1.08139
1430.99481	1.07121
1429.06624	1.06143
1427.13768	1.05367
1425.20911	1.04910
1423.28055	1.04701
1421.35198	1.04640
1419.42342	1.04924
1417.49486	1.05257
1415.56629	1.05049
1413.63773	1.04657
1411.70916	1.04377
1409.78060	1.04215
1407.85203	1.04145
1405.92347	1.04323
1403.99490	1.04689
1402.06634	1.04896
1400.13778	1.05082
1398.20921	1.05421
1396.28065	1.05761
1394.35208	1.06072
1392.42352	1.06297
1390.49495	1.06572
1388.56639	1.07361
1386.63782	1.08791
1384.70926	1.10171
1382.78070	1.11262
1380.85213	1.12155
1378.92357	1.12649
1376.99500	1.12600
1375.06644	1.11983
1373.13787	1.10810
1371.20931	1.09335
1369.28074	1.07630
1367.35218	1.05743
1365.42362	1.03964
1363.49505	1.02341
1361.56649	1.00861
1359.63792	0.99648
1357.70936	0.98703
1355.78079	0.97997
1353.85223	0.97502
1351.92366	0.97137
1349.99510	0.96841
1348.06654	0.96622
1346.13797	0.96501
1344.20941	0.96493
1342.28084	0.96682
1340.35228	0.97183
1338.42371	0.97836
1336.49515	0.98419
1334.56659	0.99097
1332.63802	0.99993
1330.70946	1.01009
1328.78089	1.01924
1326.85233	1.02553
1324.92376	1.02895
1322.99520	1.03101
1321.06663	1.03296
1319.13807	1.03475
1317.20951	1.03569
1315.28094	1.03601
1313.35238	1.03654
1311.42381	1.03668
1309.49525	1.03582
1307.56668	1.03487
1305.63812	1.03457
1303.70955	1.03484
1301.78099	1.03501
1299.85243	1.03438
1297.92386	1.03293
1295.99530	1.03103
1294.06673	1.02936
1292.13817	1.02871
1290.20960	1.02924
1288.28104	1.03073
1286.35247	1.03236
1284.42391	1.03277
1282.49535	1.03252
1280.56678	1.03310
1278.63822	1.03461
1276.70965	1.03701
1274.78109	1.04103
1272.85252	1.04726
1270.92396	1.05545
1268.99539	1.06467
1267.06683	1.07367
1265.13827	1.08080
1263.20970	1.08513
1261.28114	1.08739
1259.35257	1.08855
1257.42401	1.08874
1255.49544	1.08754
1253.56688	1.08521
1251.63831	1.08308
1249.70975	1.08157
1247.78119	1.07982
1245.85262	1.07764
1243.92406	1.07561
1241.99549	1.07420
1240.06693	1.07332
1238.13836	1.07222
1236.20980	1.07038
1234.28123	1.06795
1232.35267	1.06504
1230.42411	1.06122
1228.49554	1.05603
1226.56698	1.04985
1224.63841	1.04308
1222.70985	1.03543
1220.78128	1.02710
1218.85272	1.01897
1216.92415	1.01196
1214.99559	1.00644
1213.06703	1.00218
1211.13846	0.99992
1209.20990	1.00025
1207.28133	1.00114
1205.35277	0.99950
1203.42420	0.99410
1201.49564	0.98621
1199.56708	0.97801
1197.63851	0.97047
1195.70995	0.96332
1193.78138	0.95703
1191.85282	0.95254
1189.92425	0.94967
1187.99569	0.94778
1186.06712	0.94673
1184.13856	0.94693
1182.21000	0.94893
1180.28143	0.95274
1178.35287	0.95848
1176.42430	0.96628
1174.49574	0.97558
1172.56717	0.98612
1170.63861	0.99835
1168.71004	1.01265
1166.78148	1.02856
1164.85292	1.04482
1162.92435	1.05973
1160.99579	1.07058
1159.06722	1.07517
1157.13866	1.07326
1155.21009	1.06553
1153.28153	1.05295
1151.35296	1.03733
1149.42440	1.02164
1147.49584	1.00775
1145.56727	0.99568
1143.63871	0.98633
1141.71014	0.98098
1139.78158	0.97945
1137.85301	0.98092
1135.92445	0.98482
1133.99588	0.99125
1132.06732	1.00052
1130.13876	1.01239
1128.21019	1.02631
1126.28163	1.04112
1124.35306	1.05465
1122.42450	1.06580
1120.49593	1.07503
1118.56737	1.08240
1116.63880	1.08731
1114.71024	1.08770
1112.78168	1.08253
1110.85311	1.07455
1108.92455	1.06730
1106.99598	1.06281
1105.06742	1.06027
1103.13885	1.05779
1101.21029	1.05636
1099.28172	1.05753
1097.35316	1.06100
1095.42460	1.06654
1093.49603	1.07467
1091.56747	1.08557
1089.63890	1.09844
1087.71034	1.11293
1085.78177	1.12963
1083.85321	1.14707
1081.92464	1.16148
1079.99608	1.17035
1078.06752	1.17435
1076.13895	1.17577
1074.21039	1.17442
1072.28182	1.16883
1070.35326	1.15998
1068.42469	1.14887
1066.49613	1.13581
1064.56756	1.12322
1062.63900	1.11248
1060.71044	1.10219
1058.78187	1.09155
1056.85331	1.08117
1054.92474	1.07229
1052.99618	1.06608
1051.06761	1.06233
1049.13905	1.06059
1047.21049	1.06142
1045.28192	1.06588
1043.35336	1.07351
1041.42479	1.08207
1039.49623	1.08943
1037.56766	1.09456
1035.63910	1.09786
1033.71053	1.09970
1031.78197	1.09956
1029.85341	1.09768
1027.92484	1.09428
1025.99628	1.08882
1024.06771	1.08133
1022.13915	1.07265
1020.21058	1.06449
1018.28202	1.05798
1016.35345	1.05204
1014.42489	1.04471
1012.49633	1.03438
1010.56776	1.02051
1008.63920	1.00450
1006.71063	0.98852
1004.78207	0.97351
1002.85350	0.95967
1000.92494	0.94764
998.99637	0.93808
997.06781	0.93058
995.13925	0.92390
993.21068	0.91735
991.28212	0.91109
989.35355	0.90517
987.42499	0.89936
985.49642	0.89376
983.56786	0.88900
981.63929	0.88601
979.71073	0.88465
977.78217	0.88323
975.85360	0.88100
973.92504	0.87858
971.99647	0.87560
970.06791	0.87129
968.13934	0.86633
966.21078	0.86231
964.28221	0.86021
962.35365	0.86082
960.42509	0.86547
958.49652	0.87390
956.56796	0.88250
954.63939	0.88713
952.71083	0.88629
950.78226	0.88069
948.85370	0.87238
946.92513	0.86412
944.99657	0.85792
943.06801	0.85399
941.13944	0.85129
939.21088	0.84926
937.28231	0.84810
935.35375	0.84738
933.42518	0.84667
931.49662	0.84627
929.56805	0.84611
927.63949	0.84586
925.71093	0.84563
923.78236	0.84542
921.85380	0.84473
919.92523	0.84258
917.99667	0.83886
916.06810	0.83512
914.13954	0.83279
912.21098	0.83177
910.28241	0.83175
908.35385	0.83344
906.42528	0.83710
904.49672	0.84204
902.56815	0.84743
900.63959	0.85253
898.71102	0.85627
896.78246	0.85780
894.85390	0.85732
892.92533	0.85538
890.99677	0.85183
889.06820	0.84655
887.13964	0.84033
885.21107	0.83407
883.28251	0.82821
881.35394	0.82327
879.42538	0.81931
877.49682	0.81660
875.56825	0.81618
873.63969	0.81818
871.71112	0.82164
869.78256	0.82580
867.85399	0.83048
865.92543	0.83569
863.99686	0.84123
862.06830	0.84628
860.13974	0.84997
858.21117	0.85240
856.28261	0.85371
854.35404	0.85354
852.42548	0.85193
850.49691	0.84894
848.56835	0.84539
846.63978	0.84307
844.71122	0.84238
842.78266	0.84291
840.85409	0.84531
838.92553	0.84988
836.99696	0.85616
835.06840	0.86426
833.13983	0.87389
831.21127	0.88381
829.28270	0.89296
827.35414	0.90088
825.42558	0.90697
823.49701	0.90995
821.56845	0.90890
819.63988	0.90519
817.71132	0.90095
815.78275	0.89657
813.85419	0.89214
811.92562	0.88814
809.99706	0.88447
808.06850	0.88144
806.13993	0.88003
804.21137	0.88090
802.28280	0.88271
800.35424	0.88364
798.42567	0.88420
796.49711	0.88546
794.56854	0.88666
792.63998	0.88621
790.71142	0.88416
788.78285	0.88159
786.85429	0.87819
784.92572	0.87318
782.99716	0.86702
781.06859	0.86078
779.14003	0.85543
777.21147	0.85137
775.28290	0.84866
773.35434	0.84758
771.42577	0.84850
769.49721	0.85079
767.56864	0.85321
765.64008	0.85531
763.71151	0.85725
761.78295	0.85861
759.85439	0.85866
757.92582	0.85750
755.99726	0.85549
754.06869	0.85243
752.14013	0.84871
750.21156	0.84528
748.28300	0.84197
746.35443	0.83869
744.42587	0.83639
742.49731	0.83584
740.56874	0.83710
738.64018	0.83906
736.71161	0.84119
734.78305	0.84483
732.85448	0.84996
730.92592	0.85484
728.99735	0.85903
727.06879	0.86321
725.14023	0.86689
723.21166	0.86983
721.28310	0.87226
719.35453	0.87258
717.42597	0.87043
715.49740	0.86843
713.56884	0.86818
711.64027	0.86938
709.71171	0.87163
707.78315	0.87514
705.85458	0.88004
703.92602	0.88616
701.99745	0.89314
700.06889	0.90019
698.14032	0.90651
696.21176	0.91228
694.28319	0.91805
692.35463	0.92281
690.42607	0.92529
688.49750	0.92627
686.56894	0.92649
684.64037	0.92538
682.71181	0.92269
680.78324	0.91884
678.85468	0.91518
676.92611	0.91278
674.99755	0.91091
673.06899	0.90945
671.14042	0.91049
669.21186	0.91494
667.28329	0.91618
665.35473	0.91345
663.42616	0.91232
661.49760	0.91187
659.56903	0.91082
657.64047	0.90847
655.71191	0.90419
653.78334	0.89999
651.85478	0.89741
649.92621	0.89403
647.99765	0.88779
646.06908	0.88124
644.14052	0.87890
642.21195	0.88061
640.28339	0.88052
638.35483	0.87673
636.42626	0.87414
634.49770	0.87522
632.56913	0.87615
630.64057	0.87363
628.71200	0.86977
626.78344	0.86718
624.85488	0.86493
622.92631	0.86157
620.99775	0.85802
619.06918	0.85541
617.14062	0.85301
615.21205	0.85058
613.28349	0.84880
611.35492	0.84791
609.42636	0.84804
607.49780	0.84966
605.56923	0.85315
603.64067	0.85759
601.71210	0.86083
599.78354	0.86176
