3997.91406	0.95855
3995.98550	0.95914
3994.05693	0.96037
3992.12837	0.96171
3990.19980	0.96125
3988.27124	0.95949
3986.34268	0.95807
3984.41411	0.95716
3982.48555	0.95603
3980.55698	0.95454
3978.62842	0.95278
3976.69985	0.95218
3974.77129	0.95441
3972.84272	0.95733
3970.91416	0.95753
3968.98560	0.95438
3967.05703	0.95087
3965.12847	0.95024
3963.19990	0.95165
3961.27134	0.95147
3959.34277	0.94870
3957.41421	0.94698
3955.48564	0.94789
3953.55708	0.94852
3951.62852	0.94793
3949.69995	0.94839
3947.77139	0.94863
3945.84282	0.94614
3943.91426	0.94555
3941.98569	0.94903
3940.05713	0.95055
3938.12856	0.94895
3936.20000	0.94763
3934.27144	0.94918
3932.34287	0.95263
3930.41431	0.95149
3928.48574	0.94528
3926.55718	0.94145
3924.62861	0.94342
3922.70005	0.94478
3920.77148	0.94163
3918.84292	0.93916
3916.91436	0.94048
3914.98579	0.94109
3913.05723	0.93931
3911.12866	0.93812
3909.20010	0.93668
3907.27153	0.93398
3905.34297	0.93440
3903.41440	0.93967
3901.48584	0.94474
3899.55728	0.94681
3897.62871	0.94255
3895.70015	0.93436
3893.77158	0.93143
3891.84302	0.93856
3889.91445	0.94092
3887.98589	0.93410
3886.05733	0.93164
3884.12876	0.93268
3882.20020	0.93179
3880.27163	0.93711
3878.34307	0.93931
3876.41450	0.93400
3874.48594	0.93067
3872.55737	0.93102
3870.62881	0.93585
3868.70025	0.93834
3866.77168	0.93254
3864.84312	0.93350
3862.91455	0.94193
3860.98599	0.93979
3859.05742	0.92891
3857.12886	0.91716
3855.20029	0.91487
3853.27173	0.93687
3851.34317	0.94778
3849.41460	0.93907
3847.48604	0.92878
3845.55747	0.92166
3843.62891	0.91941
3841.70034	0.92090
3839.77178	0.92610
3837.84321	0.93346
3835.91465	0.93451
3833.98609	0.93192
3832.05752	0.92933
3830.12896	0.92528
3828.20039	0.92262
3826.27183	0.92258
3824.34326	0.91979
3822.41470	0.92085
3820.48613	0.93105
3818.55757	0.93063
3816.62901	0.92792
3814.70044	0.92836
3812.77188	0.92116
3810.84331	0.91141
3808.91475	0.90972
3806.98618	0.91836
3805.05762	0.91946
3803.12905	0.91478
3801.20049	0.92063
3799.27193	0.92410
3797.34336	0.92248
3795.41480	0.92245
3793.48623	0.91940
3791.55767	0.91500
3789.62910	0.91238
3787.70054	0.91047
3785.77197	0.91060
3783.84341	0.91141
3781.91485	0.90960
3779.98628	0.91145
3778.05772	0.91620
3776.12915	0.91413
3774.20059	0.90829
3772.27202	0.90536
3770.34346	0.90867
3768.41489	0.91272
3766.48633	0.91359
3764.55777	0.91276
3762.62920	0.90830
3760.70064	0.90539
3758.77207	0.90822
3756.84351	0.90726
3754.91494	0.90098
3752.98638	0.90003
3751.05781	0.91529
3749.12925	0.92553
3747.20069	0.92094
3745.27212	0.92146
3743.34356	0.92400
3741.41499	0.91522
3739.48643	0.90378
3737.55786	0.89978
3735.62930	0.90829
3733.70074	0.91877
3731.77217	0.91824
3729.84361	0.91061
3727.91504	0.90443
3725.98648	0.90487
3724.05791	0.90790
3722.12935	0.90808
3720.20078	0.90611
3718.27222	0.90251
3716.34366	0.89675
3714.41509	0.89142
3712.48653	0.89734
3710.55796	0.91410
3708.62940	0.91593
3706.70083	0.90704
3704.77227	0.89917
3702.84370	0.89901
3700.91514	0.90368
3698.98658	0.90271
3697.05801	0.89811
3695.12945	0.89295
3693.20088	0.88849
3691.27232	0.89368
3689.34375	0.91472
3687.41519	0.92428
3685.48662	0.91642
3683.55806	0.90568
3681.62950	0.89775
3679.70093	0.89357
3677.77237	0.89499
3675.84380	0.91001
3673.91524	0.91850
3671.98667	0.91170
3670.05811	0.91382
3668.12954	0.91992
3666.20098	0.91665
3664.27242	0.91257
3662.34385	0.91188
3660.41529	0.91296
3658.48672	0.91662
3656.55816	0.92451
3654.62959	0.92514
3652.70103	0.91612
3650.77246	0.91577
3648.84390	0.94033
3646.91534	0.95325
3644.98677	0.94813
3643.05821	0.94267
3641.12964	0.94073
3639.20108	0.94092
3637.27251	0.94215
3635.34395	0.94420
3633.41538	0.94518
3631.48682	0.94540
3629.55826	0.95805
3627.62969	0.97633
3625.70113	0.97445
3623.77256	0.96680
3621.84400	0.96365
3619.91543	0.97007
3617.98687	0.97992
3616.05830	0.98176
3614.12974	0.98387
3612.20118	0.98840
3610.27261	0.99183
3608.34405	0.99941
3606.41548	1.00509
3604.48692	1.00246
3602.55835	1.00157
3600.62979	1.00745
3598.70123	1.01218
3596.77266	1.01451
3594.84410	1.01928
3592.91553	1.02159
3590.98697	1.01923
3589.05840	1.02214
3587.12984	1.03398
3585.20127	1.03825
3583.27271	1.03590
3581.34415	1.03617
3579.41558	1.03997
3577.48702	1.04493
3575.55845	1.04897
3573.62989	1.05158
3571.70132	1.05194
3569.77276	1.05113
3567.84419	1.05869
3565.91563	1.07533
3563.98707	1.08265
3562.05850	1.08391
3560.12994	1.08586
3558.20137	1.08749
3556.27281	1.08858
3554.34424	1.09114
3552.41568	1.09596
3550.48711	1.09952
3548.55855	1.10166
3546.62999	1.10779
3544.70142	1.11737
3542.77286	1.12437
3540.84429	1.12707
3538.91573	1.12852
3536.98716	1.13368
3535.05860	1.14094
3533.13003	1.14519
3531.20147	1.14829
3529.27291	1.15371
3527.34434	1.15937
3525.41578	1.16326
3523.48721	1.16976
3521.55865	1.17934
3519.63008	1.18637
3517.70152	1.18989
3515.77295	1.19188
3513.84439	1.19401
3511.91583	1.19992
3509.98726	1.21189
3508.05870	1.22357
3506.13013	1.22984
3504.20157	1.23696
3502.27300	1.24774
3500.34444	1.25585
3498.41587	1.26096
3496.48731	1.26799
3494.55875	1.27766
3492.63018	1.28711
3490.70162	1.29518
3488.77305	1.30018
3486.84449	1.30182
3484.91592	1.30425
3482.98736	1.31024
3481.05879	1.31787
3479.13023	1.32226
3477.20167	1.32302
3475.27310	1.32430
3473.34454	1.32672
3471.41597	1.32858
3469.48741	1.33271
3467.55884	1.34116
3465.63028	1.35009
3463.70171	1.35641
3461.77315	1.35798
3459.84459	1.35575
3457.91602	1.35736
3455.98746	1.36407
3454.05889	1.36928
3452.13033	1.37103
3450.20176	1.37226
3448.27320	1.37625
3446.34464	1.38269
3444.41607	1.38912
3442.48751	1.39679
3440.55894	1.40380
3438.63038	1.40591
3436.70181	1.40382
3434.77325	1.40090
3432.84468	1.40016
3430.91612	1.40010
3428.98756	1.39889
3427.05899	1.39913
3425.13043	1.40217
3423.20186	1.40566
3421.27330	1.40625
3419.34473	1.40366
3417.41617	1.40109
3415.48760	1.40093
3413.55904	1.40202
3411.63048	1.40298
3409.70191	1.40619
3407.77335	1.41090
3405.84478	1.41230
3403.91622	1.41070
3401.98765	1.40901
3400.05909	1.40576
3398.13052	1.40049
3396.20196	1.39889
3394.27340	1.40617
3392.34483	1.41708
3390.41627	1.42026
3388.48770	1.41709
3386.55914	1.41640
3384.63057	1.41922
3382.70201	1.42241
3380.77344	1.42326
3378.84488	1.42249
3376.91632	1.42148
3374.98775	1.41871
3373.05919	1.41761
3371.13062	1.42306
3369.20206	1.43226
3367.27349	1.44138
3365.34493	1.44881
3363.41636	1.45059
3361.48780	1.44795
3359.55924	1.44609
3357.63067	1.44510
3355.70211	1.44668
3353.77354	1.45254
3351.84498	1.45849
3349.91641	1.46247
3347.98785	1.46605
3346.05928	1.46895
3344.13072	1.47046
3342.20216	1.47321
3340.27359	1.48020
3338.34503	1.48980
3336.41646	1.49715
3334.48790	1.49992
3332.55933	1.50154
3330.63077	1.50761
3328.70220	1.51809
3326.77364	1.52544
3324.84508	1.52728
3322.91651	1.53096
3320.98795	1.53937
3319.05938	1.54620
3317.13082	1.54779
3315.20225	1.55258
3313.27369	1.56610
3311.34513	1.57864
3309.41656	1.58356
3307.48800	1.58707
3305.55943	1.59462
3303.63087	1.60455
3301.70230	1.61229
3299.77374	1.61768
3297.84517	1.62174
3295.91661	1.62332
3293.98805	1.62492
3292.05948	1.62736
3290.13092	1.62588
3288.20235	1.62064
3286.27379	1.62076
3284.34522	1.63096
3282.41666	1.64238
3280.48809	1.64702
3278.55953	1.64611
3276.63097	1.64100
3274.70240	1.63324
3272.77384	1.62472
3270.84527	1.61757
3268.91671	1.61449
3266.98814	1.61339
3265.05958	1.60918
3263.13101	1.59952
3261.20245	1.58701
3259.27389	1.57690
3257.34532	1.57017
3255.41676	1.56401
3253.48819	1.55587
3251.55963	1.54386
3249.63106	1.53032
3247.70250	1.51930
3245.77393	1.51004
3243.84537	1.50079
3241.91681	1.49335
3239.98824	1.48690
3238.05968	1.47587
3236.13111	1.46353
3234.20255	1.45838
3232.27398	1.45728
3230.34542	1.45360
3228.41685	1.44701
3226.48829	1.43803
3224.55973	1.42739
3222.63116	1.41842
3220.70260	1.41394
3218.77403	1.41172
3216.84547	1.40838
3214.91690	1.40363
3212.98834	1.39708
3211.05977	1.38899
3209.13121	1.38170
3207.20265	1.37543
3205.27408	1.36922
3203.34552	1.36425
3201.41695	1.36089
3199.48839	1.35675
3197.55982	1.35064
3195.63126	1.34677
3193.70269	1.34592
3191.77413	1.34149
3189.84557	1.33278
3187.91700	1.32388
3185.98844	1.31604
3184.05987	1.31128
3182.13131	1.30908
3180.20274	1.30506
3178.27418	1.29947
3176.34562	1.29597
3174.41705	1.29315
3172.48849	1.28803
3170.55992	1.28257
3168.63136	1.27898
3166.70279	1.27598
3164.77423	1.27251
3162.84566	1.26808
3160.91710	1.26254
3158.98854	1.25782
3157.05997	1.25460
3155.13141	1.25078
3153.20284	1.24403
3151.27428	1.23604
3149.34571	1.23215
3147.41715	1.23249
3145.48858	1.23282
3143.56002	1.23127
3141.63146	1.22846
3139.70289	1.22706
3137.77433	1.22745
3135.84576	1.22658
3133.91720	1.22461
3131.98863	1.22352
3130.06007	1.22191
3128.13150	1.21960
3126.20294	1.21907
3124.27438	1.21959
3122.34581	1.21862
3120.41725	1.21654
3118.48868	1.21573
3116.56012	1.21777
3114.63155	1.22103
3112.70299	1.22173
3110.77442	1.21946
3108.84586	1.21760
3106.91730	1.21664
3104.98873	1.21444
3103.06017	1.21192
3101.13160	1.21170
3099.20304	1.21376
3097.27447	1.21551
3095.34591	1.21537
3093.41734	1.21368
3091.48878	1.21118
3089.56022	1.20849
3087.63165	1.20640
3085.70309	1.20524
3083.77452	1.20396
3081.84596	1.20159
3079.91739	1.19903
3077.98883	1.19793
3076.06026	1.19698
3074.13170	1.19373
3072.20314	1.18923
3070.27457	1.18476
3068.34601	1.18021
3066.41744	1.17679
3064.48888	1.17507
3062.56031	1.17264
3060.63175	1.16758
3058.70318	1.16210
3056.77462	1.15922
3054.84606	1.15826
3052.91749	1.15660
3050.98893	1.15344
3049.06036	1.14875
3047.13180	1.14269
3045.20323	1.13695
3043.27467	1.13223
3041.34610	1.12811
3039.41754	1.12548
3037.48898	1.12327
3035.56041	1.11939
3033.63185	1.11629
3031.70328	1.11569
3029.77472	1.11406
3027.84615	1.11039
3025.91759	1.10715
3023.98903	1.10446
3022.06046	1.10103
3020.13190	1.09716
3018.20333	1.09464
3016.27477	1.09390
3014.34620	1.09293
3012.41764	1.09083
3010.48907	1.08890
3008.56051	1.08770
3006.63195	1.08616
3004.70338	1.08352
3002.77482	1.08046
3000.84625	1.07824
2998.91769	1.07702
2996.98912	1.07677
2995.06056	1.07824
2993.13199	1.08104
2991.20343	1.08415
2989.27487	1.08799
2987.34630	1.09265
2985.41774	1.09731
2983.48917	1.10199
2981.56061	1.10697
2979.63204	1.11236
2977.70348	1.11887
2975.77491	1.12637
2973.84635	1.13392
2971.91779	1.14092
2969.98922	1.14747
2968.06066	1.15478
2966.13209	1.16297
2964.20353	1.16995
2962.27496	1.17470
2960.34640	1.17788
2958.41783	1.17820
2956.48927	1.17342
2954.56071	1.16446
2952.63214	1.15440
2950.70358	1.14626
2948.77501	1.14212
2946.84645	1.14200
2944.91788	1.14483
2942.98932	1.15037
2941.06075	1.15870
2939.13219	1.16848
2937.20363	1.17794
2935.27506	1.18717
2933.34650	1.19749
2931.41793	1.20930
2929.48937	1.22070
2927.56080	1.22849
2925.63224	1.23213
2923.70367	1.23381
2921.77511	1.23491
2919.84655	1.23449
2917.91798	1.22943
2915.98942	1.21776
2914.06085	1.20081
2912.13229	1.18157
2910.20372	1.16298
2908.27516	1.14707
2906.34659	1.13505
2904.41803	1.12644
2902.48947	1.11916
2900.56090	1.11293
2898.63234	1.10889
2896.70377	1.10581
2894.77521	1.10145
2892.84664	1.09629
2890.91808	1.09157
2888.98952	1.08686
2887.06095	1.08241
2885.13239	1.07978
2883.20382	1.07888
2881.27526	1.07822
2879.34669	1.07790
2877.41813	1.07855
2875.48956	1.07883
2873.56100	1.07760
2871.63244	1.07449
2869.70387	1.06808
2867.77531	1.05951
2865.84674	1.05313
2863.91818	1.05021
2861.98961	1.04891
2860.06105	1.04936
2858.13248	1.05321
2856.20392	1.05987
2854.27536	1.06691
2852.34679	1.07182
2850.41823	1.07129
2848.48966	1.06163
2846.56110	1.04290
2844.63253	1.02101
2842.70397	1.00271
2840.77540	0.98940
2838.84684	0.97934
2836.91828	0.97219
2834.98971	0.96742
2833.06115	0.96353
2831.13258	0.95963
2829.20402	0.95563
2827.27545	0.95162
2825.34689	0.94735
2823.41832	0.94289
2821.48976	0.93888
2819.56120	0.93561
2817.63263	0.93300
2815.70407	0.93090
2813.77550	0.92892
2811.84694	0.92678
2809.91837	0.92447
2807.98981	0.92143
2806.06124	0.91760
2804.13268	0.91437
2802.20412	0.91231
2800.27555	0.91049
2798.34699	0.90815
2796.41842	0.90506
2794.48986	0.90164
2792.56129	0.89896
2790.63273	0.89644
2788.70416	0.89268
2786.77560	0.88922
2784.84704	0.88765
2782.91847	0.88679
2780.98991	0.88569
2779.06134	0.88431
2777.13278	0.88251
2775.20421	0.88021
2773.27565	0.87780
2771.34708	0.87578
2769.41852	0.87327
2767.48996	0.87007
2765.56139	0.86760
2763.63283	0.86611
2761.70426	0.86498
2759.77570	0.86400
2757.84713	0.86256
2755.91857	0.86054
2753.99001	0.85867
2752.06144	0.85717
2750.13288	0.85574
2748.20431	0.85422
2746.27575	0.85293
2744.34718	0.85223
2742.41862	0.85169
2740.49005	0.85063
2738.56149	0.84924
2736.63293	0.84822
2734.70436	0.84742
2732.77580	0.84638
2730.84723	0.84527
2728.91867	0.84405
2726.99010	0.84247
2725.06154	0.84086
2723.13297	0.83965
2721.20441	0.83831
2719.27585	0.83625
2717.34728	0.83396
2715.41872	0.83215
2713.49015	0.83066
2711.56159	0.82893
2709.63302	0.82711
2707.70446	0.82560
2705.77589	0.82436
2703.84733	0.82328
2701.91877	0.82219
2699.99020	0.82107
2698.06164	0.81981
2696.13307	0.81816
2694.20451	0.81633
2692.27594	0.81474
2690.34738	0.81318
2688.41881	0.81139
2686.49025	0.80961
2684.56169	0.80790
2682.63312	0.80632
2680.70456	0.80543
2678.77599	0.80495
2676.84743	0.80372
2674.91886	0.80174
2672.99030	0.80013
2671.06173	0.79920
2669.13317	0.79844
2667.20461	0.79762
2665.27604	0.79669
2663.34748	0.79549
2661.41891	0.79399
2659.49035	0.79280
2657.56178	0.79261
2655.63322	0.79295
2653.70465	0.79256
2651.77609	0.79118
2649.84753	0.78952
2647.91896	0.78814
2645.99040	0.78728
2644.06183	0.78642
2642.13327	0.78516
2640.20470	0.78432
2638.27614	0.78446
2636.34757	0.78453
2634.41901	0.78380
2632.49045	0.78306
2630.56188	0.78305
2628.63332	0.78332
2626.70475	0.78330
2624.77619	0.78295
2622.84762	0.78215
2620.91906	0.78087
2618.99049	0.77947
2617.06193	0.77819
2615.13337	0.77687
2613.20480	0.77538
2611.27624	0.77379
2609.34767	0.77198
2607.41911	0.76967
2605.49054	0.76727
2603.56198	0.76552
2601.63342	0.76448
2599.70485	0.76363
2597.77629	0.76275
2595.84772	0.76205
2593.91916	0.76165
2591.99059	0.76119
2590.06203	0.76031
2588.13346	0.75912
2586.20490	0.75771
2584.27634	0.75619
2582.34777	0.75484
2580.41921	0.75352
2578.49064	0.75221
2576.56208	0.75134
2574.63351	0.75067
2572.70495	0.74949
2570.77638	0.74799
2568.84782	0.74680
2566.91926	0.74570
2564.99069	0.74459
2563.06213	0.74391
2561.13356	0.74381
2559.20500	0.74400
2557.27643	0.74396
2555.34787	0.74365
2553.41930	0.74339
2551.49074	0.74317
2549.56218	0.74271
2547.63361	0.74183
2545.70505	0.74065
2543.77648	0.73927
2541.84792	0.73757
2539.91935	0.73600
2537.99079	0.73523
2536.06222	0.73479
2534.13366	0.73391
2532.20510	0.73276
2530.27653	0.73188
2528.34797	0.73149
2526.41940	0.73116
2524.49084	0.73056
2522.56227	0.72982
2520.63371	0.72910
2518.70514	0.72832
2516.77658	0.72732
2514.84802	0.72649
2512.91945	0.72595
2510.99089	0.72518
2509.06232	0.72424
2507.13376	0.72295
2505.20519	0.72108
2503.27663	0.71952
2501.34806	0.71843
2499.41950	0.71674
2497.49094	0.71476
2495.56237	0.71360
2493.63381	0.71250
2491.70524	0.71057
2489.77668	0.70886
2487.84811	0.70823
2485.91955	0.70791
2483.99098	0.70728
2482.06242	0.70660
2480.13386	0.70601
2478.20529	0.70531
2476.27673	0.70444
2474.34816	0.70339
2472.41960	0.70213
2470.49103	0.70097
2468.56247	0.70016
2466.63391	0.69939
2464.70534	0.69831
2462.77678	0.69710
2460.84821	0.69614
2458.91965	0.69549
2456.99108	0.69489
2455.06252	0.69420
2453.13395	0.69377
2451.20539	0.69377
2449.27683	0.69368
2447.34826	0.69319
2445.41970	0.69259
2443.49113	0.69199
2441.56257	0.69115
2439.63400	0.69007
2437.70544	0.68897
2435.77687	0.68800
2433.84831	0.68718
2431.91975	0.68644
2429.99118	0.68581
2428.06262	0.68530
2426.13405	0.68457
2424.20549	0.68358
2422.27692	0.68246
2420.34836	0.68120
2418.41979	0.67981
2416.49123	0.67842
2414.56267	0.67712
2412.63410	0.67596
2410.70554	0.67509
2408.77697	0.67447
2406.84841	0.67369
2404.91984	0.67280
2402.99128	0.67202
2401.06271	0.67115
2399.13415	0.66992
2397.20559	0.66844
2395.27702	0.66712
2393.34846	0.66604
2391.41989	0.66495
2389.49133	0.66394
2387.56276	0.66331
2385.63420	0.66302
2383.70563	0.66299
2381.77707	0.66351
2379.84851	0.66475
2377.91994	0.66667
2375.99138	0.66924
2374.06281	0.67260
2372.13425	0.67726
2370.20568	0.68370
2368.27712	0.69113
2366.34855	0.69727
2364.41999	0.69960
2362.49143	0.69958
2360.56286	0.70186
2358.63430	0.70446
2356.70573	0.70113
2354.77717	0.69433
2352.84860	0.68824
2350.92004	0.68144
2348.99147	0.67472
2347.06291	0.67125
2345.13435	0.67321
2343.20578	0.67782
2341.27722	0.68056
2339.34865	0.68232
2337.42009	0.68289
2335.49152	0.68063
2333.56296	0.67811
2331.63440	0.67764
2329.70583	0.67681
2327.77727	0.67415
2325.84870	0.67137
2323.92014	0.66932
2321.99157	0.66698
2320.06301	0.66377
2318.13444	0.66053
2316.20588	0.65762
2314.27732	0.65497
2312.34875	0.65277
2310.42019	0.65085
2308.49162	0.64882
2306.56306	0.64655
2304.63449	0.64402
2302.70593	0.64177
2300.77736	0.64030
2298.84880	0.63902
2296.92024	0.63746
2294.99167	0.63596
2293.06311	0.63458
2291.13454	0.63319
2289.20598	0.63195
2287.27741	0.63087
2285.34885	0.62957
2283.42028	0.62806
2281.49172	0.62683
2279.56316	0.62602
2277.63459	0.62534
2275.70603	0.62482
2273.77746	0.62456
2271.84890	0.62438
2269.92033	0.62428
2267.99177	0.62412
2266.06320	0.62353
2264.13464	0.62288
2262.20608	0.62269
2260.27751	0.62264
2258.34895	0.62225
2256.42038	0.62164
2254.49182	0.62096
2252.56325	0.62025
2250.63469	0.61948
2248.70612	0.61856
2246.77756	0.61778
2244.84900	0.61726
2242.92043	0.61663
2240.99187	0.61591
2239.06330	0.61547
2237.13474	0.61533
2235.20617	0.61530
2233.27761	0.61496
2231.34904	0.61427
2229.42048	0.61379
2227.49192	0.61369
2225.56335	0.61352
2223.63479	0.61292
2221.70622	0.61210
2219.77766	0.61142
2217.84909	0.61073
2215.92053	0.60991
2213.99196	0.60915
2212.06340	0.60851
2210.13484	0.60796
2208.20627	0.60739
2206.27771	0.60677
2204.34914	0.60637
2202.42058	0.60628
2200.49201	0.60614
2198.56345	0.60575
2196.63488	0.60526
2194.70632	0.60465
2192.77776	0.60405
2190.84919	0.60357
2188.92063	0.60284
2186.99206	0.60175
2185.06350	0.60082
2183.13493	0.60039
2181.20637	0.60019
2179.27781	0.59980
2177.34924	0.59928
2175.42068	0.59865
2173.49211	0.59798
2171.56355	0.59771
2169.63498	0.59790
2167.70642	0.59802
2165.77785	0.59780
2163.84929	0.59733
2161.92073	0.59686
2159.99216	0.59656
2158.06360	0.59626
2156.13503	0.59597
2154.20647	0.59591
2152.27790	0.59598
2150.34934	0.59577
2148.42077	0.59524
2146.49221	0.59478
2144.56365	0.59473
2142.63508	0.59510
2140.70652	0.59554
2138.77795	0.59571
2136.84939	0.59554
2134.92082	0.59533
2132.99226	0.59518
2131.06369	0.59491
2129.13513	0.59449
2127.20657	0.59386
2125.27800	0.59294
2123.34944	0.59197
2121.42087	0.59131
2119.49231	0.59092
2117.56374	0.59058
2115.63518	0.59026
2113.70661	0.58989
2111.77805	0.58941
2109.84949	0.58885
2107.92092	0.58825
2105.99236	0.58768
2104.06379	0.58725
2102.13523	0.58696
2100.20666	0.58654
2098.27810	0.58574
2096.34953	0.58476
2094.42097	0.58388
2092.49241	0.58299
2090.56384	0.58209
2088.63528	0.58123
2086.70671	0.58016
2084.77815	0.57896
2082.84958	0.57779
2080.92102	0.57673
2078.99245	0.57608
2077.06389	0.57593
2075.13533	0.57590
2073.20676	0.57563
2071.27820	0.57509
2069.34963	0.57462
2067.42107	0.57442
2065.49250	0.57432
2063.56394	0.57411
2061.63537	0.57367
2059.70681	0.57300
2057.77825	0.57229
2055.84968	0.57173
2053.92112	0.57117
2051.99255	0.57027
2050.06399	0.56932
2048.13542	0.56863
2046.20686	0.56810
2044.27830	0.56782
2042.34973	0.56796
2040.42117	0.56817
2038.49260	0.56822
2036.56404	0.56821
2034.63547	0.56803
2032.70691	0.56775
2030.77834	0.56773
2028.84978	0.56778
2026.92122	0.56747
2024.99265	0.56685
2023.06409	0.56626
2021.13552	0.56564
2019.20696	0.56515
2017.27839	0.56508
2015.34983	0.56477
2013.42126	0.56380
2011.49270	0.56279
2009.56414	0.56208
2007.63557	0.56144
2005.70701	0.56065
2003.77844	0.55962
2001.84988	0.55840
1999.92131	0.55720
1997.99275	0.55619
1996.06418	0.55513
1994.13562	0.55423
1992.20706	0.55391
1990.27849	0.55307
1988.34993	0.55124
1986.42136	0.54954
1984.49280	0.54835
1982.56423	0.54735
1980.63567	0.54640
1978.70710	0.54549
1976.77854	0.54471
1974.84998	0.54392
1972.92141	0.54275
1970.99285	0.54122
1969.06428	0.54015
1967.13572	0.53978
1965.20715	0.53902
1963.27859	0.53770
1961.35002	0.53664
1959.42146	0.53592
1957.49290	0.53540
1955.56433	0.53503
1953.63577	0.53465
1951.70720	0.53424
1949.77864	0.53379
1947.85007	0.53346
1945.92151	0.53347
1943.99294	0.53420
1942.06438	0.53509
1940.13582	0.53443
1938.20725	0.53300
1936.27869	0.53224
1934.35012	0.53175
1932.42156	0.53093
1930.49299	0.52993
1928.56443	0.52899
1926.63586	0.52815
1924.70730	0.52812
1922.77874	0.52888
1920.85017	0.52863
1918.92161	0.52797
1916.99304	0.52789
1915.06448	0.52704
1913.13591	0.52600
1911.20735	0.52604
1909.27878	0.52654
1907.35022	0.52634
1905.42166	0.52532
1903.49309	0.52388
1901.56453	0.52223
1899.63596	0.52057
1897.70740	0.51927
1895.77883	0.51846
1893.85027	0.51720
1891.92171	0.51534
1889.99314	0.51422
1888.06458	0.51320
1886.13601	0.51139
1884.20745	0.50983
1882.27888	0.50865
1880.35032	0.50734
1878.42175	0.50601
1876.49319	0.50493
1874.56463	0.50392
1872.63606	0.50271
1870.70750	0.50253
1868.77893	0.50439
1866.85037	0.50439
1864.92180	0.50118
1862.99324	0.49812
1861.06467	0.49661
1859.13611	0.49589
1857.20755	0.49496
1855.27898	0.49377
1853.35042	0.49282
1851.42185	0.49217
1849.49329	0.49194
1847.56472	0.49212
1845.63616	0.49352
1843.70759	0.49585
1841.77903	0.49532
1839.85047	0.49321
1837.92190	0.49248
1835.99334	0.49242
1834.06477	0.49116
1832.13621	0.49022
1830.20764	0.49184
1828.27908	0.49294
1826.35051	0.49179
1824.42195	0.49099
1822.49339	0.48968
1820.56482	0.48753
1818.63626	0.48635
1816.70769	0.48610
1814.77913	0.48581
1812.85056	0.48595
1810.92200	0.48700
1808.99343	0.48746
1807.06487	0.48652
1805.13631	0.48516
1803.20774	0.48446
1801.27918	0.48500
1799.35061	0.48527
1797.42205	0.48374
1795.49348	0.48142
1793.56492	0.48072
1791.63635	0.48192
1789.70779	0.48014
1787.77923	0.47631
1785.85066	0.47411
1783.92210	0.47370
1781.99353	0.47374
1780.06497	0.47369
1778.13640	0.47264
1776.20784	0.47093
1774.27927	0.47099
1772.35071	0.47436
1770.42215	0.47609
1768.49358	0.47427
1766.56502	0.47170
1764.63645	0.46963
1762.70789	0.46996
1760.77932	0.47203
1758.85076	0.47316
1756.92220	0.47511
1754.99363	0.47688
1753.06507	0.47820
1751.13650	0.48429
1749.20794	0.49536
1747.27937	0.50309
1745.35081	0.50715
1743.42224	0.51047
1741.49368	0.51420
1739.56512	0.51829
1737.63655	0.51981
1735.70799	0.52062
1733.77942	0.52673
1731.85086	0.53038
1729.92229	0.52878
1727.99373	0.52723
1726.06516	0.52672
1724.13660	0.52804
1722.20804	0.52937
1720.27947	0.53032
1718.35091	0.53724
1716.42234	0.55295
1714.49378	0.56202
1712.56521	0.56594
1710.63665	0.57177
1708.70808	0.58114
1706.77952	0.59844
1704.85096	0.62257
1702.92239	0.64276
1700.99383	0.67275
1699.06526	0.72433
1697.13670	0.77246
1695.20813	0.81823
1693.27957	0.85149
1691.35100	0.87865
1689.42244	0.91485
1687.49388	0.94961
1685.56531	0.98671
1683.63675	1.05327
1681.70818	1.10444
1679.77962	1.13314
1677.85105	1.16213
1675.92249	1.20042
1673.99392	1.24421
1672.06536	1.27934
1670.13680	1.32092
1668.20823	1.36998
1666.27967	1.39941
1664.35110	1.42568
1662.42254	1.46546
1660.49397	1.50136
1658.56541	1.52112
1656.63684	1.53191
1654.70828	1.54465
1652.77972	1.56866
1650.85115	1.57476
1648.92259	1.56717
1646.99402	1.55805
1645.06546	1.55536
1643.13689	1.55461
1641.20833	1.55273
1639.27976	1.54984
1637.35120	1.55008
1635.42264	1.55051
1633.49407	1.54132
1631.56551	1.53068
1629.63694	1.51998
1627.70838	1.50704
1625.77981	1.48837
1623.85125	1.45794
1621.92269	1.41871
1619.99412	1.38539
1618.06556	1.34831
1616.13699	1.29221
1614.20843	1.24192
1612.27986	1.20237
1610.35130	1.16361
1608.42273	1.12578
1606.49417	1.09273
1604.56561	1.06577
1602.63704	1.04430
1600.70848	1.02804
1598.77991	1.01631
1596.85135	1.00792
1594.92278	1.00151
1592.99422	0.99689
1591.06565	0.99463
1589.13709	0.99489
1587.20853	0.99808
1585.27996	1.00417
1583.35140	1.01289
1581.42283	1.02325
1579.49427	1.03387
1577.56570	1.04978
1575.63714	1.07562
1573.70857	1.09306
1571.78001	1.10503
1569.85145	1.12686
1567.92288	1.15136
1565.99432	1.16921
1564.06575	1.18611
1562.13719	1.19790
1560.20862	1.21250
1558.28006	1.25797
1556.35149	1.28590
1554.42293	1.29669
1552.49437	1.30749
1550.56580	1.31762
1548.63724	1.32372
1546.70867	1.32446
1544.78011	1.32402
1542.85154	1.32519
1540.92298	1.32476
1538.99441	1.31516
1537.06585	1.30492
1535.13729	1.29498
1533.20872	1.28253
1531.28016	1.26943
1529.35159	1.25821
1527.42303	1.24777
1525.49446	1.23732
1523.56590	1.22936
1521.63733	1.22725
1519.70877	1.22947
1517.78021	1.22779
1515.85164	1.21821
1513.92308	1.20171
1511.99451	1.18166
1510.06595	1.16122
1508.13738	1.13210
1506.20882	1.08283
1504.28025	1.05145
1502.35169	1.02945
1500.42313	1.00603
1498.49456	0.97917
1496.56600	0.94816
1494.63743	0.92136
1492.70887	0.90220
1490.78030	0.88488
1488.85174	0.86550
1486.92317	0.84722
1484.99461	0.83258
1483.06605	0.82189
1481.13748	0.81451
1479.20892	0.81030
1477.28035	0.81051
1475.35179	0.81666
1473.42322	0.83159
1471.49466	0.84844
1469.56610	0.85558
1467.63753	0.85963
1465.70897	0.86768
1463.78040	0.87745
1461.85184	0.88193
1459.92327	0.88465
1457.99471	0.89582
1456.06614	0.91152
1454.13758	0.91316
1452.20902	0.91024
1450.28045	0.90838
1448.35189	0.90776
1446.42332	0.90560
1444.49476	0.90090
1442.56619	0.89506
1440.63763	0.88894
1438.70906	0.88323
1436.78050	0.87715
1434.85194	0.86846
1432.92337	0.85877
1430.99481	0.84961
1429.06624	0.84085
1427.13768	0.83342
1425.20911	0.82870
1423.28055	0.82619
1421.35198	0.82475
1419.42342	0.82648
1417.49486	0.82946
1415.56629	0.82817
1413.63773	0.82535
1411.70916	0.82316
1409.78060	0.82163
1407.85203	0.82107
1405.92347	0.82259
1403.99490	0.82516
1402.06634	0.82653
1400.13778	0.82843
1398.20921	0.83198
1396.28065	0.83494
1394.35208	0.83647
1392.42352	0.83695
1390.49495	0.83802
1388.56639	0.84357
1386.63782	0.85509
1384.70926	0.86673
1382.78070	0.87659
1380.85213	0.88547
1378.92357	0.89077
1376.99500	0.89038
1375.06644	0.88373
1373.13787	0.87114
1371.20931	0.85598
1369.28074	0.83888
1367.35218	0.82012
1365.42362	0.80323
1363.49505	0.78867
1361.56649	0.77558
1359.63792	0.76538
1357.70936	0.75837
1355.78079	0.75364
1353.85223	0.75056
1351.92366	0.74879
1349.99510	0.74771
1348.06654	0.74653
1346.13797	0.74547
1344.20941	0.74506
1342.28084	0.74560
1340.35228	0.74807
1338.42371	0.75181
1336.49515	0.75485
1334.56659	0.75861
1332.63802	0.76479
1330.70946	0.77250
1328.78089	0.77963
1326.85233	0.78491
1324.92376	0.78833
1322.99520	0.79079
1321.06663	0.79330
1319.13807	0.79594
1317.20951	0.79764
1315.28094	0.79849
1313.35238	0.79972
1311.42381	0.80084
1309.49525	0.80105
1307.56668	0.80077
1305.63812	0.79997
1303.70955	0.79842
1301.78099	0.79629
1299.85243	0.79361
1297.92386	0.79013
1295.99530	0.78634
1294.06673	0.78316
1292.13817	0.78093
1290.20960	0.77965
1288.28104	0.77926
1286.35247	0.77951
1284.42391	0.77999
1282.49535	0.78054
1280.56678	0.78146
1278.63822	0.78302
1276.70965	0.78536
1274.78109	0.78885
1272.85252	0.79367
1270.92396	0.79938
1268.99539	0.80546
1267.06683	0.81177
1265.13827	0.81774
1263.20970	0.82230
1261.28114	0.82534
1259.35257	0.82761
1257.42401	0.82959
1255.49544	0.83171
1253.56688	0.83423
1251.63831	0.83676
1249.70975	0.83879
1247.78119	0.84023
1245.85262	0.84125
1243.92406	0.84180
1241.99549	0.84173
1240.06693	0.84096
1238.13836	0.83934
1236.20980	0.83710
1234.28123	0.83435
1232.35267	0.83050
1230.42411	0.82549
1228.49554	0.82013
1226.56698	0.81453
1224.63841	0.80828
1222.70985	0.80133
1220.78128	0.79352
1218.85272	0.78519
1216.92415	0.77731
1214.99559	0.77044
1213.06703	0.76530
1211.13846	0.76268
1209.20990	0.76181
1207.28133	0.76051
1205.35277	0.75710
1203.42420	0.75127
1201.49564	0.74366
1199.56708	0.73513
1197.63851	0.72637
1195.70995	0.71798
1193.78138	0.71052
1191.85282	0.70445
1189.92425	0.69998
1187.99569	0.69696
1186.06712	0.69523
1184.13856	0.69522
1182.21000	0.69713
1180.28143	0.70058
1178.35287	0.70567
1176.42430	0.71264
1174.49574	0.72104
1172.56717	0.73013
1170.63861	0.73987
1168.71004	0.75120
1166.78148	0.76484
1164.85292	0.77999
1162.92435	0.79497
1160.99579	0.80767
1159.06722	0.81564
1157.13866	0.81713
1155.21009	0.81195
1153.28153	0.80187
1151.35296	0.78909
1149.42440	0.77503
1147.49584	0.76168
1145.56727	0.75072
1143.63871	0.74261
1141.71014	0.73775
1139.78158	0.73599
1137.85301	0.73626
1135.92445	0.73794
1133.99588	0.74137
1132.06732	0.74729
1130.13876	0.75649
1128.21019	0.76892
1126.28163	0.78315
1124.35306	0.79725
1122.42450	0.81000
1120.49593	0.82152
1118.56737	0.83173
1116.63880	0.83876
1114.71024	0.84075
1112.78168	0.83834
1110.85311	0.83384
1108.92455	0.82887
1106.99598	0.82384
1105.06742	0.81913
1103.13885	0.81566
1101.21029	0.81429
1099.28172	0.81516
1097.35316	0.81797
1095.42460	0.82349
1093.49603	0.83281
1091.56747	0.84482
1089.63890	0.85794
1087.71034	0.87316
1085.78177	0.89146
1083.85321	0.91145
1081.92464	0.93091
1079.99608	0.94716
1078.06752	0.95745
1076.13895	0.96068
1074.21039	0.95780
1072.28182	0.95075
1070.35326	0.94096
1068.42469	0.92937
1066.49613	0.91734
1064.56756	0.90583
1062.63900	0.89449
1060.71044	0.88286
1058.78187	0.87124
1056.85331	0.86012
1054.92474	0.85006
1052.99618	0.84173
1051.06761	0.83543
1049.13905	0.83105
1047.21049	0.82901
1045.28192	0.83038
1043.35336	0.83519
1041.42479	0.84225
1039.49623	0.84996
1037.56766	0.85663
1035.63910	0.86164
1033.71053	0.86501
1031.78197	0.86599
1029.85341	0.86369
1027.92484	0.85819
1025.99628	0.85026
1024.06771	0.84061
1022.13915	0.83007
1020.21058	0.82010
1018.28202	0.81172
1016.35345	0.80412
1014.42489	0.79517
1012.49633	0.78357
1010.56776	0.76981
1008.63920	0.75448
1006.71063	0.73755
1004.78207	0.71984
1002.85350	0.70338
1000.92494	0.68937
998.99637	0.67756
997.06781	0.66794
995.13925	0.66068
993.21068	0.65479
991.28212	0.64901
989.35355	0.64361
987.42499	0.63913
985.49642	0.63511
983.56786	0.63143
981.63929	0.62862
979.71073	0.62678
977.78217	0.62528
975.85360	0.62325
973.92504	0.62015
971.99647	0.61584
970.06791	0.61049
968.13934	0.60438
966.21078	0.59832
964.28221	0.59372
962.35365	0.59178
960.42509	0.59330
958.49652	0.59842
956.56796	0.60519
954.63939	0.60953
952.71083	0.60880
950.78226	0.60379
948.85370	0.59636
946.92513	0.58805
944.99657	0.58025
943.06801	0.57365
941.13944	0.56822
939.21088	0.56374
937.28231	0.56003
935.35375	0.55672
933.42518	0.55342
931.49662	0.55025
929.56805	0.54756
927.63949	0.54543
925.71093	0.54399
923.78236	0.54318
921.85380	0.54270
919.92523	0.54228
917.99667	0.54164
916.06810	0.54089
914.13954	0.54046
912.21098	0.54067
910.28241	0.54180
908.35385	0.54391
906.42528	0.54671
904.49672	0.55006
902.56815	0.55384
900.63959	0.55731
898.71102	0.55984
896.78246	0.56163
894.85390	0.56296
892.92533	0.56369
890.99677	0.56346
889.06820	0.56243
887.13964	0.56149
885.21107	0.56119
883.28251	0.56138
881.35394	0.56181
879.42538	0.56216
877.49682	0.56203
875.56825	0.56164
873.63969	0.56155
871.71112	0.56166
869.78256	0.56149
867.85399	0.56115
865.92543	0.56111
863.99686	0.56134
862.06830	0.56177
860.13974	0.56261
858.21117	0.56375
856.28261	0.56489
854.35404	0.56610
852.42548	0.56739
850.49691	0.56846
848.56835	0.56925
846.63978	0.56962
844.71122	0.56948
842.78266	0.56925
840.85409	0.56918
838.92553	0.56921
836.99696	0.56949
835.06840	0.57000
833.13983	0.57051
831.21127	0.57073
829.28270	0.57068
827.35414	0.57077
825.42558	0.57108
823.49701	0.57110
821.56845	0.57095
819.63988	0.57127
817.71132	0.57179
815.78275	0.57192
813.85419	0.57176
811.92562	0.57162
809.99706	0.57147
808.06850	0.57100
806.13993	0.57010
804.21137	0.56934
802.28280	0.56924
800.35424	0.56974
798.42567	0.57043
796.49711	0.57139
794.56854	0.57337
792.63998	0.57630
790.71142	0.57919
788.78285	0.58157
786.85429	0.58392
784.92572	0.58689
782.99716	0.59011
781.06859	0.59278
779.14003	0.59488
777.21147	0.59662
775.28290	0.59820
773.35434	0.59989
771.42577	0.60170
769.49721	0.60353
767.56864	0.60512
765.64008	0.60633
763.71151	0.60787
761.78295	0.61043
759.85439	0.61349
757.92582	0.61646
755.99726	0.61960
754.06869	0.62315
752.14013	0.62665
750.21156	0.62962
748.28300	0.63184
746.35443	0.63330
744.42587	0.63380
742.49731	0.63309
740.56874	0.63188
738.64018	0.63105
736.71161	0.63026
734.78305	0.62940
732.85448	0.62945
730.92592	0.63062
728.99735	0.63234
727.06879	0.63449
725.14023	0.63740
723.21166	0.64126
721.28310	0.64550
719.35453	0.64826
717.42597	0.64845
715.49740	0.64754
713.56884	0.64739
711.64027	0.64838
709.71171	0.64990
707.78315	0.65134
705.85458	0.65248
703.92602	0.65325
701.99745	0.65377
700.06889	0.65440
698.14032	0.65484
696.21176	0.65458
694.28319	0.65413
692.35463	0.65435
690.42607	0.65508
688.49750	0.65552
686.56894	0.65543
684.64037	0.65525
682.71181	0.65528
680.78324	0.65565
678.85468	0.65679
676.92611	0.65794
674.99755	0.65742
673.06899	0.65601
671.14042	0.65605
669.21186	0.65841
667.28329	0.65976
665.35473	0.65823
663.42616	0.65708
661.49760	0.65688
659.56903	0.65611
657.64047	0.65405
655.71191	0.65251
653.78334	0.65330
651.85478	0.65576
649.92621	0.65764
647.99765	0.65804
646.06908	0.65879
644.14052	0.66187
642.21195	0.66663
640.28339	0.67101
638.35483	0.67410
636.42626	0.67523
634.49770	0.67384
632.56913	0.67150
630.64057	0.66962
628.71200	0.66825
626.78344	0.66778
624.85488	0.66807
622.92631	0.66863
620.99775	0.66989
619.06918	0.67196
617.14062	0.67339
615.21205	0.67262
613.28349	0.67091
611.35492	0.66999
609.42636	0.66890
607.49780	0.66706
605.56923	0.66552
603.64067	0.66469
601.71210	0.66509
599.78354	0.66656
