3997.91406	0.71969
3995.98550	0.71866
3994.05693	0.71722
3992.12837	0.71597
3990.19980	0.71573
3988.27124	0.71598
3986.34268	0.71621
3984.41411	0.71652
3982.48555	0.71614
3980.55698	0.71469
3978.62842	0.71314
3976.69985	0.71286
3974.77129	0.71432
3972.84272	0.71555
3970.91416	0.71462
3968.98560	0.71281
3967.05703	0.71129
3965.12847	0.70956
3963.19990	0.70822
3961.27134	0.70784
3959.34277	0.70797
3957.41421	0.70888
3955.48564	0.70997
3953.55708	0.71010
3951.62852	0.70991
3949.69995	0.71000
3947.77139	0.70854
3945.84282	0.70550
3943.91426	0.70483
3941.98569	0.70640
3940.05713	0.70575
3938.12856	0.70358
3936.20000	0.70261
3934.27144	0.70357
3932.34287	0.70609
3930.41431	0.70757
3928.48574	0.70593
3926.55718	0.70423
3924.62861	0.70511
3922.70005	0.70557
3920.77148	0.70511
3918.84292	0.70656
3916.91436	0.70812
3914.98579	0.70619
3913.05723	0.70230
3911.12866	0.69928
3909.20010	0.69685
3907.27153	0.69504
3905.34297	0.69657
3903.41440	0.70040
3901.48584	0.70299
3899.55728	0.70503
3897.62871	0.70330
3895.70015	0.69809
3893.77158	0.69559
3891.84302	0.69829
3889.91445	0.69755
3887.98589	0.69164
3886.05733	0.68838
3884.12876	0.68922
3882.20020	0.69047
3880.27163	0.69253
3878.34307	0.69136
3876.41450	0.68822
3874.48594	0.68760
3872.55737	0.68840
3870.62881	0.69028
3868.70025	0.69031
3866.77168	0.68673
3864.84312	0.68627
3862.91455	0.68818
3860.98599	0.68565
3859.05742	0.68079
3857.12886	0.67724
3855.20029	0.68013
3853.27173	0.69348
3851.34317	0.69427
3849.41460	0.68498
3847.48604	0.67751
3845.55747	0.67481
3843.62891	0.67706
3841.70034	0.68093
3839.77178	0.68437
3837.84321	0.68693
3835.91465	0.68529
3833.98609	0.68177
3832.05752	0.67911
3830.12896	0.67734
3828.20039	0.67732
3826.27183	0.67872
3824.34326	0.67895
3822.41470	0.68090
3820.48613	0.68426
3818.55757	0.68169
3816.62901	0.68075
3814.70044	0.68149
3812.77188	0.67754
3810.84331	0.67263
3808.91475	0.67201
3806.98618	0.67605
3805.05762	0.67636
3803.12905	0.67436
3801.20049	0.67621
3799.27193	0.67653
3797.34336	0.67500
3795.41480	0.67249
3793.48623	0.66824
3791.55767	0.66492
3789.62910	0.66291
3787.70054	0.66152
3785.77197	0.66212
3783.84341	0.66258
3781.91485	0.66108
3779.98628	0.66173
3778.05772	0.66272
3776.12915	0.65933
3774.20059	0.65474
3772.27202	0.65300
3770.34346	0.65571
3768.41489	0.65857
3766.48633	0.65921
3764.55777	0.65911
3762.62920	0.65706
3760.70064	0.65595
3758.77207	0.65773
3756.84351	0.65757
3754.91494	0.65649
3752.98638	0.65997
3751.05781	0.66977
3749.12925	0.67212
3747.20069	0.66668
3745.27212	0.66450
3743.34356	0.66502
3741.41499	0.66192
3739.48643	0.65804
3737.55786	0.65787
3735.62930	0.66344
3733.70074	0.66913
3731.77217	0.66915
3729.84361	0.66526
3727.91504	0.66107
3725.98648	0.65940
3724.05791	0.66074
3722.12935	0.66281
3720.20078	0.66250
3718.27222	0.65971
3716.34366	0.65671
3714.41509	0.65582
3712.48653	0.66130
3710.55796	0.66935
3708.62940	0.66788
3706.70083	0.66261
3704.77227	0.65949
3702.84370	0.66050
3700.91514	0.66311
3698.98658	0.66299
3697.05801	0.66204
3695.12945	0.66160
3693.20088	0.66163
3691.27232	0.66537
3689.34375	0.67496
3687.41519	0.67971
3685.48662	0.67723
3683.55806	0.67418
3681.62950	0.67412
3679.70093	0.67681
3677.77237	0.68269
3675.84380	0.69609
3673.91524	0.70347
3671.98667	0.70271
3670.05811	0.70769
3668.12954	0.71157
3666.20098	0.71023
3664.27242	0.71085
3662.34385	0.71472
3660.41529	0.72004
3658.48672	0.72672
3656.55816	0.73605
3654.62959	0.74196
3652.70103	0.74341
3650.77246	0.75257
3648.84390	0.77715
3646.91534	0.78879
3644.98677	0.78735
3643.05821	0.78684
3641.12964	0.79055
3639.20108	0.79695
3637.27251	0.80420
3635.34395	0.81164
3633.41538	0.81855
3631.48682	0.82537
3629.55826	0.84136
3627.62969	0.86064
3625.70113	0.86413
3623.77256	0.86266
3621.84400	0.86451
3619.91543	0.87462
3617.98687	0.88749
3616.05830	0.89339
3614.12974	0.89915
3612.20118	0.90829
3610.27261	0.91690
3608.34405	0.92486
3606.41548	0.93116
3604.48692	0.93489
3602.55835	0.94041
3600.62979	0.95032
3598.70123	0.95999
3596.77266	0.96745
3594.84410	0.97746
3592.91553	0.98687
3590.98697	0.99043
3589.05840	0.99640
3587.12984	1.01212
3585.20127	1.02436
3583.27271	1.02914
3581.34415	1.03353
3579.41558	1.04007
3577.48702	1.04813
3575.55845	1.05628
3573.62989	1.06174
3571.70132	1.06428
3569.77276	1.06902
3567.84419	1.08346
3565.91563	1.10258
3563.98707	1.11262
3562.05850	1.11940
3560.12994	1.12614
3558.20137	1.12999
3556.27281	1.13281
3554.34424	1.13944
3552.41568	1.15022
3550.48711	1.15887
3548.55855	1.16386
3546.62999	1.17006
3544.70142	1.17848
3542.77286	1.18487
3540.84429	1.18870
3538.91573	1.19245
3536.98716	1.19828
3535.05860	1.20639
3533.13003	1.21356
3531.20147	1.21817
3529.27291	1.22257
3527.34434	1.22930
3525.41578	1.23864
3523.48721	1.24908
3521.55865	1.25657
3519.63008	1.26033
3517.70152	1.26546
3515.77295	1.27245
3513.84439	1.27756
3511.91583	1.28116
3509.98726	1.28510
3508.05870	1.29084
3506.13013	1.29826
3504.20157	1.30422
3502.27300	1.30619
3500.34444	1.30607
3498.41587	1.30762
3496.48731	1.31390
3494.55875	1.32262
3492.63018	1.32694
3490.70162	1.32765
3488.77305	1.33087
3486.84449	1.33553
3484.91592	1.33638
3482.98736	1.33423
3481.05879	1.33275
3479.13023	1.33354
3477.20167	1.33736
3475.27310	1.34312
3473.34454	1.34740
3471.41597	1.34712
3469.48741	1.34424
3467.55884	1.34296
3465.63028	1.34298
3463.70171	1.34436
3461.77315	1.34899
3459.84459	1.35508
3457.91602	1.35924
3455.98746	1.36068
3454.05889	1.36079
3452.13033	1.36129
3450.20176	1.36455
3448.27320	1.37048
3446.34464	1.37419
3444.41607	1.37303
3442.48751	1.37055
3440.55894	1.36968
3438.63038	1.36849
3436.70181	1.36631
3434.77325	1.36647
3432.84468	1.36854
3430.91612	1.36938
3428.98756	1.36997
3427.05899	1.37296
3425.13043	1.37902
3423.20186	1.38591
3421.27330	1.38918
3419.34473	1.38848
3417.41617	1.38686
3415.48760	1.38542
3413.55904	1.38412
3411.63048	1.38215
3409.70191	1.38055
3407.77335	1.38208
3405.84478	1.38595
3403.91622	1.38697
3401.98765	1.38249
3400.05909	1.37911
3398.13052	1.38082
3396.20196	1.38274
3394.27340	1.38452
3392.34483	1.38796
3390.41627	1.39047
3388.48770	1.39269
3386.55914	1.39561
3384.63057	1.39535
3382.70201	1.39202
3380.77344	1.39064
3378.84488	1.38956
3376.91632	1.38490
3374.98775	1.38070
3373.05919	1.37894
3371.13062	1.37716
3369.20206	1.37804
3367.27349	1.38298
3365.34493	1.38757
3363.41636	1.38974
3361.48780	1.38962
3359.55924	1.38800
3357.63067	1.38790
3355.70211	1.38863
3353.77354	1.38706
3351.84498	1.38611
3349.91641	1.38828
3347.98785	1.39008
3346.05928	1.39101
3344.13072	1.39418
3342.20216	1.39934
3340.27359	1.40254
3338.34503	1.40134
3336.41646	1.39914
3334.48790	1.40030
3332.55933	1.40374
3330.63077	1.40624
3328.70220	1.40727
3326.77364	1.40769
3324.84508	1.40764
3322.91651	1.40801
3320.98795	1.41003
3319.05938	1.41296
3317.13082	1.41517
3315.20225	1.41797
3313.27369	1.42131
3311.34513	1.42177
3309.41656	1.42145
3307.48800	1.42352
3305.55943	1.42522
3303.63087	1.42476
3301.70230	1.42454
3299.77374	1.42567
3297.84517	1.42643
3295.91661	1.42796
3293.98805	1.43005
3292.05948	1.42895
3290.13092	1.42602
3288.20235	1.42280
3286.27379	1.41835
3284.34522	1.41658
3282.41666	1.41942
3280.48809	1.42154
3278.55953	1.42144
3276.63097	1.42191
3274.70240	1.42281
3272.77384	1.42282
3270.84527	1.42070
3268.91671	1.41659
3266.98814	1.41228
3265.05958	1.40903
3263.13101	1.40546
3261.20245	1.39936
3259.27389	1.39428
3257.34532	1.39372
3255.41676	1.39449
3253.48819	1.39404
3251.55963	1.39319
3249.63106	1.39096
3247.70250	1.38634
3245.77393	1.38246
3243.84537	1.37959
3241.91681	1.37441
3239.98824	1.37031
3238.05968	1.36990
3236.13111	1.36925
3234.20255	1.36874
3232.27398	1.36934
3230.34542	1.36666
3228.41685	1.36153
3226.48829	1.35793
3224.55973	1.35566
3222.63116	1.35515
3220.70260	1.35633
3218.77403	1.35586
3216.84547	1.35323
3214.91690	1.35154
3212.98834	1.35185
3211.05977	1.35252
3209.13121	1.35220
3207.20265	1.35133
3205.27408	1.35013
3203.34552	1.34764
3201.41695	1.34509
3199.48839	1.34593
3197.55982	1.34944
3195.63126	1.35065
3193.70269	1.34913
3191.77413	1.34798
3189.84557	1.34699
3187.91700	1.34496
3185.98844	1.34170
3184.05987	1.33830
3182.13131	1.33664
3180.20274	1.33611
3178.27418	1.33538
3176.34562	1.33387
3174.41705	1.33016
3172.48849	1.32497
3170.55992	1.32302
3168.63136	1.32601
3166.70279	1.32789
3164.77423	1.32433
3162.84566	1.31887
3160.91710	1.31478
3158.98854	1.31146
3157.05997	1.30825
3155.13141	1.30536
3153.20284	1.30339
3151.27428	1.30258
3149.34571	1.30175
3147.41715	1.29950
3145.48858	1.29672
3143.56002	1.29485
3141.63146	1.29213
3139.70289	1.28848
3137.77433	1.28696
3135.84576	1.28759
3133.91720	1.28836
3131.98863	1.28710
3130.06007	1.28350
3128.13150	1.28071
3126.20294	1.28068
3124.27438	1.28246
3122.34581	1.28354
3120.41725	1.28311
3118.48868	1.28379
3116.56012	1.28562
3114.63155	1.28591
3112.70299	1.28452
3110.77442	1.28290
3108.84586	1.28258
3106.91730	1.28292
3104.98873	1.28132
3103.06017	1.27983
3101.13160	1.28117
3099.20304	1.28250
3097.27447	1.28356
3095.34591	1.28669
3093.41734	1.28857
3091.48878	1.28668
3089.56022	1.28453
3087.63165	1.28336
3085.70309	1.28164
3083.77452	1.28028
3081.84596	1.28034
3079.91739	1.28126
3077.98883	1.28176
3076.06026	1.28091
3074.13170	1.27849
3072.20314	1.27529
3070.27457	1.27341
3068.34601	1.27331
3066.41744	1.27394
3064.48888	1.27432
3062.56031	1.27363
3060.63175	1.27288
3058.70318	1.27214
3056.77462	1.26909
3054.84606	1.26384
3052.91749	1.25884
3050.98893	1.25467
3049.06036	1.25164
3047.13180	1.25036
3045.20323	1.24839
3043.27467	1.24424
3041.34610	1.24079
3039.41754	1.23847
3037.48898	1.23500
3035.56041	1.23213
3033.63185	1.23189
3031.70328	1.23164
3029.77472	1.22943
3027.84615	1.22572
3025.91759	1.22112
3023.98903	1.21764
3022.06046	1.21622
3020.13190	1.21551
3018.20333	1.21472
3016.27477	1.21304
3014.34620	1.21071
3012.41764	1.20965
3010.48907	1.20950
3008.56051	1.20811
3006.63195	1.20552
3004.70338	1.20293
3002.77482	1.20045
3000.84625	1.19793
2998.91769	1.19618
2996.98912	1.19696
2995.06056	1.20025
2993.13199	1.20362
2991.20343	1.20658
2989.27487	1.21053
2987.34630	1.21552
2985.41774	1.22133
2983.48917	1.22859
2981.56061	1.23719
2979.63204	1.24503
2977.70348	1.25018
2975.77491	1.25346
2973.84635	1.25704
2971.91779	1.26180
2969.98922	1.26613
2968.06066	1.26905
2966.13209	1.27191
2964.20353	1.27479
2962.27496	1.27700
2960.34640	1.27934
2958.41783	1.28051
2956.48927	1.27778
2954.56071	1.27314
2952.63214	1.26950
2950.70358	1.26619
2948.77501	1.26315
2946.84645	1.26119
2944.91788	1.26111
2942.98932	1.26437
2941.06075	1.27000
2939.13219	1.27590
2937.20363	1.28100
2935.27506	1.28385
2933.34650	1.28549
2931.41793	1.28873
2929.48937	1.29223
2927.56080	1.29339
2925.63224	1.29374
2923.70367	1.29453
2921.77511	1.29489
2919.84655	1.29485
2917.91798	1.29330
2915.98942	1.28708
2914.06085	1.27519
2912.13229	1.26101
2910.20372	1.24897
2908.27516	1.24009
2906.34659	1.23302
2904.41803	1.22752
2902.48947	1.22413
2900.56090	1.22087
2898.63234	1.21540
2896.70377	1.20988
2894.77521	1.20742
2892.84664	1.20709
2890.91808	1.20577
2888.98952	1.20253
2887.06095	1.19978
2885.13239	1.19867
2883.20382	1.19788
2881.27526	1.19777
2879.34669	1.19931
2877.41813	1.20054
2875.48956	1.20001
2873.56100	1.19938
2871.63244	1.19841
2869.70387	1.19473
2867.77531	1.18955
2865.84674	1.18580
2863.91818	1.18330
2861.98961	1.18078
2860.06105	1.17949
2858.13248	1.18079
2856.20392	1.18344
2854.27536	1.18666
2852.34679	1.18951
2850.41823	1.18785
2848.48966	1.17836
2846.56110	1.16303
2844.63253	1.14622
2842.70397	1.13053
2840.77540	1.11729
2838.84684	1.10705
2836.91828	1.09913
2834.98971	1.09311
2833.06115	1.08931
2831.13258	1.08780
2829.20402	1.08673
2827.27545	1.08360
2825.34689	1.07906
2823.41832	1.07533
2821.48976	1.07197
2819.56120	1.06751
2817.63263	1.06264
2815.70407	1.05854
2813.77550	1.05498
2811.84694	1.05130
2809.91837	1.04781
2807.98981	1.04530
2806.06124	1.04345
2804.13268	1.04132
2802.20412	1.03829
2800.27555	1.03411
2798.34699	1.02979
2796.41842	1.02656
2794.48986	1.02397
2792.56129	1.02088
2790.63273	1.01760
2788.70416	1.01522
2786.77560	1.01329
2784.84704	1.01046
2782.91847	1.00648
2780.98991	1.00207
2779.06134	0.99834
2777.13278	0.99626
2775.20421	0.99524
2773.27565	0.99383
2771.34708	0.99154
2769.41852	0.98885
2767.48996	0.98645
2765.56139	0.98453
2763.63283	0.98280
2761.70426	0.98124
2759.77570	0.97974
2757.84713	0.97814
2755.91857	0.97636
2753.99001	0.97447
2752.06144	0.97285
2750.13288	0.97174
2748.20431	0.97067
2746.27575	0.96924
2744.34718	0.96768
2742.41862	0.96618
2740.49005	0.96439
2738.56149	0.96254
2736.63293	0.96158
2734.70436	0.96056
2732.77580	0.95812
2730.84723	0.95570
2728.91867	0.95440
2726.99010	0.95298
2725.06154	0.95046
2723.13297	0.94744
2721.20441	0.94506
2719.27585	0.94300
2717.34728	0.94009
2715.41872	0.93643
2713.49015	0.93261
2711.56159	0.92871
2709.63302	0.92515
2707.70446	0.92251
2705.77589	0.92035
2703.84733	0.91762
2701.91877	0.91443
2699.99020	0.91155
2698.06164	0.90881
2696.13307	0.90605
2694.20451	0.90360
2692.27594	0.90137
2690.34738	0.89891
2688.41881	0.89620
2686.49025	0.89344
2684.56169	0.89072
2682.63312	0.88837
2680.70456	0.88624
2678.77599	0.88375
2676.84743	0.88123
2674.91886	0.87910
2672.99030	0.87699
2671.06173	0.87493
2669.13317	0.87311
2667.20461	0.87147
2665.27604	0.87026
2663.34748	0.86933
2661.41891	0.86810
2659.49035	0.86645
2657.56178	0.86429
2655.63322	0.86190
2653.70465	0.85978
2651.77609	0.85789
2649.84753	0.85605
2647.91896	0.85427
2645.99040	0.85275
2644.06183	0.85140
2642.13327	0.84977
2640.20470	0.84774
2638.27614	0.84540
2636.34757	0.84321
2634.41901	0.84138
2632.49045	0.83958
2630.56188	0.83792
2628.63332	0.83665
2626.70475	0.83525
2624.77619	0.83288
2622.84762	0.82999
2620.91906	0.82806
2618.99049	0.82669
2617.06193	0.82470
2615.13337	0.82270
2613.20480	0.82120
2611.27624	0.81984
2609.34767	0.81851
2607.41911	0.81725
2605.49054	0.81578
2603.56198	0.81394
2601.63342	0.81185
2599.70485	0.81002
2597.77629	0.80890
2595.84772	0.80814
2593.91916	0.80735
2591.99059	0.80668
2590.06203	0.80586
2588.13346	0.80482
2586.20490	0.80419
2584.27634	0.80392
2582.34777	0.80327
2580.41921	0.80243
2578.49064	0.80208
2576.56208	0.80220
2574.63351	0.80209
2572.70495	0.80118
2570.77638	0.79994
2568.84782	0.79902
2566.91926	0.79803
2564.99069	0.79685
2563.06213	0.79591
2561.13356	0.79494
2559.20500	0.79365
2557.27643	0.79220
2555.34787	0.79061
2553.41930	0.78890
2551.49074	0.78707
2549.56218	0.78523
2547.63361	0.78341
2545.70505	0.78122
2543.77648	0.77853
2541.84792	0.77572
2539.91935	0.77333
2537.99079	0.77153
2536.06222	0.77003
2534.13366	0.76816
2532.20510	0.76551
2530.27653	0.76266
2528.34797	0.76023
2526.41940	0.75802
2524.49084	0.75569
2522.56227	0.75326
2520.63371	0.75101
2518.70514	0.74888
2516.77658	0.74660
2514.84802	0.74439
2512.91945	0.74239
2510.99089	0.74038
2509.06232	0.73837
2507.13376	0.73655
2505.20519	0.73508
2503.27663	0.73380
2501.34806	0.73214
2499.41950	0.73011
2497.49094	0.72830
2495.56237	0.72674
2493.63381	0.72532
2491.70524	0.72425
2489.77668	0.72319
2487.84811	0.72170
2485.91955	0.72016
2483.99098	0.71866
2482.06242	0.71698
2480.13386	0.71533
2478.20529	0.71388
2476.27673	0.71239
2474.34816	0.71075
2472.41960	0.70913
2470.49103	0.70777
2468.56247	0.70677
2466.63391	0.70567
2464.70534	0.70397
2462.77678	0.70200
2460.84821	0.70044
2458.91965	0.69941
2456.99108	0.69836
2455.06252	0.69674
2453.13395	0.69460
2451.20539	0.69250
2449.27683	0.69063
2447.34826	0.68865
2445.41970	0.68653
2443.49113	0.68458
2441.56257	0.68282
2439.63400	0.68093
2437.70544	0.67884
2435.77687	0.67672
2433.84831	0.67468
2431.91975	0.67281
2429.99118	0.67125
2428.06262	0.66982
2426.13405	0.66806
2424.20549	0.66626
2422.27692	0.66497
2420.34836	0.66395
2418.41979	0.66278
2416.49123	0.66139
2414.56267	0.65999
2412.63410	0.65879
2410.70554	0.65786
2408.77697	0.65727
2406.84841	0.65694
2404.91984	0.65652
2402.99128	0.65579
2401.06271	0.65531
2399.13415	0.65533
2397.20559	0.65499
2395.27702	0.65408
2393.34846	0.65315
2391.41989	0.65246
2389.49133	0.65249
2387.56276	0.65337
2385.63420	0.65428
2383.70563	0.65476
2381.77707	0.65549
2379.84851	0.65688
2377.91994	0.65844
2375.99138	0.66018
2374.06281	0.66307
2372.13425	0.66772
2370.20568	0.67266
2368.27712	0.67552
2366.34855	0.67747
2364.41999	0.68100
2362.49143	0.68452
2360.56286	0.68587
2358.63430	0.68489
2356.70573	0.68166
2354.77717	0.67706
2352.84860	0.67169
2350.92004	0.66588
2348.99147	0.66115
2347.06291	0.65949
2345.13435	0.66215
2343.20578	0.66609
2341.27722	0.66685
2339.34865	0.66551
2337.42009	0.66437
2335.49152	0.66331
2333.56296	0.66200
2331.63440	0.66118
2329.70583	0.66027
2327.77727	0.65839
2325.84870	0.65650
2323.92014	0.65528
2321.99157	0.65356
2320.06301	0.65116
2318.13444	0.64926
2316.20588	0.64764
2314.27732	0.64570
2312.34875	0.64357
2310.42019	0.64166
2308.49162	0.64008
2306.56306	0.63805
2304.63449	0.63563
2302.70593	0.63379
2300.77736	0.63235
2298.84880	0.63061
2296.92024	0.62867
2294.99167	0.62684
2293.06311	0.62491
2291.13454	0.62267
2289.20598	0.62041
2287.27741	0.61856
2285.34885	0.61719
2283.42028	0.61594
2281.49172	0.61457
2279.56316	0.61318
2277.63459	0.61179
2275.70603	0.61055
2273.77746	0.60955
2271.84890	0.60858
2269.92033	0.60755
2267.99177	0.60652
2266.06320	0.60546
2264.13464	0.60450
2262.20608	0.60372
2260.27751	0.60315
2258.34895	0.60288
2256.42038	0.60256
2254.49182	0.60170
2252.56325	0.60056
2250.63469	0.59979
2248.70612	0.59966
2246.77756	0.60006
2244.84900	0.60041
2242.92043	0.60046
2240.99187	0.60062
2239.06330	0.60083
2237.13474	0.60084
2235.20617	0.60099
2233.27761	0.60158
2231.34904	0.60239
2229.42048	0.60302
2227.49192	0.60354
2225.56335	0.60426
2223.63479	0.60523
2221.70622	0.60642
2219.77766	0.60754
2217.84909	0.60819
2215.92053	0.60867
2213.99196	0.60937
2212.06340	0.61018
2210.13484	0.61089
2208.20627	0.61135
2206.27771	0.61170
2204.34914	0.61225
2202.42058	0.61300
2200.49201	0.61367
2198.56345	0.61408
2196.63488	0.61424
2194.70632	0.61436
2192.77776	0.61464
2190.84919	0.61479
2188.92063	0.61452
2186.99206	0.61400
2185.06350	0.61361
2183.13493	0.61328
2181.20637	0.61269
2179.27781	0.61215
2177.34924	0.61188
2175.42068	0.61163
2173.49211	0.61133
2171.56355	0.61093
2169.63498	0.61037
2167.70642	0.60987
2165.77785	0.60953
2163.84929	0.60930
2161.92073	0.60909
2159.99216	0.60881
2158.06360	0.60850
2156.13503	0.60826
2154.20647	0.60821
2152.27790	0.60847
2150.34934	0.60883
2148.42077	0.60902
2146.49221	0.60880
2144.56365	0.60818
2142.63508	0.60770
2140.70652	0.60767
2138.77795	0.60790
2136.84939	0.60818
2134.92082	0.60845
2132.99226	0.60863
2131.06369	0.60885
2129.13513	0.60945
2127.20657	0.61017
2125.27800	0.61052
2123.34944	0.61072
2121.42087	0.61112
2119.49231	0.61165
2117.56374	0.61215
2115.63518	0.61248
2113.70661	0.61255
2111.77805	0.61270
2109.84949	0.61311
2107.92092	0.61349
2105.99236	0.61351
2104.06379	0.61331
2102.13523	0.61300
2100.20666	0.61255
2098.27810	0.61200
2096.34953	0.61129
2094.42097	0.61042
2092.49241	0.60968
2090.56384	0.60910
2088.63528	0.60834
2086.70671	0.60729
2084.77815	0.60623
2082.84958	0.60527
2080.92102	0.60435
2078.99245	0.60337
2077.06389	0.60221
2075.13533	0.60079
2073.20676	0.59918
2071.27820	0.59763
2069.34963	0.59633
2067.42107	0.59514
2065.49250	0.59394
2063.56394	0.59281
2061.63537	0.59177
2059.70681	0.59063
2057.77825	0.58933
2055.84968	0.58825
2053.92112	0.58763
2051.99255	0.58715
2050.06399	0.58668
2048.13542	0.58613
2046.20686	0.58542
2044.27830	0.58488
2042.34973	0.58471
2040.42117	0.58448
2038.49260	0.58403
2036.56404	0.58384
2034.63547	0.58397
2032.70691	0.58395
2030.77834	0.58377
2028.84978	0.58367
2026.92122	0.58361
2024.99265	0.58364
2023.06409	0.58378
2021.13552	0.58389
2019.20696	0.58416
2017.27839	0.58462
2015.34983	0.58473
2013.42126	0.58449
2011.49270	0.58429
2009.56414	0.58431
2007.63557	0.58439
2005.70701	0.58435
2003.77844	0.58435
2001.84988	0.58471
1999.92131	0.58538
1997.99275	0.58596
1996.06418	0.58628
1994.13562	0.58678
1992.20706	0.58769
1990.27849	0.58825
1988.34993	0.58819
1986.42136	0.58808
1984.49280	0.58800
1982.56423	0.58782
1980.63567	0.58774
1978.70710	0.58790
1976.77854	0.58812
1974.84998	0.58819
1972.92141	0.58807
1970.99285	0.58779
1969.06428	0.58775
1967.13572	0.58811
1965.20715	0.58819
1963.27859	0.58787
1961.35002	0.58790
1959.42146	0.58843
1957.49290	0.58895
1955.56433	0.58904
1953.63577	0.58890
1951.70720	0.58886
1949.77864	0.58889
1947.85007	0.58885
1945.92151	0.58883
1943.99294	0.58904
1942.06438	0.58904
1940.13582	0.58817
1938.20725	0.58703
1936.27869	0.58608
1934.35012	0.58491
1932.42156	0.58338
1930.49299	0.58172
1928.56443	0.58018
1926.63586	0.57899
1924.70730	0.57848
1922.77874	0.57805
1920.85017	0.57667
1918.92161	0.57516
1916.99304	0.57371
1915.06448	0.57151
1913.13591	0.56954
1911.20735	0.56863
1909.27878	0.56794
1907.35022	0.56653
1905.42166	0.56493
1903.49309	0.56378
1901.56453	0.56292
1899.63596	0.56219
1897.70740	0.56186
1895.77883	0.56193
1893.85027	0.56173
1891.92171	0.56139
1889.99314	0.56183
1888.06458	0.56228
1886.13601	0.56195
1884.20745	0.56152
1882.27888	0.56135
1880.35032	0.56152
1878.42175	0.56189
1876.49319	0.56209
1874.56463	0.56204
1872.63606	0.56195
1870.70750	0.56287
1868.77893	0.56520
1866.85037	0.56581
1864.92180	0.56397
1862.99324	0.56243
1861.06467	0.56230
1859.13611	0.56277
1857.20755	0.56287
1855.27898	0.56268
1853.35042	0.56257
1851.42185	0.56268
1849.49329	0.56313
1847.56472	0.56371
1845.63616	0.56483
1843.70759	0.56597
1841.77903	0.56493
1839.85047	0.56320
1837.92190	0.56261
1835.99334	0.56235
1834.06477	0.56149
1832.13621	0.56118
1830.20764	0.56215
1828.27908	0.56220
1826.35051	0.56090
1824.42195	0.55949
1822.49339	0.55749
1820.56482	0.55540
1818.63626	0.55416
1816.70769	0.55330
1814.77913	0.55238
1812.85056	0.55186
1810.92200	0.55186
1808.99343	0.55164
1807.06487	0.55096
1805.13631	0.55040
1803.20774	0.55074
1801.27918	0.55233
1799.35061	0.55382
1797.42205	0.55452
1795.49348	0.55545
1793.56492	0.55787
1791.63635	0.56113
1789.70779	0.56166
1787.77923	0.56097
1785.85066	0.56197
1783.92210	0.56453
1781.99353	0.56738
1780.06497	0.57006
1778.13640	0.57191
1776.20784	0.57349
1774.27927	0.57674
1772.35071	0.58240
1770.42215	0.58631
1768.49358	0.58762
1766.56502	0.58865
1764.63645	0.59020
1762.70789	0.59448
1760.77932	0.60099
1758.85076	0.60668
1756.92220	0.61364
1754.99363	0.62126
1753.06507	0.62948
1751.13650	0.64397
1749.20794	0.66424
1747.27937	0.67978
1745.35081	0.69038
1743.42224	0.69991
1741.49368	0.70909
1739.56512	0.71707
1737.63655	0.72144
1735.70799	0.72525
1733.77942	0.73402
1731.85086	0.74004
1729.92229	0.74203
1727.99373	0.74542
1726.06516	0.75054
1724.13660	0.75831
1722.20804	0.76750
1720.27947	0.77724
1718.35091	0.79512
1716.42234	0.82446
1714.49378	0.84576
1712.56521	0.86180
1710.63665	0.88103
1708.70808	0.90490
1706.77952	0.93817
1704.85096	0.97939
1702.92239	1.01300
1700.99383	1.05130
1699.06526	1.10641
1697.13670	1.14933
1695.20813	1.18002
1693.27957	1.19547
1691.35100	1.20324
1689.42244	1.21337
1687.49388	1.22132
1685.56531	1.22655
1683.63675	1.23338
1681.70818	1.23642
1679.77962	1.23618
1677.85105	1.23596
1675.92249	1.23781
1673.99392	1.24053
1672.06536	1.24311
1670.13680	1.24766
1668.20823	1.25060
1666.27967	1.24851
1664.35110	1.24600
1662.42254	1.24538
1660.49397	1.24495
1658.56541	1.24412
1656.63684	1.24350
1654.70828	1.24646
1652.77972	1.25407
1650.85115	1.25307
1648.92259	1.25146
1646.99402	1.25420
1645.06546	1.25340
1643.13689	1.24862
1641.20833	1.24512
1639.27976	1.24267
1637.35120	1.24138
1635.42264	1.24257
1633.49407	1.24147
1631.56551	1.23810
1629.63694	1.23473
1627.70838	1.23170
1625.77981	1.22859
1623.85125	1.22682
1621.92269	1.22655
1619.99412	1.22600
1618.06556	1.22677
1616.13699	1.22821
1614.20843	1.22632
1612.27986	1.22302
1610.35130	1.22009
1608.42273	1.21678
1606.49417	1.21224
1604.56561	1.20744
1602.63704	1.20281
1600.70848	1.19797
1598.77991	1.19336
1596.85135	1.19027
1594.92278	1.18869
1592.99422	1.18726
1591.06565	1.18551
1589.13709	1.18387
1587.20853	1.18336
1585.27996	1.18418
1583.35140	1.18542
1581.42283	1.18607
1579.49427	1.18652
1577.56570	1.19001
1575.63714	1.19672
1573.70857	1.19831
1571.78001	1.19819
1569.85145	1.20178
1567.92288	1.20546
1565.99432	1.20611
1564.06575	1.20572
1562.13719	1.20429
1560.20862	1.20618
1558.28006	1.21836
1556.35149	1.22119
1554.42293	1.21711
1552.49437	1.21297
1550.56580	1.21032
1548.63724	1.20827
1546.70867	1.20708
1544.78011	1.20978
1542.85154	1.21723
1540.92298	1.22206
1538.99441	1.21538
1537.06585	1.20910
1535.13729	1.20820
1533.20872	1.21093
1531.28016	1.21015
1529.35159	1.20712
1527.42303	1.20613
1525.49446	1.20561
1523.56590	1.20444
1521.63733	1.20363
1519.70877	1.20127
1517.78021	1.19813
1515.85164	1.19512
1513.92308	1.19117
1511.99451	1.18608
1510.06595	1.18127
1508.13738	1.17821
1506.20882	1.17241
1504.28025	1.16377
1502.35169	1.15645
1500.42313	1.14976
1498.49456	1.14293
1496.56600	1.13397
1494.63743	1.12372
1492.70887	1.11497
1490.78030	1.10699
1488.85174	1.09776
1486.92317	1.08688
1484.99461	1.07630
1483.06605	1.06789
1481.13748	1.06217
1479.20892	1.05897
1477.28035	1.05882
1475.35179	1.06281
1473.42322	1.07162
1471.49466	1.07943
1469.56610	1.08140
1467.63753	1.08247
1465.70897	1.08607
1463.78040	1.09014
1461.85184	1.09112
1459.92327	1.09197
1457.99471	1.09927
1456.06614	1.10765
1454.13758	1.10572
1452.20902	1.10240
1450.28045	1.10151
1448.35189	1.10240
1446.42332	1.10242
1444.49476	1.10099
1442.56619	1.09920
1440.63763	1.09736
1438.70906	1.09610
1436.78050	1.09522
1434.85194	1.09204
1432.92337	1.08808
1430.99481	1.08577
1429.06624	1.08429
1427.13768	1.08266
1425.20911	1.08219
1423.28055	1.08296
1421.35198	1.08428
1419.42342	1.08757
1417.49486	1.09017
1415.56629	1.08849
1413.63773	1.08580
1411.70916	1.08417
1409.78060	1.08329
1407.85203	1.08275
1405.92347	1.08260
1403.99490	1.08178
1402.06634	1.08049
1400.13778	1.08022
1398.20921	1.07996
1396.28065	1.07812
1394.35208	1.07511
1392.42352	1.07147
1390.49495	1.06840
1388.56639	1.06704
1386.63782	1.06638
1384.70926	1.06512
1382.78070	1.06485
1380.85213	1.06549
1378.92357	1.06465
1376.99500	1.06202
1375.06644	1.05833
1373.13787	1.05197
1371.20931	1.04353
1369.28074	1.03457
1367.35218	1.02499
1365.42362	1.01557
1363.49505	1.00689
1361.56649	0.99871
1359.63792	0.99153
1357.70936	0.98655
1355.78079	0.98415
1353.85223	0.98310
1351.92366	0.98243
1349.99510	0.98257
1348.06654	0.98341
1346.13797	0.98449
1344.20941	0.98587
1342.28084	0.98811
1340.35228	0.99216
1338.42371	0.99639
1336.49515	0.99859
1334.56659	1.00068
1332.63802	1.00443
1330.70946	1.00984
1328.78089	1.01583
1326.85233	1.02124
1324.92376	1.02587
1322.99520	1.02990
1321.06663	1.03372
1319.13807	1.03768
1317.20951	1.04092
1315.28094	1.04286
1313.35238	1.04426
1311.42381	1.04546
1309.49525	1.04639
1307.56668	1.04684
1305.63812	1.04612
1303.70955	1.04433
1301.78099	1.04224
1299.85243	1.03948
1297.92386	1.03540
1295.99530	1.03047
1294.06673	1.02524
1292.13817	1.02021
1290.20960	1.01590
1288.28104	1.01201
1286.35247	1.00762
1284.42391	1.00274
1282.49535	0.99836
1280.56678	0.99504
1278.63822	0.99255
1276.70965	0.99053
1274.78109	0.98906
1272.85252	0.98850
1270.92396	0.98854
1268.99539	0.98883
1267.06683	0.99011
1265.13827	0.99238
1263.20970	0.99427
1261.28114	0.99537
1259.35257	0.99613
1257.42401	0.99653
1255.49544	0.99675
1253.56688	0.99730
1251.63831	0.99819
1249.70975	0.99896
1247.78119	0.99933
1245.85262	0.99964
1243.92406	0.99996
1241.99549	1.00013
1240.06693	0.99980
1238.13836	0.99866
1236.20980	0.99717
1234.28123	0.99559
1232.35267	0.99360
1230.42411	0.99104
1228.49554	0.98790
1226.56698	0.98410
1224.63841	0.97982
1222.70985	0.97528
1220.78128	0.97064
1218.85272	0.96627
1216.92415	0.96248
1214.99559	0.95950
1213.06703	0.95775
1211.13846	0.95714
1209.20990	0.95707
1207.28133	0.95661
1205.35277	0.95445
1203.42420	0.95028
1201.49564	0.94503
1199.56708	0.93946
1197.63851	0.93365
1195.70995	0.92784
1193.78138	0.92265
1191.85282	0.91851
1189.92425	0.91548
1187.99569	0.91364
1186.06712	0.91309
1184.13856	0.91380
1182.21000	0.91553
1180.28143	0.91842
1178.35287	0.92358
1176.42430	0.93133
1174.49574	0.94013
1172.56717	0.94864
1170.63861	0.95704
1168.71004	0.96587
1166.78148	0.97471
1164.85292	0.98278
1162.92435	0.98997
1160.99579	0.99560
1159.06722	0.99848
1157.13866	0.99840
1155.21009	0.99544
1153.28153	0.98981
1151.35296	0.98292
1149.42440	0.97695
1147.49584	0.97275
1145.56727	0.96956
1143.63871	0.96727
1141.71014	0.96723
1139.78158	0.97027
1137.85301	0.97540
1135.92445	0.98145
1133.99588	0.98802
1132.06732	0.99502
1130.13876	1.00273
1128.21019	1.01050
1126.28163	1.01709
1124.35306	1.02227
1122.42450	1.02611
1120.49593	1.02901
1118.56737	1.03145
1116.63880	1.03290
1114.71024	1.03294
1112.78168	1.03215
1110.85311	1.03123
1108.92455	1.03003
1106.99598	1.02812
1105.06742	1.02614
1103.13885	1.02502
1101.21029	1.02517
1099.28172	1.02659
1097.35316	1.02892
1095.42460	1.03240
1093.49603	1.03757
1091.56747	1.04337
1089.63890	1.04871
1087.71034	1.05386
1085.78177	1.05838
1083.85321	1.06140
1081.92464	1.06230
1079.99608	1.06035
1078.06752	1.05573
1076.13895	1.04918
1074.21039	1.04175
1072.28182	1.03412
1070.35326	1.02599
1068.42469	1.01775
1066.49613	1.01099
1064.56756	1.00697
1062.63900	1.00453
1060.71044	1.00091
1058.78187	0.99576
1056.85331	0.99108
1054.92474	0.98801
1052.99618	0.98601
1051.06761	0.98398
1049.13905	0.98205
1047.21049	0.98142
1045.28192	0.98240
1043.35336	0.98412
1041.42479	0.98571
1039.49623	0.98713
1037.56766	0.98788
1035.63910	0.98754
1033.71053	0.98709
1031.78197	0.98594
1029.85341	0.98249
1027.92484	0.97762
1025.99628	0.97275
1024.06771	0.96822
1022.13915	0.96437
1020.21058	0.96081
1018.28202	0.95696
1016.35345	0.95252
1014.42489	0.94686
1012.49633	0.93983
1010.56776	0.93127
1008.63920	0.92062
1006.71063	0.90868
1004.78207	0.89683
1002.85350	0.88563
1000.92494	0.87530
998.99637	0.86645
997.06781	0.85935
995.13925	0.85317
993.21068	0.84696
991.28212	0.84027
989.35355	0.83301
987.42499	0.82538
985.49642	0.81758
983.56786	0.81059
981.63929	0.80552
979.71073	0.80225
977.78217	0.80031
975.85360	0.79904
973.92504	0.79693
971.99647	0.79288
970.06791	0.78743
968.13934	0.78201
966.21078	0.77792
964.28221	0.77590
962.35365	0.77674
960.42509	0.78131
958.49652	0.78874
956.56796	0.79554
954.63939	0.79810
952.71083	0.79558
950.78226	0.78927
948.85370	0.78106
946.92513	0.77317
944.99657	0.76684
943.06801	0.76186
941.13944	0.75760
939.21088	0.75397
937.28231	0.75146
935.35375	0.75002
933.42518	0.74867
931.49662	0.74719
929.56805	0.74620
927.63949	0.74584
925.71093	0.74616
923.78236	0.74717
921.85380	0.74842
919.92523	0.74901
917.99667	0.74820
916.06810	0.74663
914.13954	0.74541
912.21098	0.74490
910.28241	0.74537
908.35385	0.74705
906.42528	0.75005
904.49672	0.75417
902.56815	0.75854
900.63959	0.76221
898.71102	0.76469
896.78246	0.76594
894.85390	0.76595
892.92533	0.76527
890.99677	0.76476
889.06820	0.76459
887.13964	0.76453
885.21107	0.76457
883.28251	0.76538
881.35394	0.76745
879.42538	0.77027
877.49682	0.77341
875.56825	0.77669
873.63969	0.77951
871.71112	0.78194
869.78256	0.78445
867.85399	0.78673
865.92543	0.78862
863.99686	0.79016
862.06830	0.79145
860.13974	0.79358
858.21117	0.79733
856.28261	0.80162
854.35404	0.80553
852.42548	0.80951
850.49691	0.81353
848.56835	0.81694
846.63978	0.81961
844.71122	0.82188
842.78266	0.82408
840.85409	0.82566
838.92553	0.82615
836.99696	0.82601
835.06840	0.82598
833.13983	0.82662
831.21127	0.82745
829.28270	0.82719
827.35414	0.82506
825.42558	0.82197
823.49701	0.81959
821.56845	0.81797
819.63988	0.81623
817.71132	0.81484
815.78275	0.81504
813.85419	0.81648
811.92562	0.81769
809.99706	0.81855
808.06850	0.82047
806.13993	0.82376
804.21137	0.82743
802.28280	0.83124
800.35424	0.83540
798.42567	0.83958
796.49711	0.84385
794.56854	0.84872
792.63998	0.85387
790.71142	0.85887
788.78285	0.86437
786.85429	0.87121
784.92572	0.87941
782.99716	0.88805
781.06859	0.89616
779.14003	0.90374
777.21147	0.91128
775.28290	0.91835
773.35434	0.92448
771.42577	0.93063
769.49721	0.93664
767.56864	0.94115
765.64008	0.94459
763.71151	0.94826
761.78295	0.95248
759.85439	0.95653
757.92582	0.95994
755.99726	0.96317
754.06869	0.96623
752.14013	0.96857
750.21156	0.97002
748.28300	0.97140
746.35443	0.97334
744.42587	0.97375
742.49731	0.97071
740.56874	0.96632
738.64018	0.96289
736.71161	0.96006
734.78305	0.95724
732.85448	0.95507
730.92592	0.95394
728.99735	0.95285
727.06879	0.95209
725.14023	0.95308
723.21166	0.95542
721.28310	0.95801
719.35453	0.96010
717.42597	0.96149
715.49740	0.96274
713.56884	0.96460
711.64027	0.96823
709.71171	0.97381
707.78315	0.97989
705.85458	0.98475
703.92602	0.98777
701.99745	0.98946
700.06889	0.98993
698.14032	0.98927
696.21176	0.98940
694.28319	0.99211
692.35463	0.99563
690.42607	0.99736
688.49750	0.99785
686.56894	0.99818
684.64037	0.99824
682.71181	0.99954
680.78324	1.00392
678.85468	1.01033
676.92611	1.01585
674.99755	1.01886
673.06899	1.02085
671.14042	1.02354
669.21186	1.02734
667.28329	1.03165
665.35473	1.03470
663.42616	1.03735
661.49760	1.04039
659.56903	1.04356
657.64047	1.04580
655.71191	1.04669
653.78334	1.04701
651.85478	1.04645
649.92621	1.04430
647.99765	1.04088
646.06908	1.03819
644.14052	1.03955
642.21195	1.04259
640.28339	1.04099
638.35483	1.03578
636.42626	1.03129
634.49770	1.02655
632.56913	1.02005
630.64057	1.01406
628.71200	1.00995
626.78344	1.00611
624.85488	1.00191
622.92631	0.99823
620.99775	0.99585
619.06918	0.99475
617.14062	0.99264
615.21205	0.98852
613.28349	0.98504
611.35492	0.98275
609.42636	0.98062
607.49780	0.98018
605.56923	0.98050
603.64067	0.97837
601.71210	0.97580
599.78354	0.97674
