3997.91406	1.07051
3995.98550	1.07154
3994.05693	1.07004
3992.12837	1.06847
3990.19980	1.06805
3988.27124	1.06604
3986.34268	1.06363
3984.41411	1.06358
3982.48555	1.06343
3980.55698	1.06137
3978.62842	1.05918
3976.69985	1.05830
3974.77129	1.05846
3972.84272	1.05708
3970.91416	1.05353
3968.98560	1.05172
3967.05703	1.05271
3965.12847	1.05217
3963.19990	1.04934
3961.27134	1.04842
3959.34277	1.04918
3957.41421	1.04837
3955.48564	1.04705
3953.55708	1.04587
3951.62852	1.04395
3949.69995	1.04506
3947.77139	1.04844
3945.84282	1.04714
3943.91426	1.04297
3941.98569	1.04013
3940.05713	1.03828
3938.12856	1.03729
3936.20000	1.03753
3934.27144	1.03962
3932.34287	1.04361
3930.41431	1.04550
3928.48574	1.04196
3926.55718	1.03730
3924.62861	1.03613
3922.70005	1.03500
3920.77148	1.03272
3918.84292	1.03271
3916.91436	1.03363
3914.98579	1.03299
3913.05723	1.03079
3911.12866	1.02727
3909.20010	1.02232
3907.27153	1.01789
3905.34297	1.02009
3903.41440	1.02956
3901.48584	1.03573
3899.55728	1.03726
3897.62871	1.03471
3895.70015	1.02785
3893.77158	1.02219
3891.84302	1.02247
3889.91445	1.02209
3887.98589	1.01879
3886.05733	1.02039
3884.12876	1.02318
3882.20020	1.02285
3880.27163	1.02494
3878.34307	1.02143
3876.41450	1.01329
3874.48594	1.00930
3872.55737	1.00900
3870.62881	1.01320
3868.70025	1.01706
3866.77168	1.01193
3864.84312	1.00778
3862.91455	1.01027
3860.98599	1.00959
3859.05742	1.00440
3857.12886	1.00084
3855.20029	1.00607
3853.27173	1.01936
3851.34317	1.01642
3849.41460	1.00566
3847.48604	0.99755
3845.55747	0.99429
3843.62891	0.99435
3841.70034	0.99400
3839.77178	0.99781
3837.84321	1.00706
3835.91465	1.00751
3833.98609	1.00154
3832.05752	0.99776
3830.12896	0.99527
3828.20039	0.99224
3826.27183	0.98846
3824.34326	0.98249
3822.41470	0.98277
3820.48613	0.99423
3818.55757	0.99629
3816.62901	0.99313
3814.70044	0.98934
3812.77188	0.98077
3810.84331	0.97238
3808.91475	0.97009
3806.98618	0.97592
3805.05762	0.97866
3803.12905	0.97966
3801.20049	0.98679
3799.27193	0.98556
3797.34336	0.97999
3795.41480	0.97777
3793.48623	0.97499
3791.55767	0.97221
3789.62910	0.97027
3787.70054	0.96840
3785.77197	0.96853
3783.84341	0.96940
3781.91485	0.96890
3779.98628	0.97024
3778.05772	0.97058
3776.12915	0.96615
3774.20059	0.96135
3772.27202	0.95938
3770.34346	0.96162
3768.41489	0.96535
3766.48633	0.96774
3764.55777	0.96756
3762.62920	0.96345
3760.70064	0.96219
3758.77207	0.96801
3756.84351	0.96936
3754.91494	0.96307
3752.98638	0.96092
3751.05781	0.97492
3749.12925	0.98219
3747.20069	0.97300
3745.27212	0.96868
3743.34356	0.97014
3741.41499	0.96463
3739.48643	0.95665
3737.55786	0.95581
3735.62930	0.96854
3733.70074	0.97725
3731.77217	0.97049
3729.84361	0.96123
3727.91504	0.95565
3725.98648	0.95588
3724.05791	0.95901
3722.12935	0.95898
3720.20078	0.95441
3718.27222	0.94734
3716.34366	0.94032
3714.41509	0.93679
3712.48653	0.94511
3710.55796	0.96091
3708.62940	0.95954
3706.70083	0.94850
3704.77227	0.94023
3702.84370	0.94004
3700.91514	0.94418
3698.98658	0.94418
3697.05801	0.94267
3695.12945	0.94161
3693.20088	0.94061
3691.27232	0.94550
3689.34375	0.95668
3687.41519	0.95640
3685.48662	0.94962
3683.55806	0.94519
3681.62950	0.94264
3679.70093	0.94076
3677.77237	0.94375
3675.84380	0.96006
3673.91524	0.96803
3671.98667	0.96229
3670.05811	0.96576
3668.12954	0.97127
3666.20098	0.96712
3664.27242	0.96253
3662.34385	0.96164
3660.41529	0.96183
3658.48672	0.96307
3656.55816	0.97010
3654.62959	0.97676
3652.70103	0.97809
3650.77246	0.98573
3648.84390	1.00845
3646.91534	1.01715
3644.98677	1.01172
3643.05821	1.00850
3641.12964	1.01073
3639.20108	1.01349
3637.27251	1.01458
3635.34395	1.01653
3633.41538	1.01844
3631.48682	1.02039
3629.55826	1.03419
3627.62969	1.05154
3625.70113	1.05043
3623.77256	1.04533
3621.84400	1.04485
3619.91543	1.05269
3617.98687	1.06373
3616.05830	1.06755
3614.12974	1.06910
3612.20118	1.07209
3610.27261	1.07594
3608.34405	1.08166
3606.41548	1.08525
3604.48692	1.08554
3602.55835	1.08808
3600.62979	1.09507
3598.70123	1.10253
3596.77266	1.10771
3594.84410	1.11149
3592.91553	1.11268
3590.98697	1.11194
3589.05840	1.11778
3587.12984	1.13258
3585.20127	1.13876
3583.27271	1.13859
3581.34415	1.14161
3579.41558	1.14575
3577.48702	1.14819
3575.55845	1.15081
3573.62989	1.15383
3571.70132	1.15693
3569.77276	1.16411
3567.84419	1.17864
3565.91563	1.18767
3563.98707	1.18469
3562.05850	1.18306
3560.12994	1.18689
3558.20137	1.19203
3556.27281	1.19564
3554.34424	1.20046
3552.41568	1.20915
3550.48711	1.21656
3548.55855	1.21985
3546.62999	1.22519
3544.70142	1.23411
3542.77286	1.24021
3540.84429	1.24214
3538.91573	1.24317
3536.98716	1.24622
3535.05860	1.24845
3533.13003	1.24797
3531.20147	1.25058
3529.27291	1.25914
3527.34434	1.27077
3525.41578	1.28339
3523.48721	1.29548
3521.55865	1.30278
3519.63008	1.30417
3517.70152	1.30525
3515.77295	1.31035
3513.84439	1.31856
3511.91583	1.32701
3509.98726	1.33462
3508.05870	1.34160
3506.13013	1.34755
3504.20157	1.35331
3502.27300	1.35884
3500.34444	1.36474
3498.41587	1.37292
3496.48731	1.38200
3494.55875	1.38975
3492.63018	1.39618
3490.70162	1.40102
3488.77305	1.40430
3486.84449	1.41000
3484.91592	1.41725
3482.98736	1.41934
3481.05879	1.41727
3479.13023	1.41708
3477.20167	1.41996
3475.27310	1.42426
3473.34454	1.42977
3471.41597	1.43540
3469.48741	1.43838
3467.55884	1.43909
3465.63028	1.43956
3463.70171	1.44136
3461.77315	1.44563
3459.84459	1.45219
3457.91602	1.45706
3455.98746	1.45649
3454.05889	1.45352
3452.13033	1.44959
3450.20176	1.44626
3448.27320	1.45191
3446.34464	1.46429
3444.41607	1.47015
3442.48751	1.47067
3440.55894	1.47043
3438.63038	1.46939
3436.70181	1.47137
3434.77325	1.47498
3432.84468	1.47469
3430.91612	1.47222
3428.98756	1.47200
3427.05899	1.47287
3425.13043	1.47031
3423.20186	1.46696
3421.27330	1.46758
3419.34473	1.46874
3417.41617	1.46873
3415.48760	1.47025
3413.55904	1.47147
3411.63048	1.47154
3409.70191	1.47239
3407.77335	1.47304
3405.84478	1.47232
3403.91622	1.46987
3401.98765	1.46787
3400.05909	1.46845
3398.13052	1.46668
3396.20196	1.46096
3394.27340	1.45881
3392.34483	1.46315
3390.41627	1.46841
3388.48770	1.46909
3386.55914	1.46589
3384.63057	1.46482
3382.70201	1.46630
3380.77344	1.46498
3378.84488	1.46459
3376.91632	1.46983
3374.98775	1.47409
3373.05919	1.47292
3371.13062	1.47123
3369.20206	1.47128
3367.27349	1.47217
3365.34493	1.47657
3363.41636	1.48191
3361.48780	1.48080
3359.55924	1.47597
3357.63067	1.47607
3355.70211	1.48141
3353.77354	1.48475
3351.84498	1.48345
3349.91641	1.48167
3347.98785	1.48238
3346.05928	1.48363
3344.13072	1.48325
3342.20216	1.48547
3340.27359	1.49253
3338.34503	1.49991
3336.41646	1.50602
3334.48790	1.51013
3332.55933	1.51058
3330.63077	1.51004
3328.70220	1.51094
3326.77364	1.51407
3324.84508	1.51861
3322.91651	1.51907
3320.98795	1.51615
3319.05938	1.51667
3317.13082	1.51912
3315.20225	1.52108
3313.27369	1.52803
3311.34513	1.54189
3309.41656	1.55346
3307.48800	1.55540
3305.55943	1.55325
3303.63087	1.55105
3301.70230	1.54830
3299.77374	1.54950
3297.84517	1.55422
3295.91661	1.55326
3293.98805	1.54758
3292.05948	1.55001
3290.13092	1.56099
3288.20235	1.56734
3286.27379	1.56603
3284.34522	1.56393
3282.41666	1.56295
3280.48809	1.56226
3278.55953	1.56288
3276.63097	1.56471
3274.70240	1.56537
3272.77384	1.56308
3270.84527	1.55832
3268.91671	1.55228
3266.98814	1.54537
3265.05958	1.53788
3263.13101	1.53220
3261.20245	1.52984
3259.27389	1.52499
3257.34532	1.51340
3255.41676	1.50153
3253.48819	1.49437
3251.55963	1.48785
3249.63106	1.47891
3247.70250	1.47066
3245.77393	1.46448
3243.84537	1.45822
3241.91681	1.45330
3239.98824	1.45152
3238.05968	1.44885
3236.13111	1.44228
3234.20255	1.43383
3232.27398	1.42532
3230.34542	1.41779
3228.41685	1.41152
3226.48829	1.40555
3224.55973	1.39938
3222.63116	1.39346
3220.70260	1.38979
3218.77403	1.38890
3216.84547	1.38679
3214.91690	1.38041
3212.98834	1.37397
3211.05977	1.37117
3209.13121	1.36755
3207.20265	1.36058
3205.27408	1.35366
3203.34552	1.34838
3201.41695	1.34495
3199.48839	1.34286
3197.55982	1.33936
3195.63126	1.33428
3193.70269	1.33004
3191.77413	1.32447
3189.84557	1.31537
3187.91700	1.30615
3185.98844	1.29933
3184.05987	1.29603
3182.13131	1.29537
3180.20274	1.29177
3178.27418	1.28452
3176.34562	1.27911
3174.41705	1.27629
3172.48849	1.27246
3170.55992	1.26641
3168.63136	1.26097
3166.70279	1.25916
3164.77423	1.25881
3162.84566	1.25600
3160.91710	1.25059
3158.98854	1.24453
3157.05997	1.23960
3155.13141	1.23627
3153.20284	1.23276
3151.27428	1.22819
3149.34571	1.22424
3147.41715	1.22169
3145.48858	1.21998
3143.56002	1.21939
3141.63146	1.21983
3139.70289	1.21959
3137.77433	1.21661
3135.84576	1.21182
3133.91720	1.20933
3131.98863	1.20937
3130.06007	1.20844
3128.13150	1.20634
3126.20294	1.20493
3124.27438	1.20475
3122.34581	1.20525
3120.41725	1.20560
3118.48868	1.20617
3116.56012	1.20761
3114.63155	1.20865
3112.70299	1.20868
3110.77442	1.20887
3108.84586	1.20897
3106.91730	1.20842
3104.98873	1.20843
3103.06017	1.20862
3101.13160	1.20692
3099.20304	1.20404
3097.27447	1.20224
3095.34591	1.20069
3093.41734	1.19803
3091.48878	1.19478
3089.56022	1.19127
3087.63165	1.18884
3085.70309	1.18780
3083.77452	1.18563
3081.84596	1.18265
3079.91739	1.18131
3077.98883	1.18036
3076.06026	1.17761
3074.13170	1.17425
3072.20314	1.17104
3070.27457	1.16700
3068.34601	1.16289
3066.41744	1.15996
3064.48888	1.15770
3062.56031	1.15516
3060.63175	1.15269
3058.70318	1.15053
3056.77462	1.14705
3054.84606	1.14189
3052.91749	1.13684
3050.98893	1.13282
3049.06036	1.12925
3047.13180	1.12479
3045.20323	1.11967
3043.27467	1.11546
3041.34610	1.11183
3039.41754	1.10769
3037.48898	1.10407
3035.56041	1.10263
3033.63185	1.10261
3031.70328	1.10162
3029.77472	1.09858
3027.84615	1.09474
3025.91759	1.09129
3023.98903	1.08809
3022.06046	1.08481
3020.13190	1.08114
3018.20333	1.07799
3016.27477	1.07738
3014.34620	1.07870
3012.41764	1.07837
3010.48907	1.07557
3008.56051	1.07342
3006.63195	1.07299
3004.70338	1.07279
3002.77482	1.07288
3000.84625	1.07327
2998.91769	1.07290
2996.98912	1.07228
2995.06056	1.07312
2993.13199	1.07582
2991.20343	1.07907
2989.27487	1.08187
2987.34630	1.08477
2985.41774	1.08824
2983.48917	1.09209
2981.56061	1.09680
2979.63204	1.10308
2977.70348	1.10986
2975.77491	1.11547
2973.84635	1.12064
2971.91779	1.12734
2969.98922	1.13541
2968.06066	1.14263
2966.13209	1.14746
2964.20353	1.14957
2962.27496	1.14895
2960.34640	1.14705
2958.41783	1.14471
2956.48927	1.14056
2954.56071	1.13484
2952.63214	1.12967
2950.70358	1.12587
2948.77501	1.12285
2946.84645	1.12097
2944.91788	1.12256
2942.98932	1.12825
2941.06075	1.13605
2939.13219	1.14491
2937.20363	1.15391
2935.27506	1.16118
2933.34650	1.16650
2931.41793	1.17183
2929.48937	1.17882
2927.56080	1.18593
2925.63224	1.19018
2923.70367	1.19118
2921.77511	1.19112
2919.84655	1.19057
2917.91798	1.18667
2915.98942	1.17724
2914.06085	1.16284
2912.13229	1.14592
2910.20372	1.13032
2908.27516	1.11766
2906.34659	1.10692
2904.41803	1.09802
2902.48947	1.09227
2900.56090	1.08976
2898.63234	1.08850
2896.70377	1.08622
2894.77521	1.08190
2892.84664	1.07739
2890.91808	1.07486
2888.98952	1.07251
2887.06095	1.06888
2885.13239	1.06586
2883.20382	1.06409
2881.27526	1.06289
2879.34669	1.06327
2877.41813	1.06549
2875.48956	1.06704
2873.56100	1.06574
2871.63244	1.06169
2869.70387	1.05534
2867.77531	1.04763
2865.84674	1.04108
2863.91818	1.03757
2861.98961	1.03701
2860.06105	1.03882
2858.13248	1.04245
2856.20392	1.04737
2854.27536	1.05297
2852.34679	1.05787
2850.41823	1.05856
2848.48966	1.04983
2846.56110	1.03140
2844.63253	1.01081
2842.70397	0.99408
2840.77540	0.98069
2838.84684	0.96977
2836.91828	0.96221
2834.98971	0.95684
2833.06115	0.95206
2831.13258	0.94849
2829.20402	0.94586
2827.27545	0.94238
2825.34689	0.93807
2823.41832	0.93400
2821.48976	0.93055
2819.56120	0.92830
2817.63263	0.92670
2815.70407	0.92351
2813.77550	0.91899
2811.84694	0.91593
2809.91837	0.91456
2807.98981	0.91312
2806.06124	0.91112
2804.13268	0.90861
2802.20412	0.90563
2800.27555	0.90298
2798.34699	0.90089
2796.41842	0.89853
2794.48986	0.89571
2792.56129	0.89318
2790.63273	0.89129
2788.70416	0.88974
2786.77560	0.88805
2784.84704	0.88587
2782.91847	0.88336
2780.98991	0.88084
2779.06134	0.87873
2777.13278	0.87749
2775.20421	0.87629
2773.27565	0.87398
2771.34708	0.87128
2769.41852	0.86951
2767.48996	0.86832
2765.56139	0.86672
2763.63283	0.86480
2761.70426	0.86331
2759.77570	0.86220
2757.84713	0.86098
2755.91857	0.85956
2753.99001	0.85800
2752.06144	0.85625
2750.13288	0.85467
2748.20431	0.85360
2746.27575	0.85262
2744.34718	0.85146
2742.41862	0.85032
2740.49005	0.84917
2738.56149	0.84814
2736.63293	0.84743
2734.70436	0.84654
2732.77580	0.84500
2730.84723	0.84323
2728.91867	0.84224
2726.99010	0.84207
2725.06154	0.84155
2723.13297	0.83998
2721.20441	0.83799
2719.27585	0.83644
2717.34728	0.83531
2715.41872	0.83412
2713.49015	0.83324
2711.56159	0.83275
2709.63302	0.83194
2707.70446	0.83085
2705.77589	0.82961
2703.84733	0.82805
2701.91877	0.82679
2699.99020	0.82602
2698.06164	0.82511
2696.13307	0.82388
2694.20451	0.82248
2692.27594	0.82077
2690.34738	0.81892
2688.41881	0.81750
2686.49025	0.81644
2684.56169	0.81547
2682.63312	0.81474
2680.70456	0.81372
2678.77599	0.81219
2676.84743	0.81080
2674.91886	0.80947
2672.99030	0.80780
2671.06173	0.80617
2669.13317	0.80504
2667.20461	0.80421
2665.27604	0.80318
2663.34748	0.80157
2661.41891	0.79953
2659.49035	0.79748
2657.56178	0.79549
2655.63322	0.79355
2653.70465	0.79190
2651.77609	0.79053
2649.84753	0.78932
2647.91896	0.78792
2645.99040	0.78608
2644.06183	0.78458
2642.13327	0.78399
2640.20470	0.78356
2638.27614	0.78294
2636.34757	0.78254
2634.41901	0.78190
2632.49045	0.78025
2630.56188	0.77828
2628.63332	0.77707
2626.70475	0.77602
2624.77619	0.77455
2622.84762	0.77330
2620.91906	0.77246
2618.99049	0.77129
2617.06193	0.76981
2615.13337	0.76883
2613.20480	0.76828
2611.27624	0.76756
2609.34767	0.76675
2607.41911	0.76592
2605.49054	0.76487
2603.56198	0.76374
2601.63342	0.76264
2599.70485	0.76176
2597.77629	0.76148
2595.84772	0.76159
2593.91916	0.76128
2591.99059	0.76015
2590.06203	0.75862
2588.13346	0.75768
2586.20490	0.75744
2584.27634	0.75690
2582.34777	0.75595
2580.41921	0.75548
2578.49064	0.75533
2576.56208	0.75485
2574.63351	0.75424
2572.70495	0.75352
2570.77638	0.75236
2568.84782	0.75124
2566.91926	0.75053
2564.99069	0.74981
2563.06213	0.74906
2561.13356	0.74846
2559.20500	0.74770
2557.27643	0.74649
2555.34787	0.74499
2553.41930	0.74373
2551.49074	0.74313
2549.56218	0.74265
2547.63361	0.74154
2545.70505	0.74025
2543.77648	0.73920
2541.84792	0.73812
2539.91935	0.73711
2537.99079	0.73621
2536.06222	0.73521
2534.13366	0.73430
2532.20510	0.73345
2530.27653	0.73253
2528.34797	0.73178
2526.41940	0.73101
2524.49084	0.72984
2522.56227	0.72836
2520.63371	0.72708
2518.70514	0.72605
2516.77658	0.72471
2514.84802	0.72316
2512.91945	0.72178
2510.99089	0.72035
2509.06232	0.71874
2507.13376	0.71702
2505.20519	0.71510
2503.27663	0.71331
2501.34806	0.71206
2499.41950	0.71112
2497.49094	0.71006
2495.56237	0.70875
2493.63381	0.70726
2491.70524	0.70600
2489.77668	0.70513
2487.84811	0.70425
2485.91955	0.70303
2483.99098	0.70158
2482.06242	0.70002
2480.13386	0.69837
2478.20529	0.69689
2476.27673	0.69581
2474.34816	0.69475
2472.41960	0.69337
2470.49103	0.69192
2468.56247	0.69073
2466.63391	0.69001
2464.70534	0.68963
2462.77678	0.68921
2460.84821	0.68875
2458.91965	0.68823
2456.99108	0.68748
2455.06252	0.68669
2453.13395	0.68580
2451.20539	0.68464
2449.27683	0.68369
2447.34826	0.68324
2445.41970	0.68263
2443.49113	0.68140
2441.56257	0.68003
2439.63400	0.67911
2437.70544	0.67863
2435.77687	0.67816
2433.84831	0.67758
2431.91975	0.67689
2429.99118	0.67609
2428.06262	0.67550
2426.13405	0.67538
2424.20549	0.67550
2422.27692	0.67537
2420.34836	0.67480
2418.41979	0.67401
2416.49123	0.67330
2414.56267	0.67272
2412.63410	0.67218
2410.70554	0.67162
2408.77697	0.67093
2406.84841	0.67021
2404.91984	0.66955
2402.99128	0.66886
2401.06271	0.66823
2399.13415	0.66755
2397.20559	0.66670
2395.27702	0.66584
2393.34846	0.66496
2391.41989	0.66387
2389.49133	0.66281
2387.56276	0.66230
2385.63420	0.66249
2383.70563	0.66321
2381.77707	0.66443
2379.84851	0.66619
2377.91994	0.66825
2375.99138	0.67039
2374.06281	0.67336
2372.13425	0.67822
2370.20568	0.68471
2368.27712	0.69103
2366.34855	0.69503
2364.41999	0.69595
2362.49143	0.69692
2360.56286	0.70142
2358.63430	0.70456
2356.70573	0.70022
2354.77717	0.69266
2352.84860	0.68613
2350.92004	0.67919
2348.99147	0.67329
2347.06291	0.67205
2345.13435	0.67657
2343.20578	0.68181
2341.27722	0.68384
2339.34865	0.68394
2337.42009	0.68242
2335.49152	0.67887
2333.56296	0.67434
2331.63440	0.67150
2329.70583	0.67103
2327.77727	0.67082
2325.84870	0.66880
2323.92014	0.66513
2321.99157	0.66251
2320.06301	0.66138
2318.13444	0.65900
2316.20588	0.65559
2314.27732	0.65308
2312.34875	0.65148
2310.42019	0.65002
2308.49162	0.64817
2306.56306	0.64591
2304.63449	0.64399
2302.70593	0.64277
2300.77736	0.64161
2298.84880	0.64020
2296.92024	0.63897
2294.99167	0.63803
2293.06311	0.63716
2291.13454	0.63626
2289.20598	0.63489
2287.27741	0.63305
2285.34885	0.63168
2283.42028	0.63125
2281.49172	0.63116
2279.56316	0.63105
2277.63459	0.63113
2275.70603	0.63146
2273.77746	0.63178
2271.84890	0.63173
2269.92033	0.63125
2267.99177	0.63063
2266.06320	0.63016
2264.13464	0.62996
2262.20608	0.62990
2260.27751	0.62970
2258.34895	0.62922
2256.42038	0.62850
2254.49182	0.62770
2252.56325	0.62695
2250.63469	0.62619
2248.70612	0.62544
2246.77756	0.62490
2244.84900	0.62475
2242.92043	0.62479
2240.99187	0.62471
2239.06330	0.62459
2237.13474	0.62461
2235.20617	0.62466
2233.27761	0.62471
2231.34904	0.62477
2229.42048	0.62465
2227.49192	0.62418
2225.56335	0.62351
2223.63479	0.62305
2221.70622	0.62288
2219.77766	0.62281
2217.84909	0.62274
2215.92053	0.62254
2213.99196	0.62224
2212.06340	0.62211
2210.13484	0.62221
2208.20627	0.62234
2206.27771	0.62247
2204.34914	0.62254
2202.42058	0.62239
2200.49201	0.62213
2198.56345	0.62210
2196.63488	0.62223
2194.70632	0.62223
2192.77776	0.62192
2190.84919	0.62158
2188.92063	0.62153
2186.99206	0.62154
2185.06350	0.62141
2183.13493	0.62140
2181.20637	0.62166
2179.27781	0.62213
2177.34924	0.62257
2175.42068	0.62276
2173.49211	0.62291
2171.56355	0.62324
2169.63498	0.62361
2167.70642	0.62384
2165.77785	0.62377
2163.84929	0.62343
2161.92073	0.62326
2159.99216	0.62339
2158.06360	0.62355
2156.13503	0.62355
2154.20647	0.62342
2152.27790	0.62334
2150.34934	0.62351
2148.42077	0.62388
2146.49221	0.62441
2144.56365	0.62507
2142.63508	0.62548
2140.70652	0.62547
2138.77795	0.62537
2136.84939	0.62527
2134.92082	0.62509
2132.99226	0.62486
2131.06369	0.62466
2129.13513	0.62450
2127.20657	0.62435
2125.27800	0.62423
2123.34944	0.62432
2121.42087	0.62460
2119.49231	0.62483
2117.56374	0.62500
2115.63518	0.62530
2113.70661	0.62561
2111.77805	0.62562
2109.84949	0.62524
2107.92092	0.62485
2105.99236	0.62464
2104.06379	0.62435
2102.13523	0.62386
2100.20666	0.62339
2098.27810	0.62305
2096.34953	0.62258
2094.42097	0.62192
2092.49241	0.62157
2090.56384	0.62172
2088.63528	0.62192
2086.70671	0.62194
2084.77815	0.62202
2082.84958	0.62220
2080.92102	0.62220
2078.99245	0.62194
2077.06389	0.62158
2075.13533	0.62136
2073.20676	0.62141
2071.27820	0.62137
2069.34963	0.62097
2067.42107	0.62055
2065.49250	0.62042
2063.56394	0.62043
2061.63537	0.62035
2059.70681	0.62004
2057.77825	0.61971
2055.84968	0.61965
2053.92112	0.61972
2051.99255	0.61966
2050.06399	0.61947
2048.13542	0.61902
2046.20686	0.61818
2044.27830	0.61730
2042.34973	0.61686
2040.42117	0.61675
2038.49260	0.61649
2036.56404	0.61637
2034.63547	0.61676
2032.70691	0.61739
2030.77834	0.61799
2028.84978	0.61858
2026.92122	0.61921
2024.99265	0.61984
2023.06409	0.62032
2021.13552	0.62053
2019.20696	0.62073
2017.27839	0.62098
2015.34983	0.62075
2013.42126	0.62010
2011.49270	0.61961
2009.56414	0.61944
2007.63557	0.61939
2005.70701	0.61937
2003.77844	0.61955
2001.84988	0.62016
1999.92131	0.62110
1997.99275	0.62193
1996.06418	0.62234
1994.13562	0.62277
1992.20706	0.62364
1990.27849	0.62434
1988.34993	0.62434
1986.42136	0.62390
1984.49280	0.62346
1982.56423	0.62322
1980.63567	0.62312
1978.70710	0.62319
1976.77854	0.62335
1974.84998	0.62362
1972.92141	0.62404
1970.99285	0.62441
1969.06428	0.62518
1967.13572	0.62654
1965.20715	0.62727
1963.27859	0.62703
1961.35002	0.62664
1959.42146	0.62615
1957.49290	0.62543
1955.56433	0.62468
1953.63577	0.62402
1951.70720	0.62341
1949.77864	0.62274
1947.85007	0.62206
1945.92151	0.62152
1943.99294	0.62162
1942.06438	0.62201
1940.13582	0.62114
1938.20725	0.61965
1936.27869	0.61891
1934.35012	0.61861
1932.42156	0.61800
1930.49299	0.61681
1928.56443	0.61535
1926.63586	0.61416
1924.70730	0.61392
1922.77874	0.61422
1920.85017	0.61361
1918.92161	0.61307
1916.99304	0.61323
1915.06448	0.61236
1913.13591	0.61104
1911.20735	0.61089
1909.27878	0.61161
1907.35022	0.61159
1905.42166	0.61053
1903.49309	0.60941
1901.56453	0.60857
1899.63596	0.60779
1897.70740	0.60717
1895.77883	0.60702
1893.85027	0.60658
1891.92171	0.60551
1889.99314	0.60500
1888.06458	0.60462
1886.13601	0.60359
1884.20745	0.60288
1882.27888	0.60258
1880.35032	0.60235
1878.42175	0.60234
1876.49319	0.60248
1874.56463	0.60251
1872.63606	0.60235
1870.70750	0.60337
1868.77893	0.60661
1866.85037	0.60794
1864.92180	0.60587
1862.99324	0.60413
1861.06467	0.60394
1859.13611	0.60404
1857.20755	0.60366
1855.27898	0.60303
1853.35042	0.60256
1851.42185	0.60253
1849.49329	0.60302
1847.56472	0.60384
1845.63616	0.60603
1843.70759	0.60935
1841.77903	0.60946
1839.85047	0.60757
1837.92190	0.60709
1835.99334	0.60771
1834.06477	0.60753
1832.13621	0.60766
1830.20764	0.60995
1828.27908	0.61122
1826.35051	0.61017
1824.42195	0.60940
1822.49339	0.60826
1820.56482	0.60657
1818.63626	0.60578
1816.70769	0.60559
1814.77913	0.60518
1812.85056	0.60521
1810.92200	0.60624
1808.99343	0.60690
1807.06487	0.60625
1805.13631	0.60524
1803.20774	0.60501
1801.27918	0.60588
1799.35061	0.60621
1797.42205	0.60495
1795.49348	0.60323
1793.56492	0.60297
1791.63635	0.60406
1789.70779	0.60220
1787.77923	0.59860
1785.85066	0.59652
1783.92210	0.59613
1781.99353	0.59641
1780.06497	0.59666
1778.13640	0.59570
1776.20784	0.59383
1774.27927	0.59334
1772.35071	0.59513
1770.42215	0.59491
1768.49358	0.59216
1766.56502	0.58926
1764.63645	0.58690
1762.70789	0.58669
1760.77932	0.58828
1758.85076	0.58917
1756.92220	0.59056
1754.99363	0.59188
1753.06507	0.59341
1751.13650	0.59978
1749.20794	0.61039
1747.27937	0.61678
1745.35081	0.61928
1743.42224	0.62153
1741.49368	0.62444
1739.56512	0.62698
1737.63655	0.62701
1735.70799	0.62696
1733.77942	0.63161
1731.85086	0.63427
1729.92229	0.63285
1727.99373	0.63187
1726.06516	0.63231
1724.13660	0.63484
1722.20804	0.63747
1720.27947	0.63971
1718.35091	0.64778
1716.42234	0.66393
1714.49378	0.67301
1712.56521	0.67711
1710.63665	0.68323
1708.70808	0.69316
1706.77952	0.71084
1704.85096	0.73471
1702.92239	0.75487
1700.99383	0.78525
1699.06526	0.83568
1697.13670	0.87809
1695.20813	0.91400
1693.27957	0.93890
1691.35100	0.95894
1689.42244	0.98526
1687.49388	1.00937
1685.56531	1.03384
1683.63675	1.07597
1681.70818	1.10615
1679.77962	1.12146
1677.85105	1.13592
1675.92249	1.15530
1673.99392	1.17747
1672.06536	1.19401
1670.13680	1.21263
1668.20823	1.23361
1666.27967	1.24458
1664.35110	1.25427
1662.42254	1.26937
1660.49397	1.28073
1658.56541	1.28444
1656.63684	1.28434
1654.70828	1.28701
1652.77972	1.30288
1650.85115	1.30947
1648.92259	1.30724
1646.99402	1.30663
1645.06546	1.30495
1643.13689	1.30089
1641.20833	1.29802
1639.27976	1.29704
1637.35120	1.29938
1635.42264	1.30286
1633.49407	1.30041
1631.56551	1.29688
1629.63694	1.29383
1627.70838	1.28933
1625.77981	1.28209
1623.85125	1.27230
1621.92269	1.25976
1619.99412	1.24713
1618.06556	1.23289
1616.13699	1.21022
1614.20843	1.18547
1612.27986	1.16377
1610.35130	1.14322
1608.42273	1.12338
1606.49417	1.10497
1604.56561	1.08928
1602.63704	1.07656
1600.70848	1.06684
1598.77991	1.05975
1596.85135	1.05439
1594.92278	1.04944
1592.99422	1.04433
1591.06565	1.04015
1589.13709	1.03806
1587.20853	1.03837
1585.27996	1.04130
1583.35140	1.04730
1581.42283	1.05533
1579.49427	1.06384
1577.56570	1.07629
1575.63714	1.09426
1573.70857	1.10440
1571.78001	1.11155
1569.85145	1.12650
1567.92288	1.14178
1565.99432	1.15040
1564.06575	1.15779
1562.13719	1.16283
1560.20862	1.17111
1558.28006	1.19583
1556.35149	1.20592
1554.42293	1.20610
1552.49437	1.20702
1550.56580	1.20983
1548.63724	1.21218
1546.70867	1.21210
1544.78011	1.21323
1542.85154	1.21835
1540.92298	1.22381
1538.99441	1.21994
1537.06585	1.21196
1535.13729	1.20619
1533.20872	1.20282
1531.28016	1.19796
1529.35159	1.19186
1527.42303	1.18708
1525.49446	1.18434
1523.56590	1.18636
1521.63733	1.19431
1519.70877	1.19771
1517.78021	1.19375
1515.85164	1.18603
1513.92308	1.17581
1511.99451	1.16544
1510.06595	1.15663
1508.13738	1.14619
1506.20882	1.12359
1504.28025	1.10269
1502.35169	1.08633
1500.42313	1.07001
1498.49456	1.05215
1496.56600	1.03198
1494.63743	1.01442
1492.70887	1.00205
1490.78030	0.99198
1488.85174	0.98072
1486.92317	0.96829
1484.99461	0.95739
1483.06605	0.94906
1481.13748	0.94311
1479.20892	0.93944
1477.28035	0.93881
1475.35179	0.94266
1473.42322	0.95300
1471.49466	0.96308
1469.56610	0.96555
1467.63753	0.96681
1465.70897	0.97164
1463.78040	0.97691
1461.85184	0.97810
1459.92327	0.97934
1457.99471	0.98906
1456.06614	1.00303
1454.13758	1.00446
1452.20902	1.00180
1450.28045	0.99979
1448.35189	0.99894
1446.42332	0.99724
1444.49476	0.99290
1442.56619	0.98712
1440.63763	0.98104
1438.70906	0.97507
1436.78050	0.96886
1434.85194	0.96101
1432.92337	0.95225
1430.99481	0.94317
1429.06624	0.93351
1427.13768	0.92521
1425.20911	0.92009
1423.28055	0.91721
1421.35198	0.91520
1419.42342	0.91503
1417.49486	0.91380
1415.56629	0.90853
1413.63773	0.90279
1411.70916	0.89800
1409.78060	0.89355
1407.85203	0.89012
1405.92347	0.88905
1403.99490	0.88927
1402.06634	0.88935
1400.13778	0.89120
1398.20921	0.89518
1396.28065	0.89891
1394.35208	0.90193
1392.42352	0.90384
1390.49495	0.90634
1388.56639	0.91357
1386.63782	0.92583
1384.70926	0.93703
1382.78070	0.94662
1380.85213	0.95620
1378.92357	0.96302
1376.99500	0.96457
1375.06644	0.96084
1373.13787	0.95232
1371.20931	0.94110
1369.28074	0.92792
1367.35218	0.91304
1365.42362	0.89892
1363.49505	0.88605
1361.56649	0.87347
1359.63792	0.86235
1357.70936	0.85371
1355.78079	0.84715
1353.85223	0.84188
1351.92366	0.83777
1349.99510	0.83516
1348.06654	0.83393
1346.13797	0.83375
1344.20941	0.83447
1342.28084	0.83661
1340.35228	0.84134
1338.42371	0.84696
1336.49515	0.85098
1334.56659	0.85567
1332.63802	0.86307
1330.70946	0.87183
1328.78089	0.87898
1326.85233	0.88310
1324.92376	0.88471
1322.99520	0.88515
1321.06663	0.88588
1319.13807	0.88733
1317.20951	0.88863
1315.28094	0.88946
1313.35238	0.89023
1311.42381	0.89075
1309.49525	0.89095
1307.56668	0.89091
1305.63812	0.89005
1303.70955	0.88790
1301.78099	0.88458
1299.85243	0.88054
1297.92386	0.87591
1295.99530	0.87075
1294.06673	0.86584
1292.13817	0.86225
1290.20960	0.86040
1288.28104	0.85979
1286.35247	0.85982
1284.42391	0.86048
1282.49535	0.86172
1280.56678	0.86334
1278.63822	0.86556
1276.70965	0.86851
1274.78109	0.87202
1272.85252	0.87619
1270.92396	0.88098
1268.99539	0.88593
1267.06683	0.89053
1265.13827	0.89429
1263.20970	0.89705
1261.28114	0.89890
1259.35257	0.90007
1257.42401	0.90092
1255.49544	0.90167
1253.56688	0.90256
1251.63831	0.90411
1249.70975	0.90617
1247.78119	0.90804
1245.85262	0.90957
1243.92406	0.91053
1241.99549	0.91067
1240.06693	0.90983
1238.13836	0.90812
1236.20980	0.90607
1234.28123	0.90331
1232.35267	0.89923
1230.42411	0.89441
1228.49554	0.88951
1226.56698	0.88427
1224.63841	0.87813
1222.70985	0.87142
1220.78128	0.86496
1218.85272	0.85904
1216.92415	0.85389
1214.99559	0.85014
1213.06703	0.84827
1211.13846	0.84815
1209.20990	0.84877
1207.28133	0.84852
1205.35277	0.84601
1203.42420	0.84076
1201.49564	0.83345
1199.56708	0.82526
1197.63851	0.81682
1195.70995	0.80868
1193.78138	0.80175
1191.85282	0.79645
1189.92425	0.79260
1187.99569	0.79036
1186.06712	0.78950
1184.13856	0.78940
1182.21000	0.79055
1180.28143	0.79367
1178.35287	0.79850
1176.42430	0.80456
1174.49574	0.81167
1172.56717	0.82003
1170.63861	0.82993
1168.71004	0.84139
1166.78148	0.85465
1164.85292	0.86938
1162.92435	0.88347
1160.99579	0.89440
1159.06722	0.90031
1157.13866	0.90004
1155.21009	0.89357
1153.28153	0.88226
1151.35296	0.86865
1149.42440	0.85453
1147.49584	0.84040
1145.56727	0.82744
1143.63871	0.81734
1141.71014	0.81106
1139.78158	0.80878
1137.85301	0.80995
1135.92445	0.81384
1133.99588	0.82030
1132.06732	0.82952
1130.13876	0.84137
1128.21019	0.85505
1126.28163	0.86907
1124.35306	0.88196
1122.42450	0.89281
1120.49593	0.90173
1118.56737	0.90892
1116.63880	0.91348
1114.71024	0.91416
1112.78168	0.91085
1110.85311	0.90511
1108.92455	0.89909
1106.99598	0.89397
1105.06742	0.89005
1103.13885	0.88737
1101.21029	0.88588
1099.28172	0.88634
1097.35316	0.88973
1095.42460	0.89590
1093.49603	0.90388
1091.56747	0.91273
1089.63890	0.92229
1087.71034	0.93324
1085.78177	0.94581
1083.85321	0.95947
1081.92464	0.97267
1079.99608	0.98315
1078.06752	0.98962
1076.13895	0.99213
1074.21039	0.99108
1072.28182	0.98682
1070.35326	0.97965
1068.42469	0.96995
1066.49613	0.95866
1064.56756	0.94714
1062.63900	0.93561
1060.71044	0.92368
1058.78187	0.91212
1056.85331	0.90182
1054.92474	0.89283
1052.99618	0.88580
1051.06761	0.88135
1049.13905	0.87892
1047.21049	0.87880
1045.28192	0.88231
1043.35336	0.88862
1041.42479	0.89586
1039.49623	0.90320
1037.56766	0.90904
1035.63910	0.91200
1033.71053	0.91324
1031.78197	0.91376
1029.85341	0.91267
1027.92484	0.90926
1025.99628	0.90411
1024.06771	0.89799
1022.13915	0.89149
1020.21058	0.88596
1018.28202	0.88201
1016.35345	0.87762
1014.42489	0.87020
1012.49633	0.85937
1010.56776	0.84582
1008.63920	0.83006
1006.71063	0.81297
1004.78207	0.79571
1002.85350	0.77945
1000.92494	0.76523
998.99637	0.75329
997.06781	0.74323
995.13925	0.73456
993.21068	0.72705
991.28212	0.72024
989.35355	0.71363
987.42499	0.70757
985.49642	0.70265
983.56786	0.69906
981.63929	0.69675
979.71073	0.69554
977.78217	0.69483
975.85360	0.69370
973.92504	0.69128
971.99647	0.68699
970.06791	0.68096
968.13934	0.67420
966.21078	0.66796
964.28221	0.66325
962.35365	0.66153
960.42509	0.66483
958.49652	0.67292
956.56796	0.68166
954.63939	0.68640
952.71083	0.68542
950.78226	0.67960
948.85370	0.67101
946.92513	0.66213
944.99657	0.65490
943.06801	0.64997
941.13944	0.64674
939.21088	0.64451
937.28231	0.64306
935.35375	0.64211
933.42518	0.64145
931.49662	0.64116
929.56805	0.64138
927.63949	0.64213
925.71093	0.64344
923.78236	0.64523
921.85380	0.64705
919.92523	0.64809
917.99667	0.64802
916.06810	0.64806
914.13954	0.64911
912.21098	0.65114
910.28241	0.65449
908.35385	0.65911
906.42528	0.66416
904.49672	0.66905
902.56815	0.67353
900.63959	0.67727
898.71102	0.67986
896.78246	0.68123
894.85390	0.68193
892.92533	0.68226
890.99677	0.68179
889.06820	0.68024
887.13964	0.67852
885.21107	0.67767
883.28251	0.67748
881.35394	0.67730
879.42538	0.67737
877.49682	0.67765
875.56825	0.67758
873.63969	0.67775
871.71112	0.67877
869.78256	0.67976
867.85399	0.68024
865.92543	0.68084
863.99686	0.68189
862.06830	0.68318
860.13974	0.68458
858.21117	0.68656
856.28261	0.68907
854.35404	0.69118
852.42548	0.69249
850.49691	0.69320
848.56835	0.69373
846.63978	0.69407
844.71122	0.69399
842.78266	0.69396
840.85409	0.69444
838.92553	0.69521
836.99696	0.69589
835.06840	0.69655
833.13983	0.69766
831.21127	0.69930
829.28270	0.70106
827.35414	0.70252
825.42558	0.70331
823.49701	0.70325
821.56845	0.70251
819.63988	0.70170
817.71132	0.70140
815.78275	0.70138
813.85419	0.70102
811.92562	0.69987
809.99706	0.69772
808.06850	0.69536
806.13993	0.69391
804.21137	0.69327
802.28280	0.69313
800.35424	0.69402
798.42567	0.69556
796.49711	0.69702
794.56854	0.69888
792.63998	0.70137
790.71142	0.70389
788.78285	0.70602
786.85429	0.70796
784.92572	0.70991
782.99716	0.71141
781.06859	0.71217
779.14003	0.71256
777.21147	0.71334
775.28290	0.71500
773.35434	0.71673
771.42577	0.71774
769.49721	0.71902
767.56864	0.72154
765.64008	0.72483
763.71151	0.72839
761.78295	0.73200
759.85439	0.73492
757.92582	0.73698
755.99726	0.73869
754.06869	0.74045
752.14013	0.74257
750.21156	0.74480
748.28300	0.74626
746.35443	0.74669
744.42587	0.74689
742.49731	0.74739
740.56874	0.74789
738.64018	0.74838
736.71161	0.74926
734.78305	0.75078
732.85448	0.75285
730.92592	0.75526
728.99735	0.75805
727.06879	0.76081
725.14023	0.76309
723.21166	0.76583
721.28310	0.76912
719.35453	0.77090
717.42597	0.77091
715.49740	0.77110
713.56884	0.77241
711.64027	0.77479
709.71171	0.77752
707.78315	0.77963
705.85458	0.78165
703.92602	0.78420
701.99745	0.78640
700.06889	0.78805
698.14032	0.78952
696.21176	0.78978
694.28319	0.78829
692.35463	0.78653
690.42607	0.78598
688.49750	0.78662
686.56894	0.78707
684.64037	0.78584
682.71181	0.78313
680.78324	0.78067
678.85468	0.77953
676.92611	0.77942
674.99755	0.77902
673.06899	0.77785
671.14042	0.77768
669.21186	0.77860
667.28329	0.77523
665.35473	0.77030
663.42616	0.76810
661.49760	0.76786
659.56903	0.76892
657.64047	0.76942
655.71191	0.76697
653.78334	0.76355
651.85478	0.76244
649.92621	0.76236
647.99765	0.76092
646.06908	0.75863
644.14052	0.75784
642.21195	0.76053
640.28339	0.76502
638.35483	0.76865
636.42626	0.77170
634.49770	0.77331
632.56913	0.77195
630.64057	0.76915
628.71200	0.76691
626.78344	0.76585
624.85488	0.76553
622.92631	0.76506
620.99775	0.76457
619.06918	0.76484
617.14062	0.76540
615.21205	0.76453
613.28349	0.76227
611.35492	0.76036
609.42636	0.75915
607.49780	0.75816
605.56923	0.75801
603.64067	0.75888
601.71210	0.75989
599.78354	0.76036
