3997.91406	0.71970
3995.98550	0.71912
3994.05693	0.71878
3992.12837	0.71902
3990.19980	0.71900
3988.27124	0.71817
3986.34268	0.71721
3984.41411	0.71609
3982.48555	0.71442
3980.55698	0.71322
3978.62842	0.71302
3976.69985	0.71308
3974.77129	0.71294
3972.84272	0.71176
3970.91416	0.70960
3968.98560	0.70842
3967.05703	0.70827
3965.12847	0.70814
3963.19990	0.70880
3961.27134	0.70916
3959.34277	0.70789
3957.41421	0.70718
3955.48564	0.70754
3953.55708	0.70718
3951.62852	0.70701
3949.69995	0.70809
3947.77139	0.70795
3945.84282	0.70644
3943.91426	0.70684
3941.98569	0.70808
3940.05713	0.70663
3938.12856	0.70367
3936.20000	0.70137
3934.27144	0.70060
3932.34287	0.70147
3930.41431	0.70163
3928.48574	0.70031
3926.55718	0.70031
3924.62861	0.70097
3922.70005	0.69879
3920.77148	0.69644
3918.84292	0.69765
3916.91436	0.69944
3914.98579	0.69748
3913.05723	0.69415
3911.12866	0.69280
3909.20010	0.69316
3907.27153	0.69422
3905.34297	0.69732
3903.41440	0.70180
3901.48584	0.70293
3899.55728	0.70104
3897.62871	0.69811
3895.70015	0.69498
3893.77158	0.69386
3891.84302	0.69563
3889.91445	0.69587
3887.98589	0.69445
3886.05733	0.69456
3884.12876	0.69400
3882.20020	0.69317
3880.27163	0.69492
3878.34307	0.69355
3876.41450	0.68969
3874.48594	0.68869
3872.55737	0.69020
3870.62881	0.69224
3868.70025	0.69164
3866.77168	0.68879
3864.84312	0.69040
3862.91455	0.69386
3860.98599	0.69135
3859.05742	0.68639
3857.12886	0.68256
3855.20029	0.68308
3853.27173	0.69159
3851.34317	0.69215
3849.41460	0.68520
3847.48604	0.67937
3845.55747	0.67734
3843.62891	0.67911
3841.70034	0.68140
3839.77178	0.68256
3837.84321	0.68237
3835.91465	0.67966
3833.98609	0.67761
3832.05752	0.67772
3830.12896	0.67770
3828.20039	0.67739
3826.27183	0.67677
3824.34326	0.67444
3822.41470	0.67494
3820.48613	0.67940
3818.55757	0.67860
3816.62901	0.67736
3814.70044	0.67686
3812.77188	0.67282
3810.84331	0.66853
3808.91475	0.66849
3806.98618	0.67283
3805.05762	0.67389
3803.12905	0.67365
3801.20049	0.67802
3799.27193	0.67857
3797.34336	0.67459
3795.41480	0.67131
3793.48623	0.66934
3791.55767	0.66812
3789.62910	0.66722
3787.70054	0.66644
3785.77197	0.66647
3783.84341	0.66658
3781.91485	0.66604
3779.98628	0.66654
3778.05772	0.66676
3776.12915	0.66488
3774.20059	0.66345
3772.27202	0.66443
3770.34346	0.66702
3768.41489	0.66786
3766.48633	0.66713
3764.55777	0.66585
3762.62920	0.66363
3760.70064	0.66311
3758.77207	0.66522
3756.84351	0.66626
3754.91494	0.66656
3752.98638	0.66990
3751.05781	0.67773
3749.12925	0.67902
3747.20069	0.67499
3745.27212	0.67540
3743.34356	0.67689
3741.41499	0.67262
3739.48643	0.66716
3737.55786	0.66546
3735.62930	0.66942
3733.70074	0.67321
3731.77217	0.67074
3729.84361	0.66466
3727.91504	0.65993
3725.98648	0.65911
3724.05791	0.65992
3722.12935	0.66001
3720.20078	0.65969
3718.27222	0.65859
3716.34366	0.65707
3714.41509	0.65753
3712.48653	0.66265
3710.55796	0.66687
3708.62940	0.66396
3706.70083	0.66029
3704.77227	0.65898
3702.84370	0.66077
3700.91514	0.66358
3698.98658	0.66386
3697.05801	0.66277
3695.12945	0.66202
3693.20088	0.66212
3691.27232	0.66505
3689.34375	0.67203
3687.41519	0.67407
3685.48662	0.67047
3683.55806	0.66751
3681.62950	0.66756
3679.70093	0.66979
3677.77237	0.67341
3675.84380	0.67992
3673.91524	0.68290
3671.98667	0.68298
3670.05811	0.68712
3668.12954	0.68833
3666.20098	0.68532
3664.27242	0.68426
3662.34385	0.68579
3660.41529	0.68838
3658.48672	0.69278
3656.55816	0.70024
3654.62959	0.70456
3652.70103	0.70440
3650.77246	0.70893
3648.84390	0.72394
3646.91534	0.73078
3644.98677	0.72901
3643.05821	0.72792
3641.12964	0.72958
3639.20108	0.73230
3637.27251	0.73467
3635.34395	0.73701
3633.41538	0.73969
3631.48682	0.74414
3629.55826	0.75605
3627.62969	0.76667
3625.70113	0.76475
3623.77256	0.76107
3621.84400	0.76116
3619.91543	0.76718
3617.98687	0.77523
3616.05830	0.77980
3614.12974	0.78434
3612.20118	0.78892
3610.27261	0.79225
3608.34405	0.79819
3606.41548	0.80424
3604.48692	0.80624
3602.55835	0.80899
3600.62979	0.81546
3598.70123	0.82176
3596.77266	0.82679
3594.84410	0.83235
3592.91553	0.83533
3590.98697	0.83502
3589.05840	0.83914
3587.12984	0.85232
3585.20127	0.86149
3583.27271	0.86374
3581.34415	0.86609
3579.41558	0.87059
3577.48702	0.87615
3575.55845	0.88157
3573.62989	0.88584
3571.70132	0.88837
3569.77276	0.89139
3567.84419	0.90043
3565.91563	0.91204
3563.98707	0.91697
3562.05850	0.92021
3560.12994	0.92505
3558.20137	0.93028
3556.27281	0.93511
3554.34424	0.94065
3552.41568	0.94698
3550.48711	0.95119
3548.55855	0.95480
3546.62999	0.96296
3544.70142	0.97373
3542.77286	0.97938
3540.84429	0.98069
3538.91573	0.98338
3536.98716	0.98941
3535.05860	0.99685
3533.13003	1.00383
3531.20147	1.01007
3529.27291	1.01626
3527.34434	1.02293
3525.41578	1.02955
3523.48721	1.03614
3521.55865	1.04248
3519.63008	1.04749
3517.70152	1.05198
3515.77295	1.05780
3513.84439	1.06445
3511.91583	1.06947
3509.98726	1.07412
3508.05870	1.08216
3506.13013	1.09152
3504.20157	1.09926
3502.27300	1.10565
3500.34444	1.11169
3498.41587	1.11893
3496.48731	1.12824
3494.55875	1.13727
3492.63018	1.14364
3490.70162	1.14840
3488.77305	1.15384
3486.84449	1.16125
3484.91592	1.16957
3482.98736	1.17729
3481.05879	1.18223
3479.13023	1.18340
3477.20167	1.18410
3475.27310	1.18694
3473.34454	1.19251
3471.41597	1.19884
3469.48741	1.20364
3467.55884	1.20762
3465.63028	1.21116
3463.70171	1.21512
3461.77315	1.22109
3459.84459	1.22692
3457.91602	1.22906
3455.98746	1.23008
3454.05889	1.23459
3452.13033	1.23996
3450.20176	1.24229
3448.27320	1.24359
3446.34464	1.24621
3444.41607	1.24794
3442.48751	1.24813
3440.55894	1.24988
3438.63038	1.25306
3436.70181	1.25561
3434.77325	1.25831
3432.84468	1.26231
3430.91612	1.26667
3428.98756	1.26880
3427.05899	1.26715
3425.13043	1.26495
3423.20186	1.26719
3421.27330	1.27292
3419.34473	1.27596
3417.41617	1.27331
3415.48760	1.27003
3413.55904	1.27185
3411.63048	1.27562
3409.70191	1.27658
3407.77335	1.27615
3405.84478	1.27584
3403.91622	1.27603
3401.98765	1.27782
3400.05909	1.28024
3398.13052	1.28159
3396.20196	1.28162
3394.27340	1.28085
3392.34483	1.28137
3390.41627	1.28478
3388.48770	1.29020
3386.55914	1.29709
3384.63057	1.30440
3382.70201	1.30929
3380.77344	1.31133
3378.84488	1.31325
3376.91632	1.31610
3374.98775	1.31921
3373.05919	1.32193
3371.13062	1.32295
3369.20206	1.32268
3367.27349	1.32259
3365.34493	1.32369
3363.41636	1.32758
3361.48780	1.33200
3359.55924	1.33329
3357.63067	1.33392
3355.70211	1.33750
3353.77354	1.34211
3351.84498	1.34426
3349.91641	1.34562
3347.98785	1.34882
3346.05928	1.35401
3344.13072	1.36202
3342.20216	1.36842
3340.27359	1.36775
3338.34503	1.36589
3336.41646	1.36962
3334.48790	1.37726
3332.55933	1.38483
3330.63077	1.39056
3328.70220	1.39582
3326.77364	1.40147
3324.84508	1.40610
3322.91651	1.41216
3320.98795	1.42140
3319.05938	1.42821
3317.13082	1.42915
3315.20225	1.42866
3313.27369	1.43226
3311.34513	1.44004
3309.41656	1.44644
3307.48800	1.44751
3305.55943	1.44600
3303.63087	1.44630
3301.70230	1.44998
3299.77374	1.45474
3297.84517	1.45673
3295.91661	1.45744
3293.98805	1.45752
3292.05948	1.45268
3290.13092	1.44722
3288.20235	1.44991
3286.27379	1.45601
3284.34522	1.45502
3282.41666	1.44899
3280.48809	1.44425
3278.55953	1.44119
3276.63097	1.43910
3274.70240	1.43623
3272.77384	1.43284
3270.84527	1.43170
3268.91671	1.42982
3266.98814	1.42275
3265.05958	1.41337
3263.13101	1.40614
3261.20245	1.40085
3259.27389	1.39618
3257.34532	1.39156
3255.41676	1.38590
3253.48819	1.37854
3251.55963	1.36927
3249.63106	1.35834
3247.70250	1.34745
3245.77393	1.33816
3243.84537	1.33036
3241.91681	1.32314
3239.98824	1.31683
3238.05968	1.31274
3236.13111	1.31027
3234.20255	1.30639
3232.27398	1.29805
3230.34542	1.28739
3228.41685	1.28099
3226.48829	1.28013
3224.55973	1.28001
3222.63116	1.27705
3220.70260	1.27180
3218.77403	1.26654
3216.84547	1.26155
3214.91690	1.25674
3212.98834	1.25229
3211.05977	1.24754
3209.13121	1.24332
3207.20265	1.23996
3205.27408	1.23514
3203.34552	1.22923
3201.41695	1.22518
3199.48839	1.22141
3197.55982	1.21620
3195.63126	1.21277
3193.70269	1.21139
3191.77413	1.20930
3189.84557	1.20570
3187.91700	1.20042
3185.98844	1.19380
3184.05987	1.18708
3182.13131	1.18252
3180.20274	1.18017
3178.27418	1.17617
3176.34562	1.16969
3174.41705	1.16403
3172.48849	1.16089
3170.55992	1.15837
3168.63136	1.15365
3166.70279	1.14779
3164.77423	1.14350
3162.84566	1.14029
3160.91710	1.13681
3158.98854	1.13358
3157.05997	1.13071
3155.13141	1.12770
3153.20284	1.12451
3151.27428	1.12078
3149.34571	1.11688
3147.41715	1.11391
3145.48858	1.11151
3143.56002	1.10838
3141.63146	1.10530
3139.70289	1.10429
3137.77433	1.10413
3135.84576	1.10236
3133.91720	1.10054
3131.98863	1.10039
3130.06007	1.10027
3128.13150	1.10022
3126.20294	1.10105
3124.27438	1.10084
3122.34581	1.09958
3120.41725	1.09961
3118.48868	1.10069
3116.56012	1.10122
3114.63155	1.10164
3112.70299	1.10302
3110.77442	1.10476
3108.84586	1.10553
3106.91730	1.10504
3104.98873	1.10414
3103.06017	1.10301
3101.13160	1.10192
3099.20304	1.10168
3097.27447	1.10141
3095.34591	1.10030
3093.41734	1.09937
3091.48878	1.09933
3089.56022	1.09975
3087.63165	1.09978
3085.70309	1.09854
3083.77452	1.09565
3081.84596	1.09223
3079.91739	1.08983
3077.98883	1.08851
3076.06026	1.08715
3074.13170	1.08486
3072.20314	1.08182
3070.27457	1.07886
3068.34601	1.07646
3066.41744	1.07399
3064.48888	1.07021
3062.56031	1.06524
3060.63175	1.06101
3058.70318	1.05883
3056.77462	1.05732
3054.84606	1.05472
3052.91749	1.05159
3050.98893	1.04889
3049.06036	1.04629
3047.13180	1.04335
3045.20323	1.03983
3043.27467	1.03534
3041.34610	1.03032
3039.41754	1.02601
3037.48898	1.02288
3035.56041	1.02065
3033.63185	1.01927
3031.70328	1.01754
3029.77472	1.01358
3027.84615	1.00853
3025.91759	1.00461
3023.98903	1.00251
3022.06046	1.00141
3020.13190	0.99927
3018.20333	0.99627
3016.27477	0.99441
3014.34620	0.99318
3012.41764	0.99135
3010.48907	0.99004
3008.56051	0.98951
3006.63195	0.98796
3004.70338	0.98537
3002.77482	0.98316
3000.84625	0.98187
2998.91769	0.98206
2996.98912	0.98427
2995.06056	0.98821
2993.13199	0.99281
2991.20343	0.99693
2989.27487	1.00098
2987.34630	1.00613
2985.41774	1.01188
2983.48917	1.01773
2981.56061	1.02436
2979.63204	1.03179
2977.70348	1.04002
2975.77491	1.04916
2973.84635	1.05899
2971.91779	1.06851
2969.98922	1.07658
2968.06066	1.08410
2966.13209	1.09219
2964.20353	1.10008
2962.27496	1.10595
2960.34640	1.10745
2958.41783	1.10387
2956.48927	1.09708
2954.56071	1.08964
2952.63214	1.08323
2950.70358	1.07916
2948.77501	1.07805
2946.84645	1.07895
2944.91788	1.08190
2942.98932	1.08814
2941.06075	1.09748
2939.13219	1.10850
2937.20363	1.11933
2935.27506	1.12890
2933.34650	1.13746
2931.41793	1.14513
2929.48937	1.15134
2927.56080	1.15498
2925.63224	1.15677
2923.70367	1.15883
2921.77511	1.16018
2919.84655	1.15758
2917.91798	1.14852
2915.98942	1.13212
2914.06085	1.11083
2912.13229	1.08923
2910.20372	1.07066
2908.27516	1.05665
2906.34659	1.04665
2904.41803	1.03803
2902.48947	1.02996
2900.56090	1.02399
2898.63234	1.01988
2896.70377	1.01599
2894.77521	1.01189
2892.84664	1.00787
2890.91808	1.00391
2888.98952	0.99989
2887.06095	0.99634
2885.13239	0.99436
2883.20382	0.99482
2881.27526	0.99710
2879.34669	0.99956
2877.41813	1.00152
2875.48956	1.00241
2873.56100	1.00136
2871.63244	0.99840
2869.70387	0.99332
2867.77531	0.98657
2865.84674	0.98010
2863.91818	0.97529
2861.98961	0.97319
2860.06105	0.97483
2858.13248	0.97905
2856.20392	0.98363
2854.27536	0.98807
2852.34679	0.99111
2850.41823	0.98814
2848.48966	0.97512
2846.56110	0.95391
2844.63253	0.93111
2842.70397	0.91261
2840.77540	0.89954
2838.84684	0.88953
2836.91828	0.88145
2834.98971	0.87577
2833.06115	0.87165
2831.13258	0.86788
2829.20402	0.86430
2827.27545	0.86085
2825.34689	0.85711
2823.41832	0.85315
2821.48976	0.84993
2819.56120	0.84807
2817.63263	0.84668
2815.70407	0.84443
2813.77550	0.84138
2811.84694	0.83852
2809.91837	0.83591
2807.98981	0.83315
2806.06124	0.83034
2804.13268	0.82727
2802.20412	0.82383
2800.27555	0.82048
2798.34699	0.81730
2796.41842	0.81416
2794.48986	0.81167
2792.56129	0.80980
2790.63273	0.80744
2788.70416	0.80440
2786.77560	0.80169
2784.84704	0.79959
2782.91847	0.79759
2780.98991	0.79600
2779.06134	0.79493
2777.13278	0.79324
2775.20421	0.79074
2773.27565	0.78828
2771.34708	0.78598
2769.41852	0.78387
2767.48996	0.78214
2765.56139	0.78054
2763.63283	0.77898
2761.70426	0.77798
2759.77570	0.77744
2757.84713	0.77632
2755.91857	0.77432
2753.99001	0.77196
2752.06144	0.76962
2750.13288	0.76750
2748.20431	0.76562
2746.27575	0.76390
2744.34718	0.76190
2742.41862	0.75925
2740.49005	0.75667
2738.56149	0.75485
2736.63293	0.75347
2734.70436	0.75206
2732.77580	0.75048
2730.84723	0.74872
2728.91867	0.74725
2726.99010	0.74644
2725.06154	0.74573
2723.13297	0.74477
2721.20441	0.74385
2719.27585	0.74323
2717.34728	0.74274
2715.41872	0.74190
2713.49015	0.74091
2711.56159	0.74008
2709.63302	0.73907
2707.70446	0.73806
2705.77589	0.73735
2703.84733	0.73627
2701.91877	0.73459
2699.99020	0.73303
2698.06164	0.73203
2696.13307	0.73119
2694.20451	0.73009
2692.27594	0.72867
2690.34738	0.72692
2688.41881	0.72507
2686.49025	0.72369
2684.56169	0.72257
2682.63312	0.72095
2680.70456	0.71895
2678.77599	0.71714
2676.84743	0.71539
2674.91886	0.71350
2672.99030	0.71180
2671.06173	0.71052
2669.13317	0.70959
2667.20461	0.70838
2665.27604	0.70657
2663.34748	0.70510
2661.41891	0.70420
2659.49035	0.70301
2657.56178	0.70161
2655.63322	0.70070
2653.70465	0.70007
2651.77609	0.69912
2649.84753	0.69799
2647.91896	0.69673
2645.99040	0.69503
2644.06183	0.69337
2642.13327	0.69252
2640.20470	0.69219
2638.27614	0.69139
2636.34757	0.68980
2634.41901	0.68789
2632.49045	0.68595
2630.56188	0.68428
2628.63332	0.68330
2626.70475	0.68275
2624.77619	0.68207
2622.84762	0.68118
2620.91906	0.68025
2618.99049	0.67963
2617.06193	0.67941
2615.13337	0.67918
2613.20480	0.67861
2611.27624	0.67784
2609.34767	0.67730
2607.41911	0.67701
2605.49054	0.67639
2603.56198	0.67530
2601.63342	0.67451
2599.70485	0.67445
2597.77629	0.67461
2595.84772	0.67433
2593.91916	0.67350
2591.99059	0.67243
2590.06203	0.67104
2588.13346	0.66941
2586.20490	0.66829
2584.27634	0.66771
2582.34777	0.66674
2580.41921	0.66498
2578.49064	0.66324
2576.56208	0.66200
2574.63351	0.66082
2572.70495	0.65967
2570.77638	0.65886
2568.84782	0.65796
2566.91926	0.65652
2564.99069	0.65502
2563.06213	0.65398
2561.13356	0.65312
2559.20500	0.65218
2557.27643	0.65127
2555.34787	0.65040
2553.41930	0.64967
2551.49074	0.64934
2549.56218	0.64918
2547.63361	0.64885
2545.70505	0.64851
2543.77648	0.64791
2541.84792	0.64667
2539.91935	0.64520
2537.99079	0.64386
2536.06222	0.64259
2534.13366	0.64125
2532.20510	0.63972
2530.27653	0.63803
2528.34797	0.63649
2526.41940	0.63530
2524.49084	0.63428
2522.56227	0.63305
2520.63371	0.63151
2518.70514	0.63014
2516.77658	0.62933
2514.84802	0.62885
2512.91945	0.62827
2510.99089	0.62764
2509.06232	0.62720
2507.13376	0.62686
2505.20519	0.62650
2503.27663	0.62624
2501.34806	0.62616
2499.41950	0.62617
2497.49094	0.62616
2495.56237	0.62594
2493.63381	0.62555
2491.70524	0.62515
2489.77668	0.62463
2487.84811	0.62395
2485.91955	0.62309
2483.99098	0.62205
2482.06242	0.62119
2480.13386	0.62043
2478.20529	0.61928
2476.27673	0.61787
2474.34816	0.61642
2472.41960	0.61496
2470.49103	0.61376
2468.56247	0.61271
2466.63391	0.61127
2464.70534	0.60953
2462.77678	0.60784
2460.84821	0.60624
2458.91965	0.60485
2456.99108	0.60385
2455.06252	0.60319
2453.13395	0.60250
2451.20539	0.60162
2449.27683	0.60077
2447.34826	0.60009
2445.41970	0.59965
2443.49113	0.59956
2441.56257	0.59959
2439.63400	0.59949
2437.70544	0.59920
2435.77687	0.59870
2433.84831	0.59795
2431.91975	0.59683
2429.99118	0.59571
2428.06262	0.59487
2426.13405	0.59400
2424.20549	0.59302
2422.27692	0.59196
2420.34836	0.59063
2418.41979	0.58911
2416.49123	0.58756
2414.56267	0.58607
2412.63410	0.58473
2410.70554	0.58356
2408.77697	0.58249
2406.84841	0.58150
2404.91984	0.58054
2402.99128	0.57958
2401.06271	0.57882
2399.13415	0.57852
2397.20559	0.57856
2395.27702	0.57846
2393.34846	0.57798
2391.41989	0.57756
2389.49133	0.57786
2387.56276	0.57881
2385.63420	0.58004
2383.70563	0.58167
2381.77707	0.58371
2379.84851	0.58612
2377.91994	0.58909
2375.99138	0.59267
2374.06281	0.59655
2372.13425	0.60061
2370.20568	0.60565
2368.27712	0.61166
2366.34855	0.61732
2364.41999	0.62190
2362.49143	0.62332
2360.56286	0.62123
2358.63430	0.61803
2356.70573	0.61287
2354.77717	0.60636
2352.84860	0.60025
2350.92004	0.59448
2348.99147	0.59009
2347.06291	0.58879
2345.13435	0.59189
2343.20578	0.59728
2341.27722	0.60030
2339.34865	0.60085
2337.42009	0.60118
2335.49152	0.60084
2333.56296	0.59886
2331.63440	0.59698
2329.70583	0.59628
2327.77727	0.59533
2325.84870	0.59348
2323.92014	0.59130
2321.99157	0.58893
2320.06301	0.58633
2318.13444	0.58344
2316.20588	0.58049
2314.27732	0.57779
2312.34875	0.57500
2310.42019	0.57170
2308.49162	0.56811
2306.56306	0.56466
2304.63449	0.56144
2302.70593	0.55838
2300.77736	0.55560
2298.84880	0.55334
2296.92024	0.55152
2294.99167	0.54976
2293.06311	0.54794
2291.13454	0.54640
2289.20598	0.54518
2287.27741	0.54391
2285.34885	0.54272
2283.42028	0.54220
2281.49172	0.54253
2279.56316	0.54325
2277.63459	0.54371
2275.70603	0.54380
2273.77746	0.54387
2271.84890	0.54402
2269.92033	0.54406
2267.99177	0.54387
2266.06320	0.54341
2264.13464	0.54267
2262.20608	0.54161
2260.27751	0.54041
2258.34895	0.53931
2256.42038	0.53813
2254.49182	0.53662
2252.56325	0.53486
2250.63469	0.53306
2248.70612	0.53126
2246.77756	0.52947
2244.84900	0.52806
2242.92043	0.52709
2240.99187	0.52608
2239.06330	0.52498
2237.13474	0.52433
2235.20617	0.52427
2233.27761	0.52441
2231.34904	0.52456
2229.42048	0.52483
2227.49192	0.52515
2225.56335	0.52546
2223.63479	0.52579
2221.70622	0.52615
2219.77766	0.52653
2217.84909	0.52681
2215.92053	0.52683
2213.99196	0.52644
2212.06340	0.52575
2210.13484	0.52524
2208.20627	0.52488
2206.27771	0.52414
2204.34914	0.52276
2202.42058	0.52112
2200.49201	0.51959
2198.56345	0.51819
2196.63488	0.51678
2194.70632	0.51518
2192.77776	0.51349
2190.84919	0.51204
2188.92063	0.51100
2186.99206	0.51036
2185.06350	0.51000
2183.13493	0.50994
2181.20637	0.51031
2179.27781	0.51075
2177.34924	0.51069
2175.42068	0.51032
2173.49211	0.51017
2171.56355	0.51025
2169.63498	0.51038
2167.70642	0.51050
2165.77785	0.51066
2163.84929	0.51075
2161.92073	0.51051
2159.99216	0.51009
2158.06360	0.50976
2156.13503	0.50937
2154.20647	0.50870
2152.27790	0.50788
2150.34934	0.50713
2148.42077	0.50634
2146.49221	0.50550
2144.56365	0.50479
2142.63508	0.50416
2140.70652	0.50338
2138.77795	0.50268
2136.84939	0.50234
2134.92082	0.50222
2132.99226	0.50207
2131.06369	0.50177
2129.13513	0.50144
2127.20657	0.50140
2125.27800	0.50170
2123.34944	0.50206
2121.42087	0.50240
2119.49231	0.50262
2117.56374	0.50249
2115.63518	0.50209
2113.70661	0.50177
2111.77805	0.50160
2109.84949	0.50128
2107.92092	0.50067
2105.99236	0.49989
2104.06379	0.49894
2102.13523	0.49793
2100.20666	0.49697
2098.27810	0.49583
2096.34953	0.49441
2094.42097	0.49291
2092.49241	0.49150
2090.56384	0.49037
2088.63528	0.48961
2086.70671	0.48894
2084.77815	0.48815
2082.84958	0.48728
2080.92102	0.48640
2078.99245	0.48553
2077.06389	0.48485
2075.13533	0.48442
2073.20676	0.48407
2071.27820	0.48378
2069.34963	0.48355
2067.42107	0.48344
2065.49250	0.48334
2063.56394	0.48293
2061.63537	0.48213
2059.70681	0.48125
2057.77825	0.48052
2055.84968	0.47997
2053.92112	0.47953
2051.99255	0.47896
2050.06399	0.47827
2048.13542	0.47761
2046.20686	0.47689
2044.27830	0.47628
2042.34973	0.47613
2040.42117	0.47609
2038.49260	0.47567
2036.56404	0.47506
2034.63547	0.47466
2032.70691	0.47447
2030.77834	0.47426
2028.84978	0.47406
2026.92122	0.47398
2024.99265	0.47388
2023.06409	0.47367
2021.13552	0.47333
2019.20696	0.47299
2017.27839	0.47262
2015.34983	0.47180
2013.42126	0.47066
2011.49270	0.46971
2009.56414	0.46893
2007.63557	0.46790
2005.70701	0.46658
2003.77844	0.46547
2001.84988	0.46468
1999.92131	0.46386
1997.99275	0.46285
1996.06418	0.46178
1994.13562	0.46101
1992.20706	0.46064
1990.27849	0.46001
1988.34993	0.45890
1986.42136	0.45773
1984.49280	0.45687
1982.56423	0.45641
1980.63567	0.45627
1978.70710	0.45629
1976.77854	0.45623
1974.84998	0.45606
1972.92141	0.45598
1970.99285	0.45604
1969.06428	0.45638
1967.13572	0.45678
1965.20715	0.45637
1963.27859	0.45525
1961.35002	0.45421
1959.42146	0.45326
1957.49290	0.45227
1955.56433	0.45131
1953.63577	0.45025
1951.70720	0.44904
1949.77864	0.44793
1947.85007	0.44701
1945.92151	0.44623
1943.99294	0.44551
1942.06438	0.44442
1940.13582	0.44271
1938.20725	0.44121
1936.27869	0.44040
1934.35012	0.44002
1932.42156	0.43995
1930.49299	0.44011
1928.56443	0.44036
1926.63586	0.44087
1924.70730	0.44213
1922.77874	0.44355
1920.85017	0.44395
1918.92161	0.44421
1916.99304	0.44477
1915.06448	0.44473
1913.13591	0.44461
1911.20735	0.44501
1909.27878	0.44546
1907.35022	0.44528
1905.42166	0.44461
1903.49309	0.44399
1901.56453	0.44353
1899.63596	0.44312
1897.70740	0.44283
1895.77883	0.44269
1893.85027	0.44226
1891.92171	0.44179
1889.99314	0.44206
1888.06458	0.44217
1886.13601	0.44160
1884.20745	0.44112
1882.27888	0.44087
1880.35032	0.44081
1878.42175	0.44100
1876.49319	0.44116
1874.56463	0.44115
1872.63606	0.44138
1870.70750	0.44273
1868.77893	0.44487
1866.85037	0.44460
1864.92180	0.44210
1862.99324	0.44016
1861.06467	0.43945
1859.13611	0.43906
1857.20755	0.43823
1855.27898	0.43716
1853.35042	0.43620
1851.42185	0.43556
1849.49329	0.43551
1847.56472	0.43600
1845.63616	0.43698
1843.70759	0.43738
1841.77903	0.43591
1839.85047	0.43436
1837.92190	0.43394
1835.99334	0.43390
1834.06477	0.43374
1832.13621	0.43456
1830.20764	0.43691
1828.27908	0.43837
1826.35051	0.43840
1824.42195	0.43859
1822.49339	0.43853
1820.56482	0.43834
1818.63626	0.43883
1816.70769	0.43962
1814.77913	0.44036
1812.85056	0.44153
1810.92200	0.44296
1808.99343	0.44339
1807.06487	0.44288
1805.13631	0.44253
1803.20774	0.44308
1801.27918	0.44452
1799.35061	0.44556
1797.42205	0.44576
1795.49348	0.44617
1793.56492	0.44795
1791.63635	0.45048
1789.70779	0.45090
1787.77923	0.45060
1785.85066	0.45182
1783.92210	0.45434
1781.99353	0.45731
1780.06497	0.46040
1778.13640	0.46268
1776.20784	0.46448
1774.27927	0.46766
1772.35071	0.47278
1770.42215	0.47575
1768.49358	0.47589
1766.56502	0.47567
1764.63645	0.47611
1762.70789	0.47828
1760.77932	0.48127
1758.85076	0.48340
1756.92220	0.48621
1754.99363	0.48946
1753.06507	0.49333
1751.13650	0.50117
1749.20794	0.51216
1747.27937	0.51979
1745.35081	0.52424
1743.42224	0.52806
1741.49368	0.53213
1739.56512	0.53621
1737.63655	0.53880
1735.70799	0.54167
1733.77942	0.54808
1731.85086	0.55214
1729.92229	0.55300
1727.99373	0.55446
1726.06516	0.55742
1724.13660	0.56255
1722.20804	0.56801
1720.27947	0.57320
1718.35091	0.58305
1716.42234	0.59876
1714.49378	0.60828
1712.56521	0.61423
1710.63665	0.62271
1708.70808	0.63532
1706.77952	0.65583
1704.85096	0.68293
1702.92239	0.70712
1700.99383	0.74257
1699.06526	0.79946
1697.13670	0.85046
1695.20813	0.89947
1693.27957	0.93748
1691.35100	0.96906
1689.42244	1.00813
1687.49388	1.04500
1685.56531	1.08286
1683.63675	1.14045
1681.70818	1.17910
1679.77962	1.19933
1677.85105	1.22019
1675.92249	1.24775
1673.99392	1.27797
1672.06536	1.30097
1670.13680	1.32490
1668.20823	1.34985
1666.27967	1.36337
1664.35110	1.37538
1662.42254	1.39111
1660.49397	1.40217
1658.56541	1.40867
1656.63684	1.41414
1654.70828	1.42152
1652.77972	1.43010
1650.85115	1.43179
1648.92259	1.43040
1646.99402	1.42407
1645.06546	1.41535
1643.13689	1.40989
1641.20833	1.40685
1639.27976	1.40439
1637.35120	1.40129
1635.42264	1.39156
1633.49407	1.37840
1631.56551	1.36976
1629.63694	1.36193
1627.70838	1.35133
1625.77981	1.33639
1623.85125	1.31448
1621.92269	1.28818
1619.99412	1.26670
1618.06556	1.24265
1616.13699	1.20727
1614.20843	1.17725
1612.27986	1.15360
1610.35130	1.12966
1608.42273	1.10687
1606.49417	1.08859
1604.56561	1.07495
1602.63704	1.06454
1600.70848	1.05766
1598.77991	1.05427
1596.85135	1.05350
1594.92278	1.05435
1592.99422	1.05573
1591.06565	1.05752
1589.13709	1.06022
1587.20853	1.06479
1585.27996	1.07229
1583.35140	1.08193
1581.42283	1.09119
1579.49427	1.09955
1577.56570	1.11141
1575.63714	1.12920
1573.70857	1.14124
1571.78001	1.15006
1569.85145	1.16461
1567.92288	1.17943
1565.99432	1.18986
1564.06575	1.20029
1562.13719	1.20871
1560.20862	1.22176
1558.28006	1.25499
1556.35149	1.27092
1554.42293	1.27526
1552.49437	1.28018
1550.56580	1.28579
1548.63724	1.29040
1546.70867	1.29402
1544.78011	1.29881
1542.85154	1.30459
1540.92298	1.30500
1538.99441	1.29094
1537.06585	1.27922
1535.13729	1.27133
1533.20872	1.26235
1531.28016	1.25213
1529.35159	1.24408
1527.42303	1.23784
1525.49446	1.23142
1523.56590	1.22428
1521.63733	1.21535
1519.70877	1.20692
1517.78021	1.19589
1515.85164	1.17867
1513.92308	1.16087
1511.99451	1.14424
1510.06595	1.12816
1508.13738	1.10406
1506.20882	1.05949
1504.28025	1.03126
1502.35169	1.01394
1500.42313	0.99707
1498.49456	0.97737
1496.56600	0.95285
1494.63743	0.93200
1492.70887	0.91865
1490.78030	0.90724
1488.85174	0.89293
1486.92317	0.87958
1484.99461	0.87120
1483.06605	0.86767
1481.13748	0.86784
1479.20892	0.87063
1477.28035	0.87705
1475.35179	0.88903
1473.42322	0.90905
1471.49466	0.92961
1469.56610	0.93946
1467.63753	0.94523
1465.70897	0.95261
1463.78040	0.95960
1461.85184	0.96281
1459.92327	0.96597
1457.99471	0.97462
1456.06614	0.98119
1454.13758	0.97804
1452.20902	0.97405
1450.28045	0.97134
1448.35189	0.96849
1446.42332	0.96416
1444.49476	0.95936
1442.56619	0.95453
1440.63763	0.94981
1438.70906	0.94529
1436.78050	0.93898
1434.85194	0.93037
1432.92337	0.92275
1430.99481	0.91638
1429.06624	0.91098
1427.13768	0.90751
1425.20911	0.90639
1423.28055	0.90665
1421.35198	0.90765
1419.42342	0.91065
1417.49486	0.91300
1415.56629	0.91211
1413.63773	0.91104
1411.70916	0.91102
1409.78060	0.91169
1407.85203	0.91313
1405.92347	0.91569
1403.99490	0.91825
1402.06634	0.91984
1400.13778	0.92177
1398.20921	0.92412
1396.28065	0.92619
1394.35208	0.92799
1392.42352	0.92861
1390.49495	0.92956
1388.56639	0.93441
1386.63782	0.94326
1384.70926	0.95102
1382.78070	0.95719
1380.85213	0.96241
1378.92357	0.96467
1376.99500	0.96325
1375.06644	0.95825
1373.13787	0.95001
1371.20931	0.94100
1369.28074	0.93080
1367.35218	0.91849
1365.42362	0.90674
1363.49505	0.89628
1361.56649	0.88635
1359.63792	0.87824
1357.70936	0.87243
1355.78079	0.86822
1353.85223	0.86481
1351.92366	0.86167
1349.99510	0.85858
1348.06654	0.85546
1346.13797	0.85256
1344.20941	0.85023
1342.28084	0.84893
1340.35228	0.84886
1338.42371	0.84881
1336.49515	0.84851
1334.56659	0.84973
1332.63802	0.85333
1330.70946	0.85897
1328.78089	0.86521
1326.85233	0.87050
1324.92376	0.87463
1322.99520	0.87819
1321.06663	0.88219
1319.13807	0.88731
1317.20951	0.89262
1315.28094	0.89694
1313.35238	0.90012
1311.42381	0.90178
1309.49525	0.90223
1307.56668	0.90217
1305.63812	0.90153
1303.70955	0.90044
1301.78099	0.89896
1299.85243	0.89610
1297.92386	0.89130
1295.99530	0.88607
1294.06673	0.88200
1292.13817	0.87892
1290.20960	0.87656
1288.28104	0.87504
1286.35247	0.87404
1284.42391	0.87311
1282.49535	0.87230
1280.56678	0.87200
1278.63822	0.87274
1276.70965	0.87503
1274.78109	0.87898
1272.85252	0.88475
1270.92396	0.89247
1268.99539	0.90119
1267.06683	0.90977
1265.13827	0.91804
1263.20970	0.92577
1261.28114	0.93251
1259.35257	0.93837
1257.42401	0.94372
1255.49544	0.94876
1253.56688	0.95315
1251.63831	0.95665
1249.70975	0.95938
1247.78119	0.96095
1245.85262	0.96091
1243.92406	0.95968
1241.99549	0.95775
1240.06693	0.95494
1238.13836	0.95094
1236.20980	0.94540
1234.28123	0.93818
1232.35267	0.93002
1230.42411	0.92152
1228.49554	0.91241
1226.56698	0.90237
1224.63841	0.89186
1222.70985	0.88165
1220.78128	0.87161
1218.85272	0.86193
1216.92415	0.85410
1214.99559	0.84889
1213.06703	0.84588
1211.13846	0.84486
1209.20990	0.84534
1207.28133	0.84566
1205.35277	0.84404
1203.42420	0.84034
1201.49564	0.83572
1199.56708	0.83049
1197.63851	0.82450
1195.70995	0.81860
1193.78138	0.81373
1191.85282	0.80982
1189.92425	0.80643
1187.99569	0.80362
1186.06712	0.80157
1184.13856	0.80031
1182.21000	0.79987
1180.28143	0.80052
1178.35287	0.80292
1176.42430	0.80718
1174.49574	0.81254
1172.56717	0.81835
1170.63861	0.82468
1168.71004	0.83205
1166.78148	0.84119
1164.85292	0.85197
1162.92435	0.86240
1160.99579	0.87020
1159.06722	0.87424
1157.13866	0.87464
1155.21009	0.87223
1153.28153	0.86718
1151.35296	0.85973
1149.42440	0.85132
1147.49584	0.84388
1145.56727	0.83869
1143.63871	0.83620
1141.71014	0.83665
1139.78158	0.83987
1137.85301	0.84497
1135.92445	0.85069
1133.99588	0.85660
1132.06732	0.86326
1130.13876	0.87107
1128.21019	0.87984
1126.28163	0.88875
1124.35306	0.89660
1122.42450	0.90228
1120.49593	0.90561
1118.56737	0.90730
1116.63880	0.90740
1114.71024	0.90529
1112.78168	0.90101
1110.85311	0.89546
1108.92455	0.88975
1106.99598	0.88522
1105.06742	0.88283
1103.13885	0.88240
1101.21029	0.88379
1099.28172	0.88753
1097.35316	0.89393
1095.42460	0.90256
1093.49603	0.91331
1091.56747	0.92637
1089.63890	0.94089
1087.71034	0.95671
1085.78177	0.97408
1083.85321	0.99093
1081.92464	1.00491
1079.99608	1.01495
1078.06752	1.01993
1076.13895	1.01918
1074.21039	1.01353
1072.28182	1.00430
1070.35326	0.99214
1068.42469	0.97833
1066.49613	0.96535
1064.56756	0.95476
1062.63900	0.94550
1060.71044	0.93570
1058.78187	0.92623
1056.85331	0.91880
1054.92474	0.91250
1052.99618	0.90639
1051.06761	0.90207
1049.13905	0.90120
1047.21049	0.90301
1045.28192	0.90658
1043.35336	0.91256
1041.42479	0.92092
1039.49623	0.93004
1037.56766	0.93818
1035.63910	0.94429
1033.71053	0.94926
1031.78197	0.95394
1029.85341	0.95629
1027.92484	0.95395
1025.99628	0.94771
1024.06771	0.94023
1022.13915	0.93263
1020.21058	0.92402
1018.28202	0.91405
1016.35345	0.90290
1014.42489	0.88978
1012.49633	0.87362
1010.56776	0.85424
1008.63920	0.83237
1006.71063	0.80923
1004.78207	0.78617
1002.85350	0.76470
1000.92494	0.74587
998.99637	0.73040
997.06781	0.71889
995.13925	0.71040
993.21068	0.70330
991.28212	0.69708
989.35355	0.69204
987.42499	0.68838
985.49642	0.68597
983.56786	0.68456
981.63929	0.68437
979.71073	0.68589
977.78217	0.68861
975.85360	0.69097
973.92504	0.69177
971.99647	0.69063
970.06791	0.68778
968.13934	0.68381
966.21078	0.67943
964.28221	0.67528
962.35365	0.67257
960.42509	0.67283
958.49652	0.67580
956.56796	0.67879
954.63939	0.67879
952.71083	0.67424
950.78226	0.66561
948.85370	0.65502
946.92513	0.64496
944.99657	0.63674
943.06801	0.63052
941.13944	0.62618
939.21088	0.62326
937.28231	0.62131
935.35375	0.62054
933.42518	0.62117
931.49662	0.62291
929.56805	0.62551
927.63949	0.62896
925.71093	0.63323
923.78236	0.63823
921.85380	0.64362
919.92523	0.64819
917.99667	0.65064
916.06810	0.65137
914.13954	0.65161
912.21098	0.65167
910.28241	0.65134
908.35385	0.65083
906.42528	0.65024
904.49672	0.64924
902.56815	0.64764
900.63959	0.64541
898.71102	0.64252
896.78246	0.63898
894.85390	0.63496
892.92533	0.63096
890.99677	0.62737
889.06820	0.62448
887.13964	0.62274
885.21107	0.62244
883.28251	0.62358
881.35394	0.62575
879.42538	0.62854
877.49682	0.63220
875.56825	0.63686
873.63969	0.64201
871.71112	0.64728
869.78256	0.65259
867.85399	0.65774
865.92543	0.66255
863.99686	0.66691
862.06830	0.67082
860.13974	0.67472
858.21117	0.67882
856.28261	0.68245
854.35404	0.68491
852.42548	0.68641
850.49691	0.68746
848.56835	0.68810
846.63978	0.68836
844.71122	0.68871
842.78266	0.68927
840.85409	0.68990
838.92553	0.69082
836.99696	0.69251
835.06840	0.69527
833.13983	0.69856
831.21127	0.70190
829.28270	0.70553
827.35414	0.70925
825.42558	0.71289
823.49701	0.71703
821.56845	0.72174
819.63988	0.72644
817.71132	0.73056
815.78275	0.73387
813.85419	0.73694
811.92562	0.74056
809.99706	0.74448
808.06850	0.74767
806.13993	0.74919
804.21137	0.74897
802.28280	0.74781
800.35424	0.74603
798.42567	0.74377
796.49711	0.74121
794.56854	0.73832
792.63998	0.73548
790.71142	0.73278
788.78285	0.72997
786.85429	0.72805
784.92572	0.72779
782.99716	0.72834
781.06859	0.72934
779.14003	0.73157
777.21147	0.73529
775.28290	0.73968
773.35434	0.74405
771.42577	0.74867
769.49721	0.75428
767.56864	0.76080
765.64008	0.76687
763.71151	0.77180
761.78295	0.77647
759.85439	0.78130
757.92582	0.78607
755.99726	0.79079
754.06869	0.79496
752.14013	0.79818
750.21156	0.80128
748.28300	0.80488
746.35443	0.80792
744.42587	0.80906
742.49731	0.80865
740.56874	0.80803
738.64018	0.80700
736.71161	0.80472
734.78305	0.80221
732.85448	0.80087
730.92592	0.80017
728.99735	0.79910
727.06879	0.79824
725.14023	0.79847
723.21166	0.79952
721.28310	0.80084
719.35453	0.80194
717.42597	0.80290
715.49740	0.80435
713.56884	0.80723
711.64027	0.81223
709.71171	0.81792
707.78315	0.82279
705.85458	0.82754
703.92602	0.83294
701.99745	0.83856
700.06889	0.84334
698.14032	0.84664
696.21176	0.84897
694.28319	0.85052
692.35463	0.85143
690.42607	0.85250
688.49750	0.85243
686.56894	0.84975
684.64037	0.84661
682.71181	0.84441
680.78324	0.84193
678.85468	0.83799
676.92611	0.83191
674.99755	0.82477
673.06899	0.81900
671.14042	0.81576
669.21186	0.81205
667.28329	0.80307
665.35473	0.79562
663.42616	0.79184
661.49760	0.78927
659.56903	0.78622
657.64047	0.78275
655.71191	0.78044
653.78334	0.77967
651.85478	0.78084
649.92621	0.78401
647.99765	0.78691
646.06908	0.79005
644.14052	0.79673
642.21195	0.80636
640.28339	0.81656
638.35483	0.82677
636.42626	0.83629
634.49770	0.84358
632.56913	0.84835
630.64057	0.85176
628.71200	0.85444
626.78344	0.85555
624.85488	0.85416
622.92631	0.85107
620.99775	0.84758
619.06918	0.84442
617.14062	0.84133
615.21205	0.83653
613.28349	0.82964
611.35492	0.82176
609.42636	0.81386
607.49780	0.80803
605.56923	0.80547
603.64067	0.80395
601.71210	0.80257
599.78354	0.80427
