3997.91406	0.65279
3995.98550	0.65321
3994.05693	0.65217
3992.12837	0.65076
3990.19980	0.65007
3988.27124	0.64973
3986.34268	0.64910
3984.41411	0.64827
3982.48555	0.64732
3980.55698	0.64599
3978.62842	0.64447
3976.69985	0.64353
3974.77129	0.64343
3972.84272	0.64363
3970.91416	0.64356
3968.98560	0.64313
3967.05703	0.64276
3965.12847	0.64256
3963.19990	0.64259
3961.27134	0.64258
3959.34277	0.64219
3957.41421	0.64218
3955.48564	0.64272
3953.55708	0.64252
3951.62852	0.64126
3949.69995	0.64037
3947.77139	0.63957
3945.84282	0.63788
3943.91426	0.63725
3941.98569	0.63781
3940.05713	0.63712
3938.12856	0.63546
3936.20000	0.63398
3934.27144	0.63339
3932.34287	0.63415
3930.41431	0.63422
3928.48574	0.63231
3926.55718	0.63103
3924.62861	0.63097
3922.70005	0.62893
3920.77148	0.62560
3918.84292	0.62432
3916.91436	0.62438
3914.98579	0.62307
3913.05723	0.62076
3911.12866	0.61875
3909.20010	0.61791
3907.27153	0.61876
3905.34297	0.62094
3903.41440	0.62257
3901.48584	0.62234
3899.55728	0.62139
3897.62871	0.61956
3895.70015	0.61694
3893.77158	0.61593
3891.84302	0.61803
3889.91445	0.61874
3887.98589	0.61730
3886.05733	0.61821
3884.12876	0.61988
3882.20020	0.61943
3880.27163	0.61947
3878.34307	0.61846
3876.41450	0.61657
3874.48594	0.61642
3872.55737	0.61723
3870.62881	0.61831
3868.70025	0.61889
3866.77168	0.61878
3864.84312	0.62048
3862.91455	0.62125
3860.98599	0.61790
3859.05742	0.61360
3857.12886	0.61071
3855.20029	0.61250
3853.27173	0.62187
3851.34317	0.62303
3849.41460	0.61644
3847.48604	0.61050
3845.55747	0.60770
3843.62891	0.60748
3841.70034	0.60830
3839.77178	0.61048
3837.84321	0.61266
3835.91465	0.61171
3833.98609	0.60991
3832.05752	0.60902
3830.12896	0.60768
3828.20039	0.60566
3826.27183	0.60387
3824.34326	0.60241
3822.41470	0.60389
3820.48613	0.60794
3818.55757	0.60759
3816.62901	0.60652
3814.70044	0.60576
3812.77188	0.60261
3810.84331	0.59918
3808.91475	0.59853
3806.98618	0.60152
3805.05762	0.60333
3803.12905	0.60410
3801.20049	0.60628
3799.27193	0.60529
3797.34336	0.60326
3795.41480	0.60229
3793.48623	0.60046
3791.55767	0.59833
3789.62910	0.59701
3787.70054	0.59668
3785.77197	0.59703
3783.84341	0.59655
3781.91485	0.59523
3779.98628	0.59480
3778.05772	0.59461
3776.12915	0.59309
3774.20059	0.59129
3772.27202	0.59124
3770.34346	0.59349
3768.41489	0.59485
3766.48633	0.59436
3764.55777	0.59314
3762.62920	0.59114
3760.70064	0.59102
3758.77207	0.59364
3756.84351	0.59398
3754.91494	0.59214
3752.98638	0.59334
3751.05781	0.60093
3749.12925	0.60314
3747.20069	0.59711
3745.27212	0.59274
3743.34356	0.59327
3741.41499	0.59267
3739.48643	0.59081
3737.55786	0.59175
3735.62930	0.59688
3733.70074	0.59907
3731.77217	0.59497
3729.84361	0.58936
3727.91504	0.58619
3725.98648	0.58664
3724.05791	0.58767
3722.12935	0.58731
3720.20078	0.58658
3718.27222	0.58523
3716.34366	0.58341
3714.41509	0.58318
3712.48653	0.58740
3710.55796	0.59204
3708.62940	0.58987
3706.70083	0.58619
3704.77227	0.58447
3702.84370	0.58490
3700.91514	0.58574
3698.98658	0.58538
3697.05801	0.58519
3695.12945	0.58567
3693.20088	0.58709
3691.27232	0.59169
3689.34375	0.59837
3687.41519	0.59854
3685.48662	0.59499
3683.55806	0.59346
3681.62950	0.59450
3679.70093	0.59617
3677.77237	0.59901
3675.84380	0.60636
3673.91524	0.60985
3671.98667	0.60858
3670.05811	0.61147
3668.12954	0.61461
3666.20098	0.61433
3664.27242	0.61469
3662.34385	0.61666
3660.41529	0.61922
3658.48672	0.62279
3656.55816	0.62926
3654.62959	0.63481
3652.70103	0.63787
3650.77246	0.64584
3648.84390	0.66088
3646.91534	0.66678
3644.98677	0.66707
3643.05821	0.66841
3641.12964	0.67164
3639.20108	0.67589
3637.27251	0.68042
3635.34395	0.68554
3633.41538	0.69070
3631.48682	0.69502
3629.55826	0.70364
3627.62969	0.71517
3625.70113	0.71947
3623.77256	0.72138
3621.84400	0.72541
3619.91543	0.73449
3617.98687	0.74440
3616.05830	0.74973
3614.12974	0.75481
3612.20118	0.76024
3610.27261	0.76497
3608.34405	0.77138
3606.41548	0.77728
3604.48692	0.78104
3602.55835	0.78681
3600.62979	0.79575
3598.70123	0.80431
3596.77266	0.81209
3594.84410	0.82110
3592.91553	0.82904
3590.98697	0.83400
3589.05840	0.84087
3587.12984	0.85256
3585.20127	0.86121
3583.27271	0.86585
3581.34415	0.87112
3579.41558	0.87843
3577.48702	0.88588
3575.55845	0.89297
3573.62989	0.90064
3571.70132	0.90759
3569.77276	0.91372
3567.84419	0.92362
3565.91563	0.93787
3563.98707	0.94812
3562.05850	0.95529
3560.12994	0.96225
3558.20137	0.96945
3556.27281	0.97703
3554.34424	0.98557
3552.41568	0.99413
3550.48711	1.00021
3548.55855	1.00701
3546.62999	1.01860
3544.70142	1.03043
3542.77286	1.03768
3540.84429	1.04345
3538.91573	1.05107
3536.98716	1.06093
3535.05860	1.06983
3533.13003	1.07566
3531.20147	1.08206
3529.27291	1.09215
3527.34434	1.10341
3525.41578	1.11302
3523.48721	1.12198
3521.55865	1.12902
3519.63008	1.13438
3517.70152	1.14293
3515.77295	1.15383
3513.84439	1.16362
3511.91583	1.17263
3509.98726	1.18239
3508.05870	1.19361
3506.13013	1.20392
3504.20157	1.21491
3502.27300	1.22788
3500.34444	1.23747
3498.41587	1.24445
3496.48731	1.25225
3494.55875	1.26072
3492.63018	1.26931
3490.70162	1.27778
3488.77305	1.28671
3486.84449	1.29551
3484.91592	1.30204
3482.98736	1.30851
3481.05879	1.31734
3479.13023	1.32546
3477.20167	1.33135
3475.27310	1.33606
3473.34454	1.34074
3471.41597	1.34504
3469.48741	1.34755
3467.55884	1.34878
3465.63028	1.35046
3463.70171	1.35625
3461.77315	1.36686
3459.84459	1.37467
3457.91602	1.37691
3455.98746	1.38036
3454.05889	1.38688
3452.13033	1.39221
3450.20176	1.39574
3448.27320	1.40118
3446.34464	1.40679
3444.41607	1.40715
3442.48751	1.40664
3440.55894	1.40915
3438.63038	1.41255
3436.70181	1.41718
3434.77325	1.42111
3432.84468	1.42310
3430.91612	1.42822
3428.98756	1.43470
3427.05899	1.43312
3425.13043	1.42704
3423.20186	1.42814
3421.27330	1.43523
3419.34473	1.43964
3417.41617	1.44012
3415.48760	1.44039
3413.55904	1.44071
3411.63048	1.44104
3409.70191	1.44350
3407.77335	1.44675
3405.84478	1.44992
3403.91622	1.45222
3401.98765	1.45110
3400.05909	1.45147
3398.13052	1.45856
3396.20196	1.46693
3394.27340	1.46962
3392.34483	1.46785
3390.41627	1.46475
3388.48770	1.46229
3386.55914	1.46431
3384.63057	1.46998
3382.70201	1.47376
3380.77344	1.47653
3378.84488	1.48206
3376.91632	1.48794
3374.98775	1.48944
3373.05919	1.48700
3371.13062	1.48425
3369.20206	1.48382
3367.27349	1.48715
3365.34493	1.49278
3363.41636	1.49826
3361.48780	1.50188
3359.55924	1.50178
3357.63067	1.50076
3355.70211	1.50261
3353.77354	1.50443
3351.84498	1.50463
3349.91641	1.50761
3347.98785	1.51436
3346.05928	1.52157
3344.13072	1.52557
3342.20216	1.52299
3340.27359	1.51691
3338.34503	1.51526
3336.41646	1.52087
3334.48790	1.53016
3332.55933	1.53752
3330.63077	1.54080
3328.70220	1.54351
3326.77364	1.54584
3324.84508	1.54483
3322.91651	1.54473
3320.98795	1.54878
3319.05938	1.55378
3317.13082	1.55501
3315.20225	1.55203
3313.27369	1.55274
3311.34513	1.55739
3309.41656	1.55776
3307.48800	1.55691
3305.55943	1.56148
3303.63087	1.56771
3301.70230	1.56998
3299.77374	1.57045
3297.84517	1.57265
3295.91661	1.57533
3293.98805	1.57565
3292.05948	1.57217
3290.13092	1.56682
3288.20235	1.56297
3286.27379	1.55970
3284.34522	1.55475
3282.41666	1.55000
3280.48809	1.54852
3278.55953	1.55155
3276.63097	1.55504
3274.70240	1.55340
3272.77384	1.54881
3270.84527	1.54605
3268.91671	1.54545
3266.98814	1.54309
3265.05958	1.53549
3263.13101	1.52528
3261.20245	1.51937
3259.27389	1.51810
3257.34532	1.51486
3255.41676	1.50898
3253.48819	1.50119
3251.55963	1.49295
3249.63106	1.48870
3247.70250	1.48402
3245.77393	1.47553
3243.84537	1.46821
3241.91681	1.46373
3239.98824	1.46122
3238.05968	1.45947
3236.13111	1.45565
3234.20255	1.44988
3232.27398	1.44468
3230.34542	1.44063
3228.41685	1.43813
3226.48829	1.43584
3224.55973	1.43114
3222.63116	1.42782
3220.70260	1.42997
3218.77403	1.43285
3216.84547	1.42964
3214.91690	1.42129
3212.98834	1.41401
3211.05977	1.40949
3209.13121	1.40426
3207.20265	1.39773
3205.27408	1.39205
3203.34552	1.38787
3201.41695	1.38540
3199.48839	1.38279
3197.55982	1.37734
3195.63126	1.37186
3193.70269	1.36993
3191.77413	1.36885
3189.84557	1.36673
3187.91700	1.36466
3185.98844	1.35965
3184.05987	1.35133
3182.13131	1.34526
3180.20274	1.34260
3178.27418	1.34117
3176.34562	1.34130
3174.41705	1.34182
3172.48849	1.33757
3170.55992	1.32793
3168.63136	1.31893
3166.70279	1.31397
3164.77423	1.31168
3162.84566	1.30966
3160.91710	1.30720
3158.98854	1.30405
3157.05997	1.29973
3155.13141	1.29576
3153.20284	1.29240
3151.27428	1.28920
3149.34571	1.28698
3147.41715	1.28405
3145.48858	1.27895
3143.56002	1.27422
3141.63146	1.27156
3139.70289	1.26900
3137.77433	1.26565
3135.84576	1.26317
3133.91720	1.26261
3131.98863	1.26349
3130.06007	1.26428
3128.13150	1.26384
3126.20294	1.26356
3124.27438	1.26484
3122.34581	1.26468
3120.41725	1.26208
3118.48868	1.26178
3116.56012	1.26394
3114.63155	1.26468
3112.70299	1.26423
3110.77442	1.26363
3108.84586	1.26252
3106.91730	1.26126
3104.98873	1.26019
3103.06017	1.25928
3101.13160	1.25816
3099.20304	1.25672
3097.27447	1.25536
3095.34591	1.25286
3093.41734	1.24908
3091.48878	1.24627
3089.56022	1.24485
3087.63165	1.24337
3085.70309	1.24045
3083.77452	1.23633
3081.84596	1.23255
3079.91739	1.22959
3077.98883	1.22681
3076.06026	1.22330
3074.13170	1.22050
3072.20314	1.22036
3070.27457	1.22035
3068.34601	1.21797
3066.41744	1.21472
3064.48888	1.21120
3062.56031	1.20637
3060.63175	1.20102
3058.70318	1.19683
3056.77462	1.19418
3054.84606	1.19233
3052.91749	1.18982
3050.98893	1.18566
3049.06036	1.18077
3047.13180	1.17603
3045.20323	1.17099
3043.27467	1.16580
3041.34610	1.16197
3039.41754	1.15929
3037.48898	1.15504
3035.56041	1.14993
3033.63185	1.14740
3031.70328	1.14553
3029.77472	1.14024
3027.84615	1.13281
3025.91759	1.12732
3023.98903	1.12466
3022.06046	1.12132
3020.13190	1.11573
3018.20333	1.11054
3016.27477	1.10713
3014.34620	1.10511
3012.41764	1.10397
3010.48907	1.10254
3008.56051	1.10082
3006.63195	1.09930
3004.70338	1.09723
3002.77482	1.09548
3000.84625	1.09546
2998.91769	1.09636
2996.98912	1.09748
2995.06056	1.09910
2993.13199	1.10147
2991.20343	1.10443
2989.27487	1.10749
2987.34630	1.11146
2985.41774	1.11757
2983.48917	1.12582
2981.56061	1.13598
2979.63204	1.14683
2977.70348	1.15635
2975.77491	1.16517
2973.84635	1.17467
2971.91779	1.18391
2969.98922	1.19333
2968.06066	1.20435
2966.13209	1.21493
2964.20353	1.22217
2962.27496	1.22616
2960.34640	1.22859
2958.41783	1.22956
2956.48927	1.22736
2954.56071	1.22188
2952.63214	1.21519
2950.70358	1.20914
2948.77501	1.20521
2946.84645	1.20565
2944.91788	1.21178
2942.98932	1.22192
2941.06075	1.23294
2939.13219	1.24386
2937.20363	1.25621
2935.27506	1.27012
2933.34650	1.28338
2931.41793	1.29456
2929.48937	1.30377
2927.56080	1.31212
2925.63224	1.32009
2923.70367	1.32431
2921.77511	1.32240
2919.84655	1.31731
2917.91798	1.30895
2915.98942	1.29242
2914.06085	1.26797
2912.13229	1.24246
2910.20372	1.22145
2908.27516	1.20485
2906.34659	1.19037
2904.41803	1.17841
2902.48947	1.17021
2900.56090	1.16473
2898.63234	1.16030
2896.70377	1.15524
2894.77521	1.14793
2892.84664	1.14040
2890.91808	1.13609
2888.98952	1.13392
2887.06095	1.13106
2885.13239	1.12759
2883.20382	1.12463
2881.27526	1.12349
2879.34669	1.12543
2877.41813	1.12851
2875.48956	1.12936
2873.56100	1.12730
2871.63244	1.12265
2869.70387	1.11581
2867.77531	1.10776
2865.84674	1.10019
2863.91818	1.09566
2861.98961	1.09474
2860.06105	1.09586
2858.13248	1.09922
2856.20392	1.10546
2854.27536	1.11284
2852.34679	1.11881
2850.41823	1.11799
2848.48966	1.10246
2846.56110	1.07395
2844.63253	1.04423
2842.70397	1.02074
2840.77540	1.00359
2838.84684	0.99089
2836.91828	0.98092
2834.98971	0.97224
2833.06115	0.96448
2831.13258	0.95848
2829.20402	0.95444
2827.27545	0.95108
2825.34689	0.94682
2823.41832	0.94175
2821.48976	0.93745
2819.56120	0.93400
2817.63263	0.92987
2815.70407	0.92484
2813.77550	0.91979
2811.84694	0.91546
2809.91837	0.91197
2807.98981	0.90878
2806.06124	0.90555
2804.13268	0.90202
2802.20412	0.89802
2800.27555	0.89406
2798.34699	0.89074
2796.41842	0.88805
2794.48986	0.88509
2792.56129	0.88113
2790.63273	0.87675
2788.70416	0.87335
2786.77560	0.87120
2784.84704	0.86912
2782.91847	0.86675
2780.98991	0.86450
2779.06134	0.86253
2777.13278	0.86093
2775.20421	0.85963
2773.27565	0.85830
2771.34708	0.85668
2769.41852	0.85474
2767.48996	0.85281
2765.56139	0.85098
2763.63283	0.84853
2761.70426	0.84522
2759.77570	0.84220
2757.84713	0.83998
2755.91857	0.83756
2753.99001	0.83459
2752.06144	0.83193
2750.13288	0.82985
2748.20431	0.82743
2746.27575	0.82418
2744.34718	0.82087
2742.41862	0.81814
2740.49005	0.81580
2738.56149	0.81363
2736.63293	0.81167
2734.70436	0.80971
2732.77580	0.80720
2730.84723	0.80437
2728.91867	0.80208
2726.99010	0.80017
2725.06154	0.79810
2723.13297	0.79566
2721.20441	0.79309
2719.27585	0.79123
2717.34728	0.79003
2715.41872	0.78850
2713.49015	0.78687
2711.56159	0.78551
2709.63302	0.78355
2707.70446	0.78102
2705.77589	0.77882
2703.84733	0.77705
2701.91877	0.77564
2699.99020	0.77440
2698.06164	0.77293
2696.13307	0.77108
2694.20451	0.76907
2692.27594	0.76721
2690.34738	0.76556
2688.41881	0.76390
2686.49025	0.76197
2684.56169	0.75969
2682.63312	0.75755
2680.70456	0.75560
2678.77599	0.75352
2676.84743	0.75163
2674.91886	0.75009
2672.99030	0.74836
2671.06173	0.74660
2669.13317	0.74566
2667.20461	0.74496
2665.27604	0.74346
2663.34748	0.74154
2661.41891	0.73983
2659.49035	0.73825
2657.56178	0.73686
2655.63322	0.73573
2653.70465	0.73437
2651.77609	0.73289
2649.84753	0.73185
2647.91896	0.73094
2645.99040	0.72967
2644.06183	0.72817
2642.13327	0.72662
2640.20470	0.72516
2638.27614	0.72389
2636.34757	0.72239
2634.41901	0.72041
2632.49045	0.71893
2630.56188	0.71828
2628.63332	0.71714
2626.70475	0.71526
2624.77619	0.71335
2622.84762	0.71145
2620.91906	0.70969
2618.99049	0.70856
2617.06193	0.70790
2615.13337	0.70715
2613.20480	0.70622
2611.27624	0.70521
2609.34767	0.70415
2607.41911	0.70314
2605.49054	0.70204
2603.56198	0.70110
2601.63342	0.70071
2599.70485	0.70041
2597.77629	0.69973
2595.84772	0.69903
2593.91916	0.69846
2591.99059	0.69764
2590.06203	0.69624
2588.13346	0.69466
2586.20490	0.69333
2584.27634	0.69210
2582.34777	0.69085
2580.41921	0.68951
2578.49064	0.68773
2576.56208	0.68562
2574.63351	0.68377
2572.70495	0.68214
2570.77638	0.68030
2568.84782	0.67829
2566.91926	0.67650
2564.99069	0.67503
2563.06213	0.67371
2561.13356	0.67230
2559.20500	0.67068
2557.27643	0.66894
2555.34787	0.66712
2553.41930	0.66540
2551.49074	0.66408
2549.56218	0.66301
2547.63361	0.66197
2545.70505	0.66098
2543.77648	0.66005
2541.84792	0.65921
2539.91935	0.65844
2537.99079	0.65758
2536.06222	0.65663
2534.13366	0.65567
2532.20510	0.65472
2530.27653	0.65374
2528.34797	0.65289
2526.41940	0.65198
2524.49084	0.65068
2522.56227	0.64921
2520.63371	0.64772
2518.70514	0.64590
2516.77658	0.64390
2514.84802	0.64187
2512.91945	0.63970
2510.99089	0.63763
2509.06232	0.63575
2507.13376	0.63365
2505.20519	0.63135
2503.27663	0.62918
2501.34806	0.62734
2499.41950	0.62589
2497.49094	0.62462
2495.56237	0.62324
2493.63381	0.62156
2491.70524	0.61985
2489.77668	0.61872
2487.84811	0.61836
2485.91955	0.61797
2483.99098	0.61689
2482.06242	0.61568
2480.13386	0.61483
2478.20529	0.61405
2476.27673	0.61320
2474.34816	0.61244
2472.41960	0.61163
2470.49103	0.61058
2468.56247	0.60944
2466.63391	0.60856
2464.70534	0.60777
2462.77678	0.60669
2460.84821	0.60534
2458.91965	0.60378
2456.99108	0.60209
2455.06252	0.60041
2453.13395	0.59847
2451.20539	0.59620
2449.27683	0.59394
2447.34826	0.59186
2445.41970	0.58964
2443.49113	0.58721
2441.56257	0.58517
2439.63400	0.58385
2437.70544	0.58273
2435.77687	0.58131
2433.84831	0.57988
2431.91975	0.57894
2429.99118	0.57842
2428.06262	0.57785
2426.13405	0.57715
2424.20549	0.57689
2422.27692	0.57724
2420.34836	0.57757
2418.41979	0.57731
2416.49123	0.57671
2414.56267	0.57652
2412.63410	0.57680
2410.70554	0.57685
2408.77697	0.57631
2406.84841	0.57540
2404.91984	0.57446
2402.99128	0.57363
2401.06271	0.57249
2399.13415	0.57072
2397.20559	0.56885
2395.27702	0.56730
2393.34846	0.56581
2391.41989	0.56427
2389.49133	0.56306
2387.56276	0.56234
2385.63420	0.56187
2383.70563	0.56172
2381.77707	0.56228
2379.84851	0.56329
2377.91994	0.56463
2375.99138	0.56716
2374.06281	0.57095
2372.13425	0.57427
2370.20568	0.57601
2368.27712	0.57718
2366.34855	0.57840
2364.41999	0.57939
2362.49143	0.58058
2360.56286	0.58163
2358.63430	0.58082
2356.70573	0.57796
2354.77717	0.57431
2352.84860	0.56928
2350.92004	0.56313
2348.99147	0.55799
2347.06291	0.55534
2345.13435	0.55564
2343.20578	0.55646
2341.27722	0.55575
2339.34865	0.55479
2337.42009	0.55376
2335.49152	0.55188
2333.56296	0.54881
2331.63440	0.54542
2329.70583	0.54307
2327.77727	0.54109
2325.84870	0.53857
2323.92014	0.53614
2321.99157	0.53381
2320.06301	0.53088
2318.13444	0.52755
2316.20588	0.52458
2314.27732	0.52234
2312.34875	0.52059
2310.42019	0.51887
2308.49162	0.51709
2306.56306	0.51542
2304.63449	0.51385
2302.70593	0.51227
2300.77736	0.51087
2298.84880	0.50986
2296.92024	0.50878
2294.99167	0.50712
2293.06311	0.50500
2291.13454	0.50298
2289.20598	0.50123
2287.27741	0.49948
2285.34885	0.49770
2283.42028	0.49601
2281.49172	0.49432
2279.56316	0.49267
2277.63459	0.49115
2275.70603	0.48979
2273.77746	0.48844
2271.84890	0.48674
2269.92033	0.48474
2267.99177	0.48290
2266.06320	0.48128
2264.13464	0.47982
2262.20608	0.47855
2260.27751	0.47742
2258.34895	0.47647
2256.42038	0.47566
2254.49182	0.47485
2252.56325	0.47425
2250.63469	0.47402
2248.70612	0.47390
2246.77756	0.47375
2244.84900	0.47375
2242.92043	0.47391
2240.99187	0.47397
2239.06330	0.47383
2237.13474	0.47374
2235.20617	0.47401
2233.27761	0.47447
2231.34904	0.47466
2229.42048	0.47456
2227.49192	0.47450
2225.56335	0.47459
2223.63479	0.47468
2221.70622	0.47454
2219.77766	0.47395
2217.84909	0.47314
2215.92053	0.47243
2213.99196	0.47180
2212.06340	0.47116
2210.13484	0.47049
2208.20627	0.46958
2206.27771	0.46842
2204.34914	0.46736
2202.42058	0.46647
2200.49201	0.46560
2198.56345	0.46469
2196.63488	0.46369
2194.70632	0.46246
2192.77776	0.46084
2190.84919	0.45909
2188.92063	0.45779
2186.99206	0.45687
2185.06350	0.45584
2183.13493	0.45465
2181.20637	0.45343
2179.27781	0.45227
2177.34924	0.45127
2175.42068	0.45047
2173.49211	0.44982
2171.56355	0.44925
2169.63498	0.44868
2167.70642	0.44822
2165.77785	0.44784
2163.84929	0.44723
2161.92073	0.44646
2159.99216	0.44588
2158.06360	0.44547
2156.13503	0.44495
2154.20647	0.44419
2152.27790	0.44313
2150.34934	0.44186
2148.42077	0.44071
2146.49221	0.43978
2144.56365	0.43875
2142.63508	0.43748
2140.70652	0.43613
2138.77795	0.43477
2136.84939	0.43330
2134.92082	0.43172
2132.99226	0.43007
2131.06369	0.42841
2129.13513	0.42665
2127.20657	0.42470
2125.27800	0.42274
2123.34944	0.42090
2121.42087	0.41915
2119.49231	0.41740
2117.56374	0.41568
2115.63518	0.41407
2113.70661	0.41246
2111.77805	0.41084
2109.84949	0.40925
2107.92092	0.40772
2105.99236	0.40639
2104.06379	0.40536
2102.13523	0.40444
2100.20666	0.40345
2098.27810	0.40253
2096.34953	0.40169
2094.42097	0.40095
2092.49241	0.40043
2090.56384	0.39989
2088.63528	0.39911
2086.70671	0.39825
2084.77815	0.39755
2082.84958	0.39701
2080.92102	0.39638
2078.99245	0.39545
2077.06389	0.39439
2075.13533	0.39343
2073.20676	0.39249
2071.27820	0.39145
2069.34963	0.39048
2067.42107	0.38974
2065.49250	0.38907
2063.56394	0.38818
2061.63537	0.38707
2059.70681	0.38586
2057.77825	0.38471
2055.84968	0.38373
2053.92112	0.38295
2051.99255	0.38224
2050.06399	0.38149
2048.13542	0.38071
2046.20686	0.37988
2044.27830	0.37907
2042.34973	0.37833
2040.42117	0.37777
2038.49260	0.37735
2036.56404	0.37683
2034.63547	0.37615
2032.70691	0.37551
2030.77834	0.37496
2028.84978	0.37437
2026.92122	0.37371
2024.99265	0.37304
2023.06409	0.37246
2021.13552	0.37201
2019.20696	0.37156
2017.27839	0.37085
2015.34983	0.36971
2013.42126	0.36849
2011.49270	0.36758
2009.56414	0.36685
2007.63557	0.36601
2005.70701	0.36498
2003.77844	0.36399
2001.84988	0.36324
1999.92131	0.36263
1997.99275	0.36184
1996.06418	0.36087
1994.13562	0.36017
1992.20706	0.35980
1990.27849	0.35921
1988.34993	0.35817
1986.42136	0.35686
1984.49280	0.35554
1982.56423	0.35433
1980.63567	0.35329
1978.70710	0.35255
1976.77854	0.35189
1974.84998	0.35096
1972.92141	0.34981
1970.99285	0.34861
1969.06428	0.34768
1967.13572	0.34689
1965.20715	0.34558
1963.27859	0.34378
1961.35002	0.34208
1959.42146	0.34061
1957.49290	0.33915
1955.56433	0.33752
1953.63577	0.33567
1951.70720	0.33389
1949.77864	0.33238
1947.85007	0.33114
1945.92151	0.33008
1943.99294	0.32911
1942.06438	0.32765
1940.13582	0.32538
1938.20725	0.32315
1936.27869	0.32151
1934.35012	0.32025
1932.42156	0.31912
1930.49299	0.31795
1928.56443	0.31662
1926.63586	0.31537
1924.70730	0.31487
1922.77874	0.31476
1920.85017	0.31392
1918.92161	0.31282
1916.99304	0.31171
1915.06448	0.31024
1913.13591	0.30917
1911.20735	0.30892
1909.27878	0.30875
1907.35022	0.30798
1905.42166	0.30687
1903.49309	0.30592
1901.56453	0.30522
1899.63596	0.30471
1897.70740	0.30441
1895.77883	0.30421
1893.85027	0.30364
1891.92171	0.30314
1889.99314	0.30314
1888.06458	0.30268
1886.13601	0.30159
1884.20745	0.30066
1882.27888	0.29984
1880.35032	0.29893
1878.42175	0.29811
1876.49319	0.29747
1874.56463	0.29700
1872.63606	0.29690
1870.70750	0.29783
1868.77893	0.29932
1866.85037	0.29860
1864.92180	0.29627
1862.99324	0.29482
1861.06467	0.29458
1859.13611	0.29471
1857.20755	0.29477
1855.27898	0.29496
1853.35042	0.29546
1851.42185	0.29650
1849.49329	0.29823
1847.56472	0.30035
1845.63616	0.30290
1843.70759	0.30523
1841.77903	0.30555
1839.85047	0.30541
1837.92190	0.30637
1835.99334	0.30747
1834.06477	0.30786
1832.13621	0.30874
1830.20764	0.31075
1828.27908	0.31167
1826.35051	0.31114
1824.42195	0.31059
1822.49339	0.30971
1820.56482	0.30870
1818.63626	0.30826
1816.70769	0.30815
1814.77913	0.30816
1812.85056	0.30870
1810.92200	0.30961
1808.99343	0.30987
1807.06487	0.30953
1805.13631	0.30959
1803.20774	0.31067
1801.27918	0.31265
1799.35061	0.31433
1797.42205	0.31542
1795.49348	0.31686
1793.56492	0.31967
1791.63635	0.32314
1789.70779	0.32423
1787.77923	0.32453
1785.85066	0.32644
1783.92210	0.32950
1781.99353	0.33263
1780.06497	0.33576
1778.13640	0.33830
1776.20784	0.34053
1774.27927	0.34406
1772.35071	0.34893
1770.42215	0.35129
1768.49358	0.35135
1766.56502	0.35159
1764.63645	0.35277
1762.70789	0.35575
1760.77932	0.35954
1758.85076	0.36281
1756.92220	0.36758
1754.99363	0.37334
1753.06507	0.38009
1751.13650	0.39182
1749.20794	0.40763
1747.27937	0.41955
1745.35081	0.42779
1743.42224	0.43545
1741.49368	0.44341
1739.56512	0.45119
1737.63655	0.45648
1735.70799	0.46133
1733.77942	0.47031
1731.85086	0.47738
1729.92229	0.48107
1727.99373	0.48550
1726.06516	0.49154
1724.13660	0.50022
1722.20804	0.50968
1720.27947	0.51902
1718.35091	0.53444
1716.42234	0.55758
1714.49378	0.57294
1712.56521	0.58388
1710.63665	0.59755
1708.70808	0.61573
1706.77952	0.64353
1704.85096	0.68030
1702.92239	0.71367
1700.99383	0.75993
1699.06526	0.83429
1697.13670	0.90530
1695.20813	0.97553
1693.27957	1.02893
1691.35100	1.07118
1689.42244	1.12197
1687.49388	1.16945
1685.56531	1.21618
1683.63675	1.28009
1681.70818	1.32150
1679.77962	1.34366
1677.85105	1.36457
1675.92249	1.38912
1673.99392	1.41344
1672.06536	1.43076
1670.13680	1.44422
1668.20823	1.45450
1666.27967	1.45828
1664.35110	1.46077
1662.42254	1.46006
1660.49397	1.45372
1658.56541	1.44978
1656.63684	1.44892
1654.70828	1.44932
1652.77972	1.44077
1650.85115	1.42968
1648.92259	1.42373
1646.99402	1.41731
1645.06546	1.41180
1643.13689	1.40628
1641.20833	1.40105
1639.27976	1.39738
1637.35120	1.39696
1635.42264	1.39681
1633.49407	1.39155
1631.56551	1.38514
1629.63694	1.37719
1627.70838	1.36766
1625.77981	1.35635
1623.85125	1.34117
1621.92269	1.32393
1619.99412	1.31010
1618.06556	1.29221
1616.13699	1.25927
1614.20843	1.22937
1612.27986	1.20700
1610.35130	1.18383
1608.42273	1.15922
1606.49417	1.13751
1604.56561	1.12096
1602.63704	1.10863
1600.70848	1.10083
1598.77991	1.09759
1596.85135	1.09793
1594.92278	1.10107
1592.99422	1.10674
1591.06565	1.11499
1589.13709	1.12542
1587.20853	1.13772
1585.27996	1.15173
1583.35140	1.16755
1581.42283	1.18350
1579.49427	1.19791
1577.56570	1.21551
1575.63714	1.23763
1573.70857	1.24998
1571.78001	1.25772
1569.85145	1.27117
1567.92288	1.28553
1565.99432	1.29541
1564.06575	1.30508
1562.13719	1.31280
1560.20862	1.32100
1558.28006	1.33802
1556.35149	1.34610
1554.42293	1.34666
1552.49437	1.34495
1550.56580	1.34217
1548.63724	1.33937
1546.70867	1.33853
1544.78011	1.33811
1542.85154	1.33272
1540.92298	1.31636
1538.99441	1.29519
1537.06585	1.28515
1535.13729	1.27723
1533.20872	1.26481
1531.28016	1.25236
1529.35159	1.24357
1527.42303	1.23579
1525.49446	1.22969
1523.56590	1.22685
1521.63733	1.22324
1519.70877	1.21668
1517.78021	1.20629
1515.85164	1.19044
1513.92308	1.17337
1511.99451	1.15734
1510.06595	1.14256
1508.13738	1.12022
1506.20882	1.08071
1504.28025	1.05836
1502.35169	1.04460
1500.42313	1.02952
1498.49456	1.01021
1496.56600	0.98406
1494.63743	0.96040
1492.70887	0.94425
1490.78030	0.92858
1488.85174	0.90860
1486.92317	0.89202
1484.99461	0.88203
1483.06605	0.87736
1481.13748	0.87762
1479.20892	0.88195
1477.28035	0.89127
1475.35179	0.90810
1473.42322	0.93511
1471.49466	0.96204
1469.56610	0.97572
1467.63753	0.98553
1465.70897	0.99937
1463.78040	1.01426
1461.85184	1.02402
1459.92327	1.03314
1457.99471	1.04878
1456.06614	1.06205
1454.13758	1.06337
1452.20902	1.06235
1450.28045	1.06161
1448.35189	1.06084
1446.42332	1.05882
1444.49476	1.05533
1442.56619	1.05055
1440.63763	1.04555
1438.70906	1.04093
1436.78050	1.03359
1434.85194	1.02307
1432.92337	1.01435
1430.99481	1.00720
1429.06624	1.00062
1427.13768	0.99621
1425.20911	0.99486
1423.28055	0.99562
1421.35198	0.99737
1419.42342	1.00085
1417.49486	1.00399
1415.56629	1.00477
1413.63773	1.00558
1411.70916	1.00696
1409.78060	1.00847
1407.85203	1.01053
1405.92347	1.01410
1403.99490	1.01802
1402.06634	1.02090
1400.13778	1.02410
1398.20921	1.02769
1396.28065	1.03035
1394.35208	1.03162
1392.42352	1.03221
1390.49495	1.03413
1388.56639	1.04003
1386.63782	1.05002
1384.70926	1.05963
1382.78070	1.06777
1380.85213	1.07374
1378.92357	1.07521
1376.99500	1.07201
1375.06644	1.06383
1373.13787	1.05107
1371.20931	1.03705
1369.28074	1.02110
1367.35218	1.00266
1365.42362	0.98511
1363.49505	0.96844
1361.56649	0.95278
1359.63792	0.94109
1357.70936	0.93301
1355.78079	0.92722
1353.85223	0.92279
1351.92366	0.91893
1349.99510	0.91554
1348.06654	0.91311
1346.13797	0.91196
1344.20941	0.91217
1342.28084	0.91400
1340.35228	0.91764
1338.42371	0.92154
1336.49515	0.92498
1334.56659	0.93058
1332.63802	0.93972
1330.70946	0.95079
1328.78089	0.96137
1326.85233	0.97051
1324.92376	0.97837
1322.99520	0.98577
1321.06663	0.99404
1319.13807	1.00283
1317.20951	1.00993
1315.28094	1.01478
1313.35238	1.01867
1311.42381	1.02217
1309.49525	1.02520
1307.56668	1.02724
1305.63812	1.02763
1303.70955	1.02676
1301.78099	1.02486
1299.85243	1.02113
1297.92386	1.01530
1295.99530	1.00867
1294.06673	1.00284
1292.13817	0.99831
1290.20960	0.99463
1288.28104	0.99118
1286.35247	0.98811
1284.42391	0.98573
1282.49535	0.98364
1280.56678	0.98180
1278.63822	0.98092
1276.70965	0.98140
1274.78109	0.98327
1272.85252	0.98648
1270.92396	0.99097
1268.99539	0.99664
1267.06683	1.00299
1265.13827	1.00905
1263.20970	1.01450
1261.28114	1.01942
1259.35257	1.02310
1257.42401	1.02557
1255.49544	1.02816
1253.56688	1.03115
1251.63831	1.03405
1249.70975	1.03722
1247.78119	1.04066
1245.85262	1.04335
1243.92406	1.04464
1241.99549	1.04468
1240.06693	1.04412
1238.13836	1.04260
1236.20980	1.03891
1234.28123	1.03377
1232.35267	1.02819
1230.42411	1.02128
1228.49554	1.01230
1226.56698	1.00197
1224.63841	0.99099
1222.70985	0.97941
1220.78128	0.96762
1218.85272	0.95653
1216.92415	0.94652
1214.99559	0.93810
1213.06703	0.93263
1211.13846	0.93056
1209.20990	0.93075
1207.28133	0.93152
1205.35277	0.93076
1203.42420	0.92710
1201.49564	0.92132
1199.56708	0.91455
1197.63851	0.90697
1195.70995	0.89918
1193.78138	0.89227
1191.85282	0.88648
1189.92425	0.88164
1187.99569	0.87757
1186.06712	0.87435
1184.13856	0.87286
1182.21000	0.87337
1180.28143	0.87545
1178.35287	0.87943
1176.42430	0.88576
1174.49574	0.89340
1172.56717	0.90098
1170.63861	0.90878
1168.71004	0.91808
1166.78148	0.92979
1164.85292	0.94362
1162.92435	0.95776
1160.99579	0.96972
1159.06722	0.97754
1157.13866	0.98036
1155.21009	0.97782
1153.28153	0.97058
1151.35296	0.96076
1149.42440	0.94993
1147.49584	0.93947
1145.56727	0.93167
1143.63871	0.92811
1141.71014	0.92921
1139.78158	0.93565
1137.85301	0.94764
1135.92445	0.96371
1133.99588	0.98249
1132.06732	1.00358
1130.13876	1.02645
1128.21019	1.05060
1126.28163	1.07501
1124.35306	1.09723
1122.42450	1.11507
1120.49593	1.12892
1118.56737	1.14026
1116.63880	1.14805
1114.71024	1.15023
1112.78168	1.14723
1110.85311	1.14096
1108.92455	1.13306
1106.99598	1.12426
1105.06742	1.11508
1103.13885	1.10708
1101.21029	1.10048
1099.28172	1.09420
1097.35316	1.08921
1095.42460	1.08821
1093.49603	1.09269
1091.56747	1.10227
1089.63890	1.11625
1087.71034	1.13330
1085.78177	1.15143
1083.85321	1.16934
1081.92464	1.18504
1079.99608	1.19527
1078.06752	1.19909
1076.13895	1.19890
1074.21039	1.19685
1072.28182	1.19335
1070.35326	1.19004
1068.42469	1.18957
1066.49613	1.19150
1064.56756	1.19294
1062.63900	1.19282
1060.71044	1.19246
1058.78187	1.19257
1056.85331	1.19274
1054.92474	1.19282
1052.99618	1.19200
1051.06761	1.18900
1049.13905	1.18374
1047.21049	1.17741
1045.28192	1.17193
1043.35336	1.16852
1041.42479	1.16610
1039.49623	1.16201
1037.56766	1.15577
1035.63910	1.14909
1033.71053	1.14215
1031.78197	1.13346
1029.85341	1.12196
1027.92484	1.10854
1025.99628	1.09523
1024.06771	1.08261
1022.13915	1.07090
1020.21058	1.06157
1018.28202	1.05507
1016.35345	1.04933
1014.42489	1.04252
1012.49633	1.03442
1010.56776	1.02496
1008.63920	1.01427
1006.71063	1.00301
1004.78207	0.99198
1002.85350	0.98264
1000.92494	0.97668
998.99637	0.97404
997.06781	0.97281
995.13925	0.97123
993.21068	0.96829
991.28212	0.96269
989.35355	0.95270
987.42499	0.93775
985.49642	0.91914
983.56786	0.89861
981.63929	0.87735
979.71073	0.85624
977.78217	0.83567
975.85360	0.81568
973.92504	0.79624
971.99647	0.77683
970.06791	0.75719
968.13934	0.73833
966.21078	0.72178
964.28221	0.70892
962.35365	0.70105
960.42509	0.69958
958.49652	0.70461
956.56796	0.71298
954.63939	0.71964
952.71083	0.72173
950.78226	0.72005
948.85370	0.71727
946.92513	0.71578
944.99657	0.71662
943.06801	0.71954
941.13944	0.72375
939.21088	0.72843
937.28231	0.73298
935.35375	0.73681
933.42518	0.73917
931.49662	0.73988
929.56805	0.73915
927.63949	0.73701
925.71093	0.73357
923.78236	0.72919
921.85380	0.72373
919.92523	0.71611
917.99667	0.70621
916.06810	0.69585
914.13954	0.68630
912.21098	0.67792
910.28241	0.67159
908.35385	0.66815
906.42528	0.66782
904.49672	0.67036
902.56815	0.67520
900.63959	0.68151
898.71102	0.68803
896.78246	0.69392
894.85390	0.69947
892.92533	0.70540
890.99677	0.71212
889.06820	0.71973
887.13964	0.72846
885.21107	0.73882
883.28251	0.75107
881.35394	0.76458
879.42538	0.77807
877.49682	0.79046
875.56825	0.80141
873.63969	0.81102
871.71112	0.81869
869.78256	0.82286
867.85399	0.82279
865.92543	0.81935
863.99686	0.81358
862.06830	0.80601
860.13974	0.79774
858.21117	0.78961
856.28261	0.78108
854.35404	0.77181
852.42548	0.76275
850.49691	0.75491
848.56835	0.74886
846.63978	0.74470
844.71122	0.74232
842.78266	0.74189
840.85409	0.74363
838.92553	0.74771
836.99696	0.75415
835.06840	0.76240
833.13983	0.77154
831.21127	0.78084
829.28270	0.79035
827.35414	0.80012
825.42558	0.80961
823.49701	0.81829
821.56845	0.82649
819.63988	0.83425
817.71132	0.83992
815.78275	0.84280
813.85419	0.84373
811.92562	0.84277
809.99706	0.83972
808.06850	0.83495
806.13993	0.82890
804.21137	0.82172
802.28280	0.81336
800.35424	0.80459
798.42567	0.79652
796.49711	0.78968
794.56854	0.78437
792.63998	0.78075
790.71142	0.77879
788.78285	0.77859
786.85429	0.78024
784.92572	0.78420
782.99716	0.79075
781.06859	0.79900
779.14003	0.80787
777.21147	0.81768
775.28290	0.82863
773.35434	0.83956
771.42577	0.85002
769.49721	0.86012
767.56864	0.86896
765.64008	0.87691
763.71151	0.88490
761.78295	0.89168
759.85439	0.89624
757.92582	0.89914
755.99726	0.90016
754.06869	0.89910
752.14013	0.89697
750.21156	0.89387
748.28300	0.88867
746.35443	0.88115
744.42587	0.87199
742.49731	0.86178
740.56874	0.85155
738.64018	0.84269
736.71161	0.83542
734.78305	0.82963
732.85448	0.82638
730.92592	0.82597
728.99735	0.82728
727.06879	0.83017
725.14023	0.83570
723.21166	0.84423
721.28310	0.85487
719.35453	0.86565
717.42597	0.87617
715.49740	0.88852
713.56884	0.90356
711.64027	0.92030
709.71171	0.93788
707.78315	0.95548
705.85458	0.97225
703.92602	0.98772
701.99745	1.00143
700.06889	1.01254
698.14032	1.02068
696.21176	1.02750
694.28319	1.03405
692.35463	1.03763
690.42607	1.03530
688.49750	1.02948
686.56894	1.02400
684.64037	1.01706
682.71181	1.00610
680.78324	0.99414
678.85468	0.98444
676.92611	0.97631
674.99755	0.96943
673.06899	0.96498
671.14042	0.96275
669.21186	0.96110
667.28329	0.95919
665.35473	0.95910
663.42616	0.96090
661.49760	0.96352
659.56903	0.96731
657.64047	0.97332
655.71191	0.98142
653.78334	0.99019
651.85478	0.99684
649.92621	1.00151
647.99765	1.00742
646.06908	1.01463
644.14052	1.02104
642.21195	1.02597
640.28339	1.02986
638.35483	1.03255
636.42626	1.03303
634.49770	1.03025
632.56913	1.02353
630.64057	1.01534
628.71200	1.00989
626.78344	1.00609
624.85488	1.00093
622.92631	0.99589
620.99775	0.99205
619.06918	0.98888
617.14062	0.98678
615.21205	0.98570
613.28349	0.98488
611.35492	0.98457
609.42636	0.98561
607.49780	0.98740
605.56923	0.98897
603.64067	0.99123
601.71210	0.99574
599.78354	1.00271
