3997.91406	0.58249
3995.98550	0.58284
3994.05693	0.58285
3992.12837	0.58319
3990.19980	0.58318
3988.27124	0.58253
3986.34268	0.58200
3984.41411	0.58165
3982.48555	0.58129
3980.55698	0.58146
3978.62842	0.58211
3976.69985	0.58281
3974.77129	0.58333
3972.84272	0.58311
3970.91416	0.58192
3968.98560	0.58058
3967.05703	0.58011
3965.12847	0.58010
3963.19990	0.57969
3961.27134	0.57865
3959.34277	0.57757
3957.41421	0.57735
3955.48564	0.57757
3953.55708	0.57729
3951.62852	0.57663
3949.69995	0.57617
3947.77139	0.57571
3945.84282	0.57540
3943.91426	0.57635
3941.98569	0.57757
3940.05713	0.57709
3938.12856	0.57598
3936.20000	0.57603
3934.27144	0.57713
3932.34287	0.57735
3930.41431	0.57548
3928.48574	0.57368
3926.55718	0.57364
3924.62861	0.57360
3922.70005	0.57169
3920.77148	0.57014
3918.84292	0.57089
3916.91436	0.57175
3914.98579	0.56995
3913.05723	0.56705
3911.12866	0.56520
3909.20010	0.56469
3907.27153	0.56532
3905.34297	0.56700
3903.41440	0.56809
3901.48584	0.56788
3899.55728	0.56722
3897.62871	0.56501
3895.70015	0.56280
3893.77158	0.56300
3891.84302	0.56452
3889.91445	0.56388
3887.98589	0.56222
3886.05733	0.56150
3884.12876	0.56111
3882.20020	0.56142
3880.27163	0.56278
3878.34307	0.56187
3876.41450	0.55998
3874.48594	0.56006
3872.55737	0.56139
3870.62881	0.56197
3868.70025	0.56059
3866.77168	0.55947
3864.84312	0.56114
3862.91455	0.56196
3860.98599	0.55922
3859.05742	0.55645
3857.12886	0.55520
3855.20029	0.55664
3853.27173	0.56158
3851.34317	0.56052
3849.41460	0.55574
3847.48604	0.55241
3845.55747	0.55200
3843.62891	0.55442
3841.70034	0.55703
3839.77178	0.55824
3837.84321	0.55812
3835.91465	0.55628
3833.98609	0.55440
3832.05752	0.55310
3830.12896	0.55170
3828.20039	0.55125
3826.27183	0.55224
3824.34326	0.55285
3822.41470	0.55408
3820.48613	0.55576
3818.55757	0.55446
3816.62901	0.55274
3814.70044	0.55056
3812.77188	0.54748
3810.84331	0.54531
3808.91475	0.54540
3806.98618	0.54758
3805.05762	0.54851
3803.12905	0.54835
3801.20049	0.54858
3799.27193	0.54742
3797.34336	0.54549
3795.41480	0.54314
3793.48623	0.54081
3791.55767	0.53954
3789.62910	0.53903
3787.70054	0.53878
3785.77197	0.53896
3783.84341	0.53877
3781.91485	0.53836
3779.98628	0.53953
3778.05772	0.54073
3776.12915	0.53929
3774.20059	0.53724
3772.27202	0.53740
3770.34346	0.53926
3768.41489	0.53948
3766.48633	0.53859
3764.55777	0.53784
3762.62920	0.53694
3760.70064	0.53733
3758.77207	0.53856
3756.84351	0.53760
3754.91494	0.53623
3752.98638	0.53837
3751.05781	0.54449
3749.12925	0.54570
3747.20069	0.54340
3745.27212	0.54312
3743.34356	0.54351
3741.41499	0.54250
3739.48643	0.54159
3737.55786	0.54275
3735.62930	0.54667
3733.70074	0.54791
3731.77217	0.54433
3729.84361	0.54034
3727.91504	0.53864
3725.98648	0.53967
3724.05791	0.54091
3722.12935	0.54002
3720.20078	0.53779
3718.27222	0.53596
3716.34366	0.53525
3714.41509	0.53567
3712.48653	0.53786
3710.55796	0.53985
3708.62940	0.53827
3706.70083	0.53575
3704.77227	0.53440
3702.84370	0.53468
3700.91514	0.53507
3698.98658	0.53442
3697.05801	0.53438
3695.12945	0.53526
3693.20088	0.53702
3691.27232	0.54134
3689.34375	0.54546
3687.41519	0.54351
3685.48662	0.54022
3683.55806	0.53867
3681.62950	0.53915
3679.70093	0.54151
3677.77237	0.54538
3675.84380	0.55080
3673.91524	0.55344
3671.98667	0.55474
3670.05811	0.55875
3668.12954	0.56027
3666.20098	0.55935
3664.27242	0.56024
3662.34385	0.56292
3660.41529	0.56606
3658.48672	0.57014
3656.55816	0.57583
3654.62959	0.57963
3652.70103	0.58243
3650.77246	0.59066
3648.84390	0.60366
3646.91534	0.60755
3644.98677	0.60677
3643.05821	0.60718
3641.12964	0.60969
3639.20108	0.61324
3637.27251	0.61749
3635.34395	0.62308
3633.41538	0.62897
3631.48682	0.63379
3629.55826	0.64095
3627.62969	0.64885
3625.70113	0.65169
3623.77256	0.65387
3621.84400	0.65818
3619.91543	0.66554
3617.98687	0.67249
3616.05830	0.67664
3614.12974	0.68148
3612.20118	0.68643
3610.27261	0.69035
3608.34405	0.69601
3606.41548	0.70250
3604.48692	0.70817
3602.55835	0.71498
3600.62979	0.72202
3598.70123	0.72673
3596.77266	0.73094
3594.84410	0.73686
3592.91553	0.74227
3590.98697	0.74668
3589.05840	0.75454
3587.12984	0.76535
3585.20127	0.77114
3583.27271	0.77389
3581.34415	0.77757
3579.41558	0.78303
3577.48702	0.78976
3575.55845	0.79647
3573.62989	0.80199
3571.70132	0.80683
3569.77276	0.81251
3567.84419	0.82094
3565.91563	0.83055
3563.98707	0.83718
3562.05850	0.84262
3560.12994	0.84837
3558.20137	0.85431
3556.27281	0.86051
3554.34424	0.86822
3552.41568	0.87699
3550.48711	0.88353
3548.55855	0.88896
3546.62999	0.89670
3544.70142	0.90590
3542.77286	0.91305
3540.84429	0.91850
3538.91573	0.92486
3536.98716	0.93206
3535.05860	0.93818
3533.13003	0.94335
3531.20147	0.94923
3529.27291	0.95720
3527.34434	0.96809
3525.41578	0.98041
3523.48721	0.99077
3521.55865	0.99743
3519.63008	1.00206
3517.70152	1.00815
3515.77295	1.01689
3513.84439	1.02637
3511.91583	1.03557
3509.98726	1.04570
3508.05870	1.05693
3506.13013	1.06919
3504.20157	1.08337
3502.27300	1.09585
3500.34444	1.10498
3498.41587	1.11522
3496.48731	1.12732
3494.55875	1.13793
3492.63018	1.14513
3490.70162	1.15054
3488.77305	1.15730
3486.84449	1.16720
3484.91592	1.17725
3482.98736	1.18583
3481.05879	1.19413
3479.13023	1.19891
3477.20167	1.20072
3475.27310	1.20437
3473.34454	1.20979
3471.41597	1.21523
3469.48741	1.22149
3467.55884	1.22819
3465.63028	1.23292
3463.70171	1.23633
3461.77315	1.24054
3459.84459	1.24538
3457.91602	1.24996
3455.98746	1.25511
3454.05889	1.26165
3452.13033	1.26614
3450.20176	1.26606
3448.27320	1.26555
3446.34464	1.26839
3444.41607	1.27341
3442.48751	1.27958
3440.55894	1.28575
3438.63038	1.29141
3436.70181	1.29829
3434.77325	1.30343
3432.84468	1.30284
3430.91612	1.29951
3428.98756	1.29781
3427.05899	1.29818
3425.13043	1.29929
3423.20186	1.30085
3421.27330	1.30335
3419.34473	1.30493
3417.41617	1.30374
3415.48760	1.30332
3413.55904	1.30637
3411.63048	1.31043
3409.70191	1.31377
3407.77335	1.31581
3405.84478	1.31580
3403.91622	1.31433
3401.98765	1.31316
3400.05909	1.31587
3398.13052	1.32361
3396.20196	1.32944
3394.27340	1.32736
3392.34483	1.32367
3390.41627	1.32715
3388.48770	1.33523
3386.55914	1.33969
3384.63057	1.34165
3382.70201	1.34712
3380.77344	1.35275
3378.84488	1.35491
3376.91632	1.35680
3374.98775	1.35770
3373.05919	1.35640
3371.13062	1.35820
3369.20206	1.36403
3367.27349	1.36775
3365.34493	1.36838
3363.41636	1.37018
3361.48780	1.37369
3359.55924	1.37661
3357.63067	1.37915
3355.70211	1.38354
3353.77354	1.38938
3351.84498	1.39533
3349.91641	1.39984
3347.98785	1.39923
3346.05928	1.39584
3344.13072	1.39829
3342.20216	1.40927
3340.27359	1.42209
3338.34503	1.42871
3336.41646	1.43018
3334.48790	1.43230
3332.55933	1.43551
3330.63077	1.43897
3328.70220	1.44376
3326.77364	1.44989
3324.84508	1.45705
3322.91651	1.46542
3320.98795	1.47354
3319.05938	1.48033
3317.13082	1.48714
3315.20225	1.49191
3313.27369	1.49189
3311.34513	1.49320
3309.41656	1.50196
3307.48800	1.51285
3305.55943	1.51659
3303.63087	1.51486
3301.70230	1.51885
3299.77374	1.52983
3297.84517	1.53601
3295.91661	1.53547
3293.98805	1.53802
3292.05948	1.54428
3290.13092	1.54727
3288.20235	1.54723
3286.27379	1.54771
3284.34522	1.55104
3282.41666	1.55601
3280.48809	1.55497
3278.55953	1.54866
3276.63097	1.54288
3274.70240	1.53698
3272.77384	1.53320
3270.84527	1.53040
3268.91671	1.52120
3266.98814	1.50725
3265.05958	1.49623
3263.13101	1.48921
3261.20245	1.48211
3259.27389	1.47259
3257.34532	1.45989
3255.41676	1.44386
3253.48819	1.42823
3251.55963	1.41569
3249.63106	1.40442
3247.70250	1.39616
3245.77393	1.39095
3243.84537	1.38089
3241.91681	1.36658
3239.98824	1.35733
3238.05968	1.35352
3236.13111	1.34922
3234.20255	1.34367
3232.27398	1.33733
3230.34542	1.32836
3228.41685	1.31878
3226.48829	1.31209
3224.55973	1.30810
3222.63116	1.30373
3220.70260	1.29647
3218.77403	1.28759
3216.84547	1.27884
3214.91690	1.27030
3212.98834	1.26305
3211.05977	1.25842
3209.13121	1.25474
3207.20265	1.24885
3205.27408	1.23994
3203.34552	1.23108
3201.41695	1.22569
3199.48839	1.22171
3197.55982	1.21600
3195.63126	1.20923
3193.70269	1.20150
3191.77413	1.19334
3189.84557	1.18686
3187.91700	1.18234
3185.98844	1.17852
3184.05987	1.17383
3182.13131	1.16776
3180.20274	1.16092
3178.27418	1.15282
3176.34562	1.14456
3174.41705	1.13985
3172.48849	1.13821
3170.55992	1.13470
3168.63136	1.12727
3166.70279	1.11884
3164.77423	1.11222
3162.84566	1.10668
3160.91710	1.10015
3158.98854	1.09246
3157.05997	1.08592
3155.13141	1.08241
3153.20284	1.07987
3151.27428	1.07549
3149.34571	1.07060
3147.41715	1.06702
3145.48858	1.06384
3143.56002	1.06086
3141.63146	1.05900
3139.70289	1.05796
3137.77433	1.05726
3135.84576	1.05593
3133.91720	1.05315
3131.98863	1.05091
3130.06007	1.05098
3128.13150	1.05240
3126.20294	1.05402
3124.27438	1.05580
3122.34581	1.05794
3120.41725	1.05985
3118.48868	1.06054
3116.56012	1.05984
3114.63155	1.05809
3112.70299	1.05627
3110.77442	1.05628
3108.84586	1.05762
3106.91730	1.05716
3104.98873	1.05483
3103.06017	1.05338
3101.13160	1.05292
3099.20304	1.05205
3097.27447	1.05092
3095.34591	1.04958
3093.41734	1.04759
3091.48878	1.04514
3089.56022	1.04250
3087.63165	1.04041
3085.70309	1.03941
3083.77452	1.03872
3081.84596	1.03707
3079.91739	1.03416
3077.98883	1.03130
3076.06026	1.03003
3074.13170	1.02934
3072.20314	1.02691
3070.27457	1.02244
3068.34601	1.01745
3066.41744	1.01322
3064.48888	1.00888
3062.56031	1.00372
3060.63175	0.99921
3058.70318	0.99515
3056.77462	0.98979
3054.84606	0.98356
3052.91749	0.97717
3050.98893	0.96982
3049.06036	0.96229
3047.13180	0.95662
3045.20323	0.95188
3043.27467	0.94650
3041.34610	0.94176
3039.41754	0.93831
3037.48898	0.93476
3035.56041	0.93088
3033.63185	0.92718
3031.70328	0.92347
3029.77472	0.92033
3027.84615	0.91851
3025.91759	0.91716
3023.98903	0.91502
3022.06046	0.91207
3020.13190	0.90937
3018.20333	0.90742
3016.27477	0.90527
3014.34620	0.90267
3012.41764	0.90070
3010.48907	0.89923
3008.56051	0.89763
3006.63195	0.89602
3004.70338	0.89387
3002.77482	0.89111
3000.84625	0.88918
2998.91769	0.88898
2996.98912	0.89029
2995.06056	0.89239
2993.13199	0.89503
2991.20343	0.89857
2989.27487	0.90320
2987.34630	0.90929
2985.41774	0.91693
2983.48917	0.92532
2981.56061	0.93387
2979.63204	0.94207
2977.70348	0.94991
2975.77491	0.95885
2973.84635	0.96963
2971.91779	0.98102
2969.98922	0.99158
2968.06066	1.00089
2966.13209	1.00849
2964.20353	1.01361
2962.27496	1.01683
2960.34640	1.01766
2958.41783	1.01425
2956.48927	1.00767
2954.56071	0.99941
2952.63214	0.98988
2950.70358	0.98147
2948.77501	0.97690
2946.84645	0.97647
2944.91788	0.97954
2942.98932	0.98618
2941.06075	0.99605
2939.13219	1.00762
2937.20363	1.01909
2935.27506	1.02976
2933.34650	1.03998
2931.41793	1.05012
2929.48937	1.06012
2927.56080	1.06871
2925.63224	1.07494
2923.70367	1.07974
2921.77511	1.08315
2919.84655	1.08303
2917.91798	1.07691
2915.98942	1.06306
2914.06085	1.04213
2912.13229	1.01804
2910.20372	0.99606
2908.27516	0.97888
2906.34659	0.96544
2904.41803	0.95427
2902.48947	0.94507
2900.56090	0.93792
2898.63234	0.93218
2896.70377	0.92655
2894.77521	0.92105
2892.84664	0.91622
2890.91808	0.91156
2888.98952	0.90701
2887.06095	0.90332
2885.13239	0.90073
2883.20382	0.89973
2881.27526	0.90105
2879.34669	0.90339
2877.41813	0.90470
2875.48956	0.90465
2873.56100	0.90305
2871.63244	0.89922
2869.70387	0.89358
2867.77531	0.88771
2865.84674	0.88266
2863.91818	0.87917
2861.98961	0.87812
2860.06105	0.87927
2858.13248	0.88257
2856.20392	0.88846
2854.27536	0.89607
2852.34679	0.90321
2850.41823	0.90435
2848.48966	0.89230
2846.56110	0.86801
2844.63253	0.84104
2842.70397	0.81857
2840.77540	0.80130
2838.84684	0.78816
2836.91828	0.77880
2834.98971	0.77188
2833.06115	0.76570
2831.13258	0.76031
2829.20402	0.75605
2827.27545	0.75244
2825.34689	0.74898
2823.41832	0.74546
2821.48976	0.74243
2819.56120	0.74012
2817.63263	0.73766
2815.70407	0.73478
2813.77550	0.73180
2811.84694	0.72854
2809.91837	0.72472
2807.98981	0.72073
2806.06124	0.71698
2804.13268	0.71324
2802.20412	0.70945
2800.27555	0.70565
2798.34699	0.70130
2796.41842	0.69649
2794.48986	0.69230
2792.56129	0.68918
2790.63273	0.68643
2788.70416	0.68371
2786.77560	0.68127
2784.84704	0.67927
2782.91847	0.67767
2780.98991	0.67617
2779.06134	0.67465
2777.13278	0.67349
2775.20421	0.67288
2773.27565	0.67258
2771.34708	0.67187
2769.41852	0.67034
2767.48996	0.66895
2765.56139	0.66844
2763.63283	0.66824
2761.70426	0.66752
2759.77570	0.66631
2757.84713	0.66498
2755.91857	0.66336
2753.99001	0.66113
2752.06144	0.65861
2750.13288	0.65638
2748.20431	0.65454
2746.27575	0.65266
2744.34718	0.65084
2742.41862	0.64924
2740.49005	0.64750
2738.56149	0.64571
2736.63293	0.64428
2734.70436	0.64300
2732.77580	0.64153
2730.84723	0.64006
2728.91867	0.63878
2726.99010	0.63772
2725.06154	0.63679
2723.13297	0.63571
2721.20441	0.63452
2719.27585	0.63330
2717.34728	0.63162
2715.41872	0.62934
2713.49015	0.62688
2711.56159	0.62436
2709.63302	0.62174
2707.70446	0.61923
2705.77589	0.61711
2703.84733	0.61505
2701.91877	0.61257
2699.99020	0.60970
2698.06164	0.60677
2696.13307	0.60414
2694.20451	0.60193
2692.27594	0.59997
2690.34738	0.59790
2688.41881	0.59564
2686.49025	0.59373
2684.56169	0.59252
2682.63312	0.59172
2680.70456	0.59115
2678.77599	0.59078
2676.84743	0.59050
2674.91886	0.59011
2672.99030	0.58932
2671.06173	0.58829
2669.13317	0.58770
2667.20461	0.58765
2665.27604	0.58769
2663.34748	0.58725
2661.41891	0.58628
2659.49035	0.58534
2657.56178	0.58446
2655.63322	0.58336
2653.70465	0.58224
2651.77609	0.58122
2649.84753	0.58018
2647.91896	0.57895
2645.99040	0.57735
2644.06183	0.57594
2642.13327	0.57554
2640.20470	0.57556
2638.27614	0.57497
2636.34757	0.57398
2634.41901	0.57321
2632.49045	0.57275
2630.56188	0.57258
2628.63332	0.57252
2626.70475	0.57211
2624.77619	0.57130
2622.84762	0.57032
2620.91906	0.56926
2618.99049	0.56808
2617.06193	0.56688
2615.13337	0.56575
2613.20480	0.56451
2611.27624	0.56284
2609.34767	0.56067
2607.41911	0.55818
2605.49054	0.55567
2603.56198	0.55339
2601.63342	0.55117
2599.70485	0.54869
2597.77629	0.54609
2595.84772	0.54349
2593.91916	0.54091
2591.99059	0.53865
2590.06203	0.53690
2588.13346	0.53551
2586.20490	0.53421
2584.27634	0.53284
2582.34777	0.53149
2580.41921	0.53022
2578.49064	0.52918
2576.56208	0.52851
2574.63351	0.52801
2572.70495	0.52755
2570.77638	0.52723
2568.84782	0.52682
2566.91926	0.52621
2564.99069	0.52562
2563.06213	0.52512
2561.13356	0.52456
2559.20500	0.52395
2557.27643	0.52324
2555.34787	0.52232
2553.41930	0.52136
2551.49074	0.52044
2549.56218	0.51947
2547.63361	0.51858
2545.70505	0.51766
2543.77648	0.51650
2541.84792	0.51539
2539.91935	0.51459
2537.99079	0.51415
2536.06222	0.51398
2534.13366	0.51377
2532.20510	0.51339
2530.27653	0.51299
2528.34797	0.51265
2526.41940	0.51262
2524.49084	0.51269
2522.56227	0.51226
2520.63371	0.51162
2518.70514	0.51122
2516.77658	0.51069
2514.84802	0.50985
2512.91945	0.50902
2510.99089	0.50818
2509.06232	0.50700
2507.13376	0.50533
2505.20519	0.50349
2503.27663	0.50179
2501.34806	0.50019
2499.41950	0.49855
2497.49094	0.49680
2495.56237	0.49483
2493.63381	0.49269
2491.70524	0.49062
2489.77668	0.48875
2487.84811	0.48713
2485.91955	0.48565
2483.99098	0.48427
2482.06242	0.48322
2480.13386	0.48253
2478.20529	0.48184
2476.27673	0.48104
2474.34816	0.48053
2472.41960	0.48041
2470.49103	0.48036
2468.56247	0.48024
2466.63391	0.48007
2464.70534	0.47983
2462.77678	0.47946
2460.84821	0.47899
2458.91965	0.47853
2456.99108	0.47813
2455.06252	0.47763
2453.13395	0.47702
2451.20539	0.47628
2449.27683	0.47517
2447.34826	0.47375
2445.41970	0.47242
2443.49113	0.47143
2441.56257	0.47059
2439.63400	0.46953
2437.70544	0.46841
2435.77687	0.46741
2433.84831	0.46650
2431.91975	0.46580
2429.99118	0.46530
2428.06262	0.46488
2426.13405	0.46461
2424.20549	0.46468
2422.27692	0.46510
2420.34836	0.46551
2418.41979	0.46558
2416.49123	0.46556
2414.56267	0.46568
2412.63410	0.46565
2410.70554	0.46532
2408.77697	0.46486
2406.84841	0.46430
2404.91984	0.46356
2402.99128	0.46263
2401.06271	0.46164
2399.13415	0.46051
2397.20559	0.45905
2395.27702	0.45752
2393.34846	0.45621
2391.41989	0.45498
2389.49133	0.45373
2387.56276	0.45293
2385.63420	0.45305
2383.70563	0.45410
2381.77707	0.45602
2379.84851	0.45873
2377.91994	0.46207
2375.99138	0.46593
2374.06281	0.47037
2372.13425	0.47521
2370.20568	0.48066
2368.27712	0.48732
2366.34855	0.49466
2364.41999	0.50075
2362.49143	0.50399
2360.56286	0.50508
2358.63430	0.50368
2356.70573	0.49839
2354.77717	0.49211
2352.84860	0.48606
2350.92004	0.47992
2348.99147	0.47604
2347.06291	0.47623
2345.13435	0.48021
2343.20578	0.48432
2341.27722	0.48520
2339.34865	0.48363
2337.42009	0.48118
2335.49152	0.47882
2333.56296	0.47728
2331.63440	0.47671
2329.70583	0.47597
2327.77727	0.47408
2325.84870	0.47146
2323.92014	0.46843
2321.99157	0.46509
2320.06301	0.46219
2318.13444	0.46019
2316.20588	0.45888
2314.27732	0.45799
2312.34875	0.45720
2310.42019	0.45607
2308.49162	0.45429
2306.56306	0.45203
2304.63449	0.45001
2302.70593	0.44848
2300.77736	0.44692
2298.84880	0.44506
2296.92024	0.44331
2294.99167	0.44173
2293.06311	0.43993
2291.13454	0.43787
2289.20598	0.43593
2287.27741	0.43413
2285.34885	0.43246
2283.42028	0.43118
2281.49172	0.43041
2279.56316	0.42998
2277.63459	0.42966
2275.70603	0.42937
2273.77746	0.42910
2271.84890	0.42883
2269.92033	0.42853
2267.99177	0.42833
2266.06320	0.42818
2264.13464	0.42792
2262.20608	0.42771
2260.27751	0.42765
2258.34895	0.42764
2256.42038	0.42761
2254.49182	0.42764
2252.56325	0.42755
2250.63469	0.42713
2248.70612	0.42662
2246.77756	0.42629
2244.84900	0.42612
2242.92043	0.42581
2240.99187	0.42520
2239.06330	0.42442
2237.13474	0.42372
2235.20617	0.42306
2233.27761	0.42241
2231.34904	0.42186
2229.42048	0.42139
2227.49192	0.42092
2225.56335	0.42064
2223.63479	0.42074
2221.70622	0.42094
2219.77766	0.42082
2217.84909	0.42054
2215.92053	0.42046
2213.99196	0.42043
2212.06340	0.42026
2210.13484	0.42018
2208.20627	0.42024
2206.27771	0.42012
2204.34914	0.41967
2202.42058	0.41924
2200.49201	0.41898
2198.56345	0.41866
2196.63488	0.41830
2194.70632	0.41806
2192.77776	0.41761
2190.84919	0.41683
2188.92063	0.41620
2186.99206	0.41584
2185.06350	0.41548
2183.13493	0.41502
2181.20637	0.41448
2179.27781	0.41393
2177.34924	0.41336
2175.42068	0.41285
2173.49211	0.41243
2171.56355	0.41191
2169.63498	0.41131
2167.70642	0.41090
2165.77785	0.41052
2163.84929	0.40984
2161.92073	0.40902
2159.99216	0.40840
2158.06360	0.40780
2156.13503	0.40695
2154.20647	0.40613
2152.27790	0.40565
2150.34934	0.40539
2148.42077	0.40509
2146.49221	0.40480
2144.56365	0.40450
2142.63508	0.40420
2140.70652	0.40407
2138.77795	0.40409
2136.84939	0.40416
2134.92082	0.40440
2132.99226	0.40485
2131.06369	0.40525
2129.13513	0.40545
2127.20657	0.40557
2125.27800	0.40571
2123.34944	0.40582
2121.42087	0.40591
2119.49231	0.40587
2117.56374	0.40564
2115.63518	0.40533
2113.70661	0.40485
2111.77805	0.40404
2109.84949	0.40317
2107.92092	0.40236
2105.99236	0.40149
2104.06379	0.40041
2102.13523	0.39916
2100.20666	0.39787
2098.27810	0.39657
2096.34953	0.39527
2094.42097	0.39400
2092.49241	0.39265
2090.56384	0.39123
2088.63528	0.38981
2086.70671	0.38841
2084.77815	0.38716
2082.84958	0.38607
2080.92102	0.38491
2078.99245	0.38360
2077.06389	0.38215
2075.13533	0.38055
2073.20676	0.37893
2071.27820	0.37743
2069.34963	0.37611
2067.42107	0.37504
2065.49250	0.37398
2063.56394	0.37270
2061.63537	0.37127
2059.70681	0.36979
2057.77825	0.36832
2055.84968	0.36702
2053.92112	0.36586
2051.99255	0.36469
2050.06399	0.36352
2048.13542	0.36246
2046.20686	0.36161
2044.27830	0.36093
2042.34973	0.36037
2040.42117	0.35991
2038.49260	0.35954
2036.56404	0.35924
2034.63547	0.35907
2032.70691	0.35906
2030.77834	0.35920
2028.84978	0.35948
2026.92122	0.35978
2024.99265	0.36009
2023.06409	0.36040
2021.13552	0.36068
2019.20696	0.36106
2017.27839	0.36134
2015.34983	0.36108
2013.42126	0.36051
2011.49270	0.35996
2009.56414	0.35921
2007.63557	0.35808
2005.70701	0.35673
2003.77844	0.35547
2001.84988	0.35434
1999.92131	0.35316
1997.99275	0.35185
1996.06418	0.35058
1994.13562	0.34960
1992.20706	0.34858
1990.27849	0.34698
1988.34993	0.34495
1986.42136	0.34295
1984.49280	0.34127
1982.56423	0.33976
1980.63567	0.33809
1978.70710	0.33637
1976.77854	0.33485
1974.84998	0.33343
1972.92141	0.33190
1970.99285	0.33039
1969.06428	0.32919
1967.13572	0.32792
1965.20715	0.32602
1963.27859	0.32391
1961.35002	0.32219
1959.42146	0.32088
1957.49290	0.31975
1955.56433	0.31864
1953.63577	0.31746
1951.70720	0.31633
1949.77864	0.31540
1947.85007	0.31465
1945.92151	0.31405
1943.99294	0.31360
1942.06438	0.31285
1940.13582	0.31144
1938.20725	0.31002
1936.27869	0.30913
1934.35012	0.30870
1932.42156	0.30846
1930.49299	0.30824
1928.56443	0.30818
1926.63586	0.30856
1924.70730	0.30963
1922.77874	0.31072
1920.85017	0.31083
1918.92161	0.31072
1916.99304	0.31068
1915.06448	0.31017
1913.13591	0.30982
1911.20735	0.31017
1909.27878	0.31065
1907.35022	0.31051
1905.42166	0.30992
1903.49309	0.30945
1901.56453	0.30909
1899.63596	0.30872
1897.70740	0.30856
1895.77883	0.30844
1893.85027	0.30778
1891.92171	0.30707
1889.99314	0.30663
1888.06458	0.30547
1886.13601	0.30372
1884.20745	0.30213
1882.27888	0.30057
1880.35032	0.29889
1878.42175	0.29719
1876.49319	0.29551
1874.56463	0.29388
1872.63606	0.29280
1870.70750	0.29302
1868.77893	0.29383
1866.85037	0.29250
1864.92180	0.28982
1862.99324	0.28814
1861.06467	0.28778
1859.13611	0.28788
1857.20755	0.28775
1855.27898	0.28748
1853.35042	0.28748
1851.42185	0.28805
1849.49329	0.28924
1847.56472	0.29081
1845.63616	0.29276
1843.70759	0.29412
1841.77903	0.29349
1839.85047	0.29255
1837.92190	0.29256
1835.99334	0.29288
1834.06477	0.29296
1832.13621	0.29381
1830.20764	0.29576
1828.27908	0.29668
1826.35051	0.29624
1824.42195	0.29563
1822.49339	0.29468
1820.56482	0.29378
1818.63626	0.29351
1816.70769	0.29352
1814.77913	0.29369
1812.85056	0.29438
1810.92200	0.29507
1808.99343	0.29476
1807.06487	0.29400
1805.13631	0.29395
1803.20774	0.29488
1801.27918	0.29613
1799.35061	0.29658
1797.42205	0.29653
1795.49348	0.29700
1793.56492	0.29850
1791.63635	0.29962
1789.70779	0.29839
1787.77923	0.29707
1785.85066	0.29729
1783.92210	0.29838
1781.99353	0.29955
1780.06497	0.30069
1778.13640	0.30160
1776.20784	0.30271
1774.27927	0.30511
1772.35071	0.30845
1770.42215	0.30957
1768.49358	0.30906
1766.56502	0.30901
1764.63645	0.31016
1762.70789	0.31319
1760.77932	0.31702
1758.85076	0.32025
1756.92220	0.32432
1754.99363	0.32881
1753.06507	0.33417
1751.13650	0.34373
1749.20794	0.35596
1747.27937	0.36454
1745.35081	0.37047
1743.42224	0.37634
1741.49368	0.38261
1739.56512	0.38865
1737.63655	0.39273
1735.70799	0.39661
1733.77942	0.40343
1731.85086	0.40746
1729.92229	0.40817
1727.99373	0.40932
1726.06516	0.41189
1724.13660	0.41650
1722.20804	0.42173
1720.27947	0.42741
1718.35091	0.43796
1716.42234	0.45350
1714.49378	0.46286
1712.56521	0.46980
1710.63665	0.47999
1708.70808	0.49456
1706.77952	0.51734
1704.85096	0.54737
1702.92239	0.57532
1700.99383	0.61679
1699.06526	0.68295
1697.13670	0.74326
1695.20813	0.80093
1693.27957	0.84526
1691.35100	0.88288
1689.42244	0.93034
1687.49388	0.97533
1685.56531	1.02164
1683.63675	1.09629
1681.70818	1.15158
1679.77962	1.18172
1677.85105	1.21050
1675.92249	1.24585
1673.99392	1.28424
1672.06536	1.31496
1670.13680	1.34587
1668.20823	1.37641
1666.27967	1.39436
1664.35110	1.41266
1662.42254	1.43642
1660.49397	1.45232
1658.56541	1.45981
1656.63684	1.46442
1654.70828	1.47146
1652.77972	1.48008
1650.85115	1.48218
1648.92259	1.48391
1646.99402	1.48401
1645.06546	1.47868
1643.13689	1.47309
1641.20833	1.47159
1639.27976	1.47136
1637.35120	1.47138
1635.42264	1.46924
1633.49407	1.46137
1631.56551	1.45341
1629.63694	1.44442
1627.70838	1.43482
1625.77981	1.42501
1623.85125	1.40979
1621.92269	1.38650
1619.99412	1.36318
1618.06556	1.33260
1616.13699	1.28367
1614.20843	1.24084
1612.27986	1.20602
1610.35130	1.16858
1608.42273	1.12962
1606.49417	1.09535
1604.56561	1.06781
1602.63704	1.04496
1600.70848	1.02654
1598.77991	1.01307
1596.85135	1.00376
1594.92278	0.99669
1592.99422	0.99162
1591.06565	0.98982
1589.13709	0.99148
1587.20853	0.99672
1585.27996	1.00558
1583.35140	1.01775
1581.42283	1.03181
1579.49427	1.04642
1577.56570	1.06592
1575.63714	1.09319
1573.70857	1.11176
1571.78001	1.12514
1569.85145	1.14719
1567.92288	1.17165
1565.99432	1.18971
1564.06575	1.20730
1562.13719	1.22282
1560.20862	1.24337
1558.28006	1.27987
1556.35149	1.29393
1554.42293	1.30071
1552.49437	1.30761
1550.56580	1.31043
1548.63724	1.30980
1546.70867	1.31006
1544.78011	1.31176
1542.85154	1.31059
1540.92298	1.29961
1538.99441	1.28323
1537.06585	1.27665
1535.13729	1.27169
1533.20872	1.26156
1531.28016	1.24946
1529.35159	1.24052
1527.42303	1.23177
1525.49446	1.22229
1523.56590	1.21680
1521.63733	1.21603
1519.70877	1.21683
1517.78021	1.21252
1515.85164	1.19884
1513.92308	1.18032
1511.99451	1.16188
1510.06595	1.14517
1508.13738	1.11751
1506.20882	1.06278
1504.28025	1.02940
1502.35169	1.00774
1500.42313	0.98349
1498.49456	0.95269
1496.56600	0.91509
1494.63743	0.88436
1492.70887	0.86399
1490.78030	0.84294
1488.85174	0.81462
1486.92317	0.79082
1484.99461	0.77575
1483.06605	0.76606
1481.13748	0.76027
1479.20892	0.75894
1477.28035	0.76355
1475.35179	0.77551
1473.42322	0.79687
1471.49466	0.81876
1469.56610	0.83027
1467.63753	0.83925
1465.70897	0.85236
1463.78040	0.86606
1461.85184	0.87357
1459.92327	0.87963
1457.99471	0.89315
1456.06614	0.90740
1454.13758	0.90878
1452.20902	0.90670
1450.28045	0.90444
1448.35189	0.90155
1446.42332	0.89725
1444.49476	0.89159
1442.56619	0.88475
1440.63763	0.87792
1438.70906	0.87142
1436.78050	0.86209
1434.85194	0.84981
1432.92337	0.83902
1430.99481	0.82882
1429.06624	0.81887
1427.13768	0.81199
1425.20911	0.80883
1423.28055	0.80799
1421.35198	0.80843
1419.42342	0.81039
1417.49486	0.81067
1415.56629	0.80742
1413.63773	0.80341
1411.70916	0.79951
1409.78060	0.79603
1407.85203	0.79367
1405.92347	0.79261
1403.99490	0.79191
1402.06634	0.79130
1400.13778	0.79173
1398.20921	0.79254
1396.28065	0.79222
1394.35208	0.79149
1392.42352	0.79203
1390.49495	0.79520
1388.56639	0.80367
1386.63782	0.81816
1384.70926	0.83308
1382.78070	0.84627
1380.85213	0.85745
1378.92357	0.86394
1376.99500	0.86434
1375.06644	0.85736
1373.13787	0.84332
1371.20931	0.82759
1369.28074	0.81084
1367.35218	0.79243
1365.42362	0.77539
1363.49505	0.75959
1361.56649	0.74491
1359.63792	0.73423
1357.70936	0.72715
1355.78079	0.72198
1353.85223	0.71802
1351.92366	0.71517
1349.99510	0.71325
1348.06654	0.71185
1346.13797	0.71069
1344.20941	0.71023
1342.28084	0.71135
1340.35228	0.71464
1338.42371	0.71876
1336.49515	0.72286
1334.56659	0.72884
1332.63802	0.73744
1330.70946	0.74720
1328.78089	0.75583
1326.85233	0.76204
1324.92376	0.76607
1322.99520	0.76890
1321.06663	0.77144
1319.13807	0.77345
1317.20951	0.77383
1315.28094	0.77279
1313.35238	0.77078
1311.42381	0.76741
1309.49525	0.76278
1307.56668	0.75704
1305.63812	0.75025
1303.70955	0.74305
1301.78099	0.73569
1299.85243	0.72782
1297.92386	0.71947
1295.99530	0.71168
1294.06673	0.70580
1292.13817	0.70268
1290.20960	0.70233
1288.28104	0.70392
1286.35247	0.70666
1284.42391	0.71021
1282.49535	0.71447
1280.56678	0.71963
1278.63822	0.72596
1276.70965	0.73341
1274.78109	0.74191
1272.85252	0.75168
1270.92396	0.76219
1268.99539	0.77211
1267.06683	0.78092
1265.13827	0.78837
1263.20970	0.79352
1261.28114	0.79596
1259.35257	0.79634
1257.42401	0.79554
1255.49544	0.79412
1253.56688	0.79234
1251.63831	0.79038
1249.70975	0.78857
1247.78119	0.78709
1245.85262	0.78589
1243.92406	0.78471
1241.99549	0.78327
1240.06693	0.78167
1238.13836	0.77995
1236.20980	0.77782
1234.28123	0.77511
1232.35267	0.77181
1230.42411	0.76807
1228.49554	0.76412
1226.56698	0.75971
1224.63841	0.75438
1222.70985	0.74818
1220.78128	0.74150
1218.85272	0.73472
1216.92415	0.72831
1214.99559	0.72292
1213.06703	0.71896
1211.13846	0.71575
1209.20990	0.71166
1207.28133	0.70536
1205.35277	0.69599
1203.42420	0.68295
1201.49564	0.66719
1199.56708	0.65082
1197.63851	0.63535
1195.70995	0.62149
1193.78138	0.61000
1191.85282	0.60176
1189.92425	0.59701
1187.99569	0.59544
1186.06712	0.59674
1184.13856	0.60091
1182.21000	0.60839
1180.28143	0.61959
1178.35287	0.63428
1176.42430	0.65178
1174.49574	0.67115
1172.56717	0.69123
1170.63861	0.71176
1168.71004	0.73325
1166.78148	0.75532
1164.85292	0.77652
1162.92435	0.79457
1160.99579	0.80617
1159.06722	0.80855
1157.13866	0.80189
1155.21009	0.78875
1153.28153	0.77148
1151.35296	0.75117
1149.42440	0.72882
1147.49584	0.70692
1145.56727	0.68800
1143.63871	0.67357
1141.71014	0.66458
1139.78158	0.66102
1137.85301	0.66242
1135.92445	0.66864
1133.99588	0.67965
1132.06732	0.69546
1130.13876	0.71579
1128.21019	0.73909
1126.28163	0.76311
1124.35306	0.78623
1122.42450	0.80749
1120.49593	0.82578
1118.56737	0.83929
1116.63880	0.84645
1114.71024	0.84754
1112.78168	0.84417
1110.85311	0.83769
1108.92455	0.82916
1106.99598	0.81941
1105.06742	0.80899
1103.13885	0.79826
1101.21029	0.78792
1099.28172	0.77947
1097.35316	0.77445
1095.42460	0.77354
1093.49603	0.77703
1091.56747	0.78492
1089.63890	0.79752
1087.71034	0.81543
1085.78177	0.83707
1083.85321	0.85905
1081.92464	0.87902
1079.99608	0.89491
1078.06752	0.90491
1076.13895	0.90864
1074.21039	0.90689
1072.28182	0.90132
1070.35326	0.89376
1068.42469	0.88612
1066.49613	0.87995
1064.56756	0.87495
1062.63900	0.86957
1060.71044	0.86343
1058.78187	0.85750
1056.85331	0.85145
1054.92474	0.84343
1052.99618	0.83321
1051.06761	0.82249
1049.13905	0.81216
1047.21049	0.80289
1045.28192	0.79631
1043.35336	0.79297
1041.42479	0.79167
1039.49623	0.79103
1037.56766	0.79034
1035.63910	0.78936
1033.71053	0.78788
1031.78197	0.78574
1029.85341	0.78284
1027.92484	0.77886
1025.99628	0.77386
1024.06771	0.76916
1022.13915	0.76617
1020.21058	0.76536
1018.28202	0.76630
1016.35345	0.76730
1014.42489	0.76603
1012.49633	0.76191
1010.56776	0.75612
1008.63920	0.74892
1006.71063	0.73976
1004.78207	0.72927
1002.85350	0.71844
1000.92494	0.70745
998.99637	0.69630
997.06781	0.68435
995.13925	0.67057
993.21068	0.65493
991.28212	0.63790
989.35355	0.61965
987.42499	0.60109
985.49642	0.58411
983.56786	0.57018
981.63929	0.55988
979.71073	0.55327
977.78217	0.54972
975.85360	0.54783
973.92504	0.54626
971.99647	0.54460
970.06791	0.54331
968.13934	0.54334
966.21078	0.54576
964.28221	0.55155
962.35365	0.56164
960.42509	0.57665
958.49652	0.59555
956.56796	0.61380
954.63939	0.62545
952.71083	0.62804
950.78226	0.62318
948.85370	0.61329
946.92513	0.60024
944.99657	0.58562
943.06801	0.57062
941.13944	0.55581
939.21088	0.54144
937.28231	0.52809
935.35375	0.51656
933.42518	0.50760
931.49662	0.50192
929.56805	0.49964
927.63949	0.50035
925.71093	0.50380
923.78236	0.50984
921.85380	0.51805
919.92523	0.52757
917.99667	0.53789
916.06810	0.54926
914.13954	0.56187
912.21098	0.57552
910.28241	0.59017
908.35385	0.60555
906.42528	0.62077
904.49672	0.63473
902.56815	0.64605
900.63959	0.65332
898.71102	0.65577
896.78246	0.65329
894.85390	0.64634
892.92533	0.63585
890.99677	0.62261
889.06820	0.60741
887.13964	0.59177
885.21107	0.57702
883.28251	0.56379
881.35394	0.55257
879.42538	0.54359
877.49682	0.53667
875.56825	0.53185
873.63969	0.52960
871.71112	0.53012
869.78256	0.53291
867.85399	0.53749
865.92543	0.54411
863.99686	0.55317
862.06830	0.56424
860.13974	0.57648
858.21117	0.58941
856.28261	0.60229
854.35404	0.61382
852.42548	0.62288
850.49691	0.62862
848.56835	0.63090
846.63978	0.63017
844.71122	0.62673
842.78266	0.62063
840.85409	0.61235
838.92553	0.60330
836.99696	0.59466
835.06840	0.58685
833.13983	0.58043
831.21127	0.57563
829.28270	0.57220
827.35414	0.57061
825.42558	0.57180
823.49701	0.57565
821.56845	0.58123
819.63988	0.58859
817.71132	0.59845
815.78275	0.61044
813.85419	0.62337
811.92562	0.63658
809.99706	0.64984
808.06850	0.66298
806.13993	0.67546
804.21137	0.68667
802.28280	0.69620
800.35424	0.70330
798.42567	0.70743
796.49711	0.70891
794.56854	0.70838
792.63998	0.70603
790.71142	0.70134
788.78285	0.69502
786.85429	0.68920
784.92572	0.68462
782.99716	0.68055
781.06859	0.67706
779.14003	0.67469
777.21147	0.67364
775.28290	0.67414
773.35434	0.67608
771.42577	0.67914
769.49721	0.68343
767.56864	0.68866
765.64008	0.69425
763.71151	0.70054
761.78295	0.70800
759.85439	0.71588
757.92582	0.72316
755.99726	0.72978
754.06869	0.73608
752.14013	0.74191
750.21156	0.74656
748.28300	0.74909
746.35443	0.74947
744.42587	0.74835
742.49731	0.74562
740.56874	0.74058
738.64018	0.73341
736.71161	0.72607
734.78305	0.72029
732.85448	0.71587
730.92592	0.71225
728.99735	0.70980
727.06879	0.70958
725.14023	0.71233
723.21166	0.71792
721.28310	0.72560
719.35453	0.73337
717.42597	0.73999
715.49740	0.74691
713.56884	0.75534
711.64027	0.76469
709.71171	0.77391
707.78315	0.78222
705.85458	0.78881
703.92602	0.79364
701.99745	0.79718
700.06889	0.79811
698.14032	0.79538
696.21176	0.79070
694.28319	0.78568
692.35463	0.78044
690.42607	0.77462
688.49750	0.76796
686.56894	0.76095
684.64037	0.75413
682.71181	0.74841
680.78324	0.74559
678.85468	0.74612
676.92611	0.74887
674.99755	0.75339
673.06899	0.75979
671.14042	0.76778
669.21186	0.77874
667.28329	0.79024
665.35473	0.79716
663.42616	0.80473
661.49760	0.81441
659.56903	0.82310
657.64047	0.82885
655.71191	0.83199
653.78334	0.83447
651.85478	0.83784
649.92621	0.84052
647.99765	0.83983
646.06908	0.83716
644.14052	0.83580
642.21195	0.83520
640.28339	0.83314
638.35483	0.82937
636.42626	0.82471
634.49770	0.81854
632.56913	0.81101
630.64057	0.80474
628.71200	0.80067
626.78344	0.79778
624.85488	0.79611
622.92631	0.79615
620.99775	0.79776
619.06918	0.80046
617.14062	0.80384
615.21205	0.80635
613.28349	0.80732
611.35492	0.80920
609.42636	0.81240
607.49780	0.81444
605.56923	0.81521
603.64067	0.81571
601.71210	0.81487
599.78354	0.81027
