3997.91406	0.79800
3995.98550	0.79800
3994.05693	0.79772
3992.12837	0.79710
3990.19980	0.79613
3988.27124	0.79442
3986.34268	0.79232
3984.41411	0.79064
3982.48555	0.78912
3980.55698	0.78791
3978.62842	0.78818
3976.69985	0.78953
3974.77129	0.79009
3972.84272	0.78888
3970.91416	0.78701
3968.98560	0.78621
3967.05703	0.78631
3965.12847	0.78642
3963.19990	0.78654
3961.27134	0.78631
3959.34277	0.78576
3957.41421	0.78634
3955.48564	0.78717
3953.55708	0.78597
3951.62852	0.78415
3949.69995	0.78440
3947.77139	0.78512
3945.84282	0.78411
3943.91426	0.78371
3941.98569	0.78411
3940.05713	0.78227
3938.12856	0.77886
3936.20000	0.77607
3934.27144	0.77604
3932.34287	0.77927
3930.41431	0.78134
3928.48574	0.78005
3926.55718	0.77960
3924.62861	0.78096
3922.70005	0.77897
3920.77148	0.77445
3918.84292	0.77246
3916.91436	0.77272
3914.98579	0.77206
3913.05723	0.76984
3911.12866	0.76711
3909.20010	0.76454
3907.27153	0.76300
3905.34297	0.76516
3903.41440	0.77022
3901.48584	0.77254
3899.55728	0.77125
3897.62871	0.76692
3895.70015	0.76169
3893.77158	0.75924
3891.84302	0.76204
3889.91445	0.76443
3887.98589	0.76278
3886.05733	0.76201
3884.12876	0.76225
3882.20020	0.76255
3880.27163	0.76468
3878.34307	0.76227
3876.41450	0.75798
3874.48594	0.75805
3872.55737	0.75968
3870.62881	0.76129
3868.70025	0.76077
3866.77168	0.75701
3864.84312	0.75687
3862.91455	0.75839
3860.98599	0.75513
3859.05742	0.75018
3857.12886	0.74580
3855.20029	0.74645
3853.27173	0.75967
3851.34317	0.76273
3849.41460	0.75391
3847.48604	0.74584
3845.55747	0.74236
3843.62891	0.74400
3841.70034	0.74730
3839.77178	0.75093
3837.84321	0.75432
3835.91465	0.75147
3833.98609	0.74597
3832.05752	0.74303
3830.12896	0.74189
3828.20039	0.74176
3826.27183	0.74178
3824.34326	0.74028
3822.41470	0.74273
3820.48613	0.74875
3818.55757	0.74689
3816.62901	0.74564
3814.70044	0.74542
3812.77188	0.73983
3810.84331	0.73373
3808.91475	0.73277
3806.98618	0.73733
3805.05762	0.73839
3803.12905	0.73844
3801.20049	0.74372
3799.27193	0.74319
3797.34336	0.73864
3795.41480	0.73577
3793.48623	0.73340
3791.55767	0.73183
3789.62910	0.73060
3787.70054	0.72942
3785.77197	0.73016
3783.84341	0.73093
3781.91485	0.72992
3779.98628	0.73086
3778.05772	0.73221
3776.12915	0.72940
3774.20059	0.72484
3772.27202	0.72220
3770.34346	0.72403
3768.41489	0.72704
3766.48633	0.72733
3764.55777	0.72580
3762.62920	0.72289
3760.70064	0.72188
3758.77207	0.72450
3756.84351	0.72439
3754.91494	0.72005
3752.98638	0.71831
3751.05781	0.72753
3749.12925	0.73511
3747.20069	0.73343
3745.27212	0.73460
3743.34356	0.73649
3741.41499	0.73120
3739.48643	0.72504
3737.55786	0.72505
3735.62930	0.73326
3733.70074	0.73793
3731.77217	0.73278
3729.84361	0.72582
3727.91504	0.72251
3725.98648	0.72358
3724.05791	0.72514
3722.12935	0.72540
3720.20078	0.72475
3718.27222	0.72229
3716.34366	0.71821
3714.41509	0.71489
3712.48653	0.71888
3710.55796	0.72884
3708.62940	0.72843
3706.70083	0.72171
3704.77227	0.71677
3702.84370	0.71686
3700.91514	0.71899
3698.98658	0.71796
3697.05801	0.71608
3695.12945	0.71461
3693.20088	0.71308
3691.27232	0.71523
3689.34375	0.72369
3687.41519	0.72689
3685.48662	0.72293
3683.55806	0.71826
3681.62950	0.71599
3679.70093	0.71670
3677.77237	0.72061
3675.84380	0.72992
3673.91524	0.73367
3671.98667	0.73204
3670.05811	0.73794
3668.12954	0.74243
3666.20098	0.73921
3664.27242	0.73672
3662.34385	0.73738
3660.41529	0.73961
3658.48672	0.74419
3656.55816	0.75177
3654.62959	0.75417
3652.70103	0.75139
3650.77246	0.75658
3648.84390	0.77609
3646.91534	0.78186
3644.98677	0.77671
3643.05821	0.77377
3641.12964	0.77433
3639.20108	0.77590
3637.27251	0.77768
3635.34395	0.78048
3633.41538	0.78329
3631.48682	0.78556
3629.55826	0.79568
3627.62969	0.80928
3625.70113	0.80953
3623.77256	0.80643
3621.84400	0.80766
3619.91543	0.81604
3617.98687	0.82466
3616.05830	0.82581
3614.12974	0.82658
3612.20118	0.82966
3610.27261	0.83261
3608.34405	0.83766
3606.41548	0.84276
3604.48692	0.84459
3602.55835	0.84683
3600.62979	0.85217
3598.70123	0.85750
3596.77266	0.86103
3594.84410	0.86488
3592.91553	0.86741
3590.98697	0.86813
3589.05840	0.87370
3587.12984	0.88544
3585.20127	0.89066
3583.27271	0.89094
3581.34415	0.89353
3579.41558	0.89816
3577.48702	0.90285
3575.55845	0.90799
3573.62989	0.91233
3571.70132	0.91452
3569.77276	0.91780
3567.84419	0.92861
3565.91563	0.94152
3563.98707	0.94436
3562.05850	0.94439
3560.12994	0.94745
3558.20137	0.95193
3556.27281	0.95592
3554.34424	0.96016
3552.41568	0.96486
3550.48711	0.96800
3548.55855	0.97104
3546.62999	0.97785
3544.70142	0.98603
3542.77286	0.99049
3540.84429	0.99250
3538.91573	0.99442
3536.98716	0.99791
3535.05860	1.00363
3533.13003	1.01016
3531.20147	1.01805
3529.27291	1.02799
3527.34434	1.03589
3525.41578	1.03976
3523.48721	1.04484
3521.55865	1.05349
3519.63008	1.06247
3517.70152	1.06993
3515.77295	1.07586
3513.84439	1.08217
3511.91583	1.09017
3509.98726	1.09923
3508.05870	1.10885
3506.13013	1.11814
3504.20157	1.12639
3502.27300	1.13307
3500.34444	1.13867
3498.41587	1.14408
3496.48731	1.15154
3494.55875	1.16313
3492.63018	1.17449
3490.70162	1.18182
3488.77305	1.18779
3486.84449	1.19388
3484.91592	1.19872
3482.98736	1.20558
3481.05879	1.21534
3479.13023	1.22163
3477.20167	1.22502
3475.27310	1.22834
3473.34454	1.22939
3471.41597	1.22915
3469.48741	1.23175
3467.55884	1.23807
3465.63028	1.24536
3463.70171	1.25150
3461.77315	1.25718
3459.84459	1.26388
3457.91602	1.26983
3455.98746	1.27298
3454.05889	1.27643
3452.13033	1.28358
3450.20176	1.29211
3448.27320	1.29644
3446.34464	1.29555
3444.41607	1.29316
3442.48751	1.29266
3440.55894	1.29590
3438.63038	1.30045
3436.70181	1.30360
3434.77325	1.30509
3432.84468	1.30569
3430.91612	1.30675
3428.98756	1.30646
3427.05899	1.30379
3425.13043	1.30144
3423.20186	1.29974
3421.27330	1.29852
3419.34473	1.29951
3417.41617	1.30162
3415.48760	1.30221
3413.55904	1.29995
3411.63048	1.29629
3409.70191	1.29575
3407.77335	1.30005
3405.84478	1.30436
3403.91622	1.30303
3401.98765	1.29871
3400.05909	1.29724
3398.13052	1.29761
3396.20196	1.29724
3394.27340	1.29731
3392.34483	1.29850
3390.41627	1.29925
3388.48770	1.30019
3386.55914	1.30533
3384.63057	1.31381
3382.70201	1.31921
3380.77344	1.32071
3378.84488	1.32142
3376.91632	1.32088
3374.98775	1.31820
3373.05919	1.31670
3371.13062	1.31830
3369.20206	1.32021
3367.27349	1.32228
3365.34493	1.32635
3363.41636	1.33074
3361.48780	1.33304
3359.55924	1.33389
3357.63067	1.33639
3355.70211	1.34016
3353.77354	1.34218
3351.84498	1.34290
3349.91641	1.34464
3347.98785	1.34830
3346.05928	1.35360
3344.13072	1.35976
3342.20216	1.36647
3340.27359	1.37449
3338.34503	1.38035
3336.41646	1.38050
3334.48790	1.38106
3332.55933	1.38628
3330.63077	1.39410
3328.70220	1.40278
3326.77364	1.40927
3324.84508	1.41303
3322.91651	1.41769
3320.98795	1.42412
3319.05938	1.43016
3317.13082	1.43590
3315.20225	1.44270
3313.27369	1.45052
3311.34513	1.45948
3309.41656	1.46798
3307.48800	1.47408
3305.55943	1.47907
3303.63087	1.48536
3301.70230	1.49237
3299.77374	1.49483
3297.84517	1.49305
3295.91661	1.49588
3293.98805	1.50400
3292.05948	1.51018
3290.13092	1.51315
3288.20235	1.51564
3286.27379	1.51853
3284.34522	1.52169
3282.41666	1.52441
3280.48809	1.52411
3278.55953	1.52059
3276.63097	1.51768
3274.70240	1.51343
3272.77384	1.50506
3270.84527	1.49741
3268.91671	1.49207
3266.98814	1.48629
3265.05958	1.47907
3263.13101	1.46840
3261.20245	1.45513
3259.27389	1.44619
3257.34532	1.44097
3255.41676	1.43007
3253.48819	1.41437
3251.55963	1.40282
3249.63106	1.39595
3247.70250	1.38686
3245.77393	1.37186
3243.84537	1.35642
3241.91681	1.34545
3239.98824	1.33619
3238.05968	1.32727
3236.13111	1.31997
3234.20255	1.31303
3232.27398	1.30708
3230.34542	1.30325
3228.41685	1.29850
3226.48829	1.29272
3224.55973	1.28919
3222.63116	1.28624
3220.70260	1.28108
3218.77403	1.27582
3216.84547	1.27127
3214.91690	1.26511
3212.98834	1.25866
3211.05977	1.25321
3209.13121	1.24567
3207.20265	1.23669
3205.27408	1.23084
3203.34552	1.22714
3201.41695	1.22152
3199.48839	1.21471
3197.55982	1.20936
3195.63126	1.20447
3193.70269	1.19798
3191.77413	1.19223
3189.84557	1.18962
3187.91700	1.18683
3185.98844	1.18080
3184.05987	1.17289
3182.13131	1.16615
3180.20274	1.16202
3178.27418	1.15736
3176.34562	1.15041
3174.41705	1.14471
3172.48849	1.14140
3170.55992	1.13829
3168.63136	1.13409
3166.70279	1.12853
3164.77423	1.12275
3162.84566	1.11809
3160.91710	1.11410
3158.98854	1.11039
3157.05997	1.10760
3155.13141	1.10528
3153.20284	1.10278
3151.27428	1.09979
3149.34571	1.09596
3147.41715	1.09256
3145.48858	1.09050
3143.56002	1.08881
3141.63146	1.08692
3139.70289	1.08496
3137.77433	1.08353
3135.84576	1.08286
3133.91720	1.08136
3131.98863	1.07846
3130.06007	1.07688
3128.13150	1.07829
3126.20294	1.08036
3124.27438	1.08103
3122.34581	1.08066
3120.41725	1.07976
3118.48868	1.07897
3116.56012	1.07909
3114.63155	1.07983
3112.70299	1.08028
3110.77442	1.08074
3108.84586	1.08092
3106.91730	1.07903
3104.98873	1.07617
3103.06017	1.07556
3101.13160	1.07671
3099.20304	1.07629
3097.27447	1.07424
3095.34591	1.07323
3093.41734	1.07313
3091.48878	1.07187
3089.56022	1.06934
3087.63165	1.06706
3085.70309	1.06554
3083.77452	1.06325
3081.84596	1.06007
3079.91739	1.05824
3077.98883	1.05802
3076.06026	1.05777
3074.13170	1.05669
3072.20314	1.05375
3070.27457	1.04878
3068.34601	1.04411
3066.41744	1.04138
3064.48888	1.03967
3062.56031	1.03752
3060.63175	1.03451
3058.70318	1.03056
3056.77462	1.02619
3054.84606	1.02200
3052.91749	1.01729
3050.98893	1.01243
3049.06036	1.00866
3047.13180	1.00566
3045.20323	1.00270
3043.27467	0.99882
3041.34610	0.99380
3039.41754	0.99025
3037.48898	0.98964
3035.56041	0.98901
3033.63185	0.98593
3031.70328	0.98185
3029.77472	0.97862
3027.84615	0.97645
3025.91759	0.97467
3023.98903	0.97271
3022.06046	0.97063
3020.13190	0.96852
3018.20333	0.96630
3016.27477	0.96445
3014.34620	0.96336
3012.41764	0.96227
3010.48907	0.96022
3008.56051	0.95719
3006.63195	0.95409
3004.70338	0.95192
3002.77482	0.95062
3000.84625	0.94957
2998.91769	0.94894
2996.98912	0.94903
2995.06056	0.94959
2993.13199	0.95099
2991.20343	0.95398
2989.27487	0.95785
2987.34630	0.96187
2985.41774	0.96687
2983.48917	0.97313
2981.56061	0.98001
2979.63204	0.98697
2977.70348	0.99364
2975.77491	1.00086
2973.84635	1.00925
2971.91779	1.01814
2969.98922	1.02773
2968.06066	1.03761
2966.13209	1.04601
2964.20353	1.05180
2962.27496	1.05439
2960.34640	1.05419
2958.41783	1.05177
2956.48927	1.04733
2954.56071	1.04201
2952.63214	1.03628
2950.70358	1.03044
2948.77501	1.02619
2946.84645	1.02516
2944.91788	1.02850
2942.98932	1.03672
2941.06075	1.04860
2939.13219	1.06129
2937.20363	1.07279
2935.27506	1.08397
2933.34650	1.09531
2931.41793	1.10570
2929.48937	1.11590
2927.56080	1.12622
2925.63224	1.13401
2923.70367	1.13805
2921.77511	1.13958
2919.84655	1.13847
2917.91798	1.13136
2915.98942	1.11509
2914.06085	1.09157
2912.13229	1.06684
2910.20372	1.04552
2908.27516	1.02810
2906.34659	1.01383
2904.41803	1.00316
2902.48947	0.99620
2900.56090	0.99186
2898.63234	0.98911
2896.70377	0.98718
2894.77521	0.98462
2892.84664	0.98087
2890.91808	0.97688
2888.98952	0.97295
2887.06095	0.96916
2885.13239	0.96637
2883.20382	0.96492
2881.27526	0.96497
2879.34669	0.96631
2877.41813	0.96777
2875.48956	0.96762
2873.56100	0.96495
2871.63244	0.96096
2869.70387	0.95641
2867.77531	0.95065
2865.84674	0.94495
2863.91818	0.94140
2861.98961	0.94082
2860.06105	0.94357
2858.13248	0.94947
2856.20392	0.95728
2854.27536	0.96516
2852.34679	0.97118
2850.41823	0.97146
2848.48966	0.95978
2846.56110	0.93606
2844.63253	0.91028
2842.70397	0.89035
2840.77540	0.87612
2838.84684	0.86554
2836.91828	0.85740
2834.98971	0.85081
2833.06115	0.84576
2831.13258	0.84175
2829.20402	0.83759
2827.27545	0.83286
2825.34689	0.82809
2823.41832	0.82435
2821.48976	0.82201
2819.56120	0.81967
2817.63263	0.81649
2815.70407	0.81347
2813.77550	0.81125
2811.84694	0.80914
2809.91837	0.80666
2807.98981	0.80428
2806.06124	0.80230
2804.13268	0.80013
2802.20412	0.79742
2800.27555	0.79490
2798.34699	0.79280
2796.41842	0.79063
2794.48986	0.78865
2792.56129	0.78738
2790.63273	0.78637
2788.70416	0.78472
2786.77560	0.78250
2784.84704	0.78043
2782.91847	0.77886
2780.98991	0.77736
2779.06134	0.77520
2777.13278	0.77275
2775.20421	0.77074
2773.27565	0.76885
2771.34708	0.76658
2769.41852	0.76438
2767.48996	0.76275
2765.56139	0.76117
2763.63283	0.75931
2761.70426	0.75763
2759.77570	0.75620
2757.84713	0.75479
2755.91857	0.75308
2753.99001	0.75091
2752.06144	0.74869
2750.13288	0.74690
2748.20431	0.74577
2746.27575	0.74478
2744.34718	0.74334
2742.41862	0.74151
2740.49005	0.73930
2738.56149	0.73719
2736.63293	0.73621
2734.70436	0.73586
2732.77580	0.73500
2730.84723	0.73369
2728.91867	0.73221
2726.99010	0.73043
2725.06154	0.72875
2723.13297	0.72746
2721.20441	0.72603
2719.27585	0.72434
2717.34728	0.72305
2715.41872	0.72191
2713.49015	0.72019
2711.56159	0.71810
2709.63302	0.71605
2707.70446	0.71412
2705.77589	0.71241
2703.84733	0.71081
2701.91877	0.70888
2699.99020	0.70675
2698.06164	0.70526
2696.13307	0.70450
2694.20451	0.70380
2692.27594	0.70285
2690.34738	0.70166
2688.41881	0.70031
2686.49025	0.69899
2684.56169	0.69798
2682.63312	0.69704
2680.70456	0.69575
2678.77599	0.69473
2676.84743	0.69450
2674.91886	0.69436
2672.99030	0.69350
2671.06173	0.69217
2669.13317	0.69112
2667.20461	0.69018
2665.27604	0.68898
2663.34748	0.68784
2661.41891	0.68680
2659.49035	0.68555
2657.56178	0.68405
2655.63322	0.68271
2653.70465	0.68177
2651.77609	0.68097
2649.84753	0.67995
2647.91896	0.67877
2645.99040	0.67776
2644.06183	0.67711
2642.13327	0.67662
2640.20470	0.67606
2638.27614	0.67550
2636.34757	0.67514
2634.41901	0.67496
2632.49045	0.67459
2630.56188	0.67366
2628.63332	0.67238
2626.70475	0.67149
2624.77619	0.67094
2622.84762	0.67006
2620.91906	0.66860
2618.99049	0.66686
2617.06193	0.66514
2615.13337	0.66334
2613.20480	0.66123
2611.27624	0.65913
2609.34767	0.65731
2607.41911	0.65550
2605.49054	0.65342
2603.56198	0.65131
2601.63342	0.64941
2599.70485	0.64763
2597.77629	0.64610
2595.84772	0.64477
2593.91916	0.64350
2591.99059	0.64265
2590.06203	0.64215
2588.13346	0.64144
2586.20490	0.64049
2584.27634	0.63965
2582.34777	0.63898
2580.41921	0.63825
2578.49064	0.63734
2576.56208	0.63631
2574.63351	0.63505
2572.70495	0.63344
2570.77638	0.63174
2568.84782	0.63026
2566.91926	0.62910
2564.99069	0.62808
2563.06213	0.62694
2561.13356	0.62549
2559.20500	0.62375
2557.27643	0.62222
2555.34787	0.62119
2553.41930	0.62053
2551.49074	0.62024
2549.56218	0.62007
2547.63361	0.61955
2545.70505	0.61880
2543.77648	0.61829
2541.84792	0.61804
2539.91935	0.61785
2537.99079	0.61755
2536.06222	0.61710
2534.13366	0.61682
2532.20510	0.61667
2530.27653	0.61635
2528.34797	0.61589
2526.41940	0.61529
2524.49084	0.61420
2522.56227	0.61253
2520.63371	0.61075
2518.70514	0.60921
2516.77658	0.60757
2514.84802	0.60568
2512.91945	0.60399
2510.99089	0.60271
2509.06232	0.60189
2507.13376	0.60123
2505.20519	0.60000
2503.27663	0.59835
2501.34806	0.59710
2499.41950	0.59645
2497.49094	0.59585
2495.56237	0.59486
2493.63381	0.59379
2491.70524	0.59322
2489.77668	0.59284
2487.84811	0.59204
2485.91955	0.59078
2483.99098	0.58943
2482.06242	0.58818
2480.13386	0.58682
2478.20529	0.58511
2476.27673	0.58322
2474.34816	0.58138
2472.41960	0.57961
2470.49103	0.57800
2468.56247	0.57656
2466.63391	0.57505
2464.70534	0.57340
2462.77678	0.57185
2460.84821	0.57043
2458.91965	0.56915
2456.99108	0.56812
2455.06252	0.56719
2453.13395	0.56613
2451.20539	0.56512
2449.27683	0.56447
2447.34826	0.56405
2445.41970	0.56343
2443.49113	0.56236
2441.56257	0.56118
2439.63400	0.56048
2437.70544	0.56000
2435.77687	0.55910
2433.84831	0.55790
2431.91975	0.55686
2429.99118	0.55583
2428.06262	0.55442
2426.13405	0.55279
2424.20549	0.55154
2422.27692	0.55087
2420.34836	0.55041
2418.41979	0.54996
2416.49123	0.54955
2414.56267	0.54899
2412.63410	0.54841
2410.70554	0.54828
2408.77697	0.54838
2406.84841	0.54808
2404.91984	0.54728
2402.99128	0.54633
2401.06271	0.54554
2399.13415	0.54508
2397.20559	0.54461
2395.27702	0.54373
2393.34846	0.54279
2391.41989	0.54201
2389.49133	0.54137
2387.56276	0.54117
2385.63420	0.54158
2383.70563	0.54280
2381.77707	0.54503
2379.84851	0.54795
2377.91994	0.55116
2375.99138	0.55454
2374.06281	0.55813
2372.13425	0.56287
2370.20568	0.57010
2368.27712	0.57832
2366.34855	0.58428
2364.41999	0.58732
2362.49143	0.58889
2360.56286	0.58987
2358.63430	0.58896
2356.70573	0.58431
2354.77717	0.57707
2352.84860	0.56879
2350.92004	0.56045
2348.99147	0.55456
2347.06291	0.55326
2345.13435	0.55661
2343.20578	0.56052
2341.27722	0.56106
2339.34865	0.55921
2337.42009	0.55721
2335.49152	0.55560
2333.56296	0.55442
2331.63440	0.55366
2329.70583	0.55160
2327.77727	0.54777
2325.84870	0.54432
2323.92014	0.54239
2321.99157	0.54089
2320.06301	0.53856
2318.13444	0.53573
2316.20588	0.53336
2314.27732	0.53167
2312.34875	0.53033
2310.42019	0.52898
2308.49162	0.52718
2306.56306	0.52459
2304.63449	0.52177
2302.70593	0.51962
2300.77736	0.51787
2298.84880	0.51572
2296.92024	0.51332
2294.99167	0.51117
2293.06311	0.50908
2291.13454	0.50685
2289.20598	0.50475
2287.27741	0.50311
2285.34885	0.50203
2283.42028	0.50127
2281.49172	0.50076
2279.56316	0.50079
2277.63459	0.50134
2275.70603	0.50195
2273.77746	0.50237
2271.84890	0.50262
2269.92033	0.50273
2267.99177	0.50259
2266.06320	0.50212
2264.13464	0.50159
2262.20608	0.50127
2260.27751	0.50091
2258.34895	0.50023
2256.42038	0.49924
2254.49182	0.49809
2252.56325	0.49685
2250.63469	0.49552
2248.70612	0.49405
2246.77756	0.49254
2244.84900	0.49122
2242.92043	0.49006
2240.99187	0.48885
2239.06330	0.48765
2237.13474	0.48686
2235.20617	0.48662
2233.27761	0.48657
2231.34904	0.48656
2229.42048	0.48667
2227.49192	0.48684
2225.56335	0.48717
2223.63479	0.48773
2221.70622	0.48806
2219.77766	0.48771
2217.84909	0.48695
2215.92053	0.48631
2213.99196	0.48567
2212.06340	0.48471
2210.13484	0.48363
2208.20627	0.48261
2206.27771	0.48145
2204.34914	0.48000
2202.42058	0.47847
2200.49201	0.47710
2198.56345	0.47596
2196.63488	0.47505
2194.70632	0.47442
2192.77776	0.47386
2190.84919	0.47321
2188.92063	0.47263
2186.99206	0.47218
2185.06350	0.47196
2183.13493	0.47213
2181.20637	0.47254
2179.27781	0.47290
2177.34924	0.47314
2175.42068	0.47331
2173.49211	0.47347
2171.56355	0.47364
2169.63498	0.47382
2167.70642	0.47384
2165.77785	0.47361
2163.84929	0.47334
2161.92073	0.47313
2159.99216	0.47288
2158.06360	0.47254
2156.13503	0.47205
2154.20647	0.47154
2152.27790	0.47129
2150.34934	0.47112
2148.42077	0.47074
2146.49221	0.47033
2144.56365	0.47000
2142.63508	0.46953
2140.70652	0.46891
2138.77795	0.46838
2136.84939	0.46805
2134.92082	0.46786
2132.99226	0.46777
2131.06369	0.46752
2129.13513	0.46694
2127.20657	0.46623
2125.27800	0.46541
2123.34944	0.46444
2121.42087	0.46374
2119.49231	0.46345
2117.56374	0.46299
2115.63518	0.46215
2113.70661	0.46134
2111.77805	0.46064
2109.84949	0.45977
2107.92092	0.45889
2105.99236	0.45828
2104.06379	0.45800
2102.13523	0.45792
2100.20666	0.45781
2098.27810	0.45755
2096.34953	0.45723
2094.42097	0.45695
2092.49241	0.45677
2090.56384	0.45674
2088.63528	0.45656
2086.70671	0.45608
2084.77815	0.45563
2082.84958	0.45518
2080.92102	0.45457
2078.99245	0.45390
2077.06389	0.45322
2075.13533	0.45255
2073.20676	0.45196
2071.27820	0.45135
2069.34963	0.45063
2067.42107	0.45012
2065.49250	0.44998
2063.56394	0.44969
2061.63537	0.44906
2059.70681	0.44834
2057.77825	0.44760
2055.84968	0.44690
2053.92112	0.44618
2051.99255	0.44535
2050.06399	0.44441
2048.13542	0.44343
2046.20686	0.44249
2044.27830	0.44159
2042.34973	0.44056
2040.42117	0.43942
2038.49260	0.43831
2036.56404	0.43731
2034.63547	0.43641
2032.70691	0.43567
2030.77834	0.43508
2028.84978	0.43451
2026.92122	0.43400
2024.99265	0.43365
2023.06409	0.43348
2021.13552	0.43343
2019.20696	0.43354
2017.27839	0.43387
2015.34983	0.43405
2013.42126	0.43400
2011.49270	0.43402
2009.56414	0.43411
2007.63557	0.43412
2005.70701	0.43403
2003.77844	0.43386
2001.84988	0.43370
1999.92131	0.43349
1997.99275	0.43297
1996.06418	0.43209
1994.13562	0.43143
1992.20706	0.43115
1990.27849	0.43038
1988.34993	0.42886
1986.42136	0.42719
1984.49280	0.42568
1982.56423	0.42432
1980.63567	0.42314
1978.70710	0.42240
1976.77854	0.42203
1974.84998	0.42171
1972.92141	0.42120
1970.99285	0.42052
1969.06428	0.42022
1967.13572	0.42036
1965.20715	0.41992
1963.27859	0.41885
1961.35002	0.41801
1959.42146	0.41751
1957.49290	0.41708
1955.56433	0.41653
1953.63577	0.41581
1951.70720	0.41511
1949.77864	0.41448
1947.85007	0.41393
1945.92151	0.41366
1943.99294	0.41380
1942.06438	0.41358
1940.13582	0.41215
1938.20725	0.41051
1936.27869	0.40964
1934.35012	0.40940
1932.42156	0.40931
1930.49299	0.40903
1928.56443	0.40854
1926.63586	0.40808
1924.70730	0.40833
1922.77874	0.40911
1920.85017	0.40900
1918.92161	0.40850
1916.99304	0.40810
1915.06448	0.40703
1913.13591	0.40587
1911.20735	0.40533
1909.27878	0.40493
1907.35022	0.40401
1905.42166	0.40280
1903.49309	0.40184
1901.56453	0.40108
1899.63596	0.40026
1897.70740	0.39959
1895.77883	0.39922
1893.85027	0.39854
1891.92171	0.39779
1889.99314	0.39777
1888.06458	0.39741
1886.13601	0.39626
1884.20745	0.39533
1882.27888	0.39470
1880.35032	0.39408
1878.42175	0.39354
1876.49319	0.39311
1874.56463	0.39257
1872.63606	0.39208
1870.70750	0.39284
1868.77893	0.39497
1866.85037	0.39495
1864.92180	0.39239
1862.99324	0.39013
1861.06467	0.38903
1859.13611	0.38842
1857.20755	0.38752
1855.27898	0.38623
1853.35042	0.38496
1851.42185	0.38403
1849.49329	0.38370
1847.56472	0.38386
1845.63616	0.38465
1843.70759	0.38517
1841.77903	0.38346
1839.85047	0.38124
1837.92190	0.38033
1835.99334	0.37994
1834.06477	0.37904
1832.13621	0.37893
1830.20764	0.38039
1828.27908	0.38074
1826.35051	0.37949
1824.42195	0.37845
1822.49339	0.37708
1820.56482	0.37540
1818.63626	0.37446
1816.70769	0.37408
1814.77913	0.37391
1812.85056	0.37439
1810.92200	0.37527
1808.99343	0.37529
1807.06487	0.37451
1805.13631	0.37400
1803.20774	0.37440
1801.27918	0.37577
1799.35061	0.37672
1797.42205	0.37654
1795.49348	0.37635
1793.56492	0.37748
1791.63635	0.37918
1789.70779	0.37807
1787.77923	0.37589
1785.85066	0.37517
1783.92210	0.37555
1781.99353	0.37603
1780.06497	0.37625
1778.13640	0.37565
1776.20784	0.37478
1774.27927	0.37543
1772.35071	0.37811
1770.42215	0.37892
1768.49358	0.37739
1766.56502	0.37582
1764.63645	0.37520
1762.70789	0.37693
1760.77932	0.38009
1758.85076	0.38251
1756.92220	0.38567
1754.99363	0.38891
1753.06507	0.39245
1751.13650	0.40031
1749.20794	0.41160
1747.27937	0.41908
1745.35081	0.42304
1743.42224	0.42640
1741.49368	0.43022
1739.56512	0.43400
1737.63655	0.43570
1735.70799	0.43734
1733.77942	0.44312
1731.85086	0.44660
1729.92229	0.44611
1727.99373	0.44593
1726.06516	0.44730
1724.13660	0.45107
1722.20804	0.45544
1720.27947	0.45976
1718.35091	0.46944
1716.42234	0.48578
1714.49378	0.49508
1712.56521	0.50044
1710.63665	0.50854
1708.70808	0.52072
1706.77952	0.54071
1704.85096	0.56707
1702.92239	0.58994
1700.99383	0.62363
1699.06526	0.67913
1697.13670	0.72970
1695.20813	0.77718
1693.27957	0.81263
1691.35100	0.84240
1689.42244	0.88088
1687.49388	0.91824
1685.56531	0.95874
1683.63675	1.02259
1681.70818	1.06637
1679.77962	1.09058
1677.85105	1.11562
1675.92249	1.14974
1673.99392	1.18978
1672.06536	1.22101
1670.13680	1.25290
1668.20823	1.28657
1666.27967	1.30644
1664.35110	1.32581
1662.42254	1.35215
1660.49397	1.37211
1658.56541	1.38373
1656.63684	1.39277
1654.70828	1.40557
1652.77972	1.42053
1650.85115	1.41891
1648.92259	1.41644
1646.99402	1.42073
1645.06546	1.42278
1643.13689	1.41880
1641.20833	1.41623
1639.27976	1.41606
1637.35120	1.41903
1635.42264	1.42248
1633.49407	1.41904
1631.56551	1.41315
1629.63694	1.40537
1627.70838	1.39502
1625.77981	1.38064
1623.85125	1.35810
1621.92269	1.32886
1619.99412	1.30254
1618.06556	1.26904
1616.13699	1.21565
1614.20843	1.16981
1612.27986	1.13478
1610.35130	1.09889
1608.42273	1.06207
1606.49417	1.02980
1604.56561	1.00408
1602.63704	0.98304
1600.70848	0.96600
1598.77991	0.95326
1596.85135	0.94456
1594.92278	0.93833
1592.99422	0.93371
1591.06565	0.93177
1589.13709	0.93280
1587.20853	0.93639
1585.27996	0.94302
1583.35140	0.95310
1581.42283	0.96484
1579.49427	0.97638
1577.56570	0.99215
1575.63714	1.01578
1573.70857	1.03188
1571.78001	1.04332
1569.85145	1.06294
1567.92288	1.08474
1565.99432	1.10051
1564.06575	1.11500
1562.13719	1.12614
1560.20862	1.14154
1558.28006	1.18057
1556.35149	1.20147
1554.42293	1.20810
1552.49437	1.21371
1550.56580	1.21947
1548.63724	1.22426
1546.70867	1.22710
1544.78011	1.22974
1542.85154	1.23223
1540.92298	1.23059
1538.99441	1.22002
1537.06585	1.21060
1535.13729	1.20301
1533.20872	1.19617
1531.28016	1.18992
1529.35159	1.18379
1527.42303	1.17748
1525.49446	1.17169
1523.56590	1.17006
1521.63733	1.17246
1519.70877	1.17244
1517.78021	1.16642
1515.85164	1.15302
1513.92308	1.13486
1511.99451	1.11598
1510.06595	1.09849
1508.13738	1.07328
1506.20882	1.02532
1504.28025	0.99315
1502.35169	0.97127
1500.42313	0.94815
1498.49456	0.92119
1496.56600	0.88979
1494.63743	0.86297
1492.70887	0.84421
1490.78030	0.82628
1488.85174	0.80392
1486.92317	0.78364
1484.99461	0.76942
1483.06605	0.76009
1481.13748	0.75454
1479.20892	0.75272
1477.28035	0.75556
1475.35179	0.76455
1473.42322	0.78253
1471.49466	0.80157
1469.56610	0.81025
1467.63753	0.81576
1465.70897	0.82434
1463.78040	0.83306
1461.85184	0.83679
1459.92327	0.84002
1457.99471	0.85063
1456.06614	0.86163
1454.13758	0.86032
1452.20902	0.85617
1450.28045	0.85290
1448.35189	0.85020
1446.42332	0.84601
1444.49476	0.84050
1442.56619	0.83506
1440.63763	0.83032
1438.70906	0.82598
1436.78050	0.81947
1434.85194	0.81001
1432.92337	0.80154
1430.99481	0.79426
1429.06624	0.78743
1427.13768	0.78210
1425.20911	0.77949
1423.28055	0.77935
1421.35198	0.78080
1419.42342	0.78450
1417.49486	0.78698
1415.56629	0.78519
1413.63773	0.78305
1411.70916	0.78242
1409.78060	0.78261
1407.85203	0.78330
1405.92347	0.78585
1403.99490	0.78966
1402.06634	0.79265
1400.13778	0.79594
1398.20921	0.79967
1396.28065	0.80237
1394.35208	0.80389
1392.42352	0.80433
1390.49495	0.80588
1388.56639	0.81197
1386.63782	0.82210
1384.70926	0.83098
1382.78070	0.83836
1380.85213	0.84468
1378.92357	0.84744
1376.99500	0.84519
1375.06644	0.83679
1373.13787	0.82233
1371.20931	0.80625
1369.28074	0.78909
1367.35218	0.77038
1365.42362	0.75317
1363.49505	0.73767
1361.56649	0.72339
1359.63792	0.71234
1357.70936	0.70474
1355.78079	0.69962
1353.85223	0.69633
1351.92366	0.69439
1349.99510	0.69331
1348.06654	0.69250
1346.13797	0.69172
1344.20941	0.69155
1342.28084	0.69270
1340.35228	0.69534
1338.42371	0.69790
1336.49515	0.69962
1334.56659	0.70242
1332.63802	0.70735
1330.70946	0.71349
1328.78089	0.71908
1326.85233	0.72319
1324.92376	0.72591
1322.99520	0.72810
1321.06663	0.73092
1319.13807	0.73439
1317.20951	0.73750
1315.28094	0.74007
1313.35238	0.74230
1311.42381	0.74359
1309.49525	0.74386
1307.56668	0.74360
1305.63812	0.74283
1303.70955	0.74165
1301.78099	0.74013
1299.85243	0.73765
1297.92386	0.73363
1295.99530	0.72896
1294.06673	0.72502
1292.13817	0.72204
1290.20960	0.71988
1288.28104	0.71839
1286.35247	0.71730
1284.42391	0.71654
1282.49535	0.71626
1280.56678	0.71647
1278.63822	0.71723
1276.70965	0.71893
1274.78109	0.72175
1272.85252	0.72578
1270.92396	0.73097
1268.99539	0.73688
1267.06683	0.74284
1265.13827	0.74831
1263.20970	0.75270
1261.28114	0.75550
1259.35257	0.75716
1257.42401	0.75857
1255.49544	0.75972
1253.56688	0.76065
1251.63831	0.76176
1249.70975	0.76268
1247.78119	0.76314
1245.85262	0.76364
1243.92406	0.76417
1241.99549	0.76415
1240.06693	0.76322
1238.13836	0.76140
1236.20980	0.75884
1234.28123	0.75566
1232.35267	0.75171
1230.42411	0.74685
1228.49554	0.74102
1226.56698	0.73412
1224.63841	0.72637
1222.70985	0.71852
1220.78128	0.71108
1218.85272	0.70409
1216.92415	0.69771
1214.99559	0.69261
1213.06703	0.68962
1211.13846	0.68876
1209.20990	0.68877
1207.28133	0.68784
1205.35277	0.68431
1203.42420	0.67779
1201.49564	0.66957
1199.56708	0.66075
1197.63851	0.65159
1195.70995	0.64278
1193.78138	0.63541
1191.85282	0.62973
1189.92425	0.62578
1187.99569	0.62370
1186.06712	0.62308
1184.13856	0.62377
1182.21000	0.62653
1180.28143	0.63203
1178.35287	0.64003
1176.42430	0.64970
1174.49574	0.66025
1172.56717	0.67115
1170.63861	0.68266
1168.71004	0.69529
1166.78148	0.70893
1164.85292	0.72297
1162.92435	0.73547
1160.99579	0.74375
1159.06722	0.74658
1157.13866	0.74386
1155.21009	0.73568
1153.28153	0.72323
1151.35296	0.70867
1149.42440	0.69358
1147.49584	0.67944
1145.56727	0.66825
1143.63871	0.66117
1141.71014	0.65800
1139.78158	0.65855
1137.85301	0.66263
1135.92445	0.66935
1133.99588	0.67843
1132.06732	0.69050
1130.13876	0.70509
1128.21019	0.72067
1126.28163	0.73624
1124.35306	0.75127
1122.42450	0.76453
1120.49593	0.77451
1118.56737	0.78054
1116.63880	0.78275
1114.71024	0.78095
1112.78168	0.77545
1110.85311	0.76798
1108.92455	0.76023
1106.99598	0.75279
1105.06742	0.74577
1103.13885	0.73999
1101.21029	0.73683
1099.28172	0.73675
1097.35316	0.73994
1095.42460	0.74772
1093.49603	0.76026
1091.56747	0.77585
1089.63890	0.79357
1087.71034	0.81314
1085.78177	0.83356
1083.85321	0.85359
1081.92464	0.87159
1079.99608	0.88525
1078.06752	0.89252
1076.13895	0.89292
1074.21039	0.88684
1072.28182	0.87563
1070.35326	0.86174
1068.42469	0.84677
1066.49613	0.83163
1064.56756	0.81726
1062.63900	0.80343
1060.71044	0.78966
1058.78187	0.77646
1056.85331	0.76507
1054.92474	0.75667
1052.99618	0.75103
1051.06761	0.74715
1049.13905	0.74561
1047.21049	0.74802
1045.28192	0.75470
1043.35336	0.76435
1041.42479	0.77553
1039.49623	0.78695
1037.56766	0.79656
1035.63910	0.80320
1033.71053	0.80739
1031.78197	0.80876
1029.85341	0.80620
1027.92484	0.79985
1025.99628	0.79077
1024.06771	0.78011
1022.13915	0.76879
1020.21058	0.75730
1018.28202	0.74586
1016.35345	0.73443
1014.42489	0.72225
1012.49633	0.70818
1010.56776	0.69214
1008.63920	0.67523
1006.71063	0.65851
1004.78207	0.64303
1002.85350	0.62992
1000.92494	0.61988
998.99637	0.61268
997.06781	0.60748
995.13925	0.60382
993.21068	0.60134
991.28212	0.59913
989.35355	0.59660
987.42499	0.59386
985.49642	0.59108
983.56786	0.58863
981.63929	0.58667
979.71073	0.58472
977.78217	0.58212
975.85360	0.57813
973.92504	0.57204
971.99647	0.56369
970.06791	0.55355
968.13934	0.54245
966.21078	0.53152
964.28221	0.52213
962.35365	0.51577
960.42509	0.51407
958.49652	0.51764
956.56796	0.52451
954.63939	0.53081
952.71083	0.53386
950.78226	0.53389
948.85370	0.53282
946.92513	0.53248
944.99657	0.53389
943.06801	0.53699
941.13944	0.54093
939.21088	0.54486
937.28231	0.54802
935.35375	0.54977
933.42518	0.54978
931.49662	0.54809
929.56805	0.54499
927.63949	0.54065
925.71093	0.53530
923.78236	0.52924
921.85380	0.52255
919.92523	0.51536
917.99667	0.50823
916.06810	0.50211
914.13954	0.49769
912.21098	0.49544
910.28241	0.49576
908.35385	0.49886
906.42528	0.50476
904.49672	0.51328
902.56815	0.52358
900.63959	0.53454
898.71102	0.54534
896.78246	0.55519
894.85390	0.56358
892.92533	0.57021
890.99677	0.57434
889.06820	0.57535
887.13964	0.57367
885.21107	0.57021
883.28251	0.56504
881.35394	0.55802
879.42538	0.54977
877.49682	0.54098
875.56825	0.53196
873.63969	0.52298
871.71112	0.51497
869.78256	0.50872
867.85399	0.50420
865.92543	0.50180
863.99686	0.50228
862.06830	0.50546
860.13974	0.51101
858.21117	0.51906
856.28261	0.52945
854.35404	0.54140
852.42548	0.55387
850.49691	0.56617
848.56835	0.57807
846.63978	0.58913
844.71122	0.59869
842.78266	0.60603
840.85409	0.61086
838.92553	0.61344
836.99696	0.61351
835.06840	0.61071
833.13983	0.60531
831.21127	0.59798
829.28270	0.58991
827.35414	0.58214
825.42558	0.57497
823.49701	0.56890
821.56845	0.56454
819.63988	0.56232
817.71132	0.56295
815.78275	0.56638
813.85419	0.57198
811.92562	0.57968
809.99706	0.58930
808.06850	0.59963
806.13993	0.60951
804.21137	0.61915
802.28280	0.62889
800.35424	0.63784
798.42567	0.64480
796.49711	0.64903
794.56854	0.65023
792.63998	0.64854
790.71142	0.64454
788.78285	0.63904
786.85429	0.63276
784.92572	0.62662
782.99716	0.62123
781.06859	0.61655
779.14003	0.61277
777.21147	0.61063
775.28290	0.61069
773.35434	0.61298
771.42577	0.61738
769.49721	0.62383
767.56864	0.63180
765.64008	0.64081
763.71151	0.65059
761.78295	0.66054
759.85439	0.67001
757.92582	0.67897
755.99726	0.68772
754.06869	0.69585
752.14013	0.70244
750.21156	0.70753
748.28300	0.71131
746.35443	0.71305
744.42587	0.71270
742.49731	0.71092
740.56874	0.70786
738.64018	0.70383
736.71161	0.69924
734.78305	0.69453
732.85448	0.69116
730.92592	0.69026
728.99735	0.69092
727.06879	0.69247
725.14023	0.69589
723.21166	0.70201
721.28310	0.70998
719.35453	0.71743
717.42597	0.72361
715.49740	0.73025
713.56884	0.73827
711.64027	0.74672
709.71171	0.75390
707.78315	0.75901
705.85458	0.76248
703.92602	0.76496
701.99745	0.76644
700.06889	0.76609
698.14032	0.76414
696.21176	0.76241
694.28319	0.76111
692.35463	0.75919
690.42607	0.75747
688.49750	0.75679
686.56894	0.75622
684.64037	0.75615
682.71181	0.75809
680.78324	0.76131
678.85468	0.76412
676.92611	0.76668
674.99755	0.77001
673.06899	0.77412
671.14042	0.77863
669.21186	0.78288
667.28329	0.78269
665.35473	0.77985
663.42616	0.77797
661.49760	0.77617
659.56903	0.77384
657.64047	0.77025
655.71191	0.76519
653.78334	0.76069
651.85478	0.75797
649.92621	0.75548
647.99765	0.75253
646.06908	0.75241
644.14052	0.75716
642.21195	0.76330
640.28339	0.76801
638.35483	0.77274
636.42626	0.77839
634.49770	0.78356
632.56913	0.78703
630.64057	0.78943
628.71200	0.79123
626.78344	0.79221
624.85488	0.79284
622.92631	0.79355
620.99775	0.79492
619.06918	0.79637
617.14062	0.79515
615.21205	0.79095
613.28349	0.78611
611.35492	0.78166
609.42636	0.77785
607.49780	0.77534
605.56923	0.77397
603.64067	0.77292
601.71210	0.77391
599.78354	0.77828
