3997.91406	0.89358
3995.98550	0.89348
3994.05693	0.89287
3992.12837	0.89223
3990.19980	0.89158
3988.27124	0.89150
3986.34268	0.89278
3984.41411	0.89357
3982.48555	0.89189
3980.55698	0.88969
3978.62842	0.88866
3976.69985	0.88809
3974.77129	0.88733
3972.84272	0.88654
3970.91416	0.88606
3968.98560	0.88586
3967.05703	0.88606
3965.12847	0.88607
3963.19990	0.88539
3961.27134	0.88419
3959.34277	0.88241
3957.41421	0.88089
3955.48564	0.88013
3953.55708	0.87943
3951.62852	0.87903
3949.69995	0.88040
3947.77139	0.88186
3945.84282	0.88072
3943.91426	0.88056
3941.98569	0.88251
3940.05713	0.88147
3938.12856	0.87829
3936.20000	0.87671
3934.27144	0.87751
3932.34287	0.87938
3930.41431	0.87839
3928.48574	0.87447
3926.55718	0.87334
3924.62861	0.87608
3922.70005	0.87644
3920.77148	0.87408
3918.84292	0.87393
3916.91436	0.87573
3914.98579	0.87462
3913.05723	0.87041
3911.12866	0.86679
3909.20010	0.86547
3907.27153	0.86655
3905.34297	0.87063
3903.41440	0.87548
3901.48584	0.87848
3899.55728	0.87917
3897.62871	0.87423
3895.70015	0.86625
3893.77158	0.86336
3891.84302	0.87002
3889.91445	0.87393
3887.98589	0.86916
3886.05733	0.86590
3884.12876	0.86657
3882.20020	0.86714
3880.27163	0.86933
3878.34307	0.86751
3876.41450	0.86235
3874.48594	0.86029
3872.55737	0.86098
3870.62881	0.86462
3868.70025	0.86796
3866.77168	0.86637
3864.84312	0.86652
3862.91455	0.86730
3860.98599	0.86166
3859.05742	0.85367
3857.12886	0.84875
3855.20029	0.85330
3853.27173	0.86934
3851.34317	0.86926
3849.41460	0.85889
3847.48604	0.85108
3845.55747	0.84882
3843.62891	0.85153
3841.70034	0.85372
3839.77178	0.85412
3837.84321	0.85615
3835.91465	0.85709
3833.98609	0.85657
3832.05752	0.85604
3830.12896	0.85346
3828.20039	0.84917
3826.27183	0.84639
3824.34326	0.84571
3822.41470	0.84962
3820.48613	0.85564
3818.55757	0.85236
3816.62901	0.84891
3814.70044	0.84814
3812.77188	0.84359
3810.84331	0.83846
3808.91475	0.83849
3806.98618	0.84413
3805.05762	0.84580
3803.12905	0.84634
3801.20049	0.85140
3799.27193	0.84911
3797.34336	0.84321
3795.41480	0.84038
3793.48623	0.83833
3791.55767	0.83674
3789.62910	0.83590
3787.70054	0.83608
3785.77197	0.83824
3783.84341	0.83882
3781.91485	0.83682
3779.98628	0.83730
3778.05772	0.83858
3776.12915	0.83600
3774.20059	0.83204
3772.27202	0.83048
3770.34346	0.83308
3768.41489	0.83579
3766.48633	0.83617
3764.55777	0.83428
3762.62920	0.83040
3760.70064	0.83075
3758.77207	0.83629
3756.84351	0.83594
3754.91494	0.83013
3752.98638	0.82860
3751.05781	0.83859
3749.12925	0.84511
3747.20069	0.84117
3745.27212	0.83947
3743.34356	0.84041
3741.41499	0.83594
3739.48643	0.83034
3737.55786	0.83134
3735.62930	0.84085
3733.70074	0.84452
3731.77217	0.83845
3729.84361	0.83153
3727.91504	0.82848
3725.98648	0.83095
3724.05791	0.83349
3722.12935	0.83213
3720.20078	0.83036
3718.27222	0.82841
3716.34366	0.82434
3714.41509	0.82086
3712.48653	0.82509
3710.55796	0.83256
3708.62940	0.82937
3706.70083	0.82331
3704.77227	0.82026
3702.84370	0.82134
3700.91514	0.82351
3698.98658	0.82246
3697.05801	0.82037
3695.12945	0.81866
3693.20088	0.81771
3691.27232	0.82110
3689.34375	0.82927
3687.41519	0.83050
3685.48662	0.82594
3683.55806	0.82236
3681.62950	0.82137
3679.70093	0.82184
3677.77237	0.82512
3675.84380	0.83670
3673.91524	0.84207
3671.98667	0.83973
3670.05811	0.84527
3668.12954	0.84922
3666.20098	0.84557
3664.27242	0.84342
3662.34385	0.84503
3660.41529	0.84785
3658.48672	0.85148
3656.55816	0.85854
3654.62959	0.86315
3652.70103	0.86379
3650.77246	0.87167
3648.84390	0.88789
3646.91534	0.88950
3644.98677	0.88358
3643.05821	0.87949
3641.12964	0.87936
3639.20108	0.88173
3637.27251	0.88489
3635.34395	0.88934
3633.41538	0.89330
3631.48682	0.89591
3629.55826	0.90665
3627.62969	0.92050
3625.70113	0.92004
3623.77256	0.91681
3621.84400	0.91926
3619.91543	0.92893
3617.98687	0.93684
3616.05830	0.93748
3614.12974	0.93948
3612.20118	0.94410
3610.27261	0.94676
3608.34405	0.94913
3606.41548	0.95111
3604.48692	0.95184
3602.55835	0.95543
3600.62979	0.96227
3598.70123	0.96688
3596.77266	0.96881
3594.84410	0.97143
3592.91553	0.97302
3590.98697	0.97315
3589.05840	0.97911
3587.12984	0.99286
3585.20127	0.99891
3583.27271	0.99705
3581.34415	0.99667
3579.41558	1.00044
3577.48702	1.00543
3575.55845	1.00976
3573.62989	1.01370
3571.70132	1.01768
3569.77276	1.02366
3567.84419	1.03501
3565.91563	1.04661
3563.98707	1.04988
3562.05850	1.05006
3560.12994	1.05104
3558.20137	1.05303
3556.27281	1.05628
3554.34424	1.06128
3552.41568	1.06729
3550.48711	1.07116
3548.55855	1.07352
3546.62999	1.07874
3544.70142	1.08627
3542.77286	1.09086
3540.84429	1.09209
3538.91573	1.09408
3536.98716	1.10004
3535.05860	1.10773
3533.13003	1.11321
3531.20147	1.11813
3529.27291	1.12547
3527.34434	1.13361
3525.41578	1.14026
3523.48721	1.14652
3521.55865	1.15278
3519.63008	1.15809
3517.70152	1.16294
3515.77295	1.16787
3513.84439	1.17256
3511.91583	1.17696
3509.98726	1.18222
3508.05870	1.18981
3506.13013	1.19927
3504.20157	1.20947
3502.27300	1.21827
3500.34444	1.22471
3498.41587	1.23165
3496.48731	1.24031
3494.55875	1.24690
3492.63018	1.24857
3490.70162	1.24897
3488.77305	1.25282
3486.84449	1.26015
3484.91592	1.26792
3482.98736	1.27541
3481.05879	1.28231
3479.13023	1.28650
3477.20167	1.28794
3475.27310	1.28671
3473.34454	1.28496
3471.41597	1.28747
3469.48741	1.29325
3467.55884	1.29844
3465.63028	1.30364
3463.70171	1.30882
3461.77315	1.31044
3459.84459	1.30979
3457.91602	1.31216
3455.98746	1.31834
3454.05889	1.32508
3452.13033	1.33009
3450.20176	1.33560
3448.27320	1.34262
3446.34464	1.34590
3444.41607	1.34514
3442.48751	1.34726
3440.55894	1.35259
3438.63038	1.35513
3436.70181	1.35412
3434.77325	1.35317
3432.84468	1.35347
3430.91612	1.35560
3428.98756	1.35869
3427.05899	1.35883
3425.13043	1.35724
3423.20186	1.35939
3421.27330	1.36352
3419.34473	1.36319
3417.41617	1.35930
3415.48760	1.35716
3413.55904	1.35718
3411.63048	1.35614
3409.70191	1.35421
3407.77335	1.35471
3405.84478	1.35900
3403.91622	1.36478
3401.98765	1.36745
3400.05909	1.36586
3398.13052	1.36337
3396.20196	1.36207
3394.27340	1.36344
3392.34483	1.36742
3390.41627	1.36921
3388.48770	1.36793
3386.55914	1.36825
3384.63057	1.37054
3382.70201	1.37260
3380.77344	1.37467
3378.84488	1.37689
3376.91632	1.38025
3374.98775	1.38413
3373.05919	1.38504
3371.13062	1.38550
3369.20206	1.38893
3367.27349	1.39275
3365.34493	1.39536
3363.41636	1.39737
3361.48780	1.39852
3359.55924	1.39916
3357.63067	1.40141
3355.70211	1.40544
3353.77354	1.40912
3351.84498	1.41127
3349.91641	1.41143
3347.98785	1.41405
3346.05928	1.42260
3344.13072	1.43093
3342.20216	1.43457
3340.27359	1.43600
3338.34503	1.43657
3336.41646	1.43609
3334.48790	1.43550
3332.55933	1.43738
3330.63077	1.44409
3328.70220	1.45296
3326.77364	1.46011
3324.84508	1.46534
3322.91651	1.46730
3320.98795	1.46738
3319.05938	1.47058
3317.13082	1.47867
3315.20225	1.48812
3313.27369	1.49127
3311.34513	1.48892
3309.41656	1.48897
3307.48800	1.49237
3305.55943	1.49803
3303.63087	1.50525
3301.70230	1.51025
3299.77374	1.51308
3297.84517	1.51836
3295.91661	1.52480
3293.98805	1.52591
3292.05948	1.52182
3290.13092	1.51950
3288.20235	1.52217
3286.27379	1.52454
3284.34522	1.52211
3282.41666	1.51688
3280.48809	1.51269
3278.55953	1.51212
3276.63097	1.51340
3274.70240	1.51239
3272.77384	1.50819
3270.84527	1.50279
3268.91671	1.49639
3266.98814	1.48727
3265.05958	1.47515
3263.13101	1.46310
3261.20245	1.45716
3259.27389	1.45649
3257.34532	1.45411
3255.41676	1.44778
3253.48819	1.43722
3251.55963	1.42595
3249.63106	1.41829
3247.70250	1.41039
3245.77393	1.39893
3243.84537	1.38642
3241.91681	1.37649
3239.98824	1.37123
3238.05968	1.36802
3236.13111	1.36367
3234.20255	1.36093
3232.27398	1.35904
3230.34542	1.35183
3228.41685	1.34202
3226.48829	1.33642
3224.55973	1.33366
3222.63116	1.33027
3220.70260	1.32631
3218.77403	1.32262
3216.84547	1.32019
3214.91690	1.31862
3212.98834	1.31558
3211.05977	1.31052
3209.13121	1.30487
3207.20265	1.30023
3205.27408	1.29737
3203.34552	1.29573
3201.41695	1.29374
3199.48839	1.28970
3197.55982	1.28311
3195.63126	1.27558
3193.70269	1.26917
3191.77413	1.26396
3189.84557	1.25920
3187.91700	1.25400
3185.98844	1.24740
3184.05987	1.24170
3182.13131	1.23924
3180.20274	1.23823
3178.27418	1.23595
3176.34562	1.23105
3174.41705	1.22391
3172.48849	1.21651
3170.55992	1.21114
3168.63136	1.20827
3166.70279	1.20651
3164.77423	1.20370
3162.84566	1.19891
3160.91710	1.19465
3158.98854	1.19244
3157.05997	1.19042
3155.13141	1.18797
3153.20284	1.18548
3151.27428	1.18203
3149.34571	1.17759
3147.41715	1.17322
3145.48858	1.16995
3143.56002	1.16884
3141.63146	1.16872
3139.70289	1.16670
3137.77433	1.16370
3135.84576	1.16327
3133.91720	1.16457
3131.98863	1.16361
3130.06007	1.16063
3128.13150	1.15849
3126.20294	1.15831
3124.27438	1.16013
3122.34581	1.16188
3120.41725	1.16143
3118.48868	1.15996
3116.56012	1.15866
3114.63155	1.15773
3112.70299	1.15770
3110.77442	1.15784
3108.84586	1.15702
3106.91730	1.15525
3104.98873	1.15330
3103.06017	1.15229
3101.13160	1.15253
3099.20304	1.15303
3097.27447	1.15284
3095.34591	1.15169
3093.41734	1.14996
3091.48878	1.14865
3089.56022	1.14853
3087.63165	1.14853
3085.70309	1.14753
3083.77452	1.14621
3081.84596	1.14475
3079.91739	1.14168
3077.98883	1.13641
3076.06026	1.13172
3074.13170	1.13048
3072.20314	1.13101
3070.27457	1.12932
3068.34601	1.12498
3066.41744	1.12153
3064.48888	1.11972
3062.56031	1.11630
3060.63175	1.11150
3058.70318	1.10906
3056.77462	1.10901
3054.84606	1.10756
3052.91749	1.10375
3050.98893	1.09934
3049.06036	1.09478
3047.13180	1.09025
3045.20323	1.08733
3043.27467	1.08653
3041.34610	1.08585
3039.41754	1.08356
3037.48898	1.08082
3035.56041	1.07877
3033.63185	1.07599
3031.70328	1.07231
3029.77472	1.06904
3027.84615	1.06595
3025.91759	1.06345
3023.98903	1.06217
3022.06046	1.06092
3020.13190	1.05866
3018.20333	1.05520
3016.27477	1.05171
3014.34620	1.05006
3012.41764	1.04968
3010.48907	1.04816
3008.56051	1.04493
3006.63195	1.04177
3004.70338	1.04061
3002.77482	1.04066
3000.84625	1.04028
2998.91769	1.04033
2996.98912	1.04096
2995.06056	1.04097
2993.13199	1.04104
2991.20343	1.04308
2989.27487	1.04791
2987.34630	1.05357
2985.41774	1.05769
2983.48917	1.06106
2981.56061	1.06542
2979.63204	1.07126
2977.70348	1.07785
2975.77491	1.08419
2973.84635	1.09050
2971.91779	1.09756
2969.98922	1.10599
2968.06066	1.11503
2966.13209	1.12164
2964.20353	1.12464
2962.27496	1.12659
2960.34640	1.12853
2958.41783	1.12785
2956.48927	1.12306
2954.56071	1.11632
2952.63214	1.11062
2950.70358	1.10793
2948.77501	1.10832
2946.84645	1.11034
2944.91788	1.11349
2942.98932	1.11864
2941.06075	1.12544
2939.13219	1.13330
2937.20363	1.14348
2935.27506	1.15556
2933.34650	1.16658
2931.41793	1.17499
2929.48937	1.18159
2927.56080	1.18772
2925.63224	1.19325
2923.70367	1.19703
2921.77511	1.19893
2919.84655	1.19735
2917.91798	1.18839
2915.98942	1.17131
2914.06085	1.14990
2912.13229	1.12934
2910.20372	1.11282
2908.27516	1.09988
2906.34659	1.08979
2904.41803	1.08255
2902.48947	1.07641
2900.56090	1.06980
2898.63234	1.06385
2896.70377	1.06019
2894.77521	1.05763
2892.84664	1.05396
2890.91808	1.04935
2888.98952	1.04560
2887.06095	1.04415
2885.13239	1.04431
2883.20382	1.04389
2881.27526	1.04271
2879.34669	1.04197
2877.41813	1.04170
2875.48956	1.04119
2873.56100	1.03937
2871.63244	1.03574
2869.70387	1.03062
2867.77531	1.02479
2865.84674	1.02015
2863.91818	1.01790
2861.98961	1.01798
2860.06105	1.02049
2858.13248	1.02470
2856.20392	1.03011
2854.27536	1.03710
2852.34679	1.04364
2850.41823	1.04398
2848.48966	1.03262
2846.56110	1.01227
2844.63253	0.99086
2842.70397	0.97271
2840.77540	0.95895
2838.84684	0.94934
2836.91828	0.94278
2834.98971	0.93825
2833.06115	0.93453
2831.13258	0.93107
2829.20402	0.92767
2827.27545	0.92373
2825.34689	0.91990
2823.41832	0.91747
2821.48976	0.91603
2819.56120	0.91403
2817.63263	0.91127
2815.70407	0.90896
2813.77550	0.90725
2811.84694	0.90507
2809.91837	0.90250
2807.98981	0.90017
2806.06124	0.89800
2804.13268	0.89596
2802.20412	0.89396
2800.27555	0.89183
2798.34699	0.89004
2796.41842	0.88829
2794.48986	0.88521
2792.56129	0.88134
2790.63273	0.87873
2788.70416	0.87728
2786.77560	0.87536
2784.84704	0.87260
2782.91847	0.86989
2780.98991	0.86769
2779.06134	0.86541
2777.13278	0.86289
2775.20421	0.86075
2773.27565	0.85889
2771.34708	0.85674
2769.41852	0.85488
2767.48996	0.85389
2765.56139	0.85320
2763.63283	0.85214
2761.70426	0.85079
2759.77570	0.84960
2757.84713	0.84826
2755.91857	0.84660
2753.99001	0.84534
2752.06144	0.84441
2750.13288	0.84310
2748.20431	0.84135
2746.27575	0.83929
2744.34718	0.83729
2742.41862	0.83580
2740.49005	0.83453
2738.56149	0.83299
2736.63293	0.83142
2734.70436	0.83036
2732.77580	0.82995
2730.84723	0.82972
2728.91867	0.82896
2726.99010	0.82782
2725.06154	0.82719
2723.13297	0.82716
2721.20441	0.82683
2719.27585	0.82610
2717.34728	0.82530
2715.41872	0.82438
2713.49015	0.82345
2711.56159	0.82218
2709.63302	0.82021
2707.70446	0.81829
2705.77589	0.81693
2703.84733	0.81550
2701.91877	0.81368
2699.99020	0.81185
2698.06164	0.81024
2696.13307	0.80843
2694.20451	0.80640
2692.27594	0.80516
2690.34738	0.80457
2688.41881	0.80326
2686.49025	0.80171
2684.56169	0.80131
2682.63312	0.80138
2680.70456	0.80039
2678.77599	0.79863
2676.84743	0.79707
2674.91886	0.79585
2672.99030	0.79498
2671.06173	0.79418
2669.13317	0.79291
2667.20461	0.79109
2665.27604	0.78905
2663.34748	0.78728
2661.41891	0.78595
2659.49035	0.78501
2657.56178	0.78418
2655.63322	0.78280
2653.70465	0.78090
2651.77609	0.77924
2649.84753	0.77822
2647.91896	0.77764
2645.99040	0.77718
2644.06183	0.77666
2642.13327	0.77611
2640.20470	0.77567
2638.27614	0.77538
2636.34757	0.77495
2634.41901	0.77447
2632.49045	0.77463
2630.56188	0.77503
2628.63332	0.77475
2626.70475	0.77391
2624.77619	0.77281
2622.84762	0.77165
2620.91906	0.77034
2618.99049	0.76878
2617.06193	0.76741
2615.13337	0.76627
2613.20480	0.76511
2611.27624	0.76438
2609.34767	0.76393
2607.41911	0.76294
2605.49054	0.76147
2603.56198	0.75990
2601.63342	0.75821
2599.70485	0.75705
2597.77629	0.75685
2595.84772	0.75678
2593.91916	0.75606
2591.99059	0.75479
2590.06203	0.75330
2588.13346	0.75199
2586.20490	0.75116
2584.27634	0.75061
2582.34777	0.74971
2580.41921	0.74822
2578.49064	0.74677
2576.56208	0.74587
2574.63351	0.74496
2572.70495	0.74341
2570.77638	0.74144
2568.84782	0.73972
2566.91926	0.73852
2564.99069	0.73762
2563.06213	0.73691
2561.13356	0.73612
2559.20500	0.73488
2557.27643	0.73358
2555.34787	0.73267
2553.41930	0.73174
2551.49074	0.73058
2549.56218	0.72936
2547.63361	0.72798
2545.70505	0.72652
2543.77648	0.72537
2541.84792	0.72454
2539.91935	0.72340
2537.99079	0.72163
2536.06222	0.71990
2534.13366	0.71873
2532.20510	0.71772
2530.27653	0.71665
2528.34797	0.71584
2526.41940	0.71534
2524.49084	0.71461
2522.56227	0.71329
2520.63371	0.71182
2518.70514	0.71105
2516.77658	0.71109
2514.84802	0.71110
2512.91945	0.71031
2510.99089	0.70924
2509.06232	0.70879
2507.13376	0.70833
2505.20519	0.70704
2503.27663	0.70560
2501.34806	0.70471
2499.41950	0.70405
2497.49094	0.70336
2495.56237	0.70266
2493.63381	0.70188
2491.70524	0.70109
2489.77668	0.70020
2487.84811	0.69903
2485.91955	0.69756
2483.99098	0.69617
2482.06242	0.69514
2480.13386	0.69397
2478.20529	0.69251
2476.27673	0.69148
2474.34816	0.69090
2472.41960	0.69028
2470.49103	0.68979
2468.56247	0.68942
2466.63391	0.68858
2464.70534	0.68699
2462.77678	0.68512
2460.84821	0.68366
2458.91965	0.68270
2456.99108	0.68188
2455.06252	0.68098
2453.13395	0.67998
2451.20539	0.67888
2449.27683	0.67785
2447.34826	0.67701
2445.41970	0.67621
2443.49113	0.67528
2441.56257	0.67424
2439.63400	0.67355
2437.70544	0.67317
2435.77687	0.67244
2433.84831	0.67142
2431.91975	0.67054
2429.99118	0.66978
2428.06262	0.66889
2426.13405	0.66768
2424.20549	0.66641
2422.27692	0.66544
2420.34836	0.66484
2418.41979	0.66425
2416.49123	0.66337
2414.56267	0.66227
2412.63410	0.66132
2410.70554	0.66100
2408.77697	0.66111
2406.84841	0.66087
2404.91984	0.66012
2402.99128	0.65919
2401.06271	0.65806
2399.13415	0.65670
2397.20559	0.65533
2395.27702	0.65413
2393.34846	0.65290
2391.41989	0.65165
2389.49133	0.65065
2387.56276	0.64991
2385.63420	0.64953
2383.70563	0.64981
2381.77707	0.65087
2379.84851	0.65303
2377.91994	0.65602
2375.99138	0.65858
2374.06281	0.66087
2372.13425	0.66438
2370.20568	0.66825
2368.27712	0.67082
2366.34855	0.67365
2364.41999	0.67853
2362.49143	0.68319
2360.56286	0.68593
2358.63430	0.68739
2356.70573	0.68602
2354.77717	0.68153
2352.84860	0.67557
2350.92004	0.66916
2348.99147	0.66395
2347.06291	0.66157
2345.13435	0.66320
2343.20578	0.66737
2341.27722	0.67000
2339.34865	0.66901
2337.42009	0.66559
2335.49152	0.66208
2333.56296	0.65934
2331.63440	0.65789
2329.70583	0.65766
2327.77727	0.65669
2325.84870	0.65459
2323.92014	0.65284
2321.99157	0.65142
2320.06301	0.64965
2318.13444	0.64771
2316.20588	0.64547
2314.27732	0.64312
2312.34875	0.64116
2310.42019	0.63938
2308.49162	0.63740
2306.56306	0.63527
2304.63449	0.63347
2302.70593	0.63254
2300.77736	0.63191
2298.84880	0.63081
2296.92024	0.62972
2294.99167	0.62913
2293.06311	0.62877
2291.13454	0.62847
2289.20598	0.62816
2287.27741	0.62769
2285.34885	0.62713
2283.42028	0.62666
2281.49172	0.62656
2279.56316	0.62689
2277.63459	0.62720
2275.70603	0.62721
2273.77746	0.62693
2271.84890	0.62645
2269.92033	0.62604
2267.99177	0.62563
2266.06320	0.62493
2264.13464	0.62412
2262.20608	0.62334
2260.27751	0.62239
2258.34895	0.62138
2256.42038	0.62054
2254.49182	0.61980
2252.56325	0.61911
2250.63469	0.61843
2248.70612	0.61769
2246.77756	0.61705
2244.84900	0.61656
2242.92043	0.61588
2240.99187	0.61477
2239.06330	0.61370
2237.13474	0.61323
2235.20617	0.61299
2233.27761	0.61250
2231.34904	0.61199
2229.42048	0.61181
2227.49192	0.61185
2225.56335	0.61198
2223.63479	0.61197
2221.70622	0.61157
2219.77766	0.61089
2217.84909	0.61027
2215.92053	0.60991
2213.99196	0.60983
2212.06340	0.60996
2210.13484	0.61008
2208.20627	0.60992
2206.27771	0.60954
2204.34914	0.60907
2202.42058	0.60843
2200.49201	0.60786
2198.56345	0.60764
2196.63488	0.60765
2194.70632	0.60737
2192.77776	0.60651
2190.84919	0.60552
2188.92063	0.60491
2186.99206	0.60428
2185.06350	0.60337
2183.13493	0.60272
2181.20637	0.60240
2179.27781	0.60202
2177.34924	0.60169
2175.42068	0.60169
2173.49211	0.60181
2171.56355	0.60171
2169.63498	0.60145
2167.70642	0.60139
2165.77785	0.60163
2163.84929	0.60210
2161.92073	0.60261
2159.99216	0.60287
2158.06360	0.60283
2156.13503	0.60253
2154.20647	0.60221
2152.27790	0.60219
2150.34934	0.60235
2148.42077	0.60249
2146.49221	0.60231
2144.56365	0.60168
2142.63508	0.60090
2140.70652	0.60037
2138.77795	0.60012
2136.84939	0.59991
2134.92082	0.59947
2132.99226	0.59874
2131.06369	0.59802
2129.13513	0.59760
2127.20657	0.59737
2125.27800	0.59705
2123.34944	0.59665
2121.42087	0.59639
2119.49231	0.59615
2117.56374	0.59563
2115.63518	0.59475
2113.70661	0.59381
2111.77805	0.59299
2109.84949	0.59227
2107.92092	0.59154
2105.99236	0.59073
2104.06379	0.58986
2102.13523	0.58908
2100.20666	0.58841
2098.27810	0.58768
2096.34953	0.58690
2094.42097	0.58638
2092.49241	0.58624
2090.56384	0.58632
2088.63528	0.58639
2086.70671	0.58638
2084.77815	0.58658
2082.84958	0.58713
2080.92102	0.58776
2078.99245	0.58823
2077.06389	0.58854
2075.13533	0.58871
2073.20676	0.58875
2071.27820	0.58867
2069.34963	0.58855
2067.42107	0.58846
2065.49250	0.58828
2063.56394	0.58791
2061.63537	0.58739
2059.70681	0.58661
2057.77825	0.58544
2055.84968	0.58423
2053.92112	0.58330
2051.99255	0.58264
2050.06399	0.58200
2048.13542	0.58116
2046.20686	0.58019
2044.27830	0.57942
2042.34973	0.57919
2040.42117	0.57911
2038.49260	0.57861
2036.56404	0.57809
2034.63547	0.57799
2032.70691	0.57794
2030.77834	0.57759
2028.84978	0.57691
2026.92122	0.57622
2024.99265	0.57583
2023.06409	0.57566
2021.13552	0.57523
2019.20696	0.57446
2017.27839	0.57356
2015.34983	0.57248
2013.42126	0.57130
2011.49270	0.57024
2009.56414	0.56924
2007.63557	0.56818
2005.70701	0.56716
2003.77844	0.56652
2001.84988	0.56621
1999.92131	0.56591
1997.99275	0.56550
1996.06418	0.56506
1994.13562	0.56513
1992.20706	0.56571
1990.27849	0.56569
1988.34993	0.56509
1986.42136	0.56461
1984.49280	0.56411
1982.56423	0.56349
1980.63567	0.56298
1978.70710	0.56258
1976.77854	0.56204
1974.84998	0.56130
1972.92141	0.56055
1970.99285	0.55985
1969.06428	0.55958
1967.13572	0.55978
1965.20715	0.55945
1963.27859	0.55845
1961.35002	0.55771
1959.42146	0.55741
1957.49290	0.55726
1955.56433	0.55720
1953.63577	0.55694
1951.70720	0.55648
1949.77864	0.55612
1947.85007	0.55576
1945.92151	0.55532
1943.99294	0.55560
1942.06438	0.55627
1940.13582	0.55540
1938.20725	0.55366
1936.27869	0.55264
1934.35012	0.55214
1932.42156	0.55144
1930.49299	0.55045
1928.56443	0.54945
1926.63586	0.54873
1924.70730	0.54863
1922.77874	0.54858
1920.85017	0.54739
1918.92161	0.54614
1916.99304	0.54523
1915.06448	0.54337
1913.13591	0.54131
1911.20735	0.54029
1909.27878	0.54001
1907.35022	0.53948
1905.42166	0.53870
1903.49309	0.53823
1901.56453	0.53787
1899.63596	0.53739
1897.70740	0.53730
1895.77883	0.53799
1893.85027	0.53851
1891.92171	0.53871
1889.99314	0.53960
1888.06458	0.54005
1886.13601	0.53923
1884.20745	0.53855
1882.27888	0.53844
1880.35032	0.53832
1878.42175	0.53787
1876.49319	0.53737
1874.56463	0.53692
1872.63606	0.53632
1870.70750	0.53688
1868.77893	0.53957
1866.85037	0.54044
1864.92180	0.53822
1862.99324	0.53626
1861.06467	0.53571
1859.13611	0.53571
1857.20755	0.53545
1855.27898	0.53481
1853.35042	0.53423
1851.42185	0.53398
1849.49329	0.53397
1847.56472	0.53388
1845.63616	0.53451
1843.70759	0.53551
1841.77903	0.53390
1839.85047	0.53102
1837.92190	0.52933
1835.99334	0.52831
1834.06477	0.52667
1832.13621	0.52572
1830.20764	0.52688
1828.27908	0.52713
1826.35051	0.52514
1824.42195	0.52328
1822.49339	0.52155
1820.56482	0.51975
1818.63626	0.51861
1816.70769	0.51784
1814.77913	0.51722
1812.85056	0.51727
1810.92200	0.51784
1808.99343	0.51775
1807.06487	0.51700
1805.13631	0.51654
1803.20774	0.51699
1801.27918	0.51852
1799.35061	0.51973
1797.42205	0.51960
1795.49348	0.51913
1793.56492	0.52031
1791.63635	0.52312
1789.70779	0.52278
1787.77923	0.52060
1785.85066	0.52011
1783.92210	0.52108
1781.99353	0.52221
1780.06497	0.52328
1778.13640	0.52321
1776.20784	0.52204
1774.27927	0.52231
1772.35071	0.52572
1770.42215	0.52774
1768.49358	0.52651
1766.56502	0.52452
1764.63645	0.52320
1762.70789	0.52456
1760.77932	0.52773
1758.85076	0.52977
1756.92220	0.53258
1754.99363	0.53554
1753.06507	0.53851
1751.13650	0.54637
1749.20794	0.55861
1747.27937	0.56653
1745.35081	0.57020
1743.42224	0.57311
1741.49368	0.57623
1739.56512	0.57900
1737.63655	0.57954
1735.70799	0.57987
1733.77942	0.58415
1731.85086	0.58578
1729.92229	0.58296
1727.99373	0.58024
1726.06516	0.57920
1724.13660	0.58062
1722.20804	0.58246
1720.27947	0.58422
1718.35091	0.59178
1716.42234	0.60680
1714.49378	0.61457
1712.56521	0.61766
1710.63665	0.62307
1708.70808	0.63255
1706.77952	0.65011
1704.85096	0.67427
1702.92239	0.69531
1700.99383	0.72796
1699.06526	0.78351
1697.13670	0.83435
1695.20813	0.88102
1693.27957	0.91507
1691.35100	0.94437
1689.42244	0.98344
1687.49388	1.02021
1685.56531	1.05808
1683.63675	1.12449
1681.70818	1.17564
1679.77962	1.20360
1677.85105	1.23074
1675.92249	1.26610
1673.99392	1.30574
1672.06536	1.33608
1670.13680	1.36912
1668.20823	1.40450
1666.27967	1.42306
1664.35110	1.43926
1662.42254	1.46479
1660.49397	1.48758
1658.56541	1.49915
1656.63684	1.50431
1654.70828	1.51167
1652.77972	1.52671
1650.85115	1.53034
1648.92259	1.52815
1646.99402	1.52698
1645.06546	1.52352
1643.13689	1.51841
1641.20833	1.51479
1639.27976	1.51143
1637.35120	1.50881
1635.42264	1.50438
1633.49407	1.49577
1631.56551	1.48742
1629.63694	1.47830
1627.70838	1.46765
1625.77981	1.45390
1623.85125	1.43230
1621.92269	1.40442
1619.99412	1.38073
1618.06556	1.35436
1616.13699	1.31548
1614.20843	1.28177
1612.27986	1.25513
1610.35130	1.22797
1608.42273	1.20084
1606.49417	1.17759
1604.56561	1.15872
1602.63704	1.14219
1600.70848	1.12862
1598.77991	1.11886
1596.85135	1.11179
1594.92278	1.10633
1592.99422	1.10188
1591.06565	1.09814
1589.13709	1.09676
1587.20853	1.09932
1585.27996	1.10482
1583.35140	1.11238
1581.42283	1.12120
1579.49427	1.13023
1577.56570	1.14398
1575.63714	1.16610
1573.70857	1.18053
1571.78001	1.19042
1569.85145	1.20936
1567.92288	1.23077
1565.99432	1.24591
1564.06575	1.26043
1562.13719	1.27201
1560.20862	1.28713
1558.28006	1.32304
1556.35149	1.33920
1554.42293	1.34259
1552.49437	1.34720
1550.56580	1.35215
1548.63724	1.35433
1546.70867	1.35467
1544.78011	1.35760
1542.85154	1.36294
1540.92298	1.36061
1538.99441	1.34584
1537.06585	1.33620
1535.13729	1.33077
1533.20872	1.32493
1531.28016	1.31702
1529.35159	1.31023
1527.42303	1.30433
1525.49446	1.29777
1523.56590	1.29413
1521.63733	1.29567
1519.70877	1.29595
1517.78021	1.29079
1515.85164	1.28162
1513.92308	1.26900
1511.99451	1.25347
1510.06595	1.23661
1508.13738	1.21185
1506.20882	1.17043
1504.28025	1.14359
1502.35169	1.12468
1500.42313	1.10473
1498.49456	1.08177
1496.56600	1.05445
1494.63743	1.03042
1492.70887	1.01347
1490.78030	0.99750
1488.85174	0.97730
1486.92317	0.95771
1484.99461	0.94273
1483.06605	0.93210
1481.13748	0.92550
1479.20892	0.92293
1477.28035	0.92477
1475.35179	0.93229
1473.42322	0.94852
1471.49466	0.96593
1469.56610	0.97319
1467.63753	0.97768
1465.70897	0.98686
1463.78040	0.99813
1461.85184	1.00392
1459.92327	1.00783
1457.99471	1.01885
1456.06614	1.03192
1454.13758	1.03238
1452.20902	1.02911
1450.28045	1.02627
1448.35189	1.02428
1446.42332	1.02160
1444.49476	1.01702
1442.56619	1.01129
1440.63763	1.00525
1438.70906	0.99890
1436.78050	0.99098
1434.85194	0.98132
1432.92337	0.97223
1430.99481	0.96390
1429.06624	0.95615
1427.13768	0.95051
1425.20911	0.94815
1423.28055	0.94809
1421.35198	0.94923
1419.42342	0.95352
1417.49486	0.95754
1415.56629	0.95675
1413.63773	0.95554
1411.70916	0.95556
1409.78060	0.95562
1407.85203	0.95601
1405.92347	0.95823
1403.99490	0.96105
1402.06634	0.96264
1400.13778	0.96470
1398.20921	0.96739
1396.28065	0.96906
1394.35208	0.96981
1392.42352	0.96986
1390.49495	0.97098
1388.56639	0.97642
1386.63782	0.98614
1384.70926	0.99476
1382.78070	1.00189
1380.85213	1.00884
1378.92357	1.01288
1376.99500	1.01221
1375.06644	1.00732
1373.13787	0.99761
1371.20931	0.98467
1369.28074	0.97012
1367.35218	0.95464
1365.42362	0.94051
1363.49505	0.92769
1361.56649	0.91522
1359.63792	0.90497
1357.70936	0.89788
1355.78079	0.89294
1353.85223	0.88920
1351.92366	0.88656
1349.99510	0.88492
1348.06654	0.88357
1346.13797	0.88237
1344.20941	0.88198
1342.28084	0.88308
1340.35228	0.88636
1338.42371	0.89006
1336.49515	0.89213
1334.56659	0.89452
1332.63802	0.89885
1330.70946	0.90460
1328.78089	0.91031
1326.85233	0.91469
1324.92376	0.91743
1322.99520	0.91925
1321.06663	0.92131
1319.13807	0.92431
1317.20951	0.92725
1315.28094	0.92905
1313.35238	0.93010
1311.42381	0.93064
1309.49525	0.93081
1307.56668	0.93090
1305.63812	0.93117
1303.70955	0.93188
1301.78099	0.93244
1299.85243	0.93189
1297.92386	0.92985
1295.99530	0.92709
1294.06673	0.92522
1292.13817	0.92502
1290.20960	0.92593
1288.28104	0.92718
1286.35247	0.92840
1284.42391	0.92937
1282.49535	0.93022
1280.56678	0.93121
1278.63822	0.93271
1276.70965	0.93499
1274.78109	0.93799
1272.85252	0.94173
1270.92396	0.94624
1268.99539	0.95103
1267.06683	0.95539
1265.13827	0.95902
1263.20970	0.96206
1261.28114	0.96449
1259.35257	0.96595
1257.42401	0.96640
1255.49544	0.96658
1253.56688	0.96708
1251.63831	0.96778
1249.70975	0.96850
1247.78119	0.96888
1245.85262	0.96851
1243.92406	0.96761
1241.99549	0.96651
1240.06693	0.96502
1238.13836	0.96263
1236.20980	0.95922
1234.28123	0.95518
1232.35267	0.95073
1230.42411	0.94539
1228.49554	0.93899
1226.56698	0.93194
1224.63841	0.92481
1222.70985	0.91800
1220.78128	0.91128
1218.85272	0.90445
1216.92415	0.89847
1214.99559	0.89460
1213.06703	0.89279
1211.13846	0.89202
1209.20990	0.89119
1207.28133	0.88930
1205.35277	0.88561
1203.42420	0.87956
1201.49564	0.87142
1199.56708	0.86212
1197.63851	0.85244
1195.70995	0.84296
1193.78138	0.83471
1191.85282	0.82857
1189.92425	0.82426
1187.99569	0.82094
1186.06712	0.81810
1184.13856	0.81587
1182.21000	0.81524
1180.28143	0.81743
1178.35287	0.82279
1176.42430	0.83043
1174.49574	0.83932
1172.56717	0.84876
1170.63861	0.85879
1168.71004	0.87067
1166.78148	0.88460
1164.85292	0.89946
1162.92435	0.91422
1160.99579	0.92619
1159.06722	0.93196
1157.13866	0.93049
1155.21009	0.92267
1153.28153	0.91032
1151.35296	0.89490
1149.42440	0.87756
1147.49584	0.86085
1145.56727	0.84728
1143.63871	0.83763
1141.71014	0.83153
1139.78158	0.82840
1137.85301	0.82816
1135.92445	0.83079
1133.99588	0.83595
1132.06732	0.84388
1130.13876	0.85491
1128.21019	0.86787
1126.28163	0.88153
1124.35306	0.89533
1122.42450	0.90822
1120.49593	0.91947
1118.56737	0.92854
1116.63880	0.93426
1114.71024	0.93538
1112.78168	0.93145
1110.85311	0.92499
1108.92455	0.91951
1106.99598	0.91507
1105.06742	0.91001
1103.13885	0.90459
1101.21029	0.90044
1099.28172	0.89847
1097.35316	0.89898
1095.42460	0.90212
1093.49603	0.90787
1091.56747	0.91695
1089.63890	0.92988
1087.71034	0.94644
1085.78177	0.96630
1083.85321	0.98696
1081.92464	1.00508
1079.99608	1.01959
1078.06752	1.02991
1076.13895	1.03415
1074.21039	1.03139
1072.28182	1.02344
1070.35326	1.01313
1068.42469	1.00179
1066.49613	0.98960
1064.56756	0.97727
1062.63900	0.96585
1060.71044	0.95583
1058.78187	0.94670
1056.85331	0.93766
1054.92474	0.92904
1052.99618	0.92160
1051.06761	0.91544
1049.13905	0.91096
1047.21049	0.90907
1045.28192	0.91054
1043.35336	0.91527
1041.42479	0.92170
1039.49623	0.92782
1037.56766	0.93313
1035.63910	0.93801
1033.71053	0.94184
1031.78197	0.94354
1029.85341	0.94292
1027.92484	0.93959
1025.99628	0.93326
1024.06771	0.92531
1022.13915	0.91722
1020.21058	0.90956
1018.28202	0.90259
1016.35345	0.89516
1014.42489	0.88542
1012.49633	0.87289
1010.56776	0.85765
1008.63920	0.83960
1006.71063	0.81964
1004.78207	0.79963
1002.85350	0.78105
1000.92494	0.76467
998.99637	0.75091
997.06781	0.73962
995.13925	0.73015
993.21068	0.72184
991.28212	0.71396
989.35355	0.70632
987.42499	0.69957
985.49642	0.69430
983.56786	0.69068
981.63929	0.68861
979.71073	0.68814
977.78217	0.68904
975.85360	0.69003
973.92504	0.68950
971.99647	0.68678
970.06791	0.68182
968.13934	0.67501
966.21078	0.66774
964.28221	0.66173
962.35365	0.65799
960.42509	0.65754
958.49652	0.66106
956.56796	0.66645
954.63939	0.66952
952.71083	0.66784
950.78226	0.66202
948.85370	0.65424
946.92513	0.64681
944.99657	0.64114
943.06801	0.63773
941.13944	0.63635
939.21088	0.63615
937.28231	0.63634
935.35375	0.63668
933.42518	0.63723
931.49662	0.63782
929.56805	0.63828
927.63949	0.63854
925.71093	0.63852
923.78236	0.63805
921.85380	0.63673
919.92523	0.63422
917.99667	0.63049
916.06810	0.62588
914.13954	0.62116
912.21098	0.61689
910.28241	0.61323
908.35385	0.61029
906.42528	0.60842
904.49672	0.60816
902.56815	0.60948
900.63959	0.61151
898.71102	0.61335
896.78246	0.61482
894.85390	0.61599
892.92533	0.61690
890.99677	0.61773
889.06820	0.61854
887.13964	0.61945
885.21107	0.62083
883.28251	0.62258
881.35394	0.62426
879.42538	0.62580
877.49682	0.62687
875.56825	0.62702
873.63969	0.62694
871.71112	0.62751
869.78256	0.62832
867.85399	0.62901
865.92543	0.62985
863.99686	0.63115
862.06830	0.63348
860.13974	0.63701
858.21117	0.64141
856.28261	0.64666
854.35404	0.65228
852.42548	0.65748
850.49691	0.66207
848.56835	0.66591
846.63978	0.66872
844.71122	0.67117
842.78266	0.67388
840.85409	0.67626
838.92553	0.67773
836.99696	0.67830
835.06840	0.67861
833.13983	0.67912
831.21127	0.67918
829.28270	0.67869
827.35414	0.67783
825.42558	0.67627
823.49701	0.67435
821.56845	0.67262
819.63988	0.67090
817.71132	0.66913
815.78275	0.66792
813.85419	0.66781
811.92562	0.66855
809.99706	0.66925
808.06850	0.66951
806.13993	0.66978
804.21137	0.67066
802.28280	0.67220
800.35424	0.67367
798.42567	0.67493
796.49711	0.67667
794.56854	0.67886
792.63998	0.68127
790.71142	0.68423
788.78285	0.68788
786.85429	0.69171
784.92572	0.69535
782.99716	0.69892
781.06859	0.70280
779.14003	0.70736
777.21147	0.71199
775.28290	0.71580
773.35434	0.71928
771.42577	0.72343
769.49721	0.72815
767.56864	0.73242
765.64008	0.73539
763.71151	0.73727
761.78295	0.73889
759.85439	0.74064
757.92582	0.74243
755.99726	0.74445
754.06869	0.74692
752.14013	0.74928
750.21156	0.75141
748.28300	0.75393
746.35443	0.75680
744.42587	0.76005
742.49731	0.76394
740.56874	0.76756
738.64018	0.77019
736.71161	0.77322
734.78305	0.77795
732.85448	0.78321
730.92592	0.78795
728.99735	0.79271
727.06879	0.79755
725.14023	0.80206
723.21166	0.80677
721.28310	0.81140
719.35453	0.81413
717.42597	0.81482
715.49740	0.81562
713.56884	0.81746
711.64027	0.81919
709.71171	0.82011
707.78315	0.82117
705.85458	0.82271
703.92602	0.82379
701.99745	0.82407
700.06889	0.82347
698.14032	0.82178
696.21176	0.81979
694.28319	0.81863
692.35463	0.81850
690.42607	0.81894
688.49750	0.81914
686.56894	0.81872
684.64037	0.81758
682.71181	0.81563
680.78324	0.81401
678.85468	0.81408
676.92611	0.81518
674.99755	0.81528
673.06899	0.81414
671.14042	0.81391
669.21186	0.81654
667.28329	0.81924
665.35473	0.81914
663.42616	0.82047
661.49760	0.82470
659.56903	0.82930
657.64047	0.83291
655.71191	0.83765
653.78334	0.84372
651.85478	0.84939
649.92621	0.85424
647.99765	0.85907
646.06908	0.86498
644.14052	0.87148
642.21195	0.87691
640.28339	0.88045
638.35483	0.88216
636.42626	0.88302
634.49770	0.88315
632.56913	0.88222
630.64057	0.88116
628.71200	0.88066
626.78344	0.88056
624.85488	0.87963
622.92631	0.87696
620.99775	0.87382
619.06918	0.87177
617.14062	0.87203
615.21205	0.87444
613.28349	0.87575
611.35492	0.87537
609.42636	0.87727
607.49780	0.88103
605.56923	0.88221
603.64067	0.88123
601.71210	0.88115
599.78354	0.88140
