3997.91406	0.73331
3995.98550	0.73325
3994.05693	0.73366
3992.12837	0.73407
3990.19980	0.73407
3988.27124	0.73350
3986.34268	0.73302
3984.41411	0.73249
3982.48555	0.73155
3980.55698	0.73095
3978.62842	0.73112
3976.69985	0.73093
3974.77129	0.72960
3972.84272	0.72839
3970.91416	0.72698
3968.98560	0.72501
3967.05703	0.72456
3965.12847	0.72548
3963.19990	0.72558
3961.27134	0.72495
3959.34277	0.72479
3957.41421	0.72457
3955.48564	0.72406
3953.55708	0.72410
3951.62852	0.72439
3949.69995	0.72345
3947.77139	0.72138
3945.84282	0.72128
3943.91426	0.72295
3941.98569	0.72297
3940.05713	0.72198
3938.12856	0.72185
3936.20000	0.72296
3934.27144	0.72502
3932.34287	0.72513
3930.41431	0.72207
3928.48574	0.72013
3926.55718	0.72055
3924.62861	0.72001
3922.70005	0.71818
3920.77148	0.71786
3918.84292	0.71823
3916.91436	0.71711
3914.98579	0.71579
3913.05723	0.71509
3911.12866	0.71398
3909.20010	0.71389
3907.27153	0.71641
3905.34297	0.71892
3903.41440	0.71781
3901.48584	0.71428
3899.55728	0.70968
3897.62871	0.70679
3895.70015	0.70822
3893.77158	0.71070
3891.84302	0.70826
3889.91445	0.70488
3887.98589	0.70674
3886.05733	0.70848
3884.12876	0.70681
3882.20020	0.70494
3880.27163	0.70024
3878.34307	0.69692
3876.41450	0.69826
3874.48594	0.69974
3872.55737	0.69991
3870.62881	0.69858
3868.70025	0.69747
3866.77168	0.69987
3864.84312	0.70092
3862.91455	0.69699
3860.98599	0.69395
3859.05742	0.69541
3857.12886	0.70058
3855.20029	0.70521
3853.27173	0.69959
3851.34317	0.69206
3849.41460	0.69143
3847.48604	0.69378
3845.55747	0.69726
3843.62891	0.70086
3841.70034	0.70431
3839.77178	0.70588
3837.84321	0.70282
3835.91465	0.69925
3833.98609	0.69747
3832.05752	0.69596
3830.12896	0.69603
3828.20039	0.69763
3826.27183	0.69889
3824.34326	0.70142
3822.41470	0.70364
3820.48613	0.69964
3818.55757	0.69624
3816.62901	0.69341
3814.70044	0.68891
3812.77188	0.68856
3810.84331	0.69151
3808.91475	0.69421
3806.98618	0.69384
3805.05762	0.69381
3803.12905	0.69461
3801.20049	0.69098
3799.27193	0.68875
3797.34336	0.68800
3795.41480	0.68521
3793.48623	0.68414
3791.55767	0.68475
3789.62910	0.68551
3787.70054	0.68684
3785.77197	0.68736
3783.84341	0.68675
3781.91485	0.68712
3779.98628	0.68583
3778.05772	0.68209
3776.12915	0.68157
3774.20059	0.68476
3772.27202	0.68829
3770.34346	0.68896
3768.41489	0.68778
3766.48633	0.68644
3764.55777	0.68485
3762.62920	0.68614
3760.70064	0.68890
3758.77207	0.68840
3756.84351	0.68851
3754.91494	0.69393
3752.98638	0.70210
3751.05781	0.70408
3749.12925	0.69874
3747.20069	0.69566
3745.27212	0.69069
3743.34356	0.68596
3741.41499	0.68843
3739.48643	0.69495
3737.55786	0.70262
3735.62930	0.70466
3733.70074	0.69559
3731.77217	0.68831
3729.84361	0.68832
3727.91504	0.69134
3725.98648	0.69250
3724.05791	0.69053
3722.12935	0.68739
3720.20078	0.68485
3718.27222	0.68450
3716.34366	0.68649
3714.41509	0.69044
3712.48653	0.69286
3710.55796	0.68784
3708.62940	0.68296
3706.70083	0.68353
3704.77227	0.68649
3702.84370	0.68769
3700.91514	0.68637
3698.98658	0.68615
3697.05801	0.68737
3695.12945	0.68975
3693.20088	0.69453
3691.27232	0.69949
3689.34375	0.69621
3687.41519	0.68979
3685.48662	0.68979
3683.55806	0.69330
3681.62950	0.69762
3679.70093	0.70263
3677.77237	0.70802
3675.84380	0.70886
3673.91524	0.70786
3671.98667	0.71100
3670.05811	0.71087
3668.12954	0.70715
3666.20098	0.70742
3664.27242	0.71056
3662.34385	0.71447
3660.41529	0.71897
3658.48672	0.72363
3656.55816	0.72649
3654.62959	0.73005
3652.70103	0.73825
3650.77246	0.74823
3648.84390	0.74708
3646.91534	0.74008
3644.98677	0.74127
3643.05821	0.74633
3641.12964	0.75049
3639.20108	0.75403
3637.27251	0.75942
3635.34395	0.76637
3633.41538	0.77409
3631.48682	0.78252
3629.55826	0.78763
3627.62969	0.78571
3625.70113	0.78681
3623.77256	0.79247
3621.84400	0.79999
3619.91543	0.80577
3617.98687	0.80805
3616.05830	0.81170
3614.12974	0.81646
3612.20118	0.82022
3610.27261	0.82430
3608.34405	0.82895
3606.41548	0.83432
3604.48692	0.84135
3602.55835	0.84857
3600.62979	0.85293
3598.70123	0.85525
3596.77266	0.85897
3594.84410	0.86484
3592.91553	0.87187
3590.98697	0.87911
3589.05840	0.88546
3587.12984	0.88925
3585.20127	0.89356
3583.27271	0.89943
3581.34415	0.90426
3579.41558	0.90806
3577.48702	0.91236
3575.55845	0.91726
3573.62989	0.92228
3571.70132	0.92879
3569.77276	0.93824
3567.84419	0.94962
3565.91563	0.95750
3563.98707	0.96106
3562.05850	0.96379
3560.12994	0.96598
3558.20137	0.96945
3556.27281	0.97580
3554.34424	0.98327
3552.41568	0.98921
3550.48711	0.99431
3548.55855	1.00351
3546.62999	1.01754
3544.70142	1.02737
3542.77286	1.02808
3540.84429	1.02792
3538.91573	1.03393
3536.98716	1.04373
3535.05860	1.05134
3533.13003	1.05749
3531.20147	1.06516
3529.27291	1.07395
3527.34434	1.08298
3525.41578	1.09110
3523.48721	1.09637
3521.55865	1.10083
3519.63008	1.10770
3517.70152	1.11625
3515.77295	1.12568
3513.84439	1.13556
3511.91583	1.14370
3509.98726	1.15088
3508.05870	1.16025
3506.13013	1.17250
3504.20157	1.18573
3502.27300	1.19600
3500.34444	1.20486
3498.41587	1.21552
3496.48731	1.22475
3494.55875	1.22959
3492.63018	1.23255
3490.70162	1.23837
3488.77305	1.24909
3486.84449	1.25970
3484.91592	1.26450
3482.98736	1.26748
3481.05879	1.27201
3479.13023	1.27358
3477.20167	1.27309
3475.27310	1.27588
3473.34454	1.28229
3471.41597	1.28947
3469.48741	1.29559
3467.55884	1.29929
3465.63028	1.30101
3463.70171	1.30378
3461.77315	1.31003
3459.84459	1.31842
3457.91602	1.32491
3455.98746	1.32903
3454.05889	1.33270
3452.13033	1.33427
3450.20176	1.33330
3448.27320	1.33453
3446.34464	1.34028
3444.41607	1.34542
3442.48751	1.34837
3440.55894	1.35291
3438.63038	1.35914
3436.70181	1.36392
3434.77325	1.36407
3432.84468	1.36037
3430.91612	1.35796
3428.98756	1.35842
3427.05899	1.35962
3425.13043	1.36173
3423.20186	1.36363
3421.27330	1.36268
3419.34473	1.36155
3417.41617	1.36319
3415.48760	1.36617
3413.55904	1.36979
3411.63048	1.37263
3409.70191	1.37167
3407.77335	1.37046
3405.84478	1.37392
3403.91622	1.37874
3401.98765	1.38119
3400.05909	1.38219
3398.13052	1.38538
3396.20196	1.39130
3394.27340	1.39311
3392.34483	1.39038
3390.41627	1.38892
3388.48770	1.38863
3386.55914	1.38898
3384.63057	1.39001
3382.70201	1.38949
3380.77344	1.38823
3378.84488	1.38920
3376.91632	1.39238
3374.98775	1.39534
3373.05919	1.39618
3371.13062	1.39529
3369.20206	1.39530
3367.27349	1.39706
3365.34493	1.39839
3363.41636	1.39839
3361.48780	1.39972
3359.55924	1.40590
3357.63067	1.41402
3355.70211	1.41716
3353.77354	1.41544
3351.84498	1.41358
3349.91641	1.41463
3347.98785	1.41982
3346.05928	1.42821
3344.13072	1.43615
3342.20216	1.43914
3340.27359	1.43925
3338.34503	1.44200
3336.41646	1.44500
3334.48790	1.44555
3332.55933	1.44904
3330.63077	1.45723
3328.70220	1.46463
3326.77364	1.46875
3324.84508	1.47069
3322.91651	1.47154
3320.98795	1.47519
3319.05938	1.48110
3317.13082	1.48327
3315.20225	1.48404
3313.27369	1.48806
3311.34513	1.49389
3309.41656	1.50015
3307.48800	1.50327
3305.55943	1.50089
3303.63087	1.49836
3301.70230	1.49971
3299.77374	1.50246
3297.84517	1.50343
3295.91661	1.50311
3293.98805	1.50482
3292.05948	1.50952
3290.13092	1.51097
3288.20235	1.50442
3286.27379	1.49739
3284.34522	1.49827
3282.41666	1.50397
3280.48809	1.50642
3278.55953	1.50194
3276.63097	1.49422
3274.70240	1.49121
3272.77384	1.49287
3270.84527	1.49158
3268.91671	1.48552
3266.98814	1.47845
3265.05958	1.47230
3263.13101	1.46587
3261.20245	1.45929
3259.27389	1.45454
3257.34532	1.45024
3255.41676	1.44227
3253.48819	1.43146
3251.55963	1.42196
3249.63106	1.41394
3247.70250	1.40704
3245.77393	1.40048
3243.84537	1.39270
3241.91681	1.38591
3239.98824	1.38109
3238.05968	1.37648
3236.13111	1.37109
3234.20255	1.36459
3232.27398	1.35770
3230.34542	1.35215
3228.41685	1.34780
3226.48829	1.34259
3224.55973	1.33787
3222.63116	1.33497
3220.70260	1.33146
3218.77403	1.32625
3216.84547	1.32121
3214.91690	1.31876
3212.98834	1.31754
3211.05977	1.31345
3209.13121	1.30579
3207.20265	1.29651
3205.27408	1.28790
3203.34552	1.28289
3201.41695	1.28187
3199.48839	1.28068
3197.55982	1.27570
3195.63126	1.26808
3193.70269	1.26120
3191.77413	1.25652
3189.84557	1.25184
3187.91700	1.24502
3185.98844	1.23785
3184.05987	1.23304
3182.13131	1.23056
3180.20274	1.22808
3178.27418	1.22312
3176.34562	1.21527
3174.41705	1.20752
3172.48849	1.20348
3170.55992	1.20240
3168.63136	1.20012
3166.70279	1.19583
3164.77423	1.19196
3162.84566	1.18867
3160.91710	1.18464
3158.98854	1.18100
3157.05997	1.17960
3155.13141	1.17819
3153.20284	1.17402
3151.27428	1.16939
3149.34571	1.16698
3147.41715	1.16640
3145.48858	1.16534
3143.56002	1.16226
3141.63146	1.16062
3139.70289	1.16249
3137.77433	1.16331
3135.84576	1.16120
3133.91720	1.15957
3131.98863	1.15897
3130.06007	1.15807
3128.13150	1.15842
3126.20294	1.16149
3124.27438	1.16474
3122.34581	1.16437
3120.41725	1.16179
3118.48868	1.16143
3116.56012	1.16272
3114.63155	1.16263
3112.70299	1.16157
3110.77442	1.16197
3108.84586	1.16347
3106.91730	1.16212
3104.98873	1.15820
3103.06017	1.15695
3101.13160	1.15844
3099.20304	1.15752
3097.27447	1.15315
3095.34591	1.14975
3093.41734	1.15002
3091.48878	1.15078
3089.56022	1.14912
3087.63165	1.14683
3085.70309	1.14520
3083.77452	1.14300
3081.84596	1.14035
3079.91739	1.13749
3077.98883	1.13375
3076.06026	1.13037
3074.13170	1.12714
3072.20314	1.12349
3070.27457	1.12195
3068.34601	1.12157
3066.41744	1.11868
3064.48888	1.11362
3062.56031	1.10822
3060.63175	1.10366
3058.70318	1.10009
3056.77462	1.09764
3054.84606	1.09623
3052.91749	1.09282
3050.98893	1.08755
3049.06036	1.08400
3047.13180	1.08173
3045.20323	1.07868
3043.27467	1.07461
3041.34610	1.07033
3039.41754	1.06710
3037.48898	1.06506
3035.56041	1.06350
3033.63185	1.06085
3031.70328	1.05661
3029.77472	1.05312
3027.84615	1.05092
3025.91759	1.04867
3023.98903	1.04699
3022.06046	1.04566
3020.13190	1.04324
3018.20333	1.04109
3016.27477	1.04091
3014.34620	1.04138
3012.41764	1.04016
3010.48907	1.03748
3008.56051	1.03569
3006.63195	1.03421
3004.70338	1.03159
3002.77482	1.03054
3000.84625	1.03227
2998.91769	1.03424
2996.98912	1.03578
2995.06056	1.03771
2993.13199	1.04023
2991.20343	1.04383
2989.27487	1.04898
2987.34630	1.05488
2985.41774	1.06091
2983.48917	1.06790
2981.56061	1.07602
2979.63204	1.08370
2977.70348	1.09109
2975.77491	1.10066
2973.84635	1.11183
2971.91779	1.12141
2969.98922	1.12945
2968.06066	1.13752
2966.13209	1.14527
2964.20353	1.15107
2962.27496	1.15348
2960.34640	1.15336
2958.41783	1.15200
2956.48927	1.14933
2954.56071	1.14584
2952.63214	1.14157
2950.70358	1.13583
2948.77501	1.13066
2946.84645	1.12987
2944.91788	1.13453
2942.98932	1.14249
2941.06075	1.15225
2939.13219	1.16385
2937.20363	1.17594
2935.27506	1.18717
2933.34650	1.19717
2931.41793	1.20533
2929.48937	1.21245
2927.56080	1.21942
2925.63224	1.22500
2923.70367	1.22621
2921.77511	1.22188
2919.84655	1.21461
2917.91798	1.20486
2915.98942	1.18998
2914.06085	1.17015
2912.13229	1.14912
2910.20372	1.13002
2908.27516	1.11302
2906.34659	1.09915
2904.41803	1.08983
2902.48947	1.08301
2900.56090	1.07700
2898.63234	1.07205
2896.70377	1.06737
2894.77521	1.06265
2892.84664	1.05844
2890.91808	1.05469
2888.98952	1.05181
2887.06095	1.04985
2885.13239	1.04760
2883.20382	1.04518
2881.27526	1.04414
2879.34669	1.04484
2877.41813	1.04650
2875.48956	1.04761
2873.56100	1.04590
2871.63244	1.04004
2869.70387	1.03105
2867.77531	1.02149
2865.84674	1.01411
2863.91818	1.01071
2861.98961	1.01128
2860.06105	1.01493
2858.13248	1.02089
2856.20392	1.02744
2854.27536	1.03251
2852.34679	1.03504
2850.41823	1.03129
2848.48966	1.01528
2846.56110	0.98930
2844.63253	0.96334
2842.70397	0.94275
2840.77540	0.92717
2838.84684	0.91534
2836.91828	0.90597
2834.98971	0.89818
2833.06115	0.89148
2831.13258	0.88575
2829.20402	0.88063
2827.27545	0.87545
2825.34689	0.87054
2823.41832	0.86637
2821.48976	0.86249
2819.56120	0.85834
2817.63263	0.85370
2815.70407	0.84862
2813.77550	0.84367
2811.84694	0.83946
2809.91837	0.83552
2807.98981	0.83126
2806.06124	0.82691
2804.13268	0.82256
2802.20412	0.81826
2800.27555	0.81424
2798.34699	0.81059
2796.41842	0.80740
2794.48986	0.80413
2792.56129	0.80041
2790.63273	0.79678
2788.70416	0.79311
2786.77560	0.78897
2784.84704	0.78525
2782.91847	0.78255
2780.98991	0.78020
2779.06134	0.77781
2777.13278	0.77568
2775.20421	0.77343
2773.27565	0.77067
2771.34708	0.76775
2769.41852	0.76517
2767.48996	0.76334
2765.56139	0.76179
2763.63283	0.75993
2761.70426	0.75809
2759.77570	0.75641
2757.84713	0.75476
2755.91857	0.75308
2753.99001	0.75097
2752.06144	0.74882
2750.13288	0.74752
2748.20431	0.74668
2746.27575	0.74526
2744.34718	0.74343
2742.41862	0.74202
2740.49005	0.74100
2738.56149	0.73993
2736.63293	0.73856
2734.70436	0.73701
2732.77580	0.73555
2730.84723	0.73426
2728.91867	0.73300
2726.99010	0.73160
2725.06154	0.73003
2723.13297	0.72829
2721.20441	0.72630
2719.27585	0.72431
2717.34728	0.72268
2715.41872	0.72119
2713.49015	0.71940
2711.56159	0.71748
2709.63302	0.71578
2707.70446	0.71418
2705.77589	0.71238
2703.84733	0.71040
2701.91877	0.70849
2699.99020	0.70652
2698.06164	0.70440
2696.13307	0.70249
2694.20451	0.70112
2692.27594	0.70007
2690.34738	0.69880
2688.41881	0.69714
2686.49025	0.69555
2684.56169	0.69446
2682.63312	0.69350
2680.70456	0.69190
2678.77599	0.68967
2676.84743	0.68748
2674.91886	0.68559
2672.99030	0.68406
2671.06173	0.68297
2669.13317	0.68207
2667.20461	0.68077
2665.27604	0.67905
2663.34748	0.67737
2661.41891	0.67574
2659.49035	0.67416
2657.56178	0.67304
2655.63322	0.67227
2653.70465	0.67138
2651.77609	0.67056
2649.84753	0.66992
2647.91896	0.66889
2645.99040	0.66745
2644.06183	0.66628
2642.13327	0.66568
2640.20470	0.66529
2638.27614	0.66471
2636.34757	0.66393
2634.41901	0.66330
2632.49045	0.66288
2630.56188	0.66226
2628.63332	0.66120
2626.70475	0.65991
2624.77619	0.65869
2622.84762	0.65802
2620.91906	0.65783
2618.99049	0.65728
2617.06193	0.65620
2615.13337	0.65520
2613.20480	0.65448
2611.27624	0.65393
2609.34767	0.65325
2607.41911	0.65206
2605.49054	0.65043
2603.56198	0.64901
2601.63342	0.64814
2599.70485	0.64727
2597.77629	0.64616
2595.84772	0.64532
2593.91916	0.64471
2591.99059	0.64361
2590.06203	0.64174
2588.13346	0.63979
2586.20490	0.63830
2584.27634	0.63697
2582.34777	0.63558
2580.41921	0.63426
2578.49064	0.63289
2576.56208	0.63134
2574.63351	0.62982
2572.70495	0.62841
2570.77638	0.62682
2568.84782	0.62491
2566.91926	0.62310
2564.99069	0.62175
2563.06213	0.62071
2561.13356	0.61950
2559.20500	0.61786
2557.27643	0.61620
2555.34787	0.61483
2553.41930	0.61331
2551.49074	0.61146
2549.56218	0.60960
2547.63361	0.60789
2545.70505	0.60641
2543.77648	0.60510
2541.84792	0.60383
2539.91935	0.60246
2537.99079	0.60095
2536.06222	0.59947
2534.13366	0.59821
2532.20510	0.59726
2530.27653	0.59640
2528.34797	0.59521
2526.41940	0.59386
2524.49084	0.59261
2522.56227	0.59123
2520.63371	0.58974
2518.70514	0.58837
2516.77658	0.58720
2514.84802	0.58622
2512.91945	0.58525
2510.99089	0.58415
2509.06232	0.58287
2507.13376	0.58138
2505.20519	0.57975
2503.27663	0.57835
2501.34806	0.57740
2499.41950	0.57650
2497.49094	0.57511
2495.56237	0.57346
2493.63381	0.57191
2491.70524	0.57054
2489.77668	0.56941
2487.84811	0.56838
2485.91955	0.56696
2483.99098	0.56512
2482.06242	0.56337
2480.13386	0.56171
2478.20529	0.55991
2476.27673	0.55824
2474.34816	0.55681
2472.41960	0.55525
2470.49103	0.55340
2468.56247	0.55150
2466.63391	0.54969
2464.70534	0.54788
2462.77678	0.54615
2460.84821	0.54456
2458.91965	0.54280
2456.99108	0.54081
2455.06252	0.53896
2453.13395	0.53728
2451.20539	0.53551
2449.27683	0.53372
2447.34826	0.53217
2445.41970	0.53079
2443.49113	0.52944
2441.56257	0.52815
2439.63400	0.52678
2437.70544	0.52512
2435.77687	0.52343
2433.84831	0.52216
2431.91975	0.52135
2429.99118	0.52060
2428.06262	0.51965
2426.13405	0.51865
2424.20549	0.51794
2422.27692	0.51746
2420.34836	0.51681
2418.41979	0.51595
2416.49123	0.51499
2414.56267	0.51393
2412.63410	0.51312
2410.70554	0.51289
2408.77697	0.51274
2406.84841	0.51203
2404.91984	0.51111
2402.99128	0.51050
2401.06271	0.51025
2399.13415	0.51028
2397.20559	0.51018
2395.27702	0.50963
2393.34846	0.50894
2391.41989	0.50864
2389.49133	0.50885
2387.56276	0.50932
2385.63420	0.51010
2383.70563	0.51149
2381.77707	0.51357
2379.84851	0.51612
2377.91994	0.51919
2375.99138	0.52309
2374.06281	0.52743
2372.13425	0.53176
2370.20568	0.53674
2368.27712	0.54222
2366.34855	0.54612
2364.41999	0.54870
2362.49143	0.55205
2360.56286	0.55443
2358.63430	0.55253
2356.70573	0.54624
2354.77717	0.53830
2352.84860	0.53042
2350.92004	0.52437
2348.99147	0.52219
2347.06291	0.52393
2345.13435	0.52751
2343.20578	0.52922
2341.27722	0.52918
2339.34865	0.52960
2337.42009	0.52959
2335.49152	0.52816
2333.56296	0.52631
2331.63440	0.52468
2329.70583	0.52301
2327.77727	0.52112
2325.84870	0.51854
2323.92014	0.51555
2321.99157	0.51285
2320.06301	0.51010
2318.13444	0.50711
2316.20588	0.50445
2314.27732	0.50247
2312.34875	0.50090
2310.42019	0.49897
2308.49162	0.49646
2306.56306	0.49416
2304.63449	0.49255
2302.70593	0.49139
2300.77736	0.49024
2298.84880	0.48882
2296.92024	0.48722
2294.99167	0.48569
2293.06311	0.48442
2291.13454	0.48327
2289.20598	0.48216
2287.27741	0.48115
2285.34885	0.48014
2283.42028	0.47920
2281.49172	0.47878
2279.56316	0.47889
2277.63459	0.47898
2275.70603	0.47882
2273.77746	0.47858
2271.84890	0.47827
2269.92033	0.47783
2267.99177	0.47740
2266.06320	0.47699
2264.13464	0.47670
2262.20608	0.47655
2260.27751	0.47620
2258.34895	0.47568
2256.42038	0.47522
2254.49182	0.47476
2252.56325	0.47422
2250.63469	0.47364
2248.70612	0.47310
2246.77756	0.47267
2244.84900	0.47228
2242.92043	0.47182
2240.99187	0.47133
2239.06330	0.47075
2237.13474	0.47000
2235.20617	0.46928
2233.27761	0.46866
2231.34904	0.46801
2229.42048	0.46724
2227.49192	0.46636
2225.56335	0.46544
2223.63479	0.46460
2221.70622	0.46383
2219.77766	0.46295
2217.84909	0.46193
2215.92053	0.46088
2213.99196	0.45980
2212.06340	0.45872
2210.13484	0.45778
2208.20627	0.45701
2206.27771	0.45614
2204.34914	0.45502
2202.42058	0.45393
2200.49201	0.45307
2198.56345	0.45219
2196.63488	0.45129
2194.70632	0.45053
2192.77776	0.44968
2190.84919	0.44864
2188.92063	0.44768
2186.99206	0.44684
2185.06350	0.44599
2183.13493	0.44516
2181.20637	0.44440
2179.27781	0.44370
2177.34924	0.44294
2175.42068	0.44193
2173.49211	0.44086
2171.56355	0.44008
2169.63498	0.43962
2167.70642	0.43922
2165.77785	0.43871
2163.84929	0.43803
2161.92073	0.43736
2159.99216	0.43683
2158.06360	0.43647
2156.13503	0.43611
2154.20647	0.43545
2152.27790	0.43458
2150.34934	0.43383
2148.42077	0.43341
2146.49221	0.43306
2144.56365	0.43258
2142.63508	0.43211
2140.70652	0.43174
2138.77795	0.43133
2136.84939	0.43078
2134.92082	0.43022
2132.99226	0.42990
2131.06369	0.42974
2129.13513	0.42951
2127.20657	0.42919
2125.27800	0.42886
2123.34944	0.42857
2121.42087	0.42849
2119.49231	0.42850
2117.56374	0.42834
2115.63518	0.42805
2113.70661	0.42781
2111.77805	0.42750
2109.84949	0.42711
2107.92092	0.42690
2105.99236	0.42685
2104.06379	0.42680
2102.13523	0.42675
2100.20666	0.42660
2098.27810	0.42626
2096.34953	0.42587
2094.42097	0.42570
2092.49241	0.42586
2090.56384	0.42617
2088.63528	0.42630
2086.70671	0.42611
2084.77815	0.42588
2082.84958	0.42599
2080.92102	0.42632
2078.99245	0.42651
2077.06389	0.42661
2075.13533	0.42683
2073.20676	0.42708
2071.27820	0.42727
2069.34963	0.42755
2067.42107	0.42812
2065.49250	0.42866
2063.56394	0.42886
2061.63537	0.42899
2059.70681	0.42925
2057.77825	0.42945
2055.84968	0.42953
2053.92112	0.42967
2051.99255	0.42984
2050.06399	0.42981
2048.13542	0.42955
2046.20686	0.42935
2044.27830	0.42946
2042.34973	0.42962
2040.42117	0.42956
2038.49260	0.42938
2036.56404	0.42909
2034.63547	0.42870
2032.70691	0.42828
2030.77834	0.42780
2028.84978	0.42740
2026.92122	0.42711
2024.99265	0.42685
2023.06409	0.42662
2021.13552	0.42644
2019.20696	0.42635
2017.27839	0.42609
2015.34983	0.42550
2013.42126	0.42506
2011.49270	0.42490
2009.56414	0.42460
2007.63557	0.42406
2005.70701	0.42357
2003.77844	0.42334
2001.84988	0.42341
1999.92131	0.42360
1997.99275	0.42374
1996.06418	0.42411
1994.13562	0.42486
1992.20706	0.42544
1990.27849	0.42547
1988.34993	0.42538
1986.42136	0.42547
1984.49280	0.42591
1982.56423	0.42662
1980.63567	0.42727
1978.70710	0.42788
1976.77854	0.42852
1974.84998	0.42914
1972.92141	0.42990
1970.99285	0.43096
1969.06428	0.43217
1967.13572	0.43306
1965.20715	0.43341
1963.27859	0.43376
1961.35002	0.43435
1959.42146	0.43486
1957.49290	0.43524
1955.56433	0.43553
1953.63577	0.43560
1951.70720	0.43558
1949.77864	0.43583
1947.85007	0.43643
1945.92151	0.43700
1943.99294	0.43701
1942.06438	0.43601
1940.13582	0.43435
1938.20725	0.43301
1936.27869	0.43217
1934.35012	0.43144
1932.42156	0.43056
1930.49299	0.42956
1928.56443	0.42859
1926.63586	0.42798
1924.70730	0.42779
1922.77874	0.42718
1920.85017	0.42595
1918.92161	0.42453
1916.99304	0.42277
1915.06448	0.42121
1913.13591	0.42037
1911.20735	0.41962
1909.27878	0.41806
1907.35022	0.41588
1905.42166	0.41398
1903.49309	0.41250
1901.56453	0.41114
1899.63596	0.41003
1897.70740	0.40926
1895.77883	0.40839
1893.85027	0.40724
1891.92171	0.40631
1889.99314	0.40524
1888.06458	0.40363
1886.13601	0.40228
1884.20745	0.40124
1882.27888	0.40017
1880.35032	0.39924
1878.42175	0.39843
1876.49319	0.39766
1874.56463	0.39708
1872.63606	0.39721
1870.70750	0.39828
1868.77893	0.39872
1866.85037	0.39677
1864.92180	0.39448
1862.99324	0.39337
1861.06467	0.39301
1859.13611	0.39262
1857.20755	0.39189
1855.27898	0.39115
1853.35042	0.39080
1851.42185	0.39101
1849.49329	0.39180
1847.56472	0.39299
1845.63616	0.39398
1843.70759	0.39317
1841.77903	0.39113
1839.85047	0.39005
1837.92190	0.38972
1835.99334	0.38925
1834.06477	0.38897
1832.13621	0.38959
1830.20764	0.39000
1828.27908	0.38893
1826.35051	0.38742
1824.42195	0.38559
1822.49339	0.38357
1820.56482	0.38204
1818.63626	0.38085
1816.70769	0.37957
1814.77913	0.37875
1812.85056	0.37852
1810.92200	0.37779
1808.99343	0.37608
1807.06487	0.37441
1805.13631	0.37368
1803.20774	0.37396
1801.27918	0.37420
1799.35061	0.37336
1797.42205	0.37252
1795.49348	0.37277
1793.56492	0.37344
1791.63635	0.37242
1789.70779	0.37012
1787.77923	0.36906
1785.85066	0.36923
1783.92210	0.36997
1781.99353	0.37083
1780.06497	0.37131
1778.13640	0.37188
1776.20784	0.37350
1774.27927	0.37631
1772.35071	0.37873
1770.42215	0.37896
1768.49358	0.37889
1766.56502	0.37988
1764.63645	0.38222
1762.70789	0.38602
1760.77932	0.39046
1758.85076	0.39495
1756.92220	0.40043
1754.99363	0.40645
1753.06507	0.41378
1751.13650	0.42523
1749.20794	0.43864
1747.27937	0.44828
1745.35081	0.45548
1743.42224	0.46226
1741.49368	0.46844
1739.56512	0.47338
1737.63655	0.47688
1735.70799	0.48033
1733.77942	0.48400
1731.85086	0.48477
1729.92229	0.48453
1727.99373	0.48561
1726.06516	0.48864
1724.13660	0.49385
1722.20804	0.49995
1720.27947	0.50694
1718.35091	0.51878
1716.42234	0.53540
1714.49378	0.54721
1712.56521	0.55805
1710.63665	0.57275
1708.70808	0.59193
1706.77952	0.61976
1704.85096	0.65588
1702.92239	0.68975
1700.99383	0.73725
1699.06526	0.81036
1697.13670	0.87560
1695.20813	0.93652
1693.27957	0.98358
1691.35100	1.02269
1689.42244	1.06867
1687.49388	1.11024
1685.56531	1.15157
1683.63675	1.21101
1681.70818	1.25034
1679.77962	1.26940
1677.85105	1.28573
1675.92249	1.30547
1673.99392	1.32715
1672.06536	1.34322
1670.13680	1.35420
1668.20823	1.36079
1666.27967	1.36252
1664.35110	1.36438
1662.42254	1.36595
1660.49397	1.36438
1658.56541	1.36325
1656.63684	1.36472
1654.70828	1.37020
1652.77972	1.36779
1650.85115	1.36002
1648.92259	1.35916
1646.99402	1.35606
1645.06546	1.34797
1643.13689	1.34264
1641.20833	1.34105
1639.27976	1.34133
1637.35120	1.34142
1635.42264	1.33438
1633.49407	1.32328
1631.56551	1.31613
1629.63694	1.30968
1627.70838	1.30196
1625.77981	1.29288
1623.85125	1.28058
1621.92269	1.26597
1619.99412	1.25429
1618.06556	1.23869
1616.13699	1.20957
1614.20843	1.18250
1612.27986	1.16103
1610.35130	1.13856
1608.42273	1.11536
1606.49417	1.09539
1604.56561	1.07995
1602.63704	1.06712
1600.70848	1.05678
1598.77991	1.04994
1596.85135	1.04625
1594.92278	1.04421
1592.99422	1.04334
1591.06565	1.04449
1589.13709	1.04834
1587.20853	1.05543
1585.27996	1.06520
1583.35140	1.07689
1581.42283	1.08981
1579.49427	1.10318
1577.56570	1.11940
1575.63714	1.13879
1573.70857	1.15123
1571.78001	1.16117
1569.85145	1.17725
1567.92288	1.19380
1565.99432	1.20528
1564.06575	1.21532
1562.13719	1.22266
1560.20862	1.23127
1558.28006	1.24559
1556.35149	1.24824
1554.42293	1.24641
1552.49437	1.24545
1550.56580	1.24437
1548.63724	1.24111
1546.70867	1.23859
1544.78011	1.23821
1542.85154	1.23683
1540.92298	1.22866
1538.99441	1.21488
1537.06585	1.20863
1535.13729	1.20454
1533.20872	1.19719
1531.28016	1.18857
1529.35159	1.18287
1527.42303	1.17891
1525.49446	1.17596
1523.56590	1.17443
1521.63733	1.16940
1519.70877	1.16141
1517.78021	1.15189
1515.85164	1.13634
1513.92308	1.12022
1511.99451	1.10760
1510.06595	1.09769
1508.13738	1.07861
1506.20882	1.03493
1504.28025	1.00887
1502.35169	0.99380
1500.42313	0.97721
1498.49456	0.95488
1496.56600	0.92584
1494.63743	0.90225
1492.70887	0.88743
1490.78030	0.87202
1488.85174	0.84938
1486.92317	0.82869
1484.99461	0.81531
1483.06605	0.80677
1481.13748	0.80138
1479.20892	0.80003
1477.28035	0.80425
1475.35179	0.81429
1473.42322	0.83061
1471.49466	0.84711
1469.56610	0.85640
1467.63753	0.86370
1465.70897	0.87315
1463.78040	0.88280
1461.85184	0.88972
1459.92327	0.89734
1457.99471	0.90992
1456.06614	0.91861
1454.13758	0.91792
1452.20902	0.91605
1450.28045	0.91444
1448.35189	0.91253
1446.42332	0.90952
1444.49476	0.90594
1442.56619	0.90221
1440.63763	0.89871
1438.70906	0.89507
1436.78050	0.88812
1434.85194	0.87844
1432.92337	0.87062
1430.99481	0.86345
1429.06624	0.85639
1427.13768	0.85191
1425.20911	0.85044
1423.28055	0.85057
1421.35198	0.85147
1419.42342	0.85300
1417.49486	0.85291
1415.56629	0.85064
1413.63773	0.84793
1411.70916	0.84524
1409.78060	0.84310
1407.85203	0.84239
1405.92347	0.84301
1403.99490	0.84364
1402.06634	0.84416
1400.13778	0.84498
1398.20921	0.84479
1396.28065	0.84313
1394.35208	0.84072
1392.42352	0.83868
1390.49495	0.83884
1388.56639	0.84270
1386.63782	0.84971
1384.70926	0.85642
1382.78070	0.86169
1380.85213	0.86452
1378.92357	0.86296
1376.99500	0.85660
1375.06644	0.84416
1373.13787	0.82631
1371.20931	0.80872
1369.28074	0.79104
1367.35218	0.77273
1365.42362	0.75728
1363.49505	0.74373
1361.56649	0.73116
1359.63792	0.72295
1357.70936	0.71951
1355.78079	0.71898
1353.85223	0.71976
1351.92366	0.72120
1349.99510	0.72345
1348.06654	0.72629
1346.13797	0.72961
1344.20941	0.73386
1342.28084	0.73925
1340.35228	0.74594
1338.42371	0.75281
1336.49515	0.75921
1334.56659	0.76700
1332.63802	0.77707
1330.70946	0.78808
1328.78089	0.79762
1326.85233	0.80463
1324.92376	0.81006
1322.99520	0.81545
1321.06663	0.82162
1319.13807	0.82815
1317.20951	0.83354
1315.28094	0.83740
1313.35238	0.84067
1311.42381	0.84363
1309.49525	0.84591
1307.56668	0.84709
1305.63812	0.84704
1303.70955	0.84630
1301.78099	0.84492
1299.85243	0.84214
1297.92386	0.83782
1295.99530	0.83326
1294.06673	0.82994
1292.13817	0.82825
1290.20960	0.82799
1288.28104	0.82855
1286.35247	0.82910
1284.42391	0.82937
1282.49535	0.82961
1280.56678	0.83036
1278.63822	0.83209
1276.70965	0.83483
1274.78109	0.83894
1272.85252	0.84458
1270.92396	0.85082
1268.99539	0.85690
1267.06683	0.86276
1265.13827	0.86782
1263.20970	0.87129
1261.28114	0.87325
1259.35257	0.87441
1257.42401	0.87535
1255.49544	0.87620
1253.56688	0.87708
1251.63831	0.87829
1249.70975	0.87963
1247.78119	0.88029
1245.85262	0.88010
1243.92406	0.87970
1241.99549	0.87932
1240.06693	0.87809
1238.13836	0.87566
1236.20980	0.87236
1234.28123	0.86793
1232.35267	0.86229
1230.42411	0.85595
1228.49554	0.84918
1226.56698	0.84210
1224.63841	0.83461
1222.70985	0.82645
1220.78128	0.81806
1218.85272	0.81062
1216.92415	0.80502
1214.99559	0.80148
1213.06703	0.80035
1211.13846	0.80162
1209.20990	0.80407
1207.28133	0.80583
1205.35277	0.80513
1203.42420	0.80134
1201.49564	0.79552
1199.56708	0.78912
1197.63851	0.78284
1195.70995	0.77675
1193.78138	0.77111
1191.85282	0.76676
1189.92425	0.76396
1187.99569	0.76210
1186.06712	0.76103
1184.13856	0.76119
1182.21000	0.76245
1180.28143	0.76505
1178.35287	0.76999
1176.42430	0.77708
1174.49574	0.78489
1172.56717	0.79287
1170.63861	0.80236
1168.71004	0.81445
1166.78148	0.82860
1164.85292	0.84395
1162.92435	0.85872
1160.99579	0.86984
1159.06722	0.87464
1157.13866	0.87229
1155.21009	0.86369
1153.28153	0.85032
1151.35296	0.83368
1149.42440	0.81568
1147.49584	0.79819
1145.56727	0.78292
1143.63871	0.77106
1141.71014	0.76306
1139.78158	0.75923
1137.85301	0.75944
1135.92445	0.76280
1133.99588	0.76897
1132.06732	0.77811
1130.13876	0.79043
1128.21019	0.80617
1126.28163	0.82404
1124.35306	0.84091
1122.42450	0.85480
1120.49593	0.86629
1118.56737	0.87621
1116.63880	0.88325
1114.71024	0.88580
1112.78168	0.88432
1110.85311	0.88067
1108.92455	0.87652
1106.99598	0.87290
1105.06742	0.87009
1103.13885	0.86826
1101.21029	0.86838
1099.28172	0.87125
1097.35316	0.87707
1095.42460	0.88602
1093.49603	0.89797
1091.56747	0.91242
1089.63890	0.92916
1087.71034	0.94796
1085.78177	0.96773
1083.85321	0.98667
1081.92464	1.00274
1079.99608	1.01333
1078.06752	1.01642
1076.13895	1.01236
1074.21039	1.00317
1072.28182	0.99061
1070.35326	0.97646
1068.42469	0.96300
1066.49613	0.95169
1064.56756	0.94231
1062.63900	0.93353
1060.71044	0.92443
1058.78187	0.91542
1056.85331	0.90752
1054.92474	0.90164
1052.99618	0.89784
1051.06761	0.89540
1049.13905	0.89430
1047.21049	0.89576
1045.28192	0.90080
1043.35336	0.90877
1041.42479	0.91774
1039.49623	0.92566
1037.56766	0.93203
1035.63910	0.93706
1033.71053	0.94008
1031.78197	0.94034
1029.85341	0.93667
1027.92484	0.92840
1025.99628	0.91774
1024.06771	0.90735
1022.13915	0.89758
1020.21058	0.88833
1018.28202	0.87995
1016.35345	0.87141
1014.42489	0.86076
1012.49633	0.84721
1010.56776	0.83080
1008.63920	0.81201
1006.71063	0.79218
1004.78207	0.77283
1002.85350	0.75505
1000.92494	0.73914
998.99637	0.72513
997.06781	0.71330
995.13925	0.70300
993.21068	0.69277
991.28212	0.68185
989.35355	0.67040
987.42499	0.65891
985.49642	0.64800
983.56786	0.63853
981.63929	0.63096
979.71073	0.62473
977.78217	0.61880
975.85360	0.61208
973.92504	0.60367
971.99647	0.59316
970.06791	0.58081
968.13934	0.56796
966.21078	0.55644
964.28221	0.54775
962.35365	0.54346
960.42509	0.54497
958.49652	0.55158
956.56796	0.55865
954.63939	0.56040
952.71083	0.55515
950.78226	0.54509
948.85370	0.53331
946.92513	0.52276
944.99657	0.51517
943.06801	0.51080
941.13944	0.50921
939.21088	0.50942
937.28231	0.51072
935.35375	0.51305
933.42518	0.51656
931.49662	0.52144
929.56805	0.52760
927.63949	0.53467
925.71093	0.54250
923.78236	0.55097
921.85380	0.55965
919.92523	0.56784
917.99667	0.57484
916.06810	0.58067
914.13954	0.58641
912.21098	0.59301
910.28241	0.60052
908.35385	0.60901
906.42528	0.61869
904.49672	0.62896
902.56815	0.63877
900.63959	0.64705
898.71102	0.65275
896.78246	0.65564
894.85390	0.65609
892.92533	0.65453
890.99677	0.65146
889.06820	0.64717
887.13964	0.64211
885.21107	0.63729
883.28251	0.63327
881.35394	0.62986
879.42538	0.62695
877.49682	0.62442
875.56825	0.62195
873.63969	0.61956
871.71112	0.61723
869.78256	0.61492
867.85399	0.61278
865.92543	0.61080
863.99686	0.60936
862.06830	0.60941
860.13974	0.61130
858.21117	0.61463
856.28261	0.61887
854.35404	0.62329
852.42548	0.62738
850.49691	0.63102
848.56835	0.63419
846.63978	0.63706
844.71122	0.64025
842.78266	0.64414
840.85409	0.64842
838.92553	0.65272
836.99696	0.65679
835.06840	0.66054
833.13983	0.66427
831.21127	0.66777
829.28270	0.67064
827.35414	0.67346
825.42558	0.67625
823.49701	0.67837
821.56845	0.68027
819.63988	0.68270
817.71132	0.68556
815.78275	0.68873
813.85419	0.69246
811.92562	0.69643
809.99706	0.69995
808.06850	0.70292
806.13993	0.70555
804.21137	0.70796
802.28280	0.71027
800.35424	0.71237
798.42567	0.71410
796.49711	0.71543
794.56854	0.71647
792.63998	0.71705
790.71142	0.71691
788.78285	0.71648
786.85429	0.71657
784.92572	0.71721
782.99716	0.71795
781.06859	0.71848
779.14003	0.71833
777.21147	0.71722
775.28290	0.71554
773.35434	0.71415
771.42577	0.71334
769.49721	0.71218
767.56864	0.70969
765.64008	0.70662
763.71151	0.70426
761.78295	0.70239
759.85439	0.70063
757.92582	0.69925
755.99726	0.69761
754.06869	0.69549
752.14013	0.69384
750.21156	0.69268
748.28300	0.69164
746.35443	0.69070
744.42587	0.68946
742.49731	0.68773
740.56874	0.68549
738.64018	0.68284
736.71161	0.68099
734.78305	0.68083
732.85448	0.68158
730.92592	0.68264
728.99735	0.68420
727.06879	0.68628
725.14023	0.68888
723.21166	0.69223
721.28310	0.69668
719.35453	0.70128
717.42597	0.70427
715.49740	0.70622
713.56884	0.70913
711.64027	0.71340
709.71171	0.71815
707.78315	0.72294
705.85458	0.72735
703.92602	0.73093
701.99745	0.73405
700.06889	0.73672
698.14032	0.73814
696.21176	0.73871
694.28319	0.73929
692.35463	0.73997
690.42607	0.74041
688.49750	0.73964
686.56894	0.73770
684.64037	0.73615
682.71181	0.73538
680.78324	0.73465
678.85468	0.73390
676.92611	0.73348
674.99755	0.73380
673.06899	0.73581
671.14042	0.73963
669.21186	0.74333
667.28329	0.74317
665.35473	0.74245
663.42616	0.74382
661.49760	0.74648
659.56903	0.74983
657.64047	0.75269
655.71191	0.75470
653.78334	0.75725
651.85478	0.76010
649.92621	0.76137
647.99765	0.76102
646.06908	0.76212
644.14052	0.76667
642.21195	0.77259
640.28339	0.77708
638.35483	0.77890
636.42626	0.77827
634.49770	0.77688
632.56913	0.77586
630.64057	0.77519
628.71200	0.77510
626.78344	0.77443
624.85488	0.77208
622.92631	0.76995
620.99775	0.76955
619.06918	0.77053
617.14062	0.77146
615.21205	0.77048
613.28349	0.76871
611.35492	0.76735
609.42636	0.76529
607.49780	0.76365
605.56923	0.76406
603.64067	0.76476
601.71210	0.76415
599.78354	0.76425
