3997.91406	0.64259
3995.98550	0.64232
3994.05693	0.64142
3992.12837	0.64135
3990.19980	0.64123
3988.27124	0.63900
3986.34268	0.63567
3984.41411	0.63439
3982.48555	0.63493
3980.55698	0.63444
3978.62842	0.63248
3976.69985	0.63081
3974.77129	0.63051
3972.84272	0.63081
3970.91416	0.63030
3968.98560	0.62930
3967.05703	0.62903
3965.12847	0.62837
3963.19990	0.62598
3961.27134	0.62412
3959.34277	0.62477
3957.41421	0.62647
3955.48564	0.62719
3953.55708	0.62627
3951.62852	0.62529
3949.69995	0.62655
3947.77139	0.62795
3945.84282	0.62574
3943.91426	0.62362
3941.98569	0.62502
3940.05713	0.62545
3938.12856	0.62304
3936.20000	0.62002
3934.27144	0.61863
3932.34287	0.62079
3930.41431	0.62346
3928.48574	0.62174
3926.55718	0.61819
3924.62861	0.61733
3922.70005	0.61686
3920.77148	0.61422
3918.84292	0.61352
3916.91436	0.61727
3914.98579	0.61991
3913.05723	0.61774
3911.12866	0.61336
3909.20010	0.60896
3907.27153	0.60429
3905.34297	0.60075
3903.41440	0.60107
3901.48584	0.60470
3899.55728	0.61030
3897.62871	0.61288
3895.70015	0.60844
3893.77158	0.60210
3891.84302	0.60393
3889.91445	0.60938
3887.98589	0.60892
3886.05733	0.60883
3884.12876	0.61027
3882.20020	0.60953
3880.27163	0.61268
3878.34307	0.61470
3876.41450	0.61168
3874.48594	0.60922
3872.55737	0.60812
3870.62881	0.60989
3868.70025	0.61210
3866.77168	0.60791
3864.84312	0.60569
3862.91455	0.61065
3860.98599	0.61169
3859.05742	0.60538
3857.12886	0.59451
3855.20029	0.58536
3853.27173	0.59637
3851.34317	0.60990
3849.41460	0.60882
3847.48604	0.60324
3845.55747	0.59682
3843.62891	0.59119
3841.70034	0.58741
3839.77178	0.58735
3837.84321	0.59315
3835.91465	0.59856
3833.98609	0.60156
3832.05752	0.60415
3830.12896	0.60396
3828.20039	0.60208
3826.27183	0.60119
3824.34326	0.59732
3822.41470	0.59376
3820.48613	0.60007
3818.55757	0.60433
3816.62901	0.60804
3814.70044	0.61461
3812.77188	0.61452
3810.84331	0.60947
3808.91475	0.60513
3806.98618	0.60600
3805.05762	0.60571
3803.12905	0.60230
3801.20049	0.60517
3799.27193	0.60805
3797.34336	0.60830
3795.41480	0.60959
3793.48623	0.60836
3791.55767	0.60628
3789.62910	0.60592
3787.70054	0.60495
3785.77197	0.60350
3783.84341	0.60237
3781.91485	0.59969
3779.98628	0.59922
3778.05772	0.60254
3776.12915	0.60253
3774.20059	0.59825
3772.27202	0.59406
3770.34346	0.59458
3768.41489	0.59688
3766.48633	0.59742
3764.55777	0.59842
3762.62920	0.59713
3760.70064	0.59452
3758.77207	0.59577
3756.84351	0.59652
3754.91494	0.59192
3752.98638	0.58534
3751.05781	0.58757
3749.12925	0.59515
3747.20069	0.59457
3745.27212	0.59650
3743.34356	0.60418
3741.41499	0.60308
3739.48643	0.59393
3737.55786	0.58463
3735.62930	0.58705
3733.70074	0.60084
3731.77217	0.60760
3729.84361	0.60600
3727.91504	0.60277
3725.98648	0.60193
3724.05791	0.60210
3722.12935	0.60185
3720.20078	0.60234
3718.27222	0.60241
3716.34366	0.59961
3714.41509	0.59358
3712.48653	0.59073
3710.55796	0.59857
3708.62940	0.60455
3706.70083	0.60313
3704.77227	0.59904
3702.84370	0.59872
3700.91514	0.60319
3698.98658	0.60495
3697.05801	0.60421
3695.12945	0.60306
3693.20088	0.59980
3691.27232	0.59664
3689.34375	0.60330
3687.41519	0.61257
3685.48662	0.61418
3683.55806	0.61309
3681.62950	0.61239
3679.70093	0.61078
3677.77237	0.60850
3675.84380	0.61752
3673.91524	0.62925
3671.98667	0.63068
3670.05811	0.64110
3668.12954	0.65474
3666.20098	0.65736
3664.27242	0.65827
3662.34385	0.66128
3660.41529	0.66347
3658.48672	0.66531
3656.55816	0.67226
3654.62959	0.67776
3652.70103	0.67395
3650.77246	0.67091
3648.84390	0.69031
3646.91534	0.71091
3644.98677	0.71624
3643.05821	0.71829
3641.12964	0.72168
3639.20108	0.72566
3637.27251	0.73008
3635.34395	0.73625
3633.41538	0.74205
3631.48682	0.74402
3629.55826	0.75202
3627.62969	0.77099
3625.70113	0.78017
3623.77256	0.78246
3621.84400	0.78462
3619.91543	0.79299
3617.98687	0.80762
3616.05830	0.81836
3614.12974	0.82668
3612.20118	0.83429
3610.27261	0.84152
3608.34405	0.85348
3606.41548	0.86486
3604.48692	0.86910
3602.55835	0.87325
3600.62979	0.88240
3598.70123	0.89165
3596.77266	0.89865
3594.84410	0.90723
3592.91553	0.91461
3590.98697	0.91712
3589.05840	0.92224
3587.12984	0.93756
3585.20127	0.95111
3583.27271	0.95839
3581.34415	0.96599
3579.41558	0.97476
3577.48702	0.98257
3575.55845	0.99017
3573.62989	0.99748
3571.70132	1.00280
3569.77276	1.00735
3567.84419	1.01569
3565.91563	1.02619
3563.98707	1.03312
3562.05850	1.04208
3560.12994	1.05502
3558.20137	1.06621
3556.27281	1.07145
3554.34424	1.07560
3552.41568	1.08694
3550.48711	1.10066
3548.55855	1.10934
3546.62999	1.11882
3544.70142	1.13163
3542.77286	1.13836
3540.84429	1.13898
3538.91573	1.14153
3536.98716	1.15003
3535.05860	1.16148
3533.13003	1.17094
3531.20147	1.17964
3529.27291	1.18988
3527.34434	1.19856
3525.41578	1.20538
3523.48721	1.21395
3521.55865	1.22019
3519.63008	1.22167
3517.70152	1.22625
3515.77295	1.23694
3513.84439	1.24764
3511.91583	1.25479
3509.98726	1.26309
3508.05870	1.27422
3506.13013	1.28191
3504.20157	1.28948
3502.27300	1.30289
3500.34444	1.31573
3498.41587	1.32344
3496.48731	1.32831
3494.55875	1.33393
3492.63018	1.34241
3490.70162	1.35203
3488.77305	1.35985
3486.84449	1.36542
3484.91592	1.36825
3482.98736	1.37067
3481.05879	1.37736
3479.13023	1.38297
3477.20167	1.38417
3475.27310	1.38834
3473.34454	1.39351
3471.41597	1.39030
3469.48741	1.38563
3467.55884	1.39054
3465.63028	1.39929
3463.70171	1.40285
3461.77315	1.40342
3459.84459	1.40730
3457.91602	1.41276
3455.98746	1.41272
3454.05889	1.40964
3452.13033	1.41134
3450.20176	1.41753
3448.27320	1.42372
3446.34464	1.42737
3444.41607	1.42836
3442.48751	1.42892
3440.55894	1.43012
3438.63038	1.43236
3436.70181	1.43568
3434.77325	1.43830
3432.84468	1.44124
3430.91612	1.44515
3428.98756	1.44489
3427.05899	1.43874
3425.13043	1.43370
3423.20186	1.43428
3421.27330	1.43789
3419.34473	1.44247
3417.41617	1.44829
3415.48760	1.45442
3413.55904	1.45906
3411.63048	1.46037
3409.70191	1.45675
3407.77335	1.45223
3405.84478	1.45075
3403.91622	1.45058
3401.98765	1.45434
3400.05909	1.45976
3398.13052	1.46210
3396.20196	1.46762
3394.27340	1.47537
3392.34483	1.47964
3390.41627	1.48173
3388.48770	1.48097
3386.55914	1.47541
3384.63057	1.46724
3382.70201	1.46415
3380.77344	1.46945
3378.84488	1.47551
3376.91632	1.47634
3374.98775	1.47666
3373.05919	1.47823
3371.13062	1.47486
3369.20206	1.47217
3367.27349	1.47916
3365.34493	1.48577
3363.41636	1.48265
3361.48780	1.47663
3359.55924	1.47543
3357.63067	1.48159
3355.70211	1.48817
3353.77354	1.48532
3351.84498	1.47986
3349.91641	1.48280
3347.98785	1.48950
3346.05928	1.49097
3344.13072	1.49020
3342.20216	1.49419
3340.27359	1.50156
3338.34503	1.50817
3336.41646	1.51263
3334.48790	1.51393
3332.55933	1.51304
3330.63077	1.51484
3328.70220	1.52043
3326.77364	1.52120
3324.84508	1.51533
3322.91651	1.50946
3320.98795	1.50486
3319.05938	1.50424
3317.13082	1.50815
3315.20225	1.51085
3313.27369	1.51183
3311.34513	1.51398
3309.41656	1.51576
3307.48800	1.51458
3305.55943	1.51323
3303.63087	1.51668
3301.70230	1.52340
3299.77374	1.52519
3297.84517	1.52106
3295.91661	1.51812
3293.98805	1.51547
3292.05948	1.51057
3290.13092	1.50772
3288.20235	1.50774
3286.27379	1.50819
3284.34522	1.50839
3282.41666	1.50661
3280.48809	1.50246
3278.55953	1.50172
3276.63097	1.50583
3274.70240	1.50569
3272.77384	1.49801
3270.84527	1.49039
3268.91671	1.48742
3266.98814	1.48914
3265.05958	1.49132
3263.13101	1.48563
3261.20245	1.47632
3259.27389	1.47523
3257.34532	1.47884
3255.41676	1.47847
3253.48819	1.47686
3251.55963	1.47849
3249.63106	1.47905
3247.70250	1.47499
3245.77393	1.47241
3243.84537	1.47387
3241.91681	1.47479
3239.98824	1.47292
3238.05968	1.46605
3236.13111	1.45635
3234.20255	1.45066
3232.27398	1.44917
3230.34542	1.44873
3228.41685	1.44682
3226.48829	1.44093
3224.55973	1.43351
3222.63116	1.42964
3220.70260	1.42986
3218.77403	1.42930
3216.84547	1.42460
3214.91690	1.41750
3212.98834	1.41166
3211.05977	1.41087
3209.13121	1.41339
3207.20265	1.41269
3205.27408	1.40850
3203.34552	1.40570
3201.41695	1.40534
3199.48839	1.40455
3197.55982	1.40110
3195.63126	1.39742
3193.70269	1.39871
3191.77413	1.40237
3189.84557	1.40127
3187.91700	1.39654
3185.98844	1.39266
3184.05987	1.39172
3182.13131	1.39259
3180.20274	1.39029
3178.27418	1.38330
3176.34562	1.37544
3174.41705	1.36998
3172.48849	1.36678
3170.55992	1.36401
3168.63136	1.36296
3166.70279	1.36566
3164.77423	1.36853
3162.84566	1.36653
3160.91710	1.35957
3158.98854	1.35061
3157.05997	1.34227
3155.13141	1.33699
3153.20284	1.33552
3151.27428	1.33585
3149.34571	1.33783
3147.41715	1.33981
3145.48858	1.33601
3143.56002	1.32790
3141.63146	1.32115
3139.70289	1.31737
3137.77433	1.31860
3135.84576	1.32325
3133.91720	1.32515
3131.98863	1.32287
3130.06007	1.31918
3128.13150	1.31703
3126.20294	1.31856
3124.27438	1.32004
3122.34581	1.31592
3120.41725	1.31055
3118.48868	1.31100
3116.56012	1.31588
3114.63155	1.32052
3112.70299	1.32200
3110.77442	1.32035
3108.84586	1.31904
3106.91730	1.31953
3104.98873	1.32008
3103.06017	1.32004
3101.13160	1.31840
3099.20304	1.31433
3097.27447	1.31072
3095.34591	1.30986
3093.41734	1.31002
3091.48878	1.30903
3089.56022	1.30622
3087.63165	1.30308
3085.70309	1.30120
3083.77452	1.29890
3081.84596	1.29647
3079.91739	1.29710
3077.98883	1.29905
3076.06026	1.29928
3074.13170	1.29844
3072.20314	1.29604
3070.27457	1.29209
3068.34601	1.28895
3066.41744	1.28624
3064.48888	1.28221
3062.56031	1.27752
3060.63175	1.27184
3058.70318	1.26601
3056.77462	1.26337
3054.84606	1.26400
3052.91749	1.26581
3050.98893	1.26624
3049.06036	1.26350
3047.13180	1.26016
3045.20323	1.25792
3043.27467	1.25488
3041.34610	1.25005
3039.41754	1.24476
3037.48898	1.24163
3035.56041	1.24150
3033.63185	1.24218
3031.70328	1.24051
3029.77472	1.23577
3027.84615	1.22989
3025.91759	1.22463
3023.98903	1.22186
3022.06046	1.22132
3020.13190	1.21957
3018.20333	1.21557
3016.27477	1.21160
3014.34620	1.20858
3012.41764	1.20639
3010.48907	1.20567
3008.56051	1.20448
3006.63195	1.19965
3004.70338	1.19355
3002.77482	1.19139
3000.84625	1.19354
2998.91769	1.19723
2996.98912	1.20077
2995.06056	1.20253
2993.13199	1.20278
2991.20343	1.20497
2989.27487	1.21097
2987.34630	1.21847
2985.41774	1.22431
2983.48917	1.22854
2981.56061	1.23173
2979.63204	1.23461
2977.70348	1.23964
2975.77491	1.24601
2973.84635	1.25201
2971.91779	1.25832
2969.98922	1.26491
2968.06066	1.27202
2966.13209	1.27913
2964.20353	1.28379
2962.27496	1.28543
2960.34640	1.28490
2958.41783	1.28136
2956.48927	1.27612
2954.56071	1.27282
2952.63214	1.26954
2950.70358	1.26335
2948.77501	1.25812
2946.84645	1.25763
2944.91788	1.26015
2942.98932	1.26298
2941.06075	1.26694
2939.13219	1.27516
2937.20363	1.28616
2935.27506	1.29420
2933.34650	1.29963
2931.41793	1.30584
2929.48937	1.31124
2927.56080	1.31468
2925.63224	1.31647
2923.70367	1.31696
2921.77511	1.31746
2919.84655	1.31605
2917.91798	1.30901
2915.98942	1.29549
2914.06085	1.27836
2912.13229	1.26114
2910.20372	1.24550
2908.27516	1.23316
2906.34659	1.22374
2904.41803	1.21458
2902.48947	1.20637
2900.56090	1.20078
2898.63234	1.19710
2896.70377	1.19460
2894.77521	1.19220
2892.84664	1.18787
2890.91808	1.18194
2888.98952	1.17717
2887.06095	1.17439
2885.13239	1.17232
2883.20382	1.17085
2881.27526	1.17082
2879.34669	1.17185
2877.41813	1.17266
2875.48956	1.17233
2873.56100	1.17004
2871.63244	1.16618
2869.70387	1.16235
2867.77531	1.15845
2865.84674	1.15435
2863.91818	1.15166
2861.98961	1.15042
2860.06105	1.15032
2858.13248	1.15385
2856.20392	1.16155
2854.27536	1.16997
2852.34679	1.17523
2850.41823	1.17181
2848.48966	1.15593
2846.56110	1.13308
2844.63253	1.11172
2842.70397	1.09478
2840.77540	1.08123
2838.84684	1.07001
2836.91828	1.06163
2834.98971	1.05600
2833.06115	1.05110
2831.13258	1.04620
2829.20402	1.04174
2827.27545	1.03729
2825.34689	1.03301
2823.41832	1.02922
2821.48976	1.02524
2819.56120	1.02125
2817.63263	1.01845
2815.70407	1.01621
2813.77550	1.01351
2811.84694	1.01137
2809.91837	1.00958
2807.98981	1.00593
2806.06124	1.00086
2804.13268	0.99673
2802.20412	0.99398
2800.27555	0.99180
2798.34699	0.98926
2796.41842	0.98599
2794.48986	0.98289
2792.56129	0.98037
2790.63273	0.97827
2788.70416	0.97700
2786.77560	0.97566
2784.84704	0.97287
2782.91847	0.96998
2780.98991	0.96822
2779.06134	0.96651
2777.13278	0.96485
2775.20421	0.96420
2773.27565	0.96331
2771.34708	0.96111
2769.41852	0.95843
2767.48996	0.95618
2765.56139	0.95455
2763.63283	0.95313
2761.70426	0.95118
2759.77570	0.94832
2757.84713	0.94547
2755.91857	0.94373
2753.99001	0.94250
2752.06144	0.94089
2750.13288	0.93938
2748.20431	0.93842
2746.27575	0.93754
2744.34718	0.93613
2742.41862	0.93420
2740.49005	0.93221
2738.56149	0.93041
2736.63293	0.92873
2734.70436	0.92700
2732.77580	0.92529
2730.84723	0.92382
2728.91867	0.92224
2726.99010	0.92010
2725.06154	0.91750
2723.13297	0.91476
2721.20441	0.91250
2719.27585	0.91107
2717.34728	0.90987
2715.41872	0.90869
2713.49015	0.90726
2711.56159	0.90472
2709.63302	0.90144
2707.70446	0.89882
2705.77589	0.89738
2703.84733	0.89647
2701.91877	0.89533
2699.99020	0.89362
2698.06164	0.89151
2696.13307	0.88978
2694.20451	0.88879
2692.27594	0.88782
2690.34738	0.88657
2688.41881	0.88579
2686.49025	0.88577
2684.56169	0.88571
2682.63312	0.88490
2680.70456	0.88341
2678.77599	0.88168
2676.84743	0.88003
2674.91886	0.87842
2672.99030	0.87654
2671.06173	0.87483
2669.13317	0.87382
2667.20461	0.87325
2665.27604	0.87267
2663.34748	0.87146
2661.41891	0.86918
2659.49035	0.86652
2657.56178	0.86456
2655.63322	0.86308
2653.70465	0.86141
2651.77609	0.85986
2649.84753	0.85884
2647.91896	0.85833
2645.99040	0.85784
2644.06183	0.85661
2642.13327	0.85473
2640.20470	0.85285
2638.27614	0.85109
2636.34757	0.84913
2634.41901	0.84739
2632.49045	0.84644
2630.56188	0.84529
2628.63332	0.84344
2626.70475	0.84195
2624.77619	0.84087
2622.84762	0.83943
2620.91906	0.83787
2618.99049	0.83660
2617.06193	0.83547
2615.13337	0.83431
2613.20480	0.83295
2611.27624	0.83133
2609.34767	0.82988
2607.41911	0.82870
2605.49054	0.82724
2603.56198	0.82547
2601.63342	0.82418
2599.70485	0.82348
2597.77629	0.82283
2595.84772	0.82199
2593.91916	0.82060
2591.99059	0.81882
2590.06203	0.81782
2588.13346	0.81770
2586.20490	0.81725
2584.27634	0.81618
2582.34777	0.81478
2580.41921	0.81286
2578.49064	0.81075
2576.56208	0.80915
2574.63351	0.80793
2572.70495	0.80681
2570.77638	0.80571
2568.84782	0.80482
2566.91926	0.80441
2564.99069	0.80386
2563.06213	0.80259
2561.13356	0.80078
2559.20500	0.79883
2557.27643	0.79759
2555.34787	0.79717
2553.41930	0.79649
2551.49074	0.79519
2549.56218	0.79379
2547.63361	0.79252
2545.70505	0.79160
2543.77648	0.79115
2541.84792	0.79033
2539.91935	0.78873
2537.99079	0.78727
2536.06222	0.78611
2534.13366	0.78454
2532.20510	0.78302
2530.27653	0.78230
2528.34797	0.78168
2526.41940	0.78031
2524.49084	0.77854
2522.56227	0.77723
2520.63371	0.77651
2518.70514	0.77599
2516.77658	0.77561
2514.84802	0.77511
2512.91945	0.77428
2510.99089	0.77361
2509.06232	0.77319
2507.13376	0.77281
2505.20519	0.77259
2503.27663	0.77213
2501.34806	0.77096
2499.41950	0.76958
2497.49094	0.76869
2495.56237	0.76825
2493.63381	0.76783
2491.70524	0.76740
2489.77668	0.76704
2487.84811	0.76661
2485.91955	0.76593
2483.99098	0.76502
2482.06242	0.76410
2480.13386	0.76273
2478.20529	0.76065
2476.27673	0.75870
2474.34816	0.75704
2472.41960	0.75495
2470.49103	0.75247
2468.56247	0.75004
2466.63391	0.74751
2464.70534	0.74470
2462.77678	0.74201
2460.84821	0.73974
2458.91965	0.73746
2456.99108	0.73508
2455.06252	0.73297
2453.13395	0.73095
2451.20539	0.72890
2449.27683	0.72704
2447.34826	0.72523
2445.41970	0.72331
2443.49113	0.72156
2441.56257	0.72011
2439.63400	0.71868
2437.70544	0.71740
2435.77687	0.71654
2433.84831	0.71597
2431.91975	0.71564
2429.99118	0.71547
2428.06262	0.71519
2426.13405	0.71493
2424.20549	0.71456
2422.27692	0.71374
2420.34836	0.71309
2418.41979	0.71310
2416.49123	0.71298
2414.56267	0.71210
2412.63410	0.71063
2410.70554	0.70896
2408.77697	0.70733
2406.84841	0.70561
2404.91984	0.70351
2402.99128	0.70113
2401.06271	0.69851
2399.13415	0.69558
2397.20559	0.69261
2395.27702	0.68983
2393.34846	0.68736
2391.41989	0.68495
2389.49133	0.68211
2387.56276	0.67917
2385.63420	0.67660
2383.70563	0.67402
2381.77707	0.67116
2379.84851	0.66890
2377.91994	0.66796
2375.99138	0.66736
2374.06281	0.66578
2372.13425	0.66340
2370.20568	0.66148
2368.27712	0.66089
2366.34855	0.66139
2364.41999	0.66261
2362.49143	0.66422
2360.56286	0.66538
2358.63430	0.66635
2356.70573	0.66763
2354.77717	0.66839
2352.84860	0.66803
2350.92004	0.66616
2348.99147	0.66356
2347.06291	0.66208
2345.13435	0.66287
2343.20578	0.66376
2341.27722	0.66217
2339.34865	0.65978
2337.42009	0.65855
2335.49152	0.65764
2333.56296	0.65559
2331.63440	0.65271
2329.70583	0.65053
2327.77727	0.64940
2325.84870	0.64780
2323.92014	0.64525
2321.99157	0.64226
2320.06301	0.63950
2318.13444	0.63777
2316.20588	0.63647
2314.27732	0.63472
2312.34875	0.63309
2310.42019	0.63216
2308.49162	0.63175
2306.56306	0.63146
2304.63449	0.63093
2302.70593	0.63055
2300.77736	0.63071
2298.84880	0.63117
2296.92024	0.63185
2294.99167	0.63273
2293.06311	0.63362
2291.13454	0.63455
2289.20598	0.63558
2287.27741	0.63648
2285.34885	0.63702
2283.42028	0.63722
2281.49172	0.63727
2279.56316	0.63731
2277.63459	0.63736
2275.70603	0.63731
2273.77746	0.63694
2271.84890	0.63616
2269.92033	0.63497
2267.99177	0.63342
2266.06320	0.63171
2264.13464	0.62992
2262.20608	0.62784
2260.27751	0.62535
2258.34895	0.62273
2256.42038	0.62025
2254.49182	0.61781
2252.56325	0.61545
2250.63469	0.61360
2248.70612	0.61237
2246.77756	0.61121
2244.84900	0.60991
2242.92043	0.60882
2240.99187	0.60799
2239.06330	0.60749
2237.13474	0.60763
2235.20617	0.60817
2233.27761	0.60879
2231.34904	0.60948
2229.42048	0.61042
2227.49192	0.61187
2225.56335	0.61361
2223.63479	0.61516
2221.70622	0.61669
2219.77766	0.61845
2217.84909	0.62017
2215.92053	0.62169
2213.99196	0.62306
2212.06340	0.62445
2210.13484	0.62589
2208.20627	0.62710
2206.27771	0.62791
2204.34914	0.62833
2202.42058	0.62832
2200.49201	0.62797
2198.56345	0.62719
2196.63488	0.62593
2194.70632	0.62451
2192.77776	0.62293
2190.84919	0.62093
2188.92063	0.61887
2186.99206	0.61715
2185.06350	0.61556
2183.13493	0.61385
2181.20637	0.61207
2179.27781	0.61028
2177.34924	0.60844
2175.42068	0.60659
2173.49211	0.60511
2171.56355	0.60431
2169.63498	0.60376
2167.70642	0.60306
2165.77785	0.60243
2163.84929	0.60185
2161.92073	0.60140
2159.99216	0.60140
2158.06360	0.60160
2156.13503	0.60180
2154.20647	0.60230
2152.27790	0.60322
2150.34934	0.60421
2148.42077	0.60506
2146.49221	0.60594
2144.56365	0.60678
2142.63508	0.60733
2140.70652	0.60777
2138.77795	0.60813
2136.84939	0.60830
2134.92082	0.60846
2132.99226	0.60849
2131.06369	0.60806
2129.13513	0.60719
2127.20657	0.60620
2125.27800	0.60523
2123.34944	0.60412
2121.42087	0.60247
2119.49231	0.60010
2117.56374	0.59757
2115.63518	0.59549
2113.70661	0.59358
2111.77805	0.59156
2109.84949	0.58961
2107.92092	0.58802
2105.99236	0.58668
2104.06379	0.58532
2102.13523	0.58388
2100.20666	0.58264
2098.27810	0.58181
2096.34953	0.58112
2094.42097	0.58029
2092.49241	0.57964
2090.56384	0.57940
2088.63528	0.57921
2086.70671	0.57881
2084.77815	0.57836
2082.84958	0.57799
2080.92102	0.57791
2078.99245	0.57809
2077.06389	0.57809
2075.13533	0.57776
2073.20676	0.57736
2071.27820	0.57707
2069.34963	0.57673
2067.42107	0.57615
2065.49250	0.57567
2063.56394	0.57544
2061.63537	0.57503
2059.70681	0.57412
2057.77825	0.57267
2055.84968	0.57090
2053.92112	0.56901
2051.99255	0.56711
2050.06399	0.56538
2048.13542	0.56368
2046.20686	0.56163
2044.27830	0.55928
2042.34973	0.55702
2040.42117	0.55506
2038.49260	0.55332
2036.56404	0.55191
2034.63547	0.55086
2032.70691	0.55003
2030.77834	0.54936
2028.84978	0.54886
2026.92122	0.54850
2024.99265	0.54836
2023.06409	0.54841
2021.13552	0.54836
2019.20696	0.54842
2017.27839	0.54910
2015.34983	0.55000
2013.42126	0.55045
2011.49270	0.55051
2009.56414	0.55046
2007.63557	0.55049
2005.70701	0.55071
2003.77844	0.55093
2001.84988	0.55093
1999.92131	0.55072
1997.99275	0.55042
1996.06418	0.54982
1994.13562	0.54887
1992.20706	0.54800
1990.27849	0.54698
1988.34993	0.54545
1986.42136	0.54384
1984.49280	0.54234
1982.56423	0.54067
1980.63567	0.53877
1978.70710	0.53683
1976.77854	0.53512
1974.84998	0.53375
1972.92141	0.53254
1970.99285	0.53150
1969.06428	0.53079
1967.13572	0.53044
1965.20715	0.52999
1963.27859	0.52947
1961.35002	0.52935
1959.42146	0.52961
1957.49290	0.53012
1955.56433	0.53102
1953.63577	0.53212
1951.70720	0.53296
1949.77864	0.53342
1947.85007	0.53376
1945.92151	0.53423
1943.99294	0.53516
1942.06438	0.53665
1940.13582	0.53764
1938.20725	0.53771
1936.27869	0.53754
1934.35012	0.53745
1932.42156	0.53725
1930.49299	0.53678
1928.56443	0.53599
1926.63586	0.53470
1924.70730	0.53333
1922.77874	0.53237
1920.85017	0.53107
1918.92161	0.52929
1916.99304	0.52767
1915.06448	0.52585
1913.13591	0.52370
1911.20735	0.52186
1909.27878	0.52069
1907.35022	0.51977
1905.42166	0.51866
1903.49309	0.51751
1901.56453	0.51660
1899.63596	0.51592
1897.70740	0.51548
1895.77883	0.51558
1893.85027	0.51592
1891.92171	0.51625
1889.99314	0.51724
1888.06458	0.51833
1886.13601	0.51878
1884.20745	0.51935
1882.27888	0.52018
1880.35032	0.52073
1878.42175	0.52104
1876.49319	0.52121
1874.56463	0.52104
1872.63606	0.52036
1870.70750	0.51976
1868.77893	0.52045
1866.85037	0.52121
1864.92180	0.52037
1862.99324	0.51898
1861.06467	0.51784
1859.13611	0.51691
1857.20755	0.51593
1855.27898	0.51471
1853.35042	0.51310
1851.42185	0.51117
1849.49329	0.50921
1847.56472	0.50732
1845.63616	0.50597
1843.70759	0.50551
1841.77903	0.50439
1839.85047	0.50254
1837.92190	0.50142
1835.99334	0.50113
1834.06477	0.50050
1832.13621	0.49981
1830.20764	0.50058
1828.27908	0.50201
1826.35051	0.50278
1824.42195	0.50389
1822.49339	0.50484
1820.56482	0.50540
1818.63626	0.50642
1816.70769	0.50760
1814.77913	0.50832
1812.85056	0.50910
1810.92200	0.51080
1808.99343	0.51266
1807.06487	0.51364
1805.13631	0.51404
1803.20774	0.51446
1801.27918	0.51566
1799.35061	0.51697
1797.42205	0.51709
1795.49348	0.51650
1793.56492	0.51698
1791.63635	0.51957
1789.70779	0.52110
1787.77923	0.52094
1785.85066	0.52112
1783.92210	0.52212
1781.99353	0.52342
1780.06497	0.52506
1778.13640	0.52647
1776.20784	0.52729
1774.27927	0.52913
1772.35071	0.53407
1770.42215	0.53955
1768.49358	0.54339
1766.56502	0.54679
1764.63645	0.55001
1762.70789	0.55560
1760.77932	0.56412
1758.85076	0.57224
1756.92220	0.58183
1754.99363	0.59179
1753.06507	0.60089
1751.13650	0.61456
1749.20794	0.63382
1747.27937	0.65015
1745.35081	0.66268
1743.42224	0.67396
1741.49368	0.68436
1739.56512	0.69362
1737.63655	0.69929
1735.70799	0.70352
1733.77942	0.71241
1731.85086	0.72042
1729.92229	0.72509
1727.99373	0.73022
1726.06516	0.73607
1724.13660	0.74392
1722.20804	0.75238
1720.27947	0.75994
1718.35091	0.77288
1716.42234	0.79769
1714.49378	0.81961
1712.56521	0.83612
1710.63665	0.85341
1708.70808	0.87407
1706.77952	0.90470
1704.85096	0.94563
1702.92239	0.98231
1700.99383	1.03085
1699.06526	1.10750
1697.13670	1.17635
1695.20813	1.23901
1693.27957	1.28308
1691.35100	1.31489
1689.42244	1.35228
1687.49388	1.38638
1685.56531	1.41921
1683.63675	1.46234
1681.70818	1.48734
1679.77962	1.49835
1677.85105	1.50710
1675.92249	1.51795
1673.99392	1.53068
1672.06536	1.53898
1670.13680	1.54290
1668.20823	1.54602
1666.27967	1.54425
1664.35110	1.53956
1662.42254	1.53779
1660.49397	1.53911
1658.56541	1.53907
1656.63684	1.53692
1654.70828	1.53606
1652.77972	1.53189
1650.85115	1.52217
1648.92259	1.51453
1646.99402	1.51026
1645.06546	1.51056
1643.13689	1.50939
1641.20833	1.50657
1639.27976	1.50155
1637.35120	1.49504
1635.42264	1.48906
1633.49407	1.48233
1631.56551	1.47403
1629.63694	1.46325
1627.70838	1.45094
1625.77981	1.43843
1623.85125	1.42464
1621.92269	1.41081
1619.99412	1.40008
1618.06556	1.38879
1616.13699	1.37241
1614.20843	1.35734
1612.27986	1.34480
1610.35130	1.33313
1608.42273	1.32310
1606.49417	1.31522
1604.56561	1.30945
1602.63704	1.30571
1600.70848	1.30459
1598.77991	1.30507
1596.85135	1.30626
1594.92278	1.30815
1592.99422	1.31052
1591.06565	1.31387
1589.13709	1.31818
1587.20853	1.32343
1585.27996	1.33035
1583.35140	1.33923
1581.42283	1.34820
1579.49427	1.35566
1577.56570	1.36540
1575.63714	1.38002
1573.70857	1.38842
1571.78001	1.39262
1569.85145	1.40120
1567.92288	1.41135
1565.99432	1.41795
1564.06575	1.42475
1562.13719	1.43163
1560.20862	1.43898
1558.28006	1.44343
1556.35149	1.43961
1554.42293	1.43591
1552.49437	1.43215
1550.56580	1.42757
1548.63724	1.42185
1546.70867	1.41609
1544.78011	1.40989
1542.85154	1.40262
1540.92298	1.39695
1538.99441	1.39392
1537.06585	1.39025
1535.13729	1.38517
1533.20872	1.37894
1531.28016	1.37207
1529.35159	1.36493
1527.42303	1.35752
1525.49446	1.35172
1523.56590	1.34881
1521.63733	1.34461
1519.70877	1.33714
1517.78021	1.32718
1515.85164	1.31339
1513.92308	1.29821
1511.99451	1.28346
1510.06595	1.27068
1508.13738	1.25560
1506.20882	1.22821
1504.28025	1.20937
1502.35169	1.19687
1500.42313	1.18485
1498.49456	1.17109
1496.56600	1.15372
1494.63743	1.13858
1492.70887	1.12738
1490.78030	1.11577
1488.85174	1.10363
1486.92317	1.09506
1484.99461	1.08863
1483.06605	1.08437
1481.13748	1.08360
1479.20892	1.08626
1477.28035	1.09224
1475.35179	1.10264
1473.42322	1.12130
1471.49466	1.14336
1469.56610	1.15505
1467.63753	1.16141
1465.70897	1.16961
1463.78040	1.17937
1461.85184	1.18482
1459.92327	1.18676
1457.99471	1.19127
1456.06614	1.19990
1454.13758	1.20190
1452.20902	1.19997
1450.28045	1.19801
1448.35189	1.19679
1446.42332	1.19460
1444.49476	1.19123
1442.56619	1.18778
1440.63763	1.18433
1438.70906	1.18048
1436.78050	1.17611
1434.85194	1.17218
1432.92337	1.16947
1430.99481	1.16811
1429.06624	1.16857
1427.13768	1.17060
1425.20911	1.17472
1423.28055	1.18116
1421.35198	1.18765
1419.42342	1.19461
1417.49486	1.20112
1415.56629	1.20424
1413.63773	1.20639
1411.70916	1.20931
1409.78060	1.21245
1407.85203	1.21384
1405.92347	1.21330
1403.99490	1.21239
1402.06634	1.21193
1400.13778	1.21146
1398.20921	1.20968
1396.28065	1.20687
1394.35208	1.20539
1392.42352	1.20496
1390.49495	1.20449
1388.56639	1.20568
1386.63782	1.20998
1384.70926	1.21483
1382.78070	1.21832
1380.85213	1.21960
1378.92357	1.21747
1376.99500	1.21168
1375.06644	1.20191
1373.13787	1.18910
1371.20931	1.17648
1369.28074	1.16420
1367.35218	1.15184
1365.42362	1.14019
1363.49505	1.12908
1361.56649	1.12031
1359.63792	1.11532
1357.70936	1.11270
1355.78079	1.11171
1353.85223	1.11187
1351.92366	1.11239
1349.99510	1.11300
1348.06654	1.11374
1346.13797	1.11454
1344.20941	1.11491
1342.28084	1.11457
1340.35228	1.11517
1338.42371	1.11827
1336.49515	1.12291
1334.56659	1.12892
1332.63802	1.13658
1330.70946	1.14515
1328.78089	1.15334
1326.85233	1.15961
1324.92376	1.16354
1322.99520	1.16657
1321.06663	1.16997
1319.13807	1.17328
1317.20951	1.17575
1315.28094	1.17746
1313.35238	1.17839
1311.42381	1.17816
1309.49525	1.17677
1307.56668	1.17439
1305.63812	1.17068
1303.70955	1.16559
1301.78099	1.15977
1299.85243	1.15318
1297.92386	1.14490
1295.99530	1.13544
1294.06673	1.12653
1292.13817	1.11874
1290.20960	1.11186
1288.28104	1.10584
1286.35247	1.10049
1284.42391	1.09597
1282.49535	1.09280
1280.56678	1.09097
1278.63822	1.09015
1276.70965	1.09059
1274.78109	1.09302
1272.85252	1.09797
1270.92396	1.10503
1268.99539	1.11304
1267.06683	1.12113
1265.13827	1.12924
1263.20970	1.13723
1261.28114	1.14417
1259.35257	1.14988
1257.42401	1.15544
1255.49544	1.16137
1253.56688	1.16699
1251.63831	1.17165
1249.70975	1.17554
1247.78119	1.17899
1245.85262	1.18215
1243.92406	1.18460
1241.99549	1.18575
1240.06693	1.18550
1238.13836	1.18346
1236.20980	1.17960
1234.28123	1.17516
1232.35267	1.17038
1230.42411	1.16415
1228.49554	1.15648
1226.56698	1.14760
1224.63841	1.13732
1222.70985	1.12660
1220.78128	1.11632
1218.85272	1.10662
1216.92415	1.09801
1214.99559	1.09105
1213.06703	1.08622
1211.13846	1.08400
1209.20990	1.08348
1207.28133	1.08221
1205.35277	1.07834
1203.42420	1.07166
1201.49564	1.06310
1199.56708	1.05461
1197.63851	1.04813
1195.70995	1.04352
1193.78138	1.03973
1191.85282	1.03759
1189.92425	1.03851
1187.99569	1.04234
1186.06712	1.04794
1184.13856	1.05444
1182.21000	1.06246
1180.28143	1.07350
1178.35287	1.08775
1176.42430	1.10360
1174.49574	1.11937
1172.56717	1.13420
1170.63861	1.14803
1168.71004	1.16213
1166.78148	1.17743
1164.85292	1.19175
1162.92435	1.20200
1160.99579	1.20676
1159.06722	1.20505
1157.13866	1.19794
1155.21009	1.18790
1153.28153	1.17508
1151.35296	1.15906
1149.42440	1.14205
1147.49584	1.12735
1145.56727	1.11644
1143.63871	1.10976
1141.71014	1.10811
1139.78158	1.11171
1137.85301	1.12005
1135.92445	1.13213
1133.99588	1.14720
1132.06732	1.16602
1130.13876	1.18886
1128.21019	1.21349
1126.28163	1.23767
1124.35306	1.26054
1122.42450	1.28133
1120.49593	1.29870
1118.56737	1.31101
1116.63880	1.31938
1114.71024	1.32659
1112.78168	1.33207
1110.85311	1.33491
1108.92455	1.33581
1106.99598	1.33491
1105.06742	1.33350
1103.13885	1.33314
1101.21029	1.33242
1099.28172	1.32961
1097.35316	1.32649
1095.42460	1.32487
1093.49603	1.32388
1091.56747	1.32318
1089.63890	1.32338
1087.71034	1.32373
1085.78177	1.32382
1083.85321	1.32474
1081.92464	1.32594
1079.99608	1.32534
1078.06752	1.32125
1076.13895	1.31203
1074.21039	1.29937
1072.28182	1.28717
1070.35326	1.27608
1068.42469	1.26543
1066.49613	1.25510
1064.56756	1.24514
1062.63900	1.23700
1060.71044	1.23086
1058.78187	1.22484
1056.85331	1.21940
1054.92474	1.21724
1052.99618	1.21938
1051.06761	1.22472
1049.13905	1.23176
1047.21049	1.23942
1045.28192	1.24849
1043.35336	1.25964
1041.42479	1.27095
1039.49623	1.28082
1037.56766	1.28882
1035.63910	1.29389
1033.71053	1.29606
1031.78197	1.29657
1029.85341	1.29518
1027.92484	1.29010
1025.99628	1.28210
1024.06771	1.27271
1022.13915	1.26155
1020.21058	1.24973
1018.28202	1.23845
1016.35345	1.22640
1014.42489	1.21234
1012.49633	1.19555
1010.56776	1.17531
1008.63920	1.15123
1006.71063	1.12286
1004.78207	1.09148
1002.85350	1.06044
1000.92494	1.03176
998.99637	1.00585
997.06781	0.98341
995.13925	0.96473
993.21068	0.94879
991.28212	0.93430
989.35355	0.92084
987.42499	0.90890
985.49642	0.89941
983.56786	0.89318
981.63929	0.89062
979.71073	0.89175
977.78217	0.89534
975.85360	0.89910
973.92504	0.90172
971.99647	0.90334
970.06791	0.90399
968.13934	0.90376
966.21078	0.90373
964.28221	0.90536
962.35365	0.90979
960.42509	0.91751
958.49652	0.92768
956.56796	0.93686
954.63939	0.93990
952.71083	0.93381
950.78226	0.91934
948.85370	0.89948
946.92513	0.87748
944.99657	0.85539
943.06801	0.83424
941.13944	0.81456
939.21088	0.79633
937.28231	0.77941
935.35375	0.76397
933.42518	0.75044
931.49662	0.73934
929.56805	0.73115
927.63949	0.72581
925.71093	0.72302
923.78236	0.72253
921.85380	0.72374
919.92523	0.72600
917.99667	0.72946
916.06810	0.73473
914.13954	0.74178
912.21098	0.75042
910.28241	0.76149
908.35385	0.77586
906.42528	0.79308
904.49672	0.81205
902.56815	0.83213
900.63959	0.85264
898.71102	0.87203
896.78246	0.88911
894.85390	0.90407
892.92533	0.91675
890.99677	0.92597
889.06820	0.93122
887.13964	0.93272
885.21107	0.93072
883.28251	0.92545
881.35394	0.91680
879.42538	0.90518
877.49682	0.89173
875.56825	0.87672
873.63969	0.85995
871.71112	0.84264
869.78256	0.82640
867.85399	0.81161
865.92543	0.79816
863.99686	0.78691
862.06830	0.77866
860.13974	0.77315
858.21117	0.77013
856.28261	0.76961
854.35404	0.77137
852.42548	0.77525
850.49691	0.78088
848.56835	0.78764
846.63978	0.79541
844.71122	0.80443
842.78266	0.81476
840.85409	0.82672
838.92553	0.84064
836.99696	0.85593
835.06840	0.87228
833.13983	0.89012
831.21127	0.90895
829.28270	0.92803
827.35414	0.94692
825.42558	0.96430
823.49701	0.97984
821.56845	0.99374
819.63988	1.00401
817.71132	1.00982
815.78275	1.01211
813.85419	1.01021
811.92562	1.00371
809.99706	0.99407
808.06850	0.98182
806.13993	0.96639
804.21137	0.94946
802.28280	0.93369
800.35424	0.91874
798.42567	0.90321
796.49711	0.88840
794.56854	0.87655
792.63998	0.86736
790.71142	0.85997
788.78285	0.85505
786.85429	0.85276
784.92572	0.85295
782.99716	0.85589
781.06859	0.86113
779.14003	0.86787
777.21147	0.87646
775.28290	0.88780
773.35434	0.90172
771.42577	0.91678
769.49721	0.93189
767.56864	0.94741
765.64008	0.96415
763.71151	0.98256
761.78295	1.00285
759.85439	1.02459
757.92582	1.04707
755.99726	1.06825
754.06869	1.08657
752.14013	1.10309
750.21156	1.11721
748.28300	1.12660
746.35443	1.13075
744.42587	1.13042
742.49731	1.12601
740.56874	1.11760
738.64018	1.10616
736.71161	1.09245
734.78305	1.07679
732.85448	1.06113
730.92592	1.04733
728.99735	1.03477
727.06879	1.02180
725.14023	1.00840
723.21166	0.99667
721.28310	0.98773
719.35453	0.97985
717.42597	0.97179
715.49740	0.96483
713.56884	0.95997
711.64027	0.95709
709.71171	0.95679
707.78315	0.95924
705.85458	0.96284
703.92602	0.96698
701.99745	0.97198
700.06889	0.97774
698.14032	0.98448
696.21176	0.99254
694.28319	1.00207
692.35463	1.01339
690.42607	1.02798
688.49750	1.04763
686.56894	1.07070
684.64037	1.09389
682.71181	1.11704
680.78324	1.13918
678.85468	1.15757
676.92611	1.17341
674.99755	1.18788
673.06899	1.19818
671.14042	1.20395
669.21186	1.20842
667.28329	1.20887
665.35473	1.20307
663.42616	1.19622
661.49760	1.18881
659.56903	1.17798
657.64047	1.16386
655.71191	1.14941
653.78334	1.13335
651.85478	1.11444
649.92621	1.09668
647.99765	1.08341
646.06908	1.07264
644.14052	1.06081
642.21195	1.04898
640.28339	1.04057
638.35483	1.03457
636.42626	1.02833
634.49770	1.02269
632.56913	1.01898
630.64057	1.01710
628.71200	1.01573
626.78344	1.01550
624.85488	1.01918
622.92631	1.02600
620.99775	1.03344
619.06918	1.04070
617.14062	1.04810
615.21205	1.05624
613.28349	1.06584
611.35492	1.07818
609.42636	1.09305
607.49780	1.10887
605.56923	1.12554
603.64067	1.14198
601.71210	1.15375
599.78354	1.16101
