3997.91406	0.58562
3995.98550	0.58749
3994.05693	0.58829
3992.12837	0.58767
3990.19980	0.58682
3988.27124	0.58535
3986.34268	0.58409
3984.41411	0.58422
3982.48555	0.58429
3980.55698	0.58309
3978.62842	0.58126
3976.69985	0.58032
3974.77129	0.58098
3972.84272	0.58203
3970.91416	0.58264
3968.98560	0.58256
3967.05703	0.58105
3965.12847	0.57831
3963.19990	0.57624
3961.27134	0.57617
3959.34277	0.57643
3957.41421	0.57536
3955.48564	0.57331
3953.55708	0.57085
3951.62852	0.56904
3949.69995	0.56973
3947.77139	0.57112
3945.84282	0.56945
3943.91426	0.56768
3941.98569	0.56860
3940.05713	0.56873
3938.12856	0.56768
3936.20000	0.56649
3934.27144	0.56507
3932.34287	0.56571
3930.41431	0.56801
3928.48574	0.56741
3926.55718	0.56537
3924.62861	0.56609
3922.70005	0.56703
3920.77148	0.56544
3918.84292	0.56571
3916.91436	0.57031
3914.98579	0.57378
3913.05723	0.57328
3911.12866	0.57058
3909.20010	0.56563
3907.27153	0.55896
3905.34297	0.55524
3903.41440	0.55796
3901.48584	0.56278
3899.55728	0.56736
3897.62871	0.56908
3895.70015	0.56468
3893.77158	0.55906
3891.84302	0.56158
3889.91445	0.56524
3887.98589	0.56069
3886.05733	0.55716
3884.12876	0.55907
3882.20020	0.56107
3880.27163	0.56588
3878.34307	0.56641
3876.41450	0.56013
3874.48594	0.55484
3872.55737	0.55294
3870.62881	0.55690
3868.70025	0.56230
3866.77168	0.55850
3864.84312	0.55464
3862.91455	0.55841
3860.98599	0.55971
3859.05742	0.55419
3857.12886	0.54327
3855.20029	0.53267
3853.27173	0.54499
3851.34317	0.56226
3849.41460	0.56119
3847.48604	0.55389
3845.55747	0.54686
3843.62891	0.54256
3841.70034	0.53933
3839.77178	0.53721
3837.84321	0.54106
3835.91465	0.54537
3833.98609	0.54589
3832.05752	0.54599
3830.12896	0.54571
3828.20039	0.54474
3826.27183	0.54352
3824.34326	0.53835
3822.41470	0.53333
3820.48613	0.53833
3818.55757	0.54191
3816.62901	0.54474
3814.70044	0.54931
3812.77188	0.54661
3810.84331	0.53939
3808.91475	0.53432
3806.98618	0.53609
3805.05762	0.53575
3803.12905	0.53191
3801.20049	0.53835
3799.27193	0.54457
3797.34336	0.54454
3795.41480	0.54567
3793.48623	0.54530
3791.55767	0.54328
3789.62910	0.54194
3787.70054	0.54069
3785.77197	0.54005
3783.84341	0.53945
3781.91485	0.53750
3779.98628	0.53939
3778.05772	0.54497
3776.12915	0.54538
3774.20059	0.54073
3772.27202	0.53548
3770.34346	0.53446
3768.41489	0.53740
3766.48633	0.54017
3764.55777	0.54147
3762.62920	0.53917
3760.70064	0.53664
3758.77207	0.53826
3756.84351	0.53754
3754.91494	0.52991
3752.98638	0.52058
3751.05781	0.52302
3749.12925	0.52888
3747.20069	0.52266
3745.27212	0.52198
3743.34356	0.53331
3741.41499	0.53580
3739.48643	0.52870
3737.55786	0.52082
3735.62930	0.52321
3733.70074	0.53628
3731.77217	0.54187
3729.84361	0.53770
3727.91504	0.53152
3725.98648	0.52969
3724.05791	0.53242
3722.12935	0.53625
3720.20078	0.53869
3718.27222	0.53714
3716.34366	0.53084
3714.41509	0.52218
3712.48653	0.52009
3710.55796	0.53074
3708.62940	0.53698
3706.70083	0.53547
3704.77227	0.53203
3702.84370	0.53217
3700.91514	0.53634
3698.98658	0.53689
3697.05801	0.53465
3695.12945	0.53233
3693.20088	0.52847
3691.27232	0.52586
3689.34375	0.53404
3687.41519	0.54381
3685.48662	0.54479
3683.55806	0.54247
3681.62950	0.54024
3679.70093	0.53681
3677.77237	0.53305
3675.84380	0.54227
3673.91524	0.55391
3671.98667	0.55239
3670.05811	0.55761
3668.12954	0.56839
3666.20098	0.57035
3664.27242	0.56940
3662.34385	0.56994
3660.41529	0.57119
3658.48672	0.57308
3656.55816	0.57940
3654.62959	0.58368
3652.70103	0.57828
3650.77246	0.57358
3648.84390	0.59228
3646.91534	0.61176
3644.98677	0.61615
3643.05821	0.61823
3641.12964	0.62201
3639.20108	0.62558
3637.27251	0.62832
3635.34395	0.63208
3633.41538	0.63464
3631.48682	0.63251
3629.55826	0.63824
3627.62969	0.65806
3625.70113	0.66548
3623.77256	0.66327
3621.84400	0.66055
3619.91543	0.66496
3617.98687	0.67443
3616.05830	0.67831
3614.12974	0.68185
3612.20118	0.68736
3610.27261	0.69145
3608.34405	0.69974
3606.41548	0.70989
3604.48692	0.71356
3602.55835	0.71570
3600.62979	0.72198
3598.70123	0.72858
3596.77266	0.73310
3594.84410	0.73986
3592.91553	0.74652
3590.98697	0.74825
3589.05840	0.75179
3587.12984	0.76496
3585.20127	0.77580
3583.27271	0.77942
3581.34415	0.78224
3579.41558	0.78740
3577.48702	0.79481
3575.55845	0.80206
3573.62989	0.80655
3571.70132	0.80743
3569.77276	0.80631
3567.84419	0.81219
3565.91563	0.82919
3563.98707	0.83997
3562.05850	0.84387
3560.12994	0.84833
3558.20137	0.85383
3556.27281	0.85771
3554.34424	0.86237
3552.41568	0.87135
3550.48711	0.87951
3548.55855	0.88359
3546.62999	0.88917
3544.70142	0.89923
3542.77286	0.90874
3540.84429	0.91481
3538.91573	0.91882
3536.98716	0.92370
3535.05860	0.93084
3533.13003	0.93798
3531.20147	0.94525
3529.27291	0.95437
3527.34434	0.96344
3525.41578	0.97107
3523.48721	0.97800
3521.55865	0.98409
3519.63008	0.99083
3517.70152	1.00031
3515.77295	1.01054
3513.84439	1.01892
3511.91583	1.02703
3509.98726	1.03721
3508.05870	1.04687
3506.13013	1.05364
3504.20157	1.06262
3502.27300	1.07653
3500.34444	1.08997
3498.41587	1.10024
3496.48731	1.10777
3494.55875	1.11466
3492.63018	1.12497
3490.70162	1.13940
3488.77305	1.15278
3486.84449	1.16013
3484.91592	1.16278
3482.98736	1.16479
3481.05879	1.16715
3479.13023	1.16941
3477.20167	1.17415
3475.27310	1.18056
3473.34454	1.18491
3471.41597	1.19019
3469.48741	1.19822
3467.55884	1.20361
3465.63028	1.20646
3463.70171	1.21068
3461.77315	1.21449
3459.84459	1.21781
3457.91602	1.22368
3455.98746	1.23250
3454.05889	1.24002
3452.13033	1.24183
3450.20176	1.24272
3448.27320	1.24908
3446.34464	1.25586
3444.41607	1.25781
3442.48751	1.26132
3440.55894	1.26637
3438.63038	1.26614
3436.70181	1.26371
3434.77325	1.26447
3432.84468	1.26760
3430.91612	1.27010
3428.98756	1.27050
3427.05899	1.27035
3425.13043	1.27065
3423.20186	1.27026
3421.27330	1.26971
3419.34473	1.27121
3417.41617	1.27350
3415.48760	1.27422
3413.55904	1.27279
3411.63048	1.27006
3409.70191	1.26775
3407.77335	1.26578
3405.84478	1.26581
3403.91622	1.26937
3401.98765	1.27014
3400.05909	1.26411
3398.13052	1.25887
3396.20196	1.26053
3394.27340	1.26695
3392.34483	1.27638
3390.41627	1.28632
3388.48770	1.29054
3386.55914	1.28874
3384.63057	1.28823
3382.70201	1.29133
3380.77344	1.29476
3378.84488	1.29759
3376.91632	1.29837
3374.98775	1.29661
3373.05919	1.29587
3371.13062	1.29804
3369.20206	1.30121
3367.27349	1.30282
3365.34493	1.30353
3363.41636	1.30649
3361.48780	1.31275
3359.55924	1.31855
3357.63067	1.32036
3355.70211	1.32149
3353.77354	1.32457
3351.84498	1.32617
3349.91641	1.32671
3347.98785	1.33000
3346.05928	1.33401
3344.13072	1.33591
3342.20216	1.33701
3340.27359	1.33789
3338.34503	1.34043
3336.41646	1.34783
3334.48790	1.35585
3332.55933	1.35919
3330.63077	1.36203
3328.70220	1.36713
3326.77364	1.37099
3324.84508	1.37469
3322.91651	1.38172
3320.98795	1.39242
3319.05938	1.40431
3317.13082	1.41149
3315.20225	1.41406
3313.27369	1.41828
3311.34513	1.42405
3309.41656	1.42834
3307.48800	1.43096
3305.55943	1.43365
3303.63087	1.43850
3301.70230	1.44237
3299.77374	1.44125
3297.84517	1.43924
3295.91661	1.44322
3293.98805	1.45357
3292.05948	1.46532
3290.13092	1.47451
3288.20235	1.47607
3286.27379	1.46925
3284.34522	1.46338
3282.41666	1.46223
3280.48809	1.46166
3278.55953	1.45947
3276.63097	1.45543
3274.70240	1.45180
3272.77384	1.44886
3270.84527	1.44561
3268.91671	1.44290
3266.98814	1.43810
3265.05958	1.43024
3263.13101	1.42203
3261.20245	1.41410
3259.27389	1.40639
3257.34532	1.39815
3255.41676	1.38869
3253.48819	1.37951
3251.55963	1.37148
3249.63106	1.36295
3247.70250	1.35287
3245.77393	1.34282
3243.84537	1.33366
3241.91681	1.32380
3239.98824	1.31249
3238.05968	1.30111
3236.13111	1.29265
3234.20255	1.28881
3232.27398	1.28563
3230.34542	1.28081
3228.41685	1.27760
3226.48829	1.27367
3224.55973	1.26558
3222.63116	1.25717
3220.70260	1.25052
3218.77403	1.24422
3216.84547	1.23873
3214.91690	1.23371
3212.98834	1.22724
3211.05977	1.21997
3209.13121	1.21428
3207.20265	1.20896
3205.27408	1.20260
3203.34552	1.19687
3201.41695	1.19094
3199.48839	1.18322
3197.55982	1.17516
3195.63126	1.16754
3193.70269	1.16054
3191.77413	1.15477
3189.84557	1.14961
3187.91700	1.14465
3185.98844	1.14011
3184.05987	1.13516
3182.13131	1.12966
3180.20274	1.12498
3178.27418	1.12136
3176.34562	1.11794
3174.41705	1.11310
3172.48849	1.10496
3170.55992	1.09543
3168.63136	1.08914
3166.70279	1.08640
3164.77423	1.08288
3162.84566	1.07714
3160.91710	1.07189
3158.98854	1.06800
3157.05997	1.06448
3155.13141	1.06158
3153.20284	1.05885
3151.27428	1.05574
3149.34571	1.05274
3147.41715	1.04957
3145.48858	1.04684
3143.56002	1.04515
3141.63146	1.04255
3139.70289	1.03899
3137.77433	1.03711
3135.84576	1.03703
3133.91720	1.03636
3131.98863	1.03385
3130.06007	1.03184
3128.13150	1.03370
3126.20294	1.03857
3124.27438	1.04163
3122.34581	1.04091
3120.41725	1.03971
3118.48868	1.04066
3116.56012	1.04205
3114.63155	1.04248
3112.70299	1.04307
3110.77442	1.04329
3108.84586	1.04270
3106.91730	1.04302
3104.98873	1.04432
3103.06017	1.04546
3101.13160	1.04446
3099.20304	1.04069
3097.27447	1.03815
3095.34591	1.03876
3093.41734	1.03946
3091.48878	1.03790
3089.56022	1.03440
3087.63165	1.03084
3085.70309	1.02846
3083.77452	1.02628
3081.84596	1.02375
3079.91739	1.02137
3077.98883	1.01862
3076.06026	1.01501
3074.13170	1.01164
3072.20314	1.00896
3070.27457	1.00550
3068.34601	1.00121
3066.41744	0.99705
3064.48888	0.99255
3062.56031	0.98834
3060.63175	0.98502
3058.70318	0.98159
3056.77462	0.97831
3054.84606	0.97487
3052.91749	0.96957
3050.98893	0.96364
3049.06036	0.95964
3047.13180	0.95665
3045.20323	0.95245
3043.27467	0.94761
3041.34610	0.94321
3039.41754	0.93848
3037.48898	0.93336
3035.56041	0.92915
3033.63185	0.92654
3031.70328	0.92495
3029.77472	0.92302
3027.84615	0.92023
3025.91759	0.91753
3023.98903	0.91518
3022.06046	0.91280
3020.13190	0.91029
3018.20333	0.90762
3016.27477	0.90496
3014.34620	0.90251
3012.41764	0.90053
3010.48907	0.89886
3008.56051	0.89756
3006.63195	0.89729
3004.70338	0.89729
3002.77482	0.89621
3000.84625	0.89465
2998.91769	0.89404
2996.98912	0.89499
2995.06056	0.89733
2993.13199	0.90090
2991.20343	0.90606
2989.27487	0.91240
2987.34630	0.91874
2985.41774	0.92487
2983.48917	0.93083
2981.56061	0.93726
2979.63204	0.94551
2977.70348	0.95443
2975.77491	0.96187
2973.84635	0.96871
2971.91779	0.97679
2969.98922	0.98563
2968.06066	0.99394
2966.13209	1.00112
2964.20353	1.00664
2962.27496	1.01021
2960.34640	1.01076
2958.41783	1.00692
2956.48927	1.00013
2954.56071	0.99269
2952.63214	0.98520
2950.70358	0.97903
2948.77501	0.97640
2946.84645	0.97763
2944.91788	0.98217
2942.98932	0.99010
2941.06075	1.00040
2939.13219	1.01216
2937.20363	1.02570
2935.27506	1.03988
2933.34650	1.05247
2931.41793	1.06297
2929.48937	1.07214
2927.56080	1.08040
2925.63224	1.08788
2923.70367	1.09496
2921.77511	1.10137
2919.84655	1.10443
2917.91798	1.09942
2915.98942	1.08376
2914.06085	1.06045
2912.13229	1.03528
2910.20372	1.01266
2908.27516	0.99484
2906.34659	0.98180
2904.41803	0.97201
2902.48947	0.96482
2900.56090	0.96032
2898.63234	0.95732
2896.70377	0.95431
2894.77521	0.95137
2892.84664	0.94834
2890.91808	0.94407
2888.98952	0.93918
2887.06095	0.93492
2885.13239	0.93116
2883.20382	0.92864
2881.27526	0.92824
2879.34669	0.92815
2877.41813	0.92691
2875.48956	0.92541
2873.56100	0.92340
2871.63244	0.91903
2869.70387	0.91154
2867.77531	0.90264
2865.84674	0.89519
2863.91818	0.89031
2861.98961	0.88840
2860.06105	0.89066
2858.13248	0.89729
2856.20392	0.90700
2854.27536	0.91791
2852.34679	0.92770
2850.41823	0.93106
2848.48966	0.91990
2846.56110	0.89387
2844.63253	0.86434
2842.70397	0.84113
2840.77540	0.82490
2838.84684	0.81281
2836.91828	0.80326
2834.98971	0.79578
2833.06115	0.79042
2831.13258	0.78650
2829.20402	0.78251
2827.27545	0.77812
2825.34689	0.77464
2823.41832	0.77267
2821.48976	0.77084
2819.56120	0.76797
2817.63263	0.76472
2815.70407	0.76181
2813.77550	0.75900
2811.84694	0.75620
2809.91837	0.75345
2807.98981	0.75050
2806.06124	0.74721
2804.13268	0.74391
2802.20412	0.74123
2800.27555	0.73918
2798.34699	0.73743
2796.41842	0.73556
2794.48986	0.73320
2792.56129	0.73074
2790.63273	0.72858
2788.70416	0.72645
2786.77560	0.72439
2784.84704	0.72254
2782.91847	0.72061
2780.98991	0.71855
2779.06134	0.71679
2777.13278	0.71550
2775.20421	0.71403
2773.27565	0.71217
2771.34708	0.71067
2769.41852	0.70957
2767.48996	0.70802
2765.56139	0.70607
2763.63283	0.70449
2761.70426	0.70291
2759.77570	0.70059
2757.84713	0.69811
2755.91857	0.69630
2753.99001	0.69501
2752.06144	0.69337
2750.13288	0.69119
2748.20431	0.68939
2746.27575	0.68796
2744.34718	0.68612
2742.41862	0.68429
2740.49005	0.68289
2738.56149	0.68147
2736.63293	0.67986
2734.70436	0.67817
2732.77580	0.67621
2730.84723	0.67426
2728.91867	0.67269
2726.99010	0.67116
2725.06154	0.66937
2723.13297	0.66782
2721.20441	0.66724
2719.27585	0.66698
2717.34728	0.66566
2715.41872	0.66373
2713.49015	0.66251
2711.56159	0.66174
2709.63302	0.66064
2707.70446	0.65938
2705.77589	0.65850
2703.84733	0.65774
2701.91877	0.65679
2699.99020	0.65622
2698.06164	0.65591
2696.13307	0.65496
2694.20451	0.65371
2692.27594	0.65295
2690.34738	0.65209
2688.41881	0.65078
2686.49025	0.64982
2684.56169	0.64943
2682.63312	0.64901
2680.70456	0.64813
2678.77599	0.64700
2676.84743	0.64608
2674.91886	0.64532
2672.99030	0.64460
2671.06173	0.64425
2669.13317	0.64437
2667.20461	0.64441
2665.27604	0.64413
2663.34748	0.64359
2661.41891	0.64283
2659.49035	0.64218
2657.56178	0.64203
2655.63322	0.64217
2653.70465	0.64211
2651.77609	0.64153
2649.84753	0.64075
2647.91896	0.64036
2645.99040	0.64019
2644.06183	0.63977
2642.13327	0.63900
2640.20470	0.63789
2638.27614	0.63675
2636.34757	0.63588
2634.41901	0.63511
2632.49045	0.63419
2630.56188	0.63317
2628.63332	0.63205
2626.70475	0.63055
2624.77619	0.62856
2622.84762	0.62642
2620.91906	0.62443
2618.99049	0.62252
2617.06193	0.62062
2615.13337	0.61876
2613.20480	0.61695
2611.27624	0.61535
2609.34767	0.61412
2607.41911	0.61291
2605.49054	0.61133
2603.56198	0.60973
2601.63342	0.60842
2599.70485	0.60715
2597.77629	0.60582
2595.84772	0.60460
2593.91916	0.60353
2591.99059	0.60269
2590.06203	0.60212
2588.13346	0.60155
2586.20490	0.60092
2584.27634	0.60023
2582.34777	0.59935
2580.41921	0.59825
2578.49064	0.59719
2576.56208	0.59649
2574.63351	0.59607
2572.70495	0.59563
2570.77638	0.59522
2568.84782	0.59478
2566.91926	0.59396
2564.99069	0.59270
2563.06213	0.59155
2561.13356	0.59082
2559.20500	0.59027
2557.27643	0.58967
2555.34787	0.58912
2553.41930	0.58865
2551.49074	0.58828
2549.56218	0.58826
2547.63361	0.58841
2545.70505	0.58834
2543.77648	0.58807
2541.84792	0.58794
2539.91935	0.58821
2537.99079	0.58870
2536.06222	0.58894
2534.13366	0.58876
2532.20510	0.58860
2530.27653	0.58884
2528.34797	0.58909
2526.41940	0.58912
2524.49084	0.58903
2522.56227	0.58897
2520.63371	0.58893
2518.70514	0.58853
2516.77658	0.58764
2514.84802	0.58694
2512.91945	0.58689
2510.99089	0.58683
2509.06232	0.58603
2507.13376	0.58468
2505.20519	0.58316
2503.27663	0.58169
2501.34806	0.58046
2499.41950	0.57900
2497.49094	0.57690
2495.56237	0.57475
2493.63381	0.57298
2491.70524	0.57127
2489.77668	0.56949
2487.84811	0.56775
2485.91955	0.56624
2483.99098	0.56483
2482.06242	0.56333
2480.13386	0.56185
2478.20529	0.56042
2476.27673	0.55889
2474.34816	0.55740
2472.41960	0.55616
2470.49103	0.55516
2468.56247	0.55440
2466.63391	0.55398
2464.70534	0.55367
2462.77678	0.55328
2460.84821	0.55319
2458.91965	0.55356
2456.99108	0.55414
2455.06252	0.55466
2453.13395	0.55475
2451.20539	0.55442
2449.27683	0.55401
2447.34826	0.55372
2445.41970	0.55361
2443.49113	0.55355
2441.56257	0.55324
2439.63400	0.55258
2437.70544	0.55168
2435.77687	0.55063
2433.84831	0.54968
2431.91975	0.54887
2429.99118	0.54809
2428.06262	0.54752
2426.13405	0.54728
2424.20549	0.54700
2422.27692	0.54636
2420.34836	0.54548
2418.41979	0.54457
2416.49123	0.54380
2414.56267	0.54325
2412.63410	0.54273
2410.70554	0.54221
2408.77697	0.54186
2406.84841	0.54163
2404.91984	0.54140
2402.99128	0.54111
2401.06271	0.54086
2399.13415	0.54080
2397.20559	0.54077
2395.27702	0.54055
2393.34846	0.54020
2391.41989	0.53980
2389.49133	0.53927
2387.56276	0.53855
2385.63420	0.53754
2383.70563	0.53620
2381.77707	0.53478
2379.84851	0.53357
2377.91994	0.53255
2375.99138	0.53178
2374.06281	0.53171
2372.13425	0.53225
2370.20568	0.53241
2368.27712	0.53157
2366.34855	0.53087
2364.41999	0.53174
2362.49143	0.53317
2360.56286	0.53310
2358.63430	0.53167
2356.70573	0.53087
2354.77717	0.53148
2352.84860	0.53191
2350.92004	0.53006
2348.99147	0.52649
2347.06291	0.52337
2345.13435	0.52247
2343.20578	0.52319
2341.27722	0.52377
2339.34865	0.52448
2337.42009	0.52550
2335.49152	0.52614
2333.56296	0.52620
2331.63440	0.52602
2329.70583	0.52580
2327.77727	0.52600
2325.84870	0.52626
2323.92014	0.52547
2321.99157	0.52435
2320.06301	0.52401
2318.13444	0.52371
2316.20588	0.52292
2314.27732	0.52200
2312.34875	0.52138
2310.42019	0.52114
2308.49162	0.52079
2306.56306	0.52007
2304.63449	0.51941
2302.70593	0.51906
2300.77736	0.51866
2298.84880	0.51794
2296.92024	0.51724
2294.99167	0.51672
2293.06311	0.51623
2291.13454	0.51574
2289.20598	0.51546
2287.27741	0.51533
2285.34885	0.51504
2283.42028	0.51476
2281.49172	0.51470
2279.56316	0.51470
2277.63459	0.51460
2275.70603	0.51433
2273.77746	0.51410
2271.84890	0.51405
2269.92033	0.51402
2267.99177	0.51386
2266.06320	0.51355
2264.13464	0.51331
2262.20608	0.51326
2260.27751	0.51307
2258.34895	0.51272
2256.42038	0.51251
2254.49182	0.51232
2252.56325	0.51199
2250.63469	0.51171
2248.70612	0.51159
2246.77756	0.51147
2244.84900	0.51133
2242.92043	0.51121
2240.99187	0.51099
2239.06330	0.51065
2237.13474	0.51052
2235.20617	0.51059
2233.27761	0.51053
2231.34904	0.51038
2229.42048	0.51013
2227.49192	0.50983
2225.56335	0.50976
2223.63479	0.50991
2221.70622	0.50999
2219.77766	0.50987
2217.84909	0.50967
2215.92053	0.50950
2213.99196	0.50936
2212.06340	0.50907
2210.13484	0.50860
2208.20627	0.50818
2206.27771	0.50797
2204.34914	0.50784
2202.42058	0.50760
2200.49201	0.50710
2198.56345	0.50643
2196.63488	0.50582
2194.70632	0.50545
2192.77776	0.50521
2190.84919	0.50498
2188.92063	0.50464
2186.99206	0.50428
2185.06350	0.50410
2183.13493	0.50421
2181.20637	0.50445
2179.27781	0.50477
2177.34924	0.50537
2175.42068	0.50615
2173.49211	0.50674
2171.56355	0.50716
2169.63498	0.50762
2167.70642	0.50818
2165.77785	0.50875
2163.84929	0.50921
2161.92073	0.50949
2159.99216	0.50956
2158.06360	0.50946
2156.13503	0.50931
2154.20647	0.50913
2152.27790	0.50891
2150.34934	0.50862
2148.42077	0.50828
2146.49221	0.50782
2144.56365	0.50729
2142.63508	0.50668
2140.70652	0.50600
2138.77795	0.50545
2136.84939	0.50512
2134.92082	0.50494
2132.99226	0.50478
2131.06369	0.50462
2129.13513	0.50464
2127.20657	0.50469
2125.27800	0.50462
2123.34944	0.50456
2121.42087	0.50457
2119.49231	0.50457
2117.56374	0.50468
2115.63518	0.50488
2113.70661	0.50490
2111.77805	0.50485
2109.84949	0.50508
2107.92092	0.50543
2105.99236	0.50560
2104.06379	0.50556
2102.13523	0.50522
2100.20666	0.50469
2098.27810	0.50423
2096.34953	0.50381
2094.42097	0.50325
2092.49241	0.50270
2090.56384	0.50228
2088.63528	0.50165
2086.70671	0.50069
2084.77815	0.49959
2082.84958	0.49842
2080.92102	0.49731
2078.99245	0.49645
2077.06389	0.49572
2075.13533	0.49488
2073.20676	0.49391
2071.27820	0.49290
2069.34963	0.49199
2067.42107	0.49132
2065.49250	0.49096
2063.56394	0.49070
2061.63537	0.49027
2059.70681	0.48984
2057.77825	0.48957
2055.84968	0.48940
2053.92112	0.48941
2051.99255	0.48963
2050.06399	0.49002
2048.13542	0.49062
2046.20686	0.49127
2044.27830	0.49167
2042.34973	0.49198
2040.42117	0.49247
2038.49260	0.49289
2036.56404	0.49320
2034.63547	0.49370
2032.70691	0.49433
2030.77834	0.49469
2028.84978	0.49466
2026.92122	0.49464
2024.99265	0.49475
2023.06409	0.49464
2021.13552	0.49418
2019.20696	0.49367
2017.27839	0.49343
2015.34983	0.49318
2013.42126	0.49259
2011.49270	0.49191
2009.56414	0.49143
2007.63557	0.49101
2005.70701	0.49056
2003.77844	0.49022
2001.84988	0.48985
1999.92131	0.48950
1997.99275	0.48934
1996.06418	0.48912
1994.13562	0.48897
1992.20706	0.48942
1990.27849	0.48998
1988.34993	0.49005
1986.42136	0.48992
1984.49280	0.48965
1982.56423	0.48921
1980.63567	0.48887
1978.70710	0.48858
1976.77854	0.48803
1974.84998	0.48730
1972.92141	0.48661
1970.99285	0.48573
1969.06428	0.48485
1967.13572	0.48433
1965.20715	0.48351
1963.27859	0.48223
1961.35002	0.48107
1959.42146	0.48002
1957.49290	0.47881
1955.56433	0.47754
1953.63577	0.47628
1951.70720	0.47517
1949.77864	0.47429
1947.85007	0.47331
1945.92151	0.47206
1943.99294	0.47129
1942.06438	0.47145
1940.13582	0.47139
1938.20725	0.47087
1936.27869	0.47048
1934.35012	0.47033
1932.42156	0.47045
1930.49299	0.47082
1928.56443	0.47119
1926.63586	0.47132
1924.70730	0.47188
1922.77874	0.47334
1920.85017	0.47446
1918.92161	0.47576
1916.99304	0.47825
1915.06448	0.48003
1913.13591	0.48071
1911.20735	0.48180
1909.27878	0.48386
1907.35022	0.48588
1905.42166	0.48721
1903.49309	0.48828
1901.56453	0.48928
1899.63596	0.48996
1897.70740	0.49041
1895.77883	0.49106
1893.85027	0.49145
1891.92171	0.49118
1889.99314	0.49133
1888.06458	0.49176
1886.13601	0.49142
1884.20745	0.49081
1882.27888	0.49031
1880.35032	0.48990
1878.42175	0.48973
1876.49319	0.48957
1874.56463	0.48895
1872.63606	0.48783
1870.70750	0.48722
1868.77893	0.48863
1866.85037	0.49000
1864.92180	0.48928
1862.99324	0.48820
1861.06467	0.48777
1859.13611	0.48754
1857.20755	0.48705
1855.27898	0.48640
1853.35042	0.48561
1851.42185	0.48445
1849.49329	0.48300
1847.56472	0.48140
1845.63616	0.48042
1843.70759	0.48039
1841.77903	0.47897
1839.85047	0.47619
1837.92190	0.47387
1835.99334	0.47214
1834.06477	0.46988
1832.13621	0.46749
1830.20764	0.46631
1828.27908	0.46550
1826.35051	0.46400
1824.42195	0.46291
1822.49339	0.46172
1820.56482	0.45999
1818.63626	0.45870
1816.70769	0.45795
1814.77913	0.45713
1812.85056	0.45653
1810.92200	0.45691
1808.99343	0.45762
1807.06487	0.45783
1805.13631	0.45802
1803.20774	0.45885
1801.27918	0.46106
1799.35061	0.46366
1797.42205	0.46496
1795.49348	0.46557
1793.56492	0.46794
1791.63635	0.47323
1789.70779	0.47659
1787.77923	0.47757
1785.85066	0.47926
1783.92210	0.48180
1781.99353	0.48409
1780.06497	0.48621
1778.13640	0.48751
1776.20784	0.48753
1774.27927	0.48776
1772.35071	0.49000
1770.42215	0.49211
1768.49358	0.49244
1766.56502	0.49217
1764.63645	0.49164
1762.70789	0.49212
1760.77932	0.49382
1758.85076	0.49518
1756.92220	0.49754
1754.99363	0.50031
1753.06507	0.50268
1751.13650	0.50823
1749.20794	0.51806
1747.27937	0.52644
1745.35081	0.53213
1743.42224	0.53728
1741.49368	0.54282
1739.56512	0.54776
1737.63655	0.54944
1735.70799	0.54991
1733.77942	0.55489
1731.85086	0.55957
1729.92229	0.56100
1727.99373	0.56258
1726.06516	0.56456
1724.13660	0.56794
1722.20804	0.57152
1720.27947	0.57432
1718.35091	0.58120
1716.42234	0.59645
1714.49378	0.60843
1712.56521	0.61653
1710.63665	0.62636
1708.70808	0.63934
1706.77952	0.66007
1704.85096	0.68849
1702.92239	0.71398
1700.99383	0.75127
1699.06526	0.81356
1697.13670	0.87236
1695.20813	0.92889
1693.27957	0.97030
1691.35100	1.00296
1689.42244	1.04410
1687.49388	1.08362
1685.56531	1.12490
1683.63675	1.19279
1681.70818	1.24308
1679.77962	1.27069
1677.85105	1.29650
1675.92249	1.32765
1673.99392	1.36101
1672.06536	1.38578
1670.13680	1.41102
1668.20823	1.43734
1666.27967	1.45042
1664.35110	1.46098
1662.42254	1.47577
1660.49397	1.48657
1658.56541	1.49150
1656.63684	1.49386
1654.70828	1.49781
1652.77972	1.50120
1650.85115	1.49561
1648.92259	1.48736
1646.99402	1.48087
1645.06546	1.47995
1643.13689	1.47815
1641.20833	1.47532
1639.27976	1.47083
1637.35120	1.46521
1635.42264	1.45987
1633.49407	1.45156
1631.56551	1.44181
1629.63694	1.43138
1627.70838	1.41954
1625.77981	1.40497
1623.85125	1.38678
1621.92269	1.36672
1619.99412	1.34908
1618.06556	1.32868
1616.13699	1.29957
1614.20843	1.27393
1612.27986	1.25240
1610.35130	1.22996
1608.42273	1.20756
1606.49417	1.18940
1604.56561	1.17773
1602.63704	1.17047
1600.70848	1.16516
1598.77991	1.16142
1596.85135	1.15964
1594.92278	1.15903
1592.99422	1.15918
1591.06565	1.16138
1589.13709	1.16622
1587.20853	1.17294
1585.27996	1.18107
1583.35140	1.19104
1581.42283	1.20171
1579.49427	1.21139
1577.56570	1.22483
1575.63714	1.24703
1573.70857	1.26222
1571.78001	1.27116
1569.85145	1.28648
1567.92288	1.30460
1565.99432	1.31719
1564.06575	1.32762
1562.13719	1.33430
1560.20862	1.34294
1558.28006	1.37128
1556.35149	1.38669
1554.42293	1.38857
1552.49437	1.38848
1550.56580	1.38850
1548.63724	1.38757
1546.70867	1.38377
1544.78011	1.37647
1542.85154	1.36670
1540.92298	1.36089
1538.99441	1.35931
1537.06585	1.35468
1535.13729	1.34822
1533.20872	1.34164
1531.28016	1.33597
1529.35159	1.33102
1527.42303	1.32587
1525.49446	1.32060
1523.56590	1.31713
1521.63733	1.31406
1519.70877	1.30890
1517.78021	1.29980
1515.85164	1.28682
1513.92308	1.27268
1511.99451	1.25734
1510.06595	1.24159
1508.13738	1.21913
1506.20882	1.18008
1504.28025	1.15483
1502.35169	1.13631
1500.42313	1.11539
1498.49456	1.09095
1496.56600	1.06475
1494.63743	1.04366
1492.70887	1.02800
1490.78030	1.01176
1488.85174	0.99297
1486.92317	0.97849
1484.99461	0.96875
1483.06605	0.96182
1481.13748	0.95804
1479.20892	0.95817
1477.28035	0.96248
1475.35179	0.97198
1473.42322	0.99116
1471.49466	1.01515
1469.56610	1.02865
1467.63753	1.03686
1465.70897	1.04868
1463.78040	1.06319
1461.85184	1.07105
1459.92327	1.07476
1457.99471	1.08558
1456.06614	1.10311
1454.13758	1.10870
1452.20902	1.10909
1450.28045	1.10871
1448.35189	1.10800
1446.42332	1.10577
1444.49476	1.10078
1442.56619	1.09360
1440.63763	1.08600
1438.70906	1.07846
1436.78050	1.06833
1434.85194	1.05530
1432.92337	1.04296
1430.99481	1.03101
1429.06624	1.01947
1427.13768	1.00968
1425.20911	1.00160
1423.28055	0.99578
1421.35198	0.99308
1419.42342	0.99409
1417.49486	0.99691
1415.56629	0.99697
1413.63773	0.99507
1411.70916	0.99270
1409.78060	0.99064
1407.85203	0.98983
1405.92347	0.99165
1403.99490	0.99546
1402.06634	0.99856
1400.13778	1.00210
1398.20921	1.00764
1396.28065	1.01412
1394.35208	1.02133
1392.42352	1.02798
1390.49495	1.03427
1388.56639	1.04528
1386.63782	1.06443
1384.70926	1.08422
1382.78070	1.10030
1380.85213	1.11293
1378.92357	1.11935
1376.99500	1.11795
1375.06644	1.10796
1373.13787	1.09024
1371.20931	1.06984
1369.28074	1.04687
1367.35218	1.02186
1365.42362	0.99868
1363.49505	0.97650
1361.56649	0.95641
1359.63792	0.94212
1357.70936	0.93228
1355.78079	0.92549
1353.85223	0.92150
1351.92366	0.91913
1349.99510	0.91728
1348.06654	0.91629
1346.13797	0.91680
1344.20941	0.91834
1342.28084	0.92047
1340.35228	0.92465
1338.42371	0.93224
1336.49515	0.94179
1334.56659	0.95281
1332.63802	0.96601
1330.70946	0.98072
1328.78089	0.99443
1326.85233	1.00489
1324.92376	1.01208
1322.99520	1.01715
1321.06663	1.02146
1319.13807	1.02648
1317.20951	1.03199
1315.28094	1.03632
1313.35238	1.03923
1311.42381	1.04095
1309.49525	1.04133
1307.56668	1.04019
1305.63812	1.03746
1303.70955	1.03378
1301.78099	1.02965
1299.85243	1.02466
1297.92386	1.01870
1295.99530	1.01243
1294.06673	1.00687
1292.13817	1.00303
1290.20960	1.00150
1288.28104	1.00208
1286.35247	1.00395
1284.42391	1.00591
1282.49535	1.00780
1280.56678	1.01063
1278.63822	1.01484
1276.70965	1.01987
1274.78109	1.02568
1272.85252	1.03321
1270.92396	1.04284
1268.99539	1.05359
1267.06683	1.06407
1265.13827	1.07288
1263.20970	1.07907
1261.28114	1.08270
1259.35257	1.08425
1257.42401	1.08423
1255.49544	1.08330
1253.56688	1.08182
1251.63831	1.07987
1249.70975	1.07778
1247.78119	1.07536
1245.85262	1.07200
1243.92406	1.06833
1241.99549	1.06517
1240.06693	1.06175
1238.13836	1.05722
1236.20980	1.05146
1234.28123	1.04408
1232.35267	1.03537
1230.42411	1.02636
1228.49554	1.01671
1226.56698	1.00601
1224.63841	0.99536
1222.70985	0.98537
1220.78128	0.97586
1218.85272	0.96733
1216.92415	0.96061
1214.99559	0.95651
1213.06703	0.95575
1211.13846	0.95831
1209.20990	0.96284
1207.28133	0.96688
1205.35277	0.96739
1203.42420	0.96292
1201.49564	0.95492
1199.56708	0.94546
1197.63851	0.93564
1195.70995	0.92610
1193.78138	0.91732
1191.85282	0.91004
1189.92425	0.90476
1187.99569	0.90114
1186.06712	0.89856
1184.13856	0.89695
1182.21000	0.89705
1180.28143	0.89973
1178.35287	0.90518
1176.42430	0.91290
1174.49574	0.92209
1172.56717	0.93213
1170.63861	0.94364
1168.71004	0.95790
1166.78148	0.97512
1164.85292	0.99377
1162.92435	1.01043
1160.99579	1.02146
1159.06722	1.02539
1157.13866	1.02230
1155.21009	1.01288
1153.28153	0.99869
1151.35296	0.98130
1149.42440	0.96226
1147.49584	0.94384
1145.56727	0.92856
1143.63871	0.91819
1141.71014	0.91354
1139.78158	0.91442
1137.85301	0.91918
1135.92445	0.92613
1133.99588	0.93594
1132.06732	0.95011
1130.13876	0.96858
1128.21019	0.99024
1126.28163	1.01309
1124.35306	1.03401
1122.42450	1.05098
1120.49593	1.06405
1118.56737	1.07268
1116.63880	1.07536
1114.71024	1.07217
1112.78168	1.06497
1110.85311	1.05542
1108.92455	1.04442
1106.99598	1.03336
1105.06742	1.02369
1103.13885	1.01640
1101.21029	1.01199
1099.28172	1.01083
1097.35316	1.01377
1095.42460	1.02101
1093.49603	1.03194
1091.56747	1.04590
1089.63890	1.06223
1087.71034	1.08065
1085.78177	1.10102
1083.85321	1.12318
1081.92464	1.14507
1079.99608	1.16179
1078.06752	1.17059
1076.13895	1.17295
1074.21039	1.17052
1072.28182	1.16436
1070.35326	1.15541
1068.42469	1.14438
1066.49613	1.13265
1064.56756	1.12014
1062.63900	1.10538
1060.71044	1.08850
1058.78187	1.07074
1056.85331	1.05376
1054.92474	1.03963
1052.99618	1.02920
1051.06761	1.02163
1049.13905	1.01635
1047.21049	1.01467
1045.28192	1.01822
1043.35336	1.02714
1041.42479	1.03883
1039.49623	1.04971
1037.56766	1.05896
1035.63910	1.06690
1033.71053	1.07267
1031.78197	1.07532
1029.85341	1.07395
1027.92484	1.06882
1025.99628	1.06101
1024.06771	1.05115
1022.13915	1.04090
1020.21058	1.03198
1018.28202	1.02397
1016.35345	1.01555
1014.42489	1.00513
1012.49633	0.99079
1010.56776	0.97169
1008.63920	0.94842
1006.71063	0.92268
1004.78207	0.89687
1002.85350	0.87279
1000.92494	0.85134
998.99637	0.83335
997.06781	0.81928
995.13925	0.80830
993.21068	0.79835
991.28212	0.78824
989.35355	0.77867
987.42499	0.77073
985.49642	0.76500
983.56786	0.76171
981.63929	0.76059
979.71073	0.76122
977.78217	0.76250
975.85360	0.76251
973.92504	0.75971
971.99647	0.75393
970.06791	0.74608
968.13934	0.73698
966.21078	0.72785
964.28221	0.72106
962.35365	0.71843
960.42509	0.72064
958.49652	0.72762
956.56796	0.73618
954.63939	0.74000
952.71083	0.73551
950.78226	0.72410
948.85370	0.70911
946.92513	0.69386
944.99657	0.68086
943.06801	0.67092
941.13944	0.66352
939.21088	0.65794
937.28231	0.65393
935.35375	0.65148
933.42518	0.65037
931.49662	0.65053
929.56805	0.65206
927.63949	0.65509
925.71093	0.65968
923.78236	0.66543
921.85380	0.67149
919.92523	0.67714
917.99667	0.68223
916.06810	0.68692
914.13954	0.69165
912.21098	0.69709
910.28241	0.70347
908.35385	0.71044
906.42528	0.71756
904.49672	0.72469
902.56815	0.73123
900.63959	0.73618
898.71102	0.73908
896.78246	0.73966
894.85390	0.73765
892.92533	0.73343
890.99677	0.72763
889.06820	0.72085
887.13964	0.71377
885.21107	0.70687
883.28251	0.70033
881.35394	0.69451
879.42538	0.69001
877.49682	0.68690
875.56825	0.68492
873.63969	0.68404
871.71112	0.68418
869.78256	0.68513
867.85399	0.68721
865.92543	0.69062
863.99686	0.69501
862.06830	0.70038
860.13974	0.70679
858.21117	0.71368
856.28261	0.72066
854.35404	0.72773
852.42548	0.73412
850.49691	0.73868
848.56835	0.74137
846.63978	0.74277
844.71122	0.74294
842.78266	0.74166
840.85409	0.73946
838.92553	0.73696
836.99696	0.73369
835.06840	0.72936
833.13983	0.72448
831.21127	0.71907
829.28270	0.71331
827.35414	0.70819
825.42558	0.70386
823.49701	0.69950
821.56845	0.69505
819.63988	0.69090
817.71132	0.68749
815.78275	0.68550
813.85419	0.68504
811.92562	0.68580
809.99706	0.68775
808.06850	0.69104
806.13993	0.69590
804.21137	0.70239
802.28280	0.71006
800.35424	0.71851
798.42567	0.72833
796.49711	0.73990
794.56854	0.75248
792.63998	0.76558
790.71142	0.77914
788.78285	0.79273
786.85429	0.80561
784.92572	0.81725
782.99716	0.82743
781.06859	0.83597
779.14003	0.84248
777.21147	0.84631
775.28290	0.84788
773.35434	0.84787
771.42577	0.84574
769.49721	0.84192
767.56864	0.83810
765.64008	0.83455
763.71151	0.83025
761.78295	0.82544
759.85439	0.82138
757.92582	0.81801
755.99726	0.81462
754.06869	0.81180
752.14013	0.81075
750.21156	0.81148
748.28300	0.81280
746.35443	0.81436
744.42587	0.81682
742.49731	0.81987
740.56874	0.82265
738.64018	0.82493
736.71161	0.82688
734.78305	0.82897
732.85448	0.83146
730.92592	0.83311
728.99735	0.83255
727.06879	0.83083
725.14023	0.82886
723.21166	0.82577
721.28310	0.82102
719.35453	0.81480
717.42597	0.80766
715.49740	0.80041
713.56884	0.79361
711.64027	0.78731
709.71171	0.78125
707.78315	0.77533
705.85458	0.76958
703.92602	0.76433
701.99745	0.76029
700.06889	0.75733
698.14032	0.75484
696.21176	0.75282
694.28319	0.75110
692.35463	0.74982
690.42607	0.75021
688.49750	0.75220
686.56894	0.75419
684.64037	0.75632
682.71181	0.76020
680.78324	0.76606
678.85468	0.77356
676.92611	0.78354
674.99755	0.79527
673.06899	0.80597
671.14042	0.81532
669.21186	0.83066
667.28329	0.85383
665.35473	0.86794
663.42616	0.87749
661.49760	0.88762
659.56903	0.89674
657.64047	0.90346
655.71191	0.90753
653.78334	0.90932
651.85478	0.90841
649.92621	0.90539
647.99765	0.90187
646.06908	0.89736
644.14052	0.89115
642.21195	0.88452
640.28339	0.87916
638.35483	0.87516
636.42626	0.87070
634.49770	0.86507
632.56913	0.86031
630.64057	0.85730
628.71200	0.85519
626.78344	0.85481
624.85488	0.85738
622.92631	0.86221
620.99775	0.86789
619.06918	0.87315
617.14062	0.87766
615.21205	0.88157
613.28349	0.88468
611.35492	0.88691
609.42636	0.88719
607.49780	0.88442
605.56923	0.87929
603.64067	0.87238
601.71210	0.86347
599.78354	0.85226
