3997.91406	0.53673
3995.98550	0.53495
3994.05693	0.53413
3992.12837	0.53437
3990.19980	0.53535
3988.27124	0.53660
3986.34268	0.53696
3984.41411	0.53621
3982.48555	0.53543
3980.55698	0.53517
3978.62842	0.53492
3976.69985	0.53477
3974.77129	0.53485
3972.84272	0.53469
3970.91416	0.53488
3968.98560	0.53598
3967.05703	0.53700
3965.12847	0.53679
3963.19990	0.53566
3961.27134	0.53456
3959.34277	0.53384
3957.41421	0.53368
3955.48564	0.53328
3953.55708	0.53200
3951.62852	0.53106
3949.69995	0.53217
3947.77139	0.53397
3945.84282	0.53349
3943.91426	0.53311
3941.98569	0.53462
3940.05713	0.53446
3938.12856	0.53218
3936.20000	0.52905
3934.27144	0.52653
3932.34287	0.52799
3930.41431	0.53139
3928.48574	0.53047
3926.55718	0.52712
3924.62861	0.52621
3922.70005	0.52610
3920.77148	0.52468
3918.84292	0.52536
3916.91436	0.52928
3914.98579	0.53180
3913.05723	0.53149
3911.12866	0.52997
3909.20010	0.52592
3907.27153	0.51902
3905.34297	0.51456
3903.41440	0.51638
3901.48584	0.51994
3899.55728	0.52448
3897.62871	0.52683
3895.70015	0.52306
3893.77158	0.51883
3891.84302	0.52200
3889.91445	0.52421
3887.98589	0.51874
3886.05733	0.51600
3884.12876	0.51849
3882.20020	0.51867
3880.27163	0.52045
3878.34307	0.52056
3876.41450	0.51650
3874.48594	0.51327
3872.55737	0.51152
3870.62881	0.51461
3868.70025	0.51925
3866.77168	0.51615
3864.84312	0.51388
3862.91455	0.51710
3860.98599	0.51623
3859.05742	0.50987
3857.12886	0.50035
3855.20029	0.49291
3853.27173	0.50604
3851.34317	0.51930
3849.41460	0.51570
3847.48604	0.50854
3845.55747	0.50333
3843.62891	0.50103
3841.70034	0.49959
3839.77178	0.49972
3837.84321	0.50519
3835.91465	0.50954
3833.98609	0.51036
3832.05752	0.51115
3830.12896	0.51029
3828.20039	0.50806
3826.27183	0.50680
3824.34326	0.50303
3822.41470	0.50089
3820.48613	0.50791
3818.55757	0.50950
3816.62901	0.51013
3814.70044	0.51431
3812.77188	0.51141
3810.84331	0.50362
3808.91475	0.49824
3806.98618	0.49991
3805.05762	0.49979
3803.12905	0.49764
3801.20049	0.50451
3799.27193	0.50768
3797.34336	0.50608
3795.41480	0.50749
3793.48623	0.50699
3791.55767	0.50466
3789.62910	0.50283
3787.70054	0.50074
3785.77197	0.50004
3783.84341	0.49992
3781.91485	0.49748
3779.98628	0.49765
3778.05772	0.50151
3776.12915	0.50131
3774.20059	0.49676
3772.27202	0.49235
3770.34346	0.49300
3768.41489	0.49629
3766.48633	0.49785
3764.55777	0.49814
3762.62920	0.49422
3760.70064	0.48907
3758.77207	0.48948
3756.84351	0.48979
3754.91494	0.48409
3752.98638	0.47765
3751.05781	0.48279
3749.12925	0.49057
3747.20069	0.48736
3745.27212	0.48842
3743.34356	0.49589
3741.41499	0.49352
3739.48643	0.48409
3737.55786	0.47527
3735.62930	0.47680
3733.70074	0.48999
3731.77217	0.49792
3729.84361	0.49630
3727.91504	0.49133
3725.98648	0.48976
3724.05791	0.49259
3722.12935	0.49584
3720.20078	0.49738
3718.27222	0.49594
3716.34366	0.49093
3714.41509	0.48383
3712.48653	0.48248
3710.55796	0.49149
3708.62940	0.49490
3706.70083	0.49117
3704.77227	0.48610
3702.84370	0.48461
3700.91514	0.48735
3698.98658	0.48753
3697.05801	0.48503
3695.12945	0.48192
3693.20088	0.47758
3691.27232	0.47558
3689.34375	0.48574
3687.41519	0.49704
3685.48662	0.49792
3683.55806	0.49411
3681.62950	0.48979
3679.70093	0.48548
3677.77237	0.48200
3675.84380	0.49071
3673.91524	0.50163
3671.98667	0.50059
3670.05811	0.50708
3668.12954	0.51804
3666.20098	0.51917
3664.27242	0.51774
3662.34385	0.51783
3660.41529	0.51767
3658.48672	0.51777
3656.55816	0.52293
3654.62959	0.52599
3652.70103	0.51956
3650.77246	0.51520
3648.84390	0.53320
3646.91534	0.54923
3644.98677	0.55149
3643.05821	0.55271
3641.12964	0.55582
3639.20108	0.55856
3637.27251	0.56024
3635.34395	0.56234
3633.41538	0.56412
3631.48682	0.56426
3629.55826	0.57288
3627.62969	0.58952
3625.70113	0.59198
3623.77256	0.58697
3621.84400	0.58333
3619.91543	0.58870
3617.98687	0.59879
3616.05830	0.60083
3614.12974	0.60128
3612.20118	0.60403
3610.27261	0.60703
3608.34405	0.61436
3606.41548	0.62233
3604.48692	0.62447
3602.55835	0.62577
3600.62979	0.63071
3598.70123	0.63657
3596.77266	0.64225
3594.84410	0.64950
3592.91553	0.65354
3590.98697	0.65213
3589.05840	0.65383
3587.12984	0.66635
3585.20127	0.67715
3583.27271	0.68073
3581.34415	0.68445
3579.41558	0.69103
3577.48702	0.69735
3575.55845	0.70180
3573.62989	0.70551
3571.70132	0.70693
3569.77276	0.70612
3567.84419	0.71159
3565.91563	0.72442
3563.98707	0.72895
3562.05850	0.72963
3560.12994	0.73369
3558.20137	0.73822
3556.27281	0.74068
3554.34424	0.74444
3552.41568	0.75138
3550.48711	0.75623
3548.55855	0.75772
3546.62999	0.76257
3544.70142	0.77207
3542.77286	0.77956
3540.84429	0.78389
3538.91573	0.78796
3536.98716	0.79396
3535.05860	0.80057
3533.13003	0.80564
3531.20147	0.81106
3529.27291	0.81814
3527.34434	0.82478
3525.41578	0.83095
3523.48721	0.83883
3521.55865	0.84656
3519.63008	0.85158
3517.70152	0.85555
3515.77295	0.86025
3513.84439	0.86622
3511.91583	0.87332
3509.98726	0.88077
3508.05870	0.88800
3506.13013	0.89484
3504.20157	0.90299
3502.27300	0.91298
3500.34444	0.92140
3498.41587	0.92682
3496.48731	0.93277
3494.55875	0.94318
3492.63018	0.95519
3490.70162	0.96410
3488.77305	0.96909
3486.84449	0.97145
3484.91592	0.97369
3482.98736	0.97829
3481.05879	0.98502
3479.13023	0.99001
3477.20167	0.99163
3475.27310	0.99220
3473.34454	0.99401
3471.41597	0.99734
3469.48741	1.00141
3467.55884	1.00571
3465.63028	1.00988
3463.70171	1.01390
3461.77315	1.01843
3459.84459	1.02309
3457.91602	1.02590
3455.98746	1.02722
3454.05889	1.03094
3452.13033	1.03655
3450.20176	1.03856
3448.27320	1.03785
3446.34464	1.04083
3444.41607	1.04758
3442.48751	1.05427
3440.55894	1.05899
3438.63038	1.06156
3436.70181	1.06343
3434.77325	1.06419
3432.84468	1.06288
3430.91612	1.06254
3428.98756	1.06512
3427.05899	1.06689
3425.13043	1.06675
3423.20186	1.06795
3421.27330	1.06941
3419.34473	1.06843
3417.41617	1.06650
3415.48760	1.06527
3413.55904	1.06494
3411.63048	1.06478
3409.70191	1.06383
3407.77335	1.06204
3405.84478	1.06048
3403.91622	1.06221
3401.98765	1.06662
3400.05909	1.06799
3398.13052	1.06778
3396.20196	1.07216
3394.27340	1.07920
3392.34483	1.08164
3390.41627	1.07728
3388.48770	1.07251
3386.55914	1.07223
3384.63057	1.07408
3382.70201	1.07539
3380.77344	1.07809
3378.84488	1.08342
3376.91632	1.08878
3374.98775	1.09235
3373.05919	1.09367
3371.13062	1.09221
3369.20206	1.09011
3367.27349	1.08961
3365.34493	1.09115
3363.41636	1.09459
3361.48780	1.09865
3359.55924	1.10235
3357.63067	1.10563
3355.70211	1.10778
3353.77354	1.10913
3351.84498	1.11143
3349.91641	1.11507
3347.98785	1.11931
3346.05928	1.12354
3344.13072	1.12735
3342.20216	1.13017
3340.27359	1.13334
3338.34503	1.13975
3336.41646	1.14703
3334.48790	1.15034
3332.55933	1.15111
3330.63077	1.15233
3328.70220	1.15464
3326.77364	1.15919
3324.84508	1.16684
3322.91651	1.17539
3320.98795	1.18133
3319.05938	1.18484
3317.13082	1.18723
3315.20225	1.18929
3313.27369	1.19381
3311.34513	1.20061
3309.41656	1.20615
3307.48800	1.20960
3305.55943	1.21185
3303.63087	1.21341
3301.70230	1.21556
3299.77374	1.21798
3297.84517	1.21914
3295.91661	1.22057
3293.98805	1.22304
3292.05948	1.22533
3290.13092	1.22908
3288.20235	1.23355
3286.27379	1.23458
3284.34522	1.23219
3282.41666	1.22992
3280.48809	1.22898
3278.55953	1.22761
3276.63097	1.22514
3274.70240	1.22208
3272.77384	1.21774
3270.84527	1.21244
3268.91671	1.20718
3266.98814	1.20055
3265.05958	1.19134
3263.13101	1.18232
3261.20245	1.17707
3259.27389	1.17424
3257.34532	1.16873
3255.41676	1.15895
3253.48819	1.14798
3251.55963	1.13850
3249.63106	1.13059
3247.70250	1.12205
3245.77393	1.11247
3243.84537	1.10498
3241.91681	1.10039
3239.98824	1.09645
3238.05968	1.09094
3236.13111	1.08318
3234.20255	1.07609
3232.27398	1.07231
3230.34542	1.07006
3228.41685	1.06634
3226.48829	1.06102
3224.55973	1.05665
3222.63116	1.05494
3220.70260	1.05382
3218.77403	1.04923
3216.84547	1.04133
3214.91690	1.03444
3212.98834	1.03035
3211.05977	1.02689
3209.13121	1.02276
3207.20265	1.01870
3205.27408	1.01464
3203.34552	1.01080
3201.41695	1.00785
3199.48839	1.00511
3197.55982	1.00271
3195.63126	1.00104
3193.70269	0.99902
3191.77413	0.99591
3189.84557	0.99187
3187.91700	0.98758
3185.98844	0.98357
3184.05987	0.97986
3182.13131	0.97593
3180.20274	0.97172
3178.27418	0.96824
3176.34562	0.96519
3174.41705	0.96143
3172.48849	0.95761
3170.55992	0.95422
3168.63136	0.95036
3166.70279	0.94652
3164.77423	0.94336
3162.84566	0.93971
3160.91710	0.93639
3158.98854	0.93495
3157.05997	0.93344
3155.13141	0.93037
3153.20284	0.92740
3151.27428	0.92555
3149.34571	0.92451
3147.41715	0.92382
3145.48858	0.92198
3143.56002	0.91804
3141.63146	0.91421
3139.70289	0.91304
3137.77433	0.91388
3135.84576	0.91491
3133.91720	0.91493
3131.98863	0.91367
3130.06007	0.91288
3128.13150	0.91375
3126.20294	0.91453
3124.27438	0.91378
3122.34581	0.91250
3120.41725	0.91224
3118.48868	0.91313
3116.56012	0.91387
3114.63155	0.91392
3112.70299	0.91361
3110.77442	0.91245
3108.84586	0.91097
3106.91730	0.91078
3104.98873	0.91174
3103.06017	0.91282
3101.13160	0.91368
3099.20304	0.91375
3097.27447	0.91238
3095.34591	0.91019
3093.41734	0.90824
3091.48878	0.90639
3089.56022	0.90479
3087.63165	0.90407
3085.70309	0.90358
3083.77452	0.90233
3081.84596	0.90027
3079.91739	0.89803
3077.98883	0.89595
3076.06026	0.89367
3074.13170	0.89109
3072.20314	0.88893
3070.27457	0.88720
3068.34601	0.88502
3066.41744	0.88249
3064.48888	0.88023
3062.56031	0.87874
3060.63175	0.87793
3058.70318	0.87633
3056.77462	0.87396
3054.84606	0.87225
3052.91749	0.87074
3050.98893	0.86902
3049.06036	0.86734
3047.13180	0.86465
3045.20323	0.86051
3043.27467	0.85647
3041.34610	0.85312
3039.41754	0.84973
3037.48898	0.84671
3035.56041	0.84428
3033.63185	0.84137
3031.70328	0.83844
3029.77472	0.83622
3027.84615	0.83398
3025.91759	0.83196
3023.98903	0.83060
3022.06046	0.82854
3020.13190	0.82515
3018.20333	0.82218
3016.27477	0.82086
3014.34620	0.82044
3012.41764	0.82017
3010.48907	0.82005
3008.56051	0.81990
3006.63195	0.81932
3004.70338	0.81846
3002.77482	0.81834
3000.84625	0.81882
2998.91769	0.81903
2996.98912	0.81951
2995.06056	0.82055
2993.13199	0.82217
2991.20343	0.82486
2989.27487	0.82811
2987.34630	0.83142
2985.41774	0.83537
2983.48917	0.84035
2981.56061	0.84615
2979.63204	0.85271
2977.70348	0.85970
2975.77491	0.86583
2973.84635	0.87122
2971.91779	0.87726
2969.98922	0.88406
2968.06066	0.89133
2966.13209	0.89854
2964.20353	0.90429
2962.27496	0.90808
2960.34640	0.90966
2958.41783	0.90839
2956.48927	0.90470
2954.56071	0.89913
2952.63214	0.89235
2950.70358	0.88659
2948.77501	0.88374
2946.84645	0.88402
2944.91788	0.88750
2942.98932	0.89388
2941.06075	0.90141
2939.13219	0.90922
2937.20363	0.91744
2935.27506	0.92534
2933.34650	0.93263
2931.41793	0.93994
2929.48937	0.94703
2927.56080	0.95365
2925.63224	0.96081
2923.70367	0.96817
2921.77511	0.97301
2919.84655	0.97360
2917.91798	0.96932
2915.98942	0.95888
2914.06085	0.94183
2912.13229	0.92164
2910.20372	0.90397
2908.27516	0.89156
2906.34659	0.88256
2904.41803	0.87444
2902.48947	0.86768
2900.56090	0.86294
2898.63234	0.85911
2896.70377	0.85604
2894.77521	0.85388
2892.84664	0.85134
2890.91808	0.84778
2888.98952	0.84407
2887.06095	0.84050
2885.13239	0.83709
2883.20382	0.83493
2881.27526	0.83468
2879.34669	0.83550
2877.41813	0.83624
2875.48956	0.83607
2873.56100	0.83462
2871.63244	0.83198
2869.70387	0.82810
2867.77531	0.82297
2865.84674	0.81754
2863.91818	0.81388
2861.98961	0.81368
2860.06105	0.81670
2858.13248	0.82204
2856.20392	0.82905
2854.27536	0.83714
2852.34679	0.84597
2850.41823	0.85112
2848.48966	0.84325
2846.56110	0.82125
2844.63253	0.79626
2842.70397	0.77633
2840.77540	0.76141
2838.84684	0.74995
2836.91828	0.74139
2834.98971	0.73481
2833.06115	0.72886
2831.13258	0.72324
2829.20402	0.71860
2827.27545	0.71480
2825.34689	0.71156
2823.41832	0.70910
2821.48976	0.70703
2819.56120	0.70449
2817.63263	0.70146
2815.70407	0.69873
2813.77550	0.69636
2811.84694	0.69414
2809.91837	0.69262
2807.98981	0.69168
2806.06124	0.69039
2804.13268	0.68840
2802.20412	0.68602
2800.27555	0.68375
2798.34699	0.68176
2796.41842	0.67989
2794.48986	0.67814
2792.56129	0.67619
2790.63273	0.67397
2788.70416	0.67200
2786.77560	0.67031
2784.84704	0.66862
2782.91847	0.66692
2780.98991	0.66523
2779.06134	0.66382
2777.13278	0.66292
2775.20421	0.66218
2773.27565	0.66113
2771.34708	0.65977
2769.41852	0.65866
2767.48996	0.65827
2765.56139	0.65801
2763.63283	0.65717
2761.70426	0.65623
2759.77570	0.65517
2757.84713	0.65370
2755.91857	0.65244
2753.99001	0.65164
2752.06144	0.65073
2750.13288	0.64938
2748.20431	0.64769
2746.27575	0.64603
2744.34718	0.64454
2742.41862	0.64309
2740.49005	0.64166
2738.56149	0.64020
2736.63293	0.63845
2734.70436	0.63653
2732.77580	0.63487
2730.84723	0.63345
2728.91867	0.63214
2726.99010	0.63117
2725.06154	0.63047
2723.13297	0.62980
2721.20441	0.62915
2719.27585	0.62833
2717.34728	0.62741
2715.41872	0.62662
2713.49015	0.62582
2711.56159	0.62492
2709.63302	0.62420
2707.70446	0.62366
2705.77589	0.62299
2703.84733	0.62189
2701.91877	0.62042
2699.99020	0.61931
2698.06164	0.61874
2696.13307	0.61810
2694.20451	0.61734
2692.27594	0.61648
2690.34738	0.61537
2688.41881	0.61407
2686.49025	0.61257
2684.56169	0.61096
2682.63312	0.60930
2680.70456	0.60766
2678.77599	0.60626
2676.84743	0.60514
2674.91886	0.60384
2672.99030	0.60214
2671.06173	0.60075
2669.13317	0.59988
2667.20461	0.59872
2665.27604	0.59716
2663.34748	0.59566
2661.41891	0.59444
2659.49035	0.59372
2657.56178	0.59325
2655.63322	0.59244
2653.70465	0.59149
2651.77609	0.59101
2649.84753	0.59083
2647.91896	0.59079
2645.99040	0.59107
2644.06183	0.59136
2642.13327	0.59123
2640.20470	0.59099
2638.27614	0.59087
2636.34757	0.59068
2634.41901	0.59040
2632.49045	0.59045
2630.56188	0.59084
2628.63332	0.59111
2626.70475	0.59105
2624.77619	0.59082
2622.84762	0.59079
2620.91906	0.59102
2618.99049	0.59123
2617.06193	0.59119
2615.13337	0.59068
2613.20480	0.58983
2611.27624	0.58903
2609.34767	0.58844
2607.41911	0.58789
2605.49054	0.58697
2603.56198	0.58571
2601.63342	0.58448
2599.70485	0.58343
2597.77629	0.58241
2595.84772	0.58108
2593.91916	0.57957
2591.99059	0.57845
2590.06203	0.57762
2588.13346	0.57643
2586.20490	0.57489
2584.27634	0.57347
2582.34777	0.57239
2580.41921	0.57157
2578.49064	0.57073
2576.56208	0.56976
2574.63351	0.56883
2572.70495	0.56805
2570.77638	0.56754
2568.84782	0.56743
2566.91926	0.56736
2564.99069	0.56693
2563.06213	0.56641
2561.13356	0.56590
2559.20500	0.56525
2557.27643	0.56468
2555.34787	0.56415
2553.41930	0.56346
2551.49074	0.56272
2549.56218	0.56203
2547.63361	0.56139
2545.70505	0.56069
2543.77648	0.55983
2541.84792	0.55903
2539.91935	0.55827
2537.99079	0.55724
2536.06222	0.55620
2534.13366	0.55549
2532.20510	0.55485
2530.27653	0.55397
2528.34797	0.55288
2526.41940	0.55171
2524.49084	0.55062
2522.56227	0.54977
2520.63371	0.54910
2518.70514	0.54822
2516.77658	0.54708
2514.84802	0.54607
2512.91945	0.54538
2510.99089	0.54480
2509.06232	0.54403
2507.13376	0.54293
2505.20519	0.54161
2503.27663	0.54057
2501.34806	0.54002
2499.41950	0.53935
2497.49094	0.53832
2495.56237	0.53744
2493.63381	0.53679
2491.70524	0.53619
2489.77668	0.53568
2487.84811	0.53520
2485.91955	0.53468
2483.99098	0.53441
2482.06242	0.53434
2480.13386	0.53413
2478.20529	0.53384
2476.27673	0.53356
2474.34816	0.53313
2472.41960	0.53259
2470.49103	0.53218
2468.56247	0.53193
2466.63391	0.53162
2464.70534	0.53118
2462.77678	0.53063
2460.84821	0.52994
2458.91965	0.52917
2456.99108	0.52839
2455.06252	0.52740
2453.13395	0.52623
2451.20539	0.52518
2449.27683	0.52411
2447.34826	0.52280
2445.41970	0.52153
2443.49113	0.52052
2441.56257	0.51958
2439.63400	0.51857
2437.70544	0.51753
2435.77687	0.51661
2433.84831	0.51566
2431.91975	0.51445
2429.99118	0.51321
2428.06262	0.51230
2426.13405	0.51168
2424.20549	0.51113
2422.27692	0.51059
2420.34836	0.51013
2418.41979	0.50950
2416.49123	0.50855
2414.56267	0.50769
2412.63410	0.50714
2410.70554	0.50664
2408.77697	0.50600
2406.84841	0.50505
2404.91984	0.50385
2402.99128	0.50268
2401.06271	0.50180
2399.13415	0.50122
2397.20559	0.50071
2395.27702	0.50002
2393.34846	0.49924
2391.41989	0.49844
2389.49133	0.49775
2387.56276	0.49736
2385.63420	0.49672
2383.70563	0.49546
2381.77707	0.49412
2379.84851	0.49314
2377.91994	0.49225
2375.99138	0.49118
2374.06281	0.49007
2372.13425	0.48940
2370.20568	0.48968
2368.27712	0.49085
2366.34855	0.49140
2364.41999	0.49002
2362.49143	0.48895
2360.56286	0.48941
2358.63430	0.48891
2356.70573	0.48788
2354.77717	0.48753
2352.84860	0.48669
2350.92004	0.48455
2348.99147	0.48123
2347.06291	0.47779
2345.13435	0.47602
2343.20578	0.47660
2341.27722	0.47813
2339.34865	0.47992
2337.42009	0.48161
2335.49152	0.48278
2333.56296	0.48384
2331.63440	0.48534
2329.70583	0.48653
2327.77727	0.48668
2325.84870	0.48596
2323.92014	0.48503
2321.99157	0.48469
2320.06301	0.48444
2318.13444	0.48325
2316.20588	0.48161
2314.27732	0.48033
2312.34875	0.47923
2310.42019	0.47811
2308.49162	0.47712
2306.56306	0.47614
2304.63449	0.47495
2302.70593	0.47394
2300.77736	0.47345
2298.84880	0.47304
2296.92024	0.47247
2294.99167	0.47221
2293.06311	0.47227
2291.13454	0.47221
2289.20598	0.47200
2287.27741	0.47183
2285.34885	0.47167
2283.42028	0.47144
2281.49172	0.47110
2279.56316	0.47071
2277.63459	0.47025
2275.70603	0.46966
2273.77746	0.46874
2271.84890	0.46746
2269.92033	0.46609
2267.99177	0.46497
2266.06320	0.46398
2264.13464	0.46284
2262.20608	0.46148
2260.27751	0.46007
2258.34895	0.45884
2256.42038	0.45790
2254.49182	0.45716
2252.56325	0.45658
2250.63469	0.45623
2248.70612	0.45599
2246.77756	0.45562
2244.84900	0.45533
2242.92043	0.45538
2240.99187	0.45558
2239.06330	0.45581
2237.13474	0.45614
2235.20617	0.45653
2233.27761	0.45691
2231.34904	0.45724
2229.42048	0.45743
2227.49192	0.45755
2225.56335	0.45779
2223.63479	0.45800
2221.70622	0.45793
2219.77766	0.45774
2217.84909	0.45751
2215.92053	0.45707
2213.99196	0.45631
2212.06340	0.45557
2210.13484	0.45517
2208.20627	0.45489
2206.27771	0.45441
2204.34914	0.45374
2202.42058	0.45322
2200.49201	0.45313
2198.56345	0.45319
2196.63488	0.45302
2194.70632	0.45266
2192.77776	0.45244
2190.84919	0.45249
2188.92063	0.45255
2186.99206	0.45235
2185.06350	0.45204
2183.13493	0.45169
2181.20637	0.45119
2179.27781	0.45052
2177.34924	0.44981
2175.42068	0.44906
2173.49211	0.44818
2171.56355	0.44718
2169.63498	0.44608
2167.70642	0.44503
2165.77785	0.44417
2163.84929	0.44348
2161.92073	0.44288
2159.99216	0.44234
2158.06360	0.44193
2156.13503	0.44176
2154.20647	0.44186
2152.27790	0.44226
2150.34934	0.44281
2148.42077	0.44332
2146.49221	0.44382
2144.56365	0.44445
2142.63508	0.44515
2140.70652	0.44582
2138.77795	0.44631
2136.84939	0.44669
2134.92082	0.44720
2132.99226	0.44772
2131.06369	0.44793
2129.13513	0.44791
2127.20657	0.44784
2125.27800	0.44773
2123.34944	0.44741
2121.42087	0.44682
2119.49231	0.44609
2117.56374	0.44530
2115.63518	0.44447
2113.70661	0.44353
2111.77805	0.44240
2109.84949	0.44118
2107.92092	0.44001
2105.99236	0.43910
2104.06379	0.43848
2102.13523	0.43786
2100.20666	0.43709
2098.27810	0.43630
2096.34953	0.43554
2094.42097	0.43488
2092.49241	0.43436
2090.56384	0.43407
2088.63528	0.43404
2086.70671	0.43400
2084.77815	0.43356
2082.84958	0.43295
2080.92102	0.43262
2078.99245	0.43247
2077.06389	0.43233
2075.13533	0.43224
2073.20676	0.43215
2071.27820	0.43198
2069.34963	0.43190
2067.42107	0.43208
2065.49250	0.43235
2063.56394	0.43234
2061.63537	0.43200
2059.70681	0.43158
2057.77825	0.43113
2055.84968	0.43073
2053.92112	0.43038
2051.99255	0.42988
2050.06399	0.42928
2048.13542	0.42870
2046.20686	0.42793
2044.27830	0.42689
2042.34973	0.42595
2040.42117	0.42527
2038.49260	0.42460
2036.56404	0.42382
2034.63547	0.42283
2032.70691	0.42176
2030.77834	0.42084
2028.84978	0.41991
2026.92122	0.41873
2024.99265	0.41752
2023.06409	0.41656
2021.13552	0.41560
2019.20696	0.41464
2017.27839	0.41403
2015.34983	0.41356
2013.42126	0.41300
2011.49270	0.41269
2009.56414	0.41267
2007.63557	0.41277
2005.70701	0.41308
2003.77844	0.41361
2001.84988	0.41419
1999.92131	0.41486
1997.99275	0.41558
1996.06418	0.41604
1994.13562	0.41649
1992.20706	0.41763
1990.27849	0.41892
1988.34993	0.41966
1986.42136	0.42007
1984.49280	0.42038
1982.56423	0.42070
1980.63567	0.42097
1978.70710	0.42104
1976.77854	0.42108
1974.84998	0.42115
1972.92141	0.42096
1970.99285	0.42035
1969.06428	0.41982
1967.13572	0.41983
1965.20715	0.41959
1963.27859	0.41860
1961.35002	0.41742
1959.42146	0.41631
1957.49290	0.41522
1955.56433	0.41419
1953.63577	0.41324
1951.70720	0.41227
1949.77864	0.41121
1947.85007	0.41005
1945.92151	0.40879
1943.99294	0.40794
1942.06438	0.40783
1940.13582	0.40755
1938.20725	0.40680
1936.27869	0.40619
1934.35012	0.40594
1932.42156	0.40594
1930.49299	0.40608
1928.56443	0.40623
1926.63586	0.40611
1924.70730	0.40614
1922.77874	0.40687
1920.85017	0.40723
1918.92161	0.40733
1916.99304	0.40786
1915.06448	0.40765
1913.13591	0.40652
1911.20735	0.40557
1909.27878	0.40517
1907.35022	0.40461
1905.42166	0.40368
1903.49309	0.40300
1901.56453	0.40266
1899.63596	0.40227
1897.70740	0.40187
1895.77883	0.40189
1893.85027	0.40195
1891.92171	0.40168
1889.99314	0.40212
1888.06458	0.40298
1886.13601	0.40313
1884.20745	0.40301
1882.27888	0.40287
1880.35032	0.40264
1878.42175	0.40253
1876.49319	0.40231
1874.56463	0.40164
1872.63606	0.40052
1870.70750	0.39993
1868.77893	0.40140
1866.85037	0.40287
1864.92180	0.40211
1862.99324	0.40093
1861.06467	0.40048
1859.13611	0.40043
1857.20755	0.40036
1855.27898	0.40023
1853.35042	0.40002
1851.42185	0.39970
1849.49329	0.39941
1847.56472	0.39923
1845.63616	0.39996
1843.70759	0.40189
1841.77903	0.40234
1839.85047	0.40147
1837.92190	0.40130
1835.99334	0.40179
1834.06477	0.40161
1832.13621	0.40113
1830.20764	0.40184
1828.27908	0.40250
1826.35051	0.40195
1824.42195	0.40174
1822.49339	0.40143
1820.56482	0.40044
1818.63626	0.39966
1816.70769	0.39922
1814.77913	0.39869
1812.85056	0.39830
1810.92200	0.39855
1808.99343	0.39882
1807.06487	0.39850
1805.13631	0.39803
1803.20774	0.39802
1801.27918	0.39904
1799.35061	0.40012
1797.42205	0.39978
1795.49348	0.39870
1793.56492	0.39908
1791.63635	0.40198
1789.70779	0.40332
1787.77923	0.40268
1785.85066	0.40253
1783.92210	0.40297
1781.99353	0.40332
1780.06497	0.40376
1778.13640	0.40358
1776.20784	0.40228
1774.27927	0.40138
1772.35071	0.40284
1770.42215	0.40444
1768.49358	0.40417
1766.56502	0.40300
1764.63645	0.40174
1762.70789	0.40219
1760.77932	0.40438
1758.85076	0.40603
1756.92220	0.40862
1754.99363	0.41167
1753.06507	0.41419
1751.13650	0.41968
1749.20794	0.42922
1747.27937	0.43733
1745.35081	0.44299
1743.42224	0.44807
1741.49368	0.45347
1739.56512	0.45883
1737.63655	0.46129
1735.70799	0.46240
1733.77942	0.46787
1731.85086	0.47298
1729.92229	0.47487
1727.99373	0.47683
1726.06516	0.47913
1724.13660	0.48284
1722.20804	0.48652
1720.27947	0.48893
1718.35091	0.49550
1716.42234	0.51152
1714.49378	0.52400
1712.56521	0.53141
1710.63665	0.53963
1708.70808	0.55018
1706.77952	0.56727
1704.85096	0.59101
1702.92239	0.61227
1700.99383	0.64245
1699.06526	0.69046
1697.13670	0.73444
1695.20813	0.77655
1693.27957	0.80635
1691.35100	0.82992
1689.42244	0.86089
1687.49388	0.89056
1685.56531	0.92247
1683.63675	0.97882
1681.70818	1.02108
1679.77962	1.04423
1677.85105	1.06711
1675.92249	1.09702
1673.99392	1.12894
1672.06536	1.15183
1670.13680	1.17928
1668.20823	1.21146
1666.27967	1.22827
1664.35110	1.24067
1662.42254	1.25805
1660.49397	1.27284
1658.56541	1.28027
1656.63684	1.28260
1654.70828	1.28460
1652.77972	1.28876
1650.85115	1.28731
1648.92259	1.28437
1646.99402	1.28219
1645.06546	1.27827
1643.13689	1.27257
1641.20833	1.26757
1639.27976	1.26267
1637.35120	1.25696
1635.42264	1.24992
1633.49407	1.24258
1631.56551	1.23555
1629.63694	1.22741
1627.70838	1.21777
1625.77981	1.20548
1623.85125	1.18759
1621.92269	1.16614
1619.99412	1.14775
1618.06556	1.12636
1616.13699	1.09453
1614.20843	1.06660
1612.27986	1.04451
1610.35130	1.02228
1608.42273	1.00039
1606.49417	0.98198
1604.56561	0.96725
1602.63704	0.95499
1600.70848	0.94569
1598.77991	0.93923
1596.85135	0.93483
1594.92278	0.93206
1592.99422	0.93056
1591.06565	0.93070
1589.13709	0.93310
1587.20853	0.93801
1585.27996	0.94543
1583.35140	0.95525
1581.42283	0.96589
1579.49427	0.97551
1577.56570	0.98854
1575.63714	1.00944
1573.70857	1.02266
1571.78001	1.02994
1569.85145	1.04383
1567.92288	1.06039
1565.99432	1.07176
1564.06575	1.08150
1562.13719	1.08791
1560.20862	1.09557
1558.28006	1.11738
1556.35149	1.12641
1554.42293	1.12675
1552.49437	1.12751
1550.56580	1.12810
1548.63724	1.12694
1546.70867	1.12410
1544.78011	1.12093
1542.85154	1.11875
1540.92298	1.11770
1538.99441	1.11313
1537.06585	1.10758
1535.13729	1.10225
1533.20872	1.09571
1531.28016	1.08855
1529.35159	1.08239
1527.42303	1.07681
1525.49446	1.07157
1523.56590	1.06820
1521.63733	1.06738
1519.70877	1.06589
1517.78021	1.06046
1515.85164	1.05128
1513.92308	1.03951
1511.99451	1.02612
1510.06595	1.01297
1508.13738	0.99669
1506.20882	0.97120
1504.28025	0.95446
1502.35169	0.94203
1500.42313	0.92835
1498.49456	0.91193
1496.56600	0.89261
1494.63743	0.87575
1492.70887	0.86237
1490.78030	0.84727
1488.85174	0.82867
1486.92317	0.81344
1484.99461	0.80248
1483.06605	0.79381
1481.13748	0.78709
1479.20892	0.78302
1477.28035	0.78205
1475.35179	0.78513
1473.42322	0.79555
1471.49466	0.80847
1469.56610	0.81441
1467.63753	0.81803
1465.70897	0.82461
1463.78040	0.83243
1461.85184	0.83595
1459.92327	0.83745
1457.99471	0.84405
1456.06614	0.85429
1454.13758	0.85618
1452.20902	0.85509
1450.28045	0.85403
1448.35189	0.85303
1446.42332	0.85141
1444.49476	0.84875
1442.56619	0.84536
1440.63763	0.84163
1438.70906	0.83776
1436.78050	0.83391
1434.85194	0.82987
1432.92337	0.82553
1430.99481	0.82175
1429.06624	0.81931
1427.13768	0.81802
1425.20911	0.81831
1423.28055	0.82064
1421.35198	0.82413
1419.42342	0.82977
1417.49486	0.83543
1415.56629	0.83683
1413.63773	0.83640
1411.70916	0.83610
1409.78060	0.83643
1407.85203	0.83698
1405.92347	0.83802
1403.99490	0.83981
1402.06634	0.84120
1400.13778	0.84277
1398.20921	0.84517
1396.28065	0.84718
1394.35208	0.84836
1392.42352	0.84903
1390.49495	0.85034
1388.56639	0.85464
1386.63782	0.86222
1384.70926	0.86905
1382.78070	0.87392
1380.85213	0.87683
1378.92357	0.87629
1376.99500	0.87144
1375.06644	0.86201
1373.13787	0.84965
1371.20931	0.83741
1369.28074	0.82450
1367.35218	0.81070
1365.42362	0.79800
1363.49505	0.78631
1361.56649	0.77596
1359.63792	0.76814
1357.70936	0.76220
1355.78079	0.75758
1353.85223	0.75406
1351.92366	0.75130
1349.99510	0.74923
1348.06654	0.74792
1346.13797	0.74707
1344.20941	0.74648
1342.28084	0.74655
1340.35228	0.74858
1338.42371	0.75257
1336.49515	0.75683
1334.56659	0.76189
1332.63802	0.76850
1330.70946	0.77595
1328.78089	0.78281
1326.85233	0.78798
1324.92376	0.79148
1322.99520	0.79429
1321.06663	0.79752
1319.13807	0.80178
1317.20951	0.80631
1315.28094	0.81017
1313.35238	0.81351
1311.42381	0.81623
1309.49525	0.81834
1307.56668	0.82024
1305.63812	0.82159
1303.70955	0.82213
1301.78099	0.82200
1299.85243	0.82122
1297.92386	0.81986
1295.99530	0.81829
1294.06673	0.81714
1292.13817	0.81675
1290.20960	0.81703
1288.28104	0.81765
1286.35247	0.81855
1284.42391	0.81970
1282.49535	0.82081
1280.56678	0.82158
1278.63822	0.82224
1276.70965	0.82323
1274.78109	0.82451
1272.85252	0.82629
1270.92396	0.82901
1268.99539	0.83220
1267.06683	0.83495
1265.13827	0.83702
1263.20970	0.83856
1261.28114	0.83929
1259.35257	0.83913
1257.42401	0.83887
1255.49544	0.83926
1253.56688	0.84031
1251.63831	0.84150
1249.70975	0.84249
1247.78119	0.84346
1245.85262	0.84451
1243.92406	0.84523
1241.99549	0.84526
1240.06693	0.84466
1238.13836	0.84363
1236.20980	0.84192
1234.28123	0.83896
1232.35267	0.83479
1230.42411	0.82998
1228.49554	0.82477
1226.56698	0.81862
1224.63841	0.81164
1222.70985	0.80492
1220.78128	0.79890
1218.85272	0.79321
1216.92415	0.78780
1214.99559	0.78332
1213.06703	0.78085
1211.13846	0.78079
1209.20990	0.78205
1207.28133	0.78282
1205.35277	0.78166
1203.42420	0.77837
1201.49564	0.77409
1199.56708	0.76978
1197.63851	0.76550
1195.70995	0.76154
1193.78138	0.75844
1191.85282	0.75642
1189.92425	0.75535
1187.99569	0.75501
1186.06712	0.75489
1184.13856	0.75465
1182.21000	0.75509
1180.28143	0.75674
1178.35287	0.75949
1176.42430	0.76365
1174.49574	0.76904
1172.56717	0.77499
1170.63861	0.78190
1168.71004	0.79130
1166.78148	0.80368
1164.85292	0.81739
1162.92435	0.82992
1160.99579	0.83934
1159.06722	0.84429
1157.13866	0.84437
1155.21009	0.84039
1153.28153	0.83365
1151.35296	0.82518
1149.42440	0.81626
1147.49584	0.80836
1145.56727	0.80229
1143.63871	0.79840
1141.71014	0.79664
1139.78158	0.79664
1137.85301	0.79833
1135.92445	0.80132
1133.99588	0.80433
1132.06732	0.80712
1130.13876	0.81092
1128.21019	0.81592
1126.28163	0.82109
1124.35306	0.82575
1122.42450	0.82951
1120.49593	0.83216
1118.56737	0.83374
1116.63880	0.83412
1114.71024	0.83258
1112.78168	0.82908
1110.85311	0.82522
1108.92455	0.82295
1106.99598	0.82304
1105.06742	0.82550
1103.13885	0.83031
1101.21029	0.83704
1099.28172	0.84511
1097.35316	0.85484
1095.42460	0.86673
1093.49603	0.88055
1091.56747	0.89497
1089.63890	0.90824
1087.71034	0.92008
1085.78177	0.93101
1083.85321	0.93998
1081.92464	0.94520
1079.99608	0.94610
1078.06752	0.94300
1076.13895	0.93615
1074.21039	0.92548
1072.28182	0.91168
1070.35326	0.89697
1068.42469	0.88300
1066.49613	0.87025
1064.56756	0.85924
1062.63900	0.84970
1060.71044	0.84138
1058.78187	0.83510
1056.85331	0.83080
1054.92474	0.82821
1052.99618	0.82818
1051.06761	0.83101
1049.13905	0.83623
1047.21049	0.84335
1045.28192	0.85155
1043.35336	0.86007
1041.42479	0.86824
1039.49623	0.87486
1037.56766	0.87865
1035.63910	0.87889
1033.71053	0.87575
1031.78197	0.87037
1029.85341	0.86315
1027.92484	0.85336
1025.99628	0.84141
1024.06771	0.82862
1022.13915	0.81600
1020.21058	0.80480
1018.28202	0.79568
1016.35345	0.78790
1014.42489	0.78023
1012.49633	0.77192
1010.56776	0.76304
1008.63920	0.75431
1006.71063	0.74637
1004.78207	0.73964
1002.85350	0.73487
1000.92494	0.73254
998.99637	0.73216
997.06781	0.73290
995.13925	0.73382
993.21068	0.73372
991.28212	0.73195
989.35355	0.72863
987.42499	0.72382
985.49642	0.71743
983.56786	0.70970
981.63929	0.70081
979.71073	0.69080
977.78217	0.67972
975.85360	0.66761
973.92504	0.65435
971.99647	0.63986
970.06791	0.62466
968.13934	0.61006
966.21078	0.59743
964.28221	0.58793
962.35365	0.58266
960.42509	0.58245
958.49652	0.58688
956.56796	0.59348
954.63939	0.59883
952.71083	0.60140
950.78226	0.60203
948.85370	0.60210
946.92513	0.60279
944.99657	0.60474
943.06801	0.60759
941.13944	0.61057
939.21088	0.61325
937.28231	0.61541
935.35375	0.61662
933.42518	0.61640
931.49662	0.61460
929.56805	0.61170
927.63949	0.60839
925.71093	0.60522
923.78236	0.60257
921.85380	0.60041
919.92523	0.59871
917.99667	0.59790
916.06810	0.59828
914.13954	0.60009
912.21098	0.60364
910.28241	0.60918
908.35385	0.61696
906.42528	0.62662
904.49672	0.63722
902.56815	0.64812
900.63959	0.65877
898.71102	0.66833
896.78246	0.67601
894.85390	0.68135
892.92533	0.68422
890.99677	0.68465
889.06820	0.68258
887.13964	0.67829
885.21107	0.67270
883.28251	0.66602
881.35394	0.65797
879.42538	0.64944
877.49682	0.64158
875.56825	0.63466
873.63969	0.62874
871.71112	0.62402
869.78256	0.62074
867.85399	0.61911
865.92543	0.61906
863.99686	0.62026
862.06830	0.62259
860.13974	0.62619
858.21117	0.63060
856.28261	0.63503
854.35404	0.63983
852.42548	0.64537
850.49691	0.65063
848.56835	0.65494
846.63978	0.65856
844.71122	0.66121
842.78266	0.66229
840.85409	0.66184
838.92553	0.66033
836.99696	0.65804
835.06840	0.65483
833.13983	0.65037
831.21127	0.64497
829.28270	0.63939
827.35414	0.63406
825.42558	0.62938
823.49701	0.62574
821.56845	0.62341
819.63988	0.62251
817.71132	0.62315
815.78275	0.62545
813.85419	0.62911
811.92562	0.63386
809.99706	0.63972
808.06850	0.64622
806.13993	0.65252
804.21137	0.65845
802.28280	0.66443
800.35424	0.67032
798.42567	0.67540
796.49711	0.67973
794.56854	0.68400
792.63998	0.68853
790.71142	0.69289
788.78285	0.69621
786.85429	0.69853
784.92572	0.70030
782.99716	0.70107
781.06859	0.70082
779.14003	0.70001
777.21147	0.69869
775.28290	0.69730
773.35434	0.69641
771.42577	0.69627
769.49721	0.69698
767.56864	0.69845
765.64008	0.70034
763.71151	0.70238
761.78295	0.70461
759.85439	0.70715
757.92582	0.70997
755.99726	0.71291
754.06869	0.71581
752.14013	0.71829
750.21156	0.72022
748.28300	0.72203
746.35443	0.72305
744.42587	0.72198
742.49731	0.71935
740.56874	0.71598
738.64018	0.71189
736.71161	0.70780
734.78305	0.70433
732.85448	0.70153
730.92592	0.69972
728.99735	0.69881
727.06879	0.69858
725.14023	0.69969
723.21166	0.70243
721.28310	0.70609
719.35453	0.70959
717.42597	0.71253
715.49740	0.71564
713.56884	0.71950
711.64027	0.72354
709.71171	0.72683
707.78315	0.72927
705.85458	0.73139
703.92602	0.73302
701.99745	0.73298
700.06889	0.73070
698.14032	0.72648
696.21176	0.72065
694.28319	0.71367
692.35463	0.70625
690.42607	0.69927
688.49750	0.69319
686.56894	0.68766
684.64037	0.68273
682.71181	0.67934
680.78324	0.67800
678.85468	0.67871
676.92611	0.68144
674.99755	0.68547
673.06899	0.68997
671.14042	0.69506
669.21186	0.70431
667.28329	0.71796
665.35473	0.72595
663.42616	0.73136
661.49760	0.73670
659.56903	0.74086
657.64047	0.74436
655.71191	0.74734
653.78334	0.74852
651.85478	0.74722
649.92621	0.74393
647.99765	0.73943
646.06908	0.73438
644.14052	0.72973
642.21195	0.72549
640.28339	0.72044
638.35483	0.71459
636.42626	0.70868
634.49770	0.70291
632.56913	0.69849
630.64057	0.69613
628.71200	0.69583
626.78344	0.69868
624.85488	0.70457
622.92631	0.71099
620.99775	0.71580
619.06918	0.72012
617.14062	0.72632
615.21205	0.73240
613.28349	0.73493
611.35492	0.73443
609.42636	0.73282
607.49780	0.73011
605.56923	0.72579
603.64067	0.72112
601.71210	0.71605
599.78354	0.70868
