3997.91406	0.74141
3995.98550	0.73879
3994.05693	0.73623
3992.12837	0.73504
3990.19980	0.73617
3988.27124	0.73782
3986.34268	0.73722
3984.41411	0.73483
3982.48555	0.73257
3980.55698	0.73062
3978.62842	0.72885
3976.69985	0.72840
3974.77129	0.72969
3972.84272	0.73116
3970.91416	0.73155
3968.98560	0.73123
3967.05703	0.73016
3965.12847	0.72860
3963.19990	0.72850
3961.27134	0.72899
3959.34277	0.72738
3957.41421	0.72612
3955.48564	0.72709
3953.55708	0.72678
3951.62852	0.72411
3949.69995	0.72422
3947.77139	0.72692
3945.84282	0.72572
3943.91426	0.72407
3941.98569	0.72620
3940.05713	0.72704
3938.12856	0.72554
3936.20000	0.72308
3934.27144	0.72051
3932.34287	0.72214
3930.41431	0.72688
3928.48574	0.72709
3926.55718	0.72433
3924.62861	0.72420
3922.70005	0.72366
3920.77148	0.72049
3918.84292	0.72100
3916.91436	0.72708
3914.98579	0.73069
3913.05723	0.72861
3911.12866	0.72406
3909.20010	0.71746
3907.27153	0.70867
3905.34297	0.70321
3903.41440	0.70644
3901.48584	0.71360
3899.55728	0.72039
3897.62871	0.72168
3895.70015	0.71555
3893.77158	0.71005
3891.84302	0.71389
3889.91445	0.71632
3887.98589	0.71033
3886.05733	0.70823
3884.12876	0.70974
3882.20020	0.70783
3880.27163	0.71200
3878.34307	0.71475
3876.41450	0.71005
3874.48594	0.70603
3872.55737	0.70373
3870.62881	0.70734
3868.70025	0.71415
3866.77168	0.71001
3864.84312	0.70492
3862.91455	0.70953
3860.98599	0.71229
3859.05742	0.70697
3857.12886	0.69582
3855.20029	0.68721
3853.27173	0.70434
3851.34317	0.72110
3849.41460	0.71733
3847.48604	0.70787
3845.55747	0.69870
3843.62891	0.69316
3841.70034	0.69105
3839.77178	0.69292
3837.84321	0.69998
3835.91465	0.70232
3833.98609	0.70127
3832.05752	0.70249
3830.12896	0.70166
3828.20039	0.69842
3826.27183	0.69662
3824.34326	0.69167
3822.41470	0.68794
3820.48613	0.69565
3818.55757	0.69639
3816.62901	0.69546
3814.70044	0.70176
3812.77188	0.70179
3810.84331	0.69563
3808.91475	0.69145
3806.98618	0.69407
3805.05762	0.69146
3803.12905	0.68548
3801.20049	0.69516
3799.27193	0.70455
3797.34336	0.70626
3795.41480	0.70829
3793.48623	0.70574
3791.55767	0.70091
3789.62910	0.69761
3787.70054	0.69437
3785.77197	0.69282
3783.84341	0.69330
3781.91485	0.69266
3779.98628	0.69542
3778.05772	0.70003
3776.12915	0.69720
3774.20059	0.68955
3772.27202	0.68338
3770.34346	0.68457
3768.41489	0.68937
3766.48633	0.69135
3764.55777	0.69210
3762.62920	0.68858
3760.70064	0.68442
3758.77207	0.68745
3756.84351	0.68803
3754.91494	0.67824
3752.98638	0.66666
3751.05781	0.67247
3749.12925	0.68364
3747.20069	0.67801
3745.27212	0.67768
3743.34356	0.69033
3741.41499	0.69198
3739.48643	0.68262
3737.55786	0.67196
3735.62930	0.67353
3733.70074	0.69085
3731.77217	0.69966
3729.84361	0.69434
3727.91504	0.68573
3725.98648	0.68343
3724.05791	0.68719
3722.12935	0.69151
3720.20078	0.69450
3718.27222	0.69378
3716.34366	0.68738
3714.41509	0.67687
3712.48653	0.67397
3710.55796	0.68918
3708.62940	0.69882
3706.70083	0.69644
3704.77227	0.69130
3702.84370	0.69138
3700.91514	0.69614
3698.98658	0.69569
3697.05801	0.69154
3695.12945	0.68690
3693.20088	0.68020
3691.27232	0.67683
3689.34375	0.69070
3687.41519	0.70461
3685.48662	0.70372
3683.55806	0.69818
3681.62950	0.69349
3679.70093	0.68837
3677.77237	0.68330
3675.84380	0.69448
3673.91524	0.70797
3671.98667	0.70513
3670.05811	0.71314
3668.12954	0.72702
3666.20098	0.72760
3664.27242	0.72583
3662.34385	0.72604
3660.41529	0.72393
3658.48672	0.72141
3656.55816	0.72728
3654.62959	0.73138
3652.70103	0.72234
3650.77246	0.71600
3648.84390	0.74061
3646.91534	0.76372
3644.98677	0.76640
3643.05821	0.76527
3641.12964	0.76606
3639.20108	0.76848
3637.27251	0.77192
3635.34395	0.77546
3633.41538	0.77457
3631.48682	0.76752
3629.55826	0.77311
3627.62969	0.79870
3625.70113	0.80782
3623.77256	0.80457
3621.84400	0.80032
3619.91543	0.80450
3617.98687	0.81649
3616.05830	0.82227
3614.12974	0.82614
3612.20118	0.83019
3610.27261	0.83207
3608.34405	0.83981
3606.41548	0.84900
3604.48692	0.84894
3602.55835	0.84697
3600.62979	0.84999
3598.70123	0.85389
3596.77266	0.85831
3594.84410	0.86684
3592.91553	0.87239
3590.98697	0.87022
3589.05840	0.87104
3587.12984	0.88627
3585.20127	0.90059
3583.27271	0.90452
3581.34415	0.90503
3579.41558	0.90718
3577.48702	0.91268
3575.55845	0.91979
3573.62989	0.92424
3571.70132	0.92285
3569.77276	0.92009
3567.84419	0.92791
3565.91563	0.94346
3563.98707	0.94830
3562.05850	0.95121
3560.12994	0.95998
3558.20137	0.96796
3556.27281	0.97023
3554.34424	0.97201
3552.41568	0.97778
3550.48711	0.98143
3548.55855	0.98048
3546.62999	0.98338
3544.70142	0.99275
3542.77286	1.00115
3540.84429	1.00630
3538.91573	1.01076
3536.98716	1.01703
3535.05860	1.02389
3533.13003	1.02823
3531.20147	1.03114
3529.27291	1.03653
3527.34434	1.04447
3525.41578	1.05192
3523.48721	1.06024
3521.55865	1.06947
3519.63008	1.07613
3517.70152	1.08051
3515.77295	1.08555
3513.84439	1.09242
3511.91583	1.09943
3509.98726	1.10608
3508.05870	1.11265
3506.13013	1.11843
3504.20157	1.12818
3502.27300	1.14424
3500.34444	1.15774
3498.41587	1.16521
3496.48731	1.17104
3494.55875	1.17781
3492.63018	1.18504
3490.70162	1.19065
3488.77305	1.19333
3486.84449	1.19521
3484.91592	1.19681
3482.98736	1.19863
3481.05879	1.20468
3479.13023	1.21307
3477.20167	1.21966
3475.27310	1.22563
3473.34454	1.23014
3471.41597	1.23124
3469.48741	1.23242
3467.55884	1.23753
3465.63028	1.24721
3463.70171	1.25849
3461.77315	1.26391
3459.84459	1.26266
3457.91602	1.26284
3455.98746	1.26753
3454.05889	1.27311
3452.13033	1.27579
3450.20176	1.27555
3448.27320	1.27601
3446.34464	1.28002
3444.41607	1.28726
3442.48751	1.29764
3440.55894	1.30687
3438.63038	1.30833
3436.70181	1.30453
3434.77325	1.29951
3432.84468	1.29396
3430.91612	1.29208
3428.98756	1.29715
3427.05899	1.30315
3425.13043	1.30247
3423.20186	1.29778
3421.27330	1.29493
3419.34473	1.29530
3417.41617	1.29903
3415.48760	1.30512
3413.55904	1.31028
3411.63048	1.31154
3409.70191	1.31012
3407.77335	1.31035
3405.84478	1.31316
3403.91622	1.31662
3401.98765	1.32048
3400.05909	1.32431
3398.13052	1.32641
3396.20196	1.32553
3394.27340	1.32187
3392.34483	1.31890
3390.41627	1.31915
3388.48770	1.32106
3386.55914	1.32503
3384.63057	1.33099
3382.70201	1.33476
3380.77344	1.33628
3378.84488	1.33682
3376.91632	1.33540
3374.98775	1.33525
3373.05919	1.33826
3371.13062	1.34100
3369.20206	1.34174
3367.27349	1.34220
3365.34493	1.34413
3363.41636	1.34784
3361.48780	1.35366
3359.55924	1.35910
3357.63067	1.35917
3355.70211	1.35647
3353.77354	1.35632
3351.84498	1.35876
3349.91641	1.36513
3347.98785	1.37374
3346.05928	1.37634
3344.13072	1.37387
3342.20216	1.37472
3340.27359	1.37788
3338.34503	1.37909
3336.41646	1.38181
3334.48790	1.38995
3332.55933	1.40076
3330.63077	1.40863
3328.70220	1.41108
3326.77364	1.41113
3324.84508	1.41420
3322.91651	1.42054
3320.98795	1.42501
3319.05938	1.42769
3317.13082	1.43213
3315.20225	1.43664
3313.27369	1.43900
3311.34513	1.44249
3309.41656	1.44971
3307.48800	1.45699
3305.55943	1.46029
3303.63087	1.45841
3301.70230	1.45429
3299.77374	1.45533
3297.84517	1.46284
3295.91661	1.46918
3293.98805	1.46992
3292.05948	1.47120
3290.13092	1.47726
3288.20235	1.48179
3286.27379	1.48197
3284.34522	1.48325
3282.41666	1.48726
3280.48809	1.49033
3278.55953	1.49056
3276.63097	1.48718
3274.70240	1.47981
3272.77384	1.47309
3270.84527	1.47176
3268.91671	1.47077
3266.98814	1.46308
3265.05958	1.45521
3263.13101	1.45355
3261.20245	1.45021
3259.27389	1.44036
3257.34532	1.42954
3255.41676	1.42250
3253.48819	1.41899
3251.55963	1.41483
3249.63106	1.40592
3247.70250	1.39271
3245.77393	1.38074
3243.84537	1.37304
3241.91681	1.36652
3239.98824	1.36080
3238.05968	1.35731
3236.13111	1.35199
3234.20255	1.34407
3232.27398	1.33867
3230.34542	1.33488
3228.41685	1.32834
3226.48829	1.32139
3224.55973	1.31738
3222.63116	1.31329
3220.70260	1.30805
3218.77403	1.30484
3216.84547	1.30273
3214.91690	1.29891
3212.98834	1.29257
3211.05977	1.28415
3209.13121	1.27588
3207.20265	1.27044
3205.27408	1.26710
3203.34552	1.26290
3201.41695	1.25772
3199.48839	1.25212
3197.55982	1.24631
3195.63126	1.24249
3193.70269	1.23961
3191.77413	1.23398
3189.84557	1.22657
3187.91700	1.22032
3185.98844	1.21479
3184.05987	1.20883
3182.13131	1.20287
3180.20274	1.19707
3178.27418	1.19048
3176.34562	1.18281
3174.41705	1.17683
3172.48849	1.17430
3170.55992	1.17177
3168.63136	1.16640
3166.70279	1.16098
3164.77423	1.15861
3162.84566	1.15688
3160.91710	1.15206
3158.98854	1.14558
3157.05997	1.14063
3155.13141	1.13768
3153.20284	1.13660
3151.27428	1.13598
3149.34571	1.13282
3147.41715	1.12858
3145.48858	1.12638
3143.56002	1.12501
3141.63146	1.12264
3139.70289	1.11921
3137.77433	1.11677
3135.84576	1.11781
3133.91720	1.12022
3131.98863	1.12064
3130.06007	1.11961
3128.13150	1.11932
3126.20294	1.12055
3124.27438	1.12127
3122.34581	1.12025
3120.41725	1.11993
3118.48868	1.12098
3116.56012	1.12104
3114.63155	1.12029
3112.70299	1.12053
3110.77442	1.12106
3108.84586	1.12092
3106.91730	1.12128
3104.98873	1.12323
3103.06017	1.12579
3101.13160	1.12659
3099.20304	1.12434
3097.27447	1.12128
3095.34591	1.12067
3093.41734	1.12217
3091.48878	1.12367
3089.56022	1.12315
3087.63165	1.11930
3085.70309	1.11532
3083.77452	1.11395
3081.84596	1.11229
3079.91739	1.10850
3077.98883	1.10490
3076.06026	1.10242
3074.13170	1.10009
3072.20314	1.09792
3070.27457	1.09598
3068.34601	1.09323
3066.41744	1.08885
3064.48888	1.08423
3062.56031	1.08221
3060.63175	1.08186
3058.70318	1.07907
3056.77462	1.07357
3054.84606	1.06834
3052.91749	1.06380
3050.98893	1.05884
3049.06036	1.05430
3047.13180	1.05088
3045.20323	1.04724
3043.27467	1.04336
3041.34610	1.04040
3039.41754	1.03753
3037.48898	1.03421
3035.56041	1.03120
3033.63185	1.02844
3031.70328	1.02522
3029.77472	1.02154
3027.84615	1.01797
3025.91759	1.01450
3023.98903	1.01134
3022.06046	1.00906
3020.13190	1.00692
3018.20333	1.00420
3016.27477	1.00177
3014.34620	1.00006
3012.41764	0.99837
3010.48907	0.99722
3008.56051	0.99679
3006.63195	0.99604
3004.70338	0.99541
3002.77482	0.99506
3000.84625	0.99436
2998.91769	0.99401
2996.98912	0.99434
2995.06056	0.99578
2993.13199	0.99931
2991.20343	1.00391
2989.27487	1.00874
2987.34630	1.01394
2985.41774	1.01892
2983.48917	1.02429
2981.56061	1.03108
2979.63204	1.03871
2977.70348	1.04658
2975.77491	1.05376
2973.84635	1.06080
2971.91779	1.07001
2969.98922	1.08046
2968.06066	1.08912
2966.13209	1.09572
2964.20353	1.10162
2962.27496	1.10663
2960.34640	1.10917
2958.41783	1.10795
2956.48927	1.10212
2954.56071	1.09289
2952.63214	1.08454
2950.70358	1.07959
2948.77501	1.07771
2946.84645	1.07885
2944.91788	1.08278
2942.98932	1.08974
2941.06075	1.10041
2939.13219	1.11348
2937.20363	1.12797
2935.27506	1.14323
2933.34650	1.15714
2931.41793	1.17013
2929.48937	1.18465
2927.56080	1.19997
2925.63224	1.21334
2923.70367	1.22447
2921.77511	1.23494
2919.84655	1.24275
2917.91798	1.24100
2915.98942	1.22432
2914.06085	1.19591
2912.13229	1.16499
2910.20372	1.13872
2908.27516	1.11866
2906.34659	1.10251
2904.41803	1.08843
2902.48947	1.07733
2900.56090	1.07091
2898.63234	1.06895
2896.70377	1.06827
2894.77521	1.06568
2892.84664	1.06074
2890.91808	1.05434
2888.98952	1.04788
2887.06095	1.04344
2885.13239	1.04145
2883.20382	1.04009
2881.27526	1.03843
2879.34669	1.03699
2877.41813	1.03627
2875.48956	1.03669
2873.56100	1.03719
2871.63244	1.03513
2869.70387	1.03006
2867.77531	1.02434
2865.84674	1.01995
2863.91818	1.01796
2861.98961	1.01951
2860.06105	1.02507
2858.13248	1.03425
2856.20392	1.04630
2854.27536	1.06089
2852.34679	1.07758
2850.41823	1.08891
2848.48966	1.07972
2846.56110	1.04774
2844.63253	1.01072
2842.70397	0.98238
2840.77540	0.96284
2838.84684	0.94908
2836.91828	0.93902
2834.98971	0.93056
2833.06115	0.92339
2831.13258	0.91793
2829.20402	0.91334
2827.27545	0.90891
2825.34689	0.90506
2823.41832	0.90217
2821.48976	0.89961
2819.56120	0.89638
2817.63263	0.89288
2815.70407	0.89024
2813.77550	0.88815
2811.84694	0.88576
2809.91837	0.88283
2807.98981	0.87936
2806.06124	0.87570
2804.13268	0.87242
2802.20412	0.86986
2800.27555	0.86760
2798.34699	0.86491
2796.41842	0.86176
2794.48986	0.85866
2792.56129	0.85645
2790.63273	0.85529
2788.70416	0.85435
2786.77560	0.85287
2784.84704	0.85053
2782.91847	0.84776
2780.98991	0.84523
2779.06134	0.84298
2777.13278	0.84083
2775.20421	0.83878
2773.27565	0.83710
2771.34708	0.83567
2769.41852	0.83424
2767.48996	0.83301
2765.56139	0.83169
2763.63283	0.82995
2761.70426	0.82809
2759.77570	0.82645
2757.84713	0.82535
2755.91857	0.82475
2753.99001	0.82402
2752.06144	0.82279
2750.13288	0.82188
2748.20431	0.82223
2746.27575	0.82301
2744.34718	0.82281
2742.41862	0.82152
2740.49005	0.82018
2738.56149	0.81961
2736.63293	0.81947
2734.70436	0.81925
2732.77580	0.81899
2730.84723	0.81812
2728.91867	0.81648
2726.99010	0.81518
2725.06154	0.81434
2723.13297	0.81329
2721.20441	0.81230
2719.27585	0.81140
2717.34728	0.80991
2715.41872	0.80779
2713.49015	0.80597
2711.56159	0.80489
2709.63302	0.80366
2707.70446	0.80185
2705.77589	0.80065
2703.84733	0.80065
2701.91877	0.80086
2699.99020	0.80054
2698.06164	0.79992
2696.13307	0.79937
2694.20451	0.79896
2692.27594	0.79872
2690.34738	0.79884
2688.41881	0.79907
2686.49025	0.79898
2684.56169	0.79859
2682.63312	0.79788
2680.70456	0.79736
2678.77599	0.79757
2676.84743	0.79756
2674.91886	0.79656
2672.99030	0.79530
2671.06173	0.79408
2669.13317	0.79284
2667.20461	0.79180
2665.27604	0.79082
2663.34748	0.78978
2661.41891	0.78861
2659.49035	0.78728
2657.56178	0.78623
2655.63322	0.78542
2653.70465	0.78419
2651.77609	0.78282
2649.84753	0.78229
2647.91896	0.78256
2645.99040	0.78253
2644.06183	0.78169
2642.13327	0.78053
2640.20470	0.78001
2638.27614	0.78063
2636.34757	0.78159
2634.41901	0.78185
2632.49045	0.78166
2630.56188	0.78149
2628.63332	0.78129
2626.70475	0.78118
2624.77619	0.78113
2622.84762	0.78106
2620.91906	0.78101
2618.99049	0.78079
2617.06193	0.78003
2615.13337	0.77878
2613.20480	0.77745
2611.27624	0.77623
2609.34767	0.77491
2607.41911	0.77342
2605.49054	0.77210
2603.56198	0.77120
2601.63342	0.77064
2599.70485	0.77011
2597.77629	0.76924
2595.84772	0.76837
2593.91916	0.76785
2591.99059	0.76750
2590.06203	0.76720
2588.13346	0.76660
2586.20490	0.76551
2584.27634	0.76438
2582.34777	0.76323
2580.41921	0.76193
2578.49064	0.76083
2576.56208	0.75990
2574.63351	0.75886
2572.70495	0.75774
2570.77638	0.75643
2568.84782	0.75474
2566.91926	0.75290
2564.99069	0.75130
2563.06213	0.75011
2561.13356	0.74918
2559.20500	0.74823
2557.27643	0.74699
2555.34787	0.74540
2553.41930	0.74378
2551.49074	0.74268
2549.56218	0.74201
2547.63361	0.74130
2545.70505	0.74069
2543.77648	0.74042
2541.84792	0.74032
2539.91935	0.73989
2537.99079	0.73877
2536.06222	0.73731
2534.13366	0.73627
2532.20510	0.73594
2530.27653	0.73535
2528.34797	0.73399
2526.41940	0.73288
2524.49084	0.73230
2522.56227	0.73146
2520.63371	0.73025
2518.70514	0.72925
2516.77658	0.72867
2514.84802	0.72796
2512.91945	0.72674
2510.99089	0.72553
2509.06232	0.72506
2507.13376	0.72500
2505.20519	0.72434
2503.27663	0.72310
2501.34806	0.72219
2499.41950	0.72166
2497.49094	0.72110
2495.56237	0.72076
2493.63381	0.72066
2491.70524	0.72022
2489.77668	0.71956
2487.84811	0.71931
2485.91955	0.71944
2483.99098	0.71930
2482.06242	0.71868
2480.13386	0.71783
2478.20529	0.71708
2476.27673	0.71672
2474.34816	0.71661
2472.41960	0.71639
2470.49103	0.71594
2468.56247	0.71533
2466.63391	0.71480
2464.70534	0.71444
2462.77678	0.71403
2460.84821	0.71361
2458.91965	0.71306
2456.99108	0.71202
2455.06252	0.71043
2453.13395	0.70885
2451.20539	0.70795
2449.27683	0.70759
2447.34826	0.70710
2445.41970	0.70620
2443.49113	0.70520
2441.56257	0.70432
2439.63400	0.70338
2437.70544	0.70258
2435.77687	0.70214
2433.84831	0.70174
2431.91975	0.70123
2429.99118	0.70082
2428.06262	0.70071
2426.13405	0.70057
2424.20549	0.69999
2422.27692	0.69908
2420.34836	0.69821
2418.41979	0.69751
2416.49123	0.69711
2414.56267	0.69707
2412.63410	0.69694
2410.70554	0.69627
2408.77697	0.69516
2406.84841	0.69383
2404.91984	0.69239
2402.99128	0.69107
2401.06271	0.69014
2399.13415	0.68949
2397.20559	0.68869
2395.27702	0.68758
2393.34846	0.68636
2391.41989	0.68523
2389.49133	0.68425
2387.56276	0.68344
2385.63420	0.68253
2383.70563	0.68122
2381.77707	0.67964
2379.84851	0.67845
2377.91994	0.67774
2375.99138	0.67693
2374.06281	0.67593
2372.13425	0.67516
2370.20568	0.67520
2368.27712	0.67595
2366.34855	0.67599
2364.41999	0.67441
2362.49143	0.67279
2360.56286	0.67293
2358.63430	0.67341
2356.70573	0.67406
2354.77717	0.67562
2352.84860	0.67600
2350.92004	0.67369
2348.99147	0.66958
2347.06291	0.66571
2345.13435	0.66452
2343.20578	0.66584
2341.27722	0.66704
2339.34865	0.66884
2337.42009	0.67062
2335.49152	0.66963
2333.56296	0.66688
2331.63440	0.66518
2329.70583	0.66473
2327.77727	0.66455
2325.84870	0.66438
2323.92014	0.66422
2321.99157	0.66376
2320.06301	0.66270
2318.13444	0.66134
2316.20588	0.65981
2314.27732	0.65823
2312.34875	0.65715
2310.42019	0.65633
2308.49162	0.65530
2306.56306	0.65426
2304.63449	0.65317
2302.70593	0.65214
2300.77736	0.65135
2298.84880	0.65048
2296.92024	0.64959
2294.99167	0.64894
2293.06311	0.64844
2291.13454	0.64789
2289.20598	0.64725
2287.27741	0.64665
2285.34885	0.64610
2283.42028	0.64542
2281.49172	0.64467
2279.56316	0.64409
2277.63459	0.64367
2275.70603	0.64314
2273.77746	0.64249
2271.84890	0.64188
2269.92033	0.64136
2267.99177	0.64111
2266.06320	0.64106
2264.13464	0.64091
2262.20608	0.64068
2260.27751	0.64066
2258.34895	0.64090
2256.42038	0.64094
2254.49182	0.64051
2252.56325	0.63988
2250.63469	0.63954
2248.70612	0.63960
2246.77756	0.63950
2244.84900	0.63884
2242.92043	0.63804
2240.99187	0.63744
2239.06330	0.63694
2237.13474	0.63637
2235.20617	0.63556
2233.27761	0.63462
2231.34904	0.63379
2229.42048	0.63293
2227.49192	0.63181
2225.56335	0.63080
2223.63479	0.63033
2221.70622	0.63012
2219.77766	0.62994
2217.84909	0.62971
2215.92053	0.62919
2213.99196	0.62862
2212.06340	0.62845
2210.13484	0.62841
2208.20627	0.62828
2206.27771	0.62818
2204.34914	0.62800
2202.42058	0.62761
2200.49201	0.62714
2198.56345	0.62674
2196.63488	0.62637
2194.70632	0.62596
2192.77776	0.62553
2190.84919	0.62498
2188.92063	0.62450
2186.99206	0.62416
2185.06350	0.62360
2183.13493	0.62287
2181.20637	0.62243
2179.27781	0.62216
2177.34924	0.62146
2175.42068	0.62047
2173.49211	0.61975
2171.56355	0.61934
2169.63498	0.61893
2167.70642	0.61829
2165.77785	0.61752
2163.84929	0.61695
2161.92073	0.61648
2159.99216	0.61579
2158.06360	0.61500
2156.13503	0.61437
2154.20647	0.61366
2152.27790	0.61273
2150.34934	0.61179
2148.42077	0.61091
2146.49221	0.60998
2144.56365	0.60911
2142.63508	0.60836
2140.70652	0.60741
2138.77795	0.60624
2136.84939	0.60517
2134.92082	0.60440
2132.99226	0.60376
2131.06369	0.60299
2129.13513	0.60215
2127.20657	0.60166
2125.27800	0.60151
2123.34944	0.60115
2121.42087	0.60035
2119.49231	0.59933
2117.56374	0.59827
2115.63518	0.59722
2113.70661	0.59623
2111.77805	0.59551
2109.84949	0.59498
2107.92092	0.59431
2105.99236	0.59348
2104.06379	0.59263
2102.13523	0.59193
2100.20666	0.59139
2098.27810	0.59066
2096.34953	0.58967
2094.42097	0.58863
2092.49241	0.58761
2090.56384	0.58672
2088.63528	0.58614
2086.70671	0.58551
2084.77815	0.58463
2082.84958	0.58374
2080.92102	0.58295
2078.99245	0.58213
2077.06389	0.58123
2075.13533	0.58028
2073.20676	0.57931
2071.27820	0.57840
2069.34963	0.57762
2067.42107	0.57688
2065.49250	0.57623
2063.56394	0.57573
2061.63537	0.57511
2059.70681	0.57428
2057.77825	0.57357
2055.84968	0.57325
2053.92112	0.57309
2051.99255	0.57267
2050.06399	0.57208
2048.13542	0.57152
2046.20686	0.57082
2044.27830	0.56998
2042.34973	0.56935
2040.42117	0.56874
2038.49260	0.56774
2036.56404	0.56660
2034.63547	0.56561
2032.70691	0.56472
2030.77834	0.56375
2028.84978	0.56261
2026.92122	0.56136
2024.99265	0.56015
2023.06409	0.55897
2021.13552	0.55775
2019.20696	0.55687
2017.27839	0.55662
2015.34983	0.55638
2013.42126	0.55576
2011.49270	0.55501
2009.56414	0.55439
2007.63557	0.55390
2005.70701	0.55346
2003.77844	0.55296
2001.84988	0.55230
1999.92131	0.55157
1997.99275	0.55080
1996.06418	0.54970
1994.13562	0.54855
1992.20706	0.54800
1990.27849	0.54742
1988.34993	0.54632
1986.42136	0.54528
1984.49280	0.54447
1982.56423	0.54369
1980.63567	0.54302
1978.70710	0.54258
1976.77854	0.54244
1974.84998	0.54253
1972.92141	0.54260
1970.99285	0.54242
1969.06428	0.54245
1967.13572	0.54323
1965.20715	0.54382
1963.27859	0.54347
1961.35002	0.54290
1959.42146	0.54228
1957.49290	0.54126
1955.56433	0.54003
1953.63577	0.53871
1951.70720	0.53710
1949.77864	0.53509
1947.85007	0.53284
1945.92151	0.53065
1943.99294	0.52913
1942.06438	0.52825
1940.13582	0.52686
1938.20725	0.52510
1936.27869	0.52392
1934.35012	0.52318
1932.42156	0.52256
1930.49299	0.52224
1928.56443	0.52206
1926.63586	0.52149
1924.70730	0.52124
1922.77874	0.52212
1920.85017	0.52259
1918.92161	0.52272
1916.99304	0.52354
1915.06448	0.52351
1913.13591	0.52228
1911.20735	0.52129
1909.27878	0.52108
1907.35022	0.52060
1905.42166	0.51937
1903.49309	0.51807
1901.56453	0.51671
1899.63596	0.51495
1897.70740	0.51319
1895.77883	0.51182
1893.85027	0.51011
1891.92171	0.50787
1889.99314	0.50671
1888.06458	0.50641
1886.13601	0.50552
1884.20745	0.50464
1882.27888	0.50418
1880.35032	0.50391
1878.42175	0.50395
1876.49319	0.50414
1874.56463	0.50396
1872.63606	0.50310
1870.70750	0.50274
1868.77893	0.50490
1866.85037	0.50694
1864.92180	0.50594
1862.99324	0.50413
1861.06467	0.50306
1859.13611	0.50233
1857.20755	0.50130
1855.27898	0.50005
1853.35042	0.49869
1851.42185	0.49704
1849.49329	0.49530
1847.56472	0.49378
1845.63616	0.49366
1843.70759	0.49574
1841.77903	0.49619
1839.85047	0.49470
1837.92190	0.49437
1835.99334	0.49547
1834.06477	0.49576
1832.13621	0.49557
1830.20764	0.49745
1828.27908	0.49964
1826.35051	0.49985
1824.42195	0.50022
1822.49339	0.50027
1820.56482	0.49909
1818.63626	0.49793
1816.70769	0.49715
1814.77913	0.49605
1812.85056	0.49499
1810.92200	0.49478
1808.99343	0.49452
1807.06487	0.49336
1805.13631	0.49196
1803.20774	0.49109
1801.27918	0.49164
1799.35061	0.49272
1797.42205	0.49257
1795.49348	0.49169
1793.56492	0.49282
1791.63635	0.49768
1789.70779	0.50067
1787.77923	0.50071
1785.85066	0.50153
1783.92210	0.50346
1781.99353	0.50529
1780.06497	0.50719
1778.13640	0.50790
1776.20784	0.50686
1774.27927	0.50657
1772.35071	0.50978
1770.42215	0.51299
1768.49358	0.51337
1766.56502	0.51258
1764.63645	0.51147
1762.70789	0.51225
1760.77932	0.51501
1758.85076	0.51706
1756.92220	0.52018
1754.99363	0.52343
1753.06507	0.52551
1751.13650	0.53081
1749.20794	0.54100
1747.27937	0.54981
1745.35081	0.55623
1743.42224	0.56256
1741.49368	0.56973
1739.56512	0.57732
1737.63655	0.58146
1735.70799	0.58417
1733.77942	0.59383
1731.85086	0.60323
1729.92229	0.60746
1727.99373	0.61155
1726.06516	0.61610
1724.13660	0.62281
1722.20804	0.62990
1720.27947	0.63527
1718.35091	0.64561
1716.42234	0.66718
1714.49378	0.68397
1712.56521	0.69486
1710.63665	0.70668
1708.70808	0.72076
1706.77952	0.74185
1704.85096	0.77053
1702.92239	0.79571
1700.99383	0.82987
1699.06526	0.88454
1697.13670	0.93318
1695.20813	0.97713
1693.27957	1.00706
1691.35100	1.02887
1689.42244	1.05563
1687.49388	1.07882
1685.56531	1.10145
1683.63675	1.14249
1681.70818	1.17318
1679.77962	1.18829
1677.85105	1.20134
1675.92249	1.21926
1673.99392	1.24078
1672.06536	1.25744
1670.13680	1.27618
1668.20823	1.29694
1666.27967	1.30699
1664.35110	1.31528
1662.42254	1.33045
1660.49397	1.34399
1658.56541	1.34992
1656.63684	1.35057
1654.70828	1.35032
1652.77972	1.35741
1650.85115	1.35907
1648.92259	1.35386
1646.99402	1.35021
1645.06546	1.34866
1643.13689	1.34428
1641.20833	1.33977
1639.27976	1.33629
1637.35120	1.33335
1635.42264	1.32888
1633.49407	1.32192
1631.56551	1.31490
1629.63694	1.30684
1627.70838	1.29683
1625.77981	1.28430
1623.85125	1.26792
1621.92269	1.24892
1619.99412	1.23126
1618.06556	1.20984
1616.13699	1.17971
1614.20843	1.15406
1612.27986	1.13334
1610.35130	1.11248
1608.42273	1.09240
1606.49417	1.07538
1604.56561	1.06202
1602.63704	1.05221
1600.70848	1.04612
1598.77991	1.04298
1596.85135	1.04202
1594.92278	1.04266
1592.99422	1.04428
1591.06565	1.04736
1589.13709	1.05248
1587.20853	1.05975
1585.27996	1.06922
1583.35140	1.08045
1581.42283	1.09163
1579.49427	1.10136
1577.56570	1.11508
1575.63714	1.13792
1573.70857	1.15264
1571.78001	1.16109
1569.85145	1.17767
1567.92288	1.19695
1565.99432	1.20846
1564.06575	1.21718
1562.13719	1.22236
1560.20862	1.22938
1558.28006	1.25178
1556.35149	1.26102
1554.42293	1.26320
1552.49437	1.26587
1550.56580	1.26740
1548.63724	1.26812
1546.70867	1.26777
1544.78011	1.26536
1542.85154	1.26066
1540.92298	1.25710
1538.99441	1.25295
1537.06585	1.24641
1535.13729	1.23965
1533.20872	1.23330
1531.28016	1.22670
1529.35159	1.21933
1527.42303	1.21242
1525.49446	1.20730
1523.56590	1.20413
1521.63733	1.20450
1519.70877	1.20677
1517.78021	1.20406
1515.85164	1.19524
1513.92308	1.18309
1511.99451	1.16892
1510.06595	1.15352
1508.13738	1.13355
1506.20882	1.10440
1504.28025	1.08335
1502.35169	1.06583
1500.42313	1.04639
1498.49456	1.02360
1496.56600	0.99852
1494.63743	0.97787
1492.70887	0.96186
1490.78030	0.94523
1488.85174	0.92713
1486.92317	0.91329
1484.99461	0.90367
1483.06605	0.89728
1481.13748	0.89423
1479.20892	0.89380
1477.28035	0.89632
1475.35179	0.90482
1473.42322	0.92390
1471.49466	0.94474
1469.56610	0.95398
1467.63753	0.95935
1465.70897	0.96919
1463.78040	0.98130
1461.85184	0.98600
1459.92327	0.98602
1457.99471	0.99180
1456.06614	1.00412
1454.13758	1.00649
1452.20902	1.00416
1450.28045	1.00142
1448.35189	0.99879
1446.42332	0.99526
1444.49476	0.99002
1442.56619	0.98350
1440.63763	0.97646
1438.70906	0.96914
1436.78050	0.96077
1434.85194	0.95095
1432.92337	0.94070
1430.99481	0.93034
1429.06624	0.92069
1427.13768	0.91300
1425.20911	0.90765
1423.28055	0.90448
1421.35198	0.90292
1419.42342	0.90449
1417.49486	0.90794
1415.56629	0.90796
1413.63773	0.90622
1411.70916	0.90491
1409.78060	0.90410
1407.85203	0.90335
1405.92347	0.90362
1403.99490	0.90516
1402.06634	0.90579
1400.13778	0.90595
1398.20921	0.90740
1396.28065	0.91028
1394.35208	0.91450
1392.42352	0.91864
1390.49495	0.92292
1388.56639	0.93154
1386.63782	0.94623
1384.70926	0.96010
1382.78070	0.97029
1380.85213	0.97763
1378.92357	0.98035
1376.99500	0.97731
1375.06644	0.96881
1373.13787	0.95650
1371.20931	0.94331
1369.28074	0.92894
1367.35218	0.91345
1365.42362	0.89926
1363.49505	0.88764
1361.56649	0.87957
1359.63792	0.87385
1357.70936	0.86888
1355.78079	0.86543
1353.85223	0.86416
1351.92366	0.86424
1349.99510	0.86503
1348.06654	0.86639
1346.13797	0.86815
1344.20941	0.87038
1342.28084	0.87355
1340.35228	0.87881
1338.42371	0.88614
1336.49515	0.89411
1334.56659	0.90297
1332.63802	0.91294
1330.70946	0.92312
1328.78089	0.93223
1326.85233	0.93922
1324.92376	0.94413
1322.99520	0.94777
1321.06663	0.95119
1319.13807	0.95527
1317.20951	0.95966
1315.28094	0.96330
1313.35238	0.96626
1311.42381	0.96876
1309.49525	0.97028
1307.56668	0.97072
1305.63812	0.97075
1303.70955	0.97114
1301.78099	0.97215
1299.85243	0.97314
1297.92386	0.97366
1295.99530	0.97463
1294.06673	0.97691
1292.13817	0.98039
1290.20960	0.98522
1288.28104	0.99112
1286.35247	0.99666
1284.42391	1.00128
1282.49535	1.00559
1280.56678	1.00953
1278.63822	1.01303
1276.70965	1.01690
1274.78109	1.02133
1272.85252	1.02600
1270.92396	1.03080
1268.99539	1.03528
1267.06683	1.03904
1265.13827	1.04161
1263.20970	1.04193
1261.28114	1.03962
1259.35257	1.03578
1257.42401	1.03180
1255.49544	1.02848
1253.56688	1.02600
1251.63831	1.02418
1249.70975	1.02280
1247.78119	1.02163
1245.85262	1.02038
1243.92406	1.01913
1241.99549	1.01802
1240.06693	1.01677
1238.13836	1.01503
1236.20980	1.01255
1234.28123	1.00928
1232.35267	1.00553
1230.42411	1.00155
1228.49554	0.99711
1226.56698	0.99179
1224.63841	0.98577
1222.70985	0.97924
1220.78128	0.97214
1218.85272	0.96507
1216.92415	0.95915
1214.99559	0.95496
1213.06703	0.95242
1211.13846	0.95152
1209.20990	0.95167
1207.28133	0.95073
1205.35277	0.94654
1203.42420	0.93925
1201.49564	0.93102
1199.56708	0.92314
1197.63851	0.91562
1195.70995	0.90868
1193.78138	0.90329
1191.85282	0.90072
1189.92425	0.90114
1187.99569	0.90362
1186.06712	0.90728
1184.13856	0.91175
1182.21000	0.91735
1180.28143	0.92464
1178.35287	0.93344
1176.42430	0.94271
1174.49574	0.95204
1172.56717	0.96161
1170.63861	0.97137
1168.71004	0.98197
1166.78148	0.99361
1164.85292	1.00469
1162.92435	1.01305
1160.99579	1.01712
1159.06722	1.01588
1157.13866	1.00889
1155.21009	0.99689
1153.28153	0.98232
1151.35296	0.96755
1149.42440	0.95361
1147.49584	0.94167
1145.56727	0.93257
1143.63871	0.92671
1141.71014	0.92525
1139.78158	0.92862
1137.85301	0.93543
1135.92445	0.94431
1133.99588	0.95514
1132.06732	0.96856
1130.13876	0.98432
1128.21019	1.00093
1126.28163	1.01674
1124.35306	1.03018
1122.42450	1.04042
1120.49593	1.04755
1118.56737	1.05164
1116.63880	1.05235
1114.71024	1.04923
1112.78168	1.04316
1110.85311	1.03608
1108.92455	1.02880
1106.99598	1.02198
1105.06742	1.01738
1103.13885	1.01572
1101.21029	1.01607
1099.28172	1.01836
1097.35316	1.02318
1095.42460	1.03017
1093.49603	1.03939
1091.56747	1.05135
1089.63890	1.06539
1087.71034	1.07953
1085.78177	1.09236
1083.85321	1.10413
1081.92464	1.11423
1079.99608	1.12039
1078.06752	1.12136
1076.13895	1.11790
1074.21039	1.11110
1072.28182	1.10194
1070.35326	1.09204
1068.42469	1.08216
1066.49613	1.07113
1064.56756	1.05846
1062.63900	1.04536
1060.71044	1.03317
1058.78187	1.02316
1056.85331	1.01570
1054.92474	1.01009
1052.99618	1.00657
1051.06761	1.00552
1049.13905	1.00661
1047.21049	1.01085
1045.28192	1.01965
1043.35336	1.03098
1041.42479	1.04092
1039.49623	1.04830
1037.56766	1.05422
1035.63910	1.05856
1033.71053	1.05999
1031.78197	1.05851
1029.85341	1.05509
1027.92484	1.04939
1025.99628	1.04105
1024.06771	1.03167
1022.13915	1.02329
1020.21058	1.01645
1018.28202	1.01016
1016.35345	1.00274
1014.42489	0.99309
1012.49633	0.98131
1010.56776	0.96780
1008.63920	0.95285
1006.71063	0.93736
1004.78207	0.92318
1002.85350	0.91181
1000.92494	0.90342
998.99637	0.89765
997.06781	0.89405
995.13925	0.89178
993.21068	0.88991
991.28212	0.88793
989.35355	0.88537
987.42499	0.88214
985.49642	0.87946
983.56786	0.87842
981.63929	0.87914
979.71073	0.88127
977.78217	0.88346
975.85360	0.88401
973.92504	0.88200
971.99647	0.87765
970.06791	0.87204
968.13934	0.86622
966.21078	0.86139
964.28221	0.85929
962.35365	0.86157
960.42509	0.86929
958.49652	0.88197
956.56796	0.89562
954.63939	0.90427
952.71083	0.90521
950.78226	0.90018
948.85370	0.89220
946.92513	0.88374
944.99657	0.87621
943.06801	0.87023
941.13944	0.86615
939.21088	0.86328
937.28231	0.86030
935.35375	0.85713
933.42518	0.85440
931.49662	0.85205
929.56805	0.85022
927.63949	0.84932
925.71093	0.84922
923.78236	0.84967
921.85380	0.85041
919.92523	0.85070
917.99667	0.85029
916.06810	0.84979
914.13954	0.84942
912.21098	0.84931
910.28241	0.85003
908.35385	0.85212
906.42528	0.85579
904.49672	0.86055
902.56815	0.86524
900.63959	0.86921
898.71102	0.87237
896.78246	0.87423
894.85390	0.87463
892.92533	0.87398
890.99677	0.87230
889.06820	0.86964
887.13964	0.86628
885.21107	0.86293
883.28251	0.86088
881.35394	0.85997
879.42538	0.85903
877.49682	0.85804
875.56825	0.85707
873.63969	0.85594
871.71112	0.85489
869.78256	0.85386
867.85399	0.85255
865.92543	0.85084
863.99686	0.84911
862.06830	0.84794
860.13974	0.84709
858.21117	0.84648
856.28261	0.84651
854.35404	0.84647
852.42548	0.84555
850.49691	0.84442
848.56835	0.84401
846.63978	0.84403
844.71122	0.84395
842.78266	0.84399
840.85409	0.84490
838.92553	0.84698
836.99696	0.84938
835.06840	0.85157
833.13983	0.85392
831.21127	0.85601
829.28270	0.85719
827.35414	0.85817
825.42558	0.85923
823.49701	0.85913
821.56845	0.85744
819.63988	0.85510
817.71132	0.85271
815.78275	0.85024
813.85419	0.84731
811.92562	0.84393
809.99706	0.84056
808.06850	0.83704
806.13993	0.83307
804.21137	0.82930
802.28280	0.82608
800.35424	0.82280
798.42567	0.81942
796.49711	0.81672
794.56854	0.81500
792.63998	0.81398
790.71142	0.81335
788.78285	0.81324
786.85429	0.81416
784.92572	0.81570
782.99716	0.81682
781.06859	0.81760
779.14003	0.81850
777.21147	0.81907
775.28290	0.81893
773.35434	0.81827
771.42577	0.81737
769.49721	0.81684
767.56864	0.81702
765.64008	0.81699
763.71151	0.81620
761.78295	0.81523
759.85439	0.81488
757.92582	0.81532
755.99726	0.81580
754.06869	0.81623
752.14013	0.81707
750.21156	0.81792
748.28300	0.81866
746.35443	0.81978
744.42587	0.82087
742.49731	0.82111
740.56874	0.82032
738.64018	0.81896
736.71161	0.81768
734.78305	0.81726
732.85448	0.81793
730.92592	0.81878
728.99735	0.81899
727.06879	0.81886
725.14023	0.81915
723.21166	0.82020
721.28310	0.82153
719.35453	0.82221
717.42597	0.82178
715.49740	0.82082
713.56884	0.82034
711.64027	0.82094
709.71171	0.82221
707.78315	0.82346
705.85458	0.82513
703.92602	0.82739
701.99745	0.82896
700.06889	0.82884
698.14032	0.82705
696.21176	0.82464
694.28319	0.82305
692.35463	0.82170
690.42607	0.81902
688.49750	0.81553
686.56894	0.81281
684.64037	0.81069
682.71181	0.80748
680.78324	0.80275
678.85468	0.79832
676.92611	0.79541
674.99755	0.79325
673.06899	0.79101
671.14042	0.78859
669.21186	0.78573
667.28329	0.78211
665.35473	0.77856
663.42616	0.77532
661.49760	0.77288
659.56903	0.77157
657.64047	0.77037
655.71191	0.76893
653.78334	0.76722
651.85478	0.76437
649.92621	0.76111
647.99765	0.75913
646.06908	0.75846
644.14052	0.75821
642.21195	0.75861
640.28339	0.76073
638.35483	0.76336
636.42626	0.76331
634.49770	0.76012
632.56913	0.75676
630.64057	0.75495
628.71200	0.75328
626.78344	0.75062
624.85488	0.74797
622.92631	0.74579
620.99775	0.74284
619.06918	0.73922
617.14062	0.73742
615.21205	0.73802
613.28349	0.73832
611.35492	0.73684
609.42636	0.73452
607.49780	0.73270
605.56923	0.73162
603.64067	0.73054
601.71210	0.73028
599.78354	0.73209
