3997.91406	0.58216
3995.98550	0.58313
3994.05693	0.58491
3992.12837	0.58573
3990.19980	0.58559
3988.27124	0.58476
3986.34268	0.58313
3984.41411	0.58211
3982.48555	0.58254
3980.55698	0.58302
3978.62842	0.58230
3976.69985	0.58114
3974.77129	0.58040
3972.84272	0.57974
3970.91416	0.57932
3968.98560	0.57933
3967.05703	0.57844
3965.12847	0.57658
3963.19990	0.57590
3961.27134	0.57607
3959.34277	0.57518
3957.41421	0.57428
3955.48564	0.57368
3953.55708	0.57166
3951.62852	0.56847
3949.69995	0.56794
3947.77139	0.57082
3945.84282	0.57210
3943.91426	0.57326
3941.98569	0.57627
3940.05713	0.57598
3938.12856	0.57248
3936.20000	0.56856
3934.27144	0.56578
3932.34287	0.56764
3930.41431	0.57200
3928.48574	0.57179
3926.55718	0.56924
3924.62861	0.56977
3922.70005	0.57079
3920.77148	0.56951
3918.84292	0.56997
3916.91436	0.57360
3914.98579	0.57457
3913.05723	0.57159
3911.12866	0.56856
3909.20010	0.56449
3907.27153	0.55732
3905.34297	0.55242
3903.41440	0.55524
3901.48584	0.56037
3899.55728	0.56519
3897.62871	0.56713
3895.70015	0.56223
3893.77158	0.55630
3891.84302	0.55992
3889.91445	0.56346
3887.98589	0.55657
3886.05733	0.55234
3884.12876	0.55537
3882.20020	0.55662
3880.27163	0.56025
3878.34307	0.56074
3876.41450	0.55543
3874.48594	0.55179
3872.55737	0.55005
3870.62881	0.55367
3868.70025	0.56014
3866.77168	0.55776
3864.84312	0.55641
3862.91455	0.56162
3860.98599	0.56168
3859.05742	0.55533
3857.12886	0.54540
3855.20029	0.53867
3853.27173	0.55663
3851.34317	0.57342
3849.41460	0.56949
3847.48604	0.55982
3845.55747	0.55156
3843.62891	0.54746
3841.70034	0.54380
3839.77178	0.54101
3837.84321	0.54755
3835.91465	0.55488
3833.98609	0.55624
3832.05752	0.55602
3830.12896	0.55410
3828.20039	0.55140
3826.27183	0.54965
3824.34326	0.54408
3822.41470	0.54037
3820.48613	0.54911
3818.55757	0.55275
3816.62901	0.55557
3814.70044	0.56222
3812.77188	0.55956
3810.84331	0.55018
3808.91475	0.54270
3806.98618	0.54435
3805.05762	0.54486
3803.12905	0.54216
3801.20049	0.55217
3799.27193	0.55929
3797.34336	0.55730
3795.41480	0.55638
3793.48623	0.55420
3791.55767	0.55169
3789.62910	0.55060
3787.70054	0.54894
3785.77197	0.54837
3783.84341	0.54794
3781.91485	0.54443
3779.98628	0.54462
3778.05772	0.54971
3776.12915	0.54946
3774.20059	0.54401
3772.27202	0.53915
3770.34346	0.54016
3768.41489	0.54367
3766.48633	0.54517
3764.55777	0.54660
3762.62920	0.54421
3760.70064	0.54050
3758.77207	0.54311
3756.84351	0.54423
3754.91494	0.53625
3752.98638	0.52628
3751.05781	0.53068
3749.12925	0.53860
3747.20069	0.53375
3745.27212	0.53698
3743.34356	0.54902
3741.41499	0.54585
3739.48643	0.53323
3737.55786	0.52393
3735.62930	0.53046
3733.70074	0.54742
3731.77217	0.55305
3729.84361	0.54788
3727.91504	0.54073
3725.98648	0.53836
3724.05791	0.54085
3722.12935	0.54430
3720.20078	0.54657
3718.27222	0.54550
3716.34366	0.54003
3714.41509	0.53145
3712.48653	0.52895
3710.55796	0.54052
3708.62940	0.54717
3706.70083	0.54400
3704.77227	0.53841
3702.84370	0.53838
3700.91514	0.54440
3698.98658	0.54547
3697.05801	0.54193
3695.12945	0.53782
3693.20088	0.53228
3691.27232	0.52884
3689.34375	0.53896
3687.41519	0.55121
3685.48662	0.55210
3683.55806	0.54803
3681.62950	0.54374
3679.70093	0.53922
3677.77237	0.53558
3675.84380	0.54549
3673.91524	0.55613
3671.98667	0.55371
3670.05811	0.56159
3668.12954	0.57357
3666.20098	0.57302
3664.27242	0.57013
3662.34385	0.57005
3660.41529	0.57039
3658.48672	0.57088
3656.55816	0.57676
3654.62959	0.58071
3652.70103	0.57462
3650.77246	0.57201
3648.84390	0.59551
3646.91534	0.61390
3644.98677	0.61405
3643.05821	0.61205
3641.12964	0.61298
3639.20108	0.61517
3637.27251	0.61698
3635.34395	0.61905
3633.41538	0.61993
3631.48682	0.61822
3629.55826	0.62751
3627.62969	0.64952
3625.70113	0.65470
3623.77256	0.64988
3621.84400	0.64593
3619.91543	0.65177
3617.98687	0.66378
3616.05830	0.66759
3614.12974	0.67065
3612.20118	0.67630
3610.27261	0.67914
3608.34405	0.68455
3606.41548	0.69138
3604.48692	0.69174
3602.55835	0.69052
3600.62979	0.69425
3598.70123	0.69997
3596.77266	0.70517
3594.84410	0.71263
3592.91553	0.71733
3590.98697	0.71513
3589.05840	0.71544
3587.12984	0.72855
3585.20127	0.74041
3583.27271	0.74401
3581.34415	0.74694
3579.41558	0.75134
3577.48702	0.75583
3575.55845	0.76001
3573.62989	0.76325
3571.70132	0.76404
3569.77276	0.76425
3567.84419	0.77312
3565.91563	0.79002
3563.98707	0.79756
3562.05850	0.80011
3560.12994	0.80579
3558.20137	0.81334
3556.27281	0.81829
3554.34424	0.82222
3552.41568	0.82823
3550.48711	0.83131
3548.55855	0.83075
3546.62999	0.83512
3544.70142	0.84611
3542.77286	0.85520
3540.84429	0.86001
3538.91573	0.86424
3536.98716	0.87139
3535.05860	0.87940
3533.13003	0.88404
3531.20147	0.88656
3529.27291	0.89075
3527.34434	0.89823
3525.41578	0.90749
3523.48721	0.91720
3521.55865	0.92538
3519.63008	0.93080
3517.70152	0.93559
3515.77295	0.93960
3513.84439	0.94313
3511.91583	0.95067
3509.98726	0.96323
3508.05870	0.97424
3506.13013	0.97994
3504.20157	0.98663
3502.27300	0.99852
3500.34444	1.01007
3498.41587	1.02044
3496.48731	1.03306
3494.55875	1.04459
3492.63018	1.04982
3490.70162	1.05177
3488.77305	1.05672
3486.84449	1.06528
3484.91592	1.07289
3482.98736	1.07882
3481.05879	1.08578
3479.13023	1.09125
3477.20167	1.09236
3475.27310	1.09249
3473.34454	1.09549
3471.41597	1.10013
3469.48741	1.10375
3467.55884	1.10634
3465.63028	1.10977
3463.70171	1.11612
3461.77315	1.12413
3459.84459	1.13001
3457.91602	1.13317
3455.98746	1.13550
3454.05889	1.13865
3452.13033	1.14287
3450.20176	1.14840
3448.27320	1.15675
3446.34464	1.16453
3444.41607	1.16711
3442.48751	1.16812
3440.55894	1.17038
3438.63038	1.17241
3436.70181	1.17411
3434.77325	1.17709
3432.84468	1.18167
3430.91612	1.18486
3428.98756	1.18413
3427.05899	1.18176
3425.13043	1.18093
3423.20186	1.18058
3421.27330	1.18050
3419.34473	1.18386
3417.41617	1.18849
3415.48760	1.19013
3413.55904	1.19017
3411.63048	1.19106
3409.70191	1.19185
3407.77335	1.19221
3405.84478	1.19372
3403.91622	1.19538
3401.98765	1.19589
3400.05909	1.19652
3398.13052	1.19684
3396.20196	1.19471
3394.27340	1.19221
3392.34483	1.19360
3390.41627	1.19785
3388.48770	1.20172
3386.55914	1.20403
3384.63057	1.20622
3382.70201	1.21172
3380.77344	1.21787
3378.84488	1.21923
3376.91632	1.22030
3374.98775	1.22456
3373.05919	1.22488
3371.13062	1.22198
3369.20206	1.22513
3367.27349	1.23384
3365.34493	1.24009
3363.41636	1.23985
3361.48780	1.23657
3359.55924	1.23544
3357.63067	1.23807
3355.70211	1.24278
3353.77354	1.24684
3351.84498	1.25120
3349.91641	1.25678
3347.98785	1.26036
3346.05928	1.26277
3344.13072	1.26680
3342.20216	1.26926
3340.27359	1.26888
3338.34503	1.27082
3336.41646	1.27850
3334.48790	1.28777
3332.55933	1.29323
3330.63077	1.29781
3328.70220	1.30393
3326.77364	1.30800
3324.84508	1.31175
3322.91651	1.31836
3320.98795	1.32498
3319.05938	1.33076
3317.13082	1.33781
3315.20225	1.34336
3313.27369	1.34465
3311.34513	1.34723
3309.41656	1.35462
3307.48800	1.36195
3305.55943	1.36616
3303.63087	1.36809
3301.70230	1.36894
3299.77374	1.37055
3297.84517	1.37339
3295.91661	1.37886
3293.98805	1.38817
3292.05948	1.39426
3290.13092	1.39212
3288.20235	1.38906
3286.27379	1.38970
3284.34522	1.39123
3282.41666	1.39129
3280.48809	1.38936
3278.55953	1.38684
3276.63097	1.38435
3274.70240	1.38060
3272.77384	1.37671
3270.84527	1.37326
3268.91671	1.36966
3266.98814	1.36657
3265.05958	1.36100
3263.13101	1.35293
3261.20245	1.34844
3259.27389	1.34559
3257.34532	1.33715
3255.41676	1.32411
3253.48819	1.31254
3251.55963	1.30346
3249.63106	1.29314
3247.70250	1.28113
3245.77393	1.27056
3243.84537	1.26243
3241.91681	1.25500
3239.98824	1.24651
3238.05968	1.23692
3236.13111	1.22819
3234.20255	1.22147
3232.27398	1.21582
3230.34542	1.21042
3228.41685	1.20550
3226.48829	1.20155
3224.55973	1.19834
3222.63116	1.19489
3220.70260	1.19056
3218.77403	1.18559
3216.84547	1.18086
3214.91690	1.17693
3212.98834	1.17362
3211.05977	1.16868
3209.13121	1.16228
3207.20265	1.15797
3205.27408	1.15498
3203.34552	1.15130
3201.41695	1.14570
3199.48839	1.13711
3197.55982	1.12886
3195.63126	1.12327
3193.70269	1.11881
3191.77413	1.11342
3189.84557	1.10574
3187.91700	1.09831
3185.98844	1.09339
3184.05987	1.08921
3182.13131	1.08504
3180.20274	1.08085
3178.27418	1.07468
3176.34562	1.06697
3174.41705	1.06048
3172.48849	1.05624
3170.55992	1.05366
3168.63136	1.05061
3166.70279	1.04658
3164.77423	1.04307
3162.84566	1.03916
3160.91710	1.03479
3158.98854	1.03226
3157.05997	1.03047
3155.13141	1.02674
3153.20284	1.02215
3151.27428	1.01851
3149.34571	1.01526
3147.41715	1.01212
3145.48858	1.00952
3143.56002	1.00693
3141.63146	1.00386
3139.70289	1.00104
3137.77433	0.99945
3135.84576	0.99864
3133.91720	0.99697
3131.98863	0.99442
3130.06007	0.99324
3128.13150	0.99418
3126.20294	0.99566
3124.27438	0.99659
3122.34581	0.99749
3120.41725	0.99906
3118.48868	0.99986
3116.56012	0.99875
3114.63155	0.99864
3112.70299	1.00159
3110.77442	1.00402
3108.84586	1.00275
3106.91730	1.00020
3104.98873	0.99939
3103.06017	0.99967
3101.13160	0.99947
3099.20304	0.99867
3097.27447	0.99761
3095.34591	0.99575
3093.41734	0.99291
3091.48878	0.99035
3089.56022	0.98882
3087.63165	0.98784
3085.70309	0.98730
3083.77452	0.98726
3081.84596	0.98661
3079.91739	0.98399
3077.98883	0.97999
3076.06026	0.97741
3074.13170	0.97719
3072.20314	0.97676
3070.27457	0.97384
3068.34601	0.96939
3066.41744	0.96555
3064.48888	0.96199
3062.56031	0.95794
3060.63175	0.95421
3058.70318	0.94982
3056.77462	0.94395
3054.84606	0.93860
3052.91749	0.93437
3050.98893	0.93038
3049.06036	0.92657
3047.13180	0.92237
3045.20323	0.91760
3043.27467	0.91351
3041.34610	0.91051
3039.41754	0.90768
3037.48898	0.90432
3035.56041	0.90074
3033.63185	0.89751
3031.70328	0.89481
3029.77472	0.89251
3027.84615	0.89006
3025.91759	0.88770
3023.98903	0.88601
3022.06046	0.88410
3020.13190	0.88204
3018.20333	0.88082
3016.27477	0.87892
3014.34620	0.87516
3012.41764	0.87198
3010.48907	0.87107
3008.56051	0.87105
3006.63195	0.87071
3004.70338	0.86994
3002.77482	0.86850
3000.84625	0.86693
2998.91769	0.86612
2996.98912	0.86621
2995.06056	0.86774
2993.13199	0.87121
2991.20343	0.87601
2989.27487	0.88179
2987.34630	0.88859
2985.41774	0.89526
2983.48917	0.90072
2981.56061	0.90612
2979.63204	0.91249
2977.70348	0.91898
2975.77491	0.92554
2973.84635	0.93353
2971.91779	0.94332
2969.98922	0.95329
2968.06066	0.96169
2966.13209	0.96852
2964.20353	0.97424
2962.27496	0.97852
2960.34640	0.98055
2958.41783	0.97928
2956.48927	0.97481
2954.56071	0.96939
2952.63214	0.96483
2950.70358	0.96097
2948.77501	0.95811
2946.84645	0.95842
2944.91788	0.96410
2942.98932	0.97461
2941.06075	0.98724
2939.13219	1.00027
2937.20363	1.01333
2935.27506	1.02656
2933.34650	1.04011
2931.41793	1.05355
2929.48937	1.06660
2927.56080	1.07897
2925.63224	1.09078
2923.70367	1.10333
2921.77511	1.11503
2919.84655	1.12061
2917.91798	1.11496
2915.98942	1.09530
2914.06085	1.06511
2912.13229	1.03336
2910.20372	1.00741
2908.27516	0.98840
2906.34659	0.97368
2904.41803	0.96210
2902.48947	0.95396
2900.56090	0.94857
2898.63234	0.94461
2896.70377	0.94073
2894.77521	0.93681
2892.84664	0.93363
2890.91808	0.93026
2888.98952	0.92580
2887.06095	0.92135
2885.13239	0.91793
2883.20382	0.91576
2881.27526	0.91491
2879.34669	0.91501
2877.41813	0.91534
2875.48956	0.91533
2873.56100	0.91407
2871.63244	0.91002
2869.70387	0.90353
2867.77531	0.89711
2865.84674	0.89213
2863.91818	0.88917
2861.98961	0.88984
2860.06105	0.89545
2858.13248	0.90520
2856.20392	0.91756
2854.27536	0.93242
2852.34679	0.94823
2850.41823	0.95621
2848.48966	0.94431
2846.56110	0.91394
2844.63253	0.88031
2842.70397	0.85346
2840.77540	0.83361
2838.84684	0.81909
2836.91828	0.80889
2834.98971	0.80137
2833.06115	0.79510
2831.13258	0.78981
2829.20402	0.78527
2827.27545	0.78082
2825.34689	0.77673
2823.41832	0.77386
2821.48976	0.77172
2819.56120	0.76943
2817.63263	0.76696
2815.70407	0.76455
2813.77550	0.76233
2811.84694	0.76017
2809.91837	0.75817
2807.98981	0.75671
2806.06124	0.75516
2804.13268	0.75299
2802.20412	0.75087
2800.27555	0.74890
2798.34699	0.74653
2796.41842	0.74418
2794.48986	0.74225
2792.56129	0.74008
2790.63273	0.73749
2788.70416	0.73497
2786.77560	0.73300
2784.84704	0.73166
2782.91847	0.72993
2780.98991	0.72721
2779.06134	0.72461
2777.13278	0.72261
2775.20421	0.72064
2773.27565	0.71882
2771.34708	0.71702
2769.41852	0.71469
2767.48996	0.71254
2765.56139	0.71128
2763.63283	0.71019
2761.70426	0.70888
2759.77570	0.70764
2757.84713	0.70631
2755.91857	0.70485
2753.99001	0.70391
2752.06144	0.70347
2750.13288	0.70281
2748.20431	0.70182
2746.27575	0.70097
2744.34718	0.70069
2742.41862	0.70058
2740.49005	0.70002
2738.56149	0.69919
2736.63293	0.69863
2734.70436	0.69811
2732.77580	0.69721
2730.84723	0.69637
2728.91867	0.69575
2726.99010	0.69459
2725.06154	0.69299
2723.13297	0.69182
2721.20441	0.69115
2719.27585	0.69023
2717.34728	0.68879
2715.41872	0.68730
2713.49015	0.68610
2711.56159	0.68479
2709.63302	0.68310
2707.70446	0.68143
2705.77589	0.68002
2703.84733	0.67888
2701.91877	0.67787
2699.99020	0.67666
2698.06164	0.67541
2696.13307	0.67442
2694.20451	0.67347
2692.27594	0.67251
2690.34738	0.67188
2688.41881	0.67146
2686.49025	0.67105
2684.56169	0.67074
2682.63312	0.67023
2680.70456	0.66955
2678.77599	0.66919
2676.84743	0.66909
2674.91886	0.66923
2672.99030	0.66983
2671.06173	0.67043
2669.13317	0.67027
2667.20461	0.66955
2665.27604	0.66895
2663.34748	0.66849
2661.41891	0.66787
2659.49035	0.66709
2657.56178	0.66634
2655.63322	0.66560
2653.70465	0.66462
2651.77609	0.66327
2649.84753	0.66186
2647.91896	0.66084
2645.99040	0.66001
2644.06183	0.65869
2642.13327	0.65704
2640.20470	0.65594
2638.27614	0.65541
2636.34757	0.65484
2634.41901	0.65416
2632.49045	0.65343
2630.56188	0.65272
2628.63332	0.65215
2626.70475	0.65149
2624.77619	0.65078
2622.84762	0.65038
2620.91906	0.65013
2618.99049	0.64937
2617.06193	0.64815
2615.13337	0.64717
2613.20480	0.64650
2611.27624	0.64595
2609.34767	0.64569
2607.41911	0.64558
2605.49054	0.64518
2603.56198	0.64459
2601.63342	0.64409
2599.70485	0.64345
2597.77629	0.64285
2595.84772	0.64268
2593.91916	0.64246
2591.99059	0.64220
2590.06203	0.64246
2588.13346	0.64291
2586.20490	0.64297
2584.27634	0.64275
2582.34777	0.64237
2580.41921	0.64168
2578.49064	0.64085
2576.56208	0.64019
2574.63351	0.63957
2572.70495	0.63873
2570.77638	0.63773
2568.84782	0.63675
2566.91926	0.63567
2564.99069	0.63453
2563.06213	0.63361
2561.13356	0.63276
2559.20500	0.63171
2557.27643	0.63066
2555.34787	0.62971
2553.41930	0.62869
2551.49074	0.62765
2549.56218	0.62709
2547.63361	0.62728
2545.70505	0.62773
2543.77648	0.62792
2541.84792	0.62783
2539.91935	0.62747
2537.99079	0.62700
2536.06222	0.62692
2534.13366	0.62724
2532.20510	0.62726
2530.27653	0.62684
2528.34797	0.62655
2526.41940	0.62657
2524.49084	0.62667
2522.56227	0.62661
2520.63371	0.62618
2518.70514	0.62545
2516.77658	0.62467
2514.84802	0.62394
2512.91945	0.62320
2510.99089	0.62236
2509.06232	0.62161
2507.13376	0.62106
2505.20519	0.62024
2503.27663	0.61885
2501.34806	0.61758
2499.41950	0.61682
2497.49094	0.61592
2495.56237	0.61473
2493.63381	0.61380
2491.70524	0.61316
2489.77668	0.61244
2487.84811	0.61177
2485.91955	0.61129
2483.99098	0.61088
2482.06242	0.61038
2480.13386	0.60961
2478.20529	0.60885
2476.27673	0.60825
2474.34816	0.60762
2472.41960	0.60711
2470.49103	0.60655
2468.56247	0.60563
2466.63391	0.60456
2464.70534	0.60371
2462.77678	0.60322
2460.84821	0.60284
2458.91965	0.60227
2456.99108	0.60168
2455.06252	0.60122
2453.13395	0.60060
2451.20539	0.59974
2449.27683	0.59878
2447.34826	0.59789
2445.41970	0.59742
2443.49113	0.59731
2441.56257	0.59717
2439.63400	0.59675
2437.70544	0.59612
2435.77687	0.59564
2433.84831	0.59516
2431.91975	0.59431
2429.99118	0.59350
2428.06262	0.59333
2426.13405	0.59335
2424.20549	0.59294
2422.27692	0.59239
2420.34836	0.59175
2418.41979	0.59081
2416.49123	0.58989
2414.56267	0.58903
2412.63410	0.58790
2410.70554	0.58692
2408.77697	0.58646
2406.84841	0.58607
2404.91984	0.58534
2402.99128	0.58469
2401.06271	0.58447
2399.13415	0.58439
2397.20559	0.58398
2395.27702	0.58342
2393.34846	0.58321
2391.41989	0.58319
2389.49133	0.58284
2387.56276	0.58201
2385.63420	0.58077
2383.70563	0.57939
2381.77707	0.57852
2379.84851	0.57819
2377.91994	0.57749
2375.99138	0.57592
2374.06281	0.57415
2372.13425	0.57301
2370.20568	0.57238
2368.27712	0.57139
2366.34855	0.57009
2364.41999	0.56953
2362.49143	0.56961
2360.56286	0.57051
2358.63430	0.57296
2356.70573	0.57494
2354.77717	0.57413
2352.84860	0.57203
2350.92004	0.56943
2348.99147	0.56592
2347.06291	0.56273
2345.13435	0.56175
2343.20578	0.56233
2341.27722	0.56250
2339.34865	0.56248
2337.42009	0.56282
2335.49152	0.56333
2333.56296	0.56287
2331.63440	0.56187
2329.70583	0.56181
2327.77727	0.56182
2325.84870	0.56106
2323.92014	0.56023
2321.99157	0.55926
2320.06301	0.55744
2318.13444	0.55489
2316.20588	0.55265
2314.27732	0.55123
2312.34875	0.55010
2310.42019	0.54920
2308.49162	0.54875
2306.56306	0.54850
2304.63449	0.54833
2302.70593	0.54822
2300.77736	0.54792
2298.84880	0.54750
2296.92024	0.54737
2294.99167	0.54766
2293.06311	0.54807
2291.13454	0.54822
2289.20598	0.54794
2287.27741	0.54742
2285.34885	0.54691
2283.42028	0.54627
2281.49172	0.54529
2279.56316	0.54416
2277.63459	0.54297
2275.70603	0.54144
2273.77746	0.53970
2271.84890	0.53820
2269.92033	0.53697
2267.99177	0.53580
2266.06320	0.53459
2264.13464	0.53360
2262.20608	0.53299
2260.27751	0.53257
2258.34895	0.53234
2256.42038	0.53225
2254.49182	0.53192
2252.56325	0.53146
2250.63469	0.53131
2248.70612	0.53131
2246.77756	0.53114
2244.84900	0.53087
2242.92043	0.53040
2240.99187	0.52952
2239.06330	0.52841
2237.13474	0.52739
2235.20617	0.52645
2233.27761	0.52548
2231.34904	0.52453
2229.42048	0.52369
2227.49192	0.52288
2225.56335	0.52202
2223.63479	0.52129
2221.70622	0.52109
2219.77766	0.52151
2217.84909	0.52197
2215.92053	0.52218
2213.99196	0.52250
2212.06340	0.52310
2210.13484	0.52375
2208.20627	0.52417
2206.27771	0.52434
2204.34914	0.52449
2202.42058	0.52456
2200.49201	0.52427
2198.56345	0.52345
2196.63488	0.52218
2194.70632	0.52068
2192.77776	0.51902
2190.84919	0.51700
2188.92063	0.51465
2186.99206	0.51244
2185.06350	0.51052
2183.13493	0.50856
2181.20637	0.50668
2179.27781	0.50529
2177.34924	0.50424
2175.42068	0.50337
2173.49211	0.50283
2171.56355	0.50259
2169.63498	0.50260
2167.70642	0.50300
2165.77785	0.50382
2163.84929	0.50473
2161.92073	0.50534
2159.99216	0.50572
2158.06360	0.50593
2156.13503	0.50587
2154.20647	0.50561
2152.27790	0.50522
2150.34934	0.50450
2148.42077	0.50337
2146.49221	0.50195
2144.56365	0.50030
2142.63508	0.49853
2140.70652	0.49665
2138.77795	0.49469
2136.84939	0.49293
2134.92082	0.49147
2132.99226	0.49016
2131.06369	0.48886
2129.13513	0.48768
2127.20657	0.48690
2125.27800	0.48657
2123.34944	0.48640
2121.42087	0.48610
2119.49231	0.48561
2117.56374	0.48510
2115.63518	0.48469
2113.70661	0.48444
2111.77805	0.48429
2109.84949	0.48399
2107.92092	0.48340
2105.99236	0.48284
2104.06379	0.48245
2102.13523	0.48202
2100.20666	0.48146
2098.27810	0.48092
2096.34953	0.48066
2094.42097	0.48059
2092.49241	0.48037
2090.56384	0.48011
2088.63528	0.48024
2086.70671	0.48074
2084.77815	0.48123
2082.84958	0.48162
2080.92102	0.48217
2078.99245	0.48283
2077.06389	0.48339
2075.13533	0.48387
2073.20676	0.48431
2071.27820	0.48457
2069.34963	0.48452
2067.42107	0.48427
2065.49250	0.48388
2063.56394	0.48300
2061.63537	0.48153
2059.70681	0.47989
2057.77825	0.47823
2055.84968	0.47643
2053.92112	0.47442
2051.99255	0.47234
2050.06399	0.47046
2048.13542	0.46881
2046.20686	0.46741
2044.27830	0.46628
2042.34973	0.46549
2040.42117	0.46506
2038.49260	0.46472
2036.56404	0.46438
2034.63547	0.46406
2032.70691	0.46377
2030.77834	0.46366
2028.84978	0.46357
2026.92122	0.46332
2024.99265	0.46302
2023.06409	0.46273
2021.13552	0.46223
2019.20696	0.46175
2017.27839	0.46153
2015.34983	0.46098
2013.42126	0.45975
2011.49270	0.45838
2009.56414	0.45720
2007.63557	0.45603
2005.70701	0.45458
2003.77844	0.45286
2001.84988	0.45110
1999.92131	0.44959
1997.99275	0.44835
1996.06418	0.44689
1994.13562	0.44535
1992.20706	0.44456
1990.27849	0.44415
1988.34993	0.44337
1986.42136	0.44265
1984.49280	0.44209
1982.56423	0.44143
1980.63567	0.44072
1978.70710	0.44022
1976.77854	0.44013
1974.84998	0.44047
1972.92141	0.44092
1970.99285	0.44104
1969.06428	0.44143
1967.13572	0.44267
1965.20715	0.44362
1963.27859	0.44372
1961.35002	0.44396
1959.42146	0.44450
1957.49290	0.44494
1955.56433	0.44540
1953.63577	0.44592
1951.70720	0.44634
1949.77864	0.44654
1947.85007	0.44639
1945.92151	0.44592
1943.99294	0.44603
1942.06438	0.44715
1940.13582	0.44743
1938.20725	0.44658
1936.27869	0.44585
1934.35012	0.44538
1932.42156	0.44490
1930.49299	0.44447
1928.56443	0.44401
1926.63586	0.44310
1924.70730	0.44225
1922.77874	0.44224
1920.85017	0.44202
1918.92161	0.44183
1916.99304	0.44248
1915.06448	0.44228
1913.13591	0.44118
1911.20735	0.44071
1909.27878	0.44123
1907.35022	0.44163
1905.42166	0.44135
1903.49309	0.44110
1901.56453	0.44108
1899.63596	0.44089
1897.70740	0.44071
1895.77883	0.44117
1893.85027	0.44140
1891.92171	0.44070
1889.99314	0.44063
1888.06458	0.44095
1886.13601	0.44011
1884.20745	0.43887
1882.27888	0.43787
1880.35032	0.43701
1878.42175	0.43620
1876.49319	0.43516
1874.56463	0.43374
1872.63606	0.43190
1870.70750	0.43065
1868.77893	0.43186
1866.85037	0.43314
1864.92180	0.43182
1862.99324	0.43002
1861.06467	0.42918
1859.13611	0.42901
1857.20755	0.42895
1855.27898	0.42881
1853.35042	0.42858
1851.42185	0.42824
1849.49329	0.42781
1847.56472	0.42743
1845.63616	0.42845
1843.70759	0.43158
1841.77903	0.43287
1839.85047	0.43210
1837.92190	0.43217
1835.99334	0.43314
1834.06477	0.43310
1832.13621	0.43272
1830.20764	0.43468
1828.27908	0.43730
1826.35051	0.43832
1824.42195	0.43974
1822.49339	0.44080
1820.56482	0.44090
1818.63626	0.44161
1816.70769	0.44287
1814.77913	0.44358
1812.85056	0.44434
1810.92200	0.44649
1808.99343	0.44894
1807.06487	0.45032
1805.13631	0.45110
1803.20774	0.45225
1801.27918	0.45514
1799.35061	0.45869
1797.42205	0.46029
1795.49348	0.46042
1793.56492	0.46231
1791.63635	0.46745
1789.70779	0.46997
1787.77923	0.46948
1785.85066	0.46956
1783.92210	0.47047
1781.99353	0.47142
1780.06497	0.47258
1778.13640	0.47264
1776.20784	0.47106
1774.27927	0.47038
1772.35071	0.47347
1770.42215	0.47675
1768.49358	0.47726
1766.56502	0.47676
1764.63645	0.47605
1762.70789	0.47744
1760.77932	0.48120
1758.85076	0.48415
1756.92220	0.48790
1754.99363	0.49179
1753.06507	0.49462
1751.13650	0.50069
1749.20794	0.51136
1747.27937	0.52029
1745.35081	0.52620
1743.42224	0.53119
1741.49368	0.53608
1739.56512	0.54025
1737.63655	0.54123
1735.70799	0.54067
1733.77942	0.54385
1731.85086	0.54676
1729.92229	0.54655
1727.99373	0.54616
1726.06516	0.54620
1724.13660	0.54769
1722.20804	0.54919
1720.27947	0.54976
1718.35091	0.55487
1716.42234	0.56952
1714.49378	0.58067
1712.56521	0.58701
1710.63665	0.59451
1708.70808	0.60484
1706.77952	0.62236
1704.85096	0.64687
1702.92239	0.66849
1700.99383	0.70007
1699.06526	0.75209
1697.13670	0.80016
1695.20813	0.84625
1693.27957	0.87911
1691.35100	0.90469
1689.42244	0.93755
1687.49388	0.96887
1685.56531	1.00329
1683.63675	1.06469
1681.70818	1.10985
1679.77962	1.13368
1677.85105	1.15682
1675.92249	1.18709
1673.99392	1.22129
1672.06536	1.24751
1670.13680	1.27805
1668.20823	1.31348
1666.27967	1.33234
1664.35110	1.34680
1662.42254	1.36761
1660.49397	1.38500
1658.56541	1.39380
1656.63684	1.39721
1654.70828	1.40136
1652.77972	1.41599
1650.85115	1.42205
1648.92259	1.41893
1646.99402	1.41795
1645.06546	1.41923
1643.13689	1.41628
1641.20833	1.41284
1639.27976	1.41106
1637.35120	1.41106
1635.42264	1.41004
1633.49407	1.40520
1631.56551	1.39833
1629.63694	1.38870
1627.70838	1.37705
1625.77981	1.36315
1623.85125	1.34323
1621.92269	1.31916
1619.99412	1.29854
1618.06556	1.27525
1616.13699	1.24247
1614.20843	1.21391
1612.27986	1.18978
1610.35130	1.16505
1608.42273	1.14199
1606.49417	1.12374
1604.56561	1.10956
1602.63704	1.09790
1600.70848	1.08906
1598.77991	1.08279
1596.85135	1.07841
1594.92278	1.07581
1592.99422	1.07521
1591.06565	1.07648
1589.13709	1.07932
1587.20853	1.08407
1585.27996	1.09159
1583.35140	1.10238
1581.42283	1.11419
1579.49427	1.12449
1577.56570	1.13913
1575.63714	1.16440
1573.70857	1.18069
1571.78001	1.18917
1569.85145	1.20589
1567.92288	1.22668
1565.99432	1.24054
1564.06575	1.25115
1562.13719	1.25741
1560.20862	1.26709
1558.28006	1.29862
1556.35149	1.31287
1554.42293	1.31509
1552.49437	1.31786
1550.56580	1.32137
1548.63724	1.32381
1546.70867	1.32203
1544.78011	1.31624
1542.85154	1.30998
1540.92298	1.30789
1538.99441	1.30525
1537.06585	1.29976
1535.13729	1.29405
1533.20872	1.28902
1531.28016	1.28437
1529.35159	1.27970
1527.42303	1.27472
1525.49446	1.26873
1523.56590	1.26415
1521.63733	1.26573
1519.70877	1.26978
1517.78021	1.26755
1515.85164	1.25883
1513.92308	1.24570
1511.99451	1.22991
1510.06595	1.21367
1508.13738	1.19222
1506.20882	1.15778
1504.28025	1.13382
1502.35169	1.11472
1500.42313	1.09351
1498.49456	1.06927
1496.56600	1.04281
1494.63743	1.02016
1492.70887	1.00205
1490.78030	0.98365
1488.85174	0.96551
1486.92317	0.95311
1484.99461	0.94457
1483.06605	0.93908
1481.13748	0.93698
1479.20892	0.93773
1477.28035	0.94189
1475.35179	0.95177
1473.42322	0.97159
1471.49466	0.99378
1469.56610	1.00382
1467.63753	1.00843
1465.70897	1.01616
1463.78040	1.02658
1461.85184	1.03105
1459.92327	1.03073
1457.99471	1.03457
1456.06614	1.04477
1454.13758	1.04712
1452.20902	1.04498
1450.28045	1.04207
1448.35189	1.03925
1446.42332	1.03578
1444.49476	1.03104
1442.56619	1.02558
1440.63763	1.01958
1438.70906	1.01288
1436.78050	1.00623
1434.85194	0.99996
1432.92337	0.99328
1430.99481	0.98672
1429.06624	0.98094
1427.13768	0.97607
1425.20911	0.97292
1423.28055	0.97186
1421.35198	0.97197
1419.42342	0.97499
1417.49486	0.97921
1415.56629	0.97865
1413.63773	0.97566
1411.70916	0.97291
1409.78060	0.97073
1407.85203	0.96897
1405.92347	0.96868
1403.99490	0.96979
1402.06634	0.97001
1400.13778	0.97011
1398.20921	0.97208
1396.28065	0.97615
1394.35208	0.98181
1392.42352	0.98709
1390.49495	0.99264
1388.56639	1.00302
1386.63782	1.01948
1384.70926	1.03549
1382.78070	1.04938
1380.85213	1.06177
1378.92357	1.06957
1376.99500	1.07072
1375.06644	1.06512
1373.13787	1.05406
1371.20931	1.04065
1369.28074	1.02426
1367.35218	1.00466
1365.42362	0.98539
1363.49505	0.96696
1361.56649	0.95019
1359.63792	0.93763
1357.70936	0.92845
1355.78079	0.92154
1353.85223	0.91647
1351.92366	0.91279
1349.99510	0.91025
1348.06654	0.90858
1346.13797	0.90784
1344.20941	0.90834
1342.28084	0.91000
1340.35228	0.91342
1338.42371	0.91892
1336.49515	0.92526
1334.56659	0.93237
1332.63802	0.94090
1330.70946	0.95047
1328.78089	0.95918
1326.85233	0.96538
1324.92376	0.96907
1322.99520	0.97104
1321.06663	0.97250
1319.13807	0.97477
1317.20951	0.97735
1315.28094	0.97877
1313.35238	0.97923
1311.42381	0.97956
1309.49525	0.98025
1307.56668	0.98117
1305.63812	0.98152
1303.70955	0.98125
1301.78099	0.98074
1299.85243	0.97995
1297.92386	0.97889
1295.99530	0.97800
1294.06673	0.97759
1292.13817	0.97800
1290.20960	0.97949
1288.28104	0.98165
1286.35247	0.98376
1284.42391	0.98519
1282.49535	0.98580
1280.56678	0.98614
1278.63822	0.98680
1276.70965	0.98807
1274.78109	0.99003
1272.85252	0.99292
1270.92396	0.99688
1268.99539	1.00177
1267.06683	1.00725
1265.13827	1.01232
1263.20970	1.01584
1261.28114	1.01779
1259.35257	1.01914
1257.42401	1.02067
1255.49544	1.02250
1253.56688	1.02475
1251.63831	1.02740
1249.70975	1.02996
1247.78119	1.03201
1245.85262	1.03323
1243.92406	1.03366
1241.99549	1.03419
1240.06693	1.03476
1238.13836	1.03395
1236.20980	1.03106
1234.28123	1.02635
1232.35267	1.02032
1230.42411	1.01369
1228.49554	1.00640
1226.56698	0.99792
1224.63841	0.98865
1222.70985	0.97925
1220.78128	0.96995
1218.85272	0.96124
1216.92415	0.95368
1214.99559	0.94791
1213.06703	0.94473
1211.13846	0.94441
1209.20990	0.94593
1207.28133	0.94713
1205.35277	0.94571
1203.42420	0.94024
1201.49564	0.93148
1199.56708	0.92142
1197.63851	0.91080
1195.70995	0.89982
1193.78138	0.88916
1191.85282	0.87953
1189.92425	0.87170
1187.99569	0.86605
1186.06712	0.86185
1184.13856	0.85832
1182.21000	0.85617
1180.28143	0.85647
1178.35287	0.85905
1176.42430	0.86400
1174.49574	0.87153
1172.56717	0.88055
1170.63861	0.89081
1168.71004	0.90367
1166.78148	0.91942
1164.85292	0.93666
1162.92435	0.95311
1160.99579	0.96627
1159.06722	0.97379
1157.13866	0.97400
1155.21009	0.96717
1153.28153	0.95538
1151.35296	0.94011
1149.42440	0.92180
1147.49584	0.90201
1145.56727	0.88340
1143.63871	0.86815
1141.71014	0.85713
1139.78158	0.85012
1137.85301	0.84686
1135.92445	0.84709
1133.99588	0.85028
1132.06732	0.85676
1130.13876	0.86718
1128.21019	0.88116
1126.28163	0.89766
1124.35306	0.91534
1122.42450	0.93254
1120.49593	0.94788
1118.56737	0.96040
1116.63880	0.96950
1114.71024	0.97431
1112.78168	0.97392
1110.85311	0.96962
1108.92455	0.96399
1106.99598	0.95799
1105.06742	0.95175
1103.13885	0.94559
1101.21029	0.93968
1099.28172	0.93547
1097.35316	0.93508
1095.42460	0.93810
1093.49603	0.94289
1091.56747	0.95004
1089.63890	0.96107
1087.71034	0.97611
1085.78177	0.99452
1083.85321	1.01497
1081.92464	1.03526
1079.99608	1.05338
1078.06752	1.06789
1076.13895	1.07795
1074.21039	1.08280
1072.28182	1.08193
1070.35326	1.07685
1068.42469	1.06954
1066.49613	1.06000
1064.56756	1.04802
1062.63900	1.03466
1060.71044	1.02081
1058.78187	1.00612
1056.85331	0.99054
1054.92474	0.97535
1052.99618	0.96154
1051.06761	0.94987
1049.13905	0.94133
1047.21049	0.93644
1045.28192	0.93568
1043.35336	0.93928
1041.42479	0.94614
1039.49623	0.95440
1037.56766	0.96293
1035.63910	0.97113
1033.71053	0.97738
1031.78197	0.98042
1029.85341	0.98097
1027.92484	0.97964
1025.99628	0.97589
1024.06771	0.96943
1022.13915	0.96077
1020.21058	0.95119
1018.28202	0.94186
1016.35345	0.93204
1014.42489	0.91945
1012.49633	0.90270
1010.56776	0.88237
1008.63920	0.85965
1006.71063	0.83533
1004.78207	0.81097
1002.85350	0.78854
1000.92494	0.76892
998.99637	0.75232
997.06781	0.73905
995.13925	0.72893
993.21068	0.72096
991.28212	0.71406
989.35355	0.70835
987.42499	0.70466
985.49642	0.70293
983.56786	0.70247
981.63929	0.70320
979.71073	0.70530
977.78217	0.70781
975.85360	0.70880
973.92504	0.70676
971.99647	0.70111
970.06791	0.69219
968.13934	0.68133
966.21078	0.67054
964.28221	0.66182
962.35365	0.65708
960.42509	0.65804
958.49652	0.66452
956.56796	0.67290
954.63939	0.67824
952.71083	0.67833
950.78226	0.67447
948.85370	0.66960
946.92513	0.66637
944.99657	0.66580
943.06801	0.66762
941.13944	0.67099
939.21088	0.67490
937.28231	0.67870
935.35375	0.68197
933.42518	0.68432
931.49662	0.68537
929.56805	0.68485
927.63949	0.68286
925.71093	0.67987
923.78236	0.67620
921.85380	0.67184
919.92523	0.66634
917.99667	0.65970
916.06810	0.65292
914.13954	0.64731
912.21098	0.64375
910.28241	0.64233
908.35385	0.64284
906.42528	0.64556
904.49672	0.65056
902.56815	0.65697
900.63959	0.66373
898.71102	0.66998
896.78246	0.67493
894.85390	0.67830
892.92533	0.68027
890.99677	0.68067
889.06820	0.67923
887.13964	0.67596
885.21107	0.67137
883.28251	0.66604
881.35394	0.66014
879.42538	0.65392
877.49682	0.64768
875.56825	0.64167
873.63969	0.63621
871.71112	0.63170
869.78256	0.62865
867.85399	0.62733
865.92543	0.62752
863.99686	0.62914
862.06830	0.63238
860.13974	0.63708
858.21117	0.64293
856.28261	0.65002
854.35404	0.65822
852.42548	0.66664
850.49691	0.67419
848.56835	0.68118
846.63978	0.68844
844.71122	0.69540
842.78266	0.70112
840.85409	0.70565
838.92553	0.70929
836.99696	0.71121
835.06840	0.71038
833.13983	0.70805
831.21127	0.70583
829.28270	0.70382
827.35414	0.70229
825.42558	0.70183
823.49701	0.70252
821.56845	0.70455
819.63988	0.70831
817.71132	0.71416
815.78275	0.72244
813.85419	0.73264
811.92562	0.74382
809.99706	0.75594
808.06850	0.76912
806.13993	0.78269
804.21137	0.79564
802.28280	0.80723
800.35424	0.81735
798.42567	0.82574
796.49711	0.83176
794.56854	0.83479
792.63998	0.83436
790.71142	0.83102
788.78285	0.82566
786.85429	0.81884
784.92572	0.81178
782.99716	0.80530
781.06859	0.79877
779.14003	0.79197
777.21147	0.78578
775.28290	0.78110
773.35434	0.77827
771.42577	0.77773
769.49721	0.77933
767.56864	0.78184
765.64008	0.78469
763.71151	0.78772
761.78295	0.79042
759.85439	0.79228
757.92582	0.79273
755.99726	0.79165
754.06869	0.78902
752.14013	0.78485
750.21156	0.78008
748.28300	0.77553
746.35443	0.77121
744.42587	0.76685
742.49731	0.76231
740.56874	0.75843
738.64018	0.75641
736.71161	0.75644
734.78305	0.75776
732.85448	0.76021
730.92592	0.76398
728.99735	0.76833
727.06879	0.77312
725.14023	0.77892
723.21166	0.78552
721.28310	0.79241
719.35453	0.79788
717.42597	0.80060
715.49740	0.80223
713.56884	0.80430
711.64027	0.80612
709.71171	0.80688
707.78315	0.80689
705.85458	0.80584
703.92602	0.80339
701.99745	0.80082
700.06889	0.79921
698.14032	0.79841
696.21176	0.79874
694.28319	0.80070
692.35463	0.80366
690.42607	0.80749
688.49750	0.81281
686.56894	0.81975
684.64037	0.82847
682.71181	0.83831
680.78324	0.84776
678.85468	0.85698
676.92611	0.86681
674.99755	0.87647
673.06899	0.88444
671.14042	0.89023
669.21186	0.89758
667.28329	0.90876
665.35473	0.91476
663.42616	0.91621
661.49760	0.91589
659.56903	0.91449
657.64047	0.91234
655.71191	0.90866
653.78334	0.90326
651.85478	0.89791
649.92621	0.89350
647.99765	0.88891
646.06908	0.88343
644.14052	0.87843
642.21195	0.87565
640.28339	0.87402
638.35483	0.87107
636.42626	0.86571
634.49770	0.85818
632.56913	0.85019
630.64057	0.84310
628.71200	0.83613
626.78344	0.82889
624.85488	0.82230
622.92631	0.81657
620.99775	0.81224
619.06918	0.81049
617.14062	0.81088
615.21205	0.81185
613.28349	0.81363
611.35492	0.81778
609.42636	0.82374
607.49780	0.82968
605.56923	0.83568
603.64067	0.84226
601.71210	0.84855
599.78354	0.85336
