3997.91406	0.53348
3995.98550	0.53284
3994.05693	0.53127
3992.12837	0.53003
3990.19980	0.53000
3988.27124	0.53007
3986.34268	0.52885
3984.41411	0.52727
3982.48555	0.52711
3980.55698	0.52800
3978.62842	0.52778
3976.69985	0.52652
3974.77129	0.52609
3972.84272	0.52638
3970.91416	0.52645
3968.98560	0.52668
3967.05703	0.52707
3965.12847	0.52638
3963.19990	0.52484
3961.27134	0.52438
3959.34277	0.52536
3957.41421	0.52654
3955.48564	0.52631
3953.55708	0.52443
3951.62852	0.52238
3949.69995	0.52209
3947.77139	0.52324
3945.84282	0.52292
3943.91426	0.52281
3941.98569	0.52410
3940.05713	0.52288
3938.12856	0.51987
3936.20000	0.51714
3934.27144	0.51480
3932.34287	0.51540
3930.41431	0.51811
3928.48574	0.51665
3926.55718	0.51325
3924.62861	0.51419
3922.70005	0.51576
3920.77148	0.51410
3918.84292	0.51481
3916.91436	0.52005
3914.98579	0.52323
3913.05723	0.52168
3911.12866	0.51789
3909.20010	0.51220
3907.27153	0.50486
3905.34297	0.50085
3903.41440	0.50498
3901.48584	0.51254
3899.55728	0.51850
3897.62871	0.51809
3895.70015	0.51027
3893.77158	0.50305
3891.84302	0.50628
3889.91445	0.50975
3887.98589	0.50390
3886.05733	0.50148
3884.12876	0.50471
3882.20020	0.50490
3880.27163	0.50930
3878.34307	0.51024
3876.41450	0.50291
3874.48594	0.49696
3872.55737	0.49440
3870.62881	0.49814
3868.70025	0.50534
3866.77168	0.50443
3864.84312	0.50512
3862.91455	0.51104
3860.98599	0.50977
3859.05742	0.50184
3857.12886	0.49050
3855.20029	0.48184
3853.27173	0.49759
3851.34317	0.51382
3849.41460	0.51029
3847.48604	0.50169
3845.55747	0.49473
3843.62891	0.49078
3841.70034	0.48618
3839.77178	0.48403
3837.84321	0.49314
3835.91465	0.50113
3833.98609	0.50187
3832.05752	0.50220
3830.12896	0.50144
3828.20039	0.49926
3826.27183	0.49676
3824.34326	0.48878
3822.41470	0.48357
3820.48613	0.49465
3818.55757	0.49972
3816.62901	0.50213
3814.70044	0.50856
3812.77188	0.50544
3810.84331	0.49581
3808.91475	0.48928
3806.98618	0.49294
3805.05762	0.49400
3803.12905	0.48968
3801.20049	0.49600
3799.27193	0.49883
3797.34336	0.49571
3795.41480	0.49728
3793.48623	0.49697
3791.55767	0.49389
3789.62910	0.49176
3787.70054	0.49025
3785.77197	0.49082
3783.84341	0.49098
3781.91485	0.48734
3779.98628	0.48810
3778.05772	0.49430
3776.12915	0.49476
3774.20059	0.48953
3772.27202	0.48412
3770.34346	0.48483
3768.41489	0.48943
3766.48633	0.49193
3764.55777	0.49271
3762.62920	0.48869
3760.70064	0.48456
3758.77207	0.48815
3756.84351	0.48929
3754.91494	0.48054
3752.98638	0.47088
3751.05781	0.47773
3749.12925	0.48747
3747.20069	0.48142
3745.27212	0.48082
3743.34356	0.49037
3741.41499	0.48817
3739.48643	0.47600
3737.55786	0.46446
3735.62930	0.46747
3733.70074	0.48489
3731.77217	0.49329
3729.84361	0.48937
3727.91504	0.48253
3725.98648	0.48072
3724.05791	0.48398
3722.12935	0.48812
3720.20078	0.49064
3718.27222	0.48874
3716.34366	0.48183
3714.41509	0.47245
3712.48653	0.47161
3710.55796	0.48750
3708.62940	0.49625
3706.70083	0.49251
3704.77227	0.48559
3702.84370	0.48424
3700.91514	0.48929
3698.98658	0.49035
3697.05801	0.48777
3695.12945	0.48449
3693.20088	0.47876
3691.27232	0.47505
3689.34375	0.48575
3687.41519	0.49716
3685.48662	0.49689
3683.55806	0.49298
3681.62950	0.48967
3679.70093	0.48564
3677.77237	0.48118
3675.84380	0.49099
3673.91524	0.50302
3671.98667	0.50023
3670.05811	0.50734
3668.12954	0.52022
3666.20098	0.52068
3664.27242	0.51798
3662.34385	0.51730
3660.41529	0.51679
3658.48672	0.51704
3656.55816	0.52270
3654.62959	0.52425
3652.70103	0.51462
3650.77246	0.51024
3648.84390	0.53623
3646.91534	0.55721
3644.98677	0.55780
3643.05821	0.55594
3641.12964	0.55703
3639.20108	0.55881
3637.27251	0.55986
3635.34395	0.56120
3633.41538	0.56084
3631.48682	0.55802
3629.55826	0.56897
3627.62969	0.59246
3625.70113	0.59541
3623.77256	0.58890
3621.84400	0.58449
3619.91543	0.58997
3617.98687	0.60255
3616.05830	0.60804
3614.12974	0.61220
3612.20118	0.61734
3610.27261	0.61961
3608.34405	0.62618
3606.41548	0.63443
3604.48692	0.63578
3602.55835	0.63594
3600.62979	0.64027
3598.70123	0.64498
3596.77266	0.64929
3594.84410	0.65765
3592.91553	0.66541
3590.98697	0.66640
3589.05840	0.66858
3587.12984	0.68128
3585.20127	0.69060
3583.27271	0.69153
3581.34415	0.69331
3579.41558	0.69919
3577.48702	0.70645
3575.55845	0.71267
3573.62989	0.71631
3571.70132	0.71560
3569.77276	0.71372
3567.84419	0.72256
3565.91563	0.74203
3563.98707	0.75059
3562.05850	0.75219
3560.12994	0.75557
3558.20137	0.76000
3556.27281	0.76361
3554.34424	0.76857
3552.41568	0.77639
3550.48711	0.78185
3548.55855	0.78434
3546.62999	0.79137
3544.70142	0.80266
3542.77286	0.80951
3540.84429	0.81183
3538.91573	0.81501
3536.98716	0.82247
3535.05860	0.83145
3533.13003	0.83727
3531.20147	0.84084
3529.27291	0.84525
3527.34434	0.85125
3525.41578	0.85891
3523.48721	0.86852
3521.55865	0.87652
3519.63008	0.88086
3517.70152	0.88460
3515.77295	0.88924
3513.84439	0.89518
3511.91583	0.90295
3509.98726	0.91153
3508.05870	0.91960
3506.13013	0.92700
3504.20157	0.93699
3502.27300	0.95081
3500.34444	0.96163
3498.41587	0.96696
3496.48731	0.97229
3494.55875	0.97995
3492.63018	0.98660
3490.70162	0.99227
3488.77305	0.99882
3486.84449	1.00449
3484.91592	1.00847
3482.98736	1.01361
3481.05879	1.02029
3479.13023	1.02570
3477.20167	1.02963
3475.27310	1.03255
3473.34454	1.03540
3471.41597	1.03949
3469.48741	1.04387
3467.55884	1.04800
3465.63028	1.05246
3463.70171	1.05812
3461.77315	1.06427
3459.84459	1.06848
3457.91602	1.07197
3455.98746	1.07680
3454.05889	1.08140
3452.13033	1.08483
3450.20176	1.08897
3448.27320	1.09623
3446.34464	1.10541
3444.41607	1.11219
3442.48751	1.11694
3440.55894	1.12103
3438.63038	1.12226
3436.70181	1.12053
3434.77325	1.11932
3432.84468	1.12131
3430.91612	1.12595
3428.98756	1.13063
3427.05899	1.13344
3425.13043	1.13427
3423.20186	1.13366
3421.27330	1.13300
3419.34473	1.13529
3417.41617	1.14020
3415.48760	1.14386
3413.55904	1.14670
3411.63048	1.15073
3409.70191	1.15258
3407.77335	1.15231
3405.84478	1.15402
3403.91622	1.15579
3401.98765	1.15656
3400.05909	1.16047
3398.13052	1.16732
3396.20196	1.17106
3394.27340	1.17083
3392.34483	1.17256
3390.41627	1.17649
3388.48770	1.17912
3386.55914	1.18164
3384.63057	1.18553
3382.70201	1.19083
3380.77344	1.19777
3378.84488	1.20361
3376.91632	1.20616
3374.98775	1.20801
3373.05919	1.21050
3371.13062	1.21310
3369.20206	1.21709
3367.27349	1.22351
3365.34493	1.23054
3363.41636	1.23499
3361.48780	1.23789
3359.55924	1.24163
3357.63067	1.24493
3355.70211	1.24675
3353.77354	1.24754
3351.84498	1.24999
3349.91641	1.25685
3347.98785	1.26527
3346.05928	1.27195
3344.13072	1.27704
3342.20216	1.27903
3340.27359	1.27781
3338.34503	1.27924
3336.41646	1.28860
3334.48790	1.30254
3332.55933	1.31361
3330.63077	1.32116
3328.70220	1.32715
3326.77364	1.32974
3324.84508	1.33091
3322.91651	1.33484
3320.98795	1.34020
3319.05938	1.34636
3317.13082	1.35388
3315.20225	1.36003
3313.27369	1.36340
3311.34513	1.36532
3309.41656	1.36801
3307.48800	1.37259
3305.55943	1.37838
3303.63087	1.38429
3301.70230	1.38918
3299.77374	1.39346
3297.84517	1.39775
3295.91661	1.40123
3293.98805	1.40101
3292.05948	1.39683
3290.13092	1.39594
3288.20235	1.40008
3286.27379	1.40269
3284.34522	1.40135
3282.41666	1.39733
3280.48809	1.39236
3278.55953	1.38800
3276.63097	1.38408
3274.70240	1.38170
3272.77384	1.38121
3270.84527	1.37720
3268.91671	1.36765
3266.98814	1.35982
3265.05958	1.35616
3263.13101	1.35100
3261.20245	1.34517
3259.27389	1.34093
3257.34532	1.33197
3255.41676	1.31762
3253.48819	1.30456
3251.55963	1.29336
3249.63106	1.28307
3247.70250	1.27635
3245.77393	1.27216
3243.84537	1.26523
3241.91681	1.25447
3239.98824	1.24307
3238.05968	1.23230
3236.13111	1.22267
3234.20255	1.21598
3232.27398	1.21177
3230.34542	1.20724
3228.41685	1.20207
3226.48829	1.19954
3224.55973	1.20005
3222.63116	1.19827
3220.70260	1.19198
3218.77403	1.18467
3216.84547	1.17858
3214.91690	1.17494
3212.98834	1.17308
3211.05977	1.16907
3209.13121	1.16297
3207.20265	1.15898
3205.27408	1.15703
3203.34552	1.15375
3201.41695	1.14905
3199.48839	1.14395
3197.55982	1.13712
3195.63126	1.12938
3193.70269	1.12315
3191.77413	1.11828
3189.84557	1.11450
3187.91700	1.11177
3185.98844	1.10841
3184.05987	1.10342
3182.13131	1.09813
3180.20274	1.09340
3178.27418	1.08795
3176.34562	1.08224
3174.41705	1.07809
3172.48849	1.07491
3170.55992	1.07098
3168.63136	1.06547
3166.70279	1.05921
3164.77423	1.05422
3162.84566	1.05120
3160.91710	1.04809
3158.98854	1.04326
3157.05997	1.03803
3155.13141	1.03326
3153.20284	1.02853
3151.27428	1.02416
3149.34571	1.02042
3147.41715	1.01800
3145.48858	1.01734
3143.56002	1.01594
3141.63146	1.01223
3139.70289	1.00969
3137.77433	1.01034
3135.84576	1.01084
3133.91720	1.00913
3131.98863	1.00734
3130.06007	1.00688
3128.13150	1.00678
3126.20294	1.00641
3124.27438	1.00560
3122.34581	1.00331
3120.41725	1.00000
3118.48868	0.99880
3116.56012	1.00089
3114.63155	1.00369
3112.70299	1.00489
3110.77442	1.00425
3108.84586	1.00385
3106.91730	1.00525
3104.98873	1.00664
3103.06017	1.00705
3101.13160	1.00784
3099.20304	1.00872
3097.27447	1.00783
3095.34591	1.00453
3093.41734	1.00083
3091.48878	1.00012
3089.56022	1.00266
3087.63165	1.00478
3085.70309	1.00466
3083.77452	1.00366
3081.84596	1.00285
3079.91739	1.00205
3077.98883	1.00120
3076.06026	1.00137
3074.13170	1.00192
3072.20314	0.99987
3070.27457	0.99534
3068.34601	0.99117
3066.41744	0.98872
3064.48888	0.98726
3062.56031	0.98474
3060.63175	0.98061
3058.70318	0.97618
3056.77462	0.97217
3054.84606	0.96842
3052.91749	0.96454
3050.98893	0.96103
3049.06036	0.95824
3047.13180	0.95493
3045.20323	0.95071
3043.27467	0.94658
3041.34610	0.94295
3039.41754	0.93960
3037.48898	0.93699
3035.56041	0.93477
3033.63185	0.93180
3031.70328	0.92937
3029.77472	0.92747
3027.84615	0.92371
3025.91759	0.91953
3023.98903	0.91668
3022.06046	0.91349
3020.13190	0.90965
3018.20333	0.90644
3016.27477	0.90373
3014.34620	0.90132
3012.41764	0.89921
3010.48907	0.89680
3008.56051	0.89432
3006.63195	0.89240
3004.70338	0.89126
3002.77482	0.89111
3000.84625	0.89154
2998.91769	0.89194
2996.98912	0.89312
2995.06056	0.89667
2993.13199	0.90211
2991.20343	0.90717
2989.27487	0.91155
2987.34630	0.91735
2985.41774	0.92541
2983.48917	0.93429
2981.56061	0.94268
2979.63204	0.95077
2977.70348	0.95944
2975.77491	0.96943
2973.84635	0.98072
2971.91779	0.99176
2969.98922	1.00188
2968.06066	1.01222
2966.13209	1.02161
2964.20353	1.02811
2962.27496	1.03226
2960.34640	1.03412
2958.41783	1.03227
2956.48927	1.02621
2954.56071	1.01788
2952.63214	1.01001
2950.70358	1.00371
2948.77501	0.99942
2946.84645	0.99812
2944.91788	1.00090
2942.98932	1.00800
2941.06075	1.01878
2939.13219	1.03175
2937.20363	1.04486
2935.27506	1.05713
2933.34650	1.06857
2931.41793	1.07852
2929.48937	1.08713
2927.56080	1.09612
2925.63224	1.10499
2923.70367	1.11139
2921.77511	1.11431
2919.84655	1.11282
2917.91798	1.10452
2915.98942	1.08695
2914.06085	1.06107
2912.13229	1.03258
2910.20372	1.00752
2908.27516	0.98836
2906.34659	0.97437
2904.41803	0.96364
2902.48947	0.95485
2900.56090	0.94767
2898.63234	0.94181
2896.70377	0.93729
2894.77521	0.93392
2892.84664	0.93014
2890.91808	0.92504
2888.98952	0.91994
2887.06095	0.91630
2885.13239	0.91409
2883.20382	0.91332
2881.27526	0.91460
2879.34669	0.91747
2877.41813	0.92013
2875.48956	0.92136
2873.56100	0.92094
2871.63244	0.91826
2869.70387	0.91283
2867.77531	0.90558
2865.84674	0.89851
2863.91818	0.89391
2861.98961	0.89297
2860.06105	0.89550
2858.13248	0.90099
2856.20392	0.90812
2854.27536	0.91583
2852.34679	0.92383
2850.41823	0.92721
2848.48966	0.91670
2846.56110	0.89188
2844.63253	0.86341
2842.70397	0.83968
2840.77540	0.82234
2838.84684	0.81046
2836.91828	0.80244
2834.98971	0.79645
2833.06115	0.79168
2831.13258	0.78765
2829.20402	0.78306
2827.27545	0.77794
2825.34689	0.77429
2823.41832	0.77245
2821.48976	0.77018
2819.56120	0.76646
2817.63263	0.76253
2815.70407	0.75948
2813.77550	0.75719
2811.84694	0.75496
2809.91837	0.75263
2807.98981	0.75028
2806.06124	0.74775
2804.13268	0.74502
2802.20412	0.74219
2800.27555	0.73915
2798.34699	0.73606
2796.41842	0.73352
2794.48986	0.73155
2792.56129	0.72943
2790.63273	0.72703
2788.70416	0.72476
2786.77560	0.72271
2784.84704	0.72080
2782.91847	0.71873
2780.98991	0.71633
2779.06134	0.71419
2777.13278	0.71244
2775.20421	0.71082
2773.27565	0.70938
2771.34708	0.70794
2769.41852	0.70622
2767.48996	0.70453
2765.56139	0.70306
2763.63283	0.70161
2761.70426	0.70016
2759.77570	0.69862
2757.84713	0.69693
2755.91857	0.69543
2753.99001	0.69401
2752.06144	0.69218
2750.13288	0.69002
2748.20431	0.68795
2746.27575	0.68629
2744.34718	0.68511
2742.41862	0.68412
2740.49005	0.68290
2738.56149	0.68111
2736.63293	0.67917
2734.70436	0.67756
2732.77580	0.67608
2730.84723	0.67479
2728.91867	0.67363
2726.99010	0.67217
2725.06154	0.67067
2723.13297	0.66947
2721.20441	0.66829
2719.27585	0.66668
2717.34728	0.66476
2715.41872	0.66313
2713.49015	0.66225
2711.56159	0.66190
2709.63302	0.66102
2707.70446	0.65935
2705.77589	0.65761
2703.84733	0.65580
2701.91877	0.65392
2699.99020	0.65260
2698.06164	0.65151
2696.13307	0.64983
2694.20451	0.64802
2692.27594	0.64689
2690.34738	0.64610
2688.41881	0.64520
2686.49025	0.64420
2684.56169	0.64301
2682.63312	0.64136
2680.70456	0.63971
2678.77599	0.63882
2676.84743	0.63830
2674.91886	0.63742
2672.99030	0.63639
2671.06173	0.63568
2669.13317	0.63511
2667.20461	0.63403
2665.27604	0.63252
2663.34748	0.63150
2661.41891	0.63106
2659.49035	0.63029
2657.56178	0.62884
2655.63322	0.62717
2653.70465	0.62596
2651.77609	0.62533
2649.84753	0.62450
2647.91896	0.62313
2645.99040	0.62182
2644.06183	0.62081
2642.13327	0.61988
2640.20470	0.61902
2638.27614	0.61818
2636.34757	0.61729
2634.41901	0.61661
2632.49045	0.61606
2630.56188	0.61519
2628.63332	0.61424
2626.70475	0.61342
2624.77619	0.61234
2622.84762	0.61107
2620.91906	0.61008
2618.99049	0.60952
2617.06193	0.60928
2615.13337	0.60893
2613.20480	0.60840
2611.27624	0.60776
2609.34767	0.60680
2607.41911	0.60568
2605.49054	0.60468
2603.56198	0.60357
2601.63342	0.60230
2599.70485	0.60130
2597.77629	0.60029
2595.84772	0.59863
2593.91916	0.59674
2591.99059	0.59538
2590.06203	0.59449
2588.13346	0.59349
2586.20490	0.59218
2584.27634	0.59095
2582.34777	0.59010
2580.41921	0.58940
2578.49064	0.58858
2576.56208	0.58768
2574.63351	0.58688
2572.70495	0.58602
2570.77638	0.58495
2568.84782	0.58389
2566.91926	0.58291
2564.99069	0.58185
2563.06213	0.58079
2561.13356	0.57999
2559.20500	0.57925
2557.27643	0.57829
2555.34787	0.57734
2553.41930	0.57658
2551.49074	0.57612
2549.56218	0.57576
2547.63361	0.57483
2545.70505	0.57324
2543.77648	0.57163
2541.84792	0.57040
2539.91935	0.56956
2537.99079	0.56886
2536.06222	0.56785
2534.13366	0.56659
2532.20510	0.56538
2530.27653	0.56410
2528.34797	0.56269
2526.41940	0.56133
2524.49084	0.56026
2522.56227	0.55953
2520.63371	0.55873
2518.70514	0.55775
2516.77658	0.55677
2514.84802	0.55572
2512.91945	0.55473
2510.99089	0.55390
2509.06232	0.55309
2507.13376	0.55223
2505.20519	0.55129
2503.27663	0.55040
2501.34806	0.54960
2499.41950	0.54872
2497.49094	0.54789
2495.56237	0.54722
2493.63381	0.54663
2491.70524	0.54586
2489.77668	0.54466
2487.84811	0.54327
2485.91955	0.54196
2483.99098	0.54054
2482.06242	0.53911
2480.13386	0.53790
2478.20529	0.53678
2476.27673	0.53560
2474.34816	0.53446
2472.41960	0.53356
2470.49103	0.53288
2468.56247	0.53214
2466.63391	0.53141
2464.70534	0.53081
2462.77678	0.53000
2460.84821	0.52889
2458.91965	0.52770
2456.99108	0.52658
2455.06252	0.52568
2453.13395	0.52500
2451.20539	0.52437
2449.27683	0.52357
2447.34826	0.52238
2445.41970	0.52091
2443.49113	0.51980
2441.56257	0.51932
2439.63400	0.51878
2437.70544	0.51761
2435.77687	0.51615
2433.84831	0.51507
2431.91975	0.51422
2429.99118	0.51301
2428.06262	0.51166
2426.13405	0.51061
2424.20549	0.50957
2422.27692	0.50819
2420.34836	0.50673
2418.41979	0.50556
2416.49123	0.50471
2414.56267	0.50403
2412.63410	0.50341
2410.70554	0.50284
2408.77697	0.50226
2406.84841	0.50181
2404.91984	0.50161
2402.99128	0.50129
2401.06271	0.50072
2399.13415	0.50025
2397.20559	0.49988
2395.27702	0.49939
2393.34846	0.49888
2391.41989	0.49835
2389.49133	0.49758
2387.56276	0.49662
2385.63420	0.49554
2383.70563	0.49411
2381.77707	0.49223
2379.84851	0.49038
2377.91994	0.48894
2375.99138	0.48768
2374.06281	0.48627
2372.13425	0.48505
2370.20568	0.48478
2368.27712	0.48524
2366.34855	0.48559
2364.41999	0.48591
2362.49143	0.48590
2360.56286	0.48504
2358.63430	0.48524
2356.70573	0.48764
2354.77717	0.48921
2352.84860	0.48880
2350.92004	0.48606
2348.99147	0.48111
2347.06291	0.47678
2345.13435	0.47649
2343.20578	0.47897
2341.27722	0.48019
2339.34865	0.48128
2337.42009	0.48329
2335.49152	0.48405
2333.56296	0.48253
2331.63440	0.48119
2329.70583	0.48123
2327.77727	0.48115
2325.84870	0.48050
2323.92014	0.47989
2321.99157	0.47928
2320.06301	0.47820
2318.13444	0.47662
2316.20588	0.47507
2314.27732	0.47378
2312.34875	0.47259
2310.42019	0.47159
2308.49162	0.47091
2306.56306	0.47040
2304.63449	0.46992
2302.70593	0.46950
2300.77736	0.46912
2298.84880	0.46873
2296.92024	0.46853
2294.99167	0.46872
2293.06311	0.46910
2291.13454	0.46933
2289.20598	0.46928
2287.27741	0.46917
2285.34885	0.46902
2283.42028	0.46854
2281.49172	0.46785
2279.56316	0.46709
2277.63459	0.46610
2275.70603	0.46496
2273.77746	0.46405
2271.84890	0.46328
2269.92033	0.46239
2267.99177	0.46143
2266.06320	0.46041
2264.13464	0.45935
2262.20608	0.45849
2260.27751	0.45789
2258.34895	0.45758
2256.42038	0.45750
2254.49182	0.45745
2252.56325	0.45745
2250.63469	0.45774
2248.70612	0.45817
2246.77756	0.45832
2244.84900	0.45823
2242.92043	0.45833
2240.99187	0.45861
2239.06330	0.45893
2237.13474	0.45931
2235.20617	0.45958
2233.27761	0.45957
2231.34904	0.45931
2229.42048	0.45880
2227.49192	0.45820
2225.56335	0.45767
2223.63479	0.45709
2221.70622	0.45636
2219.77766	0.45557
2217.84909	0.45482
2215.92053	0.45409
2213.99196	0.45333
2212.06340	0.45264
2210.13484	0.45220
2208.20627	0.45196
2206.27771	0.45181
2204.34914	0.45184
2202.42058	0.45218
2200.49201	0.45259
2198.56345	0.45278
2196.63488	0.45292
2194.70632	0.45321
2192.77776	0.45357
2190.84919	0.45395
2188.92063	0.45429
2186.99206	0.45453
2185.06350	0.45465
2183.13493	0.45470
2181.20637	0.45468
2179.27781	0.45449
2177.34924	0.45428
2175.42068	0.45414
2173.49211	0.45391
2171.56355	0.45338
2169.63498	0.45248
2167.70642	0.45152
2165.77785	0.45087
2163.84929	0.45044
2161.92073	0.44998
2159.99216	0.44947
2158.06360	0.44880
2156.13503	0.44794
2154.20647	0.44730
2152.27790	0.44711
2150.34934	0.44718
2148.42077	0.44724
2146.49221	0.44726
2144.56365	0.44740
2142.63508	0.44778
2140.70652	0.44817
2138.77795	0.44833
2136.84939	0.44845
2134.92082	0.44878
2132.99226	0.44903
2131.06369	0.44887
2129.13513	0.44857
2127.20657	0.44855
2125.27800	0.44861
2123.34944	0.44833
2121.42087	0.44769
2119.49231	0.44699
2117.56374	0.44644
2115.63518	0.44591
2113.70661	0.44528
2111.77805	0.44459
2109.84949	0.44381
2107.92092	0.44290
2105.99236	0.44201
2104.06379	0.44124
2102.13523	0.44044
2100.20666	0.43951
2098.27810	0.43865
2096.34953	0.43809
2094.42097	0.43781
2092.49241	0.43786
2090.56384	0.43818
2088.63528	0.43848
2086.70671	0.43882
2084.77815	0.43930
2082.84958	0.43963
2080.92102	0.43974
2078.99245	0.43976
2077.06389	0.43970
2075.13533	0.43958
2073.20676	0.43928
2071.27820	0.43865
2069.34963	0.43770
2067.42107	0.43670
2065.49250	0.43585
2063.56394	0.43496
2061.63537	0.43386
2059.70681	0.43276
2057.77825	0.43159
2055.84968	0.43025
2053.92112	0.42898
2051.99255	0.42790
2050.06399	0.42698
2048.13542	0.42627
2046.20686	0.42575
2044.27830	0.42531
2042.34973	0.42517
2040.42117	0.42540
2038.49260	0.42553
2036.56404	0.42557
2034.63547	0.42579
2032.70691	0.42614
2030.77834	0.42650
2028.84978	0.42663
2026.92122	0.42646
2024.99265	0.42616
2023.06409	0.42579
2021.13552	0.42514
2019.20696	0.42441
2017.27839	0.42394
2015.34983	0.42336
2013.42126	0.42227
2011.49270	0.42090
2009.56414	0.41961
2007.63557	0.41860
2005.70701	0.41777
2003.77844	0.41692
2001.84988	0.41604
1999.92131	0.41529
1997.99275	0.41458
1996.06418	0.41350
1994.13562	0.41258
1992.20706	0.41279
1990.27849	0.41341
1988.34993	0.41348
1986.42136	0.41344
1984.49280	0.41351
1982.56423	0.41354
1980.63567	0.41351
1978.70710	0.41337
1976.77854	0.41323
1974.84998	0.41318
1972.92141	0.41304
1970.99285	0.41248
1969.06428	0.41195
1967.13572	0.41210
1965.20715	0.41193
1963.27859	0.41069
1961.35002	0.40938
1959.42146	0.40850
1957.49290	0.40769
1955.56433	0.40704
1953.63577	0.40657
1951.70720	0.40605
1949.77864	0.40543
1947.85007	0.40479
1945.92151	0.40415
1943.99294	0.40421
1942.06438	0.40509
1940.13582	0.40504
1938.20725	0.40400
1936.27869	0.40327
1934.35012	0.40292
1932.42156	0.40249
1930.49299	0.40198
1928.56443	0.40159
1926.63586	0.40109
1924.70730	0.40087
1922.77874	0.40151
1920.85017	0.40183
1918.92161	0.40206
1916.99304	0.40304
1915.06448	0.40305
1913.13591	0.40199
1911.20735	0.40144
1909.27878	0.40176
1907.35022	0.40189
1905.42166	0.40123
1903.49309	0.40041
1901.56453	0.39963
1899.63596	0.39860
1897.70740	0.39765
1895.77883	0.39736
1893.85027	0.39689
1891.92171	0.39577
1889.99314	0.39583
1888.06458	0.39667
1886.13601	0.39640
1884.20745	0.39592
1882.27888	0.39590
1880.35032	0.39593
1878.42175	0.39582
1876.49319	0.39552
1874.56463	0.39482
1872.63606	0.39341
1870.70750	0.39247
1868.77893	0.39438
1866.85037	0.39652
1864.92180	0.39561
1862.99324	0.39395
1861.06467	0.39329
1859.13611	0.39344
1857.20755	0.39368
1855.27898	0.39371
1853.35042	0.39359
1851.42185	0.39321
1849.49329	0.39248
1847.56472	0.39151
1845.63616	0.39179
1843.70759	0.39393
1841.77903	0.39375
1839.85047	0.39129
1837.92190	0.38966
1835.99334	0.38908
1834.06477	0.38767
1832.13621	0.38594
1830.20764	0.38642
1828.27908	0.38759
1826.35051	0.38748
1824.42195	0.38814
1822.49339	0.38856
1820.56482	0.38773
1818.63626	0.38724
1816.70769	0.38739
1814.77913	0.38726
1812.85056	0.38714
1810.92200	0.38798
1808.99343	0.38890
1807.06487	0.38881
1805.13631	0.38804
1803.20774	0.38742
1801.27918	0.38817
1799.35061	0.38931
1797.42205	0.38866
1795.49348	0.38683
1793.56492	0.38653
1791.63635	0.38928
1789.70779	0.38996
1787.77923	0.38795
1785.85066	0.38680
1783.92210	0.38683
1781.99353	0.38704
1780.06497	0.38772
1778.13640	0.38757
1776.20784	0.38579
1774.27927	0.38500
1772.35071	0.38847
1770.42215	0.39238
1768.49358	0.39331
1766.56502	0.39309
1764.63645	0.39245
1762.70789	0.39402
1760.77932	0.39801
1758.85076	0.40086
1756.92220	0.40425
1754.99363	0.40741
1753.06507	0.40916
1751.13650	0.41437
1749.20794	0.42484
1747.27937	0.43319
1745.35081	0.43795
1743.42224	0.44207
1741.49368	0.44696
1739.56512	0.45180
1737.63655	0.45298
1735.70799	0.45270
1733.77942	0.45869
1731.85086	0.46491
1729.92229	0.46676
1727.99373	0.46856
1726.06516	0.47075
1724.13660	0.47467
1722.20804	0.47863
1720.27947	0.48115
1718.35091	0.48942
1716.42234	0.51027
1714.49378	0.52682
1712.56521	0.53716
1710.63665	0.54876
1708.70808	0.56365
1706.77952	0.58762
1704.85096	0.62104
1702.92239	0.65051
1700.99383	0.69138
1699.06526	0.75920
1697.13670	0.82397
1695.20813	0.88733
1693.27957	0.93208
1691.35100	0.96444
1689.42244	1.00425
1687.49388	1.04103
1685.56531	1.07807
1683.63675	1.13836
1681.70818	1.17775
1679.77962	1.19416
1677.85105	1.20895
1675.92249	1.22871
1673.99392	1.24965
1672.06536	1.26326
1670.13680	1.27821
1668.20823	1.29655
1666.27967	1.30446
1664.35110	1.31000
1662.42254	1.32132
1660.49397	1.33093
1658.56541	1.33407
1656.63684	1.33308
1654.70828	1.33415
1652.77972	1.34327
1650.85115	1.34396
1648.92259	1.34014
1646.99402	1.34049
1645.06546	1.34075
1643.13689	1.33564
1641.20833	1.33006
1639.27976	1.32511
1637.35120	1.32344
1635.42264	1.32535
1633.49407	1.32003
1631.56551	1.31148
1629.63694	1.30269
1627.70838	1.29320
1625.77981	1.28206
1623.85125	1.26718
1621.92269	1.24711
1619.99412	1.22616
1618.06556	1.20181
1616.13699	1.16956
1614.20843	1.14122
1612.27986	1.11680
1610.35130	1.09166
1608.42273	1.06698
1606.49417	1.04570
1604.56561	1.02888
1602.63704	1.01571
1600.70848	1.00594
1598.77991	0.99910
1596.85135	0.99492
1594.92278	0.99317
1592.99422	0.99292
1591.06565	0.99419
1589.13709	0.99789
1587.20853	1.00420
1585.27996	1.01266
1583.35140	1.02294
1581.42283	1.03363
1579.49427	1.04292
1577.56570	1.05538
1575.63714	1.07706
1573.70857	1.09222
1571.78001	1.10127
1569.85145	1.11826
1567.92288	1.13798
1565.99432	1.15091
1564.06575	1.16263
1562.13719	1.17084
1560.20862	1.18136
1558.28006	1.21595
1556.35149	1.23595
1554.42293	1.24202
1552.49437	1.24703
1550.56580	1.25088
1548.63724	1.25271
1546.70867	1.25227
1544.78011	1.25028
1542.85154	1.24733
1540.92298	1.24533
1538.99441	1.23870
1537.06585	1.22882
1535.13729	1.21836
1533.20872	1.20753
1531.28016	1.19740
1529.35159	1.18759
1527.42303	1.17810
1525.49446	1.16982
1523.56590	1.16372
1521.63733	1.16038
1519.70877	1.15837
1517.78021	1.15317
1515.85164	1.14316
1513.92308	1.12901
1511.99451	1.11203
1510.06595	1.09418
1508.13738	1.07063
1506.20882	1.03511
1504.28025	1.01068
1502.35169	0.99122
1500.42313	0.97041
1498.49456	0.94673
1496.56600	0.91926
1494.63743	0.89492
1492.70887	0.87596
1490.78030	0.85670
1488.85174	0.83596
1486.92317	0.82012
1484.99461	0.80845
1483.06605	0.79939
1481.13748	0.79322
1479.20892	0.79014
1477.28035	0.79064
1475.35179	0.79661
1473.42322	0.81233
1471.49466	0.83087
1469.56610	0.83855
1467.63753	0.84184
1465.70897	0.84867
1463.78040	0.85772
1461.85184	0.86141
1459.92327	0.86267
1457.99471	0.87241
1456.06614	0.88889
1454.13758	0.89224
1452.20902	0.89046
1450.28045	0.88872
1448.35189	0.88768
1446.42332	0.88588
1444.49476	0.88217
1442.56619	0.87692
1440.63763	0.87038
1438.70906	0.86277
1436.78050	0.85409
1434.85194	0.84434
1432.92337	0.83432
1430.99481	0.82484
1429.06624	0.81690
1427.13768	0.81082
1425.20911	0.80704
1423.28055	0.80587
1421.35198	0.80599
1419.42342	0.80904
1417.49486	0.81439
1415.56629	0.81608
1413.63773	0.81619
1411.70916	0.81773
1409.78060	0.82040
1407.85203	0.82295
1405.92347	0.82705
1403.99490	0.83283
1402.06634	0.83638
1400.13778	0.83814
1398.20921	0.83978
1396.28065	0.84131
1394.35208	0.84317
1392.42352	0.84376
1390.49495	0.84314
1388.56639	0.84498
1386.63782	0.85119
1384.70926	0.85706
1382.78070	0.86054
1380.85213	0.86248
1378.92357	0.86143
1376.99500	0.85625
1375.06644	0.84755
1373.13787	0.83652
1371.20931	0.82452
1369.28074	0.81101
1367.35218	0.79590
1365.42362	0.78119
1363.49505	0.76773
1361.56649	0.75699
1359.63792	0.74969
1357.70936	0.74427
1355.78079	0.74057
1353.85223	0.73898
1351.92366	0.73887
1349.99510	0.73964
1348.06654	0.74103
1346.13797	0.74286
1344.20941	0.74475
1342.28084	0.74652
1340.35228	0.74968
1338.42371	0.75472
1336.49515	0.75931
1334.56659	0.76365
1332.63802	0.76916
1330.70946	0.77579
1328.78089	0.78222
1326.85233	0.78733
1324.92376	0.79108
1322.99520	0.79381
1321.06663	0.79630
1319.13807	0.79952
1317.20951	0.80290
1315.28094	0.80535
1313.35238	0.80738
1311.42381	0.80920
1309.49525	0.81038
1307.56668	0.81122
1305.63812	0.81197
1303.70955	0.81225
1301.78099	0.81172
1299.85243	0.81033
1297.92386	0.80840
1295.99530	0.80656
1294.06673	0.80538
1292.13817	0.80499
1290.20960	0.80528
1288.28104	0.80602
1286.35247	0.80688
1284.42391	0.80757
1282.49535	0.80794
1280.56678	0.80825
1278.63822	0.80910
1276.70965	0.81077
1274.78109	0.81322
1272.85252	0.81659
1270.92396	0.82084
1268.99539	0.82538
1267.06683	0.82968
1265.13827	0.83357
1263.20970	0.83658
1261.28114	0.83828
1259.35257	0.83938
1257.42401	0.84079
1255.49544	0.84258
1253.56688	0.84464
1251.63831	0.84675
1249.70975	0.84872
1247.78119	0.85073
1245.85262	0.85283
1243.92406	0.85450
1241.99549	0.85544
1240.06693	0.85587
1238.13836	0.85548
1236.20980	0.85357
1234.28123	0.85018
1232.35267	0.84568
1230.42411	0.83983
1228.49554	0.83265
1226.56698	0.82474
1224.63841	0.81617
1222.70985	0.80693
1220.78128	0.79757
1218.85272	0.78873
1216.92415	0.78079
1214.99559	0.77425
1213.06703	0.76985
1211.13846	0.76773
1209.20990	0.76719
1207.28133	0.76665
1205.35277	0.76458
1203.42420	0.76040
1201.49564	0.75455
1199.56708	0.74808
1197.63851	0.74185
1195.70995	0.73588
1193.78138	0.73037
1191.85282	0.72603
1189.92425	0.72309
1187.99569	0.72124
1186.06712	0.72042
1184.13856	0.72081
1182.21000	0.72253
1180.28143	0.72569
1178.35287	0.73047
1176.42430	0.73652
1174.49574	0.74303
1172.56717	0.74945
1170.63861	0.75604
1168.71004	0.76357
1166.78148	0.77228
1164.85292	0.78152
1162.92435	0.78990
1160.99579	0.79584
1159.06722	0.79803
1157.13866	0.79579
1155.21009	0.78954
1153.28153	0.78075
1151.35296	0.77071
1149.42440	0.76016
1147.49584	0.74998
1145.56727	0.74150
1143.63871	0.73619
1141.71014	0.73444
1139.78158	0.73581
1137.85301	0.73992
1135.92445	0.74611
1133.99588	0.75345
1132.06732	0.76188
1130.13876	0.77215
1128.21019	0.78422
1126.28163	0.79677
1124.35306	0.80848
1122.42450	0.81870
1120.49593	0.82704
1118.56737	0.83332
1116.63880	0.83701
1114.71024	0.83726
1112.78168	0.83446
1110.85311	0.83006
1108.92455	0.82515
1106.99598	0.82022
1105.06742	0.81576
1103.13885	0.81228
1101.21029	0.81023
1099.28172	0.81062
1097.35316	0.81430
1095.42460	0.82061
1093.49603	0.82894
1091.56747	0.83959
1089.63890	0.85193
1087.71034	0.86530
1085.78177	0.88008
1083.85321	0.89515
1081.92464	0.90788
1079.99608	0.91653
1078.06752	0.92055
1076.13895	0.91991
1074.21039	0.91449
1072.28182	0.90530
1070.35326	0.89459
1068.42469	0.88358
1066.49613	0.87280
1064.56756	0.86258
1062.63900	0.85216
1060.71044	0.84132
1058.78187	0.83114
1056.85331	0.82180
1054.92474	0.81342
1052.99618	0.80677
1051.06761	0.80198
1049.13905	0.79886
1047.21049	0.79770
1045.28192	0.79948
1043.35336	0.80452
1041.42479	0.81096
1039.49623	0.81643
1037.56766	0.81988
1035.63910	0.82160
1033.71053	0.82237
1031.78197	0.82182
1029.85341	0.81896
1027.92484	0.81416
1025.99628	0.80794
1024.06771	0.80073
1022.13915	0.79409
1020.21058	0.78918
1018.28202	0.78532
1016.35345	0.78062
1014.42489	0.77326
1012.49633	0.76254
1010.56776	0.74906
1008.63920	0.73409
1006.71063	0.71896
1004.78207	0.70484
1002.85350	0.69253
1000.92494	0.68227
998.99637	0.67416
997.06781	0.66831
995.13925	0.66421
993.21068	0.66064
991.28212	0.65646
989.35355	0.65169
987.42499	0.64710
985.49642	0.64327
983.56786	0.64033
981.63929	0.63822
979.71073	0.63698
977.78217	0.63628
975.85360	0.63518
973.92504	0.63273
971.99647	0.62885
970.06791	0.62408
968.13934	0.61895
966.21078	0.61437
964.28221	0.61139
962.35365	0.61110
960.42509	0.61472
958.49652	0.62220
956.56796	0.63083
954.63939	0.63677
952.71083	0.63795
950.78226	0.63465
948.85370	0.62885
946.92513	0.62311
944.99657	0.61869
943.06801	0.61561
941.13944	0.61364
939.21088	0.61247
937.28231	0.61202
935.35375	0.61243
933.42518	0.61357
931.49662	0.61493
929.56805	0.61631
927.63949	0.61806
925.71093	0.62043
923.78236	0.62317
921.85380	0.62567
919.92523	0.62722
917.99667	0.62778
916.06810	0.62802
914.13954	0.62841
912.21098	0.62908
910.28241	0.63018
908.35385	0.63196
906.42528	0.63492
904.49672	0.63902
902.56815	0.64329
900.63959	0.64714
898.71102	0.65068
896.78246	0.65388
894.85390	0.65650
892.92533	0.65833
890.99677	0.65967
889.06820	0.66077
887.13964	0.66154
885.21107	0.66228
883.28251	0.66339
881.35394	0.66473
879.42538	0.66604
877.49682	0.66727
875.56825	0.66834
873.63969	0.66939
871.71112	0.67064
869.78256	0.67199
867.85399	0.67346
865.92543	0.67513
863.99686	0.67691
862.06830	0.67911
860.13974	0.68222
858.21117	0.68593
856.28261	0.68963
854.35404	0.69329
852.42548	0.69725
850.49691	0.70127
848.56835	0.70477
846.63978	0.70749
844.71122	0.70978
842.78266	0.71201
840.85409	0.71457
838.92553	0.71823
836.99696	0.72288
835.06840	0.72730
833.13983	0.73106
831.21127	0.73443
829.28270	0.73743
827.35414	0.73990
825.42558	0.74204
823.49701	0.74423
821.56845	0.74604
819.63988	0.74710
817.71132	0.74843
815.78275	0.75079
813.85419	0.75336
811.92562	0.75524
809.99706	0.75688
808.06850	0.75896
806.13993	0.76086
804.21137	0.76202
802.28280	0.76291
800.35424	0.76400
798.42567	0.76553
796.49711	0.76725
794.56854	0.76881
792.63998	0.77054
790.71142	0.77235
788.78285	0.77393
786.85429	0.77591
784.92572	0.77893
782.99716	0.78277
781.06859	0.78680
779.14003	0.79087
777.21147	0.79495
775.28290	0.79842
773.35434	0.80163
771.42577	0.80568
769.49721	0.81028
767.56864	0.81461
765.64008	0.81870
763.71151	0.82289
761.78295	0.82704
759.85439	0.83060
757.92582	0.83385
755.99726	0.83742
754.06869	0.84124
752.14013	0.84518
750.21156	0.84895
748.28300	0.85196
746.35443	0.85441
744.42587	0.85682
742.49731	0.85847
740.56874	0.85851
738.64018	0.85776
736.71161	0.85738
734.78305	0.85768
732.85448	0.85889
730.92592	0.86039
728.99735	0.86103
727.06879	0.86155
725.14023	0.86335
723.21166	0.86635
721.28310	0.87002
719.35453	0.87345
717.42597	0.87616
715.49740	0.87925
713.56884	0.88342
711.64027	0.88856
709.71171	0.89448
707.78315	0.90042
705.85458	0.90527
703.92602	0.90870
701.99745	0.91162
700.06889	0.91459
698.14032	0.91669
696.21176	0.91738
694.28319	0.91702
692.35463	0.91488
690.42607	0.91153
688.49750	0.90964
686.56894	0.90887
684.64037	0.90725
682.71181	0.90485
680.78324	0.90245
678.85468	0.90058
676.92611	0.89865
674.99755	0.89618
673.06899	0.89410
671.14042	0.89322
669.21186	0.89542
667.28329	0.89972
665.35473	0.90056
663.42616	0.90147
661.49760	0.90470
659.56903	0.90793
657.64047	0.90894
655.71191	0.90867
653.78334	0.90862
651.85478	0.90824
649.92621	0.90752
647.99765	0.90849
646.06908	0.91097
644.14052	0.91372
642.21195	0.91666
640.28339	0.91870
638.35483	0.91873
636.42626	0.91682
634.49770	0.91379
632.56913	0.91114
630.64057	0.90883
628.71200	0.90629
626.78344	0.90520
624.85488	0.90591
622.92631	0.90542
620.99775	0.90373
619.06918	0.90409
617.14062	0.90558
615.21205	0.90513
613.28349	0.90456
611.35492	0.90720
609.42636	0.91118
607.49780	0.91219
605.56923	0.91064
603.64067	0.91027
601.71210	0.91390
599.78354	0.91991
