3997.91406	0.81218
3995.98550	0.81257
3994.05693	0.80994
3992.12837	0.80669
3990.19980	0.80536
3988.27124	0.80474
3986.34268	0.80375
3984.41411	0.80359
3982.48555	0.80457
3980.55698	0.80481
3978.62842	0.80331
3976.69985	0.80264
3974.77129	0.80343
3972.84272	0.80321
3970.91416	0.80311
3968.98560	0.80418
3967.05703	0.80355
3965.12847	0.80025
3963.19990	0.79731
3961.27134	0.79645
3959.34277	0.79565
3957.41421	0.79410
3955.48564	0.79342
3953.55708	0.79415
3951.62852	0.79520
3949.69995	0.79644
3947.77139	0.79715
3945.84282	0.79561
3943.91426	0.79452
3941.98569	0.79586
3940.05713	0.79621
3938.12856	0.79462
3936.20000	0.79138
3934.27144	0.78748
3932.34287	0.78753
3930.41431	0.79090
3928.48574	0.79094
3926.55718	0.78836
3924.62861	0.78643
3922.70005	0.78475
3920.77148	0.78430
3918.84292	0.78774
3916.91436	0.79308
3914.98579	0.79429
3913.05723	0.79083
3911.12866	0.78643
3909.20010	0.78204
3907.27153	0.77732
3905.34297	0.77548
3903.41440	0.77961
3901.48584	0.78582
3899.55728	0.78877
3897.62871	0.78544
3895.70015	0.77807
3893.77158	0.77357
3891.84302	0.77864
3889.91445	0.78173
3887.98589	0.77568
3886.05733	0.77403
3884.12876	0.77888
3882.20020	0.78026
3880.27163	0.78169
3878.34307	0.77906
3876.41450	0.77104
3874.48594	0.76516
3872.55737	0.76327
3870.62881	0.76613
3868.70025	0.77113
3866.77168	0.77008
3864.84312	0.76946
3862.91455	0.77256
3860.98599	0.77089
3859.05742	0.76502
3857.12886	0.75682
3855.20029	0.74751
3853.27173	0.75417
3851.34317	0.76911
3849.41460	0.77069
3847.48604	0.76590
3845.55747	0.75986
3843.62891	0.75498
3841.70034	0.75145
3839.77178	0.75038
3837.84321	0.75544
3835.91465	0.76109
3833.98609	0.76295
3832.05752	0.76288
3830.12896	0.76091
3828.20039	0.75897
3826.27183	0.75841
3824.34326	0.75406
3822.41470	0.74788
3820.48613	0.74917
3818.55757	0.75096
3816.62901	0.75500
3814.70044	0.76243
3812.77188	0.76213
3810.84331	0.75555
3808.91475	0.74867
3806.98618	0.74640
3805.05762	0.74411
3803.12905	0.74192
3801.20049	0.74888
3799.27193	0.75220
3797.34336	0.75110
3795.41480	0.75485
3793.48623	0.75707
3791.55767	0.75446
3789.62910	0.75025
3787.70054	0.74733
3785.77197	0.74764
3783.84341	0.74817
3781.91485	0.74543
3779.98628	0.74486
3778.05772	0.74854
3776.12915	0.74864
3774.20059	0.74420
3772.27202	0.74002
3770.34346	0.74044
3768.41489	0.74265
3766.48633	0.74356
3764.55777	0.74340
3762.62920	0.73907
3760.70064	0.73373
3758.77207	0.73387
3756.84351	0.73473
3754.91494	0.72959
3752.98638	0.72097
3751.05781	0.72259
3749.12925	0.73252
3747.20069	0.73206
3745.27212	0.73095
3743.34356	0.73553
3741.41499	0.73427
3739.48643	0.72650
3737.55786	0.71786
3735.62930	0.71743
3733.70074	0.72919
3731.77217	0.73814
3729.84361	0.73754
3727.91504	0.73308
3725.98648	0.73152
3724.05791	0.73233
3722.12935	0.73348
3720.20078	0.73618
3718.27222	0.73699
3716.34366	0.73407
3714.41509	0.72935
3712.48653	0.72727
3710.55796	0.73279
3708.62940	0.73761
3706.70083	0.73725
3704.77227	0.73474
3702.84370	0.73557
3700.91514	0.74030
3698.98658	0.74092
3697.05801	0.73860
3695.12945	0.73733
3693.20088	0.73536
3691.27232	0.73325
3689.34375	0.73915
3687.41519	0.74764
3685.48662	0.74927
3683.55806	0.74679
3681.62950	0.74276
3679.70093	0.73809
3677.77237	0.73499
3675.84380	0.74438
3673.91524	0.75645
3671.98667	0.75613
3670.05811	0.75965
3668.12954	0.76872
3666.20098	0.77227
3664.27242	0.77378
3662.34385	0.77621
3660.41529	0.77807
3658.48672	0.77929
3656.55816	0.78501
3654.62959	0.79035
3652.70103	0.78720
3650.77246	0.78261
3648.84390	0.79606
3646.91534	0.81495
3644.98677	0.82267
3643.05821	0.82806
3641.12964	0.83470
3639.20108	0.83911
3637.27251	0.84096
3635.34395	0.84455
3633.41538	0.84866
3631.48682	0.84904
3629.55826	0.85576
3627.62969	0.87506
3625.70113	0.88554
3623.77256	0.88837
3621.84400	0.88850
3619.91543	0.89034
3617.98687	0.89600
3616.05830	0.90099
3614.12974	0.90867
3612.20118	0.91849
3610.27261	0.92474
3608.34405	0.93394
3606.41548	0.94656
3604.48692	0.95205
3602.55835	0.95343
3600.62979	0.95899
3598.70123	0.96605
3596.77266	0.96956
3594.84410	0.97600
3592.91553	0.98634
3590.98697	0.99132
3589.05840	0.99328
3587.12984	1.00311
3585.20127	1.01600
3583.27271	1.02388
3581.34415	1.02860
3579.41558	1.03247
3577.48702	1.03777
3575.55845	1.04467
3573.62989	1.05152
3571.70132	1.05731
3569.77276	1.06260
3567.84419	1.07274
3565.91563	1.08592
3563.98707	1.09135
3562.05850	1.09551
3560.12994	1.10423
3558.20137	1.11456
3556.27281	1.12239
3554.34424	1.13011
3552.41568	1.13920
3550.48711	1.14401
3548.55855	1.14749
3546.62999	1.15623
3544.70142	1.16610
3542.77286	1.17301
3540.84429	1.17911
3538.91573	1.18506
3536.98716	1.19091
3535.05860	1.19617
3533.13003	1.20043
3531.20147	1.20605
3529.27291	1.21553
3527.34434	1.22871
3525.41578	1.24120
3523.48721	1.24802
3521.55865	1.25134
3519.63008	1.25615
3517.70152	1.26322
3515.77295	1.27042
3513.84439	1.27506
3511.91583	1.27681
3509.98726	1.28034
3508.05870	1.29001
3506.13013	1.30349
3504.20157	1.31889
3502.27300	1.33261
3500.34444	1.34001
3498.41587	1.34545
3496.48731	1.35302
3494.55875	1.36050
3492.63018	1.36525
3490.70162	1.36983
3488.77305	1.37866
3486.84449	1.38781
3484.91592	1.39018
3482.98736	1.39189
3481.05879	1.40027
3479.13023	1.40724
3477.20167	1.40475
3475.27310	1.39689
3473.34454	1.39345
3471.41597	1.39995
3469.48741	1.41333
3467.55884	1.42468
3465.63028	1.42592
3463.70171	1.42167
3461.77315	1.42321
3459.84459	1.43265
3457.91602	1.44496
3455.98746	1.45297
3454.05889	1.45247
3452.13033	1.44886
3450.20176	1.44761
3448.27320	1.44972
3446.34464	1.45516
3444.41607	1.46130
3442.48751	1.46684
3440.55894	1.47037
3438.63038	1.47042
3436.70181	1.47047
3434.77325	1.47335
3432.84468	1.47596
3430.91612	1.47502
3428.98756	1.47308
3427.05899	1.47369
3425.13043	1.47805
3423.20186	1.48548
3421.27330	1.49170
3419.34473	1.49361
3417.41617	1.49406
3415.48760	1.49526
3413.55904	1.49544
3411.63048	1.49409
3409.70191	1.49094
3407.77335	1.48615
3405.84478	1.48481
3403.91622	1.48824
3401.98765	1.49196
3400.05909	1.49399
3398.13052	1.49509
3396.20196	1.49796
3394.27340	1.50424
3392.34483	1.51149
3390.41627	1.51538
3388.48770	1.51452
3386.55914	1.51288
3384.63057	1.51472
3382.70201	1.52004
3380.77344	1.52595
3378.84488	1.53099
3376.91632	1.53602
3374.98775	1.53965
3373.05919	1.54125
3371.13062	1.54202
3369.20206	1.53995
3367.27349	1.53807
3365.34493	1.54052
3363.41636	1.54063
3361.48780	1.53799
3359.55924	1.54141
3357.63067	1.54710
3355.70211	1.54816
3353.77354	1.55108
3351.84498	1.55884
3349.91641	1.56450
3347.98785	1.56654
3346.05928	1.56853
3344.13072	1.57137
3342.20216	1.57507
3340.27359	1.58085
3338.34503	1.58637
3336.41646	1.58454
3334.48790	1.57734
3332.55933	1.57596
3330.63077	1.58326
3328.70220	1.59249
3326.77364	1.59606
3324.84508	1.59421
3322.91651	1.59384
3320.98795	1.59390
3319.05938	1.59348
3317.13082	1.60208
3315.20225	1.61602
3313.27369	1.62050
3311.34513	1.61877
3309.41656	1.61756
3307.48800	1.61289
3305.55943	1.61226
3303.63087	1.62550
3301.70230	1.63948
3299.77374	1.64011
3297.84517	1.63640
3295.91661	1.63574
3293.98805	1.63345
3292.05948	1.63043
3290.13092	1.63064
3288.20235	1.62980
3286.27379	1.62459
3284.34522	1.61997
3282.41666	1.62208
3280.48809	1.62820
3278.55953	1.62701
3276.63097	1.61745
3274.70240	1.61054
3272.77384	1.60934
3270.84527	1.60820
3268.91671	1.60550
3266.98814	1.60480
3265.05958	1.60715
3263.13101	1.61049
3261.20245	1.60993
3259.27389	1.60392
3257.34532	1.60035
3255.41676	1.59747
3253.48819	1.58532
3251.55963	1.57004
3249.63106	1.56328
3247.70250	1.56226
3245.77393	1.55646
3243.84537	1.54626
3241.91681	1.53732
3239.98824	1.53018
3238.05968	1.52546
3236.13111	1.52135
3234.20255	1.51728
3232.27398	1.51653
3230.34542	1.51681
3228.41685	1.51321
3226.48829	1.50734
3224.55973	1.50482
3222.63116	1.50496
3220.70260	1.50247
3218.77403	1.49942
3216.84547	1.49960
3214.91690	1.49982
3212.98834	1.49561
3211.05977	1.48608
3209.13121	1.47673
3207.20265	1.47189
3205.27408	1.46579
3203.34552	1.45750
3201.41695	1.45277
3199.48839	1.44882
3197.55982	1.44284
3195.63126	1.43886
3193.70269	1.43661
3191.77413	1.43207
3189.84557	1.42721
3187.91700	1.42632
3185.98844	1.42579
3184.05987	1.42142
3182.13131	1.41750
3180.20274	1.41645
3178.27418	1.41481
3176.34562	1.41033
3174.41705	1.40352
3172.48849	1.39593
3170.55992	1.38976
3168.63136	1.38693
3166.70279	1.38610
3164.77423	1.38371
3162.84566	1.37886
3160.91710	1.37273
3158.98854	1.36581
3157.05997	1.35711
3155.13141	1.34809
3153.20284	1.34381
3151.27428	1.34445
3149.34571	1.34523
3147.41715	1.34504
3145.48858	1.34470
3143.56002	1.34132
3141.63146	1.33358
3139.70289	1.32752
3137.77433	1.32772
3135.84576	1.32852
3133.91720	1.32437
3131.98863	1.31976
3130.06007	1.31898
3128.13150	1.32018
3126.20294	1.32081
3124.27438	1.32035
3122.34581	1.32139
3120.41725	1.32498
3118.48868	1.32722
3116.56012	1.32572
3114.63155	1.32279
3112.70299	1.32062
3110.77442	1.31948
3108.84586	1.32020
3106.91730	1.32149
3104.98873	1.32077
3103.06017	1.31899
3101.13160	1.31745
3099.20304	1.31601
3097.27447	1.31454
3095.34591	1.31325
3093.41734	1.31206
3091.48878	1.31044
3089.56022	1.30928
3087.63165	1.30899
3085.70309	1.30804
3083.77452	1.30595
3081.84596	1.30389
3079.91739	1.30184
3077.98883	1.29999
3076.06026	1.30219
3074.13170	1.30717
3072.20314	1.30656
3070.27457	1.30006
3068.34601	1.29416
3066.41744	1.28987
3064.48888	1.28618
3062.56031	1.28391
3060.63175	1.28081
3058.70318	1.27468
3056.77462	1.26878
3054.84606	1.26439
3052.91749	1.25902
3050.98893	1.25359
3049.06036	1.24912
3047.13180	1.24382
3045.20323	1.23804
3043.27467	1.23362
3041.34610	1.22986
3039.41754	1.22537
3037.48898	1.22044
3035.56041	1.21643
3033.63185	1.21452
3031.70328	1.21267
3029.77472	1.20867
3027.84615	1.20509
3025.91759	1.20281
3023.98903	1.19870
3022.06046	1.19235
3020.13190	1.18606
3018.20333	1.18197
3016.27477	1.18140
3014.34620	1.18250
3012.41764	1.18227
3010.48907	1.17958
3008.56051	1.17488
3006.63195	1.17052
3004.70338	1.16794
3002.77482	1.16617
3000.84625	1.16542
2998.91769	1.16697
2996.98912	1.16912
2995.06056	1.16902
2993.13199	1.16857
2991.20343	1.17128
2989.27487	1.17705
2987.34630	1.18519
2985.41774	1.19484
2983.48917	1.20409
2981.56061	1.21259
2979.63204	1.22138
2977.70348	1.23164
2975.77491	1.24347
2973.84635	1.25414
2971.91779	1.26232
2969.98922	1.27048
2968.06066	1.27924
2966.13209	1.28662
2964.20353	1.29357
2962.27496	1.30061
2960.34640	1.30215
2958.41783	1.29699
2956.48927	1.29080
2954.56071	1.28359
2952.63214	1.27406
2950.70358	1.26623
2948.77501	1.26276
2946.84645	1.26298
2944.91788	1.26642
2942.98932	1.27291
2941.06075	1.28127
2939.13219	1.29208
2937.20363	1.30721
2935.27506	1.32345
2933.34650	1.33501
2931.41793	1.34227
2929.48937	1.34965
2927.56080	1.35662
2925.63224	1.36086
2923.70367	1.36489
2921.77511	1.36909
2919.84655	1.36863
2917.91798	1.36022
2915.98942	1.34253
2914.06085	1.31651
2912.13229	1.28879
2910.20372	1.26581
2908.27516	1.24734
2906.34659	1.23075
2904.41803	1.21644
2902.48947	1.20653
2900.56090	1.20072
2898.63234	1.19567
2896.70377	1.18950
2894.77521	1.18317
2892.84664	1.17729
2890.91808	1.17135
2888.98952	1.16601
2887.06095	1.16263
2885.13239	1.16135
2883.20382	1.16095
2881.27526	1.16033
2879.34669	1.16046
2877.41813	1.16183
2875.48956	1.16269
2873.56100	1.16155
2871.63244	1.15645
2869.70387	1.14756
2867.77531	1.13858
2865.84674	1.13121
2863.91818	1.12565
2861.98961	1.12305
2860.06105	1.12436
2858.13248	1.12929
2856.20392	1.13632
2854.27536	1.14417
2852.34679	1.15073
2850.41823	1.15018
2848.48966	1.13568
2846.56110	1.10818
2844.63253	1.07733
2842.70397	1.05137
2840.77540	1.03218
2838.84684	1.01756
2836.91828	1.00596
2834.98971	0.99820
2833.06115	0.99394
2831.13258	0.98956
2829.20402	0.98317
2827.27545	0.97721
2825.34689	0.97252
2823.41832	0.96784
2821.48976	0.96345
2819.56120	0.95934
2817.63263	0.95539
2815.70407	0.95217
2813.77550	0.94855
2811.84694	0.94363
2809.91837	0.93905
2807.98981	0.93561
2806.06124	0.93208
2804.13268	0.92832
2802.20412	0.92449
2800.27555	0.91960
2798.34699	0.91431
2796.41842	0.91043
2794.48986	0.90771
2792.56129	0.90483
2790.63273	0.90174
2788.70416	0.89909
2786.77560	0.89645
2784.84704	0.89275
2782.91847	0.88888
2780.98991	0.88649
2779.06134	0.88460
2777.13278	0.88170
2775.20421	0.87864
2773.27565	0.87640
2771.34708	0.87442
2769.41852	0.87215
2767.48996	0.86958
2765.56139	0.86683
2763.63283	0.86409
2761.70426	0.86157
2759.77570	0.85951
2757.84713	0.85766
2755.91857	0.85505
2753.99001	0.85169
2752.06144	0.84873
2750.13288	0.84630
2748.20431	0.84412
2746.27575	0.84272
2744.34718	0.84165
2742.41862	0.83974
2740.49005	0.83727
2738.56149	0.83477
2736.63293	0.83212
2734.70436	0.82969
2732.77580	0.82795
2730.84723	0.82653
2728.91867	0.82471
2726.99010	0.82233
2725.06154	0.81929
2723.13297	0.81559
2721.20441	0.81232
2719.27585	0.81020
2717.34728	0.80842
2715.41872	0.80665
2713.49015	0.80532
2711.56159	0.80385
2709.63302	0.80152
2707.70446	0.79884
2705.77589	0.79647
2703.84733	0.79425
2701.91877	0.79236
2699.99020	0.79100
2698.06164	0.78965
2696.13307	0.78799
2694.20451	0.78586
2692.27594	0.78332
2690.34738	0.78125
2688.41881	0.78024
2686.49025	0.77955
2684.56169	0.77812
2682.63312	0.77607
2680.70456	0.77434
2678.77599	0.77308
2676.84743	0.77168
2674.91886	0.77005
2672.99030	0.76839
2671.06173	0.76637
2669.13317	0.76410
2667.20461	0.76222
2665.27604	0.76047
2663.34748	0.75846
2661.41891	0.75662
2659.49035	0.75512
2657.56178	0.75378
2655.63322	0.75263
2653.70465	0.75170
2651.77609	0.75078
2649.84753	0.74939
2647.91896	0.74733
2645.99040	0.74537
2644.06183	0.74385
2642.13327	0.74238
2640.20470	0.74089
2638.27614	0.73964
2636.34757	0.73867
2634.41901	0.73769
2632.49045	0.73644
2630.56188	0.73504
2628.63332	0.73345
2626.70475	0.73160
2624.77619	0.72975
2622.84762	0.72816
2620.91906	0.72685
2618.99049	0.72588
2617.06193	0.72494
2615.13337	0.72356
2613.20480	0.72196
2611.27624	0.72030
2609.34767	0.71873
2607.41911	0.71782
2605.49054	0.71710
2603.56198	0.71567
2601.63342	0.71406
2599.70485	0.71292
2597.77629	0.71173
2595.84772	0.70983
2593.91916	0.70772
2591.99059	0.70643
2590.06203	0.70566
2588.13346	0.70417
2586.20490	0.70219
2584.27634	0.70064
2582.34777	0.69918
2580.41921	0.69744
2578.49064	0.69578
2576.56208	0.69409
2574.63351	0.69227
2572.70495	0.69070
2570.77638	0.68932
2568.84782	0.68756
2566.91926	0.68530
2564.99069	0.68277
2563.06213	0.68047
2561.13356	0.67914
2559.20500	0.67860
2557.27643	0.67772
2555.34787	0.67609
2553.41930	0.67421
2551.49074	0.67245
2549.56218	0.67090
2547.63361	0.66950
2545.70505	0.66809
2543.77648	0.66677
2541.84792	0.66569
2539.91935	0.66458
2537.99079	0.66329
2536.06222	0.66186
2534.13366	0.66038
2532.20510	0.65935
2530.27653	0.65888
2528.34797	0.65824
2526.41940	0.65702
2524.49084	0.65563
2522.56227	0.65420
2520.63371	0.65259
2518.70514	0.65097
2516.77658	0.64973
2514.84802	0.64901
2512.91945	0.64839
2510.99089	0.64757
2509.06232	0.64663
2507.13376	0.64532
2505.20519	0.64357
2503.27663	0.64210
2501.34806	0.64125
2499.41950	0.64047
2497.49094	0.63922
2495.56237	0.63754
2493.63381	0.63577
2491.70524	0.63413
2489.77668	0.63265
2487.84811	0.63107
2485.91955	0.62920
2483.99098	0.62728
2482.06242	0.62576
2480.13386	0.62460
2478.20529	0.62332
2476.27673	0.62193
2474.34816	0.62070
2472.41960	0.61958
2470.49103	0.61834
2468.56247	0.61678
2466.63391	0.61522
2464.70534	0.61404
2462.77678	0.61297
2460.84821	0.61180
2458.91965	0.61069
2456.99108	0.60970
2455.06252	0.60869
2453.13395	0.60741
2451.20539	0.60591
2449.27683	0.60447
2447.34826	0.60308
2445.41970	0.60173
2443.49113	0.60061
2441.56257	0.59947
2439.63400	0.59798
2437.70544	0.59646
2435.77687	0.59522
2433.84831	0.59412
2431.91975	0.59290
2429.99118	0.59156
2428.06262	0.59009
2426.13405	0.58844
2424.20549	0.58709
2422.27692	0.58628
2420.34836	0.58549
2418.41979	0.58452
2416.49123	0.58344
2414.56267	0.58232
2412.63410	0.58122
2410.70554	0.57997
2408.77697	0.57861
2406.84841	0.57736
2404.91984	0.57619
2402.99128	0.57506
2401.06271	0.57415
2399.13415	0.57349
2397.20559	0.57270
2395.27702	0.57171
2393.34846	0.57058
2391.41989	0.56920
2389.49133	0.56779
2387.56276	0.56661
2385.63420	0.56554
2383.70563	0.56458
2381.77707	0.56400
2379.84851	0.56382
2377.91994	0.56349
2375.99138	0.56260
2374.06281	0.56139
2372.13425	0.55993
2370.20568	0.55818
2368.27712	0.55697
2366.34855	0.55774
2364.41999	0.56018
2362.49143	0.56130
2360.56286	0.55920
2358.63430	0.55591
2356.70573	0.55511
2354.77717	0.55608
2352.84860	0.55595
2350.92004	0.55407
2348.99147	0.55111
2347.06291	0.54854
2345.13435	0.54836
2343.20578	0.54974
2341.27722	0.54887
2339.34865	0.54696
2337.42009	0.54671
2335.49152	0.54649
2333.56296	0.54547
2331.63440	0.54547
2329.70583	0.54648
2327.77727	0.54687
2325.84870	0.54600
2323.92014	0.54486
2321.99157	0.54431
2320.06301	0.54337
2318.13444	0.54186
2316.20588	0.54072
2314.27732	0.54011
2312.34875	0.53979
2310.42019	0.53938
2308.49162	0.53834
2306.56306	0.53689
2304.63449	0.53561
2302.70593	0.53459
2300.77736	0.53355
2298.84880	0.53266
2296.92024	0.53197
2294.99167	0.53104
2293.06311	0.52998
2291.13454	0.52911
2289.20598	0.52816
2287.27741	0.52712
2285.34885	0.52641
2283.42028	0.52607
2281.49172	0.52586
2279.56316	0.52550
2277.63459	0.52477
2275.70603	0.52380
2273.77746	0.52296
2271.84890	0.52244
2269.92033	0.52231
2267.99177	0.52226
2266.06320	0.52171
2264.13464	0.52078
2262.20608	0.52003
2260.27751	0.51944
2258.34895	0.51890
2256.42038	0.51844
2254.49182	0.51802
2252.56325	0.51756
2250.63469	0.51698
2248.70612	0.51630
2246.77756	0.51577
2244.84900	0.51549
2242.92043	0.51514
2240.99187	0.51446
2239.06330	0.51377
2237.13474	0.51328
2235.20617	0.51269
2233.27761	0.51188
2231.34904	0.51109
2229.42048	0.51033
2227.49192	0.50959
2225.56335	0.50909
2223.63479	0.50880
2221.70622	0.50839
2219.77766	0.50771
2217.84909	0.50712
2215.92053	0.50664
2213.99196	0.50591
2212.06340	0.50514
2210.13484	0.50462
2208.20627	0.50402
2206.27771	0.50320
2204.34914	0.50256
2202.42058	0.50232
2200.49201	0.50203
2198.56345	0.50131
2196.63488	0.50043
2194.70632	0.49977
2192.77776	0.49926
2190.84919	0.49869
2188.92063	0.49820
2186.99206	0.49781
2185.06350	0.49732
2183.13493	0.49659
2181.20637	0.49587
2179.27781	0.49547
2177.34924	0.49531
2175.42068	0.49512
2173.49211	0.49484
2171.56355	0.49451
2169.63498	0.49417
2167.70642	0.49390
2165.77785	0.49373
2163.84929	0.49354
2161.92073	0.49318
2159.99216	0.49275
2158.06360	0.49224
2156.13503	0.49161
2154.20647	0.49114
2152.27790	0.49098
2150.34934	0.49075
2148.42077	0.49023
2146.49221	0.48961
2144.56365	0.48915
2142.63508	0.48883
2140.70652	0.48828
2138.77795	0.48740
2136.84939	0.48658
2134.92082	0.48601
2132.99226	0.48546
2131.06369	0.48466
2129.13513	0.48381
2127.20657	0.48325
2125.27800	0.48278
2123.34944	0.48212
2121.42087	0.48128
2119.49231	0.48025
2117.56374	0.47915
2115.63518	0.47819
2113.70661	0.47734
2111.77805	0.47670
2109.84949	0.47639
2107.92092	0.47607
2105.99236	0.47553
2104.06379	0.47501
2102.13523	0.47463
2100.20666	0.47427
2098.27810	0.47383
2096.34953	0.47314
2094.42097	0.47225
2092.49241	0.47150
2090.56384	0.47099
2088.63528	0.47053
2086.70671	0.46979
2084.77815	0.46876
2082.84958	0.46779
2080.92102	0.46712
2078.99245	0.46663
2077.06389	0.46614
2075.13533	0.46555
2073.20676	0.46484
2071.27820	0.46421
2069.34963	0.46374
2067.42107	0.46328
2065.49250	0.46278
2063.56394	0.46227
2061.63537	0.46168
2059.70681	0.46104
2057.77825	0.46049
2055.84968	0.46003
2053.92112	0.45941
2051.99255	0.45857
2050.06399	0.45779
2048.13542	0.45711
2046.20686	0.45638
2044.27830	0.45561
2042.34973	0.45480
2040.42117	0.45392
2038.49260	0.45306
2036.56404	0.45226
2034.63547	0.45149
2032.70691	0.45078
2030.77834	0.45015
2028.84978	0.44946
2026.92122	0.44863
2024.99265	0.44784
2023.06409	0.44716
2021.13552	0.44653
2019.20696	0.44605
2017.27839	0.44557
2015.34983	0.44463
2013.42126	0.44331
2011.49270	0.44210
2009.56414	0.44118
2007.63557	0.44037
2005.70701	0.43945
2003.77844	0.43839
2001.84988	0.43718
1999.92131	0.43599
1997.99275	0.43491
1996.06418	0.43384
1994.13562	0.43297
1992.20706	0.43253
1990.27849	0.43214
1988.34993	0.43155
1986.42136	0.43102
1984.49280	0.43060
1982.56423	0.43025
1980.63567	0.42982
1978.70710	0.42923
1976.77854	0.42869
1974.84998	0.42827
1972.92141	0.42779
1970.99285	0.42708
1969.06428	0.42636
1967.13572	0.42602
1965.20715	0.42563
1963.27859	0.42482
1961.35002	0.42408
1959.42146	0.42344
1957.49290	0.42265
1955.56433	0.42193
1953.63577	0.42138
1951.70720	0.42067
1949.77864	0.41970
1947.85007	0.41871
1945.92151	0.41778
1943.99294	0.41709
1942.06438	0.41673
1940.13582	0.41612
1938.20725	0.41510
1936.27869	0.41405
1934.35012	0.41309
1932.42156	0.41216
1930.49299	0.41128
1928.56443	0.41050
1926.63586	0.40961
1924.70730	0.40871
1922.77874	0.40816
1920.85017	0.40742
1918.92161	0.40653
1916.99304	0.40604
1915.06448	0.40548
1913.13591	0.40465
1911.20735	0.40396
1909.27878	0.40346
1907.35022	0.40284
1905.42166	0.40212
1903.49309	0.40165
1901.56453	0.40133
1899.63596	0.40091
1897.70740	0.40045
1895.77883	0.40029
1893.85027	0.40020
1891.92171	0.39983
1889.99314	0.39979
1888.06458	0.39990
1886.13601	0.39944
1884.20745	0.39879
1882.27888	0.39833
1880.35032	0.39811
1878.42175	0.39812
1876.49319	0.39804
1874.56463	0.39753
1872.63606	0.39665
1870.70750	0.39608
1868.77893	0.39668
1866.85037	0.39726
1864.92180	0.39659
1862.99324	0.39572
1861.06467	0.39530
1859.13611	0.39512
1857.20755	0.39488
1855.27898	0.39461
1853.35042	0.39435
1851.42185	0.39398
1849.49329	0.39345
1847.56472	0.39286
1845.63616	0.39293
1843.70759	0.39406
1841.77903	0.39446
1839.85047	0.39385
1837.92190	0.39340
1835.99334	0.39308
1834.06477	0.39237
1832.13621	0.39190
1830.20764	0.39248
1828.27908	0.39302
1826.35051	0.39285
1824.42195	0.39309
1822.49339	0.39328
1820.56482	0.39297
1818.63626	0.39287
1816.70769	0.39305
1814.77913	0.39324
1812.85056	0.39365
1810.92200	0.39453
1808.99343	0.39528
1807.06487	0.39555
1805.13631	0.39576
1803.20774	0.39624
1801.27918	0.39743
1799.35061	0.39875
1797.42205	0.39925
1795.49348	0.39932
1793.56492	0.40020
1791.63635	0.40262
1789.70779	0.40397
1787.77923	0.40402
1785.85066	0.40449
1783.92210	0.40550
1781.99353	0.40660
1780.06497	0.40788
1778.13640	0.40891
1776.20784	0.40947
1774.27927	0.41075
1772.35071	0.41413
1770.42215	0.41760
1768.49358	0.41954
1766.56502	0.42084
1764.63645	0.42197
1762.70789	0.42456
1760.77932	0.42900
1758.85076	0.43331
1756.92220	0.43866
1754.99363	0.44424
1753.06507	0.44924
1751.13650	0.45731
1749.20794	0.46943
1747.27937	0.47997
1745.35081	0.48771
1743.42224	0.49451
1741.49368	0.50126
1739.56512	0.50763
1737.63655	0.51127
1735.70799	0.51342
1733.77942	0.51904
1731.85086	0.52470
1729.92229	0.52777
1727.99373	0.53086
1726.06516	0.53441
1724.13660	0.53963
1722.20804	0.54536
1720.27947	0.55032
1718.35091	0.55930
1716.42234	0.57749
1714.49378	0.59374
1712.56521	0.60656
1710.63665	0.62125
1708.70808	0.63928
1706.77952	0.66615
1704.85096	0.70299
1702.92239	0.73764
1700.99383	0.78643
1699.06526	0.86532
1697.13670	0.94126
1695.20813	1.01647
1693.27957	1.07190
1691.35100	1.11430
1689.42244	1.16623
1687.49388	1.21566
1685.56531	1.26488
1683.63675	1.33542
1681.70818	1.38009
1679.77962	1.40200
1677.85105	1.42407
1675.92249	1.45206
1673.99392	1.48023
1672.06536	1.49761
1670.13680	1.51205
1668.20823	1.53165
1666.27967	1.54475
1664.35110	1.55440
1662.42254	1.56351
1660.49397	1.56702
1658.56541	1.56763
1656.63684	1.56806
1654.70828	1.57266
1652.77972	1.57767
1650.85115	1.57379
1648.92259	1.56910
1646.99402	1.56501
1645.06546	1.56270
1643.13689	1.55957
1641.20833	1.55626
1639.27976	1.55135
1637.35120	1.54657
1635.42264	1.54330
1633.49407	1.53692
1631.56551	1.53066
1629.63694	1.52496
1627.70838	1.51824
1625.77981	1.50717
1623.85125	1.48919
1621.92269	1.46697
1619.99412	1.44803
1618.06556	1.42733
1616.13699	1.39565
1614.20843	1.36557
1612.27986	1.34007
1610.35130	1.31397
1608.42273	1.28828
1606.49417	1.26699
1604.56561	1.25051
1602.63704	1.23762
1600.70848	1.23013
1598.77991	1.22744
1596.85135	1.22687
1594.92278	1.22746
1592.99422	1.22949
1591.06565	1.23364
1589.13709	1.24041
1587.20853	1.24936
1585.27996	1.25980
1583.35140	1.27282
1581.42283	1.28769
1579.49427	1.30147
1577.56570	1.31817
1575.63714	1.34263
1573.70857	1.35861
1571.78001	1.36766
1569.85145	1.38401
1567.92288	1.40377
1565.99432	1.41723
1564.06575	1.42930
1562.13719	1.43998
1560.20862	1.45697
1558.28006	1.48813
1556.35149	1.49454
1554.42293	1.49400
1552.49437	1.49633
1550.56580	1.49992
1548.63724	1.50026
1546.70867	1.49627
1544.78011	1.48965
1542.85154	1.47969
1540.92298	1.46964
1538.99441	1.46532
1537.06585	1.46093
1535.13729	1.45324
1533.20872	1.44222
1531.28016	1.42969
1529.35159	1.41790
1527.42303	1.40709
1525.49446	1.39908
1523.56590	1.39443
1521.63733	1.38830
1519.70877	1.38038
1517.78021	1.37018
1515.85164	1.35495
1513.92308	1.33651
1511.99451	1.31562
1510.06595	1.29446
1508.13738	1.26540
1506.20882	1.21543
1504.28025	1.18443
1502.35169	1.16320
1500.42313	1.13935
1498.49456	1.11039
1496.56600	1.07832
1494.63743	1.05263
1492.70887	1.03329
1490.78030	1.01165
1488.85174	0.98575
1486.92317	0.96666
1484.99461	0.95491
1483.06605	0.94740
1481.13748	0.94368
1479.20892	0.94404
1477.28035	0.94907
1475.35179	0.96038
1473.42322	0.98307
1471.49466	1.00969
1469.56610	1.02323
1467.63753	1.03081
1465.70897	1.04112
1463.78040	1.05322
1461.85184	1.06031
1459.92327	1.06496
1457.99471	1.07588
1456.06614	1.09001
1454.13758	1.09230
1452.20902	1.08984
1450.28045	1.08672
1448.35189	1.08355
1446.42332	1.07963
1444.49476	1.07451
1442.56619	1.06831
1440.63763	1.06168
1438.70906	1.05404
1436.78050	1.04283
1434.85194	1.03042
1432.92337	1.02052
1430.99481	1.01185
1429.06624	1.00496
1427.13768	1.00126
1425.20911	1.00083
1423.28055	1.00312
1421.35198	1.00670
1419.42342	1.01305
1417.49486	1.02066
1415.56629	1.02442
1413.63773	1.02683
1411.70916	1.03043
1409.78060	1.03544
1407.85203	1.04091
1405.92347	1.04734
1403.99490	1.05385
1402.06634	1.05752
1400.13778	1.05971
1398.20921	1.06187
1396.28065	1.06320
1394.35208	1.06341
1392.42352	1.06290
1390.49495	1.06261
1388.56639	1.06502
1386.63782	1.07216
1384.70926	1.08010
1382.78070	1.08563
1380.85213	1.08829
1378.92357	1.08683
1376.99500	1.07995
1375.06644	1.06623
1373.13787	1.04729
1371.20931	1.02823
1369.28074	1.00804
1367.35218	0.98600
1365.42362	0.96513
1363.49505	0.94534
1361.56649	0.92829
1359.63792	0.91696
1357.70936	0.90962
1355.78079	0.90492
1353.85223	0.90238
1351.92366	0.90097
1349.99510	0.89987
1348.06654	0.89893
1346.13797	0.89843
1344.20941	0.89866
1342.28084	0.89930
1340.35228	0.90056
1338.42371	0.90320
1336.49515	0.90730
1334.56659	0.91335
1332.63802	0.92178
1330.70946	0.93177
1328.78089	0.94155
1326.85233	0.94946
1324.92376	0.95497
1322.99520	0.95902
1321.06663	0.96317
1319.13807	0.96831
1317.20951	0.97349
1315.28094	0.97726
1313.35238	0.98020
1311.42381	0.98304
1309.49525	0.98500
1307.56668	0.98545
1305.63812	0.98451
1303.70955	0.98228
1301.78099	0.97853
1299.85243	0.97332
1297.92386	0.96686
1295.99530	0.95943
1294.06673	0.95212
1292.13817	0.94633
1290.20960	0.94234
1288.28104	0.93912
1286.35247	0.93606
1284.42391	0.93322
1282.49535	0.93052
1280.56678	0.92830
1278.63822	0.92722
1276.70965	0.92748
1274.78109	0.92914
1272.85252	0.93254
1270.92396	0.93780
1268.99539	0.94417
1267.06683	0.95059
1265.13827	0.95639
1263.20970	0.96099
1261.28114	0.96422
1259.35257	0.96638
1257.42401	0.96782
1255.49544	0.96943
1253.56688	0.97177
1251.63831	0.97429
1249.70975	0.97653
1247.78119	0.97826
1245.85262	0.97926
1243.92406	0.97982
1241.99549	0.98045
1240.06693	0.98051
1238.13836	0.97897
1236.20980	0.97565
1234.28123	0.97072
1232.35267	0.96444
1230.42411	0.95693
1228.49554	0.94828
1226.56698	0.93864
1224.63841	0.92775
1222.70985	0.91590
1220.78128	0.90417
1218.85272	0.89330
1216.92415	0.88367
1214.99559	0.87592
1213.06703	0.87084
1211.13846	0.86861
1209.20990	0.86788
1207.28133	0.86612
1205.35277	0.86135
1203.42420	0.85319
1201.49564	0.84247
1199.56708	0.83041
1197.63851	0.81797
1195.70995	0.80621
1193.78138	0.79603
1191.85282	0.78773
1189.92425	0.78152
1187.99569	0.77727
1186.06712	0.77462
1184.13856	0.77380
1182.21000	0.77545
1180.28143	0.77975
1178.35287	0.78664
1176.42430	0.79614
1174.49574	0.80756
1172.56717	0.81952
1170.63861	0.83170
1168.71004	0.84521
1166.78148	0.86046
1164.85292	0.87604
1162.92435	0.89014
1160.99579	0.90097
1159.06722	0.90619
1157.13866	0.90440
1155.21009	0.89630
1153.28153	0.88391
1151.35296	0.86936
1149.42440	0.85442
1147.49584	0.84048
1145.56727	0.82855
1143.63871	0.81987
1141.71014	0.81561
1139.78158	0.81609
1137.85301	0.82077
1135.92445	0.82830
1133.99588	0.83797
1132.06732	0.85065
1130.13876	0.86706
1128.21019	0.88606
1126.28163	0.90531
1124.35306	0.92341
1122.42450	0.93995
1120.49593	0.95445
1118.56737	0.96562
1116.63880	0.97183
1114.71024	0.97320
1112.78168	0.97142
1110.85311	0.96787
1108.92455	0.96321
1106.99598	0.95806
1105.06742	0.95311
1103.13885	0.94929
1101.21029	0.94782
1099.28172	0.94891
1097.35316	0.95237
1095.42460	0.95918
1093.49603	0.96984
1091.56747	0.98372
1089.63890	1.00019
1087.71034	1.01903
1085.78177	1.04025
1083.85321	1.06263
1081.92464	1.08289
1079.99608	1.09783
1078.06752	1.10617
1076.13895	1.10756
1074.21039	1.10279
1072.28182	1.09398
1070.35326	1.08307
1068.42469	1.07147
1066.49613	1.05945
1064.56756	1.04632
1062.63900	1.03274
1060.71044	1.01981
1058.78187	1.00708
1056.85331	0.99413
1054.92474	0.98202
1052.99618	0.97141
1051.06761	0.96188
1049.13905	0.95415
1047.21049	0.95011
1045.28192	0.95059
1043.35336	0.95463
1041.42479	0.96047
1039.49623	0.96599
1037.56766	0.97031
1035.63910	0.97382
1033.71053	0.97574
1031.78197	0.97467
1029.85341	0.97042
1027.92484	0.96348
1025.99628	0.95421
1024.06771	0.94305
1022.13915	0.93128
1020.21058	0.92107
1018.28202	0.91354
1016.35345	0.90709
1014.42489	0.89821
1012.49633	0.88379
1010.56776	0.86422
1008.63920	0.84216
1006.71063	0.81919
1004.78207	0.79643
1002.85350	0.77550
1000.92494	0.75732
998.99637	0.74192
997.06781	0.72918
995.13925	0.71853
993.21068	0.70886
991.28212	0.69913
989.35355	0.68906
987.42499	0.67919
985.49642	0.67023
983.56786	0.66258
981.63929	0.65669
979.71073	0.65275
977.78217	0.64987
975.85360	0.64673
973.92504	0.64220
971.99647	0.63560
970.06791	0.62724
968.13934	0.61815
966.21078	0.60947
964.28221	0.60252
962.35365	0.59889
960.42509	0.60009
958.49652	0.60623
956.56796	0.61431
954.63939	0.61917
952.71083	0.61761
950.78226	0.61040
948.85370	0.60023
946.92513	0.58992
944.99657	0.58151
943.06801	0.57556
941.13944	0.57146
939.21088	0.56839
937.28231	0.56595
935.35375	0.56398
933.42518	0.56249
931.49662	0.56166
929.56805	0.56150
927.63949	0.56184
925.71093	0.56268
923.78236	0.56404
921.85380	0.56537
919.92523	0.56570
917.99667	0.56474
916.06810	0.56339
914.13954	0.56239
912.21098	0.56185
910.28241	0.56251
908.35385	0.56493
906.42528	0.56861
904.49672	0.57314
902.56815	0.57814
900.63959	0.58269
898.71102	0.58635
896.78246	0.58928
894.85390	0.59132
892.92533	0.59223
890.99677	0.59218
889.06820	0.59144
887.13964	0.59052
885.21107	0.59010
883.28251	0.59016
881.35394	0.59010
879.42538	0.58990
877.49682	0.58990
875.56825	0.58999
873.63969	0.59003
871.71112	0.59025
869.78256	0.59071
867.85399	0.59143
865.92543	0.59268
863.99686	0.59471
862.06830	0.59735
860.13974	0.60047
858.21117	0.60425
856.28261	0.60880
854.35404	0.61382
852.42548	0.61863
850.49691	0.62284
848.56835	0.62674
846.63978	0.63047
844.71122	0.63385
842.78266	0.63708
840.85409	0.64033
838.92553	0.64326
836.99696	0.64578
835.06840	0.64827
833.13983	0.65084
831.21127	0.65314
829.28270	0.65502
827.35414	0.65675
825.42558	0.65835
823.49701	0.65994
821.56845	0.66204
819.63988	0.66438
817.71132	0.66661
815.78275	0.66924
813.85419	0.67215
811.92562	0.67462
809.99706	0.67672
808.06850	0.67899
806.13993	0.68120
804.21137	0.68267
802.28280	0.68383
800.35424	0.68549
798.42567	0.68733
796.49711	0.68923
794.56854	0.69171
792.63998	0.69484
790.71142	0.69847
788.78285	0.70257
786.85429	0.70729
784.92572	0.71289
782.99716	0.71888
781.06859	0.72475
779.14003	0.73029
777.21147	0.73546
775.28290	0.74065
773.35434	0.74606
771.42577	0.75151
769.49721	0.75637
767.56864	0.76018
765.64008	0.76360
763.71151	0.76741
761.78295	0.77171
759.85439	0.77611
757.92582	0.77987
755.99726	0.78327
754.06869	0.78778
752.14013	0.79328
750.21156	0.79794
748.28300	0.80148
746.35443	0.80473
744.42587	0.80759
742.49731	0.80978
740.56874	0.81203
738.64018	0.81513
736.71161	0.81856
734.78305	0.82195
732.85448	0.82591
730.92592	0.83028
728.99735	0.83467
727.06879	0.83979
725.14023	0.84605
723.21166	0.85241
721.28310	0.85747
719.35453	0.86081
717.42597	0.86337
715.49740	0.86656
713.56884	0.87121
711.64027	0.87662
709.71171	0.88182
707.78315	0.88708
705.85458	0.89218
703.92602	0.89658
701.99745	0.90045
700.06889	0.90315
698.14032	0.90408
696.21176	0.90476
694.28319	0.90621
692.35463	0.90695
690.42607	0.90631
688.49750	0.90579
686.56894	0.90640
684.64037	0.90745
682.71181	0.90786
680.78324	0.90751
678.85468	0.90759
676.92611	0.90937
674.99755	0.91201
673.06899	0.91377
671.14042	0.91427
669.21186	0.91505
667.28329	0.91924
665.35473	0.92441
663.42616	0.92850
661.49760	0.93120
659.56903	0.93181
657.64047	0.93102
655.71191	0.92979
653.78334	0.92954
651.85478	0.93126
649.92621	0.93422
647.99765	0.93762
646.06908	0.94109
644.14052	0.94464
642.21195	0.94911
640.28339	0.95405
638.35483	0.95716
636.42626	0.95826
634.49770	0.95933
632.56913	0.96107
630.64057	0.96308
628.71200	0.96500
626.78344	0.96661
624.85488	0.96818
622.92631	0.96988
620.99775	0.97130
619.06918	0.97296
617.14062	0.97482
615.21205	0.97455
613.28349	0.97410
611.35492	0.97677
609.42636	0.97852
607.49780	0.97699
605.56923	0.97662
603.64067	0.97761
601.71210	0.97677
599.78354	0.97499
