3997.91406	0.47619
3995.98550	0.47493
3994.05693	0.47448
3992.12837	0.47447
3990.19980	0.47444
3988.27124	0.47354
3986.34268	0.47213
3984.41411	0.47175
3982.48555	0.47232
3980.55698	0.47241
3978.62842	0.47133
3976.69985	0.47002
3974.77129	0.46978
3972.84272	0.47049
3970.91416	0.47167
3968.98560	0.47276
3967.05703	0.47244
3965.12847	0.47066
3963.19990	0.46951
3961.27134	0.46958
3959.34277	0.46933
3957.41421	0.46914
3955.48564	0.46901
3953.55708	0.46737
3951.62852	0.46516
3949.69995	0.46573
3947.77139	0.46821
3945.84282	0.46764
3943.91426	0.46687
3941.98569	0.46905
3940.05713	0.46890
3938.12856	0.46524
3936.20000	0.46078
3934.27144	0.45792
3932.34287	0.46043
3930.41431	0.46537
3928.48574	0.46477
3926.55718	0.46136
3924.62861	0.46163
3922.70005	0.46180
3920.77148	0.45867
3918.84292	0.45861
3916.91436	0.46362
3914.98579	0.46606
3913.05723	0.46375
3911.12866	0.46046
3909.20010	0.45536
3907.27153	0.44727
3905.34297	0.44330
3903.41440	0.44922
3901.48584	0.45655
3899.55728	0.46150
3897.62871	0.46162
3895.70015	0.45423
3893.77158	0.44698
3891.84302	0.45086
3889.91445	0.45448
3887.98589	0.44708
3886.05733	0.44310
3884.12876	0.44605
3882.20020	0.44682
3880.27163	0.45228
3878.34307	0.45309
3876.41450	0.44432
3874.48594	0.43723
3872.55737	0.43472
3870.62881	0.43934
3868.70025	0.44671
3866.77168	0.44439
3864.84312	0.44380
3862.91455	0.45033
3860.98599	0.44984
3859.05742	0.44091
3857.12886	0.42659
3855.20029	0.41428
3853.27173	0.43248
3851.34317	0.45522
3849.41460	0.45387
3847.48604	0.44531
3845.55747	0.43737
3843.62891	0.43295
3841.70034	0.42992
3839.77178	0.42905
3837.84321	0.43693
3835.91465	0.44393
3833.98609	0.44501
3832.05752	0.44556
3830.12896	0.44419
3828.20039	0.44107
3826.27183	0.43837
3824.34326	0.43066
3822.41470	0.42437
3820.48613	0.43345
3818.55757	0.43837
3816.62901	0.44183
3814.70044	0.44899
3812.77188	0.44561
3810.84331	0.43557
3808.91475	0.42889
3806.98618	0.43218
3805.05762	0.43192
3803.12905	0.42677
3801.20049	0.43540
3799.27193	0.44189
3797.34336	0.44088
3795.41480	0.44232
3793.48623	0.44066
3791.55767	0.43683
3789.62910	0.43424
3787.70054	0.43242
3785.77197	0.43439
3783.84341	0.43688
3781.91485	0.43360
3779.98628	0.43373
3778.05772	0.44002
3776.12915	0.43979
3774.20059	0.43303
3772.27202	0.42707
3770.34346	0.42879
3768.41489	0.43355
3766.48633	0.43477
3764.55777	0.43492
3762.62920	0.43078
3760.70064	0.42662
3758.77207	0.43027
3756.84351	0.43078
3754.91494	0.42092
3752.98638	0.40979
3751.05781	0.41681
3749.12925	0.42896
3747.20069	0.42336
3745.27212	0.42400
3743.34356	0.43599
3741.41499	0.43354
3739.48643	0.42035
3737.55786	0.40958
3735.62930	0.41582
3733.70074	0.43476
3731.77217	0.44139
3729.84361	0.43566
3727.91504	0.42803
3725.98648	0.42630
3724.05791	0.42959
3722.12935	0.43377
3720.20078	0.43731
3718.27222	0.43674
3716.34366	0.42999
3714.41509	0.41950
3712.48653	0.41761
3710.55796	0.43328
3708.62940	0.44207
3706.70083	0.43842
3704.77227	0.43130
3702.84370	0.43038
3700.91514	0.43689
3698.98658	0.43864
3697.05801	0.43577
3695.12945	0.43192
3693.20088	0.42564
3691.27232	0.42263
3689.34375	0.43697
3687.41519	0.45094
3685.48662	0.44990
3683.55806	0.44388
3681.62950	0.43812
3679.70093	0.43158
3677.77237	0.42497
3675.84380	0.43523
3673.91524	0.44957
3671.98667	0.44817
3670.05811	0.45794
3668.12954	0.47248
3666.20098	0.47200
3664.27242	0.46842
3662.34385	0.46804
3660.41529	0.46756
3658.48672	0.46649
3656.55816	0.47248
3654.62959	0.47699
3652.70103	0.46815
3650.77246	0.46199
3648.84390	0.48996
3646.91534	0.51437
3644.98677	0.51458
3643.05821	0.51200
3641.12964	0.51391
3639.20108	0.51742
3637.27251	0.51925
3635.34395	0.52075
3633.41538	0.52109
3631.48682	0.51823
3629.55826	0.52869
3627.62969	0.55555
3625.70113	0.56181
3623.77256	0.55505
3621.84400	0.54833
3619.91543	0.55282
3617.98687	0.56734
3616.05830	0.57410
3614.12974	0.57824
3612.20118	0.58457
3610.27261	0.58907
3608.34405	0.59697
3606.41548	0.60647
3604.48692	0.60919
3602.55835	0.60984
3600.62979	0.61493
3598.70123	0.62129
3596.77266	0.62644
3594.84410	0.63460
3592.91553	0.64146
3590.98697	0.64154
3589.05840	0.64461
3587.12984	0.66126
3585.20127	0.67499
3583.27271	0.67872
3581.34415	0.68190
3579.41558	0.68778
3577.48702	0.69391
3575.55845	0.69898
3573.62989	0.70286
3571.70132	0.70290
3569.77276	0.70031
3567.84419	0.70844
3565.91563	0.73033
3563.98707	0.74196
3562.05850	0.74549
3560.12994	0.75007
3558.20137	0.75553
3556.27281	0.75969
3554.34424	0.76521
3552.41568	0.77547
3550.48711	0.78381
3548.55855	0.78743
3546.62999	0.79497
3544.70142	0.80778
3542.77286	0.81722
3540.84429	0.82250
3538.91573	0.82777
3536.98716	0.83479
3535.05860	0.84180
3533.13003	0.84695
3531.20147	0.85216
3529.27291	0.85945
3527.34434	0.86740
3525.41578	0.87587
3523.48721	0.88671
3521.55865	0.89636
3519.63008	0.90145
3517.70152	0.90590
3515.77295	0.91270
3513.84439	0.92073
3511.91583	0.93063
3509.98726	0.94397
3508.05870	0.95563
3506.13013	0.96092
3504.20157	0.96720
3502.27300	0.97911
3500.34444	0.98916
3498.41587	0.99694
3496.48731	1.00743
3494.55875	1.01833
3492.63018	1.02630
3490.70162	1.03375
3488.77305	1.04141
3486.84449	1.04712
3484.91592	1.05156
3482.98736	1.05689
3481.05879	1.06269
3479.13023	1.06866
3477.20167	1.07617
3475.27310	1.08206
3473.34454	1.08366
3471.41597	1.08564
3469.48741	1.09083
3467.55884	1.09694
3465.63028	1.10218
3463.70171	1.10661
3461.77315	1.11031
3459.84459	1.11374
3457.91602	1.11778
3455.98746	1.12245
3454.05889	1.12854
3452.13033	1.13674
3450.20176	1.14475
3448.27320	1.15171
3446.34464	1.16001
3444.41607	1.16702
3442.48751	1.16854
3440.55894	1.16717
3438.63038	1.16733
3436.70181	1.16991
3434.77325	1.17456
3432.84468	1.17974
3430.91612	1.18237
3428.98756	1.18199
3427.05899	1.18086
3425.13043	1.18147
3423.20186	1.18496
3421.27330	1.18996
3419.34473	1.19402
3417.41617	1.19479
3415.48760	1.19270
3413.55904	1.19249
3411.63048	1.19655
3409.70191	1.20017
3407.77335	1.20100
3405.84478	1.20257
3403.91622	1.20560
3401.98765	1.20913
3400.05909	1.21302
3398.13052	1.21705
3396.20196	1.22082
3394.27340	1.22254
3392.34483	1.22314
3390.41627	1.22467
3388.48770	1.22642
3386.55914	1.22882
3384.63057	1.23258
3382.70201	1.23753
3380.77344	1.24387
3378.84488	1.24957
3376.91632	1.25273
3374.98775	1.25341
3373.05919	1.25144
3371.13062	1.25084
3369.20206	1.25669
3367.27349	1.26573
3365.34493	1.27168
3363.41636	1.27537
3361.48780	1.27992
3359.55924	1.28347
3357.63067	1.28506
3355.70211	1.28831
3353.77354	1.29486
3351.84498	1.30174
3349.91641	1.30658
3347.98785	1.30914
3346.05928	1.30928
3344.13072	1.31013
3342.20216	1.31342
3340.27359	1.31568
3338.34503	1.31899
3336.41646	1.32612
3334.48790	1.33018
3332.55933	1.32955
3330.63077	1.33298
3328.70220	1.34199
3326.77364	1.34895
3324.84508	1.35189
3322.91651	1.35653
3320.98795	1.36489
3319.05938	1.37431
3317.13082	1.38248
3315.20225	1.38949
3313.27369	1.39647
3311.34513	1.40107
3309.41656	1.40355
3307.48800	1.40791
3305.55943	1.41082
3303.63087	1.40875
3301.70230	1.40572
3299.77374	1.40631
3297.84517	1.41066
3295.91661	1.41639
3293.98805	1.42370
3292.05948	1.43029
3290.13092	1.42964
3288.20235	1.42227
3286.27379	1.41473
3284.34522	1.41296
3282.41666	1.41622
3280.48809	1.41669
3278.55953	1.41327
3276.63097	1.41001
3274.70240	1.40749
3272.77384	1.40749
3270.84527	1.41018
3268.91671	1.41198
3266.98814	1.41024
3265.05958	1.40489
3263.13101	1.39772
3261.20245	1.38935
3259.27389	1.38012
3257.34532	1.37281
3255.41676	1.36824
3253.48819	1.36332
3251.55963	1.35766
3249.63106	1.35320
3247.70250	1.34839
3245.77393	1.34040
3243.84537	1.32862
3241.91681	1.31684
3239.98824	1.30945
3238.05968	1.30471
3236.13111	1.29980
3234.20255	1.29593
3232.27398	1.29209
3230.34542	1.28547
3228.41685	1.27793
3226.48829	1.27318
3224.55973	1.27014
3222.63116	1.26617
3220.70260	1.26224
3218.77403	1.25958
3216.84547	1.25786
3214.91690	1.25615
3212.98834	1.25228
3211.05977	1.24632
3209.13121	1.24015
3207.20265	1.23456
3205.27408	1.23070
3203.34552	1.22833
3201.41695	1.22493
3199.48839	1.21949
3197.55982	1.21366
3195.63126	1.20925
3193.70269	1.20552
3191.77413	1.20110
3189.84557	1.19709
3187.91700	1.19377
3185.98844	1.18939
3184.05987	1.18383
3182.13131	1.17811
3180.20274	1.17356
3178.27418	1.17101
3176.34562	1.16808
3174.41705	1.16301
3172.48849	1.15779
3170.55992	1.15406
3168.63136	1.15125
3166.70279	1.14811
3164.77423	1.14403
3162.84566	1.14039
3160.91710	1.13772
3158.98854	1.13378
3157.05997	1.12852
3155.13141	1.12403
3153.20284	1.11950
3151.27428	1.11474
3149.34571	1.11206
3147.41715	1.11091
3145.48858	1.10892
3143.56002	1.10515
3141.63146	1.10124
3139.70289	1.10071
3137.77433	1.10322
3135.84576	1.10480
3133.91720	1.10378
3131.98863	1.10080
3130.06007	1.09728
3128.13150	1.09468
3126.20294	1.09344
3124.27438	1.09281
3122.34581	1.09184
3120.41725	1.09061
3118.48868	1.08987
3116.56012	1.09047
3114.63155	1.09249
3112.70299	1.09390
3110.77442	1.09349
3108.84586	1.09282
3106.91730	1.09291
3104.98873	1.09318
3103.06017	1.09292
3101.13160	1.09195
3099.20304	1.09047
3097.27447	1.08837
3095.34591	1.08640
3093.41734	1.08585
3091.48878	1.08661
3089.56022	1.08696
3087.63165	1.08533
3085.70309	1.08268
3083.77452	1.08138
3081.84596	1.08143
3079.91739	1.08045
3077.98883	1.07798
3076.06026	1.07654
3074.13170	1.07696
3072.20314	1.07634
3070.27457	1.07237
3068.34601	1.06742
3066.41744	1.06416
3064.48888	1.06160
3062.56031	1.05885
3060.63175	1.05587
3058.70318	1.05173
3056.77462	1.04642
3054.84606	1.04101
3052.91749	1.03576
3050.98893	1.03120
3049.06036	1.02807
3047.13180	1.02454
3045.20323	1.01918
3043.27467	1.01427
3041.34610	1.01120
3039.41754	1.00780
3037.48898	1.00196
3035.56041	0.99585
3033.63185	0.99354
3031.70328	0.99432
3029.77472	0.99367
3027.84615	0.98975
3025.91759	0.98488
3023.98903	0.98116
3022.06046	0.97774
3020.13190	0.97365
3018.20333	0.96971
3016.27477	0.96665
3014.34620	0.96366
3012.41764	0.96063
3010.48907	0.95927
3008.56051	0.95891
3006.63195	0.95702
3004.70338	0.95383
3002.77482	0.95113
3000.84625	0.94962
2998.91769	0.94961
2996.98912	0.95093
2995.06056	0.95272
2993.13199	0.95488
2991.20343	0.95813
2989.27487	0.96303
2987.34630	0.96960
2985.41774	0.97692
2983.48917	0.98372
2981.56061	0.99022
2979.63204	0.99739
2977.70348	1.00518
2975.77491	1.01392
2973.84635	1.02462
2971.91779	1.03714
2969.98922	1.04938
2968.06066	1.05850
2966.13209	1.06446
2964.20353	1.06960
2962.27496	1.07421
2960.34640	1.07650
2958.41783	1.07446
2956.48927	1.06827
2954.56071	1.06140
2952.63214	1.05625
2950.70358	1.05184
2948.77501	1.04786
2946.84645	1.04651
2944.91788	1.04920
2942.98932	1.05538
2941.06075	1.06441
2939.13219	1.07520
2937.20363	1.08598
2935.27506	1.09727
2933.34650	1.10916
2931.41793	1.11882
2929.48937	1.12623
2927.56080	1.13316
2925.63224	1.13911
2923.70367	1.14418
2921.77511	1.14812
2919.84655	1.14859
2917.91798	1.14293
2915.98942	1.12791
2914.06085	1.10394
2912.13229	1.07809
2910.20372	1.05531
2908.27516	1.03536
2906.34659	1.01889
2904.41803	1.00736
2902.48947	0.99993
2900.56090	0.99443
2898.63234	0.98981
2896.70377	0.98576
2894.77521	0.98172
2892.84664	0.97768
2890.91808	0.97371
2888.98952	0.96960
2887.06095	0.96592
2885.13239	0.96328
2883.20382	0.96137
2881.27526	0.96052
2879.34669	0.96135
2877.41813	0.96237
2875.48956	0.96140
2873.56100	0.95864
2871.63244	0.95510
2869.70387	0.95009
2867.77531	0.94350
2865.84674	0.93729
2863.91818	0.93302
2861.98961	0.93119
2860.06105	0.93222
2858.13248	0.93655
2856.20392	0.94366
2854.27536	0.95177
2852.34679	0.95937
2850.41823	0.96161
2848.48966	0.94971
2846.56110	0.92374
2844.63253	0.89490
2842.70397	0.87131
2840.77540	0.85403
2838.84684	0.84207
2836.91828	0.83401
2834.98971	0.82779
2833.06115	0.82153
2831.13258	0.81525
2829.20402	0.81015
2827.27545	0.80623
2825.34689	0.80280
2823.41832	0.79930
2821.48976	0.79553
2819.56120	0.79207
2817.63263	0.78882
2815.70407	0.78500
2813.77550	0.78101
2811.84694	0.77771
2809.91837	0.77498
2807.98981	0.77204
2806.06124	0.76842
2804.13268	0.76428
2802.20412	0.76035
2800.27555	0.75707
2798.34699	0.75426
2796.41842	0.75167
2794.48986	0.74925
2792.56129	0.74672
2790.63273	0.74421
2788.70416	0.74197
2786.77560	0.73930
2784.84704	0.73628
2782.91847	0.73393
2780.98991	0.73240
2779.06134	0.73090
2777.13278	0.72864
2775.20421	0.72570
2773.27565	0.72294
2771.34708	0.72078
2769.41852	0.71894
2767.48996	0.71709
2765.56139	0.71519
2763.63283	0.71323
2761.70426	0.71140
2759.77570	0.70991
2757.84713	0.70817
2755.91857	0.70555
2753.99001	0.70291
2752.06144	0.70136
2750.13288	0.70050
2748.20431	0.69945
2746.27575	0.69809
2744.34718	0.69668
2742.41862	0.69513
2740.49005	0.69322
2738.56149	0.69123
2736.63293	0.68964
2734.70436	0.68833
2732.77580	0.68643
2730.84723	0.68365
2728.91867	0.68096
2726.99010	0.67908
2725.06154	0.67770
2723.13297	0.67651
2721.20441	0.67540
2719.27585	0.67385
2717.34728	0.67178
2715.41872	0.66956
2713.49015	0.66743
2711.56159	0.66576
2709.63302	0.66448
2707.70446	0.66290
2705.77589	0.66090
2703.84733	0.65877
2701.91877	0.65647
2699.99020	0.65443
2698.06164	0.65309
2696.13307	0.65217
2694.20451	0.65123
2692.27594	0.65026
2690.34738	0.64937
2688.41881	0.64840
2686.49025	0.64731
2684.56169	0.64619
2682.63312	0.64457
2680.70456	0.64213
2678.77599	0.63964
2676.84743	0.63791
2674.91886	0.63664
2672.99030	0.63530
2671.06173	0.63400
2669.13317	0.63276
2667.20461	0.63165
2665.27604	0.63073
2663.34748	0.62950
2661.41891	0.62796
2659.49035	0.62674
2657.56178	0.62581
2655.63322	0.62450
2653.70465	0.62301
2651.77609	0.62195
2649.84753	0.62119
2647.91896	0.62047
2645.99040	0.61966
2644.06183	0.61860
2642.13327	0.61742
2640.20470	0.61615
2638.27614	0.61497
2636.34757	0.61430
2634.41901	0.61366
2632.49045	0.61226
2630.56188	0.61075
2628.63332	0.61002
2626.70475	0.60962
2624.77619	0.60881
2622.84762	0.60750
2620.91906	0.60596
2618.99049	0.60452
2617.06193	0.60346
2615.13337	0.60263
2613.20480	0.60148
2611.27624	0.59994
2609.34767	0.59850
2607.41911	0.59739
2605.49054	0.59640
2603.56198	0.59528
2601.63342	0.59400
2599.70485	0.59258
2597.77629	0.59117
2595.84772	0.58994
2593.91916	0.58889
2591.99059	0.58779
2590.06203	0.58657
2588.13346	0.58536
2586.20490	0.58420
2584.27634	0.58305
2582.34777	0.58194
2580.41921	0.58060
2578.49064	0.57885
2576.56208	0.57712
2574.63351	0.57583
2572.70495	0.57476
2570.77638	0.57347
2568.84782	0.57198
2566.91926	0.57039
2564.99069	0.56884
2563.06213	0.56771
2561.13356	0.56686
2559.20500	0.56578
2557.27643	0.56448
2555.34787	0.56328
2553.41930	0.56220
2551.49074	0.56116
2549.56218	0.56020
2547.63361	0.55932
2545.70505	0.55850
2543.77648	0.55793
2541.84792	0.55738
2539.91935	0.55637
2537.99079	0.55515
2536.06222	0.55417
2534.13366	0.55331
2532.20510	0.55251
2530.27653	0.55190
2528.34797	0.55128
2526.41940	0.55027
2524.49084	0.54898
2522.56227	0.54774
2520.63371	0.54653
2518.70514	0.54507
2516.77658	0.54367
2514.84802	0.54260
2512.91945	0.54162
2510.99089	0.54060
2509.06232	0.53950
2507.13376	0.53840
2505.20519	0.53743
2503.27663	0.53646
2501.34806	0.53544
2499.41950	0.53439
2497.49094	0.53339
2495.56237	0.53254
2493.63381	0.53176
2491.70524	0.53093
2489.77668	0.52997
2487.84811	0.52880
2485.91955	0.52735
2483.99098	0.52579
2482.06242	0.52447
2480.13386	0.52331
2478.20529	0.52205
2476.27673	0.52072
2474.34816	0.51950
2472.41960	0.51824
2470.49103	0.51673
2468.56247	0.51533
2466.63391	0.51440
2464.70534	0.51363
2462.77678	0.51265
2460.84821	0.51167
2458.91965	0.51061
2456.99108	0.50932
2455.06252	0.50804
2453.13395	0.50680
2451.20539	0.50559
2449.27683	0.50454
2447.34826	0.50332
2445.41970	0.50165
2443.49113	0.50002
2441.56257	0.49886
2439.63400	0.49775
2437.70544	0.49639
2435.77687	0.49502
2433.84831	0.49378
2431.91975	0.49260
2429.99118	0.49158
2428.06262	0.49093
2426.13405	0.49044
2424.20549	0.48975
2422.27692	0.48898
2420.34836	0.48843
2418.41979	0.48786
2416.49123	0.48692
2414.56267	0.48584
2412.63410	0.48494
2410.70554	0.48405
2408.77697	0.48297
2406.84841	0.48171
2404.91984	0.48044
2402.99128	0.47940
2401.06271	0.47853
2399.13415	0.47756
2397.20559	0.47648
2395.27702	0.47541
2393.34846	0.47439
2391.41989	0.47345
2389.49133	0.47255
2387.56276	0.47159
2385.63420	0.47046
2383.70563	0.46905
2381.77707	0.46762
2379.84851	0.46663
2377.91994	0.46584
2375.99138	0.46468
2374.06281	0.46363
2372.13425	0.46357
2370.20568	0.46363
2368.27712	0.46260
2366.34855	0.46172
2364.41999	0.46262
2362.49143	0.46453
2360.56286	0.46630
2358.63430	0.46736
2356.70573	0.46740
2354.77717	0.46708
2352.84860	0.46671
2350.92004	0.46432
2348.99147	0.45952
2347.06291	0.45480
2345.13435	0.45343
2343.20578	0.45535
2341.27722	0.45670
2339.34865	0.45628
2337.42009	0.45541
2335.49152	0.45519
2333.56296	0.45549
2331.63440	0.45613
2329.70583	0.45653
2327.77727	0.45594
2325.84870	0.45473
2323.92014	0.45363
2321.99157	0.45299
2320.06301	0.45259
2318.13444	0.45192
2316.20588	0.45100
2314.27732	0.45020
2312.34875	0.44936
2310.42019	0.44834
2308.49162	0.44744
2306.56306	0.44674
2304.63449	0.44597
2302.70593	0.44503
2300.77736	0.44414
2298.84880	0.44355
2296.92024	0.44318
2294.99167	0.44269
2293.06311	0.44186
2291.13454	0.44085
2289.20598	0.43990
2287.27741	0.43901
2285.34885	0.43811
2283.42028	0.43728
2281.49172	0.43677
2279.56316	0.43662
2277.63459	0.43657
2275.70603	0.43649
2273.77746	0.43647
2271.84890	0.43650
2269.92033	0.43633
2267.99177	0.43596
2266.06320	0.43563
2264.13464	0.43544
2262.20608	0.43528
2260.27751	0.43498
2258.34895	0.43451
2256.42038	0.43384
2254.49182	0.43304
2252.56325	0.43222
2250.63469	0.43145
2248.70612	0.43073
2246.77756	0.43000
2244.84900	0.42934
2242.92043	0.42893
2240.99187	0.42864
2239.06330	0.42823
2237.13474	0.42769
2235.20617	0.42711
2233.27761	0.42670
2231.34904	0.42655
2229.42048	0.42648
2227.49192	0.42634
2225.56335	0.42616
2223.63479	0.42589
2221.70622	0.42538
2219.77766	0.42481
2217.84909	0.42457
2215.92053	0.42466
2213.99196	0.42462
2212.06340	0.42439
2210.13484	0.42408
2208.20627	0.42370
2206.27771	0.42340
2204.34914	0.42317
2202.42058	0.42278
2200.49201	0.42227
2198.56345	0.42183
2196.63488	0.42142
2194.70632	0.42106
2192.77776	0.42097
2190.84919	0.42108
2188.92063	0.42100
2186.99206	0.42067
2185.06350	0.42039
2183.13493	0.42021
2181.20637	0.41996
2179.27781	0.41966
2177.34924	0.41934
2175.42068	0.41891
2173.49211	0.41853
2171.56355	0.41848
2169.63498	0.41872
2167.70642	0.41889
2165.77785	0.41883
2163.84929	0.41867
2161.92073	0.41859
2159.99216	0.41852
2158.06360	0.41827
2156.13503	0.41794
2154.20647	0.41776
2152.27790	0.41770
2150.34934	0.41750
2148.42077	0.41714
2146.49221	0.41680
2144.56365	0.41646
2142.63508	0.41596
2140.70652	0.41538
2138.77795	0.41476
2136.84939	0.41414
2134.92082	0.41367
2132.99226	0.41328
2131.06369	0.41294
2129.13513	0.41260
2127.20657	0.41216
2125.27800	0.41167
2123.34944	0.41119
2121.42087	0.41075
2119.49231	0.41037
2117.56374	0.40992
2115.63518	0.40929
2113.70661	0.40880
2111.77805	0.40859
2109.84949	0.40824
2107.92092	0.40765
2105.99236	0.40707
2104.06379	0.40654
2102.13523	0.40593
2100.20666	0.40531
2098.27810	0.40488
2096.34953	0.40457
2094.42097	0.40422
2092.49241	0.40387
2090.56384	0.40347
2088.63528	0.40302
2086.70671	0.40253
2084.77815	0.40190
2082.84958	0.40114
2080.92102	0.40046
2078.99245	0.39996
2077.06389	0.39941
2075.13533	0.39865
2073.20676	0.39773
2071.27820	0.39686
2069.34963	0.39605
2067.42107	0.39527
2065.49250	0.39460
2063.56394	0.39398
2061.63537	0.39324
2059.70681	0.39245
2057.77825	0.39157
2055.84968	0.39052
2053.92112	0.38942
2051.99255	0.38840
2050.06399	0.38754
2048.13542	0.38687
2046.20686	0.38620
2044.27830	0.38538
2042.34973	0.38457
2040.42117	0.38378
2038.49260	0.38273
2036.56404	0.38162
2034.63547	0.38074
2032.70691	0.37989
2030.77834	0.37884
2028.84978	0.37770
2026.92122	0.37664
2024.99265	0.37570
2023.06409	0.37475
2021.13552	0.37355
2019.20696	0.37242
2017.27839	0.37180
2015.34983	0.37106
2013.42126	0.36970
2011.49270	0.36829
2009.56414	0.36729
2007.63557	0.36656
2005.70701	0.36570
2003.77844	0.36453
2001.84988	0.36321
1999.92131	0.36204
1997.99275	0.36095
1996.06418	0.35946
1994.13562	0.35791
1992.20706	0.35714
1990.27849	0.35659
1988.34993	0.35551
1986.42136	0.35424
1984.49280	0.35293
1982.56423	0.35164
1980.63567	0.35051
1978.70710	0.34943
1976.77854	0.34831
1974.84998	0.34731
1972.92141	0.34643
1970.99285	0.34534
1969.06428	0.34416
1967.13572	0.34336
1965.20715	0.34230
1963.27859	0.34061
1961.35002	0.33904
1959.42146	0.33774
1957.49290	0.33639
1955.56433	0.33511
1953.63577	0.33391
1951.70720	0.33269
1949.77864	0.33149
1947.85007	0.33021
1945.92151	0.32878
1943.99294	0.32800
1942.06438	0.32826
1940.13582	0.32780
1938.20725	0.32629
1936.27869	0.32489
1934.35012	0.32386
1932.42156	0.32293
1930.49299	0.32191
1928.56443	0.32066
1926.63586	0.31911
1924.70730	0.31787
1922.77874	0.31747
1920.85017	0.31665
1918.92161	0.31560
1916.99304	0.31521
1915.06448	0.31405
1913.13591	0.31209
1911.20735	0.31076
1909.27878	0.31037
1907.35022	0.30973
1905.42166	0.30834
1903.49309	0.30710
1901.56453	0.30628
1899.63596	0.30532
1897.70740	0.30424
1895.77883	0.30363
1893.85027	0.30292
1891.92171	0.30166
1889.99314	0.30130
1888.06458	0.30140
1886.13601	0.30043
1884.20745	0.29927
1882.27888	0.29833
1880.35032	0.29730
1878.42175	0.29631
1876.49319	0.29525
1874.56463	0.29370
1872.63606	0.29154
1870.70750	0.29002
1868.77893	0.29107
1866.85037	0.29206
1864.92180	0.29022
1862.99324	0.28776
1861.06467	0.28627
1859.13611	0.28561
1857.20755	0.28507
1855.27898	0.28436
1853.35042	0.28353
1851.42185	0.28248
1849.49329	0.28130
1847.56472	0.28008
1845.63616	0.28018
1843.70759	0.28246
1841.77903	0.28280
1839.85047	0.28086
1837.92190	0.27965
1835.99334	0.27935
1834.06477	0.27805
1832.13621	0.27642
1830.20764	0.27694
1828.27908	0.27791
1826.35051	0.27736
1824.42195	0.27729
1822.49339	0.27692
1820.56482	0.27558
1818.63626	0.27476
1816.70769	0.27449
1814.77913	0.27380
1812.85056	0.27323
1810.92200	0.27393
1808.99343	0.27484
1807.06487	0.27457
1805.13631	0.27369
1803.20774	0.27328
1801.27918	0.27452
1799.35061	0.27623
1797.42205	0.27609
1795.49348	0.27482
1793.56492	0.27553
1791.63635	0.27969
1789.70779	0.28148
1787.77923	0.28039
1785.85066	0.28037
1783.92210	0.28176
1781.99353	0.28330
1780.06497	0.28521
1778.13640	0.28635
1776.20784	0.28600
1774.27927	0.28664
1772.35071	0.29143
1770.42215	0.29636
1768.49358	0.29813
1766.56502	0.29860
1764.63645	0.29845
1762.70789	0.30053
1760.77932	0.30527
1758.85076	0.30894
1756.92220	0.31339
1754.99363	0.31798
1753.06507	0.32140
1751.13650	0.32859
1749.20794	0.34103
1747.27937	0.35118
1745.35081	0.35809
1743.42224	0.36449
1741.49368	0.37144
1739.56512	0.37877
1737.63655	0.38277
1735.70799	0.38555
1733.77942	0.39582
1731.85086	0.40598
1729.92229	0.41084
1727.99373	0.41564
1726.06516	0.42083
1724.13660	0.42797
1722.20804	0.43526
1720.27947	0.44079
1718.35091	0.45205
1716.42234	0.47574
1714.49378	0.49377
1712.56521	0.50473
1710.63665	0.51627
1708.70808	0.53055
1706.77952	0.55298
1704.85096	0.58301
1702.92239	0.60848
1700.99383	0.64462
1699.06526	0.70605
1697.13670	0.76438
1695.20813	0.82077
1693.27957	0.86157
1691.35100	0.89270
1689.42244	0.93163
1687.49388	0.96815
1685.56531	1.00426
1683.63675	1.06180
1681.70818	1.10319
1679.77962	1.12383
1677.85105	1.14158
1675.92249	1.16264
1673.99392	1.18378
1672.06536	1.19875
1670.13680	1.21592
1668.20823	1.23525
1666.27967	1.24442
1664.35110	1.25192
1662.42254	1.26355
1660.49397	1.27132
1658.56541	1.27348
1656.63684	1.27273
1654.70828	1.27259
1652.77972	1.27667
1650.85115	1.27746
1648.92259	1.27611
1646.99402	1.27619
1645.06546	1.27481
1643.13689	1.27039
1641.20833	1.26727
1639.27976	1.26516
1637.35120	1.26446
1635.42264	1.26548
1633.49407	1.26205
1631.56551	1.25695
1629.63694	1.25117
1627.70838	1.24328
1625.77981	1.23223
1623.85125	1.21816
1621.92269	1.20232
1619.99412	1.18748
1618.06556	1.17033
1616.13699	1.14465
1614.20843	1.11946
1612.27986	1.09770
1610.35130	1.07606
1608.42273	1.05514
1606.49417	1.03714
1604.56561	1.02262
1602.63704	1.01058
1600.70848	1.00139
1598.77991	0.99502
1596.85135	0.99099
1594.92278	0.98896
1592.99422	0.98818
1591.06565	0.98850
1589.13709	0.99059
1587.20853	0.99538
1585.27996	1.00274
1583.35140	1.01209
1581.42283	1.02148
1579.49427	1.02918
1577.56570	1.04021
1575.63714	1.06038
1573.70857	1.07458
1571.78001	1.08263
1569.85145	1.09650
1567.92288	1.11265
1565.99432	1.12372
1564.06575	1.13334
1562.13719	1.13971
1560.20862	1.14865
1558.28006	1.17426
1556.35149	1.18575
1554.42293	1.18890
1552.49437	1.19170
1550.56580	1.19265
1548.63724	1.19207
1546.70867	1.19080
1544.78011	1.18868
1542.85154	1.18689
1540.92298	1.18760
1538.99441	1.18076
1537.06585	1.17067
1535.13729	1.16162
1533.20872	1.15305
1531.28016	1.14529
1529.35159	1.13820
1527.42303	1.13185
1525.49446	1.12640
1523.56590	1.12264
1521.63733	1.12051
1519.70877	1.11727
1517.78021	1.11030
1515.85164	1.09931
1513.92308	1.08542
1511.99451	1.06956
1510.06595	1.05326
1508.13738	1.03049
1506.20882	0.99309
1504.28025	0.96818
1502.35169	0.94942
1500.42313	0.92931
1498.49456	0.90656
1496.56600	0.88106
1494.63743	0.85905
1492.70887	0.84186
1490.78030	0.82412
1488.85174	0.80502
1486.92317	0.79051
1484.99461	0.77985
1483.06605	0.77214
1481.13748	0.76808
1479.20892	0.76765
1477.28035	0.77087
1475.35179	0.77957
1473.42322	0.79883
1471.49466	0.82138
1469.56610	0.83160
1467.63753	0.83673
1465.70897	0.84540
1463.78040	0.85619
1461.85184	0.86114
1459.92327	0.86255
1457.99471	0.86972
1456.06614	0.88264
1454.13758	0.88505
1452.20902	0.88231
1450.28045	0.87911
1448.35189	0.87640
1446.42332	0.87300
1444.49476	0.86832
1442.56619	0.86296
1440.63763	0.85706
1438.70906	0.85051
1436.78050	0.84310
1434.85194	0.83520
1432.92337	0.82784
1430.99481	0.82166
1429.06624	0.81724
1427.13768	0.81447
1425.20911	0.81390
1423.28055	0.81570
1421.35198	0.81862
1419.42342	0.82505
1417.49486	0.83328
1415.56629	0.83631
1413.63773	0.83699
1411.70916	0.83813
1409.78060	0.83962
1407.85203	0.84071
1405.92347	0.84236
1403.99490	0.84441
1402.06634	0.84479
1400.13778	0.84461
1398.20921	0.84512
1396.28065	0.84608
1394.35208	0.84757
1392.42352	0.84843
1390.49495	0.84909
1388.56639	0.85317
1386.63782	0.86220
1384.70926	0.87104
1382.78070	0.87759
1380.85213	0.88227
1378.92357	0.88333
1376.99500	0.87963
1375.06644	0.87113
1373.13787	0.85919
1371.20931	0.84634
1369.28074	0.83195
1367.35218	0.81605
1365.42362	0.80125
1363.49505	0.78863
1361.56649	0.77932
1359.63792	0.77352
1357.70936	0.76999
1355.78079	0.76843
1353.85223	0.76843
1351.92366	0.76901
1349.99510	0.76968
1348.06654	0.77037
1346.13797	0.77061
1344.20941	0.77013
1342.28084	0.76979
1340.35228	0.77133
1338.42371	0.77477
1336.49515	0.77821
1334.56659	0.78235
1332.63802	0.78844
1330.70946	0.79573
1328.78089	0.80241
1326.85233	0.80732
1324.92376	0.81063
1322.99520	0.81325
1321.06663	0.81621
1319.13807	0.81992
1317.20951	0.82357
1315.28094	0.82646
1313.35238	0.82909
1311.42381	0.83156
1309.49525	0.83343
1307.56668	0.83445
1305.63812	0.83453
1303.70955	0.83391
1301.78099	0.83256
1299.85243	0.83014
1297.92386	0.82666
1295.99530	0.82273
1294.06673	0.81929
1292.13817	0.81687
1290.20960	0.81557
1288.28104	0.81514
1286.35247	0.81509
1284.42391	0.81507
1282.49535	0.81485
1280.56678	0.81483
1278.63822	0.81577
1276.70965	0.81793
1274.78109	0.82107
1272.85252	0.82513
1270.92396	0.82997
1268.99539	0.83508
1267.06683	0.84008
1265.13827	0.84465
1263.20970	0.84836
1261.28114	0.85116
1259.35257	0.85330
1257.42401	0.85499
1255.49544	0.85654
1253.56688	0.85817
1251.63831	0.85990
1249.70975	0.86168
1247.78119	0.86355
1245.85262	0.86533
1243.92406	0.86656
1241.99549	0.86715
1240.06693	0.86732
1238.13836	0.86675
1236.20980	0.86500
1234.28123	0.86196
1232.35267	0.85779
1230.42411	0.85298
1228.49554	0.84804
1226.56698	0.84275
1224.63841	0.83632
1222.70985	0.82875
1220.78128	0.82107
1218.85272	0.81426
1216.92415	0.80861
1214.99559	0.80425
1213.06703	0.80186
1211.13846	0.80143
1209.20990	0.80169
1207.28133	0.80113
1205.35277	0.79832
1203.42420	0.79259
1201.49564	0.78485
1199.56708	0.77647
1197.63851	0.76818
1195.70995	0.76044
1193.78138	0.75366
1191.85282	0.74836
1189.92425	0.74484
1187.99569	0.74278
1186.06712	0.74187
1184.13856	0.74237
1182.21000	0.74467
1180.28143	0.74900
1178.35287	0.75558
1176.42430	0.76438
1174.49574	0.77454
1172.56717	0.78482
1170.63861	0.79537
1168.71004	0.80719
1166.78148	0.82027
1164.85292	0.83322
1162.92435	0.84430
1160.99579	0.85222
1159.06722	0.85571
1157.13866	0.85380
1155.21009	0.84728
1153.28153	0.83784
1151.35296	0.82658
1149.42440	0.81423
1147.49584	0.80194
1145.56727	0.79146
1143.63871	0.78449
1141.71014	0.78123
1139.78158	0.78104
1137.85301	0.78382
1135.92445	0.78928
1133.99588	0.79673
1132.06732	0.80629
1130.13876	0.81824
1128.21019	0.83173
1126.28163	0.84557
1124.35306	0.85897
1122.42450	0.87105
1120.49593	0.88086
1118.56737	0.88797
1116.63880	0.89233
1114.71024	0.89356
1112.78168	0.89188
1110.85311	0.88858
1108.92455	0.88485
1106.99598	0.88108
1105.06742	0.87731
1103.13885	0.87398
1101.21029	0.87201
1099.28172	0.87265
1097.35316	0.87645
1095.42460	0.88276
1093.49603	0.89109
1091.56747	0.90151
1089.63890	0.91409
1087.71034	0.92881
1085.78177	0.94434
1083.85321	0.95833
1081.92464	0.96982
1079.99608	0.97875
1078.06752	0.98407
1076.13895	0.98407
1074.21039	0.97899
1072.28182	0.97092
1070.35326	0.96113
1068.42469	0.95011
1066.49613	0.93873
1064.56756	0.92815
1062.63900	0.91902
1060.71044	0.91056
1058.78187	0.90233
1056.85331	0.89496
1054.92474	0.88890
1052.99618	0.88465
1051.06761	0.88215
1049.13905	0.88085
1047.21049	0.88138
1045.28192	0.88453
1043.35336	0.88975
1041.42479	0.89594
1039.49623	0.90156
1037.56766	0.90494
1035.63910	0.90606
1033.71053	0.90610
1031.78197	0.90510
1029.85341	0.90183
1027.92484	0.89553
1025.99628	0.88683
1024.06771	0.87769
1022.13915	0.86944
1020.21058	0.86171
1018.28202	0.85444
1016.35345	0.84787
1014.42489	0.84024
1012.49633	0.82950
1010.56776	0.81589
1008.63920	0.80058
1006.71063	0.78453
1004.78207	0.76865
1002.85350	0.75363
1000.92494	0.74033
998.99637	0.72948
997.06781	0.72092
995.13925	0.71388
993.21068	0.70747
991.28212	0.70089
989.35355	0.69380
987.42499	0.68643
985.49642	0.67954
983.56786	0.67386
981.63929	0.66951
979.71073	0.66631
977.78217	0.66380
975.85360	0.66107
973.92504	0.65689
971.99647	0.65063
970.06791	0.64295
968.13934	0.63476
966.21078	0.62676
964.28221	0.62016
962.35365	0.61646
960.42509	0.61678
958.49652	0.62105
956.56796	0.62670
954.63939	0.62983
952.71083	0.62866
950.78226	0.62391
948.85370	0.61702
946.92513	0.60977
944.99657	0.60399
943.06801	0.60020
941.13944	0.59776
939.21088	0.59598
937.28231	0.59441
935.35375	0.59296
933.42518	0.59158
931.49662	0.59017
929.56805	0.58910
927.63949	0.58868
925.71093	0.58851
923.78236	0.58820
921.85380	0.58794
919.92523	0.58766
917.99667	0.58679
916.06810	0.58546
914.13954	0.58461
912.21098	0.58475
910.28241	0.58593
908.35385	0.58815
906.42528	0.59128
904.49672	0.59500
902.56815	0.59901
900.63959	0.60295
898.71102	0.60628
896.78246	0.60844
894.85390	0.60923
892.92533	0.60882
890.99677	0.60749
889.06820	0.60557
887.13964	0.60358
885.21107	0.60188
883.28251	0.60059
881.35394	0.59966
879.42538	0.59909
877.49682	0.59923
875.56825	0.59999
873.63969	0.60072
871.71112	0.60122
869.78256	0.60167
867.85399	0.60199
865.92543	0.60219
863.99686	0.60271
862.06830	0.60368
860.13974	0.60466
858.21117	0.60570
856.28261	0.60753
854.35404	0.61032
852.42548	0.61323
850.49691	0.61569
848.56835	0.61807
846.63978	0.62059
844.71122	0.62318
842.78266	0.62598
840.85409	0.62895
838.92553	0.63177
836.99696	0.63447
835.06840	0.63720
833.13983	0.63961
831.21127	0.64132
829.28270	0.64238
827.35414	0.64308
825.42558	0.64359
823.49701	0.64346
821.56845	0.64239
819.63988	0.64136
817.71132	0.64099
815.78275	0.64091
813.85419	0.64109
811.92562	0.64157
809.99706	0.64217
808.06850	0.64287
806.13993	0.64367
804.21137	0.64451
802.28280	0.64549
800.35424	0.64674
798.42567	0.64816
796.49711	0.64977
794.56854	0.65182
792.63998	0.65432
790.71142	0.65695
788.78285	0.65963
786.85429	0.66244
784.92572	0.66563
782.99716	0.66939
781.06859	0.67343
779.14003	0.67732
777.21147	0.68084
775.28290	0.68403
773.35434	0.68720
771.42577	0.69036
769.49721	0.69289
767.56864	0.69456
765.64008	0.69564
763.71151	0.69652
761.78295	0.69760
759.85439	0.69909
757.92582	0.70081
755.99726	0.70259
754.06869	0.70471
752.14013	0.70731
750.21156	0.71009
748.28300	0.71286
746.35443	0.71567
744.42587	0.71855
742.49731	0.72126
740.56874	0.72354
738.64018	0.72530
736.71161	0.72660
734.78305	0.72815
732.85448	0.73018
730.92592	0.73205
728.99735	0.73393
727.06879	0.73634
725.14023	0.73905
723.21166	0.74242
721.28310	0.74652
719.35453	0.74959
717.42597	0.75143
715.49740	0.75382
713.56884	0.75705
711.64027	0.76070
709.71171	0.76458
707.78315	0.76825
705.85458	0.77187
703.92602	0.77525
701.99745	0.77714
700.06889	0.77703
698.14032	0.77559
696.21176	0.77417
694.28319	0.77355
692.35463	0.77304
690.42607	0.77232
688.49750	0.77175
686.56894	0.77092
684.64037	0.76980
682.71181	0.76930
680.78324	0.77014
678.85468	0.77151
676.92611	0.77238
674.99755	0.77376
673.06899	0.77579
671.14042	0.77697
669.21186	0.77849
667.28329	0.78107
665.35473	0.78191
663.42616	0.78235
661.49760	0.78232
659.56903	0.78083
657.64047	0.77920
655.71191	0.77807
653.78334	0.77685
651.85478	0.77607
649.92621	0.77600
647.99765	0.77629
646.06908	0.77743
644.14052	0.77956
642.21195	0.78202
640.28339	0.78468
638.35483	0.78721
636.42626	0.78923
634.49770	0.79093
632.56913	0.79214
630.64057	0.79269
628.71200	0.79308
626.78344	0.79360
624.85488	0.79375
622.92631	0.79393
620.99775	0.79539
619.06918	0.79747
617.14062	0.79882
615.21205	0.79992
613.28349	0.80156
611.35492	0.80313
609.42636	0.80336
607.49780	0.80215
605.56923	0.80056
603.64067	0.79908
601.71210	0.79771
599.78354	0.79689
