3997.91406	0.75540
3995.98550	0.75553
3994.05693	0.75743
3992.12837	0.75946
3990.19980	0.76017
3988.27124	0.75841
3986.34268	0.75549
3984.41411	0.75297
3982.48555	0.75110
3980.55698	0.75019
3978.62842	0.74992
3976.69985	0.74969
3974.77129	0.74935
3972.84272	0.74850
3970.91416	0.74757
3968.98560	0.74769
3967.05703	0.74844
3965.12847	0.74890
3963.19990	0.74965
3961.27134	0.75074
3959.34277	0.75160
3957.41421	0.75183
3955.48564	0.75037
3953.55708	0.74757
3951.62852	0.74468
3949.69995	0.74403
3947.77139	0.74572
3945.84282	0.74472
3943.91426	0.74261
3941.98569	0.74324
3940.05713	0.74232
3938.12856	0.73831
3936.20000	0.73395
3934.27144	0.73199
3932.34287	0.73563
3930.41431	0.74148
3928.48574	0.74134
3926.55718	0.73681
3924.62861	0.73421
3922.70005	0.73318
3920.77148	0.73197
3918.84292	0.73337
3916.91436	0.73698
3914.98579	0.73795
3913.05723	0.73554
3911.12866	0.73264
3909.20010	0.72849
3907.27153	0.72143
3905.34297	0.71654
3903.41440	0.71932
3901.48584	0.72582
3899.55728	0.73279
3897.62871	0.73402
3895.70015	0.72639
3893.77158	0.71866
3891.84302	0.72169
3889.91445	0.72388
3887.98589	0.71487
3886.05733	0.70873
3884.12876	0.71080
3882.20020	0.71279
3880.27163	0.71883
3878.34307	0.72068
3876.41450	0.71512
3874.48594	0.71104
3872.55737	0.70708
3870.62881	0.70661
3868.70025	0.71258
3866.77168	0.71241
3864.84312	0.71170
3862.91455	0.71602
3860.98599	0.71593
3859.05742	0.70991
3857.12886	0.69970
3855.20029	0.69288
3853.27173	0.71221
3851.34317	0.72731
3849.41460	0.72127
3847.48604	0.71233
3845.55747	0.70636
3843.62891	0.70328
3841.70034	0.69931
3839.77178	0.69700
3837.84321	0.70371
3835.91465	0.70864
3833.98609	0.70743
3832.05752	0.70653
3830.12896	0.70511
3828.20039	0.70351
3826.27183	0.70259
3824.34326	0.69503
3822.41470	0.68688
3820.48613	0.69394
3818.55757	0.69978
3816.62901	0.70392
3814.70044	0.70984
3812.77188	0.70641
3810.84331	0.69790
3808.91475	0.69249
3806.98618	0.69525
3805.05762	0.69439
3803.12905	0.68853
3801.20049	0.69491
3799.27193	0.70092
3797.34336	0.69967
3795.41480	0.69997
3793.48623	0.69877
3791.55767	0.69641
3789.62910	0.69484
3787.70054	0.69330
3785.77197	0.69365
3783.84341	0.69335
3781.91485	0.68953
3779.98628	0.69013
3778.05772	0.69518
3776.12915	0.69465
3774.20059	0.68967
3772.27202	0.68496
3770.34346	0.68533
3768.41489	0.68885
3766.48633	0.69100
3764.55777	0.69126
3762.62920	0.68593
3760.70064	0.68066
3758.77207	0.68514
3756.84351	0.68871
3754.91494	0.68119
3752.98638	0.67051
3751.05781	0.67497
3749.12925	0.68412
3747.20069	0.67834
3745.27212	0.67798
3743.34356	0.68812
3741.41499	0.68597
3739.48643	0.67397
3737.55786	0.66494
3735.62930	0.67306
3733.70074	0.69083
3731.77217	0.69488
3729.84361	0.68782
3727.91504	0.67944
3725.98648	0.67700
3724.05791	0.67918
3722.12935	0.68173
3720.20078	0.68399
3718.27222	0.68223
3716.34366	0.67517
3714.41509	0.66609
3712.48653	0.66421
3710.55796	0.67724
3708.62940	0.68644
3706.70083	0.68457
3704.77227	0.67875
3702.84370	0.67843
3700.91514	0.68343
3698.98658	0.68193
3697.05801	0.67555
3695.12945	0.66934
3693.20088	0.66350
3691.27232	0.66300
3689.34375	0.67795
3687.41519	0.69075
3685.48662	0.68934
3683.55806	0.68267
3681.62950	0.67632
3679.70093	0.67037
3677.77237	0.66538
3675.84380	0.67567
3673.91524	0.68685
3671.98667	0.68195
3670.05811	0.68791
3668.12954	0.70111
3666.20098	0.70151
3664.27242	0.69850
3662.34385	0.69800
3660.41529	0.69746
3658.48672	0.69661
3656.55816	0.70073
3654.62959	0.70247
3652.70103	0.69385
3650.77246	0.68713
3648.84390	0.70606
3646.91534	0.72674
3644.98677	0.73198
3643.05821	0.73409
3641.12964	0.73611
3639.20108	0.73598
3637.27251	0.73499
3635.34395	0.73582
3633.41538	0.73596
3631.48682	0.73287
3629.55826	0.74272
3627.62969	0.76813
3625.70113	0.77339
3623.77256	0.76672
3621.84400	0.76130
3619.91543	0.76598
3617.98687	0.77625
3616.05830	0.77785
3614.12974	0.77871
3612.20118	0.78298
3610.27261	0.78684
3608.34405	0.79527
3606.41548	0.80275
3604.48692	0.80132
3602.55835	0.79916
3600.62979	0.80248
3598.70123	0.80700
3596.77266	0.81145
3594.84410	0.81918
3592.91553	0.82475
3590.98697	0.82355
3589.05840	0.82448
3587.12984	0.83732
3585.20127	0.84857
3583.27271	0.85101
3581.34415	0.85123
3579.41558	0.85295
3577.48702	0.85671
3575.55845	0.86151
3573.62989	0.86604
3571.70132	0.86743
3569.77276	0.86579
3567.84419	0.87185
3565.91563	0.88960
3563.98707	0.89866
3562.05850	0.89992
3560.12994	0.90232
3558.20137	0.90591
3556.27281	0.90857
3554.34424	0.91214
3552.41568	0.91811
3550.48711	0.92246
3548.55855	0.92466
3546.62999	0.93068
3544.70142	0.94074
3542.77286	0.94847
3540.84429	0.95234
3538.91573	0.95536
3536.98716	0.96167
3535.05860	0.97034
3533.13003	0.97643
3531.20147	0.98039
3529.27291	0.98482
3527.34434	0.98853
3525.41578	0.99337
3523.48721	1.00412
3521.55865	1.01606
3519.63008	1.02382
3517.70152	1.03049
3515.77295	1.03734
3513.84439	1.04267
3511.91583	1.04851
3509.98726	1.05851
3508.05870	1.06956
3506.13013	1.07773
3504.20157	1.08847
3502.27300	1.10327
3500.34444	1.11345
3498.41587	1.11844
3496.48731	1.12479
3494.55875	1.13562
3492.63018	1.14828
3490.70162	1.15899
3488.77305	1.16813
3486.84449	1.17819
3484.91592	1.18596
3482.98736	1.18786
3481.05879	1.18816
3479.13023	1.19003
3477.20167	1.19058
3475.27310	1.18982
3473.34454	1.19176
3471.41597	1.19681
3469.48741	1.20227
3467.55884	1.20697
3465.63028	1.21041
3463.70171	1.21269
3461.77315	1.21472
3459.84459	1.21805
3457.91602	1.22370
3455.98746	1.23002
3454.05889	1.23453
3452.13033	1.23675
3450.20176	1.23945
3448.27320	1.24541
3446.34464	1.25106
3444.41607	1.25240
3442.48751	1.25298
3440.55894	1.25401
3438.63038	1.25280
3436.70181	1.25206
3434.77325	1.25438
3432.84468	1.25658
3430.91612	1.25583
3428.98756	1.25219
3427.05899	1.24923
3425.13043	1.25012
3423.20186	1.25239
3421.27330	1.25268
3419.34473	1.25195
3417.41617	1.25316
3415.48760	1.25575
3413.55904	1.25624
3411.63048	1.25606
3409.70191	1.25680
3407.77335	1.25429
3405.84478	1.25029
3403.91622	1.25156
3401.98765	1.25606
3400.05909	1.25686
3398.13052	1.25401
3396.20196	1.25327
3394.27340	1.25710
3392.34483	1.26132
3390.41627	1.26149
3388.48770	1.26022
3386.55914	1.26225
3384.63057	1.26771
3382.70201	1.27515
3380.77344	1.28198
3378.84488	1.28398
3376.91632	1.28262
3374.98775	1.28270
3373.05919	1.28389
3371.13062	1.28422
3369.20206	1.28526
3367.27349	1.28737
3365.34493	1.28792
3363.41636	1.28822
3361.48780	1.29022
3359.55924	1.29133
3357.63067	1.29115
3355.70211	1.29078
3353.77354	1.28974
3351.84498	1.29022
3349.91641	1.29525
3347.98785	1.30279
3346.05928	1.30631
3344.13072	1.30470
3342.20216	1.30518
3340.27359	1.30992
3338.34503	1.31406
3336.41646	1.31619
3334.48790	1.31820
3332.55933	1.32234
3330.63077	1.32884
3328.70220	1.33473
3326.77364	1.34011
3324.84508	1.34730
3322.91651	1.35464
3320.98795	1.36008
3319.05938	1.36450
3317.13082	1.36823
3315.20225	1.37153
3313.27369	1.37538
3311.34513	1.37919
3309.41656	1.38414
3307.48800	1.39148
3305.55943	1.39870
3303.63087	1.40440
3301.70230	1.40857
3299.77374	1.41103
3297.84517	1.41271
3295.91661	1.41384
3293.98805	1.41341
3292.05948	1.41353
3290.13092	1.41706
3288.20235	1.42084
3286.27379	1.42279
3284.34522	1.42567
3282.41666	1.42727
3280.48809	1.42401
3278.55953	1.41943
3276.63097	1.41622
3274.70240	1.41507
3272.77384	1.41762
3270.84527	1.41823
3268.91671	1.41240
3266.98814	1.40523
3265.05958	1.39950
3263.13101	1.39524
3261.20245	1.39203
3259.27389	1.38593
3257.34532	1.37701
3255.41676	1.36957
3253.48819	1.36280
3251.55963	1.35316
3249.63106	1.34096
3247.70250	1.32963
3245.77393	1.32137
3243.84537	1.31401
3241.91681	1.30493
3239.98824	1.29410
3238.05968	1.28421
3236.13111	1.27861
3234.20255	1.27486
3232.27398	1.26893
3230.34542	1.26230
3228.41685	1.25721
3226.48829	1.25299
3224.55973	1.24825
3222.63116	1.24230
3220.70260	1.23518
3218.77403	1.22835
3216.84547	1.22191
3214.91690	1.21421
3212.98834	1.20677
3211.05977	1.20229
3209.13121	1.19997
3207.20265	1.19662
3205.27408	1.19101
3203.34552	1.18561
3201.41695	1.18079
3199.48839	1.17310
3197.55982	1.16395
3195.63126	1.15841
3193.70269	1.15543
3191.77413	1.15207
3189.84557	1.14827
3187.91700	1.14248
3185.98844	1.13525
3184.05987	1.13036
3182.13131	1.12749
3180.20274	1.12310
3178.27418	1.11618
3176.34562	1.10849
3174.41705	1.10181
3172.48849	1.09570
3170.55992	1.08927
3168.63136	1.08434
3166.70279	1.08148
3164.77423	1.07789
3162.84566	1.07337
3160.91710	1.07037
3158.98854	1.06905
3157.05997	1.06724
3155.13141	1.06291
3153.20284	1.05652
3151.27428	1.05085
3149.34571	1.04774
3147.41715	1.04678
3145.48858	1.04574
3143.56002	1.04267
3141.63146	1.03937
3139.70289	1.03821
3137.77433	1.03848
3135.84576	1.03935
3133.91720	1.04033
3131.98863	1.03939
3130.06007	1.03633
3128.13150	1.03471
3126.20294	1.03624
3124.27438	1.03878
3122.34581	1.04081
3120.41725	1.04203
3118.48868	1.04221
3116.56012	1.04196
3114.63155	1.04244
3112.70299	1.04320
3110.77442	1.04249
3108.84586	1.04201
3106.91730	1.04348
3104.98873	1.04446
3103.06017	1.04448
3101.13160	1.04473
3099.20304	1.04501
3097.27447	1.04580
3095.34591	1.04579
3093.41734	1.04376
3091.48878	1.04093
3089.56022	1.03772
3087.63165	1.03435
3085.70309	1.03085
3083.77452	1.02708
3081.84596	1.02390
3079.91739	1.02140
3077.98883	1.01915
3076.06026	1.01748
3074.13170	1.01597
3072.20314	1.01321
3070.27457	1.00918
3068.34601	1.00550
3066.41744	1.00319
3064.48888	1.00136
3062.56031	0.99829
3060.63175	0.99354
3058.70318	0.98784
3056.77462	0.98201
3054.84606	0.97680
3052.91749	0.97310
3050.98893	0.97125
3049.06036	0.97010
3047.13180	0.96660
3045.20323	0.95962
3043.27467	0.95291
3041.34610	0.94868
3039.41754	0.94545
3037.48898	0.94292
3035.56041	0.94122
3033.63185	0.93934
3031.70328	0.93650
3029.77472	0.93303
3027.84615	0.92998
3025.91759	0.92727
3023.98903	0.92438
3022.06046	0.92165
3020.13190	0.91939
3018.20333	0.91775
3016.27477	0.91676
3014.34620	0.91551
3012.41764	0.91339
3010.48907	0.91168
3008.56051	0.91134
3006.63195	0.91130
3004.70338	0.91001
3002.77482	0.90780
3000.84625	0.90673
2998.91769	0.90755
2996.98912	0.90954
2995.06056	0.91231
2993.13199	0.91580
2991.20343	0.92012
2989.27487	0.92527
2987.34630	0.93049
2985.41774	0.93533
2983.48917	0.94039
2981.56061	0.94593
2979.63204	0.95205
2977.70348	0.95931
2975.77491	0.96797
2973.84635	0.97703
2971.91779	0.98509
2969.98922	0.99244
2968.06066	0.99970
2966.13209	1.00575
2964.20353	1.00943
2962.27496	1.01131
2960.34640	1.01176
2958.41783	1.00955
2956.48927	1.00408
2954.56071	0.99718
2952.63214	0.99108
2950.70358	0.98659
2948.77501	0.98396
2946.84645	0.98364
2944.91788	0.98654
2942.98932	0.99381
2941.06075	1.00389
2939.13219	1.01372
2937.20363	1.02375
2935.27506	1.03416
2933.34650	1.04218
2931.41793	1.04845
2929.48937	1.05577
2927.56080	1.06370
2925.63224	1.07128
2923.70367	1.07820
2921.77511	1.08325
2919.84655	1.08447
2917.91798	1.07892
2915.98942	1.06522
2914.06085	1.04544
2912.13229	1.02347
2910.20372	1.00363
2908.27516	0.98840
2906.34659	0.97705
2904.41803	0.96820
2902.48947	0.96134
2900.56090	0.95637
2898.63234	0.95321
2896.70377	0.95105
2894.77521	0.94841
2892.84664	0.94448
2890.91808	0.94038
2888.98952	0.93794
2887.06095	0.93711
2885.13239	0.93656
2883.20382	0.93582
2881.27526	0.93525
2879.34669	0.93488
2877.41813	0.93405
2875.48956	0.93199
2873.56100	0.92823
2871.63244	0.92319
2869.70387	0.91729
2867.77531	0.91033
2865.84674	0.90307
2863.91818	0.89765
2861.98961	0.89561
2860.06105	0.89649
2858.13248	0.89977
2856.20392	0.90606
2854.27536	0.91490
2852.34679	0.92370
2850.41823	0.92642
2848.48966	0.91596
2846.56110	0.89427
2844.63253	0.87151
2842.70397	0.85355
2840.77540	0.83999
2838.84684	0.82940
2836.91828	0.82129
2834.98971	0.81555
2833.06115	0.81123
2831.13258	0.80699
2829.20402	0.80232
2827.27545	0.79808
2825.34689	0.79532
2823.41832	0.79354
2821.48976	0.79176
2819.56120	0.78952
2817.63263	0.78675
2815.70407	0.78415
2813.77550	0.78224
2811.84694	0.78075
2809.91837	0.77952
2807.98981	0.77804
2806.06124	0.77565
2804.13268	0.77267
2802.20412	0.76954
2800.27555	0.76636
2798.34699	0.76330
2796.41842	0.76038
2794.48986	0.75787
2792.56129	0.75556
2790.63273	0.75314
2788.70416	0.75108
2786.77560	0.74945
2784.84704	0.74794
2782.91847	0.74653
2780.98991	0.74504
2779.06134	0.74336
2777.13278	0.74175
2775.20421	0.74029
2773.27565	0.73886
2771.34708	0.73704
2769.41852	0.73450
2767.48996	0.73166
2765.56139	0.72915
2763.63283	0.72693
2761.70426	0.72461
2759.77570	0.72241
2757.84713	0.72077
2755.91857	0.71932
2753.99001	0.71778
2752.06144	0.71623
2750.13288	0.71476
2748.20431	0.71365
2746.27575	0.71286
2744.34718	0.71185
2742.41862	0.71006
2740.49005	0.70763
2738.56149	0.70536
2736.63293	0.70347
2734.70436	0.70152
2732.77580	0.69949
2730.84723	0.69770
2728.91867	0.69634
2726.99010	0.69524
2725.06154	0.69432
2723.13297	0.69411
2721.20441	0.69466
2719.27585	0.69495
2717.34728	0.69457
2715.41872	0.69409
2713.49015	0.69354
2711.56159	0.69246
2709.63302	0.69102
2707.70446	0.68990
2705.77589	0.68923
2703.84733	0.68840
2701.91877	0.68692
2699.99020	0.68520
2698.06164	0.68387
2696.13307	0.68298
2694.20451	0.68248
2692.27594	0.68230
2690.34738	0.68225
2688.41881	0.68211
2686.49025	0.68192
2684.56169	0.68211
2682.63312	0.68252
2680.70456	0.68233
2678.77599	0.68143
2676.84743	0.68039
2674.91886	0.67950
2672.99030	0.67835
2671.06173	0.67656
2669.13317	0.67469
2667.20461	0.67326
2665.27604	0.67187
2663.34748	0.67047
2661.41891	0.66927
2659.49035	0.66798
2657.56178	0.66675
2655.63322	0.66616
2653.70465	0.66604
2651.77609	0.66588
2649.84753	0.66539
2647.91896	0.66425
2645.99040	0.66233
2644.06183	0.65988
2642.13327	0.65735
2640.20470	0.65518
2638.27614	0.65352
2636.34757	0.65218
2634.41901	0.65079
2632.49045	0.64919
2630.56188	0.64786
2628.63332	0.64711
2626.70475	0.64634
2624.77619	0.64533
2622.84762	0.64455
2620.91906	0.64411
2618.99049	0.64396
2617.06193	0.64393
2615.13337	0.64344
2613.20480	0.64240
2611.27624	0.64117
2609.34767	0.63966
2607.41911	0.63791
2605.49054	0.63645
2603.56198	0.63534
2601.63342	0.63402
2599.70485	0.63256
2597.77629	0.63146
2595.84772	0.63085
2593.91916	0.63057
2591.99059	0.63060
2590.06203	0.63060
2588.13346	0.63002
2586.20490	0.62931
2584.27634	0.62943
2582.34777	0.63006
2580.41921	0.63018
2578.49064	0.62983
2576.56208	0.62954
2574.63351	0.62893
2572.70495	0.62776
2570.77638	0.62667
2568.84782	0.62601
2566.91926	0.62547
2564.99069	0.62491
2563.06213	0.62439
2561.13356	0.62383
2559.20500	0.62337
2557.27643	0.62311
2555.34787	0.62271
2553.41930	0.62192
2551.49074	0.62103
2549.56218	0.62027
2547.63361	0.61931
2545.70505	0.61794
2543.77648	0.61645
2541.84792	0.61506
2539.91935	0.61373
2537.99079	0.61241
2536.06222	0.61122
2534.13366	0.61048
2532.20510	0.61021
2530.27653	0.61002
2528.34797	0.60971
2526.41940	0.60929
2524.49084	0.60893
2522.56227	0.60898
2520.63371	0.60908
2518.70514	0.60830
2516.77658	0.60672
2514.84802	0.60519
2512.91945	0.60393
2510.99089	0.60268
2509.06232	0.60129
2507.13376	0.59967
2505.20519	0.59790
2503.27663	0.59636
2501.34806	0.59525
2499.41950	0.59424
2497.49094	0.59308
2495.56237	0.59240
2493.63381	0.59247
2491.70524	0.59245
2489.77668	0.59199
2487.84811	0.59153
2485.91955	0.59102
2483.99098	0.59020
2482.06242	0.58920
2480.13386	0.58831
2478.20529	0.58772
2476.27673	0.58720
2474.34816	0.58628
2472.41960	0.58516
2470.49103	0.58443
2468.56247	0.58392
2466.63391	0.58323
2464.70534	0.58248
2462.77678	0.58177
2460.84821	0.58127
2458.91965	0.58102
2456.99108	0.58071
2455.06252	0.58014
2453.13395	0.57936
2451.20539	0.57870
2449.27683	0.57823
2447.34826	0.57760
2445.41970	0.57670
2443.49113	0.57566
2441.56257	0.57463
2439.63400	0.57373
2437.70544	0.57278
2435.77687	0.57196
2433.84831	0.57160
2431.91975	0.57146
2429.99118	0.57121
2428.06262	0.57091
2426.13405	0.57050
2424.20549	0.56971
2422.27692	0.56865
2420.34836	0.56768
2418.41979	0.56679
2416.49123	0.56570
2414.56267	0.56432
2412.63410	0.56276
2410.70554	0.56128
2408.77697	0.56020
2406.84841	0.55937
2404.91984	0.55827
2402.99128	0.55711
2401.06271	0.55645
2399.13415	0.55626
2397.20559	0.55609
2395.27702	0.55562
2393.34846	0.55486
2391.41989	0.55407
2389.49133	0.55315
2387.56276	0.55185
2385.63420	0.55020
2383.70563	0.54832
2381.77707	0.54648
2379.84851	0.54506
2377.91994	0.54386
2375.99138	0.54216
2374.06281	0.54008
2372.13425	0.53907
2370.20568	0.53926
2368.27712	0.53884
2366.34855	0.53878
2364.41999	0.54131
2362.49143	0.54495
2360.56286	0.54698
2358.63430	0.54662
2356.70573	0.54540
2354.77717	0.54478
2352.84860	0.54460
2350.92004	0.54264
2348.99147	0.53839
2347.06291	0.53450
2345.13435	0.53407
2343.20578	0.53592
2341.27722	0.53579
2339.34865	0.53405
2337.42009	0.53289
2335.49152	0.53277
2333.56296	0.53304
2331.63440	0.53362
2329.70583	0.53437
2327.77727	0.53459
2325.84870	0.53430
2323.92014	0.53452
2321.99157	0.53538
2320.06301	0.53526
2318.13444	0.53363
2316.20588	0.53181
2314.27732	0.53060
2312.34875	0.52985
2310.42019	0.52933
2308.49162	0.52885
2306.56306	0.52821
2304.63449	0.52736
2302.70593	0.52646
2300.77736	0.52570
2298.84880	0.52514
2296.92024	0.52462
2294.99167	0.52393
2293.06311	0.52303
2291.13454	0.52205
2289.20598	0.52098
2287.27741	0.51978
2285.34885	0.51864
2283.42028	0.51773
2281.49172	0.51693
2279.56316	0.51599
2277.63459	0.51500
2275.70603	0.51439
2273.77746	0.51416
2271.84890	0.51396
2269.92033	0.51373
2267.99177	0.51339
2266.06320	0.51285
2264.13464	0.51240
2262.20608	0.51222
2260.27751	0.51217
2258.34895	0.51214
2256.42038	0.51196
2254.49182	0.51158
2252.56325	0.51122
2250.63469	0.51104
2248.70612	0.51093
2246.77756	0.51070
2244.84900	0.51027
2242.92043	0.50976
2240.99187	0.50925
2239.06330	0.50867
2237.13474	0.50803
2235.20617	0.50729
2233.27761	0.50651
2231.34904	0.50598
2229.42048	0.50572
2227.49192	0.50547
2225.56335	0.50497
2223.63479	0.50428
2221.70622	0.50372
2219.77766	0.50360
2217.84909	0.50386
2215.92053	0.50414
2213.99196	0.50400
2212.06340	0.50352
2210.13484	0.50321
2208.20627	0.50329
2206.27771	0.50336
2204.34914	0.50310
2202.42058	0.50265
2200.49201	0.50220
2198.56345	0.50171
2196.63488	0.50105
2194.70632	0.50042
2192.77776	0.50004
2190.84919	0.49968
2188.92063	0.49920
2186.99206	0.49872
2185.06350	0.49826
2183.13493	0.49770
2181.20637	0.49709
2179.27781	0.49677
2177.34924	0.49677
2175.42068	0.49674
2173.49211	0.49656
2171.56355	0.49627
2169.63498	0.49589
2167.70642	0.49578
2165.77785	0.49604
2163.84929	0.49614
2161.92073	0.49595
2159.99216	0.49581
2158.06360	0.49566
2156.13503	0.49537
2154.20647	0.49508
2152.27790	0.49476
2150.34934	0.49435
2148.42077	0.49398
2146.49221	0.49359
2144.56365	0.49291
2142.63508	0.49207
2140.70652	0.49135
2138.77795	0.49087
2136.84939	0.49055
2134.92082	0.49032
2132.99226	0.49003
2131.06369	0.48961
2129.13513	0.48917
2127.20657	0.48892
2125.27800	0.48900
2123.34944	0.48929
2121.42087	0.48953
2119.49231	0.48960
2117.56374	0.48965
2115.63518	0.48998
2113.70661	0.49039
2111.77805	0.49050
2109.84949	0.49020
2107.92092	0.48958
2105.99236	0.48873
2104.06379	0.48780
2102.13523	0.48672
2100.20666	0.48539
2098.27810	0.48407
2096.34953	0.48315
2094.42097	0.48237
2092.49241	0.48140
2090.56384	0.48047
2088.63528	0.47999
2086.70671	0.48017
2084.77815	0.48077
2082.84958	0.48130
2080.92102	0.48182
2078.99245	0.48281
2077.06389	0.48419
2075.13533	0.48533
2073.20676	0.48598
2071.27820	0.48636
2069.34963	0.48661
2067.42107	0.48668
2065.49250	0.48654
2063.56394	0.48591
2061.63537	0.48461
2059.70681	0.48307
2057.77825	0.48158
2055.84968	0.48009
2053.92112	0.47858
2051.99255	0.47719
2050.06399	0.47624
2048.13542	0.47592
2046.20686	0.47603
2044.27830	0.47633
2042.34973	0.47701
2040.42117	0.47809
2038.49260	0.47904
2036.56404	0.47985
2034.63547	0.48076
2032.70691	0.48153
2030.77834	0.48193
2028.84978	0.48194
2026.92122	0.48154
2024.99265	0.48073
2023.06409	0.47955
2021.13552	0.47801
2019.20696	0.47642
2017.27839	0.47507
2015.34983	0.47362
2013.42126	0.47197
2011.49270	0.47056
2009.56414	0.46955
2007.63557	0.46877
2005.70701	0.46800
2003.77844	0.46713
2001.84988	0.46620
1999.92131	0.46536
1997.99275	0.46456
1996.06418	0.46353
1994.13562	0.46275
1992.20706	0.46288
1990.27849	0.46294
1988.34993	0.46229
1986.42136	0.46168
1984.49280	0.46137
1982.56423	0.46126
1980.63567	0.46136
1978.70710	0.46162
1976.77854	0.46204
1974.84998	0.46248
1972.92141	0.46255
1970.99285	0.46190
1969.06428	0.46102
1967.13572	0.46063
1965.20715	0.46004
1963.27859	0.45861
1961.35002	0.45709
1959.42146	0.45580
1957.49290	0.45454
1955.56433	0.45364
1953.63577	0.45339
1951.70720	0.45353
1949.77864	0.45391
1947.85007	0.45466
1945.92151	0.45583
1943.99294	0.45799
1942.06438	0.46108
1940.13582	0.46307
1938.20725	0.46392
1936.27869	0.46506
1934.35012	0.46620
1932.42156	0.46664
1930.49299	0.46652
1928.56443	0.46598
1926.63586	0.46475
1924.70730	0.46340
1922.77874	0.46263
1920.85017	0.46157
1918.92161	0.46081
1916.99304	0.46125
1915.06448	0.46112
1913.13591	0.46019
1911.20735	0.46004
1909.27878	0.46115
1907.35022	0.46233
1905.42166	0.46289
1903.49309	0.46346
1901.56453	0.46411
1899.63596	0.46430
1897.70740	0.46410
1895.77883	0.46412
1893.85027	0.46380
1891.92171	0.46256
1889.99314	0.46170
1888.06458	0.46107
1886.13601	0.45948
1884.20745	0.45764
1882.27888	0.45601
1880.35032	0.45431
1878.42175	0.45270
1876.49319	0.45124
1874.56463	0.44960
1872.63606	0.44755
1870.70750	0.44620
1868.77893	0.44713
1866.85037	0.44787
1864.92180	0.44630
1862.99324	0.44451
1861.06467	0.44365
1859.13611	0.44343
1857.20755	0.44352
1855.27898	0.44378
1853.35042	0.44396
1851.42185	0.44385
1849.49329	0.44364
1847.56472	0.44350
1845.63616	0.44466
1843.70759	0.44784
1841.77903	0.44895
1839.85047	0.44771
1837.92190	0.44725
1835.99334	0.44780
1834.06477	0.44732
1832.13621	0.44634
1830.20764	0.44761
1828.27908	0.44983
1826.35051	0.45090
1824.42195	0.45265
1822.49339	0.45415
1820.56482	0.45468
1818.63626	0.45568
1816.70769	0.45718
1814.77913	0.45834
1812.85056	0.45963
1810.92200	0.46187
1808.99343	0.46372
1807.06487	0.46412
1805.13631	0.46371
1803.20774	0.46343
1801.27918	0.46472
1799.35061	0.46669
1797.42205	0.46681
1795.49348	0.46566
1793.56492	0.46645
1791.63635	0.47053
1789.70779	0.47216
1787.77923	0.47109
1785.85066	0.47116
1783.92210	0.47237
1781.99353	0.47338
1780.06497	0.47459
1778.13640	0.47494
1776.20784	0.47368
1774.27927	0.47315
1772.35071	0.47634
1770.42215	0.47973
1768.49358	0.48023
1766.56502	0.47958
1764.63645	0.47875
1762.70789	0.48008
1760.77932	0.48330
1758.85076	0.48493
1756.92220	0.48670
1754.99363	0.48838
1753.06507	0.48906
1751.13650	0.49261
1749.20794	0.50025
1747.27937	0.50602
1745.35081	0.50894
1743.42224	0.51137
1741.49368	0.51464
1739.56512	0.51830
1737.63655	0.51916
1735.70799	0.51934
1733.77942	0.52666
1731.85086	0.53443
1729.92229	0.53707
1727.99373	0.53936
1726.06516	0.54219
1724.13660	0.54676
1722.20804	0.55103
1720.27947	0.55347
1718.35091	0.56007
1716.42234	0.57569
1714.49378	0.58677
1712.56521	0.59293
1710.63665	0.60022
1708.70808	0.60998
1706.77952	0.62681
1704.85096	0.65104
1702.92239	0.67227
1700.99383	0.70314
1699.06526	0.75529
1697.13670	0.80381
1695.20813	0.84859
1693.27957	0.87867
1691.35100	0.90064
1689.42244	0.92919
1687.49388	0.95666
1685.56531	0.98665
1683.63675	1.03941
1681.70818	1.07804
1679.77962	1.09932
1677.85105	1.12088
1675.92249	1.14988
1673.99392	1.18195
1672.06536	1.20470
1670.13680	1.22954
1668.20823	1.25682
1666.27967	1.26925
1664.35110	1.27802
1662.42254	1.29184
1660.49397	1.30226
1658.56541	1.30550
1656.63684	1.30533
1654.70828	1.30767
1652.77972	1.31706
1650.85115	1.31715
1648.92259	1.31237
1646.99402	1.31015
1645.06546	1.30918
1643.13689	1.30632
1641.20833	1.30368
1639.27976	1.30031
1637.35120	1.29659
1635.42264	1.29520
1633.49407	1.29191
1631.56551	1.28559
1629.63694	1.27689
1627.70838	1.26509
1625.77981	1.25052
1623.85125	1.23284
1621.92269	1.21234
1619.99412	1.19340
1618.06556	1.17193
1616.13699	1.14173
1614.20843	1.11431
1612.27986	1.09092
1610.35130	1.06619
1608.42273	1.04068
1606.49417	1.01834
1604.56561	1.00106
1602.63704	0.98792
1600.70848	0.97800
1598.77991	0.97085
1596.85135	0.96645
1594.92278	0.96444
1592.99422	0.96411
1591.06565	0.96567
1589.13709	0.96983
1587.20853	0.97689
1585.27996	0.98689
1583.35140	0.99923
1581.42283	1.01117
1579.49427	1.02061
1577.56570	1.03361
1575.63714	1.05714
1573.70857	1.07333
1571.78001	1.08202
1569.85145	1.09768
1567.92288	1.11720
1565.99432	1.13134
1564.06575	1.14288
1562.13719	1.14896
1560.20862	1.15379
1558.28006	1.17590
1556.35149	1.19072
1554.42293	1.19544
1552.49437	1.19954
1550.56580	1.20258
1548.63724	1.20307
1546.70867	1.20147
1544.78011	1.20003
1542.85154	1.20006
1540.92298	1.20111
1538.99441	1.19811
1537.06585	1.19221
1535.13729	1.18632
1533.20872	1.18056
1531.28016	1.17347
1529.35159	1.16571
1527.42303	1.15836
1525.49446	1.15207
1523.56590	1.14828
1521.63733	1.14763
1519.70877	1.14792
1517.78021	1.14552
1515.85164	1.13850
1513.92308	1.12697
1511.99451	1.11340
1510.06595	1.10047
1508.13738	1.08408
1506.20882	1.05523
1504.28025	1.03353
1502.35169	1.01576
1500.42313	0.99538
1498.49456	0.97128
1496.56600	0.94474
1494.63743	0.92234
1492.70887	0.90476
1490.78030	0.88672
1488.85174	0.86806
1486.92317	0.85477
1484.99461	0.84556
1483.06605	0.83925
1481.13748	0.83611
1479.20892	0.83523
1477.28035	0.83613
1475.35179	0.84102
1473.42322	0.85488
1471.49466	0.87119
1469.56610	0.87721
1467.63753	0.87892
1465.70897	0.88339
1463.78040	0.89018
1461.85184	0.89284
1459.92327	0.89309
1457.99471	0.89998
1456.06614	0.91392
1454.13758	0.91844
1452.20902	0.91904
1450.28045	0.92025
1448.35189	0.92302
1446.42332	0.92529
1444.49476	0.92487
1442.56619	0.92279
1440.63763	0.91971
1438.70906	0.91528
1436.78050	0.90932
1434.85194	0.90170
1432.92337	0.89322
1430.99481	0.88479
1429.06624	0.87709
1427.13768	0.87074
1425.20911	0.86670
1423.28055	0.86554
1421.35198	0.86657
1419.42342	0.87197
1417.49486	0.88015
1415.56629	0.88384
1413.63773	0.88526
1411.70916	0.88688
1409.78060	0.88833
1407.85203	0.88896
1405.92347	0.89007
1403.99490	0.89205
1402.06634	0.89266
1400.13778	0.89238
1398.20921	0.89259
1396.28065	0.89366
1394.35208	0.89617
1392.42352	0.89859
1390.49495	0.90107
1388.56639	0.90830
1386.63782	0.92294
1384.70926	0.93883
1382.78070	0.95255
1380.85213	0.96429
1378.92357	0.97199
1376.99500	0.97403
1375.06644	0.97009
1373.13787	0.96035
1371.20931	0.94690
1369.28074	0.92998
1367.35218	0.91035
1365.42362	0.89116
1363.49505	0.87196
1361.56649	0.85379
1359.63792	0.84041
1357.70936	0.83076
1355.78079	0.82304
1353.85223	0.81710
1351.92366	0.81296
1349.99510	0.81019
1348.06654	0.80845
1346.13797	0.80755
1344.20941	0.80717
1342.28084	0.80737
1340.35228	0.80948
1338.42371	0.81385
1336.49515	0.81854
1334.56659	0.82363
1332.63802	0.83030
1330.70946	0.83832
1328.78089	0.84575
1326.85233	0.85124
1324.92376	0.85522
1322.99520	0.85841
1321.06663	0.86133
1319.13807	0.86490
1317.20951	0.86914
1315.28094	0.87326
1313.35238	0.87734
1311.42381	0.88089
1309.49525	0.88302
1307.56668	0.88400
1305.63812	0.88443
1303.70955	0.88434
1301.78099	0.88304
1299.85243	0.88009
1297.92386	0.87615
1295.99530	0.87238
1294.06673	0.86980
1292.13817	0.86907
1290.20960	0.87034
1288.28104	0.87328
1286.35247	0.87728
1284.42391	0.88155
1282.49535	0.88567
1280.56678	0.89004
1278.63822	0.89522
1276.70965	0.90091
1274.78109	0.90649
1272.85252	0.91219
1270.92396	0.91843
1268.99539	0.92483
1267.06683	0.93052
1265.13827	0.93465
1263.20970	0.93658
1261.28114	0.93625
1259.35257	0.93384
1257.42401	0.93011
1255.49544	0.92677
1253.56688	0.92469
1251.63831	0.92322
1249.70975	0.92197
1247.78119	0.92111
1245.85262	0.92081
1243.92406	0.92097
1241.99549	0.92106
1240.06693	0.92066
1238.13836	0.91957
1236.20980	0.91750
1234.28123	0.91433
1232.35267	0.91004
1230.42411	0.90455
1228.49554	0.89791
1226.56698	0.88994
1224.63841	0.88089
1222.70985	0.87156
1220.78128	0.86221
1218.85272	0.85306
1216.92415	0.84517
1214.99559	0.83966
1213.06703	0.83677
1211.13846	0.83623
1209.20990	0.83730
1207.28133	0.83831
1205.35277	0.83704
1203.42420	0.83210
1201.49564	0.82415
1199.56708	0.81485
1197.63851	0.80564
1195.70995	0.79757
1193.78138	0.79120
1191.85282	0.78657
1189.92425	0.78345
1187.99569	0.78151
1186.06712	0.78077
1184.13856	0.78146
1182.21000	0.78363
1180.28143	0.78757
1178.35287	0.79395
1176.42430	0.80282
1174.49574	0.81364
1172.56717	0.82592
1170.63861	0.83934
1168.71004	0.85422
1166.78148	0.87088
1164.85292	0.88812
1162.92435	0.90331
1160.99579	0.91433
1159.06722	0.92000
1157.13866	0.91939
1155.21009	0.91237
1153.28153	0.90019
1151.35296	0.88476
1149.42440	0.86794
1147.49584	0.85128
1145.56727	0.83633
1143.63871	0.82480
1141.71014	0.81764
1139.78158	0.81460
1137.85301	0.81482
1135.92445	0.81730
1133.99588	0.82208
1132.06732	0.83001
1130.13876	0.84107
1128.21019	0.85448
1126.28163	0.86924
1124.35306	0.88357
1122.42450	0.89629
1120.49593	0.90763
1118.56737	0.91679
1116.63880	0.92177
1114.71024	0.92228
1112.78168	0.91958
1110.85311	0.91527
1108.92455	0.91030
1106.99598	0.90526
1105.06742	0.90128
1103.13885	0.89839
1101.21029	0.89629
1099.28172	0.89627
1097.35316	0.89910
1095.42460	0.90409
1093.49603	0.91081
1091.56747	0.91952
1089.63890	0.93101
1087.71034	0.94583
1085.78177	0.96318
1083.85321	0.98180
1081.92464	0.99985
1079.99608	1.01453
1078.06752	1.02403
1076.13895	1.02806
1074.21039	1.02706
1072.28182	1.02242
1070.35326	1.01543
1068.42469	1.00640
1066.49613	0.99611
1064.56756	0.98532
1062.63900	0.97352
1060.71044	0.96066
1058.78187	0.94795
1056.85331	0.93638
1054.92474	0.92622
1052.99618	0.91782
1051.06761	0.91147
1049.13905	0.90755
1047.21049	0.90737
1045.28192	0.91112
1043.35336	0.91747
1041.42479	0.92600
1039.49623	0.93623
1037.56766	0.94600
1035.63910	0.95335
1033.71053	0.95791
1031.78197	0.96018
1029.85341	0.96005
1027.92484	0.95660
1025.99628	0.95046
1024.06771	0.94309
1022.13915	0.93487
1020.21058	0.92645
1018.28202	0.91870
1016.35345	0.91111
1014.42489	0.90166
1012.49633	0.88890
1010.56776	0.87360
1008.63920	0.85669
1006.71063	0.83849
1004.78207	0.82041
1002.85350	0.80416
1000.92494	0.79004
998.99637	0.77762
997.06781	0.76663
995.13925	0.75664
993.21068	0.74673
991.28212	0.73585
989.35355	0.72382
987.42499	0.71147
985.49642	0.70013
983.56786	0.69101
981.63929	0.68456
979.71073	0.68079
977.78217	0.67934
975.85360	0.67866
973.92504	0.67682
971.99647	0.67311
970.06791	0.66803
968.13934	0.66245
966.21078	0.65730
964.28221	0.65330
962.35365	0.65177
960.42509	0.65474
958.49652	0.66228
956.56796	0.67033
954.63939	0.67314
952.71083	0.66825
950.78226	0.65761
948.85370	0.64464
946.92513	0.63193
944.99657	0.62100
943.06801	0.61242
941.13944	0.60589
939.21088	0.60067
937.28231	0.59617
935.35375	0.59240
933.42518	0.58957
931.49662	0.58743
929.56805	0.58611
927.63949	0.58611
925.71093	0.58735
923.78236	0.58937
921.85380	0.59169
919.92523	0.59367
917.99667	0.59503
916.06810	0.59597
914.13954	0.59693
912.21098	0.59831
910.28241	0.60029
908.35385	0.60303
906.42528	0.60678
904.49672	0.61135
902.56815	0.61566
900.63959	0.61904
898.71102	0.62173
896.78246	0.62409
894.85390	0.62625
892.92533	0.62776
890.99677	0.62806
889.06820	0.62753
887.13964	0.62663
885.21107	0.62565
883.28251	0.62458
881.35394	0.62295
879.42538	0.62083
877.49682	0.61876
875.56825	0.61684
873.63969	0.61507
871.71112	0.61382
869.78256	0.61377
867.85399	0.61538
865.92543	0.61852
863.99686	0.62303
862.06830	0.62897
860.13974	0.63611
858.21117	0.64396
856.28261	0.65197
854.35404	0.65931
852.42548	0.66468
850.49691	0.66699
848.56835	0.66582
846.63978	0.66093
844.71122	0.65273
842.78266	0.64253
840.85409	0.63181
838.92553	0.62152
836.99696	0.61229
835.06840	0.60471
833.13983	0.59947
831.21127	0.59738
829.28270	0.59875
827.35414	0.60305
825.42558	0.60964
823.49701	0.61828
821.56845	0.62847
819.63988	0.63892
817.71132	0.64801
815.78275	0.65451
813.85419	0.65819
811.92562	0.65892
809.99706	0.65538
808.06850	0.64709
806.13993	0.63573
804.21137	0.62312
802.28280	0.61040
800.35424	0.59909
798.42567	0.59075
796.49711	0.58603
794.56854	0.58549
792.63998	0.58922
790.71142	0.59636
788.78285	0.60600
786.85429	0.61773
784.92572	0.63103
782.99716	0.64473
781.06859	0.65780
779.14003	0.66946
777.21147	0.67819
775.28290	0.68274
773.35434	0.68345
771.42577	0.68119
769.49721	0.67660
767.56864	0.67089
765.64008	0.66562
763.71151	0.66224
761.78295	0.66250
759.85439	0.66710
757.92582	0.67511
755.99726	0.68588
754.06869	0.69900
752.14013	0.71271
750.21156	0.72459
748.28300	0.73293
746.35443	0.73679
744.42587	0.73588
742.49731	0.73022
740.56874	0.72013
738.64018	0.70703
736.71161	0.69279
734.78305	0.67896
732.85448	0.66741
730.92592	0.65971
728.99735	0.65660
727.06879	0.65894
725.14023	0.66674
723.21166	0.67827
721.28310	0.69209
719.35453	0.70671
717.42597	0.71943
715.49740	0.72870
713.56884	0.73346
711.64027	0.73229
709.71171	0.72496
707.78315	0.71260
705.85458	0.69650
703.92602	0.67823
701.99745	0.66031
700.06889	0.64492
698.14032	0.63290
696.21176	0.62457
694.28319	0.61996
692.35463	0.61902
690.42607	0.62220
688.49750	0.62937
686.56894	0.63900
684.64037	0.65015
682.71181	0.66271
680.78324	0.67541
678.85468	0.68646
676.92611	0.69369
674.99755	0.69504
673.06899	0.69110
671.14042	0.68484
669.21186	0.67574
667.28329	0.66202
665.35473	0.65125
663.42616	0.64348
661.49760	0.63775
659.56903	0.63596
657.64047	0.63814
655.71191	0.64335
653.78334	0.65160
651.85478	0.66289
649.92621	0.67632
647.99765	0.69041
646.06908	0.70464
644.14052	0.71908
642.21195	0.73149
640.28339	0.73864
638.35483	0.74006
636.42626	0.73758
634.49770	0.73258
632.56913	0.72604
630.64057	0.71837
628.71200	0.70960
626.78344	0.70279
624.85488	0.70180
622.92631	0.70569
620.99775	0.71160
619.06918	0.71976
617.14062	0.72975
615.21205	0.73857
613.28349	0.74573
611.35492	0.75157
609.42636	0.75387
607.49780	0.75116
605.56923	0.74446
603.64067	0.73600
601.71210	0.72640
599.78354	0.71359
