3997.91406	0.55286
3995.98550	0.55176
3994.05693	0.55134
3992.12837	0.55092
3990.19980	0.55021
3988.27124	0.54903
3986.34268	0.54751
3984.41411	0.54697
3982.48555	0.54790
3980.55698	0.54852
3978.62842	0.54695
3976.69985	0.54448
3974.77129	0.54385
3972.84272	0.54461
3970.91416	0.54490
3968.98560	0.54494
3967.05703	0.54502
3965.12847	0.54515
3963.19990	0.54560
3961.27134	0.54570
3959.34277	0.54521
3957.41421	0.54509
3955.48564	0.54467
3953.55708	0.54301
3951.62852	0.54096
3949.69995	0.54064
3947.77139	0.54166
3945.84282	0.54086
3943.91426	0.54068
3941.98569	0.54284
3940.05713	0.54255
3938.12856	0.54017
3936.20000	0.53849
3934.27144	0.53812
3932.34287	0.53986
3930.41431	0.54164
3928.48574	0.54031
3926.55718	0.53815
3924.62861	0.53905
3922.70005	0.54038
3920.77148	0.53878
3918.84292	0.53855
3916.91436	0.54221
3914.98579	0.54388
3913.05723	0.54168
3911.12866	0.53890
3909.20010	0.53489
3907.27153	0.52830
3905.34297	0.52366
3903.41440	0.52591
3901.48584	0.53154
3899.55728	0.53722
3897.62871	0.53877
3895.70015	0.53347
3893.77158	0.52738
3891.84302	0.52973
3889.91445	0.53298
3887.98589	0.52828
3886.05733	0.52640
3884.12876	0.53038
3882.20020	0.53087
3880.27163	0.53235
3878.34307	0.53216
3876.41450	0.52735
3874.48594	0.52333
3872.55737	0.52030
3870.62881	0.52280
3868.70025	0.52910
3866.77168	0.52676
3864.84312	0.52480
3862.91455	0.53010
3860.98599	0.53140
3859.05742	0.52583
3857.12886	0.51503
3855.20029	0.50404
3853.27173	0.51617
3851.34317	0.53354
3849.41460	0.53221
3847.48604	0.52480
3845.55747	0.51756
3843.62891	0.51297
3841.70034	0.50963
3839.77178	0.50755
3837.84321	0.51323
3835.91465	0.52033
3833.98609	0.52158
3832.05752	0.52027
3830.12896	0.51771
3828.20039	0.51527
3826.27183	0.51412
3824.34326	0.50901
3822.41470	0.50356
3820.48613	0.50883
3818.55757	0.51225
3816.62901	0.51594
3814.70044	0.52355
3812.77188	0.52251
3810.84331	0.51501
3808.91475	0.50949
3806.98618	0.51186
3805.05762	0.51188
3803.12905	0.50745
3801.20049	0.51299
3799.27193	0.51868
3797.34336	0.51967
3795.41480	0.52261
3793.48623	0.52278
3791.55767	0.52001
3789.62910	0.51739
3787.70054	0.51547
3785.77197	0.51571
3783.84341	0.51630
3781.91485	0.51414
3779.98628	0.51533
3778.05772	0.52075
3776.12915	0.52045
3774.20059	0.51462
3772.27202	0.50940
3770.34346	0.50967
3768.41489	0.51214
3766.48633	0.51334
3764.55777	0.51426
3762.62920	0.51116
3760.70064	0.50730
3758.77207	0.50931
3756.84351	0.50998
3754.91494	0.50352
3752.98638	0.49518
3751.05781	0.49756
3749.12925	0.50438
3747.20069	0.50088
3745.27212	0.50140
3743.34356	0.50983
3741.41499	0.50831
3739.48643	0.49836
3737.55786	0.48961
3735.62930	0.49380
3733.70074	0.50784
3731.77217	0.51272
3729.84361	0.50811
3727.91504	0.50215
3725.98648	0.50154
3724.05791	0.50478
3722.12935	0.50727
3720.20078	0.50877
3718.27222	0.50779
3716.34366	0.50306
3714.41509	0.49572
3712.48653	0.49424
3710.55796	0.50564
3708.62940	0.51120
3706.70083	0.50713
3704.77227	0.50139
3702.84370	0.50144
3700.91514	0.50709
3698.98658	0.50820
3697.05801	0.50557
3695.12945	0.50245
3693.20088	0.49742
3691.27232	0.49371
3689.34375	0.50279
3687.41519	0.51482
3685.48662	0.51662
3683.55806	0.51395
3681.62950	0.51112
3679.70093	0.50722
3677.77237	0.50230
3675.84380	0.50889
3673.91524	0.51853
3671.98667	0.51768
3670.05811	0.52648
3668.12954	0.53814
3666.20098	0.53756
3664.27242	0.53504
3662.34385	0.53530
3660.41529	0.53568
3658.48672	0.53613
3656.55816	0.54168
3654.62959	0.54485
3652.70103	0.53749
3650.77246	0.53185
3648.84390	0.55141
3646.91534	0.57063
3644.98677	0.57342
3643.05821	0.57331
3641.12964	0.57526
3639.20108	0.57823
3637.27251	0.58050
3635.34395	0.58220
3633.41538	0.58222
3631.48682	0.57961
3629.55826	0.58704
3627.62969	0.60673
3625.70113	0.61172
3623.77256	0.60830
3621.84400	0.60631
3619.91543	0.61234
3617.98687	0.62306
3616.05830	0.62762
3614.12974	0.63146
3612.20118	0.63627
3610.27261	0.63831
3608.34405	0.64375
3606.41548	0.65245
3604.48692	0.65648
3602.55835	0.65858
3600.62979	0.66341
3598.70123	0.66855
3596.77266	0.67246
3594.84410	0.67796
3592.91553	0.68169
3590.98697	0.67939
3589.05840	0.67848
3587.12984	0.68969
3585.20127	0.70193
3583.27271	0.70715
3581.34415	0.71116
3579.41558	0.71543
3577.48702	0.71912
3575.55845	0.72266
3573.62989	0.72460
3571.70132	0.72308
3569.77276	0.72119
3567.84419	0.72931
3565.91563	0.74702
3563.98707	0.75420
3562.05850	0.75432
3560.12994	0.75628
3558.20137	0.75994
3556.27281	0.76243
3554.34424	0.76535
3552.41568	0.77161
3550.48711	0.77684
3548.55855	0.77834
3546.62999	0.78200
3544.70142	0.78982
3542.77286	0.79578
3540.84429	0.79852
3538.91573	0.80160
3536.98716	0.80749
3535.05860	0.81461
3533.13003	0.82010
3531.20147	0.82378
3529.27291	0.82741
3527.34434	0.83188
3525.41578	0.83581
3523.48721	0.84014
3521.55865	0.84651
3519.63008	0.85333
3517.70152	0.85912
3515.77295	0.86358
3513.84439	0.86701
3511.91583	0.87068
3509.98726	0.87697
3508.05870	0.88469
3506.13013	0.89016
3504.20157	0.89653
3502.27300	0.90591
3500.34444	0.91252
3498.41587	0.91647
3496.48731	0.92183
3494.55875	0.92721
3492.63018	0.93014
3490.70162	0.93214
3488.77305	0.93495
3486.84449	0.93896
3484.91592	0.94315
3482.98736	0.94637
3481.05879	0.94888
3479.13023	0.95037
3477.20167	0.95096
3475.27310	0.95307
3473.34454	0.95779
3471.41597	0.96274
3469.48741	0.96642
3467.55884	0.96908
3465.63028	0.97015
3463.70171	0.97103
3461.77315	0.97527
3459.84459	0.98207
3457.91602	0.98746
3455.98746	0.99041
3454.05889	0.99133
3452.13033	0.99036
3450.20176	0.98919
3448.27320	0.99178
3446.34464	0.99881
3444.41607	1.00390
3442.48751	1.00454
3440.55894	1.00411
3438.63038	1.00431
3436.70181	1.00447
3434.77325	1.00439
3432.84468	1.00488
3430.91612	1.00577
3428.98756	1.00694
3427.05899	1.00858
3425.13043	1.00914
3423.20186	1.00796
3421.27330	1.00647
3419.34473	1.00592
3417.41617	1.00606
3415.48760	1.00593
3413.55904	1.00543
3411.63048	1.00569
3409.70191	1.00735
3407.77335	1.00947
3405.84478	1.01095
3403.91622	1.01089
3401.98765	1.00981
3400.05909	1.01052
3398.13052	1.01350
3396.20196	1.01575
3394.27340	1.01647
3392.34483	1.01735
3390.41627	1.01874
3388.48770	1.02007
3386.55914	1.02090
3384.63057	1.02133
3382.70201	1.02171
3380.77344	1.02262
3378.84488	1.02481
3376.91632	1.02704
3374.98775	1.02785
3373.05919	1.02762
3371.13062	1.02788
3369.20206	1.03030
3367.27349	1.03317
3365.34493	1.03281
3363.41636	1.02985
3361.48780	1.02857
3359.55924	1.03127
3357.63067	1.03620
3355.70211	1.04013
3353.77354	1.04182
3351.84498	1.04312
3349.91641	1.04476
3347.98785	1.04597
3346.05928	1.04798
3344.13072	1.04976
3342.20216	1.04834
3340.27359	1.04599
3338.34503	1.04689
3336.41646	1.05056
3334.48790	1.05336
3332.55933	1.05491
3330.63077	1.05718
3328.70220	1.05830
3326.77364	1.05758
3324.84508	1.05950
3322.91651	1.06460
3320.98795	1.06871
3319.05938	1.07090
3317.13082	1.07352
3315.20225	1.07860
3313.27369	1.08479
3311.34513	1.08759
3309.41656	1.08601
3307.48800	1.08451
3305.55943	1.08583
3303.63087	1.08806
3301.70230	1.09003
3299.77374	1.09219
3297.84517	1.09372
3295.91661	1.09536
3293.98805	1.09774
3292.05948	1.09832
3290.13092	1.09651
3288.20235	1.09505
3286.27379	1.09524
3284.34522	1.09626
3282.41666	1.09666
3280.48809	1.09596
3278.55953	1.09549
3276.63097	1.09590
3274.70240	1.09642
3272.77384	1.09649
3270.84527	1.09567
3268.91671	1.09353
3266.98814	1.09004
3265.05958	1.08590
3263.13101	1.08244
3261.20245	1.08094
3259.27389	1.07991
3257.34532	1.07687
3255.41676	1.07274
3253.48819	1.06822
3251.55963	1.06390
3249.63106	1.06117
3247.70250	1.05887
3245.77393	1.05664
3243.84537	1.05412
3241.91681	1.04979
3239.98824	1.04510
3238.05968	1.04122
3236.13111	1.03729
3234.20255	1.03419
3232.27398	1.03266
3230.34542	1.03043
3228.41685	1.02650
3226.48829	1.02334
3224.55973	1.02220
3222.63116	1.02061
3220.70260	1.01722
3218.77403	1.01497
3216.84547	1.01570
3214.91690	1.01634
3212.98834	1.01340
3211.05977	1.00765
3209.13121	1.00232
3207.20265	0.99884
3205.27408	0.99600
3203.34552	0.99266
3201.41695	0.98912
3199.48839	0.98709
3197.55982	0.98730
3195.63126	0.98646
3193.70269	0.98278
3191.77413	0.97930
3189.84557	0.97704
3187.91700	0.97441
3185.98844	0.97134
3184.05987	0.96869
3182.13131	0.96659
3180.20274	0.96428
3178.27418	0.96140
3176.34562	0.95803
3174.41705	0.95459
3172.48849	0.95199
3170.55992	0.95037
3168.63136	0.94853
3166.70279	0.94550
3164.77423	0.94193
3162.84566	0.93904
3160.91710	0.93734
3158.98854	0.93673
3157.05997	0.93555
3155.13141	0.93201
3153.20284	0.92798
3151.27428	0.92591
3149.34571	0.92461
3147.41715	0.92271
3145.48858	0.92086
3143.56002	0.91920
3141.63146	0.91708
3139.70289	0.91503
3137.77433	0.91422
3135.84576	0.91419
3133.91720	0.91386
3131.98863	0.91360
3130.06007	0.91429
3128.13150	0.91511
3126.20294	0.91443
3124.27438	0.91353
3122.34581	0.91432
3120.41725	0.91493
3118.48868	0.91428
3116.56012	0.91449
3114.63155	0.91621
3112.70299	0.91847
3110.77442	0.92051
3108.84586	0.92129
3106.91730	0.92042
3104.98873	0.91878
3103.06017	0.91734
3101.13160	0.91649
3099.20304	0.91663
3097.27447	0.91732
3095.34591	0.91704
3093.41734	0.91570
3091.48878	0.91443
3089.56022	0.91380
3087.63165	0.91331
3085.70309	0.91191
3083.77452	0.90998
3081.84596	0.90876
3079.91739	0.90808
3077.98883	0.90697
3076.06026	0.90570
3074.13170	0.90533
3072.20314	0.90535
3070.27457	0.90386
3068.34601	0.90034
3066.41744	0.89679
3064.48888	0.89503
3062.56031	0.89462
3060.63175	0.89339
3058.70318	0.88997
3056.77462	0.88587
3054.84606	0.88292
3052.91749	0.88087
3050.98893	0.87923
3049.06036	0.87778
3047.13180	0.87549
3045.20323	0.87219
3043.27467	0.86912
3041.34610	0.86677
3039.41754	0.86456
3037.48898	0.86191
3035.56041	0.85909
3033.63185	0.85685
3031.70328	0.85540
3029.77472	0.85388
3027.84615	0.85097
3025.91759	0.84735
3023.98903	0.84499
3022.06046	0.84324
3020.13190	0.84086
3018.20333	0.83845
3016.27477	0.83603
3014.34620	0.83362
3012.41764	0.83243
3010.48907	0.83210
3008.56051	0.83117
3006.63195	0.82979
3004.70338	0.82889
3002.77482	0.82843
3000.84625	0.82799
2998.91769	0.82756
2996.98912	0.82746
2995.06056	0.82818
2993.13199	0.83027
2991.20343	0.83382
2989.27487	0.83833
2987.34630	0.84320
2985.41774	0.84819
2983.48917	0.85273
2981.56061	0.85645
2979.63204	0.86072
2977.70348	0.86627
2975.77491	0.87215
2973.84635	0.87861
2971.91779	0.88539
2969.98922	0.89074
2968.06066	0.89645
2966.13209	0.90434
2964.20353	0.91081
2962.27496	0.91332
2960.34640	0.91353
2958.41783	0.91206
2956.48927	0.90844
2954.56071	0.90306
2952.63214	0.89724
2950.70358	0.89301
2948.77501	0.89113
2946.84645	0.89072
2944.91788	0.89156
2942.98932	0.89477
2941.06075	0.90081
2939.13219	0.90856
2937.20363	0.91658
2935.27506	0.92447
2933.34650	0.93242
2931.41793	0.94016
2929.48937	0.94716
2927.56080	0.95380
2925.63224	0.96101
2923.70367	0.96842
2921.77511	0.97400
2919.84655	0.97644
2917.91798	0.97430
2915.98942	0.96483
2914.06085	0.94879
2912.13229	0.93079
2910.20372	0.91442
2908.27516	0.90132
2906.34659	0.89144
2904.41803	0.88338
2902.48947	0.87678
2900.56090	0.87244
2898.63234	0.87009
2896.70377	0.86828
2894.77521	0.86598
2892.84664	0.86283
2890.91808	0.85878
2888.98952	0.85461
2887.06095	0.85162
2885.13239	0.84973
2883.20382	0.84808
2881.27526	0.84695
2879.34669	0.84678
2877.41813	0.84717
2875.48956	0.84727
2873.56100	0.84609
2871.63244	0.84299
2869.70387	0.83845
2867.77531	0.83423
2865.84674	0.83137
2863.91818	0.82967
2861.98961	0.82912
2860.06105	0.83077
2858.13248	0.83589
2856.20392	0.84345
2854.27536	0.85159
2852.34679	0.86002
2850.41823	0.86492
2848.48966	0.85782
2846.56110	0.83792
2844.63253	0.81485
2842.70397	0.79617
2840.77540	0.78279
2838.84684	0.77282
2836.91828	0.76483
2834.98971	0.75873
2833.06115	0.75414
2831.13258	0.74979
2829.20402	0.74529
2827.27545	0.74147
2825.34689	0.73800
2823.41832	0.73391
2821.48976	0.72966
2819.56120	0.72583
2817.63263	0.72229
2815.70407	0.71917
2813.77550	0.71664
2811.84694	0.71440
2809.91837	0.71216
2807.98981	0.70974
2806.06124	0.70703
2804.13268	0.70425
2802.20412	0.70148
2800.27555	0.69859
2798.34699	0.69580
2796.41842	0.69348
2794.48986	0.69156
2792.56129	0.68951
2790.63273	0.68719
2788.70416	0.68529
2786.77560	0.68412
2784.84704	0.68302
2782.91847	0.68126
2780.98991	0.67903
2779.06134	0.67704
2777.13278	0.67533
2775.20421	0.67366
2773.27565	0.67204
2771.34708	0.67004
2769.41852	0.66768
2767.48996	0.66578
2765.56139	0.66461
2763.63283	0.66382
2761.70426	0.66298
2759.77570	0.66164
2757.84713	0.66001
2755.91857	0.65869
2753.99001	0.65761
2752.06144	0.65634
2750.13288	0.65525
2748.20431	0.65441
2746.27575	0.65343
2744.34718	0.65238
2742.41862	0.65140
2740.49005	0.65070
2738.56149	0.65027
2736.63293	0.64952
2734.70436	0.64832
2732.77580	0.64717
2730.84723	0.64610
2728.91867	0.64449
2726.99010	0.64256
2725.06154	0.64094
2723.13297	0.63951
2721.20441	0.63817
2719.27585	0.63674
2717.34728	0.63521
2715.41872	0.63409
2713.49015	0.63314
2711.56159	0.63173
2709.63302	0.63000
2707.70446	0.62828
2705.77589	0.62672
2703.84733	0.62535
2701.91877	0.62405
2699.99020	0.62292
2698.06164	0.62206
2696.13307	0.62125
2694.20451	0.62034
2692.27594	0.61952
2690.34738	0.61896
2688.41881	0.61844
2686.49025	0.61764
2684.56169	0.61648
2682.63312	0.61521
2680.70456	0.61399
2678.77599	0.61288
2676.84743	0.61202
2674.91886	0.61110
2672.99030	0.60962
2671.06173	0.60768
2669.13317	0.60618
2667.20461	0.60554
2665.27604	0.60490
2663.34748	0.60356
2661.41891	0.60180
2659.49035	0.60006
2657.56178	0.59857
2655.63322	0.59740
2653.70465	0.59659
2651.77609	0.59576
2649.84753	0.59443
2647.91896	0.59299
2645.99040	0.59227
2644.06183	0.59213
2642.13327	0.59170
2640.20470	0.59081
2638.27614	0.59024
2636.34757	0.59028
2634.41901	0.59036
2632.49045	0.59026
2630.56188	0.59013
2628.63332	0.58981
2626.70475	0.58940
2624.77619	0.58919
2622.84762	0.58875
2620.91906	0.58787
2618.99049	0.58734
2617.06193	0.58743
2615.13337	0.58721
2613.20480	0.58632
2611.27624	0.58551
2609.34767	0.58513
2607.41911	0.58468
2605.49054	0.58387
2603.56198	0.58274
2601.63342	0.58148
2599.70485	0.58042
2597.77629	0.57963
2595.84772	0.57896
2593.91916	0.57823
2591.99059	0.57717
2590.06203	0.57590
2588.13346	0.57476
2586.20490	0.57397
2584.27634	0.57356
2582.34777	0.57344
2580.41921	0.57318
2578.49064	0.57253
2576.56208	0.57174
2574.63351	0.57111
2572.70495	0.57078
2570.77638	0.57036
2568.84782	0.56960
2566.91926	0.56885
2564.99069	0.56832
2563.06213	0.56791
2561.13356	0.56734
2559.20500	0.56633
2557.27643	0.56514
2555.34787	0.56408
2553.41930	0.56280
2551.49074	0.56115
2549.56218	0.55961
2547.63361	0.55817
2545.70505	0.55659
2543.77648	0.55525
2541.84792	0.55434
2539.91935	0.55340
2537.99079	0.55205
2536.06222	0.55054
2534.13366	0.54933
2532.20510	0.54844
2530.27653	0.54787
2528.34797	0.54753
2526.41940	0.54717
2524.49084	0.54681
2522.56227	0.54660
2520.63371	0.54654
2518.70514	0.54678
2516.77658	0.54745
2514.84802	0.54824
2512.91945	0.54884
2510.99089	0.54928
2509.06232	0.54965
2507.13376	0.55006
2505.20519	0.55070
2503.27663	0.55157
2501.34806	0.55230
2499.41950	0.55256
2497.49094	0.55243
2495.56237	0.55228
2493.63381	0.55225
2491.70524	0.55199
2489.77668	0.55117
2487.84811	0.55017
2485.91955	0.54929
2483.99098	0.54828
2482.06242	0.54716
2480.13386	0.54619
2478.20529	0.54530
2476.27673	0.54422
2474.34816	0.54287
2472.41960	0.54146
2470.49103	0.54009
2468.56247	0.53875
2466.63391	0.53754
2464.70534	0.53636
2462.77678	0.53509
2460.84821	0.53401
2458.91965	0.53335
2456.99108	0.53284
2455.06252	0.53232
2453.13395	0.53170
2451.20539	0.53085
2449.27683	0.53003
2447.34826	0.52966
2445.41970	0.52976
2443.49113	0.52990
2441.56257	0.52981
2439.63400	0.52951
2437.70544	0.52905
2435.77687	0.52846
2433.84831	0.52777
2431.91975	0.52717
2429.99118	0.52690
2428.06262	0.52680
2426.13405	0.52645
2424.20549	0.52583
2422.27692	0.52522
2420.34836	0.52468
2418.41979	0.52398
2416.49123	0.52302
2414.56267	0.52226
2412.63410	0.52176
2410.70554	0.52115
2408.77697	0.52058
2406.84841	0.52029
2404.91984	0.51998
2402.99128	0.51961
2401.06271	0.51937
2399.13415	0.51925
2397.20559	0.51926
2395.27702	0.51912
2393.34846	0.51866
2391.41989	0.51817
2389.49133	0.51777
2387.56276	0.51734
2385.63420	0.51668
2383.70563	0.51574
2381.77707	0.51493
2379.84851	0.51474
2377.91994	0.51483
2375.99138	0.51456
2374.06281	0.51474
2372.13425	0.51638
2370.20568	0.51760
2368.27712	0.51680
2366.34855	0.51655
2364.41999	0.51854
2362.49143	0.52079
2360.56286	0.52171
2358.63430	0.52198
2356.70573	0.52219
2354.77717	0.52152
2352.84860	0.51975
2350.92004	0.51637
2348.99147	0.51205
2347.06291	0.50922
2345.13435	0.51026
2343.20578	0.51353
2341.27722	0.51528
2339.34865	0.51587
2337.42009	0.51644
2335.49152	0.51729
2333.56296	0.51834
2331.63440	0.51910
2329.70583	0.51919
2327.77727	0.51852
2325.84870	0.51739
2323.92014	0.51666
2321.99157	0.51668
2320.06301	0.51656
2318.13444	0.51542
2316.20588	0.51344
2314.27732	0.51129
2312.34875	0.50966
2310.42019	0.50892
2308.49162	0.50841
2306.56306	0.50711
2304.63449	0.50503
2302.70593	0.50292
2300.77736	0.50104
2298.84880	0.49944
2296.92024	0.49827
2294.99167	0.49723
2293.06311	0.49597
2291.13454	0.49463
2289.20598	0.49345
2287.27741	0.49243
2285.34885	0.49142
2283.42028	0.49050
2281.49172	0.48993
2279.56316	0.48968
2277.63459	0.48957
2275.70603	0.48944
2273.77746	0.48923
2271.84890	0.48913
2269.92033	0.48906
2267.99177	0.48882
2266.06320	0.48853
2264.13464	0.48834
2262.20608	0.48827
2260.27751	0.48826
2258.34895	0.48828
2256.42038	0.48819
2254.49182	0.48776
2252.56325	0.48697
2250.63469	0.48602
2248.70612	0.48509
2246.77756	0.48426
2244.84900	0.48347
2242.92043	0.48254
2240.99187	0.48140
2239.06330	0.48019
2237.13474	0.47914
2235.20617	0.47830
2233.27761	0.47744
2231.34904	0.47645
2229.42048	0.47544
2227.49192	0.47457
2225.56335	0.47388
2223.63479	0.47338
2221.70622	0.47295
2219.77766	0.47235
2217.84909	0.47168
2215.92053	0.47120
2213.99196	0.47086
2212.06340	0.47048
2210.13484	0.46999
2208.20627	0.46949
2206.27771	0.46901
2204.34914	0.46851
2202.42058	0.46790
2200.49201	0.46720
2198.56345	0.46658
2196.63488	0.46603
2194.70632	0.46544
2192.77776	0.46479
2190.84919	0.46406
2188.92063	0.46318
2186.99206	0.46222
2185.06350	0.46135
2183.13493	0.46040
2181.20637	0.45926
2179.27781	0.45816
2177.34924	0.45722
2175.42068	0.45639
2173.49211	0.45570
2171.56355	0.45510
2169.63498	0.45442
2167.70642	0.45373
2165.77785	0.45325
2163.84929	0.45287
2161.92073	0.45241
2159.99216	0.45202
2158.06360	0.45179
2156.13503	0.45162
2154.20647	0.45160
2152.27790	0.45169
2150.34934	0.45159
2148.42077	0.45137
2146.49221	0.45121
2144.56365	0.45086
2142.63508	0.45016
2140.70652	0.44933
2138.77795	0.44861
2136.84939	0.44802
2134.92082	0.44748
2132.99226	0.44678
2131.06369	0.44583
2129.13513	0.44473
2127.20657	0.44362
2125.27800	0.44245
2123.34944	0.44117
2121.42087	0.43985
2119.49231	0.43857
2117.56374	0.43727
2115.63518	0.43588
2113.70661	0.43446
2111.77805	0.43319
2109.84949	0.43207
2107.92092	0.43090
2105.99236	0.42971
2104.06379	0.42871
2102.13523	0.42792
2100.20666	0.42723
2098.27810	0.42660
2096.34953	0.42604
2094.42097	0.42548
2092.49241	0.42495
2090.56384	0.42474
2088.63528	0.42490
2086.70671	0.42517
2084.77815	0.42531
2082.84958	0.42526
2080.92102	0.42528
2078.99245	0.42547
2077.06389	0.42567
2075.13533	0.42585
2073.20676	0.42606
2071.27820	0.42621
2069.34963	0.42609
2067.42107	0.42569
2065.49250	0.42530
2063.56394	0.42490
2061.63537	0.42411
2059.70681	0.42307
2057.77825	0.42203
2055.84968	0.42087
2053.92112	0.41952
2051.99255	0.41812
2050.06399	0.41681
2048.13542	0.41559
2046.20686	0.41429
2044.27830	0.41282
2042.34973	0.41135
2040.42117	0.41003
2038.49260	0.40877
2036.56404	0.40764
2034.63547	0.40669
2032.70691	0.40585
2030.77834	0.40518
2028.84978	0.40448
2026.92122	0.40349
2024.99265	0.40252
2023.06409	0.40191
2021.13552	0.40137
2019.20696	0.40101
2017.27839	0.40111
2015.34983	0.40100
2013.42126	0.40028
2011.49270	0.39947
2009.56414	0.39891
2007.63557	0.39845
2005.70701	0.39798
2003.77844	0.39751
2001.84988	0.39685
1999.92131	0.39609
1997.99275	0.39542
1996.06418	0.39452
1994.13562	0.39365
1992.20706	0.39346
1990.27849	0.39341
1988.34993	0.39285
1986.42136	0.39222
1984.49280	0.39170
1982.56423	0.39133
1980.63567	0.39130
1978.70710	0.39146
1976.77854	0.39148
1974.84998	0.39153
1972.92141	0.39181
1970.99285	0.39193
1969.06428	0.39212
1967.13572	0.39292
1965.20715	0.39363
1963.27859	0.39385
1961.35002	0.39424
1959.42146	0.39467
1957.49290	0.39482
1955.56433	0.39515
1953.63577	0.39568
1951.70720	0.39594
1949.77864	0.39585
1947.85007	0.39550
1945.92151	0.39501
1943.99294	0.39499
1942.06438	0.39558
1940.13582	0.39536
1938.20725	0.39423
1936.27869	0.39332
1934.35012	0.39274
1932.42156	0.39202
1930.49299	0.39106
1928.56443	0.38999
1926.63586	0.38866
1924.70730	0.38741
1922.77874	0.38681
1920.85017	0.38620
1918.92161	0.38573
1916.99304	0.38600
1915.06448	0.38582
1913.13591	0.38500
1911.20735	0.38469
1909.27878	0.38535
1907.35022	0.38609
1905.42166	0.38648
1903.49309	0.38709
1901.56453	0.38798
1899.63596	0.38879
1897.70740	0.38960
1895.77883	0.39089
1893.85027	0.39210
1891.92171	0.39286
1889.99314	0.39444
1888.06458	0.39632
1886.13601	0.39715
1884.20745	0.39771
1882.27888	0.39833
1880.35032	0.39875
1878.42175	0.39919
1876.49319	0.39952
1874.56463	0.39934
1872.63606	0.39872
1870.70750	0.39878
1868.77893	0.40069
1866.85037	0.40215
1864.92180	0.40146
1862.99324	0.40052
1861.06467	0.40031
1859.13611	0.40057
1857.20755	0.40089
1855.27898	0.40109
1853.35042	0.40124
1851.42185	0.40135
1849.49329	0.40137
1847.56472	0.40119
1845.63616	0.40190
1843.70759	0.40420
1841.77903	0.40491
1839.85047	0.40391
1837.92190	0.40361
1835.99334	0.40400
1834.06477	0.40344
1832.13621	0.40247
1830.20764	0.40320
1828.27908	0.40441
1826.35051	0.40434
1824.42195	0.40442
1822.49339	0.40405
1820.56482	0.40285
1818.63626	0.40200
1816.70769	0.40159
1814.77913	0.40098
1812.85056	0.40045
1810.92200	0.40067
1808.99343	0.40089
1807.06487	0.40035
1805.13631	0.39956
1803.20774	0.39928
1801.27918	0.40039
1799.35061	0.40202
1797.42205	0.40244
1795.49348	0.40215
1793.56492	0.40343
1791.63635	0.40738
1789.70779	0.40957
1787.77923	0.40953
1785.85066	0.41023
1783.92210	0.41196
1781.99353	0.41377
1780.06497	0.41569
1778.13640	0.41672
1776.20784	0.41643
1774.27927	0.41693
1772.35071	0.42056
1770.42215	0.42396
1768.49358	0.42455
1766.56502	0.42413
1764.63645	0.42346
1762.70789	0.42421
1760.77932	0.42639
1758.85076	0.42767
1756.92220	0.42931
1754.99363	0.43072
1753.06507	0.43126
1751.13650	0.43454
1749.20794	0.44158
1747.27937	0.44702
1745.35081	0.45005
1743.42224	0.45266
1741.49368	0.45569
1739.56512	0.45860
1737.63655	0.45899
1735.70799	0.45830
1733.77942	0.46144
1731.85086	0.46416
1729.92229	0.46374
1727.99373	0.46309
1726.06516	0.46271
1724.13660	0.46344
1722.20804	0.46414
1720.27947	0.46397
1718.35091	0.46712
1716.42234	0.47735
1714.49378	0.48478
1712.56521	0.48852
1710.63665	0.49330
1708.70808	0.50047
1706.77952	0.51351
1704.85096	0.53219
1702.92239	0.54858
1700.99383	0.57336
1699.06526	0.61464
1697.13670	0.65259
1695.20813	0.68804
1693.27957	0.71165
1691.35100	0.72896
1689.42244	0.75126
1687.49388	0.77192
1685.56531	0.79425
1683.63675	0.83429
1681.70818	0.86134
1679.77962	0.87271
1677.85105	0.88294
1675.92249	0.89854
1673.99392	0.91704
1672.06536	0.92942
1670.13680	0.94416
1668.20823	0.96166
1666.27967	0.96894
1664.35110	0.97507
1662.42254	0.98803
1660.49397	0.99921
1658.56541	1.00286
1656.63684	1.00260
1654.70828	1.00461
1652.77972	1.01749
1650.85115	1.02236
1648.92259	1.02162
1646.99402	1.02665
1645.06546	1.03003
1643.13689	1.02677
1641.20833	1.02320
1639.27976	1.02056
1637.35120	1.02066
1635.42264	1.02584
1633.49407	1.02661
1631.56551	1.02292
1629.63694	1.01946
1627.70838	1.01686
1625.77981	1.01297
1623.85125	1.00705
1621.92269	0.99908
1619.99412	0.98980
1618.06556	0.97899
1616.13699	0.96563
1614.20843	0.95269
1612.27986	0.94020
1610.35130	0.92729
1608.42273	0.91497
1606.49417	0.90431
1604.56561	0.89547
1602.63704	0.88857
1600.70848	0.88369
1598.77991	0.88003
1596.85135	0.87737
1594.92278	0.87594
1592.99422	0.87521
1591.06565	0.87490
1589.13709	0.87573
1587.20853	0.87820
1585.27996	0.88202
1583.35140	0.88699
1581.42283	0.89241
1579.49427	0.89721
1577.56570	0.90477
1575.63714	0.91849
1573.70857	0.92584
1571.78001	0.92837
1569.85145	0.93634
1567.92288	0.94676
1565.99432	0.95259
1564.06575	0.95632
1562.13719	0.95779
1560.20862	0.96291
1558.28006	0.98495
1556.35149	0.99370
1554.42293	0.99305
1552.49437	0.99329
1550.56580	0.99516
1548.63724	0.99705
1546.70867	0.99659
1544.78011	0.99504
1542.85154	0.99489
1540.92298	1.00006
1538.99441	1.00404
1537.06585	0.99995
1535.13729	0.99533
1533.20872	0.99268
1531.28016	0.98918
1529.35159	0.98445
1527.42303	0.98143
1525.49446	0.98098
1523.56590	0.98171
1521.63733	0.98374
1519.70877	0.98410
1517.78021	0.98182
1515.85164	0.97856
1513.92308	0.97277
1511.99451	0.96418
1510.06595	0.95441
1508.13738	0.94283
1506.20882	0.92768
1504.28025	0.91521
1502.35169	0.90392
1500.42313	0.89200
1498.49456	0.87890
1496.56600	0.86397
1494.63743	0.84978
1492.70887	0.83789
1490.78030	0.82623
1488.85174	0.81457
1486.92317	0.80548
1484.99461	0.79833
1483.06605	0.79303
1481.13748	0.78977
1479.20892	0.78798
1477.28035	0.78824
1475.35179	0.79280
1473.42322	0.80446
1471.49466	0.81712
1469.56610	0.82182
1467.63753	0.82387
1465.70897	0.82897
1463.78040	0.83561
1461.85184	0.83743
1459.92327	0.83648
1457.99471	0.84085
1456.06614	0.85108
1454.13758	0.85324
1452.20902	0.85196
1450.28045	0.85089
1448.35189	0.85068
1446.42332	0.85027
1444.49476	0.84817
1442.56619	0.84467
1440.63763	0.84019
1438.70906	0.83492
1436.78050	0.82957
1434.85194	0.82409
1432.92337	0.81784
1430.99481	0.81091
1429.06624	0.80372
1427.13768	0.79726
1425.20911	0.79202
1423.28055	0.78791
1421.35198	0.78509
1419.42342	0.78480
1417.49486	0.78553
1415.56629	0.78351
1413.63773	0.78020
1411.70916	0.77744
1409.78060	0.77535
1407.85203	0.77356
1405.92347	0.77300
1403.99490	0.77357
1402.06634	0.77346
1400.13778	0.77384
1398.20921	0.77612
1396.28065	0.77956
1394.35208	0.78399
1392.42352	0.78797
1390.49495	0.79174
1388.56639	0.79905
1386.63782	0.81119
1384.70926	0.82279
1382.78070	0.83265
1380.85213	0.84205
1378.92357	0.84875
1376.99500	0.85100
1375.06644	0.84931
1373.13787	0.84344
1371.20931	0.83432
1369.28074	0.82324
1367.35218	0.81086
1365.42362	0.79859
1363.49505	0.78658
1361.56649	0.77530
1359.63792	0.76634
1357.70936	0.75969
1355.78079	0.75488
1353.85223	0.75128
1351.92366	0.74805
1349.99510	0.74513
1348.06654	0.74302
1346.13797	0.74175
1344.20941	0.74081
1342.28084	0.74006
1340.35228	0.74078
1338.42371	0.74364
1336.49515	0.74713
1334.56659	0.75122
1332.63802	0.75687
1330.70946	0.76371
1328.78089	0.77018
1326.85233	0.77506
1324.92376	0.77819
1322.99520	0.78032
1321.06663	0.78245
1319.13807	0.78496
1317.20951	0.78743
1315.28094	0.78955
1313.35238	0.79163
1311.42381	0.79328
1309.49525	0.79379
1307.56668	0.79346
1305.63812	0.79286
1303.70955	0.79203
1301.78099	0.79037
1299.85243	0.78767
1297.92386	0.78454
1295.99530	0.78141
1294.06673	0.77844
1292.13817	0.77619
1290.20960	0.77501
1288.28104	0.77447
1286.35247	0.77389
1284.42391	0.77321
1282.49535	0.77290
1280.56678	0.77278
1278.63822	0.77250
1276.70965	0.77281
1274.78109	0.77455
1272.85252	0.77764
1270.92396	0.78155
1268.99539	0.78595
1267.06683	0.79077
1265.13827	0.79549
1263.20970	0.79924
1261.28114	0.80165
1259.35257	0.80286
1257.42401	0.80324
1255.49544	0.80372
1253.56688	0.80493
1251.63831	0.80606
1249.70975	0.80638
1247.78119	0.80662
1245.85262	0.80708
1243.92406	0.80717
1241.99549	0.80687
1240.06693	0.80648
1238.13836	0.80569
1236.20980	0.80398
1234.28123	0.80148
1232.35267	0.79860
1230.42411	0.79513
1228.49554	0.79075
1226.56698	0.78568
1224.63841	0.78026
1222.70985	0.77473
1220.78128	0.76922
1218.85272	0.76389
1216.92415	0.75923
1214.99559	0.75594
1213.06703	0.75463
1211.13846	0.75512
1209.20990	0.75629
1207.28133	0.75717
1205.35277	0.75664
1203.42420	0.75335
1201.49564	0.74751
1199.56708	0.74062
1197.63851	0.73339
1195.70995	0.72575
1193.78138	0.71831
1191.85282	0.71197
1189.92425	0.70681
1187.99569	0.70250
1186.06712	0.69878
1184.13856	0.69553
1182.21000	0.69300
1180.28143	0.69166
1178.35287	0.69177
1176.42430	0.69342
1174.49574	0.69657
1172.56717	0.70068
1170.63861	0.70540
1168.71004	0.71141
1166.78148	0.71946
1164.85292	0.72899
1162.92435	0.73830
1160.99579	0.74561
1159.06722	0.74987
1157.13866	0.75057
1155.21009	0.74781
1153.28153	0.74214
1151.35296	0.73411
1149.42440	0.72466
1147.49584	0.71525
1145.56727	0.70726
1143.63871	0.70185
1141.71014	0.69956
1139.78158	0.70000
1137.85301	0.70274
1135.92445	0.70752
1133.99588	0.71382
1132.06732	0.72175
1130.13876	0.73157
1128.21019	0.74262
1126.28163	0.75388
1124.35306	0.76463
1122.42450	0.77461
1120.49593	0.78324
1118.56737	0.78941
1116.63880	0.79278
1114.71024	0.79347
1112.78168	0.79155
1110.85311	0.78778
1108.92455	0.78334
1106.99598	0.77884
1105.06742	0.77449
1103.13885	0.77068
1101.21029	0.76800
1099.28172	0.76731
1097.35316	0.76895
1095.42460	0.77224
1093.49603	0.77678
1091.56747	0.78278
1089.63890	0.79041
1087.71034	0.80004
1085.78177	0.81123
1083.85321	0.82260
1081.92464	0.83316
1079.99608	0.84220
1078.06752	0.84891
1076.13895	0.85283
1074.21039	0.85352
1072.28182	0.85111
1070.35326	0.84680
1068.42469	0.84140
1066.49613	0.83445
1064.56756	0.82580
1062.63900	0.81619
1060.71044	0.80592
1058.78187	0.79496
1056.85331	0.78432
1054.92474	0.77492
1052.99618	0.76656
1051.06761	0.75910
1049.13905	0.75301
1047.21049	0.74902
1045.28192	0.74808
1043.35336	0.75047
1041.42479	0.75491
1039.49623	0.75954
1037.56766	0.76361
1035.63910	0.76729
1033.71053	0.77030
1031.78197	0.77205
1029.85341	0.77222
1027.92484	0.77088
1025.99628	0.76827
1024.06771	0.76460
1022.13915	0.76058
1020.21058	0.75722
1018.28202	0.75470
1016.35345	0.75204
1014.42489	0.74759
1012.49633	0.74051
1010.56776	0.73144
1008.63920	0.72115
1006.71063	0.70979
1004.78207	0.69758
1002.85350	0.68542
1000.92494	0.67399
998.99637	0.66331
997.06781	0.65343
995.13925	0.64438
993.21068	0.63574
991.28212	0.62701
989.35355	0.61797
987.42499	0.60879
985.49642	0.60035
983.56786	0.59361
981.63929	0.58891
979.71073	0.58619
977.78217	0.58492
975.85360	0.58410
973.92504	0.58256
971.99647	0.57955
970.06791	0.57520
968.13934	0.57020
966.21078	0.56568
964.28221	0.56302
962.35365	0.56336
960.42509	0.56767
958.49652	0.57590
956.56796	0.58539
954.63939	0.59172
952.71083	0.59193
950.78226	0.58661
948.85370	0.57872
946.92513	0.57086
944.99657	0.56423
943.06801	0.55886
941.13944	0.55430
939.21088	0.55061
937.28231	0.54795
935.35375	0.54607
933.42518	0.54472
931.49662	0.54377
929.56805	0.54322
927.63949	0.54336
925.71093	0.54469
923.78236	0.54716
921.85380	0.55013
919.92523	0.55296
917.99667	0.55551
916.06810	0.55814
914.13954	0.56128
912.21098	0.56502
910.28241	0.56937
908.35385	0.57442
906.42528	0.57993
904.49672	0.58523
902.56815	0.58983
900.63959	0.59348
898.71102	0.59568
896.78246	0.59588
894.85390	0.59399
892.92533	0.59036
890.99677	0.58551
889.06820	0.57965
887.13964	0.57309
885.21107	0.56669
883.28251	0.56080
881.35394	0.55523
879.42538	0.55023
877.49682	0.54617
875.56825	0.54326
873.63969	0.54144
871.71112	0.54038
869.78256	0.54007
867.85399	0.54095
865.92543	0.54329
863.99686	0.54691
862.06830	0.55165
860.13974	0.55736
858.21117	0.56358
856.28261	0.56992
854.35404	0.57631
852.42548	0.58247
850.49691	0.58799
848.56835	0.59280
846.63978	0.59693
844.71122	0.60056
842.78266	0.60415
840.85409	0.60770
838.92553	0.61082
836.99696	0.61306
835.06840	0.61439
833.13983	0.61531
831.21127	0.61612
829.28270	0.61657
827.35414	0.61659
825.42558	0.61641
823.49701	0.61615
821.56845	0.61559
819.63988	0.61470
817.71132	0.61420
815.78275	0.61478
813.85419	0.61620
811.92562	0.61838
809.99706	0.62140
808.06850	0.62501
806.13993	0.62926
804.21137	0.63450
802.28280	0.64065
800.35424	0.64753
798.42567	0.65477
796.49711	0.66197
794.56854	0.66878
792.63998	0.67498
790.71142	0.68081
788.78285	0.68651
786.85429	0.69182
784.92572	0.69566
782.99716	0.69707
781.06859	0.69659
779.14003	0.69497
777.21147	0.69200
775.28290	0.68764
773.35434	0.68254
771.42577	0.67747
769.49721	0.67257
767.56864	0.66763
765.64008	0.66272
763.71151	0.65858
761.78295	0.65614
759.85439	0.65533
757.92582	0.65535
755.99726	0.65607
754.06869	0.65817
752.14013	0.66172
750.21156	0.66624
748.28300	0.67150
746.35443	0.67707
744.42587	0.68258
742.49731	0.68844
740.56874	0.69487
738.64018	0.70115
736.71161	0.70649
734.78305	0.71037
732.85448	0.71280
730.92592	0.71419
728.99735	0.71396
727.06879	0.71200
725.14023	0.70941
723.21166	0.70625
721.28310	0.70229
719.35453	0.69776
717.42597	0.69217
715.49740	0.68520
713.56884	0.67811
711.64027	0.67226
709.71171	0.66738
707.78315	0.66296
705.85458	0.65977
703.92602	0.65846
701.99745	0.65811
700.06889	0.65821
698.14032	0.65955
696.21176	0.66285
694.28319	0.66797
692.35463	0.67431
690.42607	0.68209
688.49750	0.69134
686.56894	0.70113
684.64037	0.71112
682.71181	0.72204
680.78324	0.73360
678.85468	0.74405
676.92611	0.75309
674.99755	0.76182
673.06899	0.76929
671.14042	0.77415
669.21186	0.77769
667.28329	0.77974
665.35473	0.77843
663.42616	0.77533
661.49760	0.77119
659.56903	0.76597
657.64047	0.75912
655.71191	0.75055
653.78334	0.74104
651.85478	0.73211
649.92621	0.72496
647.99765	0.71931
646.06908	0.71459
644.14052	0.71129
642.21195	0.71022
640.28339	0.71171
638.35483	0.71540
636.42626	0.71965
634.49770	0.72284
632.56913	0.72491
630.64057	0.72756
628.71200	0.73176
626.78344	0.73652
624.85488	0.74059
622.92631	0.74282
620.99775	0.74260
619.06918	0.74049
617.14062	0.73713
615.21205	0.73298
613.28349	0.72750
611.35492	0.72035
609.42636	0.71229
607.49780	0.70300
605.56923	0.69199
603.64067	0.68065
601.71210	0.67089
599.78354	0.66265
