3997.91406	0.74598
3995.98550	0.74246
3994.05693	0.74087
3992.12837	0.74181
3990.19980	0.74401
3988.27124	0.74422
3986.34268	0.74135
3984.41411	0.73928
3982.48555	0.74019
3980.55698	0.74139
3978.62842	0.74026
3976.69985	0.73771
3974.77129	0.73601
3972.84272	0.73593
3970.91416	0.73617
3968.98560	0.73513
3967.05703	0.73347
3965.12847	0.73259
3963.19990	0.73162
3961.27134	0.72930
3959.34277	0.72801
3957.41421	0.72989
3955.48564	0.73246
3953.55708	0.73262
3951.62852	0.72960
3949.69995	0.72612
3947.77139	0.72483
3945.84282	0.72398
3943.91426	0.72386
3941.98569	0.72495
3940.05713	0.72415
3938.12856	0.72077
3936.20000	0.71555
3934.27144	0.71071
3932.34287	0.71074
3930.41431	0.71445
3928.48574	0.71549
3926.55718	0.71529
3924.62861	0.71705
3922.70005	0.71690
3920.77148	0.71326
3918.84292	0.71017
3916.91436	0.71031
3914.98579	0.71167
3913.05723	0.71159
3911.12866	0.70981
3909.20010	0.70543
3907.27153	0.69896
3905.34297	0.69555
3903.41440	0.69794
3901.48584	0.70106
3899.55728	0.70634
3897.62871	0.71018
3895.70015	0.70574
3893.77158	0.69829
3891.84302	0.69765
3889.91445	0.69939
3887.98589	0.69659
3886.05733	0.69528
3884.12876	0.69491
3882.20020	0.69219
3880.27163	0.69434
3878.34307	0.69541
3876.41450	0.68994
3874.48594	0.68379
3872.55737	0.67976
3870.62881	0.68190
3868.70025	0.68778
3866.77168	0.68606
3864.84312	0.68400
3862.91455	0.68827
3860.98599	0.68895
3859.05742	0.68316
3857.12886	0.67338
3855.20029	0.66462
3853.27173	0.67550
3851.34317	0.68942
3849.41460	0.68802
3847.48604	0.68219
3845.55747	0.67647
3843.62891	0.67145
3841.70034	0.66625
3839.77178	0.66467
3837.84321	0.67197
3835.91465	0.67761
3833.98609	0.67708
3832.05752	0.67629
3830.12896	0.67579
3828.20039	0.67500
3826.27183	0.67468
3824.34326	0.67040
3822.41470	0.66383
3820.48613	0.66431
3818.55757	0.66584
3816.62901	0.66889
3814.70044	0.67365
3812.77188	0.67120
3810.84331	0.66418
3808.91475	0.65822
3806.98618	0.65814
3805.05762	0.65785
3803.12905	0.65467
3801.20049	0.65895
3799.27193	0.66384
3797.34336	0.66483
3795.41480	0.66611
3793.48623	0.66484
3791.55767	0.66169
3789.62910	0.65882
3787.70054	0.65642
3785.77197	0.65670
3783.84341	0.65863
3781.91485	0.65729
3779.98628	0.65598
3778.05772	0.65794
3776.12915	0.65744
3774.20059	0.65252
3772.27202	0.64658
3770.34346	0.64598
3768.41489	0.64993
3766.48633	0.65246
3764.55777	0.65347
3762.62920	0.65042
3760.70064	0.64504
3758.77207	0.64344
3756.84351	0.64263
3754.91494	0.63729
3752.98638	0.63036
3751.05781	0.63275
3749.12925	0.63837
3747.20069	0.63380
3745.27212	0.63250
3743.34356	0.63910
3741.41499	0.63762
3739.48643	0.62896
3737.55786	0.62208
3735.62930	0.62699
3733.70074	0.63941
3731.77217	0.64280
3729.84361	0.63753
3727.91504	0.63114
3725.98648	0.62989
3724.05791	0.63220
3722.12935	0.63391
3720.20078	0.63540
3718.27222	0.63482
3716.34366	0.63045
3714.41509	0.62428
3712.48653	0.62411
3710.55796	0.63437
3708.62940	0.63936
3706.70083	0.63712
3704.77227	0.63341
3702.84370	0.63285
3700.91514	0.63548
3698.98658	0.63569
3697.05801	0.63473
3695.12945	0.63388
3693.20088	0.63057
3691.27232	0.62688
3689.34375	0.63351
3687.41519	0.64396
3685.48662	0.64533
3683.55806	0.64149
3681.62950	0.63735
3679.70093	0.63361
3677.77237	0.63034
3675.84380	0.63824
3673.91524	0.64813
3671.98667	0.64659
3670.05811	0.65243
3668.12954	0.66278
3666.20098	0.66389
3664.27242	0.66275
3662.34385	0.66374
3660.41529	0.66483
3658.48672	0.66460
3656.55816	0.66773
3654.62959	0.67022
3652.70103	0.66564
3650.77246	0.66584
3648.84390	0.68863
3646.91534	0.70367
3644.98677	0.70447
3643.05821	0.70548
3641.12964	0.70939
3639.20108	0.71402
3637.27251	0.71783
3635.34395	0.72143
3633.41538	0.72362
3631.48682	0.72207
3629.55826	0.72892
3627.62969	0.75001
3625.70113	0.75769
3623.77256	0.75472
3621.84400	0.75118
3619.91543	0.75727
3617.98687	0.77168
3616.05830	0.77897
3614.12974	0.78340
3612.20118	0.78921
3610.27261	0.79375
3608.34405	0.79951
3606.41548	0.80348
3604.48692	0.80275
3602.55835	0.80390
3600.62979	0.81061
3598.70123	0.81712
3596.77266	0.82080
3594.84410	0.82670
3592.91553	0.83312
3590.98697	0.83450
3589.05840	0.83788
3587.12984	0.85353
3585.20127	0.86611
3583.27271	0.86810
3581.34415	0.86997
3579.41558	0.87610
3577.48702	0.88296
3575.55845	0.88819
3573.62989	0.89249
3571.70132	0.89460
3569.77276	0.89445
3567.84419	0.90036
3565.91563	0.91547
3563.98707	0.92494
3562.05850	0.92991
3560.12994	0.93527
3558.20137	0.94015
3556.27281	0.94412
3554.34424	0.95007
3552.41568	0.95920
3550.48711	0.96502
3548.55855	0.96721
3546.62999	0.97239
3544.70142	0.97979
3542.77286	0.98518
3540.84429	0.98830
3538.91573	0.99059
3536.98716	0.99609
3535.05860	1.00606
3533.13003	1.01563
3531.20147	1.02267
3529.27291	1.02903
3527.34434	1.03461
3525.41578	1.03869
3523.48721	1.04367
3521.55865	1.05019
3519.63008	1.05609
3517.70152	1.06221
3515.77295	1.06951
3513.84439	1.07636
3511.91583	1.08363
3509.98726	1.09300
3508.05870	1.10188
3506.13013	1.10889
3504.20157	1.11807
3502.27300	1.12994
3500.34444	1.13874
3498.41587	1.14515
3496.48731	1.15447
3494.55875	1.16734
3492.63018	1.17849
3490.70162	1.18403
3488.77305	1.18741
3486.84449	1.19393
3484.91592	1.20268
3482.98736	1.21088
3481.05879	1.21793
3479.13023	1.22118
3477.20167	1.21981
3475.27310	1.21991
3473.34454	1.22614
3471.41597	1.23531
3469.48741	1.24307
3467.55884	1.24758
3465.63028	1.24998
3463.70171	1.25387
3461.77315	1.25934
3459.84459	1.26362
3457.91602	1.26735
3455.98746	1.27236
3454.05889	1.27839
3452.13033	1.28452
3450.20176	1.28892
3448.27320	1.29189
3446.34464	1.29713
3444.41607	1.30478
3442.48751	1.31000
3440.55894	1.31017
3438.63038	1.30955
3436.70181	1.31097
3434.77325	1.31125
3432.84468	1.31069
3430.91612	1.31141
3428.98756	1.31271
3427.05899	1.31469
3425.13043	1.31519
3423.20186	1.31373
3421.27330	1.31593
3419.34473	1.31955
3417.41617	1.31834
3415.48760	1.31766
3413.55904	1.32108
3411.63048	1.32317
3409.70191	1.32296
3407.77335	1.32290
3405.84478	1.32215
3403.91622	1.32238
3401.98765	1.32471
3400.05909	1.32640
3398.13052	1.32918
3396.20196	1.33327
3394.27340	1.33443
3392.34483	1.33447
3390.41627	1.33405
3388.48770	1.33005
3386.55914	1.32627
3384.63057	1.32842
3382.70201	1.33457
3380.77344	1.33926
3378.84488	1.34256
3376.91632	1.34744
3374.98775	1.35304
3373.05919	1.35690
3371.13062	1.35826
3369.20206	1.35928
3367.27349	1.36248
3365.34493	1.36608
3363.41636	1.36777
3361.48780	1.37020
3359.55924	1.37661
3357.63067	1.38384
3355.70211	1.38776
3353.77354	1.39150
3351.84498	1.39679
3349.91641	1.40082
3347.98785	1.40428
3346.05928	1.40653
3344.13072	1.40544
3342.20216	1.40556
3340.27359	1.41222
3338.34503	1.42444
3336.41646	1.43661
3334.48790	1.44341
3332.55933	1.44258
3330.63077	1.43686
3328.70220	1.43746
3326.77364	1.45095
3324.84508	1.46637
3322.91651	1.47227
3320.98795	1.47514
3319.05938	1.48427
3317.13082	1.49277
3315.20225	1.49444
3313.27369	1.49800
3311.34513	1.50625
3309.41656	1.51458
3307.48800	1.52358
3305.55943	1.53449
3303.63087	1.54762
3301.70230	1.56123
3299.77374	1.56881
3297.84517	1.56916
3295.91661	1.56976
3293.98805	1.57132
3292.05948	1.56856
3290.13092	1.56612
3288.20235	1.57104
3286.27379	1.57906
3284.34522	1.58314
3282.41666	1.58569
3280.48809	1.58874
3278.55953	1.58618
3276.63097	1.57927
3274.70240	1.57518
3272.77384	1.57288
3270.84527	1.57182
3268.91671	1.56916
3266.98814	1.55801
3265.05958	1.54577
3263.13101	1.53871
3261.20245	1.53057
3259.27389	1.52105
3257.34532	1.51209
3255.41676	1.50033
3253.48819	1.48429
3251.55963	1.46770
3249.63106	1.45592
3247.70250	1.44953
3245.77393	1.44315
3243.84537	1.43257
3241.91681	1.41976
3239.98824	1.40607
3238.05968	1.38945
3236.13111	1.37338
3234.20255	1.36418
3232.27398	1.35887
3230.34542	1.35268
3228.41685	1.34942
3226.48829	1.34979
3224.55973	1.34824
3222.63116	1.34230
3220.70260	1.33424
3218.77403	1.32826
3216.84547	1.32377
3214.91690	1.31875
3212.98834	1.31479
3211.05977	1.31027
3209.13121	1.30361
3207.20265	1.29807
3205.27408	1.29483
3203.34552	1.29008
3201.41695	1.28128
3199.48839	1.27182
3197.55982	1.26524
3195.63126	1.26012
3193.70269	1.25352
3191.77413	1.24499
3189.84557	1.23704
3187.91700	1.23276
3185.98844	1.23140
3184.05987	1.22824
3182.13131	1.22141
3180.20274	1.21386
3178.27418	1.20716
3176.34562	1.20165
3174.41705	1.19844
3172.48849	1.19479
3170.55992	1.18814
3168.63136	1.18188
3166.70279	1.17804
3164.77423	1.17510
3162.84566	1.17215
3160.91710	1.16884
3158.98854	1.16504
3157.05997	1.15979
3155.13141	1.15358
3153.20284	1.14916
3151.27428	1.14627
3149.34571	1.14305
3147.41715	1.13986
3145.48858	1.13690
3143.56002	1.13397
3141.63146	1.13093
3139.70289	1.12796
3137.77433	1.12605
3135.84576	1.12510
3133.91720	1.12425
3131.98863	1.12252
3130.06007	1.11944
3128.13150	1.11675
3126.20294	1.11566
3124.27438	1.11584
3122.34581	1.11691
3120.41725	1.11679
3118.48868	1.11428
3116.56012	1.11201
3114.63155	1.11157
3112.70299	1.11186
3110.77442	1.11253
3108.84586	1.11350
3106.91730	1.11388
3104.98873	1.11336
3103.06017	1.11244
3101.13160	1.11164
3099.20304	1.11056
3097.27447	1.10915
3095.34591	1.10828
3093.41734	1.10790
3091.48878	1.10708
3089.56022	1.10548
3087.63165	1.10343
3085.70309	1.10135
3083.77452	1.09952
3081.84596	1.09761
3079.91739	1.09468
3077.98883	1.09069
3076.06026	1.08678
3074.13170	1.08415
3072.20314	1.08204
3070.27457	1.07836
3068.34601	1.07433
3066.41744	1.07321
3064.48888	1.07395
3062.56031	1.07236
3060.63175	1.06792
3058.70318	1.06342
3056.77462	1.05966
3054.84606	1.05609
3052.91749	1.05265
3050.98893	1.04941
3049.06036	1.04625
3047.13180	1.04173
3045.20323	1.03594
3043.27467	1.03083
3041.34610	1.02575
3039.41754	1.02012
3037.48898	1.01600
3035.56041	1.01355
3033.63185	1.01084
3031.70328	1.00774
3029.77472	1.00482
3027.84615	1.00149
3025.91759	0.99820
3023.98903	0.99568
3022.06046	0.99254
3020.13190	0.98803
3018.20333	0.98404
3016.27477	0.98175
3014.34620	0.98008
3012.41764	0.97771
3010.48907	0.97451
3008.56051	0.97172
3006.63195	0.97006
3004.70338	0.96786
3002.77482	0.96455
3000.84625	0.96234
2998.91769	0.96215
2996.98912	0.96309
2995.06056	0.96522
2993.13199	0.96875
2991.20343	0.97248
2989.27487	0.97622
2987.34630	0.98163
2985.41774	0.98812
2983.48917	0.99357
2981.56061	0.99905
2979.63204	1.00629
2977.70348	1.01387
2975.77491	1.02110
2973.84635	1.02985
2971.91779	1.03983
2969.98922	1.04871
2968.06066	1.05630
2966.13209	1.06381
2964.20353	1.07078
2962.27496	1.07508
2960.34640	1.07616
2958.41783	1.07498
2956.48927	1.07098
2954.56071	1.06372
2952.63214	1.05521
2950.70358	1.04848
2948.77501	1.04541
2946.84645	1.04507
2944.91788	1.04624
2942.98932	1.05053
2941.06075	1.05934
2939.13219	1.07126
2937.20363	1.08344
2935.27506	1.09481
2933.34650	1.10594
2931.41793	1.11690
2929.48937	1.12859
2927.56080	1.14085
2925.63224	1.15070
2923.70367	1.15727
2921.77511	1.16258
2919.84655	1.16571
2917.91798	1.16117
2915.98942	1.14524
2914.06085	1.12030
2912.13229	1.09202
2910.20372	1.06666
2908.27516	1.04796
2906.34659	1.03454
2904.41803	1.02348
2902.48947	1.01475
2900.56090	1.00845
2898.63234	1.00260
2896.70377	0.99685
2894.77521	0.99243
2892.84664	0.98839
2890.91808	0.98295
2888.98952	0.97650
2887.06095	0.97042
2885.13239	0.96586
2883.20382	0.96354
2881.27526	0.96285
2879.34669	0.96266
2877.41813	0.96264
2875.48956	0.96238
2873.56100	0.96059
2871.63244	0.95642
2869.70387	0.95029
2867.77531	0.94334
2865.84674	0.93722
2863.91818	0.93335
2861.98961	0.93235
2860.06105	0.93462
2858.13248	0.94000
2856.20392	0.94787
2854.27536	0.95842
2852.34679	0.97050
2850.41823	0.97612
2848.48966	0.96467
2846.56110	0.93652
2844.63253	0.90433
2842.70397	0.87885
2840.77540	0.86145
2838.84684	0.84908
2836.91828	0.83987
2834.98971	0.83276
2833.06115	0.82698
2831.13258	0.82251
2829.20402	0.81890
2827.27545	0.81531
2825.34689	0.81166
2823.41832	0.80788
2821.48976	0.80399
2819.56120	0.80039
2817.63263	0.79675
2815.70407	0.79302
2813.77550	0.78970
2811.84694	0.78630
2809.91837	0.78242
2807.98981	0.77919
2806.06124	0.77704
2804.13268	0.77454
2802.20412	0.77100
2800.27555	0.76744
2798.34699	0.76453
2796.41842	0.76196
2794.48986	0.75925
2792.56129	0.75614
2790.63273	0.75267
2788.70416	0.74943
2786.77560	0.74673
2784.84704	0.74445
2782.91847	0.74248
2780.98991	0.74011
2779.06134	0.73680
2777.13278	0.73348
2775.20421	0.73097
2773.27565	0.72896
2771.34708	0.72700
2769.41852	0.72450
2767.48996	0.72141
2765.56139	0.71848
2763.63283	0.71623
2761.70426	0.71459
2759.77570	0.71288
2757.84713	0.71056
2755.91857	0.70823
2753.99001	0.70646
2752.06144	0.70492
2750.13288	0.70297
2748.20431	0.70035
2746.27575	0.69753
2744.34718	0.69551
2742.41862	0.69440
2740.49005	0.69303
2738.56149	0.69082
2736.63293	0.68845
2734.70436	0.68610
2732.77580	0.68348
2730.84723	0.68135
2728.91867	0.68011
2726.99010	0.67861
2725.06154	0.67622
2723.13297	0.67394
2721.20441	0.67235
2719.27585	0.67099
2717.34728	0.66957
2715.41872	0.66848
2713.49015	0.66772
2711.56159	0.66652
2709.63302	0.66425
2707.70446	0.66141
2705.77589	0.65931
2703.84733	0.65801
2701.91877	0.65641
2699.99020	0.65438
2698.06164	0.65252
2696.13307	0.65092
2694.20451	0.64968
2692.27594	0.64880
2690.34738	0.64777
2688.41881	0.64666
2686.49025	0.64584
2684.56169	0.64457
2682.63312	0.64259
2680.70456	0.64116
2678.77599	0.64066
2676.84743	0.64010
2674.91886	0.63896
2672.99030	0.63740
2671.06173	0.63564
2669.13317	0.63410
2667.20461	0.63293
2665.27604	0.63153
2663.34748	0.62948
2661.41891	0.62731
2659.49035	0.62573
2657.56178	0.62456
2655.63322	0.62337
2653.70465	0.62224
2651.77609	0.62103
2649.84753	0.61944
2647.91896	0.61791
2645.99040	0.61690
2644.06183	0.61617
2642.13327	0.61552
2640.20470	0.61461
2638.27614	0.61313
2636.34757	0.61143
2634.41901	0.60991
2632.49045	0.60863
2630.56188	0.60739
2628.63332	0.60583
2626.70475	0.60409
2624.77619	0.60243
2622.84762	0.60072
2620.91906	0.59887
2618.99049	0.59712
2617.06193	0.59553
2615.13337	0.59401
2613.20480	0.59259
2611.27624	0.59124
2609.34767	0.59003
2607.41911	0.58919
2605.49054	0.58842
2603.56198	0.58751
2601.63342	0.58685
2599.70485	0.58649
2597.77629	0.58575
2595.84772	0.58444
2593.91916	0.58285
2591.99059	0.58161
2590.06203	0.58128
2588.13346	0.58107
2586.20490	0.58008
2584.27634	0.57888
2582.34777	0.57791
2580.41921	0.57680
2578.49064	0.57551
2576.56208	0.57422
2574.63351	0.57303
2572.70495	0.57217
2570.77638	0.57163
2568.84782	0.57101
2566.91926	0.56990
2564.99069	0.56839
2563.06213	0.56691
2561.13356	0.56547
2559.20500	0.56384
2557.27643	0.56223
2555.34787	0.56094
2553.41930	0.55968
2551.49074	0.55805
2549.56218	0.55627
2547.63361	0.55463
2545.70505	0.55302
2543.77648	0.55147
2541.84792	0.55013
2539.91935	0.54883
2537.99079	0.54754
2536.06222	0.54637
2534.13366	0.54521
2532.20510	0.54410
2530.27653	0.54344
2528.34797	0.54320
2526.41940	0.54276
2524.49084	0.54188
2522.56227	0.54094
2520.63371	0.54029
2518.70514	0.53989
2516.77658	0.53930
2514.84802	0.53833
2512.91945	0.53710
2510.99089	0.53570
2509.06232	0.53428
2507.13376	0.53308
2505.20519	0.53212
2503.27663	0.53114
2501.34806	0.52997
2499.41950	0.52853
2497.49094	0.52676
2495.56237	0.52497
2493.63381	0.52370
2491.70524	0.52267
2489.77668	0.52126
2487.84811	0.51972
2485.91955	0.51824
2483.99098	0.51670
2482.06242	0.51528
2480.13386	0.51409
2478.20529	0.51290
2476.27673	0.51163
2474.34816	0.51046
2472.41960	0.50941
2470.49103	0.50842
2468.56247	0.50756
2466.63391	0.50683
2464.70534	0.50620
2462.77678	0.50553
2460.84821	0.50465
2458.91965	0.50382
2456.99108	0.50320
2455.06252	0.50237
2453.13395	0.50121
2451.20539	0.50014
2449.27683	0.49928
2447.34826	0.49830
2445.41970	0.49724
2443.49113	0.49641
2441.56257	0.49559
2439.63400	0.49436
2437.70544	0.49290
2435.77687	0.49155
2433.84831	0.49034
2431.91975	0.48921
2429.99118	0.48816
2428.06262	0.48723
2426.13405	0.48613
2424.20549	0.48455
2422.27692	0.48273
2420.34836	0.48118
2418.41979	0.48003
2416.49123	0.47901
2414.56267	0.47784
2412.63410	0.47659
2410.70554	0.47543
2408.77697	0.47431
2406.84841	0.47314
2404.91984	0.47183
2402.99128	0.47062
2401.06271	0.46978
2399.13415	0.46907
2397.20559	0.46830
2395.27702	0.46758
2393.34846	0.46692
2391.41989	0.46632
2389.49133	0.46590
2387.56276	0.46550
2385.63420	0.46501
2383.70563	0.46466
2381.77707	0.46454
2379.84851	0.46451
2377.91994	0.46476
2375.99138	0.46531
2374.06281	0.46579
2372.13425	0.46650
2370.20568	0.46769
2368.27712	0.46832
2366.34855	0.46824
2364.41999	0.46826
2362.49143	0.46801
2360.56286	0.46759
2358.63430	0.46813
2356.70573	0.46892
2354.77717	0.46790
2352.84860	0.46542
2350.92004	0.46208
2348.99147	0.45847
2347.06291	0.45659
2345.13435	0.45821
2343.20578	0.46096
2341.27722	0.46118
2339.34865	0.45921
2337.42009	0.45644
2335.49152	0.45474
2333.56296	0.45504
2331.63440	0.45574
2329.70583	0.45507
2327.77727	0.45320
2325.84870	0.45093
2323.92014	0.44900
2321.99157	0.44763
2320.06301	0.44643
2318.13444	0.44514
2316.20588	0.44379
2314.27732	0.44260
2312.34875	0.44155
2310.42019	0.44053
2308.49162	0.43975
2306.56306	0.43914
2304.63449	0.43826
2302.70593	0.43715
2300.77736	0.43603
2298.84880	0.43497
2296.92024	0.43416
2294.99167	0.43333
2293.06311	0.43230
2291.13454	0.43130
2289.20598	0.43037
2287.27741	0.42934
2285.34885	0.42818
2283.42028	0.42706
2281.49172	0.42612
2279.56316	0.42531
2277.63459	0.42455
2275.70603	0.42384
2273.77746	0.42311
2271.84890	0.42226
2269.92033	0.42138
2267.99177	0.42056
2266.06320	0.41985
2264.13464	0.41930
2262.20608	0.41875
2260.27751	0.41819
2258.34895	0.41790
2256.42038	0.41780
2254.49182	0.41747
2252.56325	0.41696
2250.63469	0.41660
2248.70612	0.41644
2246.77756	0.41613
2244.84900	0.41561
2242.92043	0.41531
2240.99187	0.41537
2239.06330	0.41547
2237.13474	0.41550
2235.20617	0.41544
2233.27761	0.41523
2231.34904	0.41495
2229.42048	0.41469
2227.49192	0.41442
2225.56335	0.41408
2223.63479	0.41347
2221.70622	0.41250
2219.77766	0.41136
2217.84909	0.41021
2215.92053	0.40912
2213.99196	0.40812
2212.06340	0.40713
2210.13484	0.40595
2208.20627	0.40479
2206.27771	0.40409
2204.34914	0.40359
2202.42058	0.40287
2200.49201	0.40218
2198.56345	0.40173
2196.63488	0.40142
2194.70632	0.40116
2192.77776	0.40093
2190.84919	0.40071
2188.92063	0.40056
2186.99206	0.40050
2185.06350	0.40061
2183.13493	0.40083
2181.20637	0.40091
2179.27781	0.40088
2177.34924	0.40083
2175.42068	0.40068
2173.49211	0.40054
2171.56355	0.40057
2169.63498	0.40061
2167.70642	0.40062
2165.77785	0.40069
2163.84929	0.40076
2161.92073	0.40064
2159.99216	0.40043
2158.06360	0.40030
2156.13503	0.40015
2154.20647	0.39985
2152.27790	0.39932
2150.34934	0.39849
2148.42077	0.39754
2146.49221	0.39669
2144.56365	0.39586
2142.63508	0.39493
2140.70652	0.39398
2138.77795	0.39308
2136.84939	0.39221
2134.92082	0.39133
2132.99226	0.39053
2131.06369	0.38983
2129.13513	0.38921
2127.20657	0.38875
2125.27800	0.38854
2123.34944	0.38852
2121.42087	0.38850
2119.49231	0.38843
2117.56374	0.38837
2115.63518	0.38844
2113.70661	0.38853
2111.77805	0.38844
2109.84949	0.38815
2107.92092	0.38775
2105.99236	0.38734
2104.06379	0.38703
2102.13523	0.38673
2100.20666	0.38622
2098.27810	0.38566
2096.34953	0.38518
2094.42097	0.38463
2092.49241	0.38411
2090.56384	0.38369
2088.63528	0.38318
2086.70671	0.38258
2084.77815	0.38202
2082.84958	0.38140
2080.92102	0.38070
2078.99245	0.38005
2077.06389	0.37958
2075.13533	0.37918
2073.20676	0.37865
2071.27820	0.37795
2069.34963	0.37715
2067.42107	0.37637
2065.49250	0.37575
2063.56394	0.37510
2061.63537	0.37426
2059.70681	0.37342
2057.77825	0.37267
2055.84968	0.37190
2053.92112	0.37117
2051.99255	0.37063
2050.06399	0.37016
2048.13542	0.36962
2046.20686	0.36915
2044.27830	0.36874
2042.34973	0.36833
2040.42117	0.36792
2038.49260	0.36739
2036.56404	0.36673
2034.63547	0.36608
2032.70691	0.36542
2030.77834	0.36466
2028.84978	0.36372
2026.92122	0.36268
2024.99265	0.36159
2023.06409	0.36048
2021.13552	0.35937
2019.20696	0.35843
2017.27839	0.35774
2015.34983	0.35696
2013.42126	0.35602
2011.49270	0.35524
2009.56414	0.35470
2007.63557	0.35422
2005.70701	0.35365
2003.77844	0.35299
2001.84988	0.35243
1999.92131	0.35214
1997.99275	0.35185
1996.06418	0.35106
1994.13562	0.35013
1992.20706	0.34988
1990.27849	0.34981
1988.34993	0.34914
1986.42136	0.34823
1984.49280	0.34752
1982.56423	0.34703
1980.63567	0.34663
1978.70710	0.34621
1976.77854	0.34587
1974.84998	0.34559
1972.92141	0.34526
1970.99285	0.34482
1969.06428	0.34461
1967.13572	0.34487
1965.20715	0.34476
1963.27859	0.34400
1961.35002	0.34345
1959.42146	0.34325
1957.49290	0.34284
1955.56433	0.34221
1953.63577	0.34172
1951.70720	0.34130
1949.77864	0.34067
1947.85007	0.33980
1945.92151	0.33888
1943.99294	0.33840
1942.06438	0.33844
1940.13582	0.33790
1938.20725	0.33665
1936.27869	0.33545
1934.35012	0.33438
1932.42156	0.33328
1930.49299	0.33218
1928.56443	0.33104
1926.63586	0.32964
1924.70730	0.32848
1922.77874	0.32807
1920.85017	0.32735
1918.92161	0.32631
1916.99304	0.32569
1915.06448	0.32463
1913.13591	0.32304
1911.20735	0.32194
1909.27878	0.32156
1907.35022	0.32102
1905.42166	0.32006
1903.49309	0.31928
1901.56453	0.31877
1899.63596	0.31834
1897.70740	0.31808
1895.77883	0.31824
1893.85027	0.31827
1891.92171	0.31783
1889.99314	0.31806
1888.06458	0.31864
1886.13601	0.31835
1884.20745	0.31780
1882.27888	0.31752
1880.35032	0.31737
1878.42175	0.31720
1876.49319	0.31682
1874.56463	0.31607
1872.63606	0.31488
1870.70750	0.31415
1868.77893	0.31546
1866.85037	0.31686
1864.92180	0.31608
1862.99324	0.31485
1861.06467	0.31429
1859.13611	0.31410
1857.20755	0.31384
1855.27898	0.31343
1853.35042	0.31282
1851.42185	0.31194
1849.49329	0.31103
1847.56472	0.31019
1845.63616	0.31012
1843.70759	0.31123
1841.77903	0.31093
1839.85047	0.30917
1837.92190	0.30800
1835.99334	0.30746
1834.06477	0.30625
1832.13621	0.30495
1830.20764	0.30543
1828.27908	0.30633
1826.35051	0.30617
1824.42195	0.30634
1822.49339	0.30615
1820.56482	0.30518
1818.63626	0.30473
1816.70769	0.30475
1814.77913	0.30430
1812.85056	0.30380
1810.92200	0.30421
1808.99343	0.30466
1807.06487	0.30406
1805.13631	0.30292
1803.20774	0.30209
1801.27918	0.30234
1799.35061	0.30284
1797.42205	0.30210
1795.49348	0.30063
1793.56492	0.30042
1791.63635	0.30245
1789.70779	0.30295
1787.77923	0.30168
1785.85066	0.30115
1783.92210	0.30151
1781.99353	0.30200
1780.06497	0.30297
1778.13640	0.30364
1776.20784	0.30320
1774.27927	0.30329
1772.35071	0.30636
1770.42215	0.30982
1768.49358	0.31109
1766.56502	0.31144
1764.63645	0.31150
1762.70789	0.31322
1760.77932	0.31669
1758.85076	0.31924
1756.92220	0.32248
1754.99363	0.32595
1753.06507	0.32865
1751.13650	0.33447
1749.20794	0.34462
1747.27937	0.35314
1745.35081	0.35916
1743.42224	0.36484
1741.49368	0.37102
1739.56512	0.37720
1737.63655	0.38037
1735.70799	0.38225
1733.77942	0.38948
1731.85086	0.39658
1729.92229	0.39983
1727.99373	0.40309
1726.06516	0.40676
1724.13660	0.41212
1722.20804	0.41764
1720.27947	0.42186
1718.35091	0.43090
1716.42234	0.45054
1714.49378	0.46614
1712.56521	0.47606
1710.63665	0.48674
1708.70808	0.50017
1706.77952	0.52159
1704.85096	0.55080
1702.92239	0.57643
1700.99383	0.61300
1699.06526	0.67396
1697.13670	0.73233
1695.20813	0.78941
1693.27957	0.83112
1691.35100	0.86399
1689.42244	0.90576
1687.49388	0.94537
1685.56531	0.98598
1683.63675	1.05428
1681.70818	1.10685
1679.77962	1.13785
1677.85105	1.16870
1675.92249	1.20771
1673.99392	1.24959
1672.06536	1.28076
1670.13680	1.31720
1668.20823	1.36136
1666.27967	1.38674
1664.35110	1.40737
1662.42254	1.43694
1660.49397	1.46082
1658.56541	1.47249
1656.63684	1.47816
1654.70828	1.48498
1652.77972	1.49893
1650.85115	1.50500
1648.92259	1.50397
1646.99402	1.50233
1645.06546	1.50274
1643.13689	1.50130
1641.20833	1.49927
1639.27976	1.49590
1637.35120	1.49088
1635.42264	1.48388
1633.49407	1.47632
1631.56551	1.46924
1629.63694	1.45836
1627.70838	1.44241
1625.77981	1.42320
1623.85125	1.39924
1621.92269	1.37206
1619.99412	1.34900
1618.06556	1.32079
1616.13699	1.27689
1614.20843	1.23901
1612.27986	1.20887
1610.35130	1.17791
1608.42273	1.14771
1606.49417	1.12270
1604.56561	1.10274
1602.63704	1.08581
1600.70848	1.07288
1598.77991	1.06437
1596.85135	1.05917
1594.92278	1.05585
1592.99422	1.05334
1591.06565	1.05255
1589.13709	1.05497
1587.20853	1.06062
1585.27996	1.06859
1583.35140	1.07873
1581.42283	1.08968
1579.49427	1.10010
1577.56570	1.11563
1575.63714	1.14131
1573.70857	1.15868
1571.78001	1.16921
1569.85145	1.18744
1567.92288	1.20832
1565.99432	1.22244
1564.06575	1.23497
1562.13719	1.24446
1560.20862	1.25820
1558.28006	1.29612
1556.35149	1.31589
1554.42293	1.32314
1552.49437	1.33128
1550.56580	1.33908
1548.63724	1.34331
1546.70867	1.34273
1544.78011	1.33952
1542.85154	1.33654
1540.92298	1.33794
1538.99441	1.33551
1537.06585	1.32685
1535.13729	1.31663
1533.20872	1.30638
1531.28016	1.29738
1529.35159	1.28865
1527.42303	1.27913
1525.49446	1.26981
1523.56590	1.26293
1521.63733	1.25723
1519.70877	1.25118
1517.78021	1.24111
1515.85164	1.22596
1513.92308	1.20797
1511.99451	1.18700
1510.06595	1.16452
1508.13738	1.13331
1506.20882	1.08785
1504.28025	1.06241
1502.35169	1.04432
1500.42313	1.02404
1498.49456	1.00005
1496.56600	0.97242
1494.63743	0.94857
1492.70887	0.93005
1490.78030	0.90971
1488.85174	0.88552
1486.92317	0.86672
1484.99461	0.85340
1483.06605	0.84263
1481.13748	0.83413
1479.20892	0.82915
1477.28035	0.82900
1475.35179	0.83545
1473.42322	0.85214
1471.49466	0.87144
1469.56610	0.88068
1467.63753	0.88624
1465.70897	0.89526
1463.78040	0.90585
1461.85184	0.91047
1459.92327	0.91211
1457.99471	0.92130
1456.06614	0.93695
1454.13758	0.93990
1452.20902	0.93764
1450.28045	0.93542
1448.35189	0.93355
1446.42332	0.93061
1444.49476	0.92615
1442.56619	0.92064
1440.63763	0.91421
1438.70906	0.90653
1436.78050	0.89632
1434.85194	0.88489
1432.92337	0.87461
1430.99481	0.86505
1429.06624	0.85700
1427.13768	0.85187
1425.20911	0.84990
1423.28055	0.85018
1421.35198	0.85152
1419.42342	0.85674
1417.49486	0.86467
1415.56629	0.86806
1413.63773	0.86893
1411.70916	0.87006
1409.78060	0.87164
1407.85203	0.87327
1405.92347	0.87618
1403.99490	0.88045
1402.06634	0.88328
1400.13778	0.88493
1398.20921	0.88710
1396.28065	0.89011
1394.35208	0.89335
1392.42352	0.89508
1390.49495	0.89607
1388.56639	0.90014
1386.63782	0.90906
1384.70926	0.91815
1382.78070	0.92538
1380.85213	0.93102
1378.92357	0.93277
1376.99500	0.92869
1375.06644	0.91829
1373.13787	0.90321
1371.20931	0.88724
1369.28074	0.86962
1367.35218	0.85007
1365.42362	0.83156
1363.49505	0.81437
1361.56649	0.79950
1359.63792	0.78898
1357.70936	0.78177
1355.78079	0.77710
1353.85223	0.77443
1351.92366	0.77261
1349.99510	0.77120
1348.06654	0.77036
1346.13797	0.76974
1344.20941	0.76906
1342.28084	0.76872
1340.35228	0.76996
1338.42371	0.77313
1336.49515	0.77698
1334.56659	0.78187
1332.63802	0.78870
1330.70946	0.79689
1328.78089	0.80478
1326.85233	0.81111
1324.92376	0.81578
1322.99520	0.81950
1321.06663	0.82335
1319.13807	0.82815
1317.20951	0.83298
1315.28094	0.83671
1313.35238	0.83971
1311.42381	0.84179
1309.49525	0.84261
1307.56668	0.84266
1305.63812	0.84242
1303.70955	0.84177
1301.78099	0.84007
1299.85243	0.83695
1297.92386	0.83241
1295.99530	0.82701
1294.06673	0.82173
1292.13817	0.81731
1290.20960	0.81418
1288.28104	0.81223
1286.35247	0.81088
1284.42391	0.80954
1282.49535	0.80817
1280.56678	0.80732
1278.63822	0.80729
1276.70965	0.80791
1274.78109	0.80928
1272.85252	0.81180
1270.92396	0.81546
1268.99539	0.81987
1267.06683	0.82439
1265.13827	0.82824
1263.20970	0.83080
1261.28114	0.83174
1259.35257	0.83154
1257.42401	0.83129
1255.49544	0.83163
1253.56688	0.83242
1251.63831	0.83345
1249.70975	0.83479
1247.78119	0.83630
1245.85262	0.83763
1243.92406	0.83829
1241.99549	0.83838
1240.06693	0.83844
1238.13836	0.83795
1236.20980	0.83597
1234.28123	0.83246
1232.35267	0.82795
1230.42411	0.82259
1228.49554	0.81605
1226.56698	0.80823
1224.63841	0.79962
1222.70985	0.79087
1220.78128	0.78228
1218.85272	0.77431
1216.92415	0.76748
1214.99559	0.76229
1213.06703	0.75941
1211.13846	0.75915
1209.20990	0.76043
1207.28133	0.76098
1205.35277	0.75903
1203.42420	0.75433
1201.49564	0.74776
1199.56708	0.74041
1197.63851	0.73306
1195.70995	0.72609
1193.78138	0.71976
1191.85282	0.71468
1189.92425	0.71135
1187.99569	0.70945
1186.06712	0.70839
1184.13856	0.70817
1182.21000	0.70903
1180.28143	0.71147
1178.35287	0.71616
1176.42430	0.72321
1174.49574	0.73207
1172.56717	0.74189
1170.63861	0.75215
1168.71004	0.76322
1166.78148	0.77586
1164.85292	0.78975
1162.92435	0.80242
1160.99579	0.81080
1159.06722	0.81317
1157.13866	0.80903
1155.21009	0.79922
1153.28153	0.78536
1151.35296	0.76926
1149.42440	0.75299
1147.49584	0.73794
1145.56727	0.72474
1143.63871	0.71433
1141.71014	0.70772
1139.78158	0.70475
1137.85301	0.70463
1135.92445	0.70711
1133.99588	0.71243
1132.06732	0.72070
1130.13876	0.73200
1128.21019	0.74624
1126.28163	0.76230
1124.35306	0.77814
1122.42450	0.79266
1120.49593	0.80561
1118.56737	0.81600
1116.63880	0.82286
1114.71024	0.82596
1112.78168	0.82550
1110.85311	0.82269
1108.92455	0.81908
1106.99598	0.81548
1105.06742	0.81197
1103.13885	0.80906
1101.21029	0.80806
1099.28172	0.80996
1097.35316	0.81468
1095.42460	0.82148
1093.49603	0.83040
1091.56747	0.84251
1089.63890	0.85838
1087.71034	0.87733
1085.78177	0.89811
1083.85321	0.91960
1081.92464	0.94002
1079.99608	0.95659
1078.06752	0.96727
1076.13895	0.97174
1074.21039	0.97012
1072.28182	0.96237
1070.35326	0.94972
1068.42469	0.93452
1066.49613	0.91909
1064.56756	0.90467
1062.63900	0.89090
1060.71044	0.87702
1058.78187	0.86240
1056.85331	0.84776
1054.92474	0.83493
1052.99618	0.82437
1051.06761	0.81556
1049.13905	0.80891
1047.21049	0.80562
1045.28192	0.80605
1043.35336	0.80931
1041.42479	0.81412
1039.49623	0.81904
1037.56766	0.82267
1035.63910	0.82425
1033.71053	0.82416
1031.78197	0.82263
1029.85341	0.81860
1027.92484	0.81111
1025.99628	0.80052
1024.06771	0.78857
1022.13915	0.77725
1020.21058	0.76710
1018.28202	0.75755
1016.35345	0.74785
1014.42489	0.73703
1012.49633	0.72421
1010.56776	0.70935
1008.63920	0.69285
1006.71063	0.67562
1004.78207	0.65901
1002.85350	0.64418
1000.92494	0.63163
998.99637	0.62121
997.06781	0.61262
995.13925	0.60541
993.21068	0.59870
991.28212	0.59163
989.35355	0.58425
987.42499	0.57702
985.49642	0.57044
983.56786	0.56499
981.63929	0.56071
979.71073	0.55748
977.78217	0.55487
975.85360	0.55188
973.92504	0.54742
971.99647	0.54109
970.06791	0.53337
968.13934	0.52524
966.21078	0.51793
964.28221	0.51268
962.35365	0.51057
960.42509	0.51248
958.49652	0.51841
956.56796	0.52567
954.63939	0.52978
952.71083	0.52830
950.78226	0.52195
948.85370	0.51299
946.92513	0.50384
944.99657	0.49580
943.06801	0.48918
941.13944	0.48409
939.21088	0.48035
937.28231	0.47739
935.35375	0.47491
933.42518	0.47296
931.49662	0.47180
929.56805	0.47157
927.63949	0.47188
925.71093	0.47236
923.78236	0.47307
921.85380	0.47377
919.92523	0.47379
917.99667	0.47287
916.06810	0.47107
914.13954	0.46886
912.21098	0.46716
910.28241	0.46638
908.35385	0.46648
906.42528	0.46754
904.49672	0.46939
902.56815	0.47154
900.63959	0.47366
898.71102	0.47542
896.78246	0.47661
894.85390	0.47741
892.92533	0.47794
890.99677	0.47809
889.06820	0.47814
887.13964	0.47853
885.21107	0.47927
883.28251	0.48024
881.35394	0.48141
879.42538	0.48261
877.49682	0.48371
875.56825	0.48451
873.63969	0.48491
871.71112	0.48492
869.78256	0.48464
867.85399	0.48418
865.92543	0.48394
863.99686	0.48429
862.06830	0.48522
860.13974	0.48666
858.21117	0.48885
856.28261	0.49198
854.35404	0.49564
852.42548	0.49931
850.49691	0.50282
848.56835	0.50615
846.63978	0.50917
844.71122	0.51178
842.78266	0.51436
840.85409	0.51710
838.92553	0.51946
836.99696	0.52094
835.06840	0.52180
833.13983	0.52244
831.21127	0.52299
829.28270	0.52336
827.35414	0.52345
825.42558	0.52324
823.49701	0.52271
821.56845	0.52217
819.63988	0.52206
817.71132	0.52287
815.78275	0.52483
813.85419	0.52749
811.92562	0.53017
809.99706	0.53288
808.06850	0.53569
806.13993	0.53839
804.21137	0.54099
802.28280	0.54360
800.35424	0.54609
798.42567	0.54810
796.49711	0.54935
794.56854	0.55012
792.63998	0.55085
790.71142	0.55182
788.78285	0.55321
786.85429	0.55495
784.92572	0.55667
782.99716	0.55818
781.06859	0.56008
779.14003	0.56276
777.21147	0.56605
775.28290	0.57002
773.35434	0.57488
771.42577	0.58043
769.49721	0.58610
767.56864	0.59171
765.64008	0.59732
763.71151	0.60284
761.78295	0.60809
759.85439	0.61298
757.92582	0.61759
755.99726	0.62167
754.06869	0.62493
752.14013	0.62721
750.21156	0.62859
748.28300	0.62963
746.35443	0.63032
744.42587	0.63019
742.49731	0.62952
740.56874	0.62916
738.64018	0.62957
736.71161	0.63026
734.78305	0.63131
732.85448	0.63351
730.92592	0.63681
728.99735	0.64073
727.06879	0.64527
725.14023	0.65036
723.21166	0.65590
721.28310	0.66144
719.35453	0.66527
717.42597	0.66680
715.49740	0.66833
713.56884	0.67110
711.64027	0.67390
709.71171	0.67608
707.78315	0.67815
705.85458	0.68055
703.92602	0.68324
701.99745	0.68561
700.06889	0.68720
698.14032	0.68829
696.21176	0.68924
694.28319	0.69013
692.35463	0.69150
690.42607	0.69410
688.49750	0.69713
686.56894	0.69954
684.64037	0.70156
682.71181	0.70309
680.78324	0.70364
678.85468	0.70406
676.92611	0.70524
674.99755	0.70645
673.06899	0.70658
671.14042	0.70585
669.21186	0.70557
667.28329	0.70491
665.35473	0.70273
663.42616	0.70112
661.49760	0.70114
659.56903	0.70227
657.64047	0.70340
655.71191	0.70420
653.78334	0.70472
651.85478	0.70538
649.92621	0.70703
647.99765	0.70960
646.06908	0.71212
644.14052	0.71484
642.21195	0.71907
640.28339	0.72438
638.35483	0.72781
636.42626	0.72785
634.49770	0.72648
632.56913	0.72530
630.64057	0.72350
628.71200	0.72139
626.78344	0.72086
624.85488	0.72228
622.92631	0.72448
620.99775	0.72660
619.06918	0.72869
617.14062	0.73055
615.21205	0.73140
613.28349	0.73185
611.35492	0.73314
609.42636	0.73537
607.49780	0.73789
605.56923	0.73983
603.64067	0.74112
601.71210	0.74269
599.78354	0.74442
