3997.91406	0.51608
3995.98550	0.51508
3994.05693	0.51530
3992.12837	0.51655
3990.19980	0.51723
3988.27124	0.51650
3986.34268	0.51541
3984.41411	0.51505
3982.48555	0.51533
3980.55698	0.51567
3978.62842	0.51556
3976.69985	0.51507
3974.77129	0.51474
3972.84272	0.51493
3970.91416	0.51562
3968.98560	0.51627
3967.05703	0.51612
3965.12847	0.51456
3963.19990	0.51224
3961.27134	0.51138
3959.34277	0.51258
3957.41421	0.51419
3955.48564	0.51469
3953.55708	0.51356
3951.62852	0.51168
3949.69995	0.51135
3947.77139	0.51192
3945.84282	0.51041
3943.91426	0.51001
3941.98569	0.51319
3940.05713	0.51468
3938.12856	0.51284
3936.20000	0.50995
3934.27144	0.50778
3932.34287	0.50863
3930.41431	0.51174
3928.48574	0.51263
3926.55718	0.51146
3924.62861	0.51126
3922.70005	0.51046
3920.77148	0.50799
3918.84292	0.50778
3916.91436	0.51097
3914.98579	0.51273
3913.05723	0.51124
3911.12866	0.50855
3909.20010	0.50462
3907.27153	0.49904
3905.34297	0.49561
3903.41440	0.49712
3901.48584	0.49932
3899.55728	0.50204
3897.62871	0.50432
3895.70015	0.50230
3893.77158	0.49877
3891.84302	0.50044
3889.91445	0.50245
3887.98589	0.49870
3886.05733	0.49665
3884.12876	0.49822
3882.20020	0.49687
3880.27163	0.49691
3878.34307	0.49762
3876.41450	0.49531
3874.48594	0.49211
3872.55737	0.48895
3870.62881	0.49150
3868.70025	0.49705
3866.77168	0.49415
3864.84312	0.49054
3862.91455	0.49318
3860.98599	0.49333
3859.05742	0.48819
3857.12886	0.47930
3855.20029	0.47035
3853.27173	0.48001
3851.34317	0.49507
3849.41460	0.49583
3847.48604	0.49182
3845.55747	0.48678
3843.62891	0.48154
3841.70034	0.47678
3839.77178	0.47502
3837.84321	0.47967
3835.91465	0.48389
3833.98609	0.48513
3832.05752	0.48692
3830.12896	0.48762
3828.20039	0.48666
3826.27183	0.48495
3824.34326	0.47909
3822.41470	0.47266
3820.48613	0.47543
3818.55757	0.47785
3816.62901	0.48052
3814.70044	0.48728
3812.77188	0.48859
3810.84331	0.48484
3808.91475	0.48083
3806.98618	0.48049
3805.05762	0.47869
3803.12905	0.47484
3801.20049	0.47959
3799.27193	0.48479
3797.34336	0.48591
3795.41480	0.48806
3793.48623	0.48792
3791.55767	0.48600
3789.62910	0.48469
3787.70054	0.48332
3785.77197	0.48285
3783.84341	0.48313
3781.91485	0.48176
3779.98628	0.48220
3778.05772	0.48579
3776.12915	0.48639
3774.20059	0.48308
3772.27202	0.47892
3770.34346	0.47821
3768.41489	0.47997
3766.48633	0.48112
3764.55777	0.48260
3762.62920	0.48184
3760.70064	0.47999
3758.77207	0.48068
3756.84351	0.47963
3754.91494	0.47312
3752.98638	0.46422
3751.05781	0.46619
3749.12925	0.47553
3747.20069	0.47309
3745.27212	0.47191
3743.34356	0.48027
3741.41499	0.48113
3739.48643	0.47265
3737.55786	0.46299
3735.62930	0.46419
3733.70074	0.47747
3731.77217	0.48584
3729.84361	0.48582
3727.91504	0.48205
3725.98648	0.47942
3724.05791	0.48018
3722.12935	0.48294
3720.20078	0.48499
3718.27222	0.48409
3716.34366	0.48018
3714.41509	0.47456
3712.48653	0.47351
3710.55796	0.48256
3708.62940	0.48814
3706.70083	0.48673
3704.77227	0.48293
3702.84370	0.48162
3700.91514	0.48456
3698.98658	0.48603
3697.05801	0.48519
3695.12945	0.48333
3693.20088	0.47955
3691.27232	0.47671
3689.34375	0.48398
3687.41519	0.49417
3685.48662	0.49661
3683.55806	0.49528
3681.62950	0.49323
3679.70093	0.48967
3677.77237	0.48512
3675.84380	0.49175
3673.91524	0.50377
3671.98667	0.50618
3670.05811	0.51298
3668.12954	0.52189
3666.20098	0.52406
3664.27242	0.52575
3662.34385	0.52880
3660.41529	0.53058
3658.48672	0.53218
3656.55816	0.53900
3654.62959	0.54403
3652.70103	0.53934
3650.77246	0.53486
3648.84390	0.55252
3646.91534	0.57174
3644.98677	0.57522
3643.05821	0.57557
3641.12964	0.57873
3639.20108	0.58383
3637.27251	0.58875
3635.34395	0.59332
3633.41538	0.59654
3631.48682	0.59683
3629.55826	0.60349
3627.62969	0.62138
3625.70113	0.62993
3623.77256	0.63046
3621.84400	0.62982
3619.91543	0.63504
3617.98687	0.64514
3616.05830	0.65026
3614.12974	0.65482
3612.20118	0.66199
3610.27261	0.66844
3608.34405	0.67738
3606.41548	0.68717
3604.48692	0.69111
3602.55835	0.69259
3600.62979	0.69708
3598.70123	0.70330
3596.77266	0.70856
3594.84410	0.71524
3592.91553	0.72177
3590.98697	0.72346
3589.05840	0.72587
3587.12984	0.73832
3585.20127	0.75147
3583.27271	0.75801
3581.34415	0.76250
3579.41558	0.76752
3577.48702	0.77325
3575.55845	0.78021
3573.62989	0.78698
3571.70132	0.78974
3569.77276	0.79000
3567.84419	0.79729
3565.91563	0.81182
3563.98707	0.81931
3562.05850	0.82382
3560.12994	0.83047
3558.20137	0.83729
3556.27281	0.84262
3554.34424	0.84799
3552.41568	0.85495
3550.48711	0.86116
3548.55855	0.86673
3546.62999	0.87515
3544.70142	0.88466
3542.77286	0.89131
3540.84429	0.89489
3538.91573	0.89680
3536.98716	0.90038
3535.05860	0.90695
3533.13003	0.91457
3531.20147	0.92252
3529.27291	0.92952
3527.34434	0.93486
3525.41578	0.94039
3523.48721	0.94634
3521.55865	0.95127
3519.63008	0.95569
3517.70152	0.96176
3515.77295	0.96943
3513.84439	0.97678
3511.91583	0.98341
3509.98726	0.99067
3508.05870	0.99751
3506.13013	1.00208
3504.20157	1.00890
3502.27300	1.02089
3500.34444	1.03146
3498.41587	1.03753
3496.48731	1.04207
3494.55875	1.04650
3492.63018	1.05036
3490.70162	1.05319
3488.77305	1.05446
3486.84449	1.05555
3484.91592	1.05803
3482.98736	1.06390
3481.05879	1.07428
3479.13023	1.08272
3477.20167	1.08517
3475.27310	1.08613
3473.34454	1.09006
3471.41597	1.09581
3469.48741	1.09946
3467.55884	1.10014
3465.63028	1.10068
3463.70171	1.10440
3461.77315	1.11075
3459.84459	1.11581
3457.91602	1.11818
3455.98746	1.11933
3454.05889	1.12025
3452.13033	1.12076
3450.20176	1.12175
3448.27320	1.12515
3446.34464	1.13028
3444.41607	1.13406
3442.48751	1.13706
3440.55894	1.14123
3438.63038	1.14373
3436.70181	1.14212
3434.77325	1.14050
3432.84468	1.14179
3430.91612	1.14413
3428.98756	1.14735
3427.05899	1.15042
3425.13043	1.15048
3423.20186	1.14927
3421.27330	1.15031
3419.34473	1.15388
3417.41617	1.15796
3415.48760	1.16107
3413.55904	1.16303
3411.63048	1.16378
3409.70191	1.16423
3407.77335	1.16630
3405.84478	1.16966
3403.91622	1.17259
3401.98765	1.17393
3400.05909	1.17253
3398.13052	1.17003
3396.20196	1.16919
3394.27340	1.16923
3392.34483	1.16952
3390.41627	1.17244
3388.48770	1.17810
3386.55914	1.18173
3384.63057	1.18061
3382.70201	1.17871
3380.77344	1.17934
3378.84488	1.18159
3376.91632	1.18475
3374.98775	1.18897
3373.05919	1.19277
3371.13062	1.19441
3369.20206	1.19388
3367.27349	1.19348
3365.34493	1.19616
3363.41636	1.20052
3361.48780	1.20291
3359.55924	1.20365
3357.63067	1.20575
3355.70211	1.20867
3353.77354	1.20982
3351.84498	1.21150
3349.91641	1.21491
3347.98785	1.21590
3346.05928	1.21479
3344.13072	1.21568
3342.20216	1.21837
3340.27359	1.22101
3338.34503	1.22339
3336.41646	1.22652
3334.48790	1.23176
3332.55933	1.23674
3330.63077	1.23677
3328.70220	1.23451
3326.77364	1.23737
3324.84508	1.24296
3322.91651	1.24525
3320.98795	1.24903
3319.05938	1.25715
3317.13082	1.26196
3315.20225	1.26061
3313.27369	1.25904
3311.34513	1.26054
3309.41656	1.26275
3307.48800	1.26371
3305.55943	1.26297
3303.63087	1.25978
3301.70230	1.25658
3299.77374	1.25604
3297.84517	1.25751
3295.91661	1.26011
3293.98805	1.26290
3292.05948	1.26600
3290.13092	1.26810
3288.20235	1.26454
3286.27379	1.25672
3284.34522	1.25176
3282.41666	1.25286
3280.48809	1.25629
3278.55953	1.25576
3276.63097	1.25178
3274.70240	1.24803
3272.77384	1.24296
3270.84527	1.23716
3268.91671	1.23351
3266.98814	1.23104
3265.05958	1.22913
3263.13101	1.22771
3261.20245	1.22568
3259.27389	1.22285
3257.34532	1.21947
3255.41676	1.21611
3253.48819	1.21362
3251.55963	1.21144
3249.63106	1.20720
3247.70250	1.19984
3245.77393	1.19203
3243.84537	1.18694
3241.91681	1.18439
3239.98824	1.18103
3238.05968	1.17534
3236.13111	1.17012
3234.20255	1.16637
3232.27398	1.16341
3230.34542	1.16229
3228.41685	1.16107
3226.48829	1.15763
3224.55973	1.15384
3222.63116	1.14995
3220.70260	1.14560
3218.77403	1.14267
3216.84547	1.14171
3214.91690	1.14188
3212.98834	1.14248
3211.05977	1.14146
3209.13121	1.13690
3207.20265	1.13072
3205.27408	1.12614
3203.34552	1.12447
3201.41695	1.12482
3199.48839	1.12368
3197.55982	1.11920
3195.63126	1.11424
3193.70269	1.11112
3191.77413	1.10816
3189.84557	1.10367
3187.91700	1.09871
3185.98844	1.09426
3184.05987	1.09094
3182.13131	1.08961
3180.20274	1.08902
3178.27418	1.08626
3176.34562	1.08124
3174.41705	1.07704
3172.48849	1.07426
3170.55992	1.07056
3168.63136	1.06646
3166.70279	1.06491
3164.77423	1.06534
3162.84566	1.06420
3160.91710	1.06022
3158.98854	1.05566
3157.05997	1.05167
3155.13141	1.04728
3153.20284	1.04377
3151.27428	1.04253
3149.34571	1.04152
3147.41715	1.03947
3145.48858	1.03788
3143.56002	1.03633
3141.63146	1.03360
3139.70289	1.03145
3137.77433	1.03114
3135.84576	1.03093
3133.91720	1.03004
3131.98863	1.03016
3130.06007	1.03069
3128.13150	1.02903
3126.20294	1.02608
3124.27438	1.02442
3122.34581	1.02462
3120.41725	1.02602
3118.48868	1.02787
3116.56012	1.02935
3114.63155	1.02921
3112.70299	1.02788
3110.77442	1.02699
3108.84586	1.02697
3106.91730	1.02714
3104.98873	1.02645
3103.06017	1.02519
3101.13160	1.02474
3099.20304	1.02510
3097.27447	1.02493
3095.34591	1.02437
3093.41734	1.02478
3091.48878	1.02519
3089.56022	1.02373
3087.63165	1.02100
3085.70309	1.01894
3083.77452	1.01831
3081.84596	1.01806
3079.91739	1.01670
3077.98883	1.01473
3076.06026	1.01423
3074.13170	1.01462
3072.20314	1.01326
3070.27457	1.01009
3068.34601	1.00681
3066.41744	1.00429
3064.48888	1.00264
3062.56031	1.00137
3060.63175	0.99920
3058.70318	0.99521
3056.77462	0.99099
3054.84606	0.98820
3052.91749	0.98524
3050.98893	0.98081
3049.06036	0.97629
3047.13180	0.97300
3045.20323	0.97053
3043.27467	0.96776
3041.34610	0.96427
3039.41754	0.96075
3037.48898	0.95778
3035.56041	0.95463
3033.63185	0.95090
3031.70328	0.94804
3029.77472	0.94688
3027.84615	0.94584
3025.91759	0.94332
3023.98903	0.93976
3022.06046	0.93640
3020.13190	0.93362
3018.20333	0.93128
3016.27477	0.92951
3014.34620	0.92862
3012.41764	0.92871
3010.48907	0.92900
3008.56051	0.92821
3006.63195	0.92676
3004.70338	0.92598
3002.77482	0.92549
3000.84625	0.92471
2998.91769	0.92504
2996.98912	0.92774
2995.06056	0.93121
2993.13199	0.93363
2991.20343	0.93663
2989.27487	0.94222
2987.34630	0.94901
2985.41774	0.95476
2983.48917	0.96009
2981.56061	0.96672
2979.63204	0.97466
2977.70348	0.98310
2975.77491	0.99113
2973.84635	0.99841
2971.91779	1.00596
2969.98922	1.01427
2968.06066	1.02288
2966.13209	1.03092
2964.20353	1.03701
2962.27496	1.04021
2960.34640	1.04052
2958.41783	1.03787
2956.48927	1.03201
2954.56071	1.02491
2952.63214	1.01897
2950.70358	1.01463
2948.77501	1.01270
2946.84645	1.01400
2944.91788	1.01795
2942.98932	1.02425
2941.06075	1.03249
2939.13219	1.04176
2937.20363	1.05248
2935.27506	1.06454
2933.34650	1.07607
2931.41793	1.08633
2929.48937	1.09564
2927.56080	1.10335
2925.63224	1.10888
2923.70367	1.11240
2921.77511	1.11360
2919.84655	1.11115
2917.91798	1.10282
2915.98942	1.08645
2914.06085	1.06335
2912.13229	1.03933
2910.20372	1.01931
2908.27516	1.00375
2906.34659	0.99095
2904.41803	0.98058
2902.48947	0.97313
2900.56090	0.96772
2898.63234	0.96339
2896.70377	0.95980
2894.77521	0.95586
2892.84664	0.95131
2890.91808	0.94723
2888.98952	0.94347
2887.06095	0.93994
2885.13239	0.93821
2883.20382	0.93867
2881.27526	0.93975
2879.34669	0.94021
2877.41813	0.94032
2875.48956	0.94078
2873.56100	0.94072
2871.63244	0.93804
2869.70387	0.93242
2867.77531	0.92592
2865.84674	0.92062
2863.91818	0.91758
2861.98961	0.91698
2860.06105	0.91875
2858.13248	0.92378
2856.20392	0.93236
2854.27536	0.94250
2852.34679	0.95121
2850.41823	0.95238
2848.48966	0.93812
2846.56110	0.91086
2844.63253	0.88264
2842.70397	0.86054
2840.77540	0.84434
2838.84684	0.83269
2836.91828	0.82475
2834.98971	0.81906
2833.06115	0.81434
2831.13258	0.81015
2829.20402	0.80640
2827.27545	0.80284
2825.34689	0.79917
2823.41832	0.79583
2821.48976	0.79320
2819.56120	0.79058
2817.63263	0.78772
2815.70407	0.78503
2813.77550	0.78190
2811.84694	0.77773
2809.91837	0.77394
2807.98981	0.77163
2806.06124	0.76954
2804.13268	0.76678
2802.20412	0.76401
2800.27555	0.76126
2798.34699	0.75810
2796.41842	0.75521
2794.48986	0.75333
2792.56129	0.75179
2790.63273	0.74962
2788.70416	0.74741
2786.77560	0.74610
2784.84704	0.74517
2782.91847	0.74375
2780.98991	0.74168
2779.06134	0.73922
2777.13278	0.73690
2775.20421	0.73526
2773.27565	0.73417
2771.34708	0.73304
2769.41852	0.73170
2767.48996	0.73060
2765.56139	0.73001
2763.63283	0.72916
2761.70426	0.72724
2759.77570	0.72487
2757.84713	0.72288
2755.91857	0.72121
2753.99001	0.71917
2752.06144	0.71637
2750.13288	0.71336
2748.20431	0.71104
2746.27575	0.70937
2744.34718	0.70762
2742.41862	0.70542
2740.49005	0.70268
2738.56149	0.69973
2736.63293	0.69741
2734.70436	0.69574
2732.77580	0.69389
2730.84723	0.69145
2728.91867	0.68893
2726.99010	0.68668
2725.06154	0.68445
2723.13297	0.68227
2721.20441	0.68029
2719.27585	0.67829
2717.34728	0.67626
2715.41872	0.67447
2713.49015	0.67284
2711.56159	0.67100
2709.63302	0.66903
2707.70446	0.66739
2705.77589	0.66620
2703.84733	0.66517
2701.91877	0.66421
2699.99020	0.66337
2698.06164	0.66254
2696.13307	0.66147
2694.20451	0.66002
2692.27594	0.65860
2690.34738	0.65757
2688.41881	0.65650
2686.49025	0.65476
2684.56169	0.65256
2682.63312	0.65060
2680.70456	0.64906
2678.77599	0.64770
2676.84743	0.64611
2674.91886	0.64416
2672.99030	0.64246
2671.06173	0.64121
2669.13317	0.63987
2667.20461	0.63816
2665.27604	0.63632
2663.34748	0.63457
2661.41891	0.63317
2659.49035	0.63201
2657.56178	0.63057
2655.63322	0.62894
2653.70465	0.62762
2651.77609	0.62671
2649.84753	0.62597
2647.91896	0.62533
2645.99040	0.62479
2644.06183	0.62406
2642.13327	0.62296
2640.20470	0.62179
2638.27614	0.62102
2636.34757	0.62084
2634.41901	0.62087
2632.49045	0.62069
2630.56188	0.62037
2628.63332	0.61990
2626.70475	0.61931
2624.77619	0.61914
2622.84762	0.61938
2620.91906	0.61929
2618.99049	0.61877
2617.06193	0.61832
2615.13337	0.61813
2613.20480	0.61778
2611.27624	0.61688
2609.34767	0.61579
2607.41911	0.61480
2605.49054	0.61400
2603.56198	0.61355
2601.63342	0.61298
2599.70485	0.61190
2597.77629	0.61094
2595.84772	0.61013
2593.91916	0.60897
2591.99059	0.60783
2590.06203	0.60704
2588.13346	0.60618
2586.20490	0.60501
2584.27634	0.60384
2582.34777	0.60267
2580.41921	0.60121
2578.49064	0.59979
2576.56208	0.59851
2574.63351	0.59703
2572.70495	0.59549
2570.77638	0.59400
2568.84782	0.59252
2566.91926	0.59132
2564.99069	0.59035
2563.06213	0.58920
2561.13356	0.58789
2559.20500	0.58669
2557.27643	0.58556
2555.34787	0.58440
2553.41930	0.58318
2551.49074	0.58175
2549.56218	0.58006
2547.63361	0.57840
2545.70505	0.57705
2543.77648	0.57601
2541.84792	0.57520
2539.91935	0.57426
2537.99079	0.57295
2536.06222	0.57154
2534.13366	0.57026
2532.20510	0.56890
2530.27653	0.56724
2528.34797	0.56549
2526.41940	0.56384
2524.49084	0.56235
2522.56227	0.56099
2520.63371	0.55957
2518.70514	0.55797
2516.77658	0.55627
2514.84802	0.55452
2512.91945	0.55277
2510.99089	0.55115
2509.06232	0.54980
2507.13376	0.54838
2505.20519	0.54661
2503.27663	0.54486
2501.34806	0.54354
2499.41950	0.54239
2497.49094	0.54120
2495.56237	0.54020
2493.63381	0.53944
2491.70524	0.53867
2489.77668	0.53777
2487.84811	0.53702
2485.91955	0.53649
2483.99098	0.53588
2482.06242	0.53520
2480.13386	0.53462
2478.20529	0.53395
2476.27673	0.53320
2474.34816	0.53268
2472.41960	0.53217
2470.49103	0.53122
2468.56247	0.52987
2466.63391	0.52835
2464.70534	0.52676
2462.77678	0.52511
2460.84821	0.52360
2458.91965	0.52229
2456.99108	0.52088
2455.06252	0.51922
2453.13395	0.51760
2451.20539	0.51615
2449.27683	0.51470
2447.34826	0.51332
2445.41970	0.51201
2443.49113	0.51076
2441.56257	0.50966
2439.63400	0.50839
2437.70544	0.50694
2435.77687	0.50605
2433.84831	0.50588
2431.91975	0.50566
2429.99118	0.50510
2428.06262	0.50475
2426.13405	0.50475
2424.20549	0.50483
2422.27692	0.50471
2420.34836	0.50440
2418.41979	0.50421
2416.49123	0.50408
2414.56267	0.50372
2412.63410	0.50310
2410.70554	0.50229
2408.77697	0.50138
2406.84841	0.50040
2404.91984	0.49935
2402.99128	0.49830
2401.06271	0.49718
2399.13415	0.49591
2397.20559	0.49444
2395.27702	0.49287
2393.34846	0.49133
2391.41989	0.48983
2389.49133	0.48829
2387.56276	0.48685
2385.63420	0.48554
2383.70563	0.48419
2381.77707	0.48296
2379.84851	0.48227
2377.91994	0.48219
2375.99138	0.48238
2374.06281	0.48301
2372.13425	0.48446
2370.20568	0.48610
2368.27712	0.48765
2366.34855	0.48943
2364.41999	0.49089
2362.49143	0.49217
2360.56286	0.49321
2358.63430	0.49277
2356.70573	0.49145
2354.77717	0.48965
2352.84860	0.48652
2350.92004	0.48240
2348.99147	0.47877
2347.06291	0.47678
2345.13435	0.47637
2343.20578	0.47592
2341.27722	0.47494
2339.34865	0.47413
2337.42009	0.47322
2335.49152	0.47228
2333.56296	0.47167
2331.63440	0.47074
2329.70583	0.46872
2327.77727	0.46655
2325.84870	0.46522
2323.92014	0.46460
2321.99157	0.46433
2320.06301	0.46355
2318.13444	0.46186
2316.20588	0.46020
2314.27732	0.45884
2312.34875	0.45750
2310.42019	0.45639
2308.49162	0.45539
2306.56306	0.45423
2304.63449	0.45291
2302.70593	0.45168
2300.77736	0.45076
2298.84880	0.44997
2296.92024	0.44908
2294.99167	0.44812
2293.06311	0.44720
2291.13454	0.44624
2289.20598	0.44495
2287.27741	0.44346
2285.34885	0.44223
2283.42028	0.44120
2281.49172	0.44007
2279.56316	0.43892
2277.63459	0.43798
2275.70603	0.43722
2273.77746	0.43660
2271.84890	0.43599
2269.92033	0.43534
2267.99177	0.43476
2266.06320	0.43432
2264.13464	0.43407
2262.20608	0.43406
2260.27751	0.43426
2258.34895	0.43450
2256.42038	0.43463
2254.49182	0.43463
2252.56325	0.43461
2250.63469	0.43466
2248.70612	0.43476
2246.77756	0.43489
2244.84900	0.43511
2242.92043	0.43533
2240.99187	0.43542
2239.06330	0.43563
2237.13474	0.43589
2235.20617	0.43566
2233.27761	0.43516
2231.34904	0.43492
2229.42048	0.43481
2227.49192	0.43461
2225.56335	0.43447
2223.63479	0.43447
2221.70622	0.43431
2219.77766	0.43400
2217.84909	0.43386
2215.92053	0.43399
2213.99196	0.43418
2212.06340	0.43429
2210.13484	0.43435
2208.20627	0.43445
2206.27771	0.43459
2204.34914	0.43463
2202.42058	0.43449
2200.49201	0.43431
2198.56345	0.43421
2196.63488	0.43428
2194.70632	0.43443
2192.77776	0.43452
2190.84919	0.43451
2188.92063	0.43439
2186.99206	0.43414
2185.06350	0.43384
2183.13493	0.43354
2181.20637	0.43307
2179.27781	0.43232
2177.34924	0.43161
2175.42068	0.43104
2173.49211	0.43030
2171.56355	0.42939
2169.63498	0.42855
2167.70642	0.42782
2165.77785	0.42723
2163.84929	0.42662
2161.92073	0.42589
2159.99216	0.42529
2158.06360	0.42491
2156.13503	0.42452
2154.20647	0.42406
2152.27790	0.42361
2150.34934	0.42320
2148.42077	0.42290
2146.49221	0.42270
2144.56365	0.42249
2142.63508	0.42230
2140.70652	0.42218
2138.77795	0.42199
2136.84939	0.42157
2134.92082	0.42115
2132.99226	0.42091
2131.06369	0.42056
2129.13513	0.41999
2127.20657	0.41941
2125.27800	0.41887
2123.34944	0.41830
2121.42087	0.41771
2119.49231	0.41705
2117.56374	0.41621
2115.63518	0.41523
2113.70661	0.41425
2111.77805	0.41348
2109.84949	0.41289
2107.92092	0.41220
2105.99236	0.41136
2104.06379	0.41053
2102.13523	0.40976
2100.20666	0.40907
2098.27810	0.40851
2096.34953	0.40806
2094.42097	0.40773
2092.49241	0.40757
2090.56384	0.40757
2088.63528	0.40764
2086.70671	0.40779
2084.77815	0.40812
2082.84958	0.40859
2080.92102	0.40921
2078.99245	0.41006
2077.06389	0.41100
2075.13533	0.41181
2073.20676	0.41251
2071.27820	0.41322
2069.34963	0.41385
2067.42107	0.41424
2065.49250	0.41453
2063.56394	0.41482
2061.63537	0.41482
2059.70681	0.41452
2057.77825	0.41408
2055.84968	0.41353
2053.92112	0.41290
2051.99255	0.41215
2050.06399	0.41143
2048.13542	0.41091
2046.20686	0.41039
2044.27830	0.40964
2042.34973	0.40892
2040.42117	0.40852
2038.49260	0.40825
2036.56404	0.40802
2034.63547	0.40790
2032.70691	0.40772
2030.77834	0.40749
2028.84978	0.40742
2026.92122	0.40744
2024.99265	0.40736
2023.06409	0.40729
2021.13552	0.40719
2019.20696	0.40707
2017.27839	0.40703
2015.34983	0.40678
2013.42126	0.40630
2011.49270	0.40578
2009.56414	0.40519
2007.63557	0.40456
2005.70701	0.40403
2003.77844	0.40343
2001.84988	0.40259
1999.92131	0.40180
1997.99275	0.40122
1996.06418	0.40052
1994.13562	0.39965
1992.20706	0.39892
1990.27849	0.39807
1988.34993	0.39688
1986.42136	0.39578
1984.49280	0.39487
1982.56423	0.39394
1980.63567	0.39297
1978.70710	0.39193
1976.77854	0.39077
1974.84998	0.38972
1972.92141	0.38895
1970.99285	0.38811
1969.06428	0.38726
1967.13572	0.38689
1965.20715	0.38656
1963.27859	0.38591
1961.35002	0.38540
1959.42146	0.38512
1957.49290	0.38487
1955.56433	0.38468
1953.63577	0.38454
1951.70720	0.38434
1949.77864	0.38410
1947.85007	0.38380
1945.92151	0.38338
1943.99294	0.38317
1942.06438	0.38343
1940.13582	0.38337
1938.20725	0.38276
1936.27869	0.38225
1934.35012	0.38211
1932.42156	0.38202
1930.49299	0.38160
1928.56443	0.38091
1926.63586	0.38003
1924.70730	0.37928
1922.77874	0.37897
1920.85017	0.37846
1918.92161	0.37775
1916.99304	0.37717
1915.06448	0.37620
1913.13591	0.37498
1911.20735	0.37404
1909.27878	0.37348
1907.35022	0.37288
1905.42166	0.37200
1903.49309	0.37110
1901.56453	0.37041
1899.63596	0.36991
1897.70740	0.36969
1895.77883	0.36991
1893.85027	0.37017
1891.92171	0.37023
1889.99314	0.37087
1888.06458	0.37179
1886.13601	0.37212
1884.20745	0.37231
1882.27888	0.37264
1880.35032	0.37304
1878.42175	0.37351
1876.49319	0.37380
1874.56463	0.37371
1872.63606	0.37324
1870.70750	0.37300
1868.77893	0.37407
1866.85037	0.37515
1864.92180	0.37475
1862.99324	0.37403
1861.06467	0.37367
1859.13611	0.37358
1857.20755	0.37353
1855.27898	0.37335
1853.35042	0.37300
1851.42185	0.37243
1849.49329	0.37164
1847.56472	0.37063
1845.63616	0.37004
1843.70759	0.37030
1841.77903	0.36962
1839.85047	0.36782
1837.92190	0.36632
1835.99334	0.36542
1834.06477	0.36421
1832.13621	0.36289
1830.20764	0.36258
1828.27908	0.36270
1826.35051	0.36237
1824.42195	0.36239
1822.49339	0.36237
1820.56482	0.36197
1818.63626	0.36194
1816.70769	0.36224
1814.77913	0.36238
1812.85056	0.36268
1810.92200	0.36352
1808.99343	0.36422
1807.06487	0.36439
1805.13631	0.36448
1803.20774	0.36484
1801.27918	0.36588
1799.35061	0.36696
1797.42205	0.36710
1795.49348	0.36671
1793.56492	0.36713
1791.63635	0.36893
1789.70779	0.36944
1787.77923	0.36865
1785.85066	0.36823
1783.92210	0.36818
1781.99353	0.36799
1780.06497	0.36777
1778.13640	0.36722
1776.20784	0.36620
1774.27927	0.36582
1772.35071	0.36729
1770.42215	0.36876
1768.49358	0.36897
1766.56502	0.36875
1764.63645	0.36849
1762.70789	0.36970
1760.77932	0.37268
1758.85076	0.37545
1756.92220	0.37902
1754.99363	0.38312
1753.06507	0.38717
1751.13650	0.39420
1749.20794	0.40462
1747.27937	0.41339
1745.35081	0.42023
1743.42224	0.42692
1741.49368	0.43392
1739.56512	0.44082
1737.63655	0.44499
1735.70799	0.44779
1733.77942	0.45478
1731.85086	0.46153
1729.92229	0.46523
1727.99373	0.46927
1726.06516	0.47407
1724.13660	0.48051
1722.20804	0.48718
1720.27947	0.49318
1718.35091	0.50444
1716.42234	0.52579
1714.49378	0.54361
1712.56521	0.55731
1710.63665	0.57291
1708.70808	0.59214
1706.77952	0.62096
1704.85096	0.65993
1702.92239	0.69515
1700.99383	0.74142
1699.06526	0.81404
1697.13670	0.88175
1695.20813	0.94590
1693.27957	0.99161
1691.35100	1.02520
1689.42244	1.06409
1687.49388	1.09821
1685.56531	1.13046
1683.63675	1.17761
1681.70818	1.20713
1679.77962	1.22040
1677.85105	1.23237
1675.92249	1.24639
1673.99392	1.26004
1672.06536	1.26923
1670.13680	1.27711
1668.20823	1.28594
1666.27967	1.29043
1664.35110	1.29398
1662.42254	1.29874
1660.49397	1.30036
1658.56541	1.29964
1656.63684	1.29830
1654.70828	1.29939
1652.77972	1.30033
1650.85115	1.29364
1648.92259	1.28723
1646.99402	1.28182
1645.06546	1.27737
1643.13689	1.27322
1641.20833	1.27040
1639.27976	1.26853
1637.35120	1.26656
1635.42264	1.26268
1633.49407	1.25721
1631.56551	1.25150
1629.63694	1.24371
1627.70838	1.23456
1625.77981	1.22613
1623.85125	1.21789
1621.92269	1.20893
1619.99412	1.20002
1618.06556	1.18887
1616.13699	1.17209
1614.20843	1.15580
1612.27986	1.14129
1610.35130	1.12678
1608.42273	1.11300
1606.49417	1.10141
1604.56561	1.09290
1602.63704	1.08689
1600.70848	1.08294
1598.77991	1.08036
1596.85135	1.07871
1594.92278	1.07796
1592.99422	1.07835
1591.06565	1.08056
1589.13709	1.08463
1587.20853	1.09024
1585.27996	1.09707
1583.35140	1.10483
1581.42283	1.11265
1579.49427	1.11988
1577.56570	1.12980
1575.63714	1.14466
1573.70857	1.15396
1571.78001	1.15984
1569.85145	1.17082
1567.92288	1.18282
1565.99432	1.19002
1564.06575	1.19542
1562.13719	1.19792
1560.20862	1.20131
1558.28006	1.21815
1556.35149	1.22797
1554.42293	1.22922
1552.49437	1.22933
1550.56580	1.22921
1548.63724	1.22819
1546.70867	1.22602
1544.78011	1.22332
1542.85154	1.22155
1540.92298	1.21988
1538.99441	1.21108
1537.06585	1.20251
1535.13729	1.19590
1533.20872	1.18948
1531.28016	1.18284
1529.35159	1.17707
1527.42303	1.17229
1525.49446	1.16759
1523.56590	1.16234
1521.63733	1.15719
1519.70877	1.15486
1517.78021	1.15092
1515.85164	1.14107
1513.92308	1.12827
1511.99451	1.11538
1510.06595	1.10431
1508.13738	1.09092
1506.20882	1.06409
1504.28025	1.04461
1502.35169	1.03066
1500.42313	1.01527
1498.49456	0.99666
1496.56600	0.97465
1494.63743	0.95539
1492.70887	0.94074
1490.78030	0.92532
1488.85174	0.90677
1486.92317	0.89185
1484.99461	0.88212
1483.06605	0.87581
1481.13748	0.87221
1479.20892	0.87136
1477.28035	0.87421
1475.35179	0.88261
1473.42322	0.89963
1471.49466	0.91814
1469.56610	0.92692
1467.63753	0.93200
1465.70897	0.93949
1463.78040	0.94813
1461.85184	0.95252
1459.92327	0.95491
1457.99471	0.96232
1456.06614	0.97210
1454.13758	0.97255
1452.20902	0.97001
1450.28045	0.96763
1448.35189	0.96511
1446.42332	0.96171
1444.49476	0.95775
1442.56619	0.95292
1440.63763	0.94698
1438.70906	0.94015
1436.78050	0.93139
1434.85194	0.92133
1432.92337	0.91226
1430.99481	0.90376
1429.06624	0.89614
1427.13768	0.89068
1425.20911	0.88760
1423.28055	0.88697
1421.35198	0.88856
1419.42342	0.89296
1417.49486	0.89786
1415.56629	0.89976
1413.63773	0.90102
1411.70916	0.90307
1409.78060	0.90548
1407.85203	0.90809
1405.92347	0.91202
1403.99490	0.91648
1402.06634	0.91904
1400.13778	0.92054
1398.20921	0.92215
1396.28065	0.92428
1394.35208	0.92678
1392.42352	0.92820
1390.49495	0.92947
1388.56639	0.93371
1386.63782	0.94167
1384.70926	0.94938
1382.78070	0.95597
1380.85213	0.96138
1378.92357	0.96308
1376.99500	0.95972
1375.06644	0.95113
1373.13787	0.93864
1371.20931	0.92552
1369.28074	0.91089
1367.35218	0.89408
1365.42362	0.87782
1363.49505	0.86253
1361.56649	0.84931
1359.63792	0.84020
1357.70936	0.83386
1355.78079	0.82945
1353.85223	0.82720
1351.92366	0.82644
1349.99510	0.82628
1348.06654	0.82635
1346.13797	0.82665
1344.20941	0.82734
1342.28084	0.82858
1340.35228	0.83109
1338.42371	0.83518
1336.49515	0.84040
1334.56659	0.84711
1332.63802	0.85543
1330.70946	0.86445
1328.78089	0.87271
1326.85233	0.87913
1324.92376	0.88366
1322.99520	0.88706
1321.06663	0.89033
1319.13807	0.89390
1317.20951	0.89719
1315.28094	0.89977
1313.35238	0.90170
1311.42381	0.90241
1309.49525	0.90170
1307.56668	0.90008
1305.63812	0.89803
1303.70955	0.89563
1301.78099	0.89245
1299.85243	0.88846
1297.92386	0.88404
1295.99530	0.87940
1294.06673	0.87521
1292.13817	0.87250
1290.20960	0.87153
1288.28104	0.87169
1286.35247	0.87225
1284.42391	0.87263
1282.49535	0.87286
1280.56678	0.87334
1278.63822	0.87454
1276.70965	0.87704
1274.78109	0.88099
1272.85252	0.88621
1270.92396	0.89246
1268.99539	0.89935
1267.06683	0.90630
1265.13827	0.91269
1263.20970	0.91759
1261.28114	0.92006
1259.35257	0.92049
1257.42401	0.92022
1255.49544	0.91976
1253.56688	0.91884
1251.63831	0.91753
1249.70975	0.91602
1247.78119	0.91449
1245.85262	0.91276
1243.92406	0.91021
1241.99549	0.90687
1240.06693	0.90326
1238.13836	0.89921
1236.20980	0.89392
1234.28123	0.88710
1232.35267	0.87960
1230.42411	0.87184
1228.49554	0.86352
1226.56698	0.85444
1224.63841	0.84477
1222.70985	0.83524
1220.78128	0.82635
1218.85272	0.81808
1216.92415	0.81095
1214.99559	0.80629
1213.06703	0.80485
1211.13846	0.80598
1209.20990	0.80832
1207.28133	0.81013
1205.35277	0.80984
1203.42420	0.80689
1201.49564	0.80176
1199.56708	0.79535
1197.63851	0.78849
1195.70995	0.78188
1193.78138	0.77622
1191.85282	0.77212
1189.92425	0.76966
1187.99569	0.76848
1186.06712	0.76820
1184.13856	0.76870
1182.21000	0.77015
1180.28143	0.77289
1178.35287	0.77741
1176.42430	0.78397
1174.49574	0.79169
1172.56717	0.79902
1170.63861	0.80597
1168.71004	0.81398
1166.78148	0.82349
1164.85292	0.83331
1162.92435	0.84168
1160.99579	0.84670
1159.06722	0.84717
1157.13866	0.84303
1155.21009	0.83509
1153.28153	0.82441
1151.35296	0.81177
1149.42440	0.79814
1147.49584	0.78555
1145.56727	0.77606
1143.63871	0.77047
1141.71014	0.76898
1139.78158	0.77171
1137.85301	0.77806
1135.92445	0.78710
1133.99588	0.79839
1132.06732	0.81207
1130.13876	0.82790
1128.21019	0.84460
1126.28163	0.86066
1124.35306	0.87471
1122.42450	0.88594
1120.49593	0.89404
1118.56737	0.89879
1116.63880	0.90031
1114.71024	0.89848
1112.78168	0.89347
1110.85311	0.88666
1108.92455	0.87917
1106.99598	0.87179
1105.06742	0.86517
1103.13885	0.85959
1101.21029	0.85532
1099.28172	0.85296
1097.35316	0.85379
1095.42460	0.85886
1093.49603	0.86753
1091.56747	0.87851
1089.63890	0.89147
1087.71034	0.90636
1085.78177	0.92224
1083.85321	0.93744
1081.92464	0.95022
1079.99608	0.95888
1078.06752	0.96271
1076.13895	0.96214
1074.21039	0.95788
1072.28182	0.95049
1070.35326	0.94064
1068.42469	0.92978
1066.49613	0.91873
1064.56756	0.90748
1062.63900	0.89644
1060.71044	0.88528
1058.78187	0.87340
1056.85331	0.86144
1054.92474	0.85061
1052.99618	0.84165
1051.06761	0.83446
1049.13905	0.82872
1047.21049	0.82523
1045.28192	0.82552
1043.35336	0.82934
1041.42479	0.83471
1039.49623	0.84010
1037.56766	0.84444
1035.63910	0.84716
1033.71053	0.84830
1031.78197	0.84762
1029.85341	0.84481
1027.92484	0.83985
1025.99628	0.83291
1024.06771	0.82490
1022.13915	0.81758
1020.21058	0.81211
1018.28202	0.80800
1016.35345	0.80352
1014.42489	0.79649
1012.49633	0.78566
1010.56776	0.77125
1008.63920	0.75420
1006.71063	0.73609
1004.78207	0.71851
1002.85350	0.70245
1000.92494	0.68854
998.99637	0.67695
997.06781	0.66752
995.13925	0.65961
993.21068	0.65177
991.28212	0.64292
989.35355	0.63328
987.42499	0.62380
985.49642	0.61559
983.56786	0.60940
981.63929	0.60515
979.71073	0.60235
977.78217	0.60044
975.85360	0.59850
973.92504	0.59548
971.99647	0.59112
970.06791	0.58593
968.13934	0.58064
966.21078	0.57622
964.28221	0.57420
962.35365	0.57617
960.42509	0.58329
958.49652	0.59499
956.56796	0.60751
954.63939	0.61600
952.71083	0.61823
950.78226	0.61522
948.85370	0.60966
946.92513	0.60396
944.99657	0.59936
943.06801	0.59617
941.13944	0.59371
939.21088	0.59090
937.28231	0.58738
935.35375	0.58353
933.42518	0.57940
931.49662	0.57486
929.56805	0.57038
927.63949	0.56626
925.71093	0.56239
923.78236	0.55879
921.85380	0.55537
919.92523	0.55150
917.99667	0.54714
916.06810	0.54321
914.13954	0.54039
912.21098	0.53914
910.28241	0.54000
908.35385	0.54299
906.42528	0.54783
904.49672	0.55414
902.56815	0.56130
900.63959	0.56856
898.71102	0.57529
896.78246	0.58110
894.85390	0.58583
892.92533	0.58937
890.99677	0.59191
889.06820	0.59382
887.13964	0.59509
885.21107	0.59576
883.28251	0.59628
881.35394	0.59639
879.42538	0.59531
877.49682	0.59301
875.56825	0.59000
873.63969	0.58634
871.71112	0.58187
869.78256	0.57693
867.85399	0.57212
865.92543	0.56794
863.99686	0.56450
862.06830	0.56160
860.13974	0.55955
858.21117	0.55896
856.28261	0.55987
854.35404	0.56187
852.42548	0.56452
850.49691	0.56759
848.56835	0.57127
846.63978	0.57575
844.71122	0.58119
842.78266	0.58789
840.85409	0.59591
838.92553	0.60476
836.99696	0.61387
835.06840	0.62332
833.13983	0.63321
831.21127	0.64278
829.28270	0.65144
827.35414	0.65956
825.42558	0.66756
823.49701	0.67482
821.56845	0.68071
819.63988	0.68543
817.71132	0.68887
815.78275	0.69092
813.85419	0.69194
811.92562	0.69193
809.99706	0.69081
808.06850	0.68917
806.13993	0.68734
804.21137	0.68512
802.28280	0.68250
800.35424	0.67989
798.42567	0.67778
796.49711	0.67653
794.56854	0.67658
792.63998	0.67824
790.71142	0.68120
788.78285	0.68487
786.85429	0.68926
784.92572	0.69488
782.99716	0.70131
781.06859	0.70770
779.14003	0.71397
777.21147	0.72040
775.28290	0.72712
773.35434	0.73353
771.42577	0.73889
769.49721	0.74331
767.56864	0.74680
765.64008	0.74947
763.71151	0.75189
761.78295	0.75389
759.85439	0.75508
757.92582	0.75577
755.99726	0.75604
754.06869	0.75575
752.14013	0.75500
750.21156	0.75389
748.28300	0.75286
746.35443	0.75194
744.42587	0.75064
742.49731	0.74912
740.56874	0.74781
738.64018	0.74698
736.71161	0.74701
734.78305	0.74817
732.85448	0.75085
730.92592	0.75537
728.99735	0.76112
727.06879	0.76754
725.14023	0.77461
723.21166	0.78227
721.28310	0.79010
719.35453	0.79686
717.42597	0.80232
715.49740	0.80793
713.56884	0.81464
711.64027	0.82202
709.71171	0.82850
707.78315	0.83343
705.85458	0.83795
703.92602	0.84225
701.99745	0.84484
700.06889	0.84515
698.14032	0.84377
696.21176	0.84130
694.28319	0.83862
692.35463	0.83593
690.42607	0.83280
688.49750	0.82939
686.56894	0.82605
684.64037	0.82295
682.71181	0.82078
680.78324	0.82003
678.85468	0.81942
676.92611	0.81793
674.99755	0.81703
673.06899	0.81758
671.14042	0.81904
669.21186	0.82306
667.28329	0.82850
665.35473	0.83037
663.42616	0.83219
661.49760	0.83594
659.56903	0.84046
657.64047	0.84443
655.71191	0.84695
653.78334	0.84836
651.85478	0.85086
649.92621	0.85532
647.99765	0.85975
646.06908	0.86296
644.14052	0.86627
642.21195	0.87054
640.28339	0.87469
638.35483	0.87727
636.42626	0.87748
634.49770	0.87467
632.56913	0.87072
630.64057	0.86833
628.71200	0.86652
626.78344	0.86376
624.85488	0.86090
622.92631	0.85805
620.99775	0.85516
619.06918	0.85392
617.14062	0.85422
615.21205	0.85486
613.28349	0.85602
611.35492	0.85692
609.42636	0.85757
607.49780	0.86005
605.56923	0.86449
603.64067	0.86845
601.71210	0.87076
599.78354	0.87127
