3997.91406	0.64402
3995.98550	0.64285
3994.05693	0.64253
3992.12837	0.64259
3990.19980	0.64306
3988.27124	0.64294
3986.34268	0.64234
3984.41411	0.64220
3982.48555	0.64183
3980.55698	0.63994
3978.62842	0.63709
3976.69985	0.63574
3974.77129	0.63593
3972.84272	0.63552
3970.91416	0.63534
3968.98560	0.63625
3967.05703	0.63680
3965.12847	0.63622
3963.19990	0.63493
3961.27134	0.63267
3959.34277	0.62992
3957.41421	0.62896
3955.48564	0.62915
3953.55708	0.62809
3951.62852	0.62660
3949.69995	0.62656
3947.77139	0.62699
3945.84282	0.62592
3943.91426	0.62524
3941.98569	0.62586
3940.05713	0.62549
3938.12856	0.62474
3936.20000	0.62328
3934.27144	0.62052
3932.34287	0.62063
3930.41431	0.62408
3928.48574	0.62453
3926.55718	0.62189
3924.62861	0.62051
3922.70005	0.62001
3920.77148	0.61877
3918.84292	0.62000
3916.91436	0.62407
3914.98579	0.62528
3913.05723	0.62293
3911.12866	0.62032
3909.20010	0.61741
3907.27153	0.61311
3905.34297	0.60963
3903.41440	0.60881
3901.48584	0.61011
3899.55728	0.61552
3897.62871	0.61943
3895.70015	0.61545
3893.77158	0.60911
3891.84302	0.61006
3889.91445	0.61208
3887.98589	0.60758
3886.05733	0.60529
3884.12876	0.60690
3882.20020	0.60609
3880.27163	0.60757
3878.34307	0.60799
3876.41450	0.60424
3874.48594	0.60107
3872.55737	0.59836
3870.62881	0.59876
3868.70025	0.60256
3866.77168	0.60080
3864.84312	0.59939
3862.91455	0.60327
3860.98599	0.60293
3859.05742	0.59628
3857.12886	0.58500
3855.20029	0.57390
3853.27173	0.58572
3851.34317	0.60267
3849.41460	0.60199
3847.48604	0.59645
3845.55747	0.59077
3843.62891	0.58560
3841.70034	0.58214
3839.77178	0.58337
3837.84321	0.59070
3835.91465	0.59582
3833.98609	0.59704
3832.05752	0.59776
3830.12896	0.59682
3828.20039	0.59493
3826.27183	0.59323
3824.34326	0.58714
3822.41470	0.57993
3820.48613	0.58278
3818.55757	0.58654
3816.62901	0.59031
3814.70044	0.59594
3812.77188	0.59426
3810.84331	0.58709
3808.91475	0.58069
3806.98618	0.57998
3805.05762	0.57742
3803.12905	0.57252
3801.20049	0.57884
3799.27193	0.58553
3797.34336	0.58687
3795.41480	0.58947
3793.48623	0.58896
3791.55767	0.58533
3789.62910	0.58205
3787.70054	0.58031
3785.77197	0.58160
3783.84341	0.58312
3781.91485	0.58076
3779.98628	0.58021
3778.05772	0.58374
3776.12915	0.58366
3774.20059	0.57904
3772.27202	0.57342
3770.34346	0.57155
3768.41489	0.57346
3766.48633	0.57488
3764.55777	0.57496
3762.62920	0.57175
3760.70064	0.56839
3758.77207	0.56990
3756.84351	0.56987
3754.91494	0.56330
3752.98638	0.55448
3751.05781	0.55638
3749.12925	0.56557
3747.20069	0.56500
3745.27212	0.56614
3743.34356	0.57275
3741.41499	0.57034
3739.48643	0.56085
3737.55786	0.55191
3735.62930	0.55323
3733.70074	0.56552
3731.77217	0.57175
3729.84361	0.56854
3727.91504	0.56277
3725.98648	0.56052
3724.05791	0.56198
3722.12935	0.56504
3720.20078	0.56820
3718.27222	0.56817
3716.34366	0.56360
3714.41509	0.55598
3712.48653	0.55306
3710.55796	0.56193
3708.62940	0.56795
3706.70083	0.56693
3704.77227	0.56349
3702.84370	0.56274
3700.91514	0.56553
3698.98658	0.56572
3697.05801	0.56434
3695.12945	0.56241
3693.20088	0.55774
3691.27232	0.55488
3689.34375	0.56435
3687.41519	0.57481
3685.48662	0.57521
3683.55806	0.57126
3681.62950	0.56698
3679.70093	0.56230
3677.77237	0.55762
3675.84380	0.56417
3673.91524	0.57358
3671.98667	0.57347
3670.05811	0.58135
3668.12954	0.59077
3666.20098	0.58984
3664.27242	0.58765
3662.34385	0.58769
3660.41529	0.58783
3658.48672	0.58872
3656.55816	0.59490
3654.62959	0.59859
3652.70103	0.59246
3650.77246	0.58850
3648.84390	0.60924
3646.91534	0.62925
3644.98677	0.63211
3643.05821	0.63158
3641.12964	0.63384
3639.20108	0.63836
3637.27251	0.64233
3635.34395	0.64479
3633.41538	0.64485
3631.48682	0.64238
3629.55826	0.64945
3627.62969	0.66788
3625.70113	0.67341
3623.77256	0.67133
3621.84400	0.66937
3619.91543	0.67413
3617.98687	0.68475
3616.05830	0.68994
3614.12974	0.69313
3612.20118	0.69787
3610.27261	0.70267
3608.34405	0.71046
3606.41548	0.71803
3604.48692	0.72094
3602.55835	0.72393
3600.62979	0.73020
3598.70123	0.73568
3596.77266	0.73839
3594.84410	0.74352
3592.91553	0.75020
3590.98697	0.75201
3589.05840	0.75499
3587.12984	0.76961
3585.20127	0.78311
3583.27271	0.78788
3581.34415	0.79074
3579.41558	0.79511
3577.48702	0.80089
3575.55845	0.80720
3573.62989	0.81293
3571.70132	0.81532
3569.77276	0.81461
3567.84419	0.81983
3565.91563	0.83361
3563.98707	0.84185
3562.05850	0.84719
3560.12994	0.85453
3558.20137	0.86136
3556.27281	0.86610
3554.34424	0.87159
3552.41568	0.87999
3550.48711	0.88702
3548.55855	0.89097
3546.62999	0.89698
3544.70142	0.90634
3542.77286	0.91484
3540.84429	0.92179
3538.91573	0.92821
3536.98716	0.93511
3535.05860	0.94237
3533.13003	0.94789
3531.20147	0.95226
3529.27291	0.95920
3527.34434	0.96905
3525.41578	0.97818
3523.48721	0.98689
3521.55865	0.99501
3519.63008	1.00028
3517.70152	1.00608
3515.77295	1.01578
3513.84439	1.02685
3511.91583	1.03671
3509.98726	1.04648
3508.05870	1.05575
3506.13013	1.06262
3504.20157	1.07152
3502.27300	1.08552
3500.34444	1.09847
3498.41587	1.10972
3496.48731	1.12372
3494.55875	1.13725
3492.63018	1.14516
3490.70162	1.15110
3488.77305	1.15881
3486.84449	1.16592
3484.91592	1.17159
3482.98736	1.17899
3481.05879	1.18796
3479.13023	1.19472
3477.20167	1.19879
3475.27310	1.20106
3473.34454	1.20211
3471.41597	1.20414
3469.48741	1.21050
3467.55884	1.22022
3465.63028	1.22618
3463.70171	1.22787
3461.77315	1.23216
3459.84459	1.24003
3457.91602	1.24862
3455.98746	1.25660
3454.05889	1.26138
3452.13033	1.26412
3450.20176	1.27048
3448.27320	1.27970
3446.34464	1.28417
3444.41607	1.28304
3442.48751	1.28433
3440.55894	1.29047
3438.63038	1.29507
3436.70181	1.29548
3434.77325	1.29656
3432.84468	1.30032
3430.91612	1.30365
3428.98756	1.30552
3427.05899	1.30505
3425.13043	1.30210
3423.20186	1.30093
3421.27330	1.30104
3419.34473	1.29769
3417.41617	1.29495
3415.48760	1.29891
3413.55904	1.30557
3411.63048	1.30799
3409.70191	1.30656
3407.77335	1.30438
3405.84478	1.30222
3403.91622	1.30052
3401.98765	1.30140
3400.05909	1.30525
3398.13052	1.31001
3396.20196	1.31481
3394.27340	1.31858
3392.34483	1.31855
3390.41627	1.31396
3388.48770	1.31073
3386.55914	1.31447
3384.63057	1.32159
3382.70201	1.32454
3380.77344	1.32194
3378.84488	1.31823
3376.91632	1.31780
3374.98775	1.32250
3373.05919	1.32959
3371.13062	1.33388
3369.20206	1.33490
3367.27349	1.33487
3365.34493	1.33626
3363.41636	1.34054
3361.48780	1.34567
3359.55924	1.34960
3357.63067	1.35132
3355.70211	1.35062
3353.77354	1.34932
3351.84498	1.35098
3349.91641	1.35812
3347.98785	1.36826
3346.05928	1.37633
3344.13072	1.38062
3342.20216	1.38331
3340.27359	1.38591
3338.34503	1.38946
3336.41646	1.39440
3334.48790	1.39879
3332.55933	1.40256
3330.63077	1.40637
3328.70220	1.41259
3326.77364	1.42406
3324.84508	1.43498
3322.91651	1.43843
3320.98795	1.43582
3319.05938	1.43363
3317.13082	1.43755
3315.20225	1.44572
3313.27369	1.45450
3311.34513	1.46434
3309.41656	1.47261
3307.48800	1.47470
3305.55943	1.47166
3303.63087	1.46928
3301.70230	1.47458
3299.77374	1.48494
3297.84517	1.48806
3295.91661	1.48674
3293.98805	1.49372
3292.05948	1.50568
3290.13092	1.51220
3288.20235	1.51120
3286.27379	1.50626
3284.34522	1.50400
3282.41666	1.50758
3280.48809	1.50994
3278.55953	1.50496
3276.63097	1.49797
3274.70240	1.49451
3272.77384	1.49375
3270.84527	1.49362
3268.91671	1.49022
3266.98814	1.48252
3265.05958	1.47651
3263.13101	1.47496
3261.20245	1.47156
3259.27389	1.45970
3257.34532	1.44359
3255.41676	1.42979
3253.48819	1.41757
3251.55963	1.40707
3249.63106	1.40002
3247.70250	1.39451
3245.77393	1.38842
3243.84537	1.38152
3241.91681	1.37375
3239.98824	1.36672
3238.05968	1.36175
3236.13111	1.35425
3234.20255	1.34234
3232.27398	1.33222
3230.34542	1.32618
3228.41685	1.32050
3226.48829	1.31332
3224.55973	1.30671
3222.63116	1.30204
3220.70260	1.29591
3218.77403	1.28622
3216.84547	1.27786
3214.91690	1.27442
3212.98834	1.27321
3211.05977	1.27197
3209.13121	1.26907
3207.20265	1.26210
3205.27408	1.25288
3203.34552	1.24484
3201.41695	1.23901
3199.48839	1.23511
3197.55982	1.23308
3195.63126	1.23151
3193.70269	1.22649
3191.77413	1.21799
3189.84557	1.21058
3187.91700	1.20610
3185.98844	1.20211
3184.05987	1.19646
3182.13131	1.18962
3180.20274	1.18227
3178.27418	1.17543
3176.34562	1.17025
3174.41705	1.16587
3172.48849	1.16155
3170.55992	1.15740
3168.63136	1.15355
3166.70279	1.14975
3164.77423	1.14521
3162.84566	1.14053
3160.91710	1.13619
3158.98854	1.13164
3157.05997	1.12813
3155.13141	1.12600
3153.20284	1.12268
3151.27428	1.11760
3149.34571	1.11325
3147.41715	1.11188
3145.48858	1.11345
3143.56002	1.11420
3141.63146	1.11055
3139.70289	1.10494
3137.77433	1.10166
3135.84576	1.10116
3133.91720	1.10093
3131.98863	1.09794
3130.06007	1.09371
3128.13150	1.09260
3126.20294	1.09426
3124.27438	1.09600
3122.34581	1.09776
3120.41725	1.09976
3118.48868	1.10062
3116.56012	1.10004
3114.63155	1.09986
3112.70299	1.10081
3110.77442	1.10183
3108.84586	1.10220
3106.91730	1.10196
3104.98873	1.10078
3103.06017	1.09800
3101.13160	1.09490
3099.20304	1.09339
3097.27447	1.09314
3095.34591	1.09333
3093.41734	1.09309
3091.48878	1.09054
3089.56022	1.08604
3087.63165	1.08294
3085.70309	1.08226
3083.77452	1.08149
3081.84596	1.07915
3079.91739	1.07630
3077.98883	1.07349
3076.06026	1.06998
3074.13170	1.06619
3072.20314	1.06334
3070.27457	1.06109
3068.34601	1.05712
3066.41744	1.05126
3064.48888	1.04739
3062.56031	1.04672
3060.63175	1.04617
3058.70318	1.04350
3056.77462	1.03926
3054.84606	1.03570
3052.91749	1.03340
3050.98893	1.03024
3049.06036	1.02529
3047.13180	1.01990
3045.20323	1.01504
3043.27467	1.01093
3041.34610	1.00739
3039.41754	1.00362
3037.48898	0.99890
3035.56041	0.99382
3033.63185	0.99009
3031.70328	0.98757
3029.77472	0.98446
3027.84615	0.98067
3025.91759	0.97705
3023.98903	0.97331
3022.06046	0.96957
3020.13190	0.96694
3018.20333	0.96565
3016.27477	0.96480
3014.34620	0.96324
3012.41764	0.96063
3010.48907	0.95842
3008.56051	0.95760
3006.63195	0.95732
3004.70338	0.95662
3002.77482	0.95537
3000.84625	0.95374
2998.91769	0.95213
2996.98912	0.95156
2995.06056	0.95277
2993.13199	0.95511
2991.20343	0.95764
2989.27487	0.96067
2987.34630	0.96456
2985.41774	0.96887
2983.48917	0.97415
2981.56061	0.98083
2979.63204	0.98808
2977.70348	0.99652
2975.77491	1.00683
2973.84635	1.01633
2971.91779	1.02296
2969.98922	1.02951
2968.06066	1.03775
2966.13209	1.04521
2964.20353	1.05067
2962.27496	1.05455
2960.34640	1.05514
2958.41783	1.05112
2956.48927	1.04476
2954.56071	1.03910
2952.63214	1.03514
2950.70358	1.03214
2948.77501	1.02959
2946.84645	1.02872
2944.91788	1.03110
2942.98932	1.03672
2941.06075	1.04415
2939.13219	1.05220
2937.20363	1.06084
2935.27506	1.07011
2933.34650	1.07860
2931.41793	1.08522
2929.48937	1.09139
2927.56080	1.09770
2925.63224	1.10287
2923.70367	1.10686
2921.77511	1.10907
2919.84655	1.10745
2917.91798	1.10102
2915.98942	1.08858
2914.06085	1.06975
2912.13229	1.04878
2910.20372	1.03070
2908.27516	1.01653
2906.34659	1.00530
2904.41803	0.99674
2902.48947	0.99069
2900.56090	0.98626
2898.63234	0.98214
2896.70377	0.97827
2894.77521	0.97541
2892.84664	0.97360
2890.91808	0.97179
2888.98952	0.96864
2887.06095	0.96458
2885.13239	0.96168
2883.20382	0.96084
2881.27526	0.96131
2879.34669	0.96195
2877.41813	0.96197
2875.48956	0.96122
2873.56100	0.95951
2871.63244	0.95589
2869.70387	0.95061
2867.77531	0.94473
2865.84674	0.93774
2863.91818	0.93102
2861.98961	0.92805
2860.06105	0.92931
2858.13248	0.93350
2856.20392	0.93906
2854.27536	0.94421
2852.34679	0.94879
2850.41823	0.95017
2848.48966	0.94101
2846.56110	0.92051
2844.63253	0.89817
2842.70397	0.88109
2840.77540	0.86922
2838.84684	0.86018
2836.91828	0.85286
2834.98971	0.84713
2833.06115	0.84218
2831.13258	0.83772
2829.20402	0.83400
2827.27545	0.83037
2825.34689	0.82661
2823.41832	0.82320
2821.48976	0.81988
2819.56120	0.81611
2817.63263	0.81206
2815.70407	0.80783
2813.77550	0.80357
2811.84694	0.80002
2809.91837	0.79708
2807.98981	0.79373
2806.06124	0.78974
2804.13268	0.78595
2802.20412	0.78266
2800.27555	0.77948
2798.34699	0.77671
2796.41842	0.77445
2794.48986	0.77222
2792.56129	0.76994
2790.63273	0.76788
2788.70416	0.76623
2786.77560	0.76500
2784.84704	0.76391
2782.91847	0.76250
2780.98991	0.76062
2779.06134	0.75859
2777.13278	0.75700
2775.20421	0.75594
2773.27565	0.75469
2771.34708	0.75279
2769.41852	0.75036
2767.48996	0.74773
2765.56139	0.74558
2763.63283	0.74413
2761.70426	0.74283
2759.77570	0.74104
2757.84713	0.73864
2755.91857	0.73652
2753.99001	0.73528
2752.06144	0.73422
2750.13288	0.73318
2748.20431	0.73235
2746.27575	0.73141
2744.34718	0.73057
2742.41862	0.73000
2740.49005	0.72923
2738.56149	0.72794
2736.63293	0.72645
2734.70436	0.72509
2732.77580	0.72368
2730.84723	0.72216
2728.91867	0.72034
2726.99010	0.71793
2725.06154	0.71563
2723.13297	0.71386
2721.20441	0.71169
2719.27585	0.70881
2717.34728	0.70614
2715.41872	0.70393
2713.49015	0.70138
2711.56159	0.69853
2709.63302	0.69605
2707.70446	0.69386
2705.77589	0.69183
2703.84733	0.69024
2701.91877	0.68910
2699.99020	0.68840
2698.06164	0.68793
2696.13307	0.68705
2694.20451	0.68594
2692.27594	0.68550
2690.34738	0.68557
2688.41881	0.68511
2686.49025	0.68384
2684.56169	0.68241
2682.63312	0.68123
2680.70456	0.68021
2678.77599	0.67934
2676.84743	0.67862
2674.91886	0.67756
2672.99030	0.67590
2671.06173	0.67436
2669.13317	0.67337
2667.20461	0.67226
2665.27604	0.67064
2663.34748	0.66868
2661.41891	0.66666
2659.49035	0.66513
2657.56178	0.66430
2655.63322	0.66370
2653.70465	0.66279
2651.77609	0.66163
2649.84753	0.66075
2647.91896	0.66031
2645.99040	0.66001
2644.06183	0.65955
2642.13327	0.65896
2640.20470	0.65846
2638.27614	0.65801
2636.34757	0.65714
2634.41901	0.65586
2632.49045	0.65488
2630.56188	0.65421
2628.63332	0.65302
2626.70475	0.65122
2624.77619	0.64947
2622.84762	0.64812
2620.91906	0.64706
2618.99049	0.64579
2617.06193	0.64408
2615.13337	0.64219
2613.20480	0.64040
2611.27624	0.63870
2609.34767	0.63688
2607.41911	0.63501
2605.49054	0.63350
2603.56198	0.63224
2601.63342	0.63116
2599.70485	0.63026
2597.77629	0.62920
2595.84772	0.62782
2593.91916	0.62634
2591.99059	0.62532
2590.06203	0.62501
2588.13346	0.62474
2586.20490	0.62400
2584.27634	0.62309
2582.34777	0.62222
2580.41921	0.62115
2578.49064	0.62011
2576.56208	0.61938
2574.63351	0.61861
2572.70495	0.61764
2570.77638	0.61664
2568.84782	0.61575
2566.91926	0.61485
2564.99069	0.61376
2563.06213	0.61254
2561.13356	0.61128
2559.20500	0.61015
2557.27643	0.60937
2555.34787	0.60873
2553.41930	0.60767
2551.49074	0.60620
2549.56218	0.60502
2547.63361	0.60430
2545.70505	0.60357
2543.77648	0.60296
2541.84792	0.60288
2539.91935	0.60299
2537.99079	0.60280
2536.06222	0.60226
2534.13366	0.60125
2532.20510	0.59990
2530.27653	0.59870
2528.34797	0.59783
2526.41940	0.59728
2524.49084	0.59695
2522.56227	0.59658
2520.63371	0.59602
2518.70514	0.59502
2516.77658	0.59354
2514.84802	0.59205
2512.91945	0.59089
2510.99089	0.58987
2509.06232	0.58870
2507.13376	0.58724
2505.20519	0.58563
2503.27663	0.58440
2501.34806	0.58371
2499.41950	0.58297
2497.49094	0.58193
2495.56237	0.58090
2493.63381	0.58001
2491.70524	0.57926
2489.77668	0.57883
2487.84811	0.57870
2485.91955	0.57830
2483.99098	0.57749
2482.06242	0.57683
2480.13386	0.57641
2478.20529	0.57573
2476.27673	0.57487
2474.34816	0.57411
2472.41960	0.57310
2470.49103	0.57178
2468.56247	0.57051
2466.63391	0.56942
2464.70534	0.56832
2462.77678	0.56700
2460.84821	0.56561
2458.91965	0.56441
2456.99108	0.56325
2455.06252	0.56208
2453.13395	0.56109
2451.20539	0.56015
2449.27683	0.55904
2447.34826	0.55790
2445.41970	0.55680
2443.49113	0.55594
2441.56257	0.55537
2439.63400	0.55467
2437.70544	0.55399
2435.77687	0.55348
2433.84831	0.55277
2431.91975	0.55185
2429.99118	0.55097
2428.06262	0.55016
2426.13405	0.54933
2424.20549	0.54840
2422.27692	0.54738
2420.34836	0.54630
2418.41979	0.54510
2416.49123	0.54372
2414.56267	0.54220
2412.63410	0.54087
2410.70554	0.53989
2408.77697	0.53906
2406.84841	0.53819
2404.91984	0.53718
2402.99128	0.53598
2401.06271	0.53499
2399.13415	0.53459
2397.20559	0.53447
2395.27702	0.53424
2393.34846	0.53402
2391.41989	0.53386
2389.49133	0.53371
2387.56276	0.53354
2385.63420	0.53320
2383.70563	0.53271
2381.77707	0.53232
2379.84851	0.53211
2377.91994	0.53207
2375.99138	0.53255
2374.06281	0.53333
2372.13425	0.53363
2370.20568	0.53392
2368.27712	0.53454
2366.34855	0.53476
2364.41999	0.53495
2362.49143	0.53543
2360.56286	0.53563
2358.63430	0.53540
2356.70573	0.53483
2354.77717	0.53330
2352.84860	0.53104
2350.92004	0.52799
2348.99147	0.52422
2347.06291	0.52147
2345.13435	0.52160
2343.20578	0.52338
2341.27722	0.52446
2339.34865	0.52481
2337.42009	0.52451
2335.49152	0.52400
2333.56296	0.52344
2331.63440	0.52246
2329.70583	0.52139
2327.77727	0.52075
2325.84870	0.52055
2323.92014	0.52084
2321.99157	0.52106
2320.06301	0.52015
2318.13444	0.51821
2316.20588	0.51656
2314.27732	0.51583
2312.34875	0.51548
2310.42019	0.51506
2308.49162	0.51425
2306.56306	0.51303
2304.63449	0.51196
2302.70593	0.51125
2300.77736	0.51058
2298.84880	0.50978
2296.92024	0.50877
2294.99167	0.50773
2293.06311	0.50699
2291.13454	0.50633
2289.20598	0.50540
2287.27741	0.50453
2285.34885	0.50393
2283.42028	0.50337
2281.49172	0.50291
2279.56316	0.50267
2277.63459	0.50234
2275.70603	0.50174
2273.77746	0.50114
2271.84890	0.50061
2269.92033	0.50008
2267.99177	0.49953
2266.06320	0.49887
2264.13464	0.49817
2262.20608	0.49748
2260.27751	0.49669
2258.34895	0.49597
2256.42038	0.49534
2254.49182	0.49455
2252.56325	0.49377
2250.63469	0.49311
2248.70612	0.49232
2246.77756	0.49153
2244.84900	0.49092
2242.92043	0.49030
2240.99187	0.48952
2239.06330	0.48877
2237.13474	0.48811
2235.20617	0.48741
2233.27761	0.48676
2231.34904	0.48646
2229.42048	0.48641
2227.49192	0.48624
2225.56335	0.48598
2223.63479	0.48587
2221.70622	0.48597
2219.77766	0.48628
2217.84909	0.48667
2215.92053	0.48678
2213.99196	0.48641
2212.06340	0.48578
2210.13484	0.48518
2208.20627	0.48478
2206.27771	0.48457
2204.34914	0.48436
2202.42058	0.48399
2200.49201	0.48349
2198.56345	0.48301
2196.63488	0.48259
2194.70632	0.48227
2192.77776	0.48205
2190.84919	0.48182
2188.92063	0.48153
2186.99206	0.48127
2185.06350	0.48112
2183.13493	0.48105
2181.20637	0.48098
2179.27781	0.48084
2177.34924	0.48068
2175.42068	0.48051
2173.49211	0.48029
2171.56355	0.48004
2169.63498	0.47961
2167.70642	0.47894
2165.77785	0.47835
2163.84929	0.47785
2161.92073	0.47725
2159.99216	0.47654
2158.06360	0.47587
2156.13503	0.47521
2154.20647	0.47451
2152.27790	0.47389
2150.34934	0.47342
2148.42077	0.47295
2146.49221	0.47235
2144.56365	0.47163
2142.63508	0.47091
2140.70652	0.47048
2138.77795	0.47035
2136.84939	0.47032
2134.92082	0.47027
2132.99226	0.47013
2131.06369	0.46999
2129.13513	0.46993
2127.20657	0.46993
2125.27800	0.46998
2123.34944	0.46992
2121.42087	0.46953
2119.49231	0.46885
2117.56374	0.46820
2115.63518	0.46771
2113.70661	0.46718
2111.77805	0.46658
2109.84949	0.46603
2107.92092	0.46539
2105.99236	0.46461
2104.06379	0.46387
2102.13523	0.46320
2100.20666	0.46261
2098.27810	0.46222
2096.34953	0.46196
2094.42097	0.46167
2092.49241	0.46135
2090.56384	0.46118
2088.63528	0.46104
2086.70671	0.46082
2084.77815	0.46060
2082.84958	0.46044
2080.92102	0.46037
2078.99245	0.46026
2077.06389	0.45998
2075.13533	0.45970
2073.20676	0.45945
2071.27820	0.45916
2069.34963	0.45874
2067.42107	0.45808
2065.49250	0.45747
2063.56394	0.45706
2061.63537	0.45649
2059.70681	0.45585
2057.77825	0.45524
2055.84968	0.45441
2053.92112	0.45348
2051.99255	0.45279
2050.06399	0.45233
2048.13542	0.45186
2046.20686	0.45116
2044.27830	0.45025
2042.34973	0.44946
2040.42117	0.44903
2038.49260	0.44856
2036.56404	0.44783
2034.63547	0.44708
2032.70691	0.44655
2030.77834	0.44609
2028.84978	0.44545
2026.92122	0.44469
2024.99265	0.44403
2023.06409	0.44339
2021.13552	0.44246
2019.20696	0.44139
2017.27839	0.44055
2015.34983	0.43976
2013.42126	0.43897
2011.49270	0.43836
2009.56414	0.43771
2007.63557	0.43689
2005.70701	0.43612
2003.77844	0.43546
2001.84988	0.43475
1999.92131	0.43411
1997.99275	0.43369
1996.06418	0.43297
1994.13562	0.43202
1992.20706	0.43160
1990.27849	0.43145
1988.34993	0.43096
1986.42136	0.43032
1984.49280	0.42966
1982.56423	0.42904
1980.63567	0.42856
1978.70710	0.42823
1976.77854	0.42789
1974.84998	0.42745
1972.92141	0.42689
1970.99285	0.42627
1969.06428	0.42592
1967.13572	0.42599
1965.20715	0.42578
1963.27859	0.42496
1961.35002	0.42415
1959.42146	0.42357
1957.49290	0.42298
1955.56433	0.42237
1953.63577	0.42176
1951.70720	0.42097
1949.77864	0.41986
1947.85007	0.41845
1945.92151	0.41708
1943.99294	0.41622
1942.06438	0.41580
1940.13582	0.41476
1938.20725	0.41323
1936.27869	0.41204
1934.35012	0.41120
1932.42156	0.41053
1930.49299	0.41001
1928.56443	0.40943
1926.63586	0.40860
1924.70730	0.40800
1922.77874	0.40797
1920.85017	0.40772
1918.92161	0.40750
1916.99304	0.40781
1915.06448	0.40759
1913.13591	0.40679
1911.20735	0.40615
1909.27878	0.40586
1907.35022	0.40540
1905.42166	0.40448
1903.49309	0.40356
1901.56453	0.40293
1899.63596	0.40234
1897.70740	0.40170
1895.77883	0.40128
1893.85027	0.40072
1891.92171	0.39976
1889.99314	0.39943
1888.06458	0.39953
1886.13601	0.39890
1884.20745	0.39803
1882.27888	0.39740
1880.35032	0.39690
1878.42175	0.39649
1876.49319	0.39602
1874.56463	0.39515
1872.63606	0.39372
1870.70750	0.39262
1868.77893	0.39323
1866.85037	0.39389
1864.92180	0.39275
1862.99324	0.39107
1861.06467	0.38973
1859.13611	0.38871
1857.20755	0.38778
1855.27898	0.38677
1853.35042	0.38580
1851.42185	0.38491
1849.49329	0.38412
1847.56472	0.38335
1845.63616	0.38331
1843.70759	0.38445
1841.77903	0.38466
1839.85047	0.38377
1837.92190	0.38342
1835.99334	0.38359
1834.06477	0.38306
1832.13621	0.38233
1830.20764	0.38319
1828.27908	0.38456
1826.35051	0.38478
1824.42195	0.38515
1822.49339	0.38525
1820.56482	0.38458
1818.63626	0.38415
1816.70769	0.38402
1814.77913	0.38362
1812.85056	0.38328
1810.92200	0.38345
1808.99343	0.38345
1807.06487	0.38274
1805.13631	0.38186
1803.20774	0.38154
1801.27918	0.38231
1799.35061	0.38321
1797.42205	0.38304
1795.49348	0.38224
1793.56492	0.38266
1791.63635	0.38539
1789.70779	0.38655
1787.77923	0.38586
1785.85066	0.38584
1783.92210	0.38658
1781.99353	0.38731
1780.06497	0.38826
1778.13640	0.38876
1776.20784	0.38838
1774.27927	0.38872
1772.35071	0.39149
1770.42215	0.39393
1768.49358	0.39421
1766.56502	0.39388
1764.63645	0.39377
1762.70789	0.39567
1760.77932	0.39949
1758.85076	0.40270
1756.92220	0.40696
1754.99363	0.41169
1753.06507	0.41590
1751.13650	0.42372
1749.20794	0.43630
1747.27937	0.44691
1745.35081	0.45436
1743.42224	0.46107
1741.49368	0.46810
1739.56512	0.47512
1737.63655	0.47913
1735.70799	0.48189
1733.77942	0.48975
1731.85086	0.49702
1729.92229	0.50056
1727.99373	0.50437
1726.06516	0.50865
1724.13660	0.51452
1722.20804	0.52046
1720.27947	0.52516
1718.35091	0.53465
1716.42234	0.55403
1714.49378	0.56892
1712.56521	0.57858
1710.63665	0.58932
1708.70808	0.60278
1706.77952	0.62351
1704.85096	0.65127
1702.92239	0.67601
1700.99383	0.71205
1699.06526	0.77136
1697.13670	0.82669
1695.20813	0.88056
1693.27957	0.92044
1691.35100	0.95188
1689.42244	0.99138
1687.49388	1.02902
1685.56531	1.06939
1683.63675	1.13726
1681.70818	1.18562
1679.77962	1.21013
1677.85105	1.23331
1675.92249	1.26439
1673.99392	1.29986
1672.06536	1.32472
1670.13680	1.34793
1668.20823	1.37519
1666.27967	1.39150
1664.35110	1.40434
1662.42254	1.42146
1660.49397	1.43451
1658.56541	1.44041
1656.63684	1.44264
1654.70828	1.44557
1652.77972	1.44979
1650.85115	1.44785
1648.92259	1.44220
1646.99402	1.43435
1645.06546	1.42908
1643.13689	1.42443
1641.20833	1.42013
1639.27976	1.41686
1637.35120	1.41544
1635.42264	1.41368
1633.49407	1.40627
1631.56551	1.39675
1629.63694	1.38611
1627.70838	1.37488
1625.77981	1.36151
1623.85125	1.34266
1621.92269	1.32042
1619.99412	1.30030
1618.06556	1.27612
1616.13699	1.24367
1614.20843	1.21707
1612.27986	1.19334
1610.35130	1.16650
1608.42273	1.14002
1606.49417	1.11894
1604.56561	1.10304
1602.63704	1.09048
1600.70848	1.08153
1598.77991	1.07571
1596.85135	1.07224
1594.92278	1.07071
1592.99422	1.06995
1591.06565	1.07006
1589.13709	1.07244
1587.20853	1.07745
1585.27996	1.08471
1583.35140	1.09449
1581.42283	1.10516
1579.49427	1.11416
1577.56570	1.12633
1575.63714	1.14754
1573.70857	1.16136
1571.78001	1.16901
1569.85145	1.18480
1567.92288	1.20400
1565.99432	1.21681
1564.06575	1.22859
1562.13719	1.23800
1560.20862	1.25015
1558.28006	1.27971
1556.35149	1.29241
1554.42293	1.29532
1552.49437	1.29932
1550.56580	1.30235
1548.63724	1.30109
1546.70867	1.29564
1544.78011	1.28805
1542.85154	1.28150
1540.92298	1.28101
1538.99441	1.27660
1537.06585	1.26737
1535.13729	1.25828
1533.20872	1.24843
1531.28016	1.23793
1529.35159	1.22848
1527.42303	1.22044
1525.49446	1.21332
1523.56590	1.20677
1521.63733	1.20185
1519.70877	1.19892
1517.78021	1.19260
1515.85164	1.18141
1513.92308	1.16819
1511.99451	1.15337
1510.06595	1.13773
1508.13738	1.11476
1506.20882	1.07531
1504.28025	1.05158
1502.35169	1.03581
1500.42313	1.01817
1498.49456	0.99722
1496.56600	0.97409
1494.63743	0.95425
1492.70887	0.93854
1490.78030	0.92199
1488.85174	0.90364
1486.92317	0.88981
1484.99461	0.87996
1483.06605	0.87251
1481.13748	0.86764
1479.20892	0.86579
1477.28035	0.86755
1475.35179	0.87421
1473.42322	0.88939
1471.49466	0.90729
1469.56610	0.91565
1467.63753	0.91996
1465.70897	0.92698
1463.78040	0.93557
1461.85184	0.93949
1459.92327	0.94074
1457.99471	0.94712
1456.06614	0.95769
1454.13758	0.95908
1452.20902	0.95680
1450.28045	0.95418
1448.35189	0.95121
1446.42332	0.94767
1444.49476	0.94364
1442.56619	0.93900
1440.63763	0.93373
1438.70906	0.92746
1436.78050	0.91985
1434.85194	0.91284
1432.92337	0.90720
1430.99481	0.90186
1429.06624	0.89736
1427.13768	0.89498
1425.20911	0.89505
1423.28055	0.89699
1421.35198	0.89973
1419.42342	0.90538
1417.49486	0.91256
1415.56629	0.91520
1413.63773	0.91507
1411.70916	0.91456
1409.78060	0.91469
1407.85203	0.91582
1405.92347	0.91828
1403.99490	0.92079
1402.06634	0.92142
1400.13778	0.92162
1398.20921	0.92290
1396.28065	0.92525
1394.35208	0.92808
1392.42352	0.93006
1390.49495	0.93218
1388.56639	0.93821
1386.63782	0.94926
1384.70926	0.95996
1382.78070	0.96857
1380.85213	0.97527
1378.92357	0.97759
1376.99500	0.97429
1375.06644	0.96592
1373.13787	0.95359
1371.20931	0.93914
1369.28074	0.92182
1367.35218	0.90248
1365.42362	0.88480
1363.49505	0.86898
1361.56649	0.85525
1359.63792	0.84538
1357.70936	0.83872
1355.78079	0.83438
1353.85223	0.83189
1351.92366	0.83049
1349.99510	0.82975
1348.06654	0.82942
1346.13797	0.82923
1344.20941	0.82935
1342.28084	0.83000
1340.35228	0.83208
1338.42371	0.83595
1336.49515	0.84057
1334.56659	0.84615
1332.63802	0.85334
1330.70946	0.86164
1328.78089	0.86945
1326.85233	0.87557
1324.92376	0.87982
1322.99520	0.88293
1321.06663	0.88627
1319.13807	0.89055
1317.20951	0.89467
1315.28094	0.89788
1313.35238	0.90114
1311.42381	0.90429
1309.49525	0.90608
1307.56668	0.90635
1305.63812	0.90563
1303.70955	0.90434
1301.78099	0.90220
1299.85243	0.89849
1297.92386	0.89319
1295.99530	0.88723
1294.06673	0.88166
1292.13817	0.87711
1290.20960	0.87394
1288.28104	0.87181
1286.35247	0.86993
1284.42391	0.86806
1282.49535	0.86677
1280.56678	0.86634
1278.63822	0.86666
1276.70965	0.86806
1274.78109	0.87098
1272.85252	0.87557
1270.92396	0.88162
1268.99539	0.88851
1267.06683	0.89544
1265.13827	0.90156
1263.20970	0.90634
1261.28114	0.90999
1259.35257	0.91311
1257.42401	0.91585
1255.49544	0.91796
1253.56688	0.91947
1251.63831	0.92091
1249.70975	0.92282
1247.78119	0.92492
1245.85262	0.92664
1243.92406	0.92774
1241.99549	0.92805
1240.06693	0.92737
1238.13836	0.92568
1236.20980	0.92289
1234.28123	0.91904
1232.35267	0.91473
1230.42411	0.91014
1228.49554	0.90483
1226.56698	0.89841
1224.63841	0.89148
1222.70985	0.88507
1220.78128	0.87906
1218.85272	0.87295
1216.92415	0.86768
1214.99559	0.86481
1213.06703	0.86468
1211.13846	0.86641
1209.20990	0.86861
1207.28133	0.86927
1205.35277	0.86647
1203.42420	0.86020
1201.49564	0.85161
1199.56708	0.84162
1197.63851	0.83153
1195.70995	0.82227
1193.78138	0.81408
1191.85282	0.80755
1189.92425	0.80296
1187.99569	0.80014
1186.06712	0.79906
1184.13856	0.79972
1182.21000	0.80241
1180.28143	0.80764
1178.35287	0.81577
1176.42430	0.82695
1174.49574	0.84041
1172.56717	0.85484
1170.63861	0.87058
1168.71004	0.88904
1166.78148	0.91017
1164.85292	0.93195
1162.92435	0.95126
1160.99579	0.96556
1159.06722	0.97318
1157.13866	0.97306
1155.21009	0.96598
1153.28153	0.95413
1151.35296	0.94020
1149.42440	0.92648
1147.49584	0.91371
1145.56727	0.90281
1143.63871	0.89577
1141.71014	0.89379
1139.78158	0.89660
1137.85301	0.90290
1135.92445	0.91112
1133.99588	0.92100
1132.06732	0.93375
1130.13876	0.95016
1128.21019	0.96930
1126.28163	0.98938
1124.35306	1.00840
1122.42450	1.02502
1120.49593	1.03960
1118.56737	1.05155
1116.63880	1.05899
1114.71024	1.06198
1112.78168	1.06173
1110.85311	1.05876
1108.92455	1.05447
1106.99598	1.05092
1105.06742	1.04850
1103.13885	1.04695
1101.21029	1.04647
1099.28172	1.04792
1097.35316	1.05230
1095.42460	1.05935
1093.49603	1.06895
1091.56747	1.08183
1089.63890	1.09795
1087.71034	1.11624
1085.78177	1.13494
1083.85321	1.15242
1081.92464	1.16719
1079.99608	1.17760
1078.06752	1.18239
1076.13895	1.18114
1074.21039	1.17486
1072.28182	1.16503
1070.35326	1.15234
1068.42469	1.13840
1066.49613	1.12624
1064.56756	1.11645
1062.63900	1.10690
1060.71044	1.09714
1058.78187	1.08820
1056.85331	1.08017
1054.92474	1.07301
1052.99618	1.06744
1051.06761	1.06425
1049.13905	1.06375
1047.21049	1.06554
1045.28192	1.06921
1043.35336	1.07507
1041.42479	1.08248
1039.49623	1.08885
1037.56766	1.09257
1035.63910	1.09437
1033.71053	1.09453
1031.78197	1.09243
1029.85341	1.08784
1027.92484	1.08081
1025.99628	1.07143
1024.06771	1.06010
1022.13915	1.04813
1020.21058	1.03675
1018.28202	1.02589
1016.35345	1.01484
1014.42489	1.00260
1012.49633	0.98809
1010.56776	0.97082
1008.63920	0.95070
1006.71063	0.92817
1004.78207	0.90482
1002.85350	0.88312
1000.92494	0.86456
998.99637	0.84862
997.06781	0.83451
995.13925	0.82224
993.21068	0.81130
991.28212	0.80011
989.35355	0.78784
987.42499	0.77535
985.49642	0.76410
983.56786	0.75489
981.63929	0.74782
979.71073	0.74282
977.78217	0.73923
975.85360	0.73569
973.92504	0.73054
971.99647	0.72293
970.06791	0.71368
968.13934	0.70447
966.21078	0.69701
964.28221	0.69260
962.35365	0.69195
960.42509	0.69578
958.49652	0.70367
956.56796	0.71189
954.63939	0.71574
952.71083	0.71360
950.78226	0.70653
948.85370	0.69688
946.92513	0.68741
944.99657	0.67971
943.06801	0.67427
941.13944	0.67077
939.21088	0.66823
937.28231	0.66611
935.35375	0.66459
933.42518	0.66379
931.49662	0.66375
929.56805	0.66428
927.63949	0.66517
925.71093	0.66650
923.78236	0.66804
921.85380	0.66904
919.92523	0.66890
917.99667	0.66758
916.06810	0.66565
914.13954	0.66362
912.21098	0.66171
910.28241	0.66051
908.35385	0.66068
906.42528	0.66190
904.49672	0.66349
902.56815	0.66553
900.63959	0.66781
898.71102	0.66944
896.78246	0.67009
894.85390	0.66989
892.92533	0.66906
890.99677	0.66806
889.06820	0.66727
887.13964	0.66694
885.21107	0.66748
883.28251	0.66884
881.35394	0.67035
879.42538	0.67220
877.49682	0.67483
875.56825	0.67748
873.63969	0.67939
871.71112	0.68087
869.78256	0.68237
867.85399	0.68383
865.92543	0.68505
863.99686	0.68575
862.06830	0.68598
860.13974	0.68624
858.21117	0.68697
856.28261	0.68818
854.35404	0.68945
852.42548	0.69046
850.49691	0.69109
848.56835	0.69163
846.63978	0.69269
844.71122	0.69431
842.78266	0.69633
840.85409	0.69899
838.92553	0.70242
836.99696	0.70605
835.06840	0.70917
833.13983	0.71172
831.21127	0.71406
829.28270	0.71639
827.35414	0.71839
825.42558	0.71988
823.49701	0.72071
821.56845	0.72059
819.63988	0.71962
817.71132	0.71861
815.78275	0.71810
813.85419	0.71763
811.92562	0.71679
809.99706	0.71575
808.06850	0.71446
806.13993	0.71313
804.21137	0.71262
802.28280	0.71305
800.35424	0.71347
798.42567	0.71351
796.49711	0.71373
794.56854	0.71500
792.63998	0.71768
790.71142	0.72139
788.78285	0.72581
786.85429	0.73108
784.92572	0.73722
782.99716	0.74388
781.06859	0.75067
779.14003	0.75719
777.21147	0.76326
775.28290	0.76905
773.35434	0.77408
771.42577	0.77781
769.49721	0.78047
767.56864	0.78212
765.64008	0.78279
763.71151	0.78301
761.78295	0.78297
759.85439	0.78228
757.92582	0.78128
755.99726	0.78044
754.06869	0.77987
752.14013	0.77997
750.21156	0.78082
748.28300	0.78211
746.35443	0.78396
744.42587	0.78616
742.49731	0.78775
740.56874	0.78887
738.64018	0.79110
736.71161	0.79454
734.78305	0.79831
732.85448	0.80316
730.92592	0.80923
728.99735	0.81492
727.06879	0.81972
725.14023	0.82406
723.21166	0.82809
721.28310	0.83211
719.35453	0.83507
717.42597	0.83571
715.49740	0.83535
713.56884	0.83576
711.64027	0.83681
709.71171	0.83767
707.78315	0.83856
705.85458	0.83982
703.92602	0.84113
701.99745	0.84212
700.06889	0.84243
698.14032	0.84219
696.21176	0.84192
694.28319	0.84197
692.35463	0.84352
690.42607	0.84705
688.49750	0.85046
686.56894	0.85228
684.64037	0.85399
682.71181	0.85697
680.78324	0.86052
678.85468	0.86340
676.92611	0.86519
674.99755	0.86598
673.06899	0.86597
671.14042	0.86552
669.21186	0.86415
667.28329	0.86104
665.35473	0.85787
663.42616	0.85500
661.49760	0.85271
659.56903	0.85083
657.64047	0.84768
655.71191	0.84307
653.78334	0.83853
651.85478	0.83511
649.92621	0.83332
647.99765	0.83389
646.06908	0.83581
644.14052	0.83751
642.21195	0.84024
640.28339	0.84513
638.35483	0.85024
636.42626	0.85375
634.49770	0.85649
632.56913	0.85923
630.64057	0.86076
628.71200	0.86057
626.78344	0.86015
624.85488	0.86068
622.92631	0.86167
620.99775	0.86279
619.06918	0.86439
617.14062	0.86501
615.21205	0.86242
613.28349	0.85842
611.35492	0.85620
609.42636	0.85457
607.49780	0.85157
605.56923	0.84942
603.64067	0.84995
601.71210	0.85149
599.78354	0.85276
