3997.91406	0.46997
3995.98550	0.46933
3994.05693	0.46992
3992.12837	0.47041
3990.19980	0.47000
3988.27124	0.46876
3986.34268	0.46743
3984.41411	0.46720
3982.48555	0.46773
3980.55698	0.46709
3978.62842	0.46450
3976.69985	0.46214
3974.77129	0.46225
3972.84272	0.46372
3970.91416	0.46495
3968.98560	0.46582
3967.05703	0.46571
3965.12847	0.46395
3963.19990	0.46187
3961.27134	0.46125
3959.34277	0.46166
3957.41421	0.46181
3955.48564	0.46093
3953.55708	0.45887
3951.62852	0.45676
3949.69995	0.45700
3947.77139	0.45882
3945.84282	0.45779
3943.91426	0.45639
3941.98569	0.45881
3940.05713	0.46041
3938.12856	0.45816
3936.20000	0.45420
3934.27144	0.45138
3932.34287	0.45308
3930.41431	0.45763
3928.48574	0.45832
3926.55718	0.45569
3924.62861	0.45529
3922.70005	0.45592
3920.77148	0.45467
3918.84292	0.45584
3916.91436	0.46053
3914.98579	0.46197
3913.05723	0.45886
3911.12866	0.45505
3909.20010	0.45044
3907.27153	0.44380
3905.34297	0.43994
3903.41440	0.44355
3901.48584	0.44938
3899.55728	0.45478
3897.62871	0.45620
3895.70015	0.45076
3893.77158	0.44568
3891.84302	0.45037
3889.91445	0.45401
3887.98589	0.44765
3886.05733	0.44459
3884.12876	0.44817
3882.20020	0.44932
3880.27163	0.45327
3878.34307	0.45365
3876.41450	0.44690
3874.48594	0.44241
3872.55737	0.44183
3870.62881	0.44629
3868.70025	0.45254
3866.77168	0.45015
3864.84312	0.44937
3862.91455	0.45615
3860.98599	0.45692
3859.05742	0.44942
3857.12886	0.43751
3855.20029	0.42901
3853.27173	0.44671
3851.34317	0.46393
3849.41460	0.46108
3847.48604	0.45389
3845.55747	0.44762
3843.62891	0.44363
3841.70034	0.44067
3839.77178	0.43928
3837.84321	0.44398
3835.91465	0.44825
3833.98609	0.44768
3832.05752	0.44637
3830.12896	0.44480
3828.20039	0.44350
3826.27183	0.44289
3824.34326	0.43681
3822.41470	0.43002
3820.48613	0.43496
3818.55757	0.43775
3816.62901	0.44024
3814.70044	0.44574
3812.77188	0.44296
3810.84331	0.43467
3808.91475	0.42780
3806.98618	0.42853
3805.05762	0.42828
3803.12905	0.42526
3801.20049	0.43382
3799.27193	0.44064
3797.34336	0.44139
3795.41480	0.44396
3793.48623	0.44292
3791.55767	0.43925
3789.62910	0.43713
3787.70054	0.43647
3785.77197	0.43797
3783.84341	0.43912
3781.91485	0.43674
3779.98628	0.43835
3778.05772	0.44553
3776.12915	0.44734
3774.20059	0.44279
3772.27202	0.43733
3770.34346	0.43797
3768.41489	0.44299
3766.48633	0.44601
3764.55777	0.44686
3762.62920	0.44253
3760.70064	0.43783
3758.77207	0.44119
3756.84351	0.44351
3754.91494	0.43637
3752.98638	0.42675
3751.05781	0.43230
3749.12925	0.44282
3747.20069	0.43721
3745.27212	0.43543
3743.34356	0.44554
3741.41499	0.44579
3739.48643	0.43553
3737.55786	0.42439
3735.62930	0.42611
3733.70074	0.44188
3731.77217	0.44943
3729.84361	0.44573
3727.91504	0.43884
3725.98648	0.43490
3724.05791	0.43474
3722.12935	0.43693
3720.20078	0.43936
3718.27222	0.43809
3716.34366	0.43235
3714.41509	0.42440
3712.48653	0.42315
3710.55796	0.43611
3708.62940	0.44403
3706.70083	0.44132
3704.77227	0.43538
3702.84370	0.43453
3700.91514	0.44023
3698.98658	0.44284
3697.05801	0.44190
3695.12945	0.43962
3693.20088	0.43515
3691.27232	0.43335
3689.34375	0.44556
3687.41519	0.45876
3685.48662	0.46019
3683.55806	0.45662
3681.62950	0.45245
3679.70093	0.44752
3677.77237	0.44275
3675.84380	0.45184
3673.91524	0.46457
3671.98667	0.46439
3670.05811	0.47177
3668.12954	0.48218
3666.20098	0.48160
3664.27242	0.47965
3662.34385	0.48088
3660.41529	0.48161
3658.48672	0.48152
3656.55816	0.48745
3654.62959	0.49175
3652.70103	0.48435
3650.77246	0.47766
3648.84390	0.49923
3646.91534	0.52182
3644.98677	0.52362
3643.05821	0.52109
3641.12964	0.52210
3639.20108	0.52565
3637.27251	0.52928
3635.34395	0.53303
3633.41538	0.53462
3631.48682	0.53222
3629.55826	0.53973
3627.62969	0.56092
3625.70113	0.56758
3623.77256	0.56465
3621.84400	0.56181
3619.91543	0.56781
3617.98687	0.58038
3616.05830	0.58561
3614.12974	0.58925
3612.20118	0.59461
3610.27261	0.59813
3608.34405	0.60619
3606.41548	0.61721
3604.48692	0.62176
3602.55835	0.62392
3600.62979	0.62927
3598.70123	0.63462
3596.77266	0.63888
3594.84410	0.64632
3592.91553	0.65242
3590.98697	0.65160
3589.05840	0.65348
3587.12984	0.66987
3585.20127	0.68359
3583.27271	0.68630
3581.34415	0.68869
3579.41558	0.69399
3577.48702	0.69986
3575.55845	0.70595
3573.62989	0.71048
3571.70132	0.71043
3569.77276	0.70822
3567.84419	0.71442
3565.91563	0.73181
3563.98707	0.74223
3562.05850	0.74582
3560.12994	0.74980
3558.20137	0.75530
3556.27281	0.76053
3554.34424	0.76636
3552.41568	0.77452
3550.48711	0.78059
3548.55855	0.78364
3546.62999	0.79019
3544.70142	0.80028
3542.77286	0.80706
3540.84429	0.81116
3538.91573	0.81613
3536.98716	0.82246
3535.05860	0.82842
3533.13003	0.83289
3531.20147	0.83756
3529.27291	0.84421
3527.34434	0.85177
3525.41578	0.85980
3523.48721	0.86973
3521.55865	0.87919
3519.63008	0.88588
3517.70152	0.89290
3515.77295	0.90203
3513.84439	0.91125
3511.91583	0.92008
3509.98726	0.93093
3508.05870	0.94306
3506.13013	0.95268
3504.20157	0.96170
3502.27300	0.97273
3500.34444	0.98293
3498.41587	0.99194
3496.48731	1.00288
3494.55875	1.01547
3492.63018	1.02537
3490.70162	1.03189
3488.77305	1.03724
3486.84449	1.04091
3484.91592	1.04285
3482.98736	1.04618
3481.05879	1.05213
3479.13023	1.05705
3477.20167	1.05967
3475.27310	1.06257
3473.34454	1.06724
3471.41597	1.07366
3469.48741	1.08039
3467.55884	1.08527
3465.63028	1.08925
3463.70171	1.09448
3461.77315	1.10032
3459.84459	1.10534
3457.91602	1.10911
3455.98746	1.11237
3454.05889	1.11590
3452.13033	1.11989
3450.20176	1.12354
3448.27320	1.12623
3446.34464	1.12942
3444.41607	1.13372
3442.48751	1.13896
3440.55894	1.14290
3438.63038	1.14273
3436.70181	1.14189
3434.77325	1.14382
3432.84468	1.14753
3430.91612	1.15142
3428.98756	1.15231
3427.05899	1.14846
3425.13043	1.14494
3423.20186	1.14615
3421.27330	1.14923
3419.34473	1.15121
3417.41617	1.15300
3415.48760	1.15474
3413.55904	1.15431
3411.63048	1.15155
3409.70191	1.15010
3407.77335	1.14960
3405.84478	1.14707
3403.91622	1.14535
3401.98765	1.14816
3400.05909	1.15279
3398.13052	1.15391
3396.20196	1.15165
3394.27340	1.15047
3392.34483	1.15230
3390.41627	1.15583
3388.48770	1.15937
3386.55914	1.16138
3384.63057	1.16189
3382.70201	1.16185
3380.77344	1.16222
3378.84488	1.16527
3376.91632	1.16929
3374.98775	1.17052
3373.05919	1.17030
3371.13062	1.17092
3369.20206	1.17253
3367.27349	1.17403
3365.34493	1.17517
3363.41636	1.17791
3361.48780	1.18256
3359.55924	1.18605
3357.63067	1.18537
3355.70211	1.18317
3353.77354	1.18398
3351.84498	1.18688
3349.91641	1.19077
3347.98785	1.19611
3346.05928	1.20080
3344.13072	1.20342
3342.20216	1.20582
3340.27359	1.20983
3338.34503	1.21454
3336.41646	1.21758
3334.48790	1.21828
3332.55933	1.21958
3330.63077	1.22475
3328.70220	1.23172
3326.77364	1.23744
3324.84508	1.24303
3322.91651	1.24798
3320.98795	1.25189
3319.05938	1.25779
3317.13082	1.26430
3315.20225	1.26797
3313.27369	1.26982
3311.34513	1.27133
3309.41656	1.27432
3307.48800	1.28101
3305.55943	1.28809
3303.63087	1.29081
3301.70230	1.29052
3299.77374	1.29142
3297.84517	1.29566
3295.91661	1.30178
3293.98805	1.30613
3292.05948	1.30925
3290.13092	1.31393
3288.20235	1.31798
3286.27379	1.31743
3284.34522	1.31333
3282.41666	1.30939
3280.48809	1.30581
3278.55953	1.30183
3276.63097	1.29993
3274.70240	1.29946
3272.77384	1.29462
3270.84527	1.28656
3268.91671	1.28166
3266.98814	1.27934
3265.05958	1.27439
3263.13101	1.26493
3261.20245	1.25587
3259.27389	1.25176
3257.34532	1.24945
3255.41676	1.24493
3253.48819	1.23770
3251.55963	1.22737
3249.63106	1.21540
3247.70250	1.20525
3245.77393	1.19643
3243.84537	1.18645
3241.91681	1.17781
3239.98824	1.17283
3238.05968	1.16984
3236.13111	1.16672
3234.20255	1.16189
3232.27398	1.15552
3230.34542	1.14880
3228.41685	1.14178
3226.48829	1.13475
3224.55973	1.12893
3222.63116	1.12391
3220.70260	1.11796
3218.77403	1.11173
3216.84547	1.10799
3214.91690	1.10583
3212.98834	1.10154
3211.05977	1.09644
3209.13121	1.09252
3207.20265	1.08708
3205.27408	1.08056
3203.34552	1.07571
3201.41695	1.07126
3199.48839	1.06610
3197.55982	1.06125
3195.63126	1.05679
3193.70269	1.05202
3191.77413	1.04687
3189.84557	1.04192
3187.91700	1.03775
3185.98844	1.03414
3184.05987	1.03068
3182.13131	1.02673
3180.20274	1.02119
3178.27418	1.01502
3176.34562	1.01025
3174.41705	1.00677
3172.48849	1.00405
3170.55992	1.00153
3168.63136	0.99748
3166.70279	0.99164
3164.77423	0.98564
3162.84566	0.98082
3160.91710	0.97726
3158.98854	0.97401
3157.05997	0.97130
3155.13141	0.96919
3153.20284	0.96595
3151.27428	0.96096
3149.34571	0.95582
3147.41715	0.95216
3145.48858	0.94980
3143.56002	0.94778
3141.63146	0.94631
3139.70289	0.94520
3137.77433	0.94318
3135.84576	0.94047
3133.91720	0.93886
3131.98863	0.93899
3130.06007	0.94000
3128.13150	0.94168
3126.20294	0.94352
3124.27438	0.94389
3122.34581	0.94169
3120.41725	0.93849
3118.48868	0.93778
3116.56012	0.94029
3114.63155	0.94346
3112.70299	0.94564
3110.77442	0.94624
3108.84586	0.94474
3106.91730	0.94250
3104.98873	0.94140
3103.06017	0.94159
3101.13160	0.94253
3099.20304	0.94319
3097.27447	0.94296
3095.34591	0.94296
3093.41734	0.94250
3091.48878	0.93930
3089.56022	0.93488
3087.63165	0.93223
3085.70309	0.93160
3083.77452	0.93133
3081.84596	0.92993
3079.91739	0.92769
3077.98883	0.92525
3076.06026	0.92237
3074.13170	0.91902
3072.20314	0.91536
3070.27457	0.91166
3068.34601	0.90845
3066.41744	0.90622
3064.48888	0.90443
3062.56031	0.90147
3060.63175	0.89702
3058.70318	0.89203
3056.77462	0.88735
3054.84606	0.88367
3052.91749	0.88053
3050.98893	0.87674
3049.06036	0.87222
3047.13180	0.86775
3045.20323	0.86378
3043.27467	0.86052
3041.34610	0.85780
3039.41754	0.85487
3037.48898	0.85126
3035.56041	0.84728
3033.63185	0.84356
3031.70328	0.84072
3029.77472	0.83890
3027.84615	0.83700
3025.91759	0.83411
3023.98903	0.83078
3022.06046	0.82770
3020.13190	0.82479
3018.20333	0.82205
3016.27477	0.81954
3014.34620	0.81671
3012.41764	0.81371
3010.48907	0.81135
3008.56051	0.80943
3006.63195	0.80794
3004.70338	0.80726
3002.77482	0.80694
3000.84625	0.80631
2998.91769	0.80571
2996.98912	0.80613
2995.06056	0.80777
2993.13199	0.81018
2991.20343	0.81373
2989.27487	0.81876
2987.34630	0.82442
2985.41774	0.83020
2983.48917	0.83667
2981.56061	0.84362
2979.63204	0.85057
2977.70348	0.85814
2975.77491	0.86609
2973.84635	0.87354
2971.91779	0.88092
2969.98922	0.88870
2968.06066	0.89693
2966.13209	0.90483
2964.20353	0.91076
2962.27496	0.91423
2960.34640	0.91550
2958.41783	0.91400
2956.48927	0.90953
2954.56071	0.90306
2952.63214	0.89591
2950.70358	0.88978
2948.77501	0.88678
2946.84645	0.88797
2944.91788	0.89296
2942.98932	0.90132
2941.06075	0.91245
2939.13219	0.92424
2937.20363	0.93499
2935.27506	0.94515
2933.34650	0.95492
2931.41793	0.96386
2929.48937	0.97292
2927.56080	0.98288
2925.63224	0.99213
2923.70367	0.99840
2921.77511	1.00139
2919.84655	1.00164
2917.91798	0.99658
2915.98942	0.98157
2914.06085	0.95738
2912.13229	0.93147
2910.20372	0.91021
2908.27516	0.89448
2906.34659	0.88232
2904.41803	0.87270
2902.48947	0.86563
2900.56090	0.86021
2898.63234	0.85506
2896.70377	0.85032
2894.77521	0.84717
2892.84664	0.84493
2890.91808	0.84133
2888.98952	0.83639
2887.06095	0.83200
2885.13239	0.82897
2883.20382	0.82748
2881.27526	0.82726
2879.34669	0.82712
2877.41813	0.82641
2875.48956	0.82533
2873.56100	0.82343
2871.63244	0.81984
2869.70387	0.81420
2867.77531	0.80685
2865.84674	0.79951
2863.91818	0.79476
2861.98961	0.79381
2860.06105	0.79630
2858.13248	0.80160
2856.20392	0.80888
2854.27536	0.81736
2852.34679	0.82604
2850.41823	0.82950
2848.48966	0.81877
2846.56110	0.79409
2844.63253	0.76696
2842.70397	0.74565
2840.77540	0.73046
2838.84684	0.71942
2836.91828	0.71130
2834.98971	0.70524
2833.06115	0.70067
2831.13258	0.69713
2829.20402	0.69384
2827.27545	0.69053
2825.34689	0.68749
2823.41832	0.68462
2821.48976	0.68198
2819.56120	0.67960
2817.63263	0.67688
2815.70407	0.67366
2813.77550	0.67039
2811.84694	0.66740
2809.91837	0.66506
2807.98981	0.66334
2806.06124	0.66154
2804.13268	0.65936
2802.20412	0.65686
2800.27555	0.65391
2798.34699	0.65093
2796.41842	0.64856
2794.48986	0.64659
2792.56129	0.64456
2790.63273	0.64256
2788.70416	0.64078
2786.77560	0.63900
2784.84704	0.63690
2782.91847	0.63462
2780.98991	0.63256
2779.06134	0.63040
2777.13278	0.62795
2775.20421	0.62602
2773.27565	0.62465
2771.34708	0.62301
2769.41852	0.62082
2767.48996	0.61852
2765.56139	0.61653
2763.63283	0.61451
2761.70426	0.61228
2759.77570	0.61016
2757.84713	0.60812
2755.91857	0.60613
2753.99001	0.60435
2752.06144	0.60268
2750.13288	0.60106
2748.20431	0.59946
2746.27575	0.59804
2744.34718	0.59705
2742.41862	0.59621
2740.49005	0.59514
2738.56149	0.59375
2736.63293	0.59214
2734.70436	0.59063
2732.77580	0.58913
2730.84723	0.58745
2728.91867	0.58594
2726.99010	0.58459
2725.06154	0.58314
2723.13297	0.58173
2721.20441	0.58054
2719.27585	0.57947
2717.34728	0.57834
2715.41872	0.57732
2713.49015	0.57658
2711.56159	0.57583
2709.63302	0.57498
2707.70446	0.57442
2705.77589	0.57417
2703.84733	0.57377
2701.91877	0.57296
2699.99020	0.57236
2698.06164	0.57257
2696.13307	0.57308
2694.20451	0.57319
2692.27594	0.57320
2690.34738	0.57355
2688.41881	0.57391
2686.49025	0.57381
2684.56169	0.57323
2682.63312	0.57227
2680.70456	0.57110
2678.77599	0.57010
2676.84743	0.56940
2674.91886	0.56865
2672.99030	0.56750
2671.06173	0.56608
2669.13317	0.56477
2667.20461	0.56343
2665.27604	0.56174
2663.34748	0.56000
2661.41891	0.55865
2659.49035	0.55739
2657.56178	0.55582
2655.63322	0.55436
2653.70465	0.55361
2651.77609	0.55342
2649.84753	0.55310
2647.91896	0.55229
2645.99040	0.55131
2644.06183	0.55063
2642.13327	0.55035
2640.20470	0.55038
2638.27614	0.55052
2636.34757	0.55039
2634.41901	0.54997
2632.49045	0.54943
2630.56188	0.54869
2628.63332	0.54786
2626.70475	0.54723
2624.77619	0.54647
2622.84762	0.54523
2620.91906	0.54391
2618.99049	0.54287
2617.06193	0.54169
2615.13337	0.54032
2613.20480	0.53926
2611.27624	0.53831
2609.34767	0.53722
2607.41911	0.53628
2605.49054	0.53534
2603.56198	0.53404
2601.63342	0.53250
2599.70485	0.53122
2597.77629	0.53040
2595.84772	0.52973
2593.91916	0.52911
2591.99059	0.52876
2590.06203	0.52851
2588.13346	0.52797
2586.20490	0.52723
2584.27634	0.52664
2582.34777	0.52622
2580.41921	0.52592
2578.49064	0.52573
2576.56208	0.52542
2574.63351	0.52482
2572.70495	0.52393
2570.77638	0.52291
2568.84782	0.52191
2566.91926	0.52080
2564.99069	0.51949
2563.06213	0.51834
2561.13356	0.51755
2559.20500	0.51675
2557.27643	0.51595
2555.34787	0.51543
2553.41930	0.51509
2551.49074	0.51482
2549.56218	0.51455
2547.63361	0.51435
2545.70505	0.51443
2543.77648	0.51488
2541.84792	0.51563
2539.91935	0.51654
2537.99079	0.51753
2536.06222	0.51849
2534.13366	0.51935
2532.20510	0.52022
2530.27653	0.52115
2528.34797	0.52196
2526.41940	0.52246
2524.49084	0.52264
2522.56227	0.52250
2520.63371	0.52180
2518.70514	0.52040
2516.77658	0.51863
2514.84802	0.51711
2512.91945	0.51601
2510.99089	0.51488
2509.06232	0.51330
2507.13376	0.51125
2505.20519	0.50905
2503.27663	0.50712
2501.34806	0.50545
2499.41950	0.50387
2497.49094	0.50228
2495.56237	0.50064
2493.63381	0.49921
2491.70524	0.49830
2489.77668	0.49770
2487.84811	0.49728
2485.91955	0.49696
2483.99098	0.49644
2482.06242	0.49596
2480.13386	0.49591
2478.20529	0.49588
2476.27673	0.49571
2474.34816	0.49575
2472.41960	0.49572
2470.49103	0.49525
2468.56247	0.49452
2466.63391	0.49376
2464.70534	0.49291
2462.77678	0.49185
2460.84821	0.49063
2458.91965	0.48927
2456.99108	0.48800
2455.06252	0.48703
2453.13395	0.48638
2451.20539	0.48606
2449.27683	0.48568
2447.34826	0.48496
2445.41970	0.48433
2443.49113	0.48411
2441.56257	0.48418
2439.63400	0.48439
2437.70544	0.48466
2435.77687	0.48487
2433.84831	0.48522
2431.91975	0.48577
2429.99118	0.48628
2428.06262	0.48692
2426.13405	0.48765
2424.20549	0.48809
2422.27692	0.48817
2420.34836	0.48794
2418.41979	0.48762
2416.49123	0.48738
2414.56267	0.48681
2412.63410	0.48572
2410.70554	0.48462
2408.77697	0.48382
2406.84841	0.48286
2404.91984	0.48133
2402.99128	0.47974
2401.06271	0.47835
2399.13415	0.47681
2397.20559	0.47505
2395.27702	0.47341
2393.34846	0.47193
2391.41989	0.47045
2389.49133	0.46901
2387.56276	0.46773
2385.63420	0.46643
2383.70563	0.46506
2381.77707	0.46403
2379.84851	0.46366
2377.91994	0.46371
2375.99138	0.46390
2374.06281	0.46429
2372.13425	0.46498
2370.20568	0.46551
2368.27712	0.46554
2366.34855	0.46616
2364.41999	0.46769
2362.49143	0.46933
2360.56286	0.47150
2358.63430	0.47355
2356.70573	0.47440
2354.77717	0.47407
2352.84860	0.47322
2350.92004	0.47095
2348.99147	0.46670
2347.06291	0.46257
2345.13435	0.46142
2343.20578	0.46265
2341.27722	0.46316
2339.34865	0.46286
2337.42009	0.46282
2335.49152	0.46352
2333.56296	0.46428
2331.63440	0.46421
2329.70583	0.46307
2327.77727	0.46161
2325.84870	0.46100
2323.92014	0.46189
2321.99157	0.46368
2320.06301	0.46474
2318.13444	0.46475
2316.20588	0.46460
2314.27732	0.46478
2312.34875	0.46525
2310.42019	0.46576
2308.49162	0.46612
2306.56306	0.46625
2304.63449	0.46605
2302.70593	0.46559
2300.77736	0.46487
2298.84880	0.46378
2296.92024	0.46251
2294.99167	0.46120
2293.06311	0.45994
2291.13454	0.45876
2289.20598	0.45730
2287.27741	0.45559
2285.34885	0.45389
2283.42028	0.45226
2281.49172	0.45088
2279.56316	0.44975
2277.63459	0.44864
2275.70603	0.44752
2273.77746	0.44649
2271.84890	0.44574
2269.92033	0.44533
2267.99177	0.44501
2266.06320	0.44458
2264.13464	0.44424
2262.20608	0.44417
2260.27751	0.44417
2258.34895	0.44416
2256.42038	0.44426
2254.49182	0.44436
2252.56325	0.44418
2250.63469	0.44387
2248.70612	0.44376
2246.77756	0.44367
2244.84900	0.44340
2242.92043	0.44305
2240.99187	0.44264
2239.06330	0.44218
2237.13474	0.44164
2235.20617	0.44093
2233.27761	0.44016
2231.34904	0.43952
2229.42048	0.43908
2227.49192	0.43872
2225.56335	0.43826
2223.63479	0.43789
2221.70622	0.43801
2219.77766	0.43865
2217.84909	0.43961
2215.92053	0.44063
2213.99196	0.44144
2212.06340	0.44213
2210.13484	0.44299
2208.20627	0.44403
2206.27771	0.44517
2204.34914	0.44629
2202.42058	0.44715
2200.49201	0.44778
2198.56345	0.44830
2196.63488	0.44864
2194.70632	0.44877
2192.77776	0.44866
2190.84919	0.44815
2188.92063	0.44719
2186.99206	0.44601
2185.06350	0.44473
2183.13493	0.44317
2181.20637	0.44126
2179.27781	0.43927
2177.34924	0.43749
2175.42068	0.43583
2173.49211	0.43430
2171.56355	0.43290
2169.63498	0.43145
2167.70642	0.42998
2165.77785	0.42880
2163.84929	0.42807
2161.92073	0.42755
2159.99216	0.42703
2158.06360	0.42677
2156.13503	0.42679
2154.20647	0.42681
2152.27790	0.42684
2150.34934	0.42694
2148.42077	0.42696
2146.49221	0.42683
2144.56365	0.42660
2142.63508	0.42635
2140.70652	0.42603
2138.77795	0.42550
2136.84939	0.42471
2134.92082	0.42381
2132.99226	0.42288
2131.06369	0.42176
2129.13513	0.42039
2127.20657	0.41896
2125.27800	0.41758
2123.34944	0.41627
2121.42087	0.41508
2119.49231	0.41405
2117.56374	0.41327
2115.63518	0.41287
2113.70661	0.41276
2111.77805	0.41277
2109.84949	0.41292
2107.92092	0.41319
2105.99236	0.41358
2104.06379	0.41414
2102.13523	0.41461
2100.20666	0.41483
2098.27810	0.41501
2096.34953	0.41523
2094.42097	0.41535
2092.49241	0.41539
2090.56384	0.41539
2088.63528	0.41518
2086.70671	0.41466
2084.77815	0.41384
2082.84958	0.41294
2080.92102	0.41229
2078.99245	0.41168
2077.06389	0.41083
2075.13533	0.40993
2073.20676	0.40923
2071.27820	0.40863
2069.34963	0.40783
2067.42107	0.40686
2065.49250	0.40609
2063.56394	0.40558
2061.63537	0.40501
2059.70681	0.40441
2057.77825	0.40388
2055.84968	0.40330
2053.92112	0.40269
2051.99255	0.40212
2050.06399	0.40167
2048.13542	0.40124
2046.20686	0.40064
2044.27830	0.39999
2042.34973	0.39963
2040.42117	0.39949
2038.49260	0.39920
2036.56404	0.39871
2034.63547	0.39814
2032.70691	0.39750
2030.77834	0.39684
2028.84978	0.39620
2026.92122	0.39558
2024.99265	0.39498
2023.06409	0.39434
2021.13552	0.39346
2019.20696	0.39262
2017.27839	0.39220
2015.34983	0.39161
2013.42126	0.39056
2011.49270	0.38958
2009.56414	0.38883
2007.63557	0.38806
2005.70701	0.38721
2003.77844	0.38641
2001.84988	0.38556
1999.92131	0.38455
1997.99275	0.38347
1996.06418	0.38232
1994.13562	0.38139
1992.20706	0.38107
1990.27849	0.38073
1988.34993	0.37996
1986.42136	0.37912
1984.49280	0.37827
1982.56423	0.37737
1980.63567	0.37645
1978.70710	0.37544
1976.77854	0.37453
1974.84998	0.37383
1972.92141	0.37311
1970.99285	0.37198
1969.06428	0.37090
1967.13572	0.37044
1965.20715	0.36984
1963.27859	0.36867
1961.35002	0.36763
1959.42146	0.36676
1957.49290	0.36575
1955.56433	0.36490
1953.63577	0.36412
1951.70720	0.36313
1949.77864	0.36209
1947.85007	0.36105
1945.92151	0.35994
1943.99294	0.35946
1942.06438	0.35994
1940.13582	0.35980
1938.20725	0.35885
1936.27869	0.35822
1934.35012	0.35797
1932.42156	0.35782
1930.49299	0.35779
1928.56443	0.35779
1926.63586	0.35748
1924.70730	0.35737
1922.77874	0.35811
1920.85017	0.35853
1918.92161	0.35883
1916.99304	0.35982
1915.06448	0.35992
1913.13591	0.35908
1911.20735	0.35878
1909.27878	0.35934
1907.35022	0.35965
1905.42166	0.35929
1903.49309	0.35893
1901.56453	0.35882
1899.63596	0.35862
1897.70740	0.35839
1895.77883	0.35866
1893.85027	0.35895
1891.92171	0.35878
1889.99314	0.35952
1888.06458	0.36074
1886.13601	0.36092
1884.20745	0.36098
1882.27888	0.36137
1880.35032	0.36176
1878.42175	0.36222
1876.49319	0.36266
1874.56463	0.36262
1872.63606	0.36177
1870.70750	0.36126
1868.77893	0.36312
1866.85037	0.36499
1864.92180	0.36425
1862.99324	0.36296
1861.06467	0.36229
1859.13611	0.36180
1857.20755	0.36113
1855.27898	0.36035
1853.35042	0.35943
1851.42185	0.35827
1849.49329	0.35708
1847.56472	0.35601
1845.63616	0.35624
1843.70759	0.35850
1841.77903	0.35891
1839.85047	0.35725
1837.92190	0.35651
1835.99334	0.35682
1834.06477	0.35623
1832.13621	0.35525
1830.20764	0.35619
1828.27908	0.35754
1826.35051	0.35742
1824.42195	0.35750
1822.49339	0.35709
1820.56482	0.35574
1818.63626	0.35480
1816.70769	0.35422
1814.77913	0.35311
1812.85056	0.35203
1810.92200	0.35190
1808.99343	0.35180
1807.06487	0.35095
1805.13631	0.34991
1803.20774	0.34936
1801.27918	0.35015
1799.35061	0.35146
1797.42205	0.35151
1795.49348	0.35081
1793.56492	0.35183
1791.63635	0.35589
1789.70779	0.35793
1787.77923	0.35755
1785.85066	0.35812
1783.92210	0.35967
1781.99353	0.36114
1780.06497	0.36309
1778.13640	0.36438
1776.20784	0.36397
1774.27927	0.36418
1772.35071	0.36804
1770.42215	0.37204
1768.49358	0.37320
1766.56502	0.37334
1764.63645	0.37317
1762.70789	0.37495
1760.77932	0.37877
1758.85076	0.38149
1756.92220	0.38502
1754.99363	0.38872
1753.06507	0.39136
1751.13650	0.39752
1749.20794	0.40887
1747.27937	0.41847
1745.35081	0.42496
1743.42224	0.43071
1741.49368	0.43666
1739.56512	0.44247
1737.63655	0.44488
1735.70799	0.44550
1733.77942	0.45137
1731.85086	0.45680
1729.92229	0.45754
1727.99373	0.45781
1726.06516	0.45838
1724.13660	0.46034
1722.20804	0.46227
1720.27947	0.46310
1718.35091	0.46788
1716.42234	0.48093
1714.49378	0.49060
1712.56521	0.49617
1710.63665	0.50281
1708.70808	0.51206
1706.77952	0.52855
1704.85096	0.55223
1702.92239	0.57320
1700.99383	0.60483
1699.06526	0.65846
1697.13670	0.70815
1695.20813	0.75486
1693.27957	0.78763
1691.35100	0.81250
1689.42244	0.84446
1687.49388	0.87505
1685.56531	0.90744
1683.63675	0.96344
1681.70818	1.00434
1679.77962	1.02548
1677.85105	1.04569
1675.92249	1.07238
1673.99392	1.10227
1672.06536	1.12398
1670.13680	1.14764
1668.20823	1.17411
1666.27967	1.18672
1664.35110	1.19591
1662.42254	1.21109
1660.49397	1.22393
1658.56541	1.22910
1656.63684	1.22968
1654.70828	1.23018
1652.77972	1.23493
1650.85115	1.23529
1648.92259	1.23266
1646.99402	1.23234
1645.06546	1.23158
1643.13689	1.22726
1641.20833	1.22220
1639.27976	1.21663
1637.35120	1.21233
1635.42264	1.21095
1633.49407	1.20698
1631.56551	1.20041
1629.63694	1.19222
1627.70838	1.18244
1625.77981	1.17120
1623.85125	1.15734
1621.92269	1.14083
1619.99412	1.12520
1618.06556	1.10691
1616.13699	1.08110
1614.20843	1.05812
1612.27986	1.03913
1610.35130	1.02020
1608.42273	1.00217
1606.49417	0.98737
1604.56561	0.97618
1602.63704	0.96817
1600.70848	0.96352
1598.77991	0.96126
1596.85135	0.96053
1594.92278	0.96070
1592.99422	0.96102
1591.06565	0.96186
1589.13709	0.96410
1587.20853	0.96848
1585.27996	0.97533
1583.35140	0.98450
1581.42283	0.99441
1579.49427	1.00313
1577.56570	1.01525
1575.63714	1.03568
1573.70857	1.04790
1571.78001	1.05363
1569.85145	1.06655
1567.92288	1.08283
1565.99432	1.09397
1564.06575	1.10366
1562.13719	1.10965
1560.20862	1.11659
1558.28006	1.13904
1556.35149	1.14968
1554.42293	1.15144
1552.49437	1.15267
1550.56580	1.15354
1548.63724	1.15360
1546.70867	1.15134
1544.78011	1.14650
1542.85154	1.14111
1540.92298	1.13762
1538.99441	1.12917
1537.06585	1.11894
1535.13729	1.10890
1533.20872	1.09795
1531.28016	1.08778
1529.35159	1.07864
1527.42303	1.06986
1525.49446	1.06205
1523.56590	1.05551
1521.63733	1.05077
1519.70877	1.04774
1517.78021	1.04113
1515.85164	1.02910
1513.92308	1.01438
1511.99451	0.99786
1510.06595	0.98062
1508.13738	0.95931
1506.20882	0.92782
1504.28025	0.90700
1502.35169	0.89159
1500.42313	0.87537
1498.49456	0.85790
1496.56600	0.83948
1494.63743	0.82328
1492.70887	0.81059
1490.78030	0.79963
1488.85174	0.79021
1486.92317	0.78334
1484.99461	0.77855
1483.06605	0.77652
1481.13748	0.77765
1479.20892	0.78073
1477.28035	0.78604
1475.35179	0.79620
1473.42322	0.81552
1471.49466	0.83684
1469.56610	0.84651
1467.63753	0.85152
1465.70897	0.86017
1463.78040	0.87095
1461.85184	0.87586
1459.92327	0.87794
1457.99471	0.88744
1456.06614	0.90228
1454.13758	0.90582
1452.20902	0.90595
1450.28045	0.90678
1448.35189	0.90826
1446.42332	0.90903
1444.49476	0.90796
1442.56619	0.90545
1440.63763	0.90176
1438.70906	0.89675
1436.78050	0.88981
1434.85194	0.88066
1432.92337	0.87086
1430.99481	0.86044
1429.06624	0.84970
1427.13768	0.84039
1425.20911	0.83288
1423.28055	0.82694
1421.35198	0.82223
1419.42342	0.81886
1417.49486	0.81617
1415.56629	0.81192
1413.63773	0.80661
1411.70916	0.80119
1409.78060	0.79624
1407.85203	0.79252
1405.92347	0.79136
1403.99490	0.79239
1402.06634	0.79299
1400.13778	0.79394
1398.20921	0.79693
1396.28065	0.80180
1394.35208	0.80862
1392.42352	0.81484
1390.49495	0.82045
1388.56639	0.83070
1386.63782	0.84785
1384.70926	0.86483
1382.78070	0.87880
1380.85213	0.89032
1378.92357	0.89667
1376.99500	0.89602
1375.06644	0.88850
1373.13787	0.87511
1371.20931	0.85857
1369.28074	0.83905
1367.35218	0.81771
1365.42362	0.79784
1363.49505	0.77884
1361.56649	0.76178
1359.63792	0.74973
1357.70936	0.74136
1355.78079	0.73533
1353.85223	0.73154
1351.92366	0.72962
1349.99510	0.72954
1348.06654	0.73118
1346.13797	0.73387
1344.20941	0.73722
1342.28084	0.74178
1340.35228	0.74957
1338.42371	0.76082
1336.49515	0.77240
1334.56659	0.78417
1332.63802	0.79754
1330.70946	0.81206
1328.78089	0.82556
1326.85233	0.83616
1324.92376	0.84364
1322.99520	0.84912
1321.06663	0.85413
1319.13807	0.85927
1317.20951	0.86352
1315.28094	0.86619
1313.35238	0.86788
1311.42381	0.86857
1309.49525	0.86794
1307.56668	0.86608
1305.63812	0.86318
1303.70955	0.85960
1301.78099	0.85549
1299.85243	0.85062
1297.92386	0.84508
1295.99530	0.83941
1294.06673	0.83438
1292.13817	0.83104
1290.20960	0.82964
1288.28104	0.82935
1286.35247	0.82955
1284.42391	0.83008
1282.49535	0.83081
1280.56678	0.83184
1278.63822	0.83348
1276.70965	0.83602
1274.78109	0.83947
1272.85252	0.84381
1270.92396	0.84902
1268.99539	0.85459
1267.06683	0.85965
1265.13827	0.86322
1263.20970	0.86466
1261.28114	0.86395
1259.35257	0.86157
1257.42401	0.85836
1255.49544	0.85504
1253.56688	0.85199
1251.63831	0.84965
1249.70975	0.84809
1247.78119	0.84690
1245.85262	0.84610
1243.92406	0.84573
1241.99549	0.84584
1240.06693	0.84667
1238.13836	0.84778
1236.20980	0.84832
1234.28123	0.84844
1232.35267	0.84866
1230.42411	0.84847
1228.49554	0.84732
1226.56698	0.84553
1224.63841	0.84342
1222.70985	0.84081
1220.78128	0.83769
1218.85272	0.83421
1216.92415	0.83056
1214.99559	0.82751
1213.06703	0.82581
1211.13846	0.82531
1209.20990	0.82496
1207.28133	0.82266
1205.35277	0.81645
1203.42420	0.80608
1201.49564	0.79237
1199.56708	0.77672
1197.63851	0.76071
1195.70995	0.74517
1193.78138	0.73059
1191.85282	0.71796
1189.92425	0.70809
1187.99569	0.70098
1186.06712	0.69639
1184.13856	0.69429
1182.21000	0.69503
1180.28143	0.69918
1178.35287	0.70694
1176.42430	0.71803
1174.49574	0.73177
1172.56717	0.74704
1170.63861	0.76343
1168.71004	0.78164
1166.78148	0.80213
1164.85292	0.82399
1162.92435	0.84423
1160.99579	0.85916
1159.06722	0.86728
1157.13866	0.86891
1155.21009	0.86467
1153.28153	0.85581
1151.35296	0.84392
1149.42440	0.82988
1147.49584	0.81472
1145.56727	0.80053
1143.63871	0.78905
1141.71014	0.78110
1139.78158	0.77667
1137.85301	0.77525
1135.92445	0.77658
1133.99588	0.78068
1132.06732	0.78782
1130.13876	0.79857
1128.21019	0.81316
1126.28163	0.83024
1124.35306	0.84732
1122.42450	0.86273
1120.49593	0.87572
1118.56737	0.88505
1116.63880	0.88997
1114.71024	0.89100
1112.78168	0.88843
1110.85311	0.88252
1108.92455	0.87481
1106.99598	0.86724
1105.06742	0.86064
1103.13885	0.85472
1101.21029	0.84992
1099.28172	0.84788
1097.35316	0.84958
1095.42460	0.85449
1093.49603	0.86194
1091.56747	0.87264
1089.63890	0.88735
1087.71034	0.90508
1085.78177	0.92403
1083.85321	0.94299
1081.92464	0.96097
1079.99608	0.97611
1078.06752	0.98624
1076.13895	0.99091
1074.21039	0.99058
1072.28182	0.98599
1070.35326	0.97990
1068.42469	0.97471
1066.49613	0.96936
1064.56756	0.96272
1062.63900	0.95578
1060.71044	0.94903
1058.78187	0.94216
1056.85331	0.93522
1054.92474	0.92867
1052.99618	0.92321
1051.06761	0.91896
1049.13905	0.91542
1047.21049	0.91321
1045.28192	0.91353
1043.35336	0.91615
1041.42479	0.92042
1039.49623	0.92616
1037.56766	0.93199
1035.63910	0.93586
1033.71053	0.93691
1031.78197	0.93547
1029.85341	0.93215
1027.92484	0.92659
1025.99628	0.91821
1024.06771	0.90767
1022.13915	0.89634
1020.21058	0.88544
1018.28202	0.87569
1016.35345	0.86641
1014.42489	0.85569
1012.49633	0.84213
1010.56776	0.82568
1008.63920	0.80673
1006.71063	0.78639
1004.78207	0.76637
1002.85350	0.74768
1000.92494	0.73094
998.99637	0.71686
997.06781	0.70545
995.13925	0.69582
993.21068	0.68696
991.28212	0.67830
989.35355	0.66971
987.42499	0.66171
985.49642	0.65523
983.56786	0.65086
981.63929	0.64894
979.71073	0.64950
977.78217	0.65167
975.85360	0.65391
973.92504	0.65489
971.99647	0.65382
970.06791	0.65052
968.13934	0.64545
966.21078	0.63971
964.28221	0.63489
962.35365	0.63293
960.42509	0.63543
958.49652	0.64213
956.56796	0.64961
954.63939	0.65253
952.71083	0.64755
950.78226	0.63565
948.85370	0.62065
946.92513	0.60595
944.99657	0.59336
943.06801	0.58356
941.13944	0.57619
939.21088	0.57060
937.28231	0.56687
935.35375	0.56514
933.42518	0.56479
931.49662	0.56509
929.56805	0.56579
927.63949	0.56717
925.71093	0.56961
923.78236	0.57277
921.85380	0.57549
919.92523	0.57664
917.99667	0.57625
916.06810	0.57519
914.13954	0.57404
912.21098	0.57314
910.28241	0.57312
908.35385	0.57457
906.42528	0.57745
904.49672	0.58115
902.56815	0.58511
900.63959	0.58877
898.71102	0.59143
896.78246	0.59283
894.85390	0.59311
892.92533	0.59244
890.99677	0.59137
889.06820	0.59057
887.13964	0.59028
885.21107	0.59059
883.28251	0.59164
881.35394	0.59373
879.42538	0.59725
877.49682	0.60176
875.56825	0.60625
873.63969	0.61007
871.71112	0.61275
869.78256	0.61382
867.85399	0.61332
865.92543	0.61144
863.99686	0.60782
862.06830	0.60247
860.13974	0.59602
858.21117	0.58866
856.28261	0.58054
854.35404	0.57229
852.42548	0.56445
850.49691	0.55729
848.56835	0.55115
846.63978	0.54632
844.71122	0.54330
842.78266	0.54253
840.85409	0.54383
838.92553	0.54661
836.99696	0.55069
835.06840	0.55628
833.13983	0.56312
831.21127	0.57045
829.28270	0.57804
827.35414	0.58624
825.42558	0.59532
823.49701	0.60505
821.56845	0.61472
819.63988	0.62416
817.71132	0.63382
815.78275	0.64368
813.85419	0.65323
811.92562	0.66211
809.99706	0.67027
808.06850	0.67799
806.13993	0.68502
804.21137	0.69105
802.28280	0.69660
800.35424	0.70191
798.42567	0.70630
796.49711	0.70903
794.56854	0.71044
792.63998	0.71129
790.71142	0.71214
788.78285	0.71359
786.85429	0.71567
784.92572	0.71799
782.99716	0.72068
781.06859	0.72422
779.14003	0.72805
777.21147	0.73158
775.28290	0.73513
773.35434	0.73843
771.42577	0.74070
769.49721	0.74186
767.56864	0.74188
765.64008	0.74029
763.71151	0.73683
761.78295	0.73207
759.85439	0.72652
757.92582	0.72019
755.99726	0.71331
754.06869	0.70626
752.14013	0.69914
750.21156	0.69232
748.28300	0.68633
746.35443	0.68119
744.42587	0.67707
742.49731	0.67435
740.56874	0.67281
738.64018	0.67227
736.71161	0.67299
734.78305	0.67523
732.85448	0.67924
730.92592	0.68485
728.99735	0.69113
727.06879	0.69716
725.14023	0.70280
723.21166	0.70852
721.28310	0.71431
719.35453	0.71893
717.42597	0.72168
715.49740	0.72378
713.56884	0.72573
711.64027	0.72635
709.71171	0.72586
707.78315	0.72596
705.85458	0.72641
703.92602	0.72549
701.99745	0.72306
700.06889	0.72030
698.14032	0.71707
696.21176	0.71267
694.28319	0.70814
692.35463	0.70458
690.42607	0.70211
688.49750	0.70076
686.56894	0.70050
684.64037	0.70123
682.71181	0.70329
680.78324	0.70725
678.85468	0.71307
676.92611	0.72075
674.99755	0.73037
673.06899	0.74034
671.14042	0.74929
669.21186	0.76201
667.28329	0.77979
665.35473	0.79051
663.42616	0.79812
661.49760	0.80602
659.56903	0.81300
657.64047	0.81916
655.71191	0.82376
653.78334	0.82587
651.85478	0.82586
649.92621	0.82442
647.99765	0.82298
646.06908	0.82174
644.14052	0.82068
642.21195	0.82168
640.28339	0.82484
638.35483	0.82734
636.42626	0.82781
634.49770	0.82720
632.56913	0.82551
630.64057	0.82237
628.71200	0.81989
626.78344	0.81943
624.85488	0.81910
622.92631	0.81678
620.99775	0.81177
619.06918	0.80421
617.14062	0.79452
615.21205	0.78401
613.28349	0.77444
611.35492	0.76492
609.42636	0.75324
607.49780	0.73925
605.56923	0.72487
603.64067	0.71213
601.71210	0.70067
599.78354	0.68947
