3997.91406	0.69084
3995.98550	0.69018
3994.05693	0.68890
3992.12837	0.68773
3990.19980	0.68688
3988.27124	0.68617
3986.34268	0.68502
3984.41411	0.68352
3982.48555	0.68391
3980.55698	0.68623
3978.62842	0.68646
3976.69985	0.68433
3974.77129	0.68356
3972.84272	0.68416
3970.91416	0.68465
3968.98560	0.68523
3967.05703	0.68483
3965.12847	0.68335
3963.19990	0.68262
3961.27134	0.68296
3959.34277	0.68363
3957.41421	0.68484
3955.48564	0.68570
3953.55708	0.68462
3951.62852	0.68236
3949.69995	0.68237
3947.77139	0.68455
3945.84282	0.68425
3943.91426	0.68254
3941.98569	0.68119
3940.05713	0.67848
3938.12856	0.67576
3936.20000	0.67374
3934.27144	0.67271
3932.34287	0.67547
3930.41431	0.67943
3928.48574	0.67843
3926.55718	0.67464
3924.62861	0.67290
3922.70005	0.67228
3920.77148	0.67084
3918.84292	0.67132
3916.91436	0.67605
3914.98579	0.67942
3913.05723	0.67732
3911.12866	0.67428
3909.20010	0.67141
3907.27153	0.66587
3905.34297	0.66208
3903.41440	0.66612
3901.48584	0.67230
3899.55728	0.67712
3897.62871	0.67821
3895.70015	0.67292
3893.77158	0.66753
3891.84302	0.67049
3889.91445	0.67198
3887.98589	0.66471
3886.05733	0.66122
3884.12876	0.66457
3882.20020	0.66563
3880.27163	0.66879
3878.34307	0.66891
3876.41450	0.66324
3874.48594	0.66027
3872.55737	0.66071
3870.62881	0.66482
3868.70025	0.66936
3866.77168	0.66519
3864.84312	0.66194
3862.91455	0.66643
3860.98599	0.66698
3859.05742	0.65954
3857.12886	0.64657
3855.20029	0.63585
3853.27173	0.65109
3851.34317	0.66763
3849.41460	0.66483
3847.48604	0.65784
3845.55747	0.65267
3843.62891	0.65122
3841.70034	0.65031
3839.77178	0.64873
3837.84321	0.65295
3835.91465	0.65928
3833.98609	0.66298
3832.05752	0.66566
3830.12896	0.66505
3828.20039	0.66152
3826.27183	0.65832
3824.34326	0.65166
3822.41470	0.64576
3820.48613	0.65312
3818.55757	0.65689
3816.62901	0.65804
3814.70044	0.66441
3812.77188	0.66385
3810.84331	0.65623
3808.91475	0.64929
3806.98618	0.64963
3805.05762	0.64867
3803.12905	0.64617
3801.20049	0.65562
3799.27193	0.66172
3797.34336	0.66126
3795.41480	0.66209
3793.48623	0.65967
3791.55767	0.65612
3789.62910	0.65463
3787.70054	0.65457
3785.77197	0.65771
3783.84341	0.65991
3781.91485	0.65575
3779.98628	0.65419
3778.05772	0.65929
3776.12915	0.66008
3774.20059	0.65452
3772.27202	0.64806
3770.34346	0.64674
3768.41489	0.64845
3766.48633	0.64926
3764.55777	0.64992
3762.62920	0.64642
3760.70064	0.64306
3758.77207	0.64805
3756.84351	0.65031
3754.91494	0.64158
3752.98638	0.63181
3751.05781	0.63987
3749.12925	0.65212
3747.20069	0.64764
3745.27212	0.64706
3743.34356	0.65675
3741.41499	0.65585
3739.48643	0.64553
3737.55786	0.63683
3735.62930	0.64213
3733.70074	0.65803
3731.77217	0.66480
3729.84361	0.66089
3727.91504	0.65436
3725.98648	0.65269
3724.05791	0.65518
3722.12935	0.65716
3720.20078	0.65767
3718.27222	0.65500
3716.34366	0.64765
3714.41509	0.63695
3712.48653	0.63384
3710.55796	0.64911
3708.62940	0.65934
3706.70083	0.65705
3704.77227	0.65167
3702.84370	0.65214
3700.91514	0.65906
3698.98658	0.66159
3697.05801	0.65937
3695.12945	0.65557
3693.20088	0.64984
3691.27232	0.64651
3689.34375	0.65694
3687.41519	0.66989
3685.48662	0.67210
3683.55806	0.66978
3681.62950	0.66728
3679.70093	0.66329
3677.77237	0.65844
3675.84380	0.66627
3673.91524	0.67521
3671.98667	0.67196
3670.05811	0.68017
3668.12954	0.69332
3666.20098	0.69291
3664.27242	0.68902
3662.34385	0.68742
3660.41529	0.68646
3658.48672	0.68737
3656.55816	0.69505
3654.62959	0.69847
3652.70103	0.68945
3650.77246	0.68413
3648.84390	0.70899
3646.91534	0.73145
3644.98677	0.73468
3643.05821	0.73584
3641.12964	0.73926
3639.20108	0.74227
3637.27251	0.74417
3635.34395	0.74612
3633.41538	0.74637
3631.48682	0.74437
3629.55826	0.75487
3627.62969	0.77874
3625.70113	0.78434
3623.77256	0.77874
3621.84400	0.77308
3619.91543	0.77736
3617.98687	0.79006
3616.05830	0.79595
3614.12974	0.79979
3612.20118	0.80399
3610.27261	0.80660
3608.34405	0.81592
3606.41548	0.82700
3604.48692	0.82954
3602.55835	0.83026
3600.62979	0.83415
3598.70123	0.83756
3596.77266	0.84123
3594.84410	0.84876
3592.91553	0.85433
3590.98697	0.85328
3589.05840	0.85419
3587.12984	0.86630
3585.20127	0.87776
3583.27271	0.88305
3581.34415	0.88792
3579.41558	0.89336
3577.48702	0.89778
3575.55845	0.90084
3573.62989	0.90323
3571.70132	0.90383
3569.77276	0.90304
3567.84419	0.91084
3565.91563	0.92962
3563.98707	0.93922
3562.05850	0.94167
3560.12994	0.94542
3558.20137	0.95012
3556.27281	0.95396
3554.34424	0.95908
3552.41568	0.96694
3550.48711	0.97289
3548.55855	0.97605
3546.62999	0.98244
3544.70142	0.99272
3542.77286	0.99991
3540.84429	1.00326
3538.91573	1.00794
3536.98716	1.01644
3535.05860	1.02478
3533.13003	1.03009
3531.20147	1.03552
3529.27291	1.04321
3527.34434	1.05013
3525.41578	1.05419
3523.48721	1.06030
3521.55865	1.07149
3519.63008	1.08266
3517.70152	1.09066
3515.77295	1.09760
3513.84439	1.10541
3511.91583	1.11435
3509.98726	1.12478
3508.05870	1.13446
3506.13013	1.14305
3504.20157	1.15737
3502.27300	1.17498
3500.34444	1.18442
3498.41587	1.18873
3496.48731	1.19511
3494.55875	1.20375
3492.63018	1.21259
3490.70162	1.22177
3488.77305	1.23027
3486.84449	1.23692
3484.91592	1.24449
3482.98736	1.25406
3481.05879	1.25948
3479.13023	1.25722
3477.20167	1.25548
3475.27310	1.25960
3473.34454	1.26443
3471.41597	1.26683
3469.48741	1.27067
3467.55884	1.27710
3465.63028	1.28256
3463.70171	1.28659
3461.77315	1.29168
3459.84459	1.29783
3457.91602	1.30355
3455.98746	1.30870
3454.05889	1.31307
3452.13033	1.31570
3450.20176	1.31930
3448.27320	1.32826
3446.34464	1.33818
3444.41607	1.34188
3442.48751	1.34324
3440.55894	1.34511
3438.63038	1.34417
3436.70181	1.34157
3434.77325	1.33962
3432.84468	1.33915
3430.91612	1.34146
3428.98756	1.34368
3427.05899	1.34327
3425.13043	1.34343
3423.20186	1.34666
3421.27330	1.35019
3419.34473	1.35065
3417.41617	1.34950
3415.48760	1.34738
3413.55904	1.34423
3411.63048	1.34456
3409.70191	1.34852
3407.77335	1.35069
3405.84478	1.35151
3403.91622	1.35200
3401.98765	1.35084
3400.05909	1.35169
3398.13052	1.35486
3396.20196	1.35667
3394.27340	1.35990
3392.34483	1.36440
3390.41627	1.36507
3388.48770	1.36553
3386.55914	1.36986
3384.63057	1.37362
3382.70201	1.37456
3380.77344	1.37553
3378.84488	1.37562
3376.91632	1.37301
3374.98775	1.37193
3373.05919	1.37558
3371.13062	1.37926
3369.20206	1.37996
3367.27349	1.38226
3365.34493	1.38765
3363.41636	1.39234
3361.48780	1.39541
3359.55924	1.39586
3357.63067	1.39330
3355.70211	1.39475
3353.77354	1.40205
3351.84498	1.40533
3349.91641	1.40224
3347.98785	1.40013
3346.05928	1.40392
3344.13072	1.41259
3342.20216	1.41955
3340.27359	1.42162
3338.34503	1.42236
3336.41646	1.42491
3334.48790	1.42746
3332.55933	1.42954
3330.63077	1.43618
3328.70220	1.44529
3326.77364	1.45228
3324.84508	1.45913
3322.91651	1.46410
3320.98795	1.46752
3319.05938	1.47332
3317.13082	1.47747
3315.20225	1.47869
3313.27369	1.48392
3311.34513	1.49331
3309.41656	1.50129
3307.48800	1.50609
3305.55943	1.50870
3303.63087	1.51089
3301.70230	1.51389
3299.77374	1.51981
3297.84517	1.52737
3295.91661	1.52980
3293.98805	1.52849
3292.05948	1.53142
3290.13092	1.53860
3288.20235	1.54311
3286.27379	1.54163
3284.34522	1.53962
3282.41666	1.54164
3280.48809	1.54300
3278.55953	1.54022
3276.63097	1.53591
3274.70240	1.53019
3272.77384	1.52293
3270.84527	1.51596
3268.91671	1.51021
3266.98814	1.50813
3265.05958	1.50850
3263.13101	1.50427
3261.20245	1.49501
3259.27389	1.48835
3257.34532	1.48494
3255.41676	1.47525
3253.48819	1.45757
3251.55963	1.44127
3249.63106	1.43092
3247.70250	1.42552
3245.77393	1.42104
3243.84537	1.41286
3241.91681	1.40399
3239.98824	1.39870
3238.05968	1.39368
3236.13111	1.38333
3234.20255	1.36963
3232.27398	1.36092
3230.34542	1.35913
3228.41685	1.35759
3226.48829	1.35309
3224.55973	1.34863
3222.63116	1.34456
3220.70260	1.33899
3218.77403	1.33190
3216.84547	1.32463
3214.91690	1.31984
3212.98834	1.31582
3211.05977	1.30766
3209.13121	1.29768
3207.20265	1.29063
3205.27408	1.28665
3203.34552	1.28195
3201.41695	1.27217
3199.48839	1.25996
3197.55982	1.25159
3195.63126	1.24743
3193.70269	1.24455
3191.77413	1.24135
3189.84557	1.23644
3187.91700	1.22952
3185.98844	1.22246
3184.05987	1.21570
3182.13131	1.20818
3180.20274	1.20164
3178.27418	1.19775
3176.34562	1.19317
3174.41705	1.18616
3172.48849	1.17940
3170.55992	1.17413
3168.63136	1.17050
3166.70279	1.16706
3164.77423	1.16128
3162.84566	1.15566
3160.91710	1.15319
3158.98854	1.15192
3157.05997	1.14961
3155.13141	1.14573
3153.20284	1.14106
3151.27428	1.13716
3149.34571	1.13501
3147.41715	1.13512
3145.48858	1.13554
3143.56002	1.13266
3141.63146	1.12761
3139.70289	1.12465
3137.77433	1.12407
3135.84576	1.12307
3133.91720	1.12049
3131.98863	1.11757
3130.06007	1.11614
3128.13150	1.11704
3126.20294	1.11852
3124.27438	1.11822
3122.34581	1.11769
3120.41725	1.11890
3118.48868	1.12029
3116.56012	1.12111
3114.63155	1.12216
3112.70299	1.12281
3110.77442	1.12290
3108.84586	1.12307
3106.91730	1.12287
3104.98873	1.12212
3103.06017	1.12128
3101.13160	1.11990
3099.20304	1.11798
3097.27447	1.11628
3095.34591	1.11441
3093.41734	1.11161
3091.48878	1.10810
3089.56022	1.10564
3087.63165	1.10562
3085.70309	1.10592
3083.77452	1.10444
3081.84596	1.10182
3079.91739	1.09774
3077.98883	1.09232
3076.06026	1.08829
3074.13170	1.08655
3072.20314	1.08470
3070.27457	1.08160
3068.34601	1.07906
3066.41744	1.07788
3064.48888	1.07665
3062.56031	1.07394
3060.63175	1.06978
3058.70318	1.06593
3056.77462	1.06311
3054.84606	1.05989
3052.91749	1.05528
3050.98893	1.05004
3049.06036	1.04554
3047.13180	1.04183
3045.20323	1.03777
3043.27467	1.03261
3041.34610	1.02676
3039.41754	1.02126
3037.48898	1.01625
3035.56041	1.01200
3033.63185	1.00907
3031.70328	1.00693
3029.77472	1.00476
3027.84615	1.00180
3025.91759	0.99856
3023.98903	0.99662
3022.06046	0.99502
3020.13190	0.99220
3018.20333	0.99021
3016.27477	0.99071
3014.34620	0.99046
3012.41764	0.98684
3010.48907	0.98275
3008.56051	0.98099
3006.63195	0.98020
3004.70338	0.97895
3002.77482	0.97783
3000.84625	0.97694
2998.91769	0.97600
2996.98912	0.97596
2995.06056	0.97771
2993.13199	0.98096
2991.20343	0.98444
2989.27487	0.98777
2987.34630	0.99273
2985.41774	0.99981
2983.48917	1.00748
2981.56061	1.01568
2979.63204	1.02431
2977.70348	1.03174
2975.77491	1.03820
2973.84635	1.04582
2971.91779	1.05438
2969.98922	1.06151
2968.06066	1.06710
2966.13209	1.07319
2964.20353	1.07994
2962.27496	1.08489
2960.34640	1.08587
2958.41783	1.08289
2956.48927	1.07648
2954.56071	1.06708
2952.63214	1.05762
2950.70358	1.05135
2948.77501	1.04850
2946.84645	1.04888
2944.91788	1.05268
2942.98932	1.05936
2941.06075	1.06906
2939.13219	1.08175
2937.20363	1.09613
2935.27506	1.11062
2933.34650	1.12349
2931.41793	1.13423
2929.48937	1.14448
2927.56080	1.15443
2925.63224	1.16293
2923.70367	1.17159
2921.77511	1.18030
2919.84655	1.18372
2917.91798	1.17710
2915.98942	1.15890
2914.06085	1.13223
2912.13229	1.10501
2910.20372	1.08243
2908.27516	1.06442
2906.34659	1.04963
2904.41803	1.03810
2902.48947	1.03034
2900.56090	1.02500
2898.63234	1.02044
2896.70377	1.01619
2894.77521	1.01210
2892.84664	1.00826
2890.91808	1.00483
2888.98952	1.00171
2887.06095	0.99846
2885.13239	0.99513
2883.20382	0.99353
2881.27526	0.99486
2879.34669	0.99706
2877.41813	0.99777
2875.48956	0.99717
2873.56100	0.99554
2871.63244	0.99188
2869.70387	0.98536
2867.77531	0.97668
2865.84674	0.96887
2863.91818	0.96471
2861.98961	0.96416
2860.06105	0.96624
2858.13248	0.97097
2856.20392	0.97817
2854.27536	0.98706
2852.34679	0.99622
2850.41823	0.99975
2848.48966	0.98784
2846.56110	0.96012
2844.63253	0.92969
2842.70397	0.90694
2840.77540	0.89155
2838.84684	0.88021
2836.91828	0.87229
2834.98971	0.86797
2833.06115	0.86579
2831.13258	0.86370
2829.20402	0.86098
2827.27545	0.85862
2825.34689	0.85734
2823.41832	0.85600
2821.48976	0.85325
2819.56120	0.84972
2817.63263	0.84674
2815.70407	0.84410
2813.77550	0.84090
2811.84694	0.83673
2809.91837	0.83200
2807.98981	0.82765
2806.06124	0.82360
2804.13268	0.81925
2802.20412	0.81479
2800.27555	0.81062
2798.34699	0.80707
2796.41842	0.80424
2794.48986	0.80159
2792.56129	0.79854
2790.63273	0.79526
2788.70416	0.79276
2786.77560	0.79178
2784.84704	0.79166
2782.91847	0.79132
2780.98991	0.79061
2779.06134	0.78965
2777.13278	0.78847
2775.20421	0.78742
2773.27565	0.78666
2771.34708	0.78590
2769.41852	0.78490
2767.48996	0.78375
2765.56139	0.78223
2763.63283	0.78016
2761.70426	0.77789
2759.77570	0.77514
2757.84713	0.77160
2755.91857	0.76815
2753.99001	0.76582
2752.06144	0.76405
2750.13288	0.76187
2748.20431	0.75951
2746.27575	0.75766
2744.34718	0.75653
2742.41862	0.75562
2740.49005	0.75451
2738.56149	0.75355
2736.63293	0.75296
2734.70436	0.75238
2732.77580	0.75178
2730.84723	0.75148
2728.91867	0.75151
2726.99010	0.75144
2725.06154	0.75092
2723.13297	0.74999
2721.20441	0.74886
2719.27585	0.74760
2717.34728	0.74626
2715.41872	0.74524
2713.49015	0.74441
2711.56159	0.74313
2709.63302	0.74115
2707.70446	0.73844
2705.77589	0.73534
2703.84733	0.73269
2701.91877	0.73068
2699.99020	0.72885
2698.06164	0.72710
2696.13307	0.72584
2694.20451	0.72524
2692.27594	0.72508
2690.34738	0.72521
2688.41881	0.72533
2686.49025	0.72533
2684.56169	0.72532
2682.63312	0.72520
2680.70456	0.72511
2678.77599	0.72521
2676.84743	0.72493
2674.91886	0.72414
2672.99030	0.72356
2671.06173	0.72327
2669.13317	0.72253
2667.20461	0.72126
2665.27604	0.71989
2663.34748	0.71831
2661.41891	0.71648
2659.49035	0.71494
2657.56178	0.71350
2655.63322	0.71141
2653.70465	0.70905
2651.77609	0.70743
2649.84753	0.70653
2647.91896	0.70560
2645.99040	0.70437
2644.06183	0.70286
2642.13327	0.70110
2640.20470	0.69964
2638.27614	0.69893
2636.34757	0.69852
2634.41901	0.69792
2632.49045	0.69728
2630.56188	0.69680
2628.63332	0.69633
2626.70475	0.69571
2624.77619	0.69507
2622.84762	0.69457
2620.91906	0.69405
2618.99049	0.69325
2617.06193	0.69219
2615.13337	0.69132
2613.20480	0.69072
2611.27624	0.68977
2609.34767	0.68865
2607.41911	0.68792
2605.49054	0.68707
2603.56198	0.68579
2601.63342	0.68460
2599.70485	0.68350
2597.77629	0.68231
2595.84772	0.68123
2593.91916	0.68033
2591.99059	0.67963
2590.06203	0.67926
2588.13346	0.67896
2586.20490	0.67847
2584.27634	0.67806
2582.34777	0.67779
2580.41921	0.67748
2578.49064	0.67730
2576.56208	0.67728
2574.63351	0.67720
2572.70495	0.67682
2570.77638	0.67618
2568.84782	0.67575
2566.91926	0.67551
2564.99069	0.67495
2563.06213	0.67400
2561.13356	0.67322
2559.20500	0.67282
2557.27643	0.67235
2555.34787	0.67144
2553.41930	0.67021
2551.49074	0.66905
2549.56218	0.66823
2547.63361	0.66741
2545.70505	0.66603
2543.77648	0.66418
2541.84792	0.66268
2539.91935	0.66185
2537.99079	0.66119
2536.06222	0.66034
2534.13366	0.65931
2532.20510	0.65814
2530.27653	0.65704
2528.34797	0.65622
2526.41940	0.65561
2524.49084	0.65505
2522.56227	0.65454
2520.63371	0.65432
2518.70514	0.65454
2516.77658	0.65501
2514.84802	0.65539
2512.91945	0.65552
2510.99089	0.65529
2509.06232	0.65485
2507.13376	0.65441
2505.20519	0.65383
2503.27663	0.65311
2501.34806	0.65246
2499.41950	0.65175
2497.49094	0.65050
2495.56237	0.64881
2493.63381	0.64748
2491.70524	0.64679
2489.77668	0.64628
2487.84811	0.64563
2485.91955	0.64493
2483.99098	0.64431
2482.06242	0.64380
2480.13386	0.64345
2478.20529	0.64324
2476.27673	0.64298
2474.34816	0.64278
2472.41960	0.64295
2470.49103	0.64341
2468.56247	0.64372
2466.63391	0.64384
2464.70534	0.64382
2462.77678	0.64343
2460.84821	0.64296
2458.91965	0.64282
2456.99108	0.64280
2455.06252	0.64230
2453.13395	0.64117
2451.20539	0.64007
2449.27683	0.63926
2447.34826	0.63832
2445.41970	0.63720
2443.49113	0.63620
2441.56257	0.63537
2439.63400	0.63452
2437.70544	0.63374
2435.77687	0.63318
2433.84831	0.63245
2431.91975	0.63137
2429.99118	0.63052
2428.06262	0.63028
2426.13405	0.63017
2424.20549	0.62972
2422.27692	0.62906
2420.34836	0.62885
2418.41979	0.62938
2416.49123	0.62992
2414.56267	0.62993
2412.63410	0.62986
2410.70554	0.63005
2408.77697	0.63034
2406.84841	0.63066
2404.91984	0.63069
2402.99128	0.63039
2401.06271	0.63025
2399.13415	0.63032
2397.20559	0.63014
2395.27702	0.62963
2393.34846	0.62924
2391.41989	0.62918
2389.49133	0.62895
2387.56276	0.62808
2385.63420	0.62700
2383.70563	0.62626
2381.77707	0.62561
2379.84851	0.62477
2377.91994	0.62415
2375.99138	0.62402
2374.06281	0.62396
2372.13425	0.62362
2370.20568	0.62343
2368.27712	0.62406
2366.34855	0.62432
2364.41999	0.62267
2362.49143	0.62169
2360.56286	0.62388
2358.63430	0.62722
2356.70573	0.62996
2354.77717	0.63211
2352.84860	0.63272
2350.92004	0.63019
2348.99147	0.62584
2347.06291	0.62259
2345.13435	0.62293
2343.20578	0.62627
2341.27722	0.62915
2339.34865	0.63048
2337.42009	0.63081
2335.49152	0.63029
2333.56296	0.62938
2331.63440	0.62906
2329.70583	0.62865
2327.77727	0.62743
2325.84870	0.62594
2323.92014	0.62432
2321.99157	0.62289
2320.06301	0.62161
2318.13444	0.61991
2316.20588	0.61842
2314.27732	0.61759
2312.34875	0.61689
2310.42019	0.61627
2308.49162	0.61594
2306.56306	0.61553
2304.63449	0.61516
2302.70593	0.61540
2300.77736	0.61594
2298.84880	0.61636
2296.92024	0.61672
2294.99167	0.61698
2293.06311	0.61719
2291.13454	0.61742
2289.20598	0.61751
2287.27741	0.61753
2285.34885	0.61756
2283.42028	0.61722
2281.49172	0.61627
2279.56316	0.61511
2277.63459	0.61427
2275.70603	0.61368
2273.77746	0.61280
2271.84890	0.61155
2269.92033	0.61054
2267.99177	0.61015
2266.06320	0.60990
2264.13464	0.60941
2262.20608	0.60921
2260.27751	0.60979
2258.34895	0.61083
2256.42038	0.61181
2254.49182	0.61253
2252.56325	0.61293
2250.63469	0.61330
2248.70612	0.61389
2246.77756	0.61461
2244.84900	0.61537
2242.92043	0.61596
2240.99187	0.61611
2239.06330	0.61590
2237.13474	0.61564
2235.20617	0.61525
2233.27761	0.61442
2231.34904	0.61324
2229.42048	0.61180
2227.49192	0.61003
2225.56335	0.60819
2223.63479	0.60658
2221.70622	0.60520
2219.77766	0.60395
2217.84909	0.60284
2215.92053	0.60193
2213.99196	0.60106
2212.06340	0.60035
2210.13484	0.60005
2208.20627	0.60000
2206.27771	0.60003
2204.34914	0.60027
2202.42058	0.60076
2200.49201	0.60152
2198.56345	0.60253
2196.63488	0.60366
2194.70632	0.60473
2192.77776	0.60551
2190.84919	0.60609
2188.92063	0.60664
2186.99206	0.60699
2185.06350	0.60720
2183.13493	0.60748
2181.20637	0.60761
2179.27781	0.60724
2177.34924	0.60653
2175.42068	0.60597
2173.49211	0.60567
2171.56355	0.60522
2169.63498	0.60461
2167.70642	0.60427
2165.77785	0.60418
2163.84929	0.60407
2161.92073	0.60393
2159.99216	0.60385
2158.06360	0.60371
2156.13503	0.60330
2154.20647	0.60292
2152.27790	0.60289
2150.34934	0.60297
2148.42077	0.60295
2146.49221	0.60272
2144.56365	0.60210
2142.63508	0.60132
2140.70652	0.60056
2138.77795	0.59949
2136.84939	0.59817
2134.92082	0.59695
2132.99226	0.59587
2131.06369	0.59492
2129.13513	0.59407
2127.20657	0.59333
2125.27800	0.59272
2123.34944	0.59203
2121.42087	0.59113
2119.49231	0.59030
2117.56374	0.58978
2115.63518	0.58951
2113.70661	0.58951
2111.77805	0.58972
2109.84949	0.58992
2107.92092	0.59016
2105.99236	0.59056
2104.06379	0.59108
2102.13523	0.59154
2100.20666	0.59182
2098.27810	0.59203
2096.34953	0.59221
2094.42097	0.59246
2092.49241	0.59275
2090.56384	0.59282
2088.63528	0.59263
2086.70671	0.59234
2084.77815	0.59195
2082.84958	0.59131
2080.92102	0.59057
2078.99245	0.58994
2077.06389	0.58942
2075.13533	0.58887
2073.20676	0.58811
2071.27820	0.58696
2069.34963	0.58550
2067.42107	0.58426
2065.49250	0.58365
2063.56394	0.58324
2061.63537	0.58240
2059.70681	0.58134
2057.77825	0.58023
2055.84968	0.57885
2053.92112	0.57730
2051.99255	0.57577
2050.06399	0.57431
2048.13542	0.57301
2046.20686	0.57179
2044.27830	0.57039
2042.34973	0.56893
2040.42117	0.56772
2038.49260	0.56673
2036.56404	0.56616
2034.63547	0.56621
2032.70691	0.56652
2030.77834	0.56686
2028.84978	0.56746
2026.92122	0.56859
2024.99265	0.56991
2023.06409	0.57080
2021.13552	0.57139
2019.20696	0.57230
2017.27839	0.57352
2015.34983	0.57420
2013.42126	0.57414
2011.49270	0.57394
2009.56414	0.57362
2007.63557	0.57273
2005.70701	0.57136
2003.77844	0.57001
2001.84988	0.56865
1999.92131	0.56702
1997.99275	0.56508
1996.06418	0.56274
1994.13562	0.56038
1992.20706	0.55872
1990.27849	0.55745
1988.34993	0.55588
1986.42136	0.55423
1984.49280	0.55286
1982.56423	0.55178
1980.63567	0.55089
1978.70710	0.55027
1976.77854	0.54996
1974.84998	0.54970
1972.92141	0.54927
1970.99285	0.54858
1969.06428	0.54800
1967.13572	0.54809
1965.20715	0.54816
1963.27859	0.54763
1961.35002	0.54705
1959.42146	0.54641
1957.49290	0.54544
1955.56433	0.54440
1953.63577	0.54330
1951.70720	0.54209
1949.77864	0.54087
1947.85007	0.53971
1945.92151	0.53866
1943.99294	0.53828
1942.06438	0.53877
1940.13582	0.53875
1938.20725	0.53809
1936.27869	0.53799
1934.35012	0.53869
1932.42156	0.53978
1930.49299	0.54103
1928.56443	0.54227
1926.63586	0.54327
1924.70730	0.54464
1922.77874	0.54692
1920.85017	0.54856
1918.92161	0.54965
1916.99304	0.55119
1915.06448	0.55190
1913.13591	0.55153
1911.20735	0.55117
1909.27878	0.55121
1907.35022	0.55091
1905.42166	0.54969
1903.49309	0.54798
1901.56453	0.54604
1899.63596	0.54370
1897.70740	0.54109
1895.77883	0.53868
1893.85027	0.53625
1891.92171	0.53359
1889.99314	0.53169
1888.06458	0.53043
1886.13601	0.52874
1884.20745	0.52725
1882.27888	0.52641
1880.35032	0.52602
1878.42175	0.52590
1876.49319	0.52570
1874.56463	0.52511
1872.63606	0.52406
1870.70750	0.52364
1868.77893	0.52591
1866.85037	0.52869
1864.92180	0.52887
1862.99324	0.52816
1861.06467	0.52802
1859.13611	0.52827
1857.20755	0.52838
1855.27898	0.52814
1853.35042	0.52752
1851.42185	0.52646
1849.49329	0.52522
1847.56472	0.52409
1845.63616	0.52411
1843.70759	0.52575
1841.77903	0.52562
1839.85047	0.52368
1837.92190	0.52247
1835.99334	0.52221
1834.06477	0.52139
1832.13621	0.52061
1830.20764	0.52239
1828.27908	0.52517
1826.35051	0.52650
1824.42195	0.52821
1822.49339	0.52976
1820.56482	0.53055
1818.63626	0.53180
1816.70769	0.53341
1814.77913	0.53446
1812.85056	0.53523
1810.92200	0.53646
1808.99343	0.53711
1807.06487	0.53621
1805.13631	0.53448
1803.20774	0.53299
1801.27918	0.53254
1799.35061	0.53230
1797.42205	0.53097
1795.49348	0.52895
1793.56492	0.52828
1791.63635	0.53034
1789.70779	0.53090
1787.77923	0.52943
1785.85066	0.52889
1783.92210	0.52946
1781.99353	0.53026
1780.06497	0.53146
1778.13640	0.53201
1776.20784	0.53146
1774.27927	0.53198
1772.35071	0.53602
1770.42215	0.54025
1768.49358	0.54198
1766.56502	0.54262
1764.63645	0.54270
1762.70789	0.54451
1760.77932	0.54830
1758.85076	0.55098
1756.92220	0.55391
1754.99363	0.55652
1753.06507	0.55803
1751.13650	0.56234
1749.20794	0.57073
1747.27937	0.57758
1745.35081	0.58155
1743.42224	0.58445
1741.49368	0.58748
1739.56512	0.59044
1737.63655	0.59091
1735.70799	0.59052
1733.77942	0.59517
1731.85086	0.59997
1729.92229	0.60132
1727.99373	0.60288
1726.06516	0.60551
1724.13660	0.61042
1722.20804	0.61567
1720.27947	0.61983
1718.35091	0.62905
1716.42234	0.64841
1714.49378	0.66344
1712.56521	0.67292
1710.63665	0.68309
1708.70808	0.69579
1706.77952	0.71619
1704.85096	0.74447
1702.92239	0.76968
1700.99383	0.80603
1699.06526	0.86557
1697.13670	0.92041
1695.20813	0.97368
1693.27957	1.01335
1691.35100	1.04575
1689.42244	1.08774
1687.49388	1.12756
1685.56531	1.16933
1683.63675	1.24330
1681.70818	1.30089
1679.77962	1.33284
1677.85105	1.36254
1675.92249	1.39937
1673.99392	1.44015
1672.06536	1.47011
1670.13680	1.49970
1668.20823	1.53118
1666.27967	1.54726
1664.35110	1.55944
1662.42254	1.57605
1660.49397	1.58821
1658.56541	1.59290
1656.63684	1.59396
1654.70828	1.59784
1652.77972	1.60343
1650.85115	1.59829
1648.92259	1.59232
1646.99402	1.59104
1645.06546	1.59052
1643.13689	1.58438
1641.20833	1.57705
1639.27976	1.57075
1637.35120	1.56805
1635.42264	1.56697
1633.49407	1.55978
1631.56551	1.54988
1629.63694	1.53706
1627.70838	1.52194
1625.77981	1.50524
1623.85125	1.48311
1621.92269	1.45702
1619.99412	1.43423
1618.06556	1.40695
1616.13699	1.36645
1614.20843	1.33078
1612.27986	1.30162
1610.35130	1.27159
1608.42273	1.24186
1606.49417	1.21768
1604.56561	1.20048
1602.63704	1.18773
1600.70848	1.17772
1598.77991	1.17010
1596.85135	1.16529
1594.92278	1.16284
1592.99422	1.16151
1591.06565	1.16159
1589.13709	1.16424
1587.20853	1.16962
1585.27996	1.17792
1583.35140	1.18988
1581.42283	1.20376
1579.49427	1.21707
1577.56570	1.23519
1575.63714	1.26460
1573.70857	1.28558
1571.78001	1.29907
1569.85145	1.32151
1567.92288	1.34660
1565.99432	1.36353
1564.06575	1.37922
1562.13719	1.39328
1560.20862	1.41235
1558.28006	1.44592
1556.35149	1.45469
1554.42293	1.45424
1552.49437	1.45571
1550.56580	1.45882
1548.63724	1.45984
1546.70867	1.45664
1544.78011	1.45001
1542.85154	1.43834
1540.92298	1.42551
1538.99441	1.42618
1537.06585	1.42802
1535.13729	1.42414
1533.20872	1.41686
1531.28016	1.40786
1529.35159	1.39822
1527.42303	1.39093
1525.49446	1.38890
1523.56590	1.38964
1521.63733	1.38991
1519.70877	1.38760
1517.78021	1.38105
1515.85164	1.36967
1513.92308	1.35372
1511.99451	1.33425
1510.06595	1.31410
1508.13738	1.29127
1506.20882	1.26072
1504.28025	1.23906
1502.35169	1.22164
1500.42313	1.20271
1498.49456	1.17948
1496.56600	1.15207
1494.63743	1.12919
1492.70887	1.11164
1490.78030	1.09227
1488.85174	1.06776
1486.92317	1.04591
1484.99461	1.02946
1483.06605	1.01639
1481.13748	1.00588
1479.20892	0.99899
1477.28035	0.99678
1475.35179	1.00075
1473.42322	1.01474
1471.49466	1.03186
1469.56610	1.03961
1467.63753	1.04380
1465.70897	1.05154
1463.78040	1.06209
1461.85184	1.06821
1459.92327	1.07212
1457.99471	1.08361
1456.06614	1.09875
1454.13758	1.10134
1452.20902	1.10117
1450.28045	1.10194
1448.35189	1.10237
1446.42332	1.10100
1444.49476	1.09811
1442.56619	1.09427
1440.63763	1.08908
1438.70906	1.08216
1436.78050	1.07365
1434.85194	1.06447
1432.92337	1.05519
1430.99481	1.04548
1429.06624	1.03654
1427.13768	1.03017
1425.20911	1.02673
1423.28055	1.02591
1421.35198	1.02655
1419.42342	1.03002
1417.49486	1.03557
1415.56629	1.03735
1413.63773	1.03697
1411.70916	1.03746
1409.78060	1.03931
1407.85203	1.04186
1405.92347	1.04610
1403.99490	1.05128
1402.06634	1.05460
1400.13778	1.05826
1398.20921	1.06341
1396.28065	1.06788
1394.35208	1.07264
1392.42352	1.07754
1390.49495	1.08262
1388.56639	1.09214
1386.63782	1.10873
1384.70926	1.12608
1382.78070	1.14079
1380.85213	1.15286
1378.92357	1.15883
1376.99500	1.15629
1375.06644	1.14521
1373.13787	1.12687
1371.20931	1.10569
1369.28074	1.08211
1367.35218	1.05686
1365.42362	1.03375
1363.49505	1.01271
1361.56649	0.99509
1359.63792	0.98324
1357.70936	0.97499
1355.78079	0.96914
1353.85223	0.96604
1351.92366	0.96509
1349.99510	0.96505
1348.06654	0.96528
1346.13797	0.96619
1344.20941	0.96772
1342.28084	0.96937
1340.35228	0.97236
1338.42371	0.97783
1336.49515	0.98481
1334.56659	0.99306
1332.63802	1.00283
1330.70946	1.01357
1328.78089	1.02326
1326.85233	1.02985
1324.92376	1.03348
1322.99520	1.03544
1321.06663	1.03687
1319.13807	1.03902
1317.20951	1.04198
1315.28094	1.04452
1313.35238	1.04660
1311.42381	1.04849
1309.49525	1.04975
1307.56668	1.04982
1305.63812	1.04872
1303.70955	1.04753
1301.78099	1.04657
1299.85243	1.04503
1297.92386	1.04267
1295.99530	1.04010
1294.06673	1.03831
1292.13817	1.03851
1290.20960	1.04128
1288.28104	1.04585
1286.35247	1.05057
1284.42391	1.05447
1282.49535	1.05805
1280.56678	1.06212
1278.63822	1.06663
1276.70965	1.07164
1274.78109	1.07822
1272.85252	1.08710
1270.92396	1.09724
1268.99539	1.10711
1267.06683	1.11634
1265.13827	1.12458
1263.20970	1.13058
1261.28114	1.13394
1259.35257	1.13543
1257.42401	1.13545
1255.49544	1.13453
1253.56688	1.13374
1251.63831	1.13320
1249.70975	1.13186
1247.78119	1.12972
1245.85262	1.12763
1243.92406	1.12537
1241.99549	1.12276
1240.06693	1.11989
1238.13836	1.11518
1236.20980	1.10762
1234.28123	1.09909
1232.35267	1.09104
1230.42411	1.08232
1228.49554	1.07195
1226.56698	1.06012
1224.63841	1.04732
1222.70985	1.03443
1220.78128	1.02232
1218.85272	1.01136
1216.92415	1.00178
1214.99559	0.99462
1213.06703	0.99131
1211.13846	0.99171
1209.20990	0.99401
1207.28133	0.99586
1205.35277	0.99480
1203.42420	0.98952
1201.49564	0.98089
1199.56708	0.97060
1197.63851	0.96000
1195.70995	0.95021
1193.78138	0.94224
1191.85282	0.93703
1189.92425	0.93434
1187.99569	0.93321
1186.06712	0.93353
1184.13856	0.93524
1182.21000	0.93817
1180.28143	0.94304
1178.35287	0.95096
1176.42430	0.96190
1174.49574	0.97484
1172.56717	0.98879
1170.63861	1.00395
1168.71004	1.02163
1166.78148	1.04197
1164.85292	1.06343
1162.92435	1.08329
1160.99579	1.09707
1159.06722	1.10153
1157.13866	1.09729
1155.21009	1.08569
1153.28153	1.06744
1151.35296	1.04488
1149.42440	1.02177
1147.49584	1.00061
1145.56727	0.98196
1143.63871	0.96683
1141.71014	0.95693
1139.78158	0.95253
1137.85301	0.95248
1135.92445	0.95561
1133.99588	0.96181
1132.06732	0.97229
1130.13876	0.98777
1128.21019	1.00760
1126.28163	1.03051
1124.35306	1.05438
1122.42450	1.07692
1120.49593	1.09661
1118.56737	1.11215
1116.63880	1.12251
1114.71024	1.12727
1112.78168	1.12651
1110.85311	1.12189
1108.92455	1.11595
1106.99598	1.11015
1105.06742	1.10497
1103.13885	1.10041
1101.21029	1.09612
1099.28172	1.09415
1097.35316	1.09736
1095.42460	1.10485
1093.49603	1.11479
1091.56747	1.12695
1089.63890	1.14107
1087.71034	1.15756
1085.78177	1.17669
1083.85321	1.19781
1081.92464	1.21898
1079.99608	1.23578
1078.06752	1.24563
1076.13895	1.24894
1074.21039	1.24499
1072.28182	1.23424
1070.35326	1.22113
1068.42469	1.20873
1066.49613	1.19572
1064.56756	1.18230
1062.63900	1.17030
1060.71044	1.15835
1058.78187	1.14425
1056.85331	1.12936
1054.92474	1.11752
1052.99618	1.11079
1051.06761	1.10768
1049.13905	1.10593
1047.21049	1.10615
1045.28192	1.11083
1043.35336	1.12010
1041.42479	1.13158
1039.49623	1.14195
1037.56766	1.14881
1035.63910	1.15294
1033.71053	1.15618
1031.78197	1.15829
1029.85341	1.15750
1027.92484	1.15268
1025.99628	1.14454
1024.06771	1.13475
1022.13915	1.12491
1020.21058	1.11653
1018.28202	1.11057
1016.35345	1.10588
1014.42489	1.09946
1012.49633	1.08833
1010.56776	1.07135
1008.63920	1.04976
1006.71063	1.02631
1004.78207	1.00316
1002.85350	0.98070
1000.92494	0.95957
998.99637	0.94089
997.06781	0.92393
995.13925	0.90743
993.21068	0.89122
991.28212	0.87467
989.35355	0.85703
987.42499	0.83924
985.49642	0.82301
983.56786	0.80916
981.63929	0.79774
979.71073	0.78885
977.78217	0.78171
975.85360	0.77465
973.92504	0.76701
971.99647	0.75890
970.06791	0.75008
968.13934	0.74129
966.21078	0.73482
964.28221	0.73286
962.35365	0.73694
960.42509	0.74864
958.49652	0.76792
956.56796	0.79000
954.63939	0.80667
952.71083	0.81279
950.78226	0.80977
948.85370	0.80184
946.92513	0.79209
944.99657	0.78209
943.06801	0.77190
941.13944	0.76061
939.21088	0.74797
937.28231	0.73475
935.35375	0.72156
933.42518	0.70866
931.49662	0.69646
929.56805	0.68585
927.63949	0.67779
925.71093	0.67262
923.78236	0.67007
921.85380	0.66950
919.92523	0.67006
917.99667	0.67133
916.06810	0.67355
914.13954	0.67700
912.21098	0.68175
910.28241	0.68810
908.35385	0.69635
906.42528	0.70603
904.49672	0.71621
902.56815	0.72633
900.63959	0.73585
898.71102	0.74376
896.78246	0.74951
894.85390	0.75292
892.92533	0.75359
890.99677	0.75183
889.06820	0.74855
887.13964	0.74409
885.21107	0.73887
883.28251	0.73345
881.35394	0.72810
879.42538	0.72311
877.49682	0.71885
875.56825	0.71576
873.63969	0.71415
871.71112	0.71410
869.78256	0.71587
867.85399	0.71939
865.92543	0.72470
863.99686	0.73214
862.06830	0.74109
860.13974	0.75053
858.21117	0.76017
856.28261	0.76998
854.35404	0.77916
852.42548	0.78643
850.49691	0.79094
848.56835	0.79286
846.63978	0.79277
844.71122	0.79093
842.78266	0.78727
840.85409	0.78203
838.92553	0.77595
836.99696	0.76925
835.06840	0.76152
833.13983	0.75335
831.21127	0.74601
829.28270	0.73991
827.35414	0.73480
825.42558	0.73075
823.49701	0.72777
821.56845	0.72573
819.63988	0.72490
817.71132	0.72577
815.78275	0.72857
813.85419	0.73284
811.92562	0.73818
809.99706	0.74495
808.06850	0.75335
806.13993	0.76277
804.21137	0.77296
802.28280	0.78433
800.35424	0.79615
798.42567	0.80714
796.49711	0.81695
794.56854	0.82484
792.63998	0.82951
790.71142	0.83076
788.78285	0.82971
786.85429	0.82737
784.92572	0.82409
782.99716	0.82027
781.06859	0.81704
779.14003	0.81525
777.21147	0.81473
775.28290	0.81496
773.35434	0.81596
771.42577	0.81888
769.49721	0.82441
767.56864	0.83155
765.64008	0.83921
763.71151	0.84741
761.78295	0.85693
759.85439	0.86784
757.92582	0.87927
755.99726	0.89051
754.06869	0.90173
752.14013	0.91326
750.21156	0.92462
748.28300	0.93479
746.35443	0.94244
744.42587	0.94694
742.49731	0.94860
740.56874	0.94701
738.64018	0.94245
736.71161	0.93638
734.78305	0.92914
732.85448	0.92074
730.92592	0.91180
728.99735	0.90289
727.06879	0.89504
725.14023	0.88894
723.21166	0.88408
721.28310	0.88070
719.35453	0.87946
717.42597	0.87915
715.49740	0.87911
713.56884	0.88069
711.64027	0.88385
709.71171	0.88664
707.78315	0.88871
705.85458	0.89104
703.92602	0.89302
701.99745	0.89301
700.06889	0.89051
698.14032	0.88613
696.21176	0.88100
694.28319	0.87623
692.35463	0.87206
690.42607	0.86841
688.49750	0.86568
686.56894	0.86417
684.64037	0.86405
682.71181	0.86470
680.78324	0.86540
678.85468	0.86663
676.92611	0.86825
674.99755	0.86957
673.06899	0.87142
671.14042	0.87441
669.21186	0.87759
667.28329	0.87704
665.35473	0.87400
663.42616	0.87218
661.49760	0.87169
659.56903	0.87144
657.64047	0.87091
655.71191	0.87125
653.78334	0.87237
651.85478	0.87255
649.92621	0.87287
647.99765	0.87544
646.06908	0.87907
644.14052	0.88345
642.21195	0.89010
640.28339	0.89724
638.35483	0.90184
636.42626	0.90410
634.49770	0.90618
632.56913	0.91033
630.64057	0.91750
628.71200	0.92591
626.78344	0.93344
624.85488	0.94080
622.92631	0.94965
620.99775	0.95886
619.06918	0.96607
617.14062	0.97052
615.21205	0.97238
613.28349	0.97199
611.35492	0.97036
609.42636	0.96899
607.49780	0.96717
605.56923	0.96183
603.64067	0.95312
601.71210	0.94418
599.78354	0.93666
