3997.91406	0.60163
3995.98550	0.60162
3994.05693	0.60160
3992.12837	0.60253
3990.19980	0.60277
3988.27124	0.60200
3986.34268	0.60157
3984.41411	0.60082
3982.48555	0.59921
3980.55698	0.59800
3978.62842	0.59718
3976.69985	0.59609
3974.77129	0.59570
3972.84272	0.59656
3970.91416	0.59759
3968.98560	0.59854
3967.05703	0.59954
3965.12847	0.59896
3963.19990	0.59643
3961.27134	0.59439
3959.34277	0.59397
3957.41421	0.59424
3955.48564	0.59424
3953.55708	0.59323
3951.62852	0.59123
3949.69995	0.58994
3947.77139	0.58983
3945.84282	0.58841
3943.91426	0.58734
3941.98569	0.58885
3940.05713	0.58967
3938.12856	0.58883
3936.20000	0.58716
3934.27144	0.58612
3932.34287	0.58939
3930.41431	0.59373
3928.48574	0.59193
3926.55718	0.58746
3924.62861	0.58686
3922.70005	0.58773
3920.77148	0.58599
3918.84292	0.58569
3916.91436	0.58950
3914.98579	0.59175
3913.05723	0.59063
3911.12866	0.58939
3909.20010	0.58644
3907.27153	0.57975
3905.34297	0.57517
3903.41440	0.57946
3901.48584	0.58681
3899.55728	0.59213
3897.62871	0.59336
3895.70015	0.58901
3893.77158	0.58346
3891.84302	0.58334
3889.91445	0.58372
3887.98589	0.57907
3886.05733	0.57768
3884.12876	0.58088
3882.20020	0.58167
3880.27163	0.58453
3878.34307	0.58482
3876.41450	0.58013
3874.48594	0.57670
3872.55737	0.57406
3870.62881	0.57474
3868.70025	0.57900
3866.77168	0.57697
3864.84312	0.57512
3862.91455	0.57925
3860.98599	0.57918
3859.05742	0.57277
3857.12886	0.56292
3855.20029	0.55471
3853.27173	0.56824
3851.34317	0.58516
3849.41460	0.58448
3847.48604	0.57802
3845.55747	0.57162
3843.62891	0.56766
3841.70034	0.56436
3839.77178	0.56211
3837.84321	0.56701
3835.91465	0.57212
3833.98609	0.57298
3832.05752	0.57456
3830.12896	0.57543
3828.20039	0.57414
3826.27183	0.57227
3824.34326	0.56610
3822.41470	0.55978
3820.48613	0.56472
3818.55757	0.56890
3816.62901	0.57284
3814.70044	0.57841
3812.77188	0.57577
3810.84331	0.56833
3808.91475	0.56272
3806.98618	0.56411
3805.05762	0.56405
3803.12905	0.56091
3801.20049	0.56767
3799.27193	0.57307
3797.34336	0.57344
3795.41480	0.57535
3793.48623	0.57405
3791.55767	0.57074
3789.62910	0.56897
3787.70054	0.56829
3785.77197	0.56962
3783.84341	0.57057
3781.91485	0.56775
3779.98628	0.56790
3778.05772	0.57274
3776.12915	0.57279
3774.20059	0.56759
3772.27202	0.56249
3770.34346	0.56335
3768.41489	0.56685
3766.48633	0.56697
3764.55777	0.56615
3762.62920	0.56395
3760.70064	0.56273
3758.77207	0.56550
3756.84351	0.56374
3754.91494	0.55391
3752.98638	0.54311
3751.05781	0.54741
3749.12925	0.55907
3747.20069	0.55789
3745.27212	0.55959
3743.34356	0.56867
3741.41499	0.56782
3739.48643	0.55923
3737.55786	0.55122
3735.62930	0.55373
3733.70074	0.56782
3731.77217	0.57588
3729.84361	0.57325
3727.91504	0.56666
3725.98648	0.56352
3724.05791	0.56546
3722.12935	0.56921
3720.20078	0.57266
3718.27222	0.57275
3716.34366	0.56718
3714.41509	0.55801
3712.48653	0.55575
3710.55796	0.56760
3708.62940	0.57399
3706.70083	0.57131
3704.77227	0.56710
3702.84370	0.56810
3700.91514	0.57314
3698.98658	0.57313
3697.05801	0.57050
3695.12945	0.56809
3693.20088	0.56369
3691.27232	0.56061
3689.34375	0.56865
3687.41519	0.57781
3685.48662	0.57794
3683.55806	0.57453
3681.62950	0.57137
3679.70093	0.56762
3677.77237	0.56323
3675.84380	0.57239
3673.91524	0.58644
3671.98667	0.58713
3670.05811	0.59380
3668.12954	0.60390
3666.20098	0.60416
3664.27242	0.60284
3662.34385	0.60417
3660.41529	0.60549
3658.48672	0.60705
3656.55816	0.61424
3654.62959	0.61891
3652.70103	0.61278
3650.77246	0.60905
3648.84390	0.63133
3646.91534	0.65071
3644.98677	0.65229
3643.05821	0.65174
3641.12964	0.65480
3639.20108	0.66035
3637.27251	0.66515
3635.34395	0.66768
3633.41538	0.66664
3631.48682	0.66265
3629.55826	0.67151
3627.62969	0.69568
3625.70113	0.70286
3623.77256	0.69954
3621.84400	0.69641
3619.91543	0.70163
3617.98687	0.71428
3616.05830	0.72083
3614.12974	0.72519
3612.20118	0.73150
3610.27261	0.73740
3608.34405	0.74820
3606.41548	0.76022
3604.48692	0.76404
3602.55835	0.76535
3600.62979	0.77021
3598.70123	0.77567
3596.77266	0.78116
3594.84410	0.79089
3592.91553	0.80036
3590.98697	0.80366
3589.05840	0.80683
3587.12984	0.81848
3585.20127	0.83046
3583.27271	0.83704
3581.34415	0.84304
3579.41558	0.85048
3577.48702	0.85758
3575.55845	0.86307
3573.62989	0.86693
3571.70132	0.86912
3569.77276	0.87018
3567.84419	0.87672
3565.91563	0.89290
3563.98707	0.90470
3562.05850	0.91121
3560.12994	0.91763
3558.20137	0.92388
3556.27281	0.92884
3554.34424	0.93418
3552.41568	0.94274
3550.48711	0.95093
3548.55855	0.95551
3546.62999	0.96176
3544.70142	0.97265
3542.77286	0.98201
3540.84429	0.98880
3538.91573	0.99737
3536.98716	1.00833
3535.05860	1.01742
3533.13003	1.02193
3531.20147	1.02472
3529.27291	1.03042
3527.34434	1.04008
3525.41578	1.04983
3523.48721	1.05721
3521.55865	1.06441
3519.63008	1.07283
3517.70152	1.08161
3515.77295	1.08990
3513.84439	1.09720
3511.91583	1.10399
3509.98726	1.11200
3508.05870	1.12092
3506.13013	1.12860
3504.20157	1.13677
3502.27300	1.14811
3500.34444	1.15966
3498.41587	1.16801
3496.48731	1.17472
3494.55875	1.18169
3492.63018	1.18936
3490.70162	1.19763
3488.77305	1.20253
3486.84449	1.20335
3484.91592	1.20597
3482.98736	1.21381
3481.05879	1.22539
3479.13023	1.23490
3477.20167	1.23994
3475.27310	1.24344
3473.34454	1.24697
3471.41597	1.25015
3469.48741	1.25477
3467.55884	1.26132
3465.63028	1.26697
3463.70171	1.27136
3461.77315	1.27473
3459.84459	1.27673
3457.91602	1.27903
3455.98746	1.28291
3454.05889	1.28737
3452.13033	1.28980
3450.20176	1.29070
3448.27320	1.29401
3446.34464	1.30054
3444.41607	1.30710
3442.48751	1.31182
3440.55894	1.31477
3438.63038	1.31714
3436.70181	1.31872
3434.77325	1.31866
3432.84468	1.31957
3430.91612	1.32326
3428.98756	1.32603
3427.05899	1.32474
3425.13043	1.32340
3423.20186	1.32551
3421.27330	1.32764
3419.34473	1.32670
3417.41617	1.32545
3415.48760	1.32916
3413.55904	1.33702
3411.63048	1.34099
3409.70191	1.33926
3407.77335	1.33927
3405.84478	1.34286
3403.91622	1.34479
3401.98765	1.34631
3400.05909	1.35188
3398.13052	1.35909
3396.20196	1.36115
3394.27340	1.35684
3392.34483	1.35382
3390.41627	1.35546
3388.48770	1.35821
3386.55914	1.36120
3384.63057	1.36403
3382.70201	1.36430
3380.77344	1.36330
3378.84488	1.36531
3376.91632	1.36897
3374.98775	1.37018
3373.05919	1.36995
3371.13062	1.37074
3369.20206	1.37438
3367.27349	1.38182
3365.34493	1.38826
3363.41636	1.38742
3361.48780	1.38220
3359.55924	1.37961
3357.63067	1.38147
3355.70211	1.38687
3353.77354	1.39352
3351.84498	1.39728
3349.91641	1.39787
3347.98785	1.40040
3346.05928	1.40616
3344.13072	1.41067
3342.20216	1.41232
3340.27359	1.41222
3338.34503	1.41285
3336.41646	1.41859
3334.48790	1.42596
3332.55933	1.42647
3330.63077	1.42178
3328.70220	1.42072
3326.77364	1.42804
3324.84508	1.43950
3322.91651	1.44605
3320.98795	1.44698
3319.05938	1.44703
3317.13082	1.44552
3315.20225	1.44309
3313.27369	1.44237
3311.34513	1.44352
3309.41656	1.44752
3307.48800	1.45126
3305.55943	1.45161
3303.63087	1.45257
3301.70230	1.45602
3299.77374	1.45766
3297.84517	1.45448
3295.91661	1.45246
3293.98805	1.45569
3292.05948	1.45745
3290.13092	1.45597
3288.20235	1.45562
3286.27379	1.45417
3284.34522	1.45024
3282.41666	1.44812
3280.48809	1.44772
3278.55953	1.44808
3276.63097	1.45071
3274.70240	1.44794
3272.77384	1.43633
3270.84527	1.42680
3268.91671	1.42224
3266.98814	1.41865
3265.05958	1.41720
3263.13101	1.41691
3261.20245	1.41493
3259.27389	1.41213
3257.34532	1.40793
3255.41676	1.40231
3253.48819	1.39755
3251.55963	1.39132
3249.63106	1.38278
3247.70250	1.37454
3245.77393	1.36710
3243.84537	1.36388
3241.91681	1.36522
3239.98824	1.36345
3238.05968	1.35801
3236.13111	1.35430
3234.20255	1.35011
3232.27398	1.34352
3230.34542	1.33874
3228.41685	1.33614
3226.48829	1.33194
3224.55973	1.32715
3222.63116	1.32636
3220.70260	1.32625
3218.77403	1.31941
3216.84547	1.31111
3214.91690	1.30826
3212.98834	1.30698
3211.05977	1.30431
3209.13121	1.30156
3207.20265	1.29999
3205.27408	1.29900
3203.34552	1.29583
3201.41695	1.29249
3199.48839	1.29258
3197.55982	1.29122
3195.63126	1.28277
3193.70269	1.27129
3191.77413	1.26201
3189.84557	1.25528
3187.91700	1.25246
3185.98844	1.25473
3184.05987	1.25721
3182.13131	1.25525
3180.20274	1.25082
3178.27418	1.24691
3176.34562	1.24265
3174.41705	1.23699
3172.48849	1.23259
3170.55992	1.23014
3168.63136	1.22691
3166.70279	1.22317
3164.77423	1.21971
3162.84566	1.21616
3160.91710	1.21245
3158.98854	1.20710
3157.05997	1.20127
3155.13141	1.19802
3153.20284	1.19577
3151.27428	1.19127
3149.34571	1.18579
3147.41715	1.18212
3145.48858	1.18007
3143.56002	1.17841
3141.63146	1.17729
3139.70289	1.17751
3137.77433	1.17773
3135.84576	1.17676
3133.91720	1.17728
3131.98863	1.17929
3130.06007	1.17853
3128.13150	1.17566
3126.20294	1.17549
3124.27438	1.17753
3122.34581	1.17660
3120.41725	1.17264
3118.48868	1.17058
3116.56012	1.17284
3114.63155	1.17718
3112.70299	1.17985
3110.77442	1.17933
3108.84586	1.17666
3106.91730	1.17461
3104.98873	1.17408
3103.06017	1.17295
3101.13160	1.17107
3099.20304	1.17097
3097.27447	1.17229
3095.34591	1.17199
3093.41734	1.16973
3091.48878	1.16752
3089.56022	1.16654
3087.63165	1.16606
3085.70309	1.16400
3083.77452	1.16039
3081.84596	1.15727
3079.91739	1.15591
3077.98883	1.15515
3076.06026	1.15366
3074.13170	1.15272
3072.20314	1.15180
3070.27457	1.14948
3068.34601	1.14762
3066.41744	1.14617
3064.48888	1.14326
3062.56031	1.14018
3060.63175	1.13803
3058.70318	1.13512
3056.77462	1.13083
3054.84606	1.12667
3052.91749	1.12261
3050.98893	1.11849
3049.06036	1.11565
3047.13180	1.11321
3045.20323	1.10916
3043.27467	1.10360
3041.34610	1.09851
3039.41754	1.09570
3037.48898	1.09432
3035.56041	1.09293
3033.63185	1.09122
3031.70328	1.08891
3029.77472	1.08597
3027.84615	1.08229
3025.91759	1.07728
3023.98903	1.07175
3022.06046	1.06770
3020.13190	1.06527
3018.20333	1.06309
3016.27477	1.06096
3014.34620	1.05960
3012.41764	1.05885
3010.48907	1.05762
3008.56051	1.05612
3006.63195	1.05463
3004.70338	1.05257
3002.77482	1.05118
3000.84625	1.05161
2998.91769	1.05213
2996.98912	1.05234
2995.06056	1.05494
2993.13199	1.05987
2991.20343	1.06452
2989.27487	1.07020
2987.34630	1.07898
2985.41774	1.08851
2983.48917	1.09562
2981.56061	1.10110
2979.63204	1.10829
2977.70348	1.11779
2975.77491	1.12704
2973.84635	1.13545
2971.91779	1.14519
2969.98922	1.15686
2968.06066	1.16805
2966.13209	1.17586
2964.20353	1.17993
2962.27496	1.18218
2960.34640	1.18234
2958.41783	1.17820
2956.48927	1.17106
2954.56071	1.16416
2952.63214	1.15785
2950.70358	1.15165
2948.77501	1.14758
2946.84645	1.14759
2944.91788	1.15117
2942.98932	1.15761
2941.06075	1.16674
2939.13219	1.17722
2937.20363	1.18783
2935.27506	1.19754
2933.34650	1.20456
2931.41793	1.20945
2929.48937	1.21486
2927.56080	1.22194
2925.63224	1.22978
2923.70367	1.23709
2921.77511	1.24209
2919.84655	1.24126
2917.91798	1.23205
2915.98942	1.21488
2914.06085	1.19216
2912.13229	1.16844
2910.20372	1.14887
2908.27516	1.13506
2906.34659	1.12368
2904.41803	1.11263
2902.48947	1.10457
2900.56090	1.10037
2898.63234	1.09696
2896.70377	1.09236
2894.77521	1.08696
2892.84664	1.08175
2890.91808	1.07756
2888.98952	1.07462
2887.06095	1.07199
2885.13239	1.06882
2883.20382	1.06641
2881.27526	1.06640
2879.34669	1.06804
2877.41813	1.06937
2875.48956	1.06972
2873.56100	1.06802
2871.63244	1.06289
2869.70387	1.05607
2867.77531	1.04999
2865.84674	1.04461
2863.91818	1.04021
2861.98961	1.03863
2860.06105	1.04107
2858.13248	1.04714
2856.20392	1.05481
2854.27536	1.06300
2852.34679	1.07144
2850.41823	1.07319
2848.48966	1.05914
2846.56110	1.03247
2844.63253	1.00479
2842.70397	0.98258
2840.77540	0.96596
2838.84684	0.95361
2836.91828	0.94399
2834.98971	0.93624
2833.06115	0.93014
2831.13258	0.92442
2829.20402	0.91860
2827.27545	0.91365
2825.34689	0.90968
2823.41832	0.90601
2821.48976	0.90250
2819.56120	0.89929
2817.63263	0.89585
2815.70407	0.89169
2813.77550	0.88751
2811.84694	0.88454
2809.91837	0.88262
2807.98981	0.87986
2806.06124	0.87560
2804.13268	0.87177
2802.20412	0.86958
2800.27555	0.86759
2798.34699	0.86470
2796.41842	0.86191
2794.48986	0.85962
2792.56129	0.85720
2790.63273	0.85461
2788.70416	0.85203
2786.77560	0.84943
2784.84704	0.84672
2782.91847	0.84371
2780.98991	0.84081
2779.06134	0.83836
2777.13278	0.83559
2775.20421	0.83209
2773.27565	0.82852
2771.34708	0.82515
2769.41852	0.82234
2767.48996	0.82049
2765.56139	0.81862
2763.63283	0.81589
2761.70426	0.81276
2759.77570	0.80992
2757.84713	0.80779
2755.91857	0.80641
2753.99001	0.80528
2752.06144	0.80371
2750.13288	0.80170
2748.20431	0.79998
2746.27575	0.79856
2744.34718	0.79711
2742.41862	0.79596
2740.49005	0.79510
2738.56149	0.79419
2736.63293	0.79305
2734.70436	0.79120
2732.77580	0.78886
2730.84723	0.78724
2728.91867	0.78604
2726.99010	0.78383
2725.06154	0.78099
2723.13297	0.77853
2721.20441	0.77616
2719.27585	0.77361
2717.34728	0.77061
2715.41872	0.76705
2713.49015	0.76420
2711.56159	0.76252
2709.63302	0.76060
2707.70446	0.75820
2705.77589	0.75595
2703.84733	0.75369
2701.91877	0.75158
2699.99020	0.74973
2698.06164	0.74814
2696.13307	0.74721
2694.20451	0.74662
2692.27594	0.74557
2690.34738	0.74431
2688.41881	0.74362
2686.49025	0.74322
2684.56169	0.74204
2682.63312	0.74026
2680.70456	0.73895
2678.77599	0.73816
2676.84743	0.73714
2674.91886	0.73563
2672.99030	0.73391
2671.06173	0.73202
2669.13317	0.73001
2667.20461	0.72816
2665.27604	0.72648
2663.34748	0.72495
2661.41891	0.72343
2659.49035	0.72173
2657.56178	0.72003
2655.63322	0.71819
2653.70465	0.71585
2651.77609	0.71358
2649.84753	0.71246
2647.91896	0.71244
2645.99040	0.71234
2644.06183	0.71150
2642.13327	0.71025
2640.20470	0.70925
2638.27614	0.70877
2636.34757	0.70865
2634.41901	0.70864
2632.49045	0.70877
2630.56188	0.70905
2628.63332	0.70934
2626.70475	0.70965
2624.77619	0.70995
2622.84762	0.71027
2620.91906	0.71072
2618.99049	0.71095
2617.06193	0.71038
2615.13337	0.70944
2613.20480	0.70887
2611.27624	0.70823
2609.34767	0.70714
2607.41911	0.70593
2605.49054	0.70457
2603.56198	0.70301
2601.63342	0.70140
2599.70485	0.69976
2597.77629	0.69806
2595.84772	0.69609
2593.91916	0.69370
2591.99059	0.69136
2590.06203	0.68994
2588.13346	0.68936
2586.20490	0.68868
2584.27634	0.68763
2582.34777	0.68652
2580.41921	0.68546
2578.49064	0.68460
2576.56208	0.68423
2574.63351	0.68425
2572.70495	0.68424
2570.77638	0.68394
2568.84782	0.68323
2566.91926	0.68231
2564.99069	0.68172
2563.06213	0.68135
2561.13356	0.68066
2559.20500	0.67973
2557.27643	0.67891
2555.34787	0.67826
2553.41930	0.67761
2551.49074	0.67663
2549.56218	0.67529
2547.63361	0.67392
2545.70505	0.67276
2543.77648	0.67171
2541.84792	0.67050
2539.91935	0.66898
2537.99079	0.66740
2536.06222	0.66606
2534.13366	0.66511
2532.20510	0.66454
2530.27653	0.66369
2528.34797	0.66216
2526.41940	0.66067
2524.49084	0.65988
2522.56227	0.65942
2520.63371	0.65874
2518.70514	0.65783
2516.77658	0.65685
2514.84802	0.65589
2512.91945	0.65525
2510.99089	0.65487
2509.06232	0.65414
2507.13376	0.65295
2505.20519	0.65167
2503.27663	0.65025
2501.34806	0.64865
2499.41950	0.64711
2497.49094	0.64560
2495.56237	0.64398
2493.63381	0.64230
2491.70524	0.64074
2489.77668	0.63936
2487.84811	0.63798
2485.91955	0.63643
2483.99098	0.63475
2482.06242	0.63311
2480.13386	0.63164
2478.20529	0.63042
2476.27673	0.62949
2474.34816	0.62858
2472.41960	0.62724
2470.49103	0.62558
2468.56247	0.62395
2466.63391	0.62265
2464.70534	0.62205
2462.77678	0.62186
2460.84821	0.62142
2458.91965	0.62067
2456.99108	0.61986
2455.06252	0.61921
2453.13395	0.61875
2451.20539	0.61834
2449.27683	0.61777
2447.34826	0.61707
2445.41970	0.61639
2443.49113	0.61574
2441.56257	0.61498
2439.63400	0.61390
2437.70544	0.61244
2435.77687	0.61092
2433.84831	0.60948
2431.91975	0.60787
2429.99118	0.60618
2428.06262	0.60460
2426.13405	0.60286
2424.20549	0.60079
2422.27692	0.59851
2420.34836	0.59637
2418.41979	0.59446
2416.49123	0.59249
2414.56267	0.59038
2412.63410	0.58844
2410.70554	0.58684
2408.77697	0.58552
2406.84841	0.58442
2404.91984	0.58349
2402.99128	0.58289
2401.06271	0.58272
2399.13415	0.58265
2397.20559	0.58245
2395.27702	0.58226
2393.34846	0.58218
2391.41989	0.58209
2389.49133	0.58189
2387.56276	0.58170
2385.63420	0.58157
2383.70563	0.58142
2381.77707	0.58124
2379.84851	0.58097
2377.91994	0.58103
2375.99138	0.58186
2374.06281	0.58271
2372.13425	0.58279
2370.20568	0.58233
2368.27712	0.58179
2366.34855	0.58132
2364.41999	0.58087
2362.49143	0.58149
2360.56286	0.58188
2358.63430	0.57940
2356.70573	0.57650
2354.77717	0.57452
2352.84860	0.57124
2350.92004	0.56580
2348.99147	0.55982
2347.06291	0.55564
2345.13435	0.55509
2343.20578	0.55691
2341.27722	0.55766
2339.34865	0.55729
2337.42009	0.55693
2335.49152	0.55630
2333.56296	0.55610
2331.63440	0.55712
2329.70583	0.55704
2327.77727	0.55495
2325.84870	0.55309
2323.92014	0.55224
2321.99157	0.55174
2320.06301	0.55115
2318.13444	0.55001
2316.20588	0.54832
2314.27732	0.54656
2312.34875	0.54490
2310.42019	0.54332
2308.49162	0.54177
2306.56306	0.54015
2304.63449	0.53847
2302.70593	0.53686
2300.77736	0.53546
2298.84880	0.53417
2296.92024	0.53291
2294.99167	0.53155
2293.06311	0.52994
2291.13454	0.52833
2289.20598	0.52701
2287.27741	0.52588
2285.34885	0.52482
2283.42028	0.52376
2281.49172	0.52278
2279.56316	0.52201
2277.63459	0.52132
2275.70603	0.52065
2273.77746	0.52021
2271.84890	0.51993
2269.92033	0.51951
2267.99177	0.51887
2266.06320	0.51822
2264.13464	0.51775
2262.20608	0.51743
2260.27751	0.51714
2258.34895	0.51678
2256.42038	0.51624
2254.49182	0.51545
2252.56325	0.51461
2250.63469	0.51385
2248.70612	0.51301
2246.77756	0.51203
2244.84900	0.51113
2242.92043	0.51019
2240.99187	0.50920
2239.06330	0.50847
2237.13474	0.50792
2235.20617	0.50720
2233.27761	0.50637
2231.34904	0.50560
2229.42048	0.50495
2227.49192	0.50431
2225.56335	0.50366
2223.63479	0.50314
2221.70622	0.50288
2219.77766	0.50270
2217.84909	0.50236
2215.92053	0.50186
2213.99196	0.50139
2212.06340	0.50105
2210.13484	0.50066
2208.20627	0.50010
2206.27771	0.49961
2204.34914	0.49930
2202.42058	0.49895
2200.49201	0.49843
2198.56345	0.49780
2196.63488	0.49711
2194.70632	0.49643
2192.77776	0.49600
2190.84919	0.49571
2188.92063	0.49504
2186.99206	0.49406
2185.06350	0.49332
2183.13493	0.49275
2181.20637	0.49216
2179.27781	0.49169
2177.34924	0.49122
2175.42068	0.49071
2173.49211	0.49033
2171.56355	0.49003
2169.63498	0.48969
2167.70642	0.48946
2165.77785	0.48926
2163.84929	0.48884
2161.92073	0.48836
2159.99216	0.48820
2158.06360	0.48832
2156.13503	0.48838
2154.20647	0.48842
2152.27790	0.48862
2150.34934	0.48868
2148.42077	0.48824
2146.49221	0.48738
2144.56365	0.48647
2142.63508	0.48566
2140.70652	0.48486
2138.77795	0.48394
2136.84939	0.48282
2134.92082	0.48180
2132.99226	0.48109
2131.06369	0.48040
2129.13513	0.47953
2127.20657	0.47856
2125.27800	0.47763
2123.34944	0.47681
2121.42087	0.47612
2119.49231	0.47545
2117.56374	0.47487
2115.63518	0.47468
2113.70661	0.47473
2111.77805	0.47463
2109.84949	0.47432
2107.92092	0.47403
2105.99236	0.47401
2104.06379	0.47425
2102.13523	0.47454
2100.20666	0.47484
2098.27810	0.47515
2096.34953	0.47527
2094.42097	0.47526
2092.49241	0.47532
2090.56384	0.47534
2088.63528	0.47509
2086.70671	0.47459
2084.77815	0.47395
2082.84958	0.47326
2080.92102	0.47255
2078.99245	0.47177
2077.06389	0.47096
2075.13533	0.47018
2073.20676	0.46931
2071.27820	0.46835
2069.34963	0.46737
2067.42107	0.46643
2065.49250	0.46578
2063.56394	0.46532
2061.63537	0.46470
2059.70681	0.46398
2057.77825	0.46328
2055.84968	0.46259
2053.92112	0.46204
2051.99255	0.46165
2050.06399	0.46131
2048.13542	0.46090
2046.20686	0.46031
2044.27830	0.45964
2042.34973	0.45914
2040.42117	0.45878
2038.49260	0.45819
2036.56404	0.45747
2034.63547	0.45684
2032.70691	0.45616
2030.77834	0.45535
2028.84978	0.45453
2026.92122	0.45374
2024.99265	0.45295
2023.06409	0.45218
2021.13552	0.45142
2019.20696	0.45086
2017.27839	0.45058
2015.34983	0.45010
2013.42126	0.44920
2011.49270	0.44824
2009.56414	0.44746
2007.63557	0.44688
2005.70701	0.44652
2003.77844	0.44625
2001.84988	0.44581
1999.92131	0.44538
1997.99275	0.44507
1996.06418	0.44459
1994.13562	0.44420
1992.20706	0.44445
1990.27849	0.44478
1988.34993	0.44470
1986.42136	0.44453
1984.49280	0.44439
1982.56423	0.44427
1980.63567	0.44400
1978.70710	0.44347
1976.77854	0.44276
1974.84998	0.44204
1972.92141	0.44132
1970.99285	0.44038
1969.06428	0.43955
1967.13572	0.43928
1965.20715	0.43871
1963.27859	0.43737
1961.35002	0.43618
1959.42146	0.43556
1957.49290	0.43512
1955.56433	0.43470
1953.63577	0.43447
1951.70720	0.43440
1949.77864	0.43423
1947.85007	0.43393
1945.92151	0.43378
1943.99294	0.43443
1942.06438	0.43569
1940.13582	0.43602
1938.20725	0.43559
1936.27869	0.43541
1934.35012	0.43536
1932.42156	0.43529
1930.49299	0.43525
1928.56443	0.43503
1926.63586	0.43446
1924.70730	0.43401
1922.77874	0.43392
1920.85017	0.43327
1918.92161	0.43266
1916.99304	0.43281
1915.06448	0.43221
1913.13591	0.43082
1911.20735	0.43005
1909.27878	0.43013
1907.35022	0.42994
1905.42166	0.42913
1903.49309	0.42845
1901.56453	0.42813
1899.63596	0.42788
1897.70740	0.42769
1895.77883	0.42788
1893.85027	0.42791
1891.92171	0.42746
1889.99314	0.42786
1888.06458	0.42872
1886.13601	0.42871
1884.20745	0.42863
1882.27888	0.42886
1880.35032	0.42898
1878.42175	0.42895
1876.49319	0.42874
1874.56463	0.42821
1872.63606	0.42724
1870.70750	0.42679
1868.77893	0.42840
1866.85037	0.42970
1864.92180	0.42852
1862.99324	0.42692
1861.06467	0.42611
1859.13611	0.42574
1857.20755	0.42531
1855.27898	0.42468
1853.35042	0.42395
1851.42185	0.42323
1849.49329	0.42264
1847.56472	0.42215
1845.63616	0.42264
1843.70759	0.42453
1841.77903	0.42472
1839.85047	0.42331
1837.92190	0.42280
1835.99334	0.42314
1834.06477	0.42270
1832.13621	0.42225
1830.20764	0.42383
1828.27908	0.42555
1826.35051	0.42577
1824.42195	0.42647
1822.49339	0.42699
1820.56482	0.42671
1818.63626	0.42688
1816.70769	0.42745
1814.77913	0.42759
1812.85056	0.42771
1810.92200	0.42862
1808.99343	0.42956
1807.06487	0.42978
1805.13631	0.42972
1803.20774	0.43006
1801.27918	0.43163
1799.35061	0.43346
1797.42205	0.43385
1795.49348	0.43345
1793.56492	0.43464
1791.63635	0.43858
1789.70779	0.44059
1787.77923	0.44021
1785.85066	0.44056
1783.92210	0.44205
1781.99353	0.44385
1780.06497	0.44614
1778.13640	0.44771
1776.20784	0.44795
1774.27927	0.44918
1772.35071	0.45399
1770.42215	0.45862
1768.49358	0.46043
1766.56502	0.46139
1764.63645	0.46214
1762.70789	0.46494
1760.77932	0.46986
1758.85076	0.47379
1756.92220	0.47860
1754.99363	0.48364
1753.06507	0.48778
1751.13650	0.49559
1749.20794	0.50850
1747.27937	0.51937
1745.35081	0.52709
1743.42224	0.53419
1741.49368	0.54181
1739.56512	0.54966
1737.63655	0.55414
1735.70799	0.55739
1733.77942	0.56789
1731.85086	0.57914
1729.92229	0.58576
1727.99373	0.59235
1726.06516	0.59966
1724.13660	0.60935
1722.20804	0.61918
1720.27947	0.62702
1718.35091	0.64108
1716.42234	0.66936
1714.49378	0.69227
1712.56521	0.70745
1710.63665	0.72345
1708.70808	0.74299
1706.77952	0.77215
1704.85096	0.81100
1702.92239	0.84587
1700.99383	0.89322
1699.06526	0.96900
1697.13670	1.03995
1695.20813	1.10835
1693.27957	1.15682
1691.35100	1.19112
1689.42244	1.23126
1687.49388	1.26729
1685.56531	1.30143
1683.63675	1.35145
1681.70818	1.38359
1679.77962	1.39694
1677.85105	1.40788
1675.92249	1.42086
1673.99392	1.43197
1672.06536	1.43864
1670.13680	1.44359
1668.20823	1.44713
1666.27967	1.44716
1664.35110	1.44680
1662.42254	1.44696
1660.49397	1.44397
1658.56541	1.43866
1656.63684	1.43231
1654.70828	1.42537
1652.77972	1.41601
1650.85115	1.40976
1648.92259	1.40574
1646.99402	1.40177
1645.06546	1.39785
1643.13689	1.39179
1641.20833	1.38556
1639.27976	1.37966
1637.35120	1.37383
1635.42264	1.36841
1633.49407	1.36272
1631.56551	1.35625
1629.63694	1.34735
1627.70838	1.33660
1625.77981	1.32626
1623.85125	1.31533
1621.92269	1.30193
1619.99412	1.28862
1618.06556	1.27365
1616.13699	1.25259
1614.20843	1.23306
1612.27986	1.21666
1610.35130	1.20059
1608.42273	1.18505
1606.49417	1.17179
1604.56561	1.16208
1602.63704	1.15515
1600.70848	1.15046
1598.77991	1.14787
1596.85135	1.14801
1594.92278	1.15132
1592.99422	1.15686
1591.06565	1.16411
1589.13709	1.17316
1587.20853	1.18391
1585.27996	1.19617
1583.35140	1.20991
1581.42283	1.22312
1579.49427	1.23359
1577.56570	1.24611
1575.63714	1.26464
1573.70857	1.27519
1571.78001	1.27940
1569.85145	1.28769
1567.92288	1.29838
1565.99432	1.30467
1564.06575	1.30881
1562.13719	1.31113
1560.20862	1.31584
1558.28006	1.32974
1556.35149	1.33289
1554.42293	1.33090
1552.49437	1.32867
1550.56580	1.32497
1548.63724	1.32002
1546.70867	1.31509
1544.78011	1.30906
1542.85154	1.30196
1540.92298	1.29603
1538.99441	1.28551
1537.06585	1.27501
1535.13729	1.26695
1533.20872	1.26055
1531.28016	1.25396
1529.35159	1.24696
1527.42303	1.23972
1525.49446	1.23185
1523.56590	1.22552
1521.63733	1.22245
1519.70877	1.22026
1517.78021	1.21277
1515.85164	1.19921
1513.92308	1.18417
1511.99451	1.16927
1510.06595	1.15517
1508.13738	1.13681
1506.20882	1.10856
1504.28025	1.09191
1502.35169	1.07967
1500.42313	1.06540
1498.49456	1.04828
1496.56600	1.02819
1494.63743	1.01003
1492.70887	0.99540
1490.78030	0.97963
1488.85174	0.96159
1486.92317	0.94768
1484.99461	0.93808
1483.06605	0.93126
1481.13748	0.92723
1479.20892	0.92655
1477.28035	0.93022
1475.35179	0.93996
1473.42322	0.95895
1471.49466	0.97958
1469.56610	0.98984
1467.63753	0.99673
1465.70897	1.00788
1463.78040	1.02107
1461.85184	1.02767
1459.92327	1.03066
1457.99471	1.04097
1456.06614	1.05770
1454.13758	1.06177
1452.20902	1.06096
1450.28045	1.06085
1448.35189	1.06185
1446.42332	1.06202
1444.49476	1.05989
1442.56619	1.05589
1440.63763	1.05093
1438.70906	1.04557
1436.78050	1.03917
1434.85194	1.03129
1432.92337	1.02331
1430.99481	1.01573
1429.06624	1.00930
1427.13768	1.00477
1425.20911	1.00224
1423.28055	1.00183
1421.35198	1.00269
1419.42342	1.00555
1417.49486	1.00917
1415.56629	1.00996
1413.63773	1.01016
1411.70916	1.01190
1409.78060	1.01468
1407.85203	1.01734
1405.92347	1.02090
1403.99490	1.02550
1402.06634	1.02890
1400.13778	1.03166
1398.20921	1.03492
1396.28065	1.03848
1394.35208	1.04182
1392.42352	1.04387
1390.49495	1.04595
1388.56639	1.05198
1386.63782	1.06305
1384.70926	1.07316
1382.78070	1.08043
1380.85213	1.08555
1378.92357	1.08653
1376.99500	1.08260
1375.06644	1.07427
1373.13787	1.06205
1371.20931	1.04843
1369.28074	1.03354
1367.35218	1.01696
1365.42362	1.00097
1363.49505	0.98627
1361.56649	0.97351
1359.63792	0.96414
1357.70936	0.95737
1355.78079	0.95239
1353.85223	0.94900
1351.92366	0.94687
1349.99510	0.94569
1348.06654	0.94524
1346.13797	0.94548
1344.20941	0.94646
1342.28084	0.94830
1340.35228	0.95221
1338.42371	0.95860
1336.49515	0.96578
1334.56659	0.97413
1332.63802	0.98477
1330.70946	0.99697
1328.78089	1.00840
1326.85233	1.01736
1324.92376	1.02452
1322.99520	1.03136
1321.06663	1.03831
1319.13807	1.04497
1317.20951	1.05085
1315.28094	1.05550
1313.35238	1.05893
1311.42381	1.06175
1309.49525	1.06430
1307.56668	1.06577
1305.63812	1.06534
1303.70955	1.06340
1301.78099	1.06052
1299.85243	1.05692
1297.92386	1.05276
1295.99530	1.04797
1294.06673	1.04310
1292.13817	1.03936
1290.20960	1.03684
1288.28104	1.03498
1286.35247	1.03385
1284.42391	1.03330
1282.49535	1.03316
1280.56678	1.03364
1278.63822	1.03477
1276.70965	1.03659
1274.78109	1.03952
1272.85252	1.04394
1270.92396	1.05011
1268.99539	1.05778
1267.06683	1.06579
1265.13827	1.07310
1263.20970	1.07911
1261.28114	1.08358
1259.35257	1.08730
1257.42401	1.09077
1255.49544	1.09359
1253.56688	1.09613
1251.63831	1.09913
1249.70975	1.10234
1247.78119	1.10494
1245.85262	1.10675
1243.92406	1.10791
1241.99549	1.10824
1240.06693	1.10772
1238.13836	1.10627
1236.20980	1.10299
1234.28123	1.09773
1232.35267	1.09141
1230.42411	1.08414
1228.49554	1.07543
1226.56698	1.06542
1224.63841	1.05485
1222.70985	1.04412
1220.78128	1.03357
1218.85272	1.02391
1216.92415	1.01573
1214.99559	1.00927
1213.06703	1.00482
1211.13846	1.00253
1209.20990	1.00212
1207.28133	1.00223
1205.35277	1.00057
1203.42420	0.99574
1201.49564	0.98882
1199.56708	0.98152
1197.63851	0.97427
1195.70995	0.96729
1193.78138	0.96179
1191.85282	0.95884
1189.92425	0.95820
1187.99569	0.95909
1186.06712	0.96106
1184.13856	0.96461
1182.21000	0.97044
1180.28143	0.97837
1178.35287	0.98840
1176.42430	1.00050
1174.49574	1.01287
1172.56717	1.02382
1170.63861	1.03432
1168.71004	1.04601
1166.78148	1.05924
1164.85292	1.07330
1162.92435	1.08591
1160.99579	1.09394
1159.06722	1.09584
1157.13866	1.09218
1155.21009	1.08443
1153.28153	1.07403
1151.35296	1.06219
1149.42440	1.04978
1147.49584	1.03799
1145.56727	1.02884
1143.63871	1.02414
1141.71014	1.02447
1139.78158	1.02944
1137.85301	1.03857
1135.92445	1.05107
1133.99588	1.06607
1132.06732	1.08360
1130.13876	1.10377
1128.21019	1.12593
1126.28163	1.14862
1124.35306	1.16937
1122.42450	1.18577
1120.49593	1.19737
1118.56737	1.20569
1116.63880	1.21159
1114.71024	1.21332
1112.78168	1.21049
1110.85311	1.20599
1108.92455	1.20179
1106.99598	1.19742
1105.06742	1.19239
1103.13885	1.18740
1101.21029	1.18303
1099.28172	1.18050
1097.35316	1.18245
1095.42460	1.18897
1093.49603	1.19762
1091.56747	1.20739
1089.63890	1.21825
1087.71034	1.23088
1085.78177	1.24630
1083.85321	1.26184
1081.92464	1.27274
1079.99608	1.27836
1078.06752	1.28124
1076.13895	1.28156
1074.21039	1.27734
1072.28182	1.26916
1070.35326	1.26061
1068.42469	1.25400
1066.49613	1.24937
1064.56756	1.24588
1062.63900	1.24119
1060.71044	1.23341
1058.78187	1.22412
1056.85331	1.21499
1054.92474	1.20592
1052.99618	1.19732
1051.06761	1.18966
1049.13905	1.18246
1047.21049	1.17604
1045.28192	1.17164
1043.35336	1.16878
1041.42479	1.16681
1039.49623	1.16630
1037.56766	1.16598
1035.63910	1.16334
1033.71053	1.15804
1031.78197	1.15144
1029.85341	1.14363
1027.92484	1.13312
1025.99628	1.12030
1024.06771	1.10819
1022.13915	1.09891
1020.21058	1.09228
1018.28202	1.08735
1016.35345	1.08281
1014.42489	1.07663
1012.49633	1.06742
1010.56776	1.05560
1008.63920	1.04212
1006.71063	1.02765
1004.78207	1.01369
1002.85350	1.00220
1000.92494	0.99367
998.99637	0.98717
997.06781	0.98149
995.13925	0.97549
993.21068	0.96847
991.28212	0.96008
989.35355	0.94971
987.42499	0.93708
985.49642	0.92318
983.56786	0.90934
981.63929	0.89638
979.71073	0.88459
977.78217	0.87349
975.85360	0.86224
973.92504	0.85004
971.99647	0.83609
970.06791	0.82046
968.13934	0.80488
966.21078	0.79153
964.28221	0.78168
962.35365	0.77675
960.42509	0.77887
958.49652	0.78833
956.56796	0.80130
954.63939	0.81200
952.71083	0.81739
950.78226	0.81843
948.85370	0.81820
946.92513	0.81997
944.99657	0.82566
943.06801	0.83523
941.13944	0.84723
939.21088	0.85985
937.28231	0.87175
935.35375	0.88220
933.42518	0.89083
931.49662	0.89731
929.56805	0.90114
927.63949	0.90199
925.71093	0.89983
923.78236	0.89490
921.85380	0.88762
919.92523	0.87787
917.99667	0.86583
916.06810	0.85290
914.13954	0.84033
912.21098	0.82871
910.28241	0.81871
908.35385	0.81117
906.42528	0.80683
904.49672	0.80570
902.56815	0.80678
900.63959	0.80913
898.71102	0.81214
896.78246	0.81529
894.85390	0.81871
892.92533	0.82288
890.99677	0.82816
889.06820	0.83471
887.13964	0.84211
885.21107	0.84981
883.28251	0.85825
881.35394	0.86803
879.42538	0.87811
877.49682	0.88673
875.56825	0.89285
873.63969	0.89608
871.71112	0.89666
869.78256	0.89500
867.85399	0.89107
865.92543	0.88446
863.99686	0.87559
862.06830	0.86570
860.13974	0.85536
858.21117	0.84478
856.28261	0.83443
854.35404	0.82433
852.42548	0.81450
850.49691	0.80579
848.56835	0.79893
846.63978	0.79347
844.71122	0.78885
842.78266	0.78576
840.85409	0.78512
838.92553	0.78711
836.99696	0.79105
835.06840	0.79602
833.13983	0.80237
831.21127	0.81061
829.28270	0.82024
827.35414	0.83092
825.42558	0.84273
823.49701	0.85544
821.56845	0.86868
819.63988	0.88195
817.71132	0.89483
815.78275	0.90658
813.85419	0.91660
811.92562	0.92520
809.99706	0.93184
808.06850	0.93516
806.13993	0.93516
804.21137	0.93230
802.28280	0.92697
800.35424	0.92004
798.42567	0.91128
796.49711	0.90047
794.56854	0.88993
792.63998	0.88135
790.71142	0.87450
788.78285	0.86940
786.85429	0.86620
784.92572	0.86504
782.99716	0.86606
781.06859	0.86957
779.14003	0.87577
777.21147	0.88371
775.28290	0.89308
773.35434	0.90500
771.42577	0.91945
769.49721	0.93507
767.56864	0.95144
765.64008	0.96827
763.71151	0.98463
761.78295	1.00094
759.85439	1.01745
757.92582	1.03264
755.99726	1.04503
754.06869	1.05432
752.14013	1.06077
750.21156	1.06417
748.28300	1.06437
746.35443	1.06148
744.42587	1.05486
742.49731	1.04415
740.56874	1.03081
738.64018	1.01728
736.71161	1.00498
734.78305	0.99382
732.85448	0.98397
730.92592	0.97600
728.99735	0.96968
727.06879	0.96528
725.14023	0.96392
723.21166	0.96524
721.28310	0.96783
719.35453	0.97043
717.42597	0.97300
715.49740	0.97712
713.56884	0.98334
711.64027	0.99089
709.71171	0.99946
707.78315	1.00828
705.85458	1.01669
703.92602	1.02502
701.99745	1.03237
700.06889	1.03751
698.14032	1.04072
696.21176	1.04294
694.28319	1.04463
692.35463	1.04437
690.42607	1.04168
688.49750	1.03862
686.56894	1.03510
684.64037	1.02962
682.71181	1.02353
680.78324	1.01856
678.85468	1.01330
676.92611	1.00743
674.99755	1.00368
673.06899	1.00185
671.14042	0.99998
669.21186	0.99847
667.28329	0.99669
665.35473	0.99449
663.42616	0.99413
661.49760	0.99518
659.56903	0.99641
657.64047	0.99854
655.71191	1.00122
653.78334	1.00423
651.85478	1.00891
649.92621	1.01468
647.99765	1.02029
646.06908	1.02676
644.14052	1.03636
642.21195	1.04804
640.28339	1.05683
638.35483	1.06056
636.42626	1.06240
634.49770	1.06567
632.56913	1.07038
630.64057	1.07387
628.71200	1.07465
626.78344	1.07479
624.85488	1.07663
622.92631	1.07826
620.99775	1.07657
619.06918	1.07276
617.14062	1.06844
615.21205	1.06342
613.28349	1.05978
611.35492	1.05907
609.42636	1.05941
607.49780	1.06007
605.56923	1.06224
603.64067	1.06515
601.71210	1.06862
599.78354	1.07329
