3997.91406	0.44576
3995.98550	0.44502
3994.05693	0.44461
3992.12837	0.44463
3990.19980	0.44486
3988.27124	0.44505
3986.34268	0.44474
3984.41411	0.44375
3982.48555	0.44263
3980.55698	0.44186
3978.62842	0.44103
3976.69985	0.44032
3974.77129	0.44027
3972.84272	0.44036
3970.91416	0.44037
3968.98560	0.44051
3967.05703	0.44055
3965.12847	0.44026
3963.19990	0.44012
3961.27134	0.44055
3959.34277	0.44093
3957.41421	0.44086
3955.48564	0.44028
3953.55708	0.43917
3951.62852	0.43805
3949.69995	0.43912
3947.77139	0.44228
3945.84282	0.44337
3943.91426	0.44334
3941.98569	0.44392
3940.05713	0.44241
3938.12856	0.43955
3936.20000	0.43710
3934.27144	0.43526
3932.34287	0.43610
3930.41431	0.43926
3928.48574	0.43942
3926.55718	0.43678
3924.62861	0.43607
3922.70005	0.43637
3920.77148	0.43530
3918.84292	0.43636
3916.91436	0.43995
3914.98579	0.44055
3913.05723	0.43801
3911.12866	0.43513
3909.20010	0.43115
3907.27153	0.42577
3905.34297	0.42305
3903.41440	0.42562
3901.48584	0.42998
3899.55728	0.43484
3897.62871	0.43652
3895.70015	0.43229
3893.77158	0.42776
3891.84302	0.43030
3889.91445	0.43237
3887.98589	0.42775
3886.05733	0.42560
3884.12876	0.42708
3882.20020	0.42689
3880.27163	0.43086
3878.34307	0.43233
3876.41450	0.42684
3874.48594	0.42203
3872.55737	0.42058
3870.62881	0.42321
3868.70025	0.42665
3866.77168	0.42391
3864.84312	0.42263
3862.91455	0.42714
3860.98599	0.42820
3859.05742	0.42332
3857.12886	0.41334
3855.20029	0.40322
3853.27173	0.41426
3851.34317	0.42961
3849.41460	0.42880
3847.48604	0.42293
3845.55747	0.41713
3843.62891	0.41369
3841.70034	0.41195
3839.77178	0.41227
3837.84321	0.41851
3835.91465	0.42398
3833.98609	0.42469
3832.05752	0.42433
3830.12896	0.42323
3828.20039	0.42194
3826.27183	0.42115
3824.34326	0.41647
3822.41470	0.41246
3820.48613	0.41882
3818.55757	0.42178
3816.62901	0.42410
3814.70044	0.43023
3812.77188	0.42894
3810.84331	0.42179
3808.91475	0.41596
3806.98618	0.41636
3805.05762	0.41458
3803.12905	0.40993
3801.20049	0.41523
3799.27193	0.41980
3797.34336	0.41932
3795.41480	0.42055
3793.48623	0.41948
3791.55767	0.41647
3789.62910	0.41453
3787.70054	0.41352
3785.77197	0.41426
3783.84341	0.41456
3781.91485	0.41156
3779.98628	0.41176
3778.05772	0.41694
3776.12915	0.41767
3774.20059	0.41306
3772.27202	0.40809
3770.34346	0.40856
3768.41489	0.41222
3766.48633	0.41347
3764.55777	0.41327
3762.62920	0.40994
3760.70064	0.40643
3758.77207	0.40834
3756.84351	0.40841
3754.91494	0.40100
3752.98638	0.39166
3751.05781	0.39445
3749.12925	0.40391
3747.20069	0.40290
3745.27212	0.40422
3743.34356	0.41150
3741.41499	0.40912
3739.48643	0.39879
3737.55786	0.38936
3735.62930	0.39179
3733.70074	0.40381
3731.77217	0.40863
3729.84361	0.40530
3727.91504	0.40018
3725.98648	0.39925
3724.05791	0.40264
3722.12935	0.40637
3720.20078	0.40862
3718.27222	0.40788
3716.34366	0.40394
3714.41509	0.39837
3712.48653	0.39785
3710.55796	0.40754
3708.62940	0.41311
3706.70083	0.41090
3704.77227	0.40641
3702.84370	0.40623
3700.91514	0.41071
3698.98658	0.41127
3697.05801	0.40865
3695.12945	0.40587
3693.20088	0.40167
3691.27232	0.39834
3689.34375	0.40526
3687.41519	0.41440
3685.48662	0.41460
3683.55806	0.41079
3681.62950	0.40725
3679.70093	0.40337
3677.77237	0.39869
3675.84380	0.40398
3673.91524	0.41177
3671.98667	0.40997
3670.05811	0.41620
3668.12954	0.42610
3666.20098	0.42599
3664.27242	0.42352
3662.34385	0.42318
3660.41529	0.42304
3658.48672	0.42297
3656.55816	0.42770
3654.62959	0.43020
3652.70103	0.42271
3650.77246	0.41695
3648.84390	0.43626
3646.91534	0.45460
3644.98677	0.45556
3643.05821	0.45382
3641.12964	0.45541
3639.20108	0.45878
3637.27251	0.46059
3635.34395	0.46100
3633.41538	0.46043
3631.48682	0.45888
3629.55826	0.46678
3627.62969	0.48323
3625.70113	0.48613
3623.77256	0.48193
3621.84400	0.47805
3619.91543	0.48129
3617.98687	0.49033
3616.05830	0.49373
3614.12974	0.49581
3612.20118	0.49992
3610.27261	0.50339
3608.34405	0.50961
3606.41548	0.51580
3604.48692	0.51671
3602.55835	0.51745
3600.62979	0.52185
3598.70123	0.52618
3596.77266	0.52940
3594.84410	0.53517
3592.91553	0.53995
3590.98697	0.53910
3589.05840	0.53932
3587.12984	0.54919
3585.20127	0.55851
3583.27271	0.56181
3581.34415	0.56474
3579.41558	0.56914
3577.48702	0.57376
3575.55845	0.57750
3573.62989	0.57990
3571.70132	0.58006
3569.77276	0.57916
3567.84419	0.58519
3565.91563	0.59918
3563.98707	0.60548
3562.05850	0.60692
3560.12994	0.61048
3558.20137	0.61459
3556.27281	0.61669
3554.34424	0.61950
3552.41568	0.62583
3550.48711	0.63127
3548.55855	0.63339
3546.62999	0.63725
3544.70142	0.64446
3542.77286	0.65104
3540.84429	0.65616
3538.91573	0.66099
3536.98716	0.66645
3535.05860	0.67165
3533.13003	0.67504
3531.20147	0.67873
3529.27291	0.68568
3527.34434	0.69304
3525.41578	0.69781
3523.48721	0.70330
3521.55865	0.70986
3519.63008	0.71538
3517.70152	0.72149
3515.77295	0.72806
3513.84439	0.73363
3511.91583	0.73966
3509.98726	0.74749
3508.05870	0.75443
3506.13013	0.75864
3504.20157	0.76467
3502.27300	0.77448
3500.34444	0.78261
3498.41587	0.78914
3496.48731	0.79744
3494.55875	0.80562
3492.63018	0.81165
3490.70162	0.81771
3488.77305	0.82496
3486.84449	0.83181
3484.91592	0.83740
3482.98736	0.84347
3481.05879	0.85093
3479.13023	0.85589
3477.20167	0.85653
3475.27310	0.85722
3473.34454	0.86092
3471.41597	0.86550
3469.48741	0.86942
3467.55884	0.87289
3465.63028	0.87617
3463.70171	0.88066
3461.77315	0.88610
3459.84459	0.88991
3457.91602	0.89282
3455.98746	0.89708
3454.05889	0.90169
3452.13033	0.90541
3450.20176	0.90849
3448.27320	0.91212
3446.34464	0.91692
3444.41607	0.92022
3442.48751	0.92053
3440.55894	0.92040
3438.63038	0.92253
3436.70181	0.92590
3434.77325	0.92862
3432.84468	0.93179
3430.91612	0.93534
3428.98756	0.93713
3427.05899	0.93699
3425.13043	0.93659
3423.20186	0.93662
3421.27330	0.93629
3419.34473	0.93588
3417.41617	0.93700
3415.48760	0.93944
3413.55904	0.94049
3411.63048	0.94011
3409.70191	0.94129
3407.77335	0.94343
3405.84478	0.94372
3403.91622	0.94239
3401.98765	0.94117
3400.05909	0.94042
3398.13052	0.94084
3396.20196	0.94321
3394.27340	0.94573
3392.34483	0.94696
3390.41627	0.94749
3388.48770	0.94799
3386.55914	0.94934
3384.63057	0.95205
3382.70201	0.95409
3380.77344	0.95352
3378.84488	0.95262
3376.91632	0.95444
3374.98775	0.95804
3373.05919	0.96123
3371.13062	0.96359
3369.20206	0.96506
3367.27349	0.96656
3365.34493	0.97015
3363.41636	0.97409
3361.48780	0.97532
3359.55924	0.97570
3357.63067	0.97819
3355.70211	0.98167
3353.77354	0.98359
3351.84498	0.98430
3349.91641	0.98588
3347.98785	0.98870
3346.05928	0.99158
3344.13072	0.99452
3342.20216	0.99799
3340.27359	1.00018
3338.34503	1.00071
3336.41646	1.00334
3334.48790	1.00912
3332.55933	1.01476
3330.63077	1.01929
3328.70220	1.02375
3326.77364	1.02931
3324.84508	1.03649
3322.91651	1.04197
3320.98795	1.04434
3319.05938	1.04754
3317.13082	1.05282
3315.20225	1.05810
3313.27369	1.06313
3311.34513	1.06968
3309.41656	1.07769
3307.48800	1.08345
3305.55943	1.08571
3303.63087	1.08788
3301.70230	1.09190
3299.77374	1.09667
3297.84517	1.10106
3295.91661	1.10502
3293.98805	1.10889
3292.05948	1.11349
3290.13092	1.11980
3288.20235	1.12540
3286.27379	1.12746
3284.34522	1.12865
3282.41666	1.13048
3280.48809	1.12905
3278.55953	1.12388
3276.63097	1.12056
3274.70240	1.12166
3272.77384	1.12315
3270.84527	1.12187
3268.91671	1.11905
3266.98814	1.11619
3265.05958	1.11257
3263.13101	1.10594
3261.20245	1.09662
3259.27389	1.08822
3257.34532	1.08191
3255.41676	1.07579
3253.48819	1.06846
3251.55963	1.05947
3249.63106	1.04952
3247.70250	1.04001
3245.77393	1.03112
3243.84537	1.02250
3241.91681	1.01427
3239.98824	1.00663
3238.05968	0.99969
3236.13111	0.99393
3234.20255	0.98969
3232.27398	0.98531
3230.34542	0.97967
3228.41685	0.97437
3226.48829	0.96945
3224.55973	0.96406
3222.63116	0.95916
3220.70260	0.95544
3218.77403	0.95262
3216.84547	0.95008
3214.91690	0.94679
3212.98834	0.94181
3211.05977	0.93550
3209.13121	0.92976
3207.20265	0.92553
3205.27408	0.92229
3203.34552	0.91960
3201.41695	0.91643
3199.48839	0.91196
3197.55982	0.90695
3195.63126	0.90256
3193.70269	0.89872
3191.77413	0.89457
3189.84557	0.88951
3187.91700	0.88384
3185.98844	0.87866
3184.05987	0.87438
3182.13131	0.87071
3180.20274	0.86757
3178.27418	0.86414
3176.34562	0.86008
3174.41705	0.85686
3172.48849	0.85439
3170.55992	0.85118
3168.63136	0.84756
3166.70279	0.84409
3164.77423	0.84013
3162.84566	0.83566
3160.91710	0.83195
3158.98854	0.82974
3157.05997	0.82776
3155.13141	0.82467
3153.20284	0.82112
3151.27428	0.81827
3149.34571	0.81621
3147.41715	0.81434
3145.48858	0.81229
3143.56002	0.81044
3141.63146	0.80909
3139.70289	0.80802
3137.77433	0.80729
3135.84576	0.80722
3133.91720	0.80762
3131.98863	0.80732
3130.06007	0.80585
3128.13150	0.80438
3126.20294	0.80326
3124.27438	0.80206
3122.34581	0.80147
3120.41725	0.80225
3118.48868	0.80335
3116.56012	0.80382
3114.63155	0.80496
3112.70299	0.80701
3110.77442	0.80818
3108.84586	0.80834
3106.91730	0.80843
3104.98873	0.80799
3103.06017	0.80651
3101.13160	0.80491
3099.20304	0.80433
3097.27447	0.80448
3095.34591	0.80454
3093.41734	0.80430
3091.48878	0.80356
3089.56022	0.80205
3087.63165	0.79991
3085.70309	0.79733
3083.77452	0.79481
3081.84596	0.79267
3079.91739	0.79035
3077.98883	0.78827
3076.06026	0.78716
3074.13170	0.78597
3072.20314	0.78376
3070.27457	0.78067
3068.34601	0.77698
3066.41744	0.77354
3064.48888	0.77118
3062.56031	0.76922
3060.63175	0.76673
3058.70318	0.76338
3056.77462	0.75934
3054.84606	0.75551
3052.91749	0.75197
3050.98893	0.74818
3049.06036	0.74455
3047.13180	0.74148
3045.20323	0.73877
3043.27467	0.73606
3041.34610	0.73280
3039.41754	0.72949
3037.48898	0.72748
3035.56041	0.72667
3033.63185	0.72547
3031.70328	0.72319
3029.77472	0.72035
3027.84615	0.71764
3025.91759	0.71527
3023.98903	0.71272
3022.06046	0.71015
3020.13190	0.70790
3018.20333	0.70529
3016.27477	0.70259
3014.34620	0.70050
3012.41764	0.69875
3010.48907	0.69751
3008.56051	0.69697
3006.63195	0.69636
3004.70338	0.69498
3002.77482	0.69324
3000.84625	0.69188
2998.91769	0.69147
2996.98912	0.69271
2995.06056	0.69494
2993.13199	0.69679
2991.20343	0.69880
2989.27487	0.70194
2987.34630	0.70568
2985.41774	0.70909
2983.48917	0.71236
2981.56061	0.71656
2979.63204	0.72220
2977.70348	0.72846
2975.77491	0.73434
2973.84635	0.74004
2971.91779	0.74616
2969.98922	0.75271
2968.06066	0.75935
2966.13209	0.76484
2964.20353	0.76813
2962.27496	0.76993
2960.34640	0.77097
2958.41783	0.76955
2956.48927	0.76452
2954.56071	0.75846
2952.63214	0.75388
2950.70358	0.75021
2948.77501	0.74705
2946.84645	0.74575
2944.91788	0.74709
2942.98932	0.75100
2941.06075	0.75774
2939.13219	0.76624
2937.20363	0.77442
2935.27506	0.78207
2933.34650	0.78997
2931.41793	0.79777
2929.48937	0.80481
2927.56080	0.81142
2925.63224	0.81841
2923.70367	0.82643
2921.77511	0.83516
2919.84655	0.84284
2917.91798	0.84480
2915.98942	0.83561
2914.06085	0.81696
2912.13229	0.79691
2910.20372	0.78059
2908.27516	0.76804
2906.34659	0.75811
2904.41803	0.75041
2902.48947	0.74483
2900.56090	0.74065
2898.63234	0.73715
2896.70377	0.73452
2894.77521	0.73260
2892.84664	0.73018
2890.91808	0.72662
2888.98952	0.72278
2887.06095	0.71974
2885.13239	0.71768
2883.20382	0.71635
2881.27526	0.71575
2879.34669	0.71564
2877.41813	0.71510
2875.48956	0.71349
2873.56100	0.71096
2871.63244	0.70784
2869.70387	0.70436
2867.77531	0.70045
2865.84674	0.69624
2863.91818	0.69258
2861.98961	0.69099
2860.06105	0.69227
2858.13248	0.69550
2856.20392	0.70014
2854.27536	0.70788
2852.34679	0.71914
2850.41823	0.72790
2848.48966	0.72414
2846.56110	0.70649
2844.63253	0.68473
2842.70397	0.66663
2840.77540	0.65325
2838.84684	0.64368
2836.91828	0.63681
2834.98971	0.63142
2833.06115	0.62690
2831.13258	0.62305
2829.20402	0.61971
2827.27545	0.61671
2825.34689	0.61402
2823.41832	0.61163
2821.48976	0.60929
2819.56120	0.60707
2817.63263	0.60542
2815.70407	0.60398
2813.77550	0.60189
2811.84694	0.59940
2809.91837	0.59739
2807.98981	0.59602
2806.06124	0.59433
2804.13268	0.59191
2802.20412	0.58937
2800.27555	0.58669
2798.34699	0.58389
2796.41842	0.58181
2794.48986	0.58034
2792.56129	0.57818
2790.63273	0.57515
2788.70416	0.57261
2786.77560	0.57096
2784.84704	0.56945
2782.91847	0.56796
2780.98991	0.56656
2779.06134	0.56474
2777.13278	0.56263
2775.20421	0.56110
2773.27565	0.56003
2771.34708	0.55864
2769.41852	0.55711
2767.48996	0.55613
2765.56139	0.55569
2763.63283	0.55509
2761.70426	0.55420
2759.77570	0.55346
2757.84713	0.55267
2755.91857	0.55184
2753.99001	0.55138
2752.06144	0.55095
2750.13288	0.55024
2748.20431	0.54938
2746.27575	0.54848
2744.34718	0.54774
2742.41862	0.54726
2740.49005	0.54677
2738.56149	0.54587
2736.63293	0.54453
2734.70436	0.54312
2732.77580	0.54197
2730.84723	0.54091
2728.91867	0.53926
2726.99010	0.53718
2725.06154	0.53565
2723.13297	0.53464
2721.20441	0.53354
2719.27585	0.53243
2717.34728	0.53147
2715.41872	0.53057
2713.49015	0.52951
2711.56159	0.52820
2709.63302	0.52703
2707.70446	0.52622
2705.77589	0.52551
2703.84733	0.52461
2701.91877	0.52350
2699.99020	0.52251
2698.06164	0.52189
2696.13307	0.52135
2694.20451	0.52076
2692.27594	0.52014
2690.34738	0.51928
2688.41881	0.51826
2686.49025	0.51737
2684.56169	0.51651
2682.63312	0.51556
2680.70456	0.51464
2678.77599	0.51380
2676.84743	0.51292
2674.91886	0.51202
2672.99030	0.51097
2671.06173	0.50969
2669.13317	0.50861
2667.20461	0.50784
2665.27604	0.50683
2663.34748	0.50549
2661.41891	0.50437
2659.49035	0.50351
2657.56178	0.50250
2655.63322	0.50139
2653.70465	0.50060
2651.77609	0.50029
2649.84753	0.50029
2647.91896	0.50016
2645.99040	0.49951
2644.06183	0.49862
2642.13327	0.49811
2640.20470	0.49807
2638.27614	0.49809
2636.34757	0.49773
2634.41901	0.49704
2632.49045	0.49644
2630.56188	0.49594
2628.63332	0.49549
2626.70475	0.49506
2624.77619	0.49449
2622.84762	0.49397
2620.91906	0.49360
2618.99049	0.49307
2617.06193	0.49220
2615.13337	0.49117
2613.20480	0.49028
2611.27624	0.48960
2609.34767	0.48901
2607.41911	0.48840
2605.49054	0.48767
2603.56198	0.48690
2601.63342	0.48616
2599.70485	0.48540
2597.77629	0.48457
2595.84772	0.48357
2593.91916	0.48238
2591.99059	0.48126
2590.06203	0.48047
2588.13346	0.47998
2586.20490	0.47958
2584.27634	0.47909
2582.34777	0.47855
2580.41921	0.47821
2578.49064	0.47808
2576.56208	0.47789
2574.63351	0.47739
2572.70495	0.47659
2570.77638	0.47581
2568.84782	0.47541
2566.91926	0.47517
2564.99069	0.47472
2563.06213	0.47407
2561.13356	0.47331
2559.20500	0.47263
2557.27643	0.47213
2555.34787	0.47142
2553.41930	0.47020
2551.49074	0.46881
2549.56218	0.46774
2547.63361	0.46695
2545.70505	0.46616
2543.77648	0.46544
2541.84792	0.46501
2539.91935	0.46449
2537.99079	0.46360
2536.06222	0.46260
2534.13366	0.46174
2532.20510	0.46112
2530.27653	0.46083
2528.34797	0.46069
2526.41940	0.46030
2524.49084	0.45960
2522.56227	0.45870
2520.63371	0.45779
2518.70514	0.45719
2516.77658	0.45682
2514.84802	0.45650
2512.91945	0.45637
2510.99089	0.45640
2509.06232	0.45619
2507.13376	0.45553
2505.20519	0.45480
2503.27663	0.45440
2501.34806	0.45429
2499.41950	0.45411
2497.49094	0.45371
2495.56237	0.45326
2493.63381	0.45283
2491.70524	0.45225
2489.77668	0.45130
2487.84811	0.45002
2485.91955	0.44863
2483.99098	0.44732
2482.06242	0.44639
2480.13386	0.44583
2478.20529	0.44528
2476.27673	0.44461
2474.34816	0.44388
2472.41960	0.44316
2470.49103	0.44251
2468.56247	0.44203
2466.63391	0.44179
2464.70534	0.44164
2462.77678	0.44146
2460.84821	0.44135
2458.91965	0.44133
2456.99108	0.44139
2455.06252	0.44153
2453.13395	0.44152
2451.20539	0.44127
2449.27683	0.44096
2447.34826	0.44073
2445.41970	0.44058
2443.49113	0.44038
2441.56257	0.43984
2439.63400	0.43900
2437.70544	0.43821
2435.77687	0.43756
2433.84831	0.43675
2431.91975	0.43565
2429.99118	0.43466
2428.06262	0.43405
2426.13405	0.43344
2424.20549	0.43248
2422.27692	0.43131
2420.34836	0.43010
2418.41979	0.42904
2416.49123	0.42834
2414.56267	0.42775
2412.63410	0.42689
2410.70554	0.42605
2408.77697	0.42542
2406.84841	0.42468
2404.91984	0.42385
2402.99128	0.42330
2401.06271	0.42311
2399.13415	0.42299
2397.20559	0.42253
2395.27702	0.42198
2393.34846	0.42177
2391.41989	0.42167
2389.49133	0.42131
2387.56276	0.42084
2385.63420	0.42032
2383.70563	0.41986
2381.77707	0.41968
2379.84851	0.41964
2377.91994	0.41955
2375.99138	0.41957
2374.06281	0.41995
2372.13425	0.42093
2370.20568	0.42210
2368.27712	0.42257
2366.34855	0.42301
2364.41999	0.42502
2362.49143	0.42794
2360.56286	0.42891
2358.63430	0.42769
2356.70573	0.42689
2354.77717	0.42619
2352.84860	0.42423
2350.92004	0.42056
2348.99147	0.41583
2347.06291	0.41225
2345.13435	0.41226
2343.20578	0.41493
2341.27722	0.41683
2339.34865	0.41765
2337.42009	0.41810
2335.49152	0.41797
2333.56296	0.41729
2331.63440	0.41667
2329.70583	0.41607
2327.77727	0.41567
2325.84870	0.41573
2323.92014	0.41562
2321.99157	0.41529
2320.06301	0.41496
2318.13444	0.41422
2316.20588	0.41299
2314.27732	0.41185
2312.34875	0.41103
2310.42019	0.41025
2308.49162	0.40924
2306.56306	0.40803
2304.63449	0.40671
2302.70593	0.40550
2300.77736	0.40436
2298.84880	0.40308
2296.92024	0.40183
2294.99167	0.40078
2293.06311	0.39980
2291.13454	0.39880
2289.20598	0.39785
2287.27741	0.39702
2285.34885	0.39621
2283.42028	0.39539
2281.49172	0.39480
2279.56316	0.39450
2277.63459	0.39439
2275.70603	0.39439
2273.77746	0.39443
2271.84890	0.39451
2269.92033	0.39477
2267.99177	0.39513
2266.06320	0.39538
2264.13464	0.39562
2262.20608	0.39612
2260.27751	0.39683
2258.34895	0.39753
2256.42038	0.39787
2254.49182	0.39755
2252.56325	0.39689
2250.63469	0.39628
2248.70612	0.39569
2246.77756	0.39508
2244.84900	0.39440
2242.92043	0.39337
2240.99187	0.39216
2239.06330	0.39125
2237.13474	0.39054
2235.20617	0.38974
2233.27761	0.38894
2231.34904	0.38829
2229.42048	0.38771
2227.49192	0.38703
2225.56335	0.38630
2223.63479	0.38568
2221.70622	0.38526
2219.77766	0.38501
2217.84909	0.38482
2215.92053	0.38467
2213.99196	0.38470
2212.06340	0.38504
2210.13484	0.38548
2208.20627	0.38580
2206.27771	0.38610
2204.34914	0.38648
2202.42058	0.38687
2200.49201	0.38717
2198.56345	0.38740
2196.63488	0.38758
2194.70632	0.38770
2192.77776	0.38762
2190.84919	0.38740
2188.92063	0.38717
2186.99206	0.38685
2185.06350	0.38635
2183.13493	0.38567
2181.20637	0.38495
2179.27781	0.38421
2177.34924	0.38349
2175.42068	0.38285
2173.49211	0.38229
2171.56355	0.38183
2169.63498	0.38164
2167.70642	0.38170
2165.77785	0.38181
2163.84929	0.38192
2161.92073	0.38223
2159.99216	0.38282
2158.06360	0.38367
2156.13503	0.38466
2154.20647	0.38557
2152.27790	0.38635
2150.34934	0.38720
2148.42077	0.38814
2146.49221	0.38896
2144.56365	0.38947
2142.63508	0.38969
2140.70652	0.38977
2138.77795	0.38959
2136.84939	0.38911
2134.92082	0.38850
2132.99226	0.38772
2131.06369	0.38677
2129.13513	0.38587
2127.20657	0.38508
2125.27800	0.38416
2123.34944	0.38309
2121.42087	0.38204
2119.49231	0.38101
2117.56374	0.38004
2115.63518	0.37931
2113.70661	0.37870
2111.77805	0.37806
2109.84949	0.37741
2107.92092	0.37680
2105.99236	0.37645
2104.06379	0.37648
2102.13523	0.37673
2100.20666	0.37706
2098.27810	0.37748
2096.34953	0.37791
2094.42097	0.37831
2092.49241	0.37887
2090.56384	0.37962
2088.63528	0.38032
2086.70671	0.38089
2084.77815	0.38132
2082.84958	0.38157
2080.92102	0.38176
2078.99245	0.38200
2077.06389	0.38216
2075.13533	0.38203
2073.20676	0.38158
2071.27820	0.38100
2069.34963	0.38041
2067.42107	0.37986
2065.49250	0.37944
2063.56394	0.37896
2061.63537	0.37832
2059.70681	0.37772
2057.77825	0.37724
2055.84968	0.37686
2053.92112	0.37670
2051.99255	0.37680
2050.06399	0.37709
2048.13542	0.37752
2046.20686	0.37792
2044.27830	0.37819
2042.34973	0.37859
2040.42117	0.37917
2038.49260	0.37963
2036.56404	0.38001
2034.63547	0.38049
2032.70691	0.38083
2030.77834	0.38080
2028.84978	0.38047
2026.92122	0.38004
2024.99265	0.37963
2023.06409	0.37914
2021.13552	0.37827
2019.20696	0.37715
2017.27839	0.37619
2015.34983	0.37499
2013.42126	0.37333
2011.49270	0.37177
2009.56414	0.37052
2007.63557	0.36939
2005.70701	0.36840
2003.77844	0.36755
2001.84988	0.36668
1999.92131	0.36591
1997.99275	0.36546
1996.06418	0.36508
1994.13562	0.36483
1992.20706	0.36525
1990.27849	0.36594
1988.34993	0.36625
1986.42136	0.36645
1984.49280	0.36684
1982.56423	0.36752
1980.63567	0.36833
1978.70710	0.36907
1976.77854	0.36981
1974.84998	0.37062
1972.92141	0.37120
1970.99285	0.37124
1969.06428	0.37135
1967.13572	0.37204
1965.20715	0.37238
1963.27859	0.37194
1961.35002	0.37153
1959.42146	0.37135
1957.49290	0.37104
1955.56433	0.37065
1953.63577	0.37030
1951.70720	0.36994
1949.77864	0.36953
1947.85007	0.36902
1945.92151	0.36850
1943.99294	0.36863
1942.06438	0.36950
1940.13582	0.36979
1938.20725	0.36951
1936.27869	0.36964
1934.35012	0.37010
1932.42156	0.37054
1930.49299	0.37082
1928.56443	0.37079
1926.63586	0.37036
1924.70730	0.37020
1922.77874	0.37069
1920.85017	0.37075
1918.92161	0.37057
1916.99304	0.37070
1915.06448	0.37007
1913.13591	0.36869
1911.20735	0.36763
1909.27878	0.36721
1907.35022	0.36667
1905.42166	0.36563
1903.49309	0.36458
1901.56453	0.36371
1899.63596	0.36280
1897.70740	0.36188
1895.77883	0.36138
1893.85027	0.36088
1891.92171	0.36003
1889.99314	0.35988
1888.06458	0.36009
1886.13601	0.35959
1884.20745	0.35922
1882.27888	0.35934
1880.35032	0.35943
1878.42175	0.35949
1876.49319	0.35965
1874.56463	0.35970
1872.63606	0.35950
1870.70750	0.36001
1868.77893	0.36271
1866.85037	0.36521
1864.92180	0.36532
1862.99324	0.36496
1861.06467	0.36525
1859.13611	0.36577
1857.20755	0.36599
1855.27898	0.36593
1853.35042	0.36562
1851.42185	0.36484
1849.49329	0.36376
1847.56472	0.36274
1845.63616	0.36268
1843.70759	0.36374
1841.77903	0.36334
1839.85047	0.36170
1837.92190	0.36093
1835.99334	0.36112
1834.06477	0.36078
1832.13621	0.36033
1830.20764	0.36166
1828.27908	0.36343
1826.35051	0.36420
1824.42195	0.36542
1822.49339	0.36626
1820.56482	0.36626
1818.63626	0.36671
1816.70769	0.36758
1814.77913	0.36807
1812.85056	0.36857
1810.92200	0.36985
1808.99343	0.37091
1807.06487	0.37073
1805.13631	0.36992
1803.20774	0.36941
1801.27918	0.36993
1799.35061	0.37043
1797.42205	0.36939
1795.49348	0.36749
1793.56492	0.36674
1791.63635	0.36792
1789.70779	0.36743
1787.77923	0.36523
1785.85066	0.36372
1783.92210	0.36308
1781.99353	0.36279
1780.06497	0.36305
1778.13640	0.36301
1776.20784	0.36225
1774.27927	0.36259
1772.35071	0.36600
1770.42215	0.36928
1768.49358	0.37050
1766.56502	0.37111
1764.63645	0.37136
1762.70789	0.37300
1760.77932	0.37608
1758.85076	0.37796
1756.92220	0.37998
1754.99363	0.38179
1753.06507	0.38273
1751.13650	0.38599
1749.20794	0.39231
1747.27937	0.39703
1745.35081	0.39970
1743.42224	0.40211
1741.49368	0.40506
1739.56512	0.40818
1737.63655	0.40912
1735.70799	0.40943
1733.77942	0.41445
1731.85086	0.41912
1729.92229	0.42040
1727.99373	0.42178
1726.06516	0.42364
1724.13660	0.42704
1722.20804	0.43058
1720.27947	0.43304
1718.35091	0.43911
1716.42234	0.45251
1714.49378	0.46183
1712.56521	0.46670
1710.63665	0.47199
1708.70808	0.47893
1706.77952	0.49098
1704.85096	0.50783
1702.92239	0.52257
1700.99383	0.54579
1699.06526	0.58512
1697.13670	0.62173
1695.20813	0.65667
1693.27957	0.68147
1691.35100	0.70156
1689.42244	0.72827
1687.49388	0.75385
1685.56531	0.78257
1683.63675	0.83613
1681.70818	0.87765
1679.77962	0.90167
1677.85105	0.92545
1675.92249	0.95653
1673.99392	0.99233
1672.06536	1.02084
1670.13680	1.05389
1668.20823	1.09075
1666.27967	1.11126
1664.35110	1.12873
1662.42254	1.15439
1660.49397	1.17680
1658.56541	1.18889
1656.63684	1.19484
1654.70828	1.20153
1652.77972	1.21891
1650.85115	1.22606
1648.92259	1.22437
1646.99402	1.22733
1645.06546	1.23397
1643.13689	1.23516
1641.20833	1.23351
1639.27976	1.23119
1637.35120	1.23245
1635.42264	1.23940
1633.49407	1.24037
1631.56551	1.23705
1629.63694	1.23317
1627.70838	1.22713
1625.77981	1.21563
1623.85125	1.19786
1621.92269	1.17736
1619.99412	1.15812
1618.06556	1.13305
1616.13699	1.09707
1614.20843	1.06686
1612.27986	1.04237
1610.35130	1.01668
1608.42273	0.99077
1606.49417	0.96892
1604.56561	0.95218
1602.63704	0.93923
1600.70848	0.92985
1598.77991	0.92359
1596.85135	0.91950
1594.92278	0.91696
1592.99422	0.91574
1591.06565	0.91604
1589.13709	0.91848
1587.20853	0.92321
1585.27996	0.92975
1583.35140	0.93782
1581.42283	0.94626
1579.49427	0.95370
1577.56570	0.96458
1575.63714	0.98444
1573.70857	0.99804
1571.78001	1.00561
1569.85145	1.01967
1567.92288	1.03585
1565.99432	1.04610
1564.06575	1.05477
1562.13719	1.06080
1560.20862	1.07031
1558.28006	1.09897
1556.35149	1.11233
1554.42293	1.11589
1552.49437	1.12054
1550.56580	1.12480
1548.63724	1.12702
1546.70867	1.12694
1544.78011	1.12591
1542.85154	1.12529
1540.92298	1.12698
1538.99441	1.12665
1537.06585	1.12256
1535.13729	1.11794
1533.20872	1.11353
1531.28016	1.10854
1529.35159	1.10336
1527.42303	1.09930
1525.49446	1.09590
1523.56590	1.09321
1521.63733	1.09404
1519.70877	1.09582
1517.78021	1.09278
1515.85164	1.08449
1513.92308	1.07188
1511.99451	1.05634
1510.06595	1.04057
1508.13738	1.02068
1506.20882	0.98770
1504.28025	0.96514
1502.35169	0.94912
1500.42313	0.93273
1498.49456	0.91426
1496.56600	0.89349
1494.63743	0.87557
1492.70887	0.86156
1490.78030	0.84717
1488.85174	0.83147
1486.92317	0.81892
1484.99461	0.80952
1483.06605	0.80282
1481.13748	0.79883
1479.20892	0.79708
1477.28035	0.79803
1475.35179	0.80370
1473.42322	0.81780
1471.49466	0.83414
1469.56610	0.84164
1467.63753	0.84630
1465.70897	0.85497
1463.78040	0.86546
1461.85184	0.87006
1459.92327	0.87185
1457.99471	0.87998
1456.06614	0.89211
1454.13758	0.89383
1452.20902	0.89233
1450.28045	0.89111
1448.35189	0.88974
1446.42332	0.88685
1444.49476	0.88240
1442.56619	0.87718
1440.63763	0.87126
1438.70906	0.86438
1436.78050	0.85609
1434.85194	0.84707
1432.92337	0.83858
1430.99481	0.83028
1429.06624	0.82212
1427.13768	0.81526
1425.20911	0.81063
1423.28055	0.80835
1421.35198	0.80802
1419.42342	0.81071
1417.49486	0.81423
1415.56629	0.81407
1413.63773	0.81278
1411.70916	0.81248
1409.78060	0.81313
1407.85203	0.81413
1405.92347	0.81598
1403.99490	0.81873
1402.06634	0.82086
1400.13778	0.82318
1398.20921	0.82662
1396.28065	0.83046
1394.35208	0.83462
1392.42352	0.83781
1390.49495	0.84063
1388.56639	0.84702
1386.63782	0.85865
1384.70926	0.87057
1382.78070	0.88099
1380.85213	0.89048
1378.92357	0.89654
1376.99500	0.89700
1375.06644	0.89169
1373.13787	0.88185
1371.20931	0.87031
1369.28074	0.85709
1367.35218	0.84248
1365.42362	0.82927
1363.49505	0.81826
1361.56649	0.80952
1359.63792	0.80339
1357.70936	0.79975
1355.78079	0.79832
1353.85223	0.79821
1351.92366	0.79877
1349.99510	0.79997
1348.06654	0.80137
1346.13797	0.80252
1344.20941	0.80345
1342.28084	0.80448
1340.35228	0.80661
1338.42371	0.80997
1336.49515	0.81333
1334.56659	0.81715
1332.63802	0.82235
1330.70946	0.82852
1328.78089	0.83391
1326.85233	0.83705
1324.92376	0.83802
1322.99520	0.83782
1321.06663	0.83779
1319.13807	0.83895
1317.20951	0.84073
1315.28094	0.84210
1313.35238	0.84341
1311.42381	0.84492
1309.49525	0.84611
1307.56668	0.84683
1305.63812	0.84738
1303.70955	0.84803
1301.78099	0.84870
1299.85243	0.84901
1297.92386	0.84877
1295.99530	0.84832
1294.06673	0.84847
1292.13817	0.84976
1290.20960	0.85170
1288.28104	0.85376
1286.35247	0.85596
1284.42391	0.85794
1282.49535	0.85923
1280.56678	0.85972
1278.63822	0.85956
1276.70965	0.85939
1274.78109	0.85985
1272.85252	0.86107
1270.92396	0.86282
1268.99539	0.86488
1267.06683	0.86724
1265.13827	0.86948
1263.20970	0.87055
1261.28114	0.87005
1259.35257	0.86860
1257.42401	0.86689
1255.49544	0.86556
1253.56688	0.86505
1251.63831	0.86530
1249.70975	0.86619
1247.78119	0.86775
1245.85262	0.86979
1243.92406	0.87187
1241.99549	0.87387
1240.06693	0.87624
1238.13836	0.87892
1236.20980	0.88102
1234.28123	0.88208
1232.35267	0.88250
1230.42411	0.88224
1228.49554	0.88066
1226.56698	0.87768
1224.63841	0.87381
1222.70985	0.86924
1220.78128	0.86420
1218.85272	0.85915
1216.92415	0.85429
1214.99559	0.84984
1213.06703	0.84637
1211.13846	0.84431
1209.20990	0.84338
1207.28133	0.84237
1205.35277	0.83963
1203.42420	0.83389
1201.49564	0.82553
1199.56708	0.81637
1197.63851	0.80751
1195.70995	0.79912
1193.78138	0.79150
1191.85282	0.78524
1189.92425	0.78076
1187.99569	0.77816
1186.06712	0.77727
1184.13856	0.77753
1182.21000	0.77860
1180.28143	0.78122
1178.35287	0.78627
1176.42430	0.79349
1174.49574	0.80203
1172.56717	0.81108
1170.63861	0.82034
1168.71004	0.83019
1166.78148	0.84132
1164.85292	0.85405
1162.92435	0.86702
1160.99579	0.87729
1159.06722	0.88272
1157.13866	0.88268
1155.21009	0.87724
1153.28153	0.86747
1151.35296	0.85513
1149.42440	0.84164
1147.49584	0.82817
1145.56727	0.81608
1143.63871	0.80650
1141.71014	0.80009
1139.78158	0.79680
1137.85301	0.79633
1135.92445	0.79844
1133.99588	0.80311
1132.06732	0.81073
1130.13876	0.82174
1128.21019	0.83574
1126.28163	0.85154
1124.35306	0.86807
1122.42450	0.88476
1120.49593	0.90028
1118.56737	0.91272
1116.63880	0.92201
1114.71024	0.92876
1112.78168	0.93203
1110.85311	0.93192
1108.92455	0.93015
1106.99598	0.92746
1105.06742	0.92376
1103.13885	0.91937
1101.21029	0.91499
1099.28172	0.91153
1097.35316	0.90990
1095.42460	0.91078
1093.49603	0.91423
1091.56747	0.91933
1089.63890	0.92600
1087.71034	0.93554
1085.78177	0.94795
1083.85321	0.96208
1081.92464	0.97737
1079.99608	0.99235
1078.06752	1.00412
1076.13895	1.01109
1074.21039	1.01366
1072.28182	1.01315
1070.35326	1.01088
1068.42469	1.00658
1066.49613	1.00031
1064.56756	0.99380
1062.63900	0.98780
1060.71044	0.98199
1058.78187	0.97620
1056.85331	0.97037
1054.92474	0.96472
1052.99618	0.95960
1051.06761	0.95473
1049.13905	0.95007
1047.21049	0.94687
1045.28192	0.94599
1043.35336	0.94705
1041.42479	0.94922
1039.49623	0.95208
1037.56766	0.95546
1035.63910	0.95785
1033.71053	0.95756
1031.78197	0.95501
1029.85341	0.95115
1027.92484	0.94565
1025.99628	0.93839
1024.06771	0.93039
1022.13915	0.92277
1020.21058	0.91636
1018.28202	0.91158
1016.35345	0.90804
1014.42489	0.90405
1012.49633	0.89789
1010.56776	0.88968
1008.63920	0.88018
1006.71063	0.86988
1004.78207	0.85963
1002.85350	0.85038
1000.92494	0.84270
998.99637	0.83694
997.06781	0.83305
995.13925	0.83013
993.21068	0.82677
991.28212	0.82197
989.35355	0.81533
987.42499	0.80694
985.49642	0.79784
983.56786	0.78887
981.63929	0.77980
979.71073	0.77060
977.78217	0.76156
975.85360	0.75240
973.92504	0.74264
971.99647	0.73201
970.06791	0.72057
968.13934	0.70925
966.21078	0.69952
964.28221	0.69231
962.35365	0.68807
960.42509	0.68785
958.49652	0.69217
956.56796	0.69889
954.63939	0.70436
952.71083	0.70637
950.78226	0.70500
948.85370	0.70174
946.92513	0.69824
944.99657	0.69560
943.06801	0.69428
941.13944	0.69416
939.21088	0.69458
937.28231	0.69510
935.35375	0.69554
933.42518	0.69541
931.49662	0.69445
929.56805	0.69294
927.63949	0.69079
925.71093	0.68772
923.78236	0.68386
921.85380	0.67939
919.92523	0.67389
917.99667	0.66712
916.06810	0.65970
914.13954	0.65277
912.21098	0.64687
910.28241	0.64190
908.35385	0.63823
906.42528	0.63642
904.49672	0.63647
902.56815	0.63801
900.63959	0.64043
898.71102	0.64295
896.78246	0.64512
894.85390	0.64745
892.92533	0.65050
890.99677	0.65395
889.06820	0.65761
887.13964	0.66180
885.21107	0.66646
883.28251	0.67127
881.35394	0.67605
879.42538	0.68046
877.49682	0.68433
875.56825	0.68737
873.63969	0.68875
871.71112	0.68841
869.78256	0.68711
867.85399	0.68498
865.92543	0.68192
863.99686	0.67821
862.06830	0.67395
860.13974	0.66949
858.21117	0.66555
856.28261	0.66219
854.35404	0.65907
852.42548	0.65646
850.49691	0.65474
848.56835	0.65389
846.63978	0.65352
844.71122	0.65347
842.78266	0.65438
840.85409	0.65679
838.92553	0.66036
836.99696	0.66479
835.06840	0.67031
833.13983	0.67656
831.21127	0.68261
829.28270	0.68797
827.35414	0.69261
825.42558	0.69678
823.49701	0.70043
821.56845	0.70290
819.63988	0.70350
817.71132	0.70213
815.78275	0.69945
813.85419	0.69589
811.92562	0.69130
809.99706	0.68575
808.06850	0.67954
806.13993	0.67255
804.21137	0.66506
802.28280	0.65779
800.35424	0.65100
798.42567	0.64492
796.49711	0.64053
794.56854	0.63844
792.63998	0.63805
790.71142	0.63889
788.78285	0.64096
786.85429	0.64411
784.92572	0.64845
782.99716	0.65368
781.06859	0.65893
779.14003	0.66403
777.21147	0.66901
775.28290	0.67342
773.35434	0.67724
771.42577	0.68087
769.49721	0.68435
767.56864	0.68739
765.64008	0.68969
763.71151	0.69105
761.78295	0.69158
759.85439	0.69190
757.92582	0.69226
755.99726	0.69217
754.06869	0.69174
752.14013	0.69147
750.21156	0.69116
748.28300	0.69054
746.35443	0.68951
744.42587	0.68787
742.49731	0.68618
740.56874	0.68530
738.64018	0.68507
736.71161	0.68514
734.78305	0.68589
732.85448	0.68798
730.92592	0.69122
728.99735	0.69400
727.06879	0.69646
725.14023	0.70049
723.21166	0.70607
721.28310	0.71216
719.35453	0.71788
717.42597	0.72192
715.49740	0.72448
713.56884	0.72726
711.64027	0.73080
709.71171	0.73421
707.78315	0.73685
705.85458	0.73840
703.92602	0.73867
701.99745	0.73819
700.06889	0.73722
698.14032	0.73501
696.21176	0.73180
694.28319	0.72864
692.35463	0.72551
690.42607	0.72250
688.49750	0.72017
686.56894	0.71825
684.64037	0.71651
682.71181	0.71561
680.78324	0.71644
678.85468	0.71969
676.92611	0.72450
674.99755	0.72874
673.06899	0.73183
671.14042	0.73494
669.21186	0.74032
667.28329	0.74695
665.35473	0.74979
663.42616	0.75074
661.49760	0.75062
659.56903	0.74933
657.64047	0.74756
655.71191	0.74524
653.78334	0.74190
651.85478	0.73711
649.92621	0.73067
647.99765	0.72374
646.06908	0.71817
644.14052	0.71456
642.21195	0.71235
640.28339	0.71083
638.35483	0.70992
636.42626	0.70932
634.49770	0.70875
632.56913	0.70903
630.64057	0.71037
628.71200	0.71189
626.78344	0.71445
624.85488	0.71915
622.92631	0.72422
620.99775	0.72884
619.06918	0.73400
617.14062	0.73927
615.21205	0.74518
613.28349	0.75325
611.35492	0.76194
609.42636	0.76809
607.49780	0.77132
605.56923	0.77410
603.64067	0.77757
601.71210	0.77978
599.78354	0.77977
