3997.91406	0.68784
3995.98550	0.68635
3994.05693	0.68711
3992.12837	0.68835
3990.19980	0.68670
3988.27124	0.68261
3986.34268	0.67954
3984.41411	0.68011
3982.48555	0.68260
3980.55698	0.68347
3978.62842	0.68273
3976.69985	0.68243
3974.77129	0.68283
3972.84272	0.68291
3970.91416	0.68290
3968.98560	0.68405
3967.05703	0.68602
3965.12847	0.68670
3963.19990	0.68553
3961.27134	0.68415
3959.34277	0.68380
3957.41421	0.68424
3955.48564	0.68411
3953.55708	0.68234
3951.62852	0.67903
3949.69995	0.67720
3947.77139	0.67865
3945.84282	0.67953
3943.91426	0.68022
3941.98569	0.68225
3940.05713	0.68228
3938.12856	0.68040
3936.20000	0.67789
3934.27144	0.67569
3932.34287	0.67687
3930.41431	0.67971
3928.48574	0.67817
3926.55718	0.67473
3924.62861	0.67523
3922.70005	0.67615
3920.77148	0.67420
3918.84292	0.67460
3916.91436	0.67874
3914.98579	0.68121
3913.05723	0.68012
3911.12866	0.67759
3909.20010	0.67426
3907.27153	0.67011
3905.34297	0.66831
3903.41440	0.67086
3901.48584	0.67425
3899.55728	0.67808
3897.62871	0.67852
3895.70015	0.67295
3893.77158	0.66868
3891.84302	0.67388
3889.91445	0.67706
3887.98589	0.67100
3886.05733	0.66829
3884.12876	0.67076
3882.20020	0.67035
3880.27163	0.67260
3878.34307	0.67236
3876.41450	0.66633
3874.48594	0.66207
3872.55737	0.66098
3870.62881	0.66479
3868.70025	0.67047
3866.77168	0.66846
3864.84312	0.66750
3862.91455	0.67320
3860.98599	0.67433
3859.05742	0.66812
3857.12886	0.65748
3855.20029	0.64827
3853.27173	0.66004
3851.34317	0.67606
3849.41460	0.67646
3847.48604	0.67163
3845.55747	0.66689
3843.62891	0.66354
3841.70034	0.65959
3839.77178	0.65847
3837.84321	0.66638
3835.91465	0.67254
3833.98609	0.67244
3832.05752	0.67144
3830.12896	0.66973
3828.20039	0.66811
3826.27183	0.66749
3824.34326	0.66230
3822.41470	0.65709
3820.48613	0.66402
3818.55757	0.66977
3816.62901	0.67390
3814.70044	0.67791
3812.77188	0.67366
3810.84331	0.66571
3808.91475	0.66023
3806.98618	0.66002
3805.05762	0.65693
3803.12905	0.65234
3801.20049	0.65851
3799.27193	0.66320
3797.34336	0.66369
3795.41480	0.66729
3793.48623	0.66814
3791.55767	0.66569
3789.62910	0.66340
3787.70054	0.66166
3785.77197	0.66162
3783.84341	0.66140
3781.91485	0.65830
3779.98628	0.65894
3778.05772	0.66450
3776.12915	0.66514
3774.20059	0.66092
3772.27202	0.65671
3770.34346	0.65621
3768.41489	0.65722
3766.48633	0.65784
3764.55777	0.65927
3762.62920	0.65712
3760.70064	0.65350
3758.77207	0.65467
3756.84351	0.65419
3754.91494	0.64658
3752.98638	0.63606
3751.05781	0.63541
3749.12925	0.64473
3747.20069	0.64828
3745.27212	0.65471
3743.34356	0.66278
3741.41499	0.65852
3739.48643	0.64744
3737.55786	0.63927
3735.62930	0.64373
3733.70074	0.65518
3731.77217	0.65759
3729.84361	0.65201
3727.91504	0.64585
3725.98648	0.64487
3724.05791	0.64772
3722.12935	0.65075
3720.20078	0.65258
3718.27222	0.65104
3716.34366	0.64588
3714.41509	0.63969
3712.48653	0.64048
3710.55796	0.65263
3708.62940	0.65944
3706.70083	0.65824
3704.77227	0.65494
3702.84370	0.65581
3700.91514	0.66047
3698.98658	0.65981
3697.05801	0.65642
3695.12945	0.65475
3693.20088	0.65152
3691.27232	0.64738
3689.34375	0.65552
3687.41519	0.66907
3685.48662	0.67234
3683.55806	0.67023
3681.62950	0.66777
3679.70093	0.66473
3677.77237	0.66143
3675.84380	0.66924
3673.91524	0.67868
3671.98667	0.67750
3670.05811	0.68552
3668.12954	0.69749
3666.20098	0.69936
3664.27242	0.70015
3662.34385	0.70273
3660.41529	0.70419
3658.48672	0.70656
3656.55816	0.71526
3654.62959	0.72094
3652.70103	0.71487
3650.77246	0.70919
3648.84390	0.72990
3646.91534	0.75214
3644.98677	0.75648
3643.05821	0.75824
3641.12964	0.76300
3639.20108	0.76786
3637.27251	0.77025
3635.34395	0.77250
3633.41538	0.77559
3631.48682	0.77746
3629.55826	0.78843
3627.62969	0.80909
3625.70113	0.81479
3623.77256	0.81220
3621.84400	0.81045
3619.91543	0.81751
3617.98687	0.83095
3616.05830	0.83777
3614.12974	0.84239
3612.20118	0.84851
3610.27261	0.85471
3608.34405	0.86508
3606.41548	0.87654
3604.48692	0.88249
3602.55835	0.88747
3600.62979	0.89531
3598.70123	0.90225
3596.77266	0.90787
3594.84410	0.91610
3592.91553	0.92340
3590.98697	0.92532
3589.05840	0.93040
3587.12984	0.94755
3585.20127	0.95905
3583.27271	0.95981
3581.34415	0.96232
3579.41558	0.97029
3577.48702	0.97905
3575.55845	0.98708
3573.62989	0.99435
3571.70132	0.99710
3569.77276	0.99656
3567.84419	1.00414
3565.91563	1.02227
3563.98707	1.03376
3562.05850	1.04051
3560.12994	1.04683
3558.20137	1.04996
3556.27281	1.04945
3554.34424	1.05025
3552.41568	1.05763
3550.48711	1.06532
3548.55855	1.06840
3546.62999	1.07649
3544.70142	1.09154
3542.77286	1.10076
3540.84429	1.10375
3538.91573	1.10680
3536.98716	1.11167
3535.05860	1.11689
3533.13003	1.12081
3531.20147	1.12529
3529.27291	1.13297
3527.34434	1.14236
3525.41578	1.15170
3523.48721	1.16238
3521.55865	1.17300
3519.63008	1.18080
3517.70152	1.18637
3515.77295	1.19077
3513.84439	1.19414
3511.91583	1.19593
3509.98726	1.19897
3508.05870	1.20875
3506.13013	1.22288
3504.20157	1.23465
3502.27300	1.24185
3500.34444	1.24757
3498.41587	1.25282
3496.48731	1.25637
3494.55875	1.25880
3492.63018	1.26238
3490.70162	1.26809
3488.77305	1.27416
3486.84449	1.28007
3484.91592	1.28500
3482.98736	1.28696
3481.05879	1.28759
3479.13023	1.28940
3477.20167	1.29309
3475.27310	1.29808
3473.34454	1.30251
3471.41597	1.30425
3469.48741	1.30399
3467.55884	1.30524
3465.63028	1.30965
3463.70171	1.31714
3461.77315	1.32568
3459.84459	1.33161
3457.91602	1.33452
3455.98746	1.33560
3454.05889	1.33565
3452.13033	1.33492
3450.20176	1.33418
3448.27320	1.33656
3446.34464	1.34078
3444.41607	1.34241
3442.48751	1.34372
3440.55894	1.34483
3438.63038	1.34285
3436.70181	1.34147
3434.77325	1.34452
3432.84468	1.34922
3430.91612	1.35254
3428.98756	1.35741
3427.05899	1.36542
3425.13043	1.37102
3423.20186	1.37080
3421.27330	1.36523
3419.34473	1.35595
3417.41617	1.35062
3415.48760	1.35405
3413.55904	1.35981
3411.63048	1.36334
3409.70191	1.36837
3407.77335	1.37348
3405.84478	1.37369
3403.91622	1.37036
3401.98765	1.36625
3400.05909	1.36250
3398.13052	1.36200
3396.20196	1.36568
3394.27340	1.37186
3392.34483	1.37992
3390.41627	1.38660
3388.48770	1.38875
3386.55914	1.39005
3384.63057	1.39217
3382.70201	1.39029
3380.77344	1.38726
3378.84488	1.38981
3376.91632	1.39329
3374.98775	1.39202
3373.05919	1.38988
3371.13062	1.39027
3369.20206	1.39183
3367.27349	1.39452
3365.34493	1.39785
3363.41636	1.39842
3361.48780	1.39698
3359.55924	1.39676
3357.63067	1.39817
3355.70211	1.40009
3353.77354	1.40103
3351.84498	1.40215
3349.91641	1.40617
3347.98785	1.41155
3346.05928	1.41510
3344.13072	1.41692
3342.20216	1.41700
3340.27359	1.41461
3338.34503	1.41362
3336.41646	1.42013
3334.48790	1.43142
3332.55933	1.43557
3330.63077	1.43162
3328.70220	1.42998
3326.77364	1.42989
3324.84508	1.42675
3322.91651	1.42661
3320.98795	1.43201
3319.05938	1.43772
3317.13082	1.44135
3315.20225	1.44491
3313.27369	1.44855
3311.34513	1.44718
3309.41656	1.44230
3307.48800	1.44157
3305.55943	1.44360
3303.63087	1.44568
3301.70230	1.45136
3299.77374	1.45892
3297.84517	1.46151
3295.91661	1.45918
3293.98805	1.45664
3292.05948	1.45460
3290.13092	1.45228
3288.20235	1.45007
3286.27379	1.44993
3284.34522	1.45427
3282.41666	1.45964
3280.48809	1.46093
3278.55953	1.45893
3276.63097	1.45374
3274.70240	1.44505
3272.77384	1.43728
3270.84527	1.43282
3268.91671	1.43045
3266.98814	1.43232
3265.05958	1.44122
3263.13101	1.45085
3261.20245	1.45079
3259.27389	1.44252
3257.34532	1.43566
3255.41676	1.43278
3253.48819	1.43047
3251.55963	1.42655
3249.63106	1.41981
3247.70250	1.41153
3245.77393	1.40556
3243.84537	1.40244
3241.91681	1.39969
3239.98824	1.39707
3238.05968	1.39676
3236.13111	1.39779
3234.20255	1.39726
3232.27398	1.39382
3230.34542	1.38741
3228.41685	1.38211
3226.48829	1.37977
3224.55973	1.37676
3222.63116	1.37393
3220.70260	1.37626
3218.77403	1.38140
3216.84547	1.38068
3214.91690	1.37568
3212.98834	1.37296
3211.05977	1.36943
3209.13121	1.36265
3207.20265	1.35592
3205.27408	1.35051
3203.34552	1.34710
3201.41695	1.34717
3199.48839	1.34828
3197.55982	1.34705
3195.63126	1.34518
3193.70269	1.34315
3191.77413	1.33929
3189.84557	1.33470
3187.91700	1.33041
3185.98844	1.32784
3184.05987	1.32781
3182.13131	1.32850
3180.20274	1.33053
3178.27418	1.33155
3176.34562	1.32448
3174.41705	1.31395
3172.48849	1.30890
3170.55992	1.30671
3168.63136	1.30417
3166.70279	1.30466
3164.77423	1.30685
3162.84566	1.30480
3160.91710	1.30051
3158.98854	1.29863
3157.05997	1.29623
3155.13141	1.29220
3153.20284	1.28942
3151.27428	1.28739
3149.34571	1.28528
3147.41715	1.28325
3145.48858	1.28035
3143.56002	1.27666
3141.63146	1.27453
3139.70289	1.27525
3137.77433	1.27620
3135.84576	1.27508
3133.91720	1.27305
3131.98863	1.27076
3130.06007	1.26870
3128.13150	1.26920
3126.20294	1.27177
3124.27438	1.27202
3122.34581	1.26731
3120.41725	1.26144
3118.48868	1.26110
3116.56012	1.26499
3114.63155	1.26690
3112.70299	1.26715
3110.77442	1.26665
3108.84586	1.26480
3106.91730	1.26522
3104.98873	1.26774
3103.06017	1.26775
3101.13160	1.26598
3099.20304	1.26494
3097.27447	1.26239
3095.34591	1.25755
3093.41734	1.25598
3091.48878	1.26075
3089.56022	1.26745
3087.63165	1.27027
3085.70309	1.26709
3083.77452	1.26165
3081.84596	1.25770
3079.91739	1.25380
3077.98883	1.25035
3076.06026	1.24908
3074.13170	1.24725
3072.20314	1.24373
3070.27457	1.24189
3068.34601	1.24158
3066.41744	1.23820
3064.48888	1.23300
3062.56031	1.23064
3060.63175	1.22916
3058.70318	1.22550
3056.77462	1.22146
3054.84606	1.21791
3052.91749	1.21323
3050.98893	1.20786
3049.06036	1.20369
3047.13180	1.20104
3045.20323	1.19910
3043.27467	1.19632
3041.34610	1.19177
3039.41754	1.18721
3037.48898	1.18335
3035.56041	1.17975
3033.63185	1.17900
3031.70328	1.18032
3029.77472	1.17794
3027.84615	1.17242
3025.91759	1.16874
3023.98903	1.16681
3022.06046	1.16385
3020.13190	1.16004
3018.20333	1.15784
3016.27477	1.15743
3014.34620	1.15657
3012.41764	1.15530
3010.48907	1.15445
3008.56051	1.15206
3006.63195	1.14793
3004.70338	1.14477
3002.77482	1.14322
3000.84625	1.14317
2998.91769	1.14543
2996.98912	1.14791
2995.06056	1.14886
2993.13199	1.15068
2991.20343	1.15416
2989.27487	1.15824
2987.34630	1.16365
2985.41774	1.17029
2983.48917	1.17666
2981.56061	1.18409
2979.63204	1.19472
2977.70348	1.20551
2975.77491	1.21193
2973.84635	1.21575
2971.91779	1.22102
2969.98922	1.22760
2968.06066	1.23395
2966.13209	1.23977
2964.20353	1.24524
2962.27496	1.25116
2960.34640	1.25611
2958.41783	1.25575
2956.48927	1.24984
2954.56071	1.24324
2952.63214	1.23911
2950.70358	1.23653
2948.77501	1.23470
2946.84645	1.23481
2944.91788	1.23673
2942.98932	1.23976
2941.06075	1.24579
2939.13219	1.25537
2937.20363	1.26543
2935.27506	1.27295
2933.34650	1.27796
2931.41793	1.28222
2929.48937	1.28646
2927.56080	1.29163
2925.63224	1.29785
2923.70367	1.30248
2921.77511	1.30399
2919.84655	1.30231
2917.91798	1.29698
2915.98942	1.28600
2914.06085	1.26776
2912.13229	1.24762
2910.20372	1.23201
2908.27516	1.22085
2906.34659	1.21220
2904.41803	1.20482
2902.48947	1.19752
2900.56090	1.19080
2898.63234	1.18580
2896.70377	1.18234
2894.77521	1.17932
2892.84664	1.17688
2890.91808	1.17576
2888.98952	1.17460
2887.06095	1.17231
2885.13239	1.17008
2883.20382	1.16935
2881.27526	1.16983
2879.34669	1.17070
2877.41813	1.17189
2875.48956	1.17116
2873.56100	1.16725
2871.63244	1.16218
2869.70387	1.15610
2867.77531	1.14905
2865.84674	1.14301
2863.91818	1.13901
2861.98961	1.13781
2860.06105	1.14006
2858.13248	1.14412
2856.20392	1.14882
2854.27536	1.15587
2852.34679	1.16433
2850.41823	1.16640
2848.48966	1.15347
2846.56110	1.12767
2844.63253	1.10045
2842.70397	1.07884
2840.77540	1.06233
2838.84684	1.04961
2836.91828	1.04091
2834.98971	1.03534
2833.06115	1.03125
2831.13258	1.02773
2829.20402	1.02299
2827.27545	1.01742
2825.34689	1.01437
2823.41832	1.01312
2821.48976	1.01008
2819.56120	1.00546
2817.63263	1.00153
2815.70407	0.99892
2813.77550	0.99671
2811.84694	0.99399
2809.91837	0.99173
2807.98981	0.99074
2806.06124	0.98917
2804.13268	0.98560
2802.20412	0.98128
2800.27555	0.97743
2798.34699	0.97367
2796.41842	0.97038
2794.48986	0.96830
2792.56129	0.96670
2790.63273	0.96500
2788.70416	0.96288
2786.77560	0.96016
2784.84704	0.95808
2782.91847	0.95721
2780.98991	0.95557
2779.06134	0.95164
2777.13278	0.94723
2775.20421	0.94417
2773.27565	0.94205
2771.34708	0.94014
2769.41852	0.93797
2767.48996	0.93593
2765.56139	0.93504
2763.63283	0.93432
2761.70426	0.93274
2759.77570	0.93149
2757.84713	0.93094
2755.91857	0.93013
2753.99001	0.92914
2752.06144	0.92839
2750.13288	0.92733
2748.20431	0.92541
2746.27575	0.92309
2744.34718	0.92149
2742.41862	0.92066
2740.49005	0.91937
2738.56149	0.91732
2736.63293	0.91528
2734.70436	0.91329
2732.77580	0.91094
2730.84723	0.90826
2728.91867	0.90562
2726.99010	0.90326
2725.06154	0.90096
2723.13297	0.89834
2721.20441	0.89544
2719.27585	0.89304
2717.34728	0.89150
2715.41872	0.88991
2713.49015	0.88762
2711.56159	0.88497
2709.63302	0.88240
2707.70446	0.87995
2705.77589	0.87752
2703.84733	0.87567
2701.91877	0.87492
2699.99020	0.87413
2698.06164	0.87226
2696.13307	0.87040
2694.20451	0.86973
2692.27594	0.86972
2690.34738	0.86953
2688.41881	0.86888
2686.49025	0.86812
2684.56169	0.86760
2682.63312	0.86676
2680.70456	0.86535
2678.77599	0.86383
2676.84743	0.86196
2674.91886	0.85958
2672.99030	0.85702
2671.06173	0.85439
2669.13317	0.85194
2667.20461	0.84979
2665.27604	0.84770
2663.34748	0.84560
2661.41891	0.84376
2659.49035	0.84209
2657.56178	0.84032
2655.63322	0.83866
2653.70465	0.83725
2651.77609	0.83607
2649.84753	0.83502
2647.91896	0.83387
2645.99040	0.83268
2644.06183	0.83185
2642.13327	0.83187
2640.20470	0.83237
2638.27614	0.83251
2636.34757	0.83269
2634.41901	0.83296
2632.49045	0.83239
2630.56188	0.83120
2628.63332	0.83040
2626.70475	0.83026
2624.77619	0.83031
2622.84762	0.82994
2620.91906	0.82875
2618.99049	0.82685
2617.06193	0.82490
2615.13337	0.82348
2613.20480	0.82262
2611.27624	0.82161
2609.34767	0.81992
2607.41911	0.81779
2605.49054	0.81540
2603.56198	0.81303
2601.63342	0.81101
2599.70485	0.80921
2597.77629	0.80730
2595.84772	0.80536
2593.91916	0.80380
2591.99059	0.80279
2590.06203	0.80209
2588.13346	0.80119
2586.20490	0.80019
2584.27634	0.79992
2582.34777	0.80049
2580.41921	0.80106
2578.49064	0.80150
2576.56208	0.80217
2574.63351	0.80266
2572.70495	0.80273
2570.77638	0.80273
2568.84782	0.80323
2566.91926	0.80429
2564.99069	0.80483
2563.06213	0.80440
2561.13356	0.80374
2559.20500	0.80317
2557.27643	0.80268
2555.34787	0.80205
2553.41930	0.80100
2551.49074	0.79937
2549.56218	0.79748
2547.63361	0.79598
2545.70505	0.79479
2543.77648	0.79340
2541.84792	0.79180
2539.91935	0.79057
2537.99079	0.78952
2536.06222	0.78788
2534.13366	0.78624
2532.20510	0.78529
2530.27653	0.78425
2528.34797	0.78278
2526.41940	0.78144
2524.49084	0.78022
2522.56227	0.77904
2520.63371	0.77819
2518.70514	0.77794
2516.77658	0.77825
2514.84802	0.77828
2512.91945	0.77751
2510.99089	0.77654
2509.06232	0.77603
2507.13376	0.77569
2505.20519	0.77504
2503.27663	0.77446
2501.34806	0.77441
2499.41950	0.77437
2497.49094	0.77365
2495.56237	0.77248
2493.63381	0.77146
2491.70524	0.77056
2489.77668	0.76971
2487.84811	0.76896
2485.91955	0.76807
2483.99098	0.76699
2482.06242	0.76598
2480.13386	0.76498
2478.20529	0.76346
2476.27673	0.76161
2474.34816	0.76016
2472.41960	0.75891
2470.49103	0.75742
2468.56247	0.75606
2466.63391	0.75504
2464.70534	0.75403
2462.77678	0.75292
2460.84821	0.75165
2458.91965	0.75030
2456.99108	0.74903
2455.06252	0.74763
2453.13395	0.74606
2451.20539	0.74476
2449.27683	0.74356
2447.34826	0.74202
2445.41970	0.74015
2443.49113	0.73816
2441.56257	0.73644
2439.63400	0.73532
2437.70544	0.73434
2435.77687	0.73306
2433.84831	0.73166
2431.91975	0.73051
2429.99118	0.72993
2428.06262	0.72964
2426.13405	0.72920
2424.20549	0.72866
2422.27692	0.72790
2420.34836	0.72685
2418.41979	0.72611
2416.49123	0.72581
2414.56267	0.72543
2412.63410	0.72495
2410.70554	0.72451
2408.77697	0.72393
2406.84841	0.72314
2404.91984	0.72218
2402.99128	0.72123
2401.06271	0.72070
2399.13415	0.72030
2397.20559	0.71931
2395.27702	0.71761
2393.34846	0.71537
2391.41989	0.71307
2389.49133	0.71132
2387.56276	0.70991
2385.63420	0.70824
2383.70563	0.70610
2381.77707	0.70414
2379.84851	0.70320
2377.91994	0.70283
2375.99138	0.70206
2374.06281	0.70146
2372.13425	0.70207
2370.20568	0.70295
2368.27712	0.70302
2366.34855	0.70337
2364.41999	0.70423
2362.49143	0.70539
2360.56286	0.70782
2358.63430	0.70925
2356.70573	0.70789
2354.77717	0.70694
2352.84860	0.70602
2350.92004	0.70266
2348.99147	0.69840
2347.06291	0.69578
2345.13435	0.69584
2343.20578	0.69678
2341.27722	0.69775
2339.34865	0.69910
2337.42009	0.69874
2335.49152	0.69740
2333.56296	0.69716
2331.63440	0.69690
2329.70583	0.69575
2327.77727	0.69500
2325.84870	0.69409
2323.92014	0.69201
2321.99157	0.68984
2320.06301	0.68776
2318.13444	0.68510
2316.20588	0.68283
2314.27732	0.68144
2312.34875	0.68026
2310.42019	0.67925
2308.49162	0.67843
2306.56306	0.67750
2304.63449	0.67613
2302.70593	0.67440
2300.77736	0.67296
2298.84880	0.67199
2296.92024	0.67131
2294.99167	0.67104
2293.06311	0.67061
2291.13454	0.66946
2289.20598	0.66795
2287.27741	0.66659
2285.34885	0.66547
2283.42028	0.66441
2281.49172	0.66337
2279.56316	0.66244
2277.63459	0.66147
2275.70603	0.66028
2273.77746	0.65902
2271.84890	0.65768
2269.92033	0.65635
2267.99177	0.65508
2266.06320	0.65370
2264.13464	0.65259
2262.20608	0.65218
2260.27751	0.65200
2258.34895	0.65153
2256.42038	0.65095
2254.49182	0.65053
2252.56325	0.65012
2250.63469	0.64955
2248.70612	0.64891
2246.77756	0.64843
2244.84900	0.64818
2242.92043	0.64807
2240.99187	0.64794
2239.06330	0.64789
2237.13474	0.64794
2235.20617	0.64738
2233.27761	0.64627
2231.34904	0.64568
2229.42048	0.64558
2227.49192	0.64512
2225.56335	0.64412
2223.63479	0.64276
2221.70622	0.64125
2219.77766	0.64004
2217.84909	0.63913
2215.92053	0.63794
2213.99196	0.63642
2212.06340	0.63495
2210.13484	0.63355
2208.20627	0.63210
2206.27771	0.63076
2204.34914	0.62961
2202.42058	0.62847
2200.49201	0.62727
2198.56345	0.62610
2196.63488	0.62509
2194.70632	0.62426
2192.77776	0.62356
2190.84919	0.62297
2188.92063	0.62246
2186.99206	0.62195
2185.06350	0.62167
2183.13493	0.62163
2181.20637	0.62144
2179.27781	0.62123
2177.34924	0.62124
2175.42068	0.62122
2173.49211	0.62092
2171.56355	0.62053
2169.63498	0.62031
2167.70642	0.62024
2165.77785	0.62021
2163.84929	0.62005
2161.92073	0.61973
2159.99216	0.61917
2158.06360	0.61834
2156.13503	0.61734
2154.20647	0.61632
2152.27790	0.61537
2150.34934	0.61418
2148.42077	0.61258
2146.49221	0.61111
2144.56365	0.61007
2142.63508	0.60908
2140.70652	0.60786
2138.77795	0.60652
2136.84939	0.60527
2134.92082	0.60415
2132.99226	0.60299
2131.06369	0.60168
2129.13513	0.60046
2127.20657	0.59941
2125.27800	0.59838
2123.34944	0.59746
2121.42087	0.59676
2119.49231	0.59607
2117.56374	0.59535
2115.63518	0.59461
2113.70661	0.59374
2111.77805	0.59284
2109.84949	0.59208
2107.92092	0.59136
2105.99236	0.59065
2104.06379	0.59014
2102.13523	0.58954
2100.20666	0.58858
2098.27810	0.58764
2096.34953	0.58702
2094.42097	0.58661
2092.49241	0.58622
2090.56384	0.58571
2088.63528	0.58485
2086.70671	0.58386
2084.77815	0.58312
2082.84958	0.58246
2080.92102	0.58184
2078.99245	0.58141
2077.06389	0.58092
2075.13533	0.58009
2073.20676	0.57915
2071.27820	0.57831
2069.34963	0.57743
2067.42107	0.57626
2065.49250	0.57496
2063.56394	0.57363
2061.63537	0.57209
2059.70681	0.57052
2057.77825	0.56908
2055.84968	0.56761
2053.92112	0.56601
2051.99255	0.56436
2050.06399	0.56296
2048.13542	0.56170
2046.20686	0.56018
2044.27830	0.55858
2042.34973	0.55725
2040.42117	0.55596
2038.49260	0.55451
2036.56404	0.55309
2034.63547	0.55185
2032.70691	0.55060
2030.77834	0.54926
2028.84978	0.54803
2026.92122	0.54702
2024.99265	0.54589
2023.06409	0.54449
2021.13552	0.54302
2019.20696	0.54172
2017.27839	0.54058
2015.34983	0.53926
2013.42126	0.53762
2011.49270	0.53599
2009.56414	0.53456
2007.63557	0.53327
2005.70701	0.53198
2003.77844	0.53059
2001.84988	0.52915
1999.92131	0.52772
1997.99275	0.52630
1996.06418	0.52470
1994.13562	0.52328
1992.20706	0.52257
1990.27849	0.52200
1988.34993	0.52100
1986.42136	0.51984
1984.49280	0.51867
1982.56423	0.51743
1980.63567	0.51606
1978.70710	0.51461
1976.77854	0.51312
1974.84998	0.51150
1972.92141	0.50975
1970.99285	0.50799
1969.06428	0.50642
1967.13572	0.50520
1965.20715	0.50370
1963.27859	0.50171
1961.35002	0.49995
1959.42146	0.49858
1957.49290	0.49747
1955.56433	0.49665
1953.63577	0.49572
1951.70720	0.49453
1949.77864	0.49353
1947.85007	0.49283
1945.92151	0.49215
1943.99294	0.49186
1942.06438	0.49212
1940.13582	0.49180
1938.20725	0.49087
1936.27869	0.49019
1934.35012	0.48974
1932.42156	0.48932
1930.49299	0.48889
1928.56443	0.48844
1926.63586	0.48780
1924.70730	0.48746
1922.77874	0.48777
1920.85017	0.48765
1918.92161	0.48750
1916.99304	0.48805
1915.06448	0.48785
1913.13591	0.48687
1911.20735	0.48637
1909.27878	0.48653
1907.35022	0.48633
1905.42166	0.48537
1903.49309	0.48431
1901.56453	0.48337
1899.63596	0.48230
1897.70740	0.48120
1895.77883	0.48039
1893.85027	0.47948
1891.92171	0.47817
1889.99314	0.47741
1888.06458	0.47700
1886.13601	0.47608
1884.20745	0.47520
1882.27888	0.47451
1880.35032	0.47381
1878.42175	0.47330
1876.49319	0.47285
1874.56463	0.47207
1872.63606	0.47078
1870.70750	0.47000
1868.77893	0.47136
1866.85037	0.47271
1864.92180	0.47186
1862.99324	0.47067
1861.06467	0.47023
1859.13611	0.47022
1857.20755	0.47020
1855.27898	0.47006
1853.35042	0.46964
1851.42185	0.46881
1849.49329	0.46792
1847.56472	0.46725
1845.63616	0.46738
1843.70759	0.46845
1841.77903	0.46791
1839.85047	0.46588
1837.92190	0.46437
1835.99334	0.46338
1834.06477	0.46167
1832.13621	0.45987
1830.20764	0.45948
1828.27908	0.45928
1826.35051	0.45812
1824.42195	0.45729
1822.49339	0.45632
1820.56482	0.45478
1818.63626	0.45369
1816.70769	0.45315
1814.77913	0.45249
1812.85056	0.45203
1810.92200	0.45256
1808.99343	0.45334
1807.06487	0.45336
1805.13631	0.45293
1803.20774	0.45280
1801.27918	0.45390
1799.35061	0.45540
1797.42205	0.45556
1795.49348	0.45489
1793.56492	0.45567
1791.63635	0.45906
1789.70779	0.46071
1787.77923	0.46011
1785.85066	0.46010
1783.92210	0.46100
1781.99353	0.46201
1780.06497	0.46315
1778.13640	0.46353
1776.20784	0.46277
1774.27927	0.46284
1772.35071	0.46607
1770.42215	0.46920
1768.49358	0.46982
1766.56502	0.46963
1764.63645	0.46952
1762.70789	0.47179
1760.77932	0.47656
1758.85076	0.48073
1756.92220	0.48612
1754.99363	0.49188
1753.06507	0.49673
1751.13650	0.50533
1749.20794	0.51937
1747.27937	0.53160
1745.35081	0.54045
1743.42224	0.54857
1741.49368	0.55721
1739.56512	0.56605
1737.63655	0.57135
1735.70799	0.57507
1733.77942	0.58492
1731.85086	0.59403
1729.92229	0.59820
1727.99373	0.60216
1726.06516	0.60642
1724.13660	0.61249
1722.20804	0.61887
1720.27947	0.62399
1718.35091	0.63455
1716.42234	0.65661
1714.49378	0.67463
1712.56521	0.68771
1710.63665	0.70266
1708.70808	0.72141
1706.77952	0.74992
1704.85096	0.78835
1702.92239	0.82219
1700.99383	0.86635
1699.06526	0.93559
1697.13670	0.99586
1695.20813	1.04765
1693.27957	1.08199
1691.35100	1.10597
1689.42244	1.13388
1687.49388	1.15734
1685.56531	1.17810
1683.63675	1.20912
1681.70818	1.22772
1679.77962	1.23292
1677.85105	1.23590
1675.92249	1.24127
1673.99392	1.24707
1672.06536	1.24867
1670.13680	1.24901
1668.20823	1.25168
1666.27967	1.25193
1664.35110	1.25088
1662.42254	1.25102
1660.49397	1.25085
1658.56541	1.24962
1656.63684	1.24710
1654.70828	1.24540
1652.77972	1.24612
1650.85115	1.24368
1648.92259	1.24128
1646.99402	1.24090
1645.06546	1.23886
1643.13689	1.23505
1641.20833	1.23214
1639.27976	1.22918
1637.35120	1.22680
1635.42264	1.22788
1633.49407	1.22747
1631.56551	1.22431
1629.63694	1.22048
1627.70838	1.21653
1625.77981	1.21124
1623.85125	1.20464
1621.92269	1.19715
1619.99412	1.18873
1618.06556	1.17795
1616.13699	1.16230
1614.20843	1.14677
1612.27986	1.13260
1610.35130	1.11804
1608.42273	1.10341
1606.49417	1.09004
1604.56561	1.07941
1602.63704	1.07213
1600.70848	1.06771
1598.77991	1.06455
1596.85135	1.06272
1594.92278	1.06264
1592.99422	1.06317
1591.06565	1.06425
1589.13709	1.06703
1587.20853	1.07193
1585.27996	1.07795
1583.35140	1.08468
1581.42283	1.09181
1579.49427	1.09836
1577.56570	1.10719
1575.63714	1.12078
1573.70857	1.12812
1571.78001	1.13076
1569.85145	1.13809
1567.92288	1.14869
1565.99432	1.15633
1564.06575	1.16242
1562.13719	1.16527
1560.20862	1.16843
1558.28006	1.18296
1556.35149	1.18976
1554.42293	1.19011
1552.49437	1.19096
1550.56580	1.19205
1548.63724	1.19150
1546.70867	1.18925
1544.78011	1.18720
1542.85154	1.18603
1540.92298	1.18350
1538.99441	1.17665
1537.06585	1.17008
1535.13729	1.16478
1533.20872	1.16130
1531.28016	1.15843
1529.35159	1.15461
1527.42303	1.15030
1525.49446	1.14577
1523.56590	1.14197
1521.63733	1.14086
1519.70877	1.14132
1517.78021	1.13902
1515.85164	1.13342
1513.92308	1.12535
1511.99451	1.11557
1510.06595	1.10529
1508.13738	1.09265
1506.20882	1.07338
1504.28025	1.05861
1502.35169	1.04679
1500.42313	1.03441
1498.49456	1.01962
1496.56600	1.00059
1494.63743	0.98270
1492.70887	0.96889
1490.78030	0.95495
1488.85174	0.93837
1486.92317	0.92408
1484.99461	0.91382
1483.06605	0.90693
1481.13748	0.90350
1479.20892	0.90327
1477.28035	0.90606
1475.35179	0.91305
1473.42322	0.92765
1471.49466	0.94408
1469.56610	0.95097
1467.63753	0.95400
1465.70897	0.95987
1463.78040	0.96741
1461.85184	0.97035
1459.92327	0.97061
1457.99471	0.97563
1456.06614	0.98546
1454.13758	0.98701
1452.20902	0.98466
1450.28045	0.98201
1448.35189	0.97965
1446.42332	0.97678
1444.49476	0.97298
1442.56619	0.96828
1440.63763	0.96275
1438.70906	0.95682
1436.78050	0.95042
1434.85194	0.94330
1432.92337	0.93601
1430.99481	0.92931
1429.06624	0.92412
1427.13768	0.92048
1425.20911	0.91882
1423.28055	0.91942
1421.35198	0.92089
1419.42342	0.92468
1417.49486	0.93023
1415.56629	0.93211
1413.63773	0.93217
1411.70916	0.93320
1409.78060	0.93525
1407.85203	0.93734
1405.92347	0.94028
1403.99490	0.94394
1402.06634	0.94600
1400.13778	0.94717
1398.20921	0.94841
1396.28065	0.94923
1394.35208	0.95000
1392.42352	0.95010
1390.49495	0.94998
1388.56639	0.95269
1386.63782	0.95935
1384.70926	0.96564
1382.78070	0.96994
1380.85213	0.97256
1378.92357	0.97200
1376.99500	0.96759
1375.06644	0.96024
1373.13787	0.95097
1371.20931	0.94082
1369.28074	0.92960
1367.35218	0.91780
1365.42362	0.90702
1363.49505	0.89760
1361.56649	0.89042
1359.63792	0.88581
1357.70936	0.88286
1355.78079	0.88155
1353.85223	0.88184
1351.92366	0.88290
1349.99510	0.88406
1348.06654	0.88546
1346.13797	0.88733
1344.20941	0.88924
1342.28084	0.89106
1340.35228	0.89469
1338.42371	0.90081
1336.49515	0.90654
1334.56659	0.91165
1332.63802	0.91775
1330.70946	0.92486
1328.78089	0.93141
1326.85233	0.93607
1324.92376	0.93924
1322.99520	0.94207
1321.06663	0.94517
1319.13807	0.94860
1317.20951	0.95165
1315.28094	0.95379
1313.35238	0.95555
1311.42381	0.95675
1309.49525	0.95671
1307.56668	0.95582
1305.63812	0.95479
1303.70955	0.95353
1301.78099	0.95162
1299.85243	0.94941
1297.92386	0.94742
1295.99530	0.94533
1294.06673	0.94309
1292.13817	0.94158
1290.20960	0.94127
1288.28104	0.94146
1286.35247	0.94142
1284.42391	0.94151
1282.49535	0.94229
1280.56678	0.94393
1278.63822	0.94625
1276.70965	0.94879
1274.78109	0.95176
1272.85252	0.95591
1270.92396	0.96101
1268.99539	0.96631
1267.06683	0.97150
1265.13827	0.97611
1263.20970	0.97964
1261.28114	0.98193
1259.35257	0.98298
1257.42401	0.98347
1255.49544	0.98439
1253.56688	0.98566
1251.63831	0.98650
1249.70975	0.98679
1247.78119	0.98661
1245.85262	0.98598
1243.92406	0.98490
1241.99549	0.98279
1240.06693	0.97949
1238.13836	0.97561
1236.20980	0.97109
1234.28123	0.96551
1232.35267	0.95908
1230.42411	0.95227
1228.49554	0.94501
1226.56698	0.93704
1224.63841	0.92835
1222.70985	0.91912
1220.78128	0.91000
1218.85272	0.90188
1216.92415	0.89538
1214.99559	0.89087
1213.06703	0.88869
1211.13846	0.88862
1209.20990	0.88976
1207.28133	0.89060
1205.35277	0.88958
1203.42420	0.88668
1201.49564	0.88307
1199.56708	0.87939
1197.63851	0.87585
1195.70995	0.87306
1193.78138	0.87171
1191.85282	0.87211
1189.92425	0.87384
1187.99569	0.87615
1186.06712	0.87914
1184.13856	0.88316
1182.21000	0.88817
1180.28143	0.89428
1178.35287	0.90112
1176.42430	0.90799
1174.49574	0.91486
1172.56717	0.92178
1170.63861	0.92877
1168.71004	0.93638
1166.78148	0.94494
1164.85292	0.95330
1162.92435	0.95937
1160.99579	0.96205
1159.06722	0.96158
1157.13866	0.95817
1155.21009	0.95209
1153.28153	0.94420
1151.35296	0.93535
1149.42440	0.92656
1147.49584	0.91960
1145.56727	0.91616
1143.63871	0.91666
1141.71014	0.92099
1139.78158	0.92935
1137.85301	0.94087
1135.92445	0.95404
1133.99588	0.96880
1132.06732	0.98576
1130.13876	1.00426
1128.21019	1.02282
1126.28163	1.04001
1124.35306	1.05412
1122.42450	1.06429
1120.49593	1.07120
1118.56737	1.07533
1116.63880	1.07619
1114.71024	1.07401
1112.78168	1.06990
1110.85311	1.06456
1108.92455	1.05958
1106.99598	1.05630
1105.06742	1.05362
1103.13885	1.05140
1101.21029	1.05111
1099.28172	1.05300
1097.35316	1.05663
1095.42460	1.06236
1093.49603	1.07081
1091.56747	1.08106
1089.63890	1.09135
1087.71034	1.10138
1085.78177	1.11139
1083.85321	1.11988
1081.92464	1.12448
1079.99608	1.12478
1078.06752	1.12206
1076.13895	1.11723
1074.21039	1.11132
1072.28182	1.10553
1070.35326	1.09993
1068.42469	1.09428
1066.49613	1.08873
1064.56756	1.08310
1062.63900	1.07695
1060.71044	1.07056
1058.78187	1.06431
1056.85331	1.05762
1054.92474	1.05057
1052.99618	1.04466
1051.06761	1.04106
1049.13905	1.03951
1047.21049	1.03880
1045.28192	1.03864
1043.35336	1.03934
1041.42479	1.03991
1039.49623	1.03970
1037.56766	1.03914
1035.63910	1.03772
1033.71053	1.03435
1031.78197	1.02860
1029.85341	1.02129
1027.92484	1.01374
1025.99628	1.00656
1024.06771	1.00067
1022.13915	0.99688
1020.21058	0.99436
1018.28202	0.99174
1016.35345	0.98813
1014.42489	0.98296
1012.49633	0.97601
1010.56776	0.96757
1008.63920	0.95860
1006.71063	0.94972
1004.78207	0.94074
1002.85350	0.93230
1000.92494	0.92556
998.99637	0.92040
997.06781	0.91571
995.13925	0.91086
993.21068	0.90524
991.28212	0.89787
989.35355	0.88868
987.42499	0.87865
985.49642	0.86860
983.56786	0.85881
981.63929	0.84958
979.71073	0.84127
977.78217	0.83345
975.85360	0.82500
973.92504	0.81533
971.99647	0.80500
970.06791	0.79495
968.13934	0.78594
966.21078	0.77928
964.28221	0.77657
962.35365	0.77882
960.42509	0.78653
958.49652	0.79880
956.56796	0.81160
954.63939	0.82031
952.71083	0.82389
950.78226	0.82399
948.85370	0.82269
946.92513	0.82213
944.99657	0.82323
943.06801	0.82498
941.13944	0.82622
939.21088	0.82663
937.28231	0.82569
935.35375	0.82311
933.42518	0.81949
931.49662	0.81509
929.56805	0.80993
927.63949	0.80431
925.71093	0.79849
923.78236	0.79291
921.85380	0.78770
919.92523	0.78221
917.99667	0.77665
916.06810	0.77209
914.13954	0.76887
912.21098	0.76727
910.28241	0.76832
908.35385	0.77279
906.42528	0.78021
904.49672	0.78942
902.56815	0.79951
900.63959	0.80989
898.71102	0.81983
896.78246	0.82871
894.85390	0.83685
892.92533	0.84534
890.99677	0.85463
889.06820	0.86424
887.13964	0.87371
885.21107	0.88273
883.28251	0.89050
881.35394	0.89657
879.42538	0.90134
877.49682	0.90443
875.56825	0.90476
873.63969	0.90187
871.71112	0.89644
869.78256	0.88994
867.85399	0.88322
865.92543	0.87620
863.99686	0.86895
862.06830	0.86213
860.13974	0.85677
858.21117	0.85374
856.28261	0.85300
854.35404	0.85420
852.42548	0.85724
850.49691	0.86136
848.56835	0.86580
846.63978	0.87070
844.71122	0.87678
842.78266	0.88420
840.85409	0.89241
838.92553	0.90169
836.99696	0.91225
835.06840	0.92294
833.13983	0.93262
831.21127	0.94093
829.28270	0.94806
827.35414	0.95444
825.42558	0.95987
823.49701	0.96292
821.56845	0.96286
819.63988	0.96136
817.71132	0.95960
815.78275	0.95691
813.85419	0.95248
811.92562	0.94668
809.99706	0.94045
808.06850	0.93448
806.13993	0.92927
804.21137	0.92537
802.28280	0.92273
800.35424	0.92103
798.42567	0.92040
796.49711	0.92096
794.56854	0.92302
792.63998	0.92722
790.71142	0.93367
788.78285	0.94244
786.85429	0.95283
784.92572	0.96325
782.99716	0.97357
781.06859	0.98452
779.14003	0.99553
777.21147	1.00508
775.28290	1.01268
773.35434	1.01914
771.42577	1.02457
769.49721	1.02850
767.56864	1.03080
765.64008	1.03060
763.71151	1.02786
761.78295	1.02476
759.85439	1.02170
757.92582	1.01694
755.99726	1.01103
754.06869	1.00578
752.14013	1.00096
750.21156	0.99595
748.28300	0.99120
746.35443	0.98714
744.42587	0.98362
742.49731	0.98018
740.56874	0.97691
738.64018	0.97474
736.71161	0.97441
734.78305	0.97606
732.85448	0.97975
730.92592	0.98607
728.99735	0.99492
727.06879	1.00490
725.14023	1.01528
723.21166	1.02627
721.28310	1.03833
719.35453	1.04981
717.42597	1.05835
715.49740	1.06614
713.56884	1.07488
711.64027	1.08257
709.71171	1.08921
707.78315	1.09620
705.85458	1.10250
703.92602	1.10645
701.99745	1.10823
700.06889	1.10779
698.14032	1.10504
696.21176	1.10125
694.28319	1.09745
692.35463	1.09475
690.42607	1.09249
688.49750	1.08814
686.56894	1.08303
684.64037	1.07986
682.71181	1.07799
680.78324	1.07541
678.85468	1.07086
676.92611	1.06555
674.99755	1.06206
673.06899	1.06138
671.14042	1.06352
669.21186	1.06895
667.28329	1.07384
665.35473	1.07524
663.42616	1.07680
661.49760	1.07735
659.56903	1.07623
657.64047	1.07609
655.71191	1.07593
653.78334	1.07387
651.85478	1.07131
649.92621	1.06953
647.99765	1.06912
646.06908	1.06917
644.14052	1.06775
642.21195	1.06558
640.28339	1.06473
638.35483	1.06506
636.42626	1.06524
634.49770	1.06375
632.56913	1.05893
630.64057	1.05235
628.71200	1.04729
626.78344	1.04388
624.85488	1.04130
622.92631	1.04116
620.99775	1.04402
619.06918	1.04813
617.14062	1.05378
615.21205	1.06140
613.28349	1.06770
611.35492	1.07041
609.42636	1.07222
607.49780	1.07640
605.56923	1.08106
603.64067	1.08481
601.71210	1.09094
599.78354	1.09876
