3997.91406	0.51263
3995.98550	0.51195
3994.05693	0.51118
3992.12837	0.51023
3990.19980	0.50930
3988.27124	0.50776
3986.34268	0.50604
3984.41411	0.50534
3982.48555	0.50539
3980.55698	0.50535
3978.62842	0.50493
3976.69985	0.50415
3974.77129	0.50343
3972.84272	0.50321
3970.91416	0.50323
3968.98560	0.50286
3967.05703	0.50182
3965.12847	0.50014
3963.19990	0.49871
3961.27134	0.49881
3959.34277	0.49968
3957.41421	0.49976
3955.48564	0.49902
3953.55708	0.49766
3951.62852	0.49591
3949.69995	0.49577
3947.77139	0.49767
3945.84282	0.49850
3943.91426	0.49841
3941.98569	0.49854
3940.05713	0.49788
3938.12856	0.49740
3936.20000	0.49680
3934.27144	0.49458
3932.34287	0.49337
3930.41431	0.49466
3928.48574	0.49411
3926.55718	0.49177
3924.62861	0.49140
3922.70005	0.49146
3920.77148	0.48992
3918.84292	0.49042
3916.91436	0.49383
3914.98579	0.49531
3913.05723	0.49386
3911.12866	0.49134
3909.20010	0.48746
3907.27153	0.48183
3905.34297	0.47731
3903.41440	0.47827
3901.48584	0.48359
3899.55728	0.48975
3897.62871	0.49217
3895.70015	0.48862
3893.77158	0.48384
3891.84302	0.48605
3889.91445	0.49020
3887.98589	0.48687
3886.05733	0.48238
3884.12876	0.48214
3882.20020	0.48233
3880.27163	0.48485
3878.34307	0.48550
3876.41450	0.48101
3874.48594	0.47690
3872.55737	0.47530
3870.62881	0.47691
3868.70025	0.48022
3866.77168	0.47901
3864.84312	0.47856
3862.91455	0.48249
3860.98599	0.48297
3859.05742	0.47846
3857.12886	0.47026
3855.20029	0.46063
3853.27173	0.46636
3851.34317	0.47990
3849.41460	0.48113
3847.48604	0.47708
3845.55747	0.47264
3843.62891	0.46911
3841.70034	0.46566
3839.77178	0.46403
3837.84321	0.46799
3835.91465	0.47166
3833.98609	0.47199
3832.05752	0.47238
3830.12896	0.47262
3828.20039	0.47233
3826.27183	0.47171
3824.34326	0.46707
3822.41470	0.46199
3820.48613	0.46601
3818.55757	0.46930
3816.62901	0.47152
3814.70044	0.47596
3812.77188	0.47535
3810.84331	0.47088
3808.91475	0.46697
3806.98618	0.46716
3805.05762	0.46584
3803.12905	0.46182
3801.20049	0.46561
3799.27193	0.47039
3797.34336	0.47069
3795.41480	0.47087
3793.48623	0.46927
3791.55767	0.46683
3789.62910	0.46503
3787.70054	0.46300
3785.77197	0.46230
3783.84341	0.46206
3781.91485	0.45894
3779.98628	0.45747
3778.05772	0.46044
3776.12915	0.46082
3774.20059	0.45682
3772.27202	0.45197
3770.34346	0.45107
3768.41489	0.45344
3766.48633	0.45521
3764.55777	0.45631
3762.62920	0.45427
3760.70064	0.45106
3758.77207	0.45174
3756.84351	0.45147
3754.91494	0.44548
3752.98638	0.43731
3751.05781	0.43721
3749.12925	0.44241
3747.20069	0.44085
3745.27212	0.44293
3743.34356	0.45129
3741.41499	0.45133
3739.48643	0.44408
3737.55786	0.43638
3735.62930	0.43717
3733.70074	0.44663
3731.77217	0.45122
3729.84361	0.44936
3727.91504	0.44578
3725.98648	0.44452
3724.05791	0.44597
3722.12935	0.44806
3720.20078	0.44948
3718.27222	0.44839
3716.34366	0.44390
3714.41509	0.43726
3712.48653	0.43498
3710.55796	0.44279
3708.62940	0.44767
3706.70083	0.44642
3704.77227	0.44341
3702.84370	0.44272
3700.91514	0.44600
3698.98658	0.44772
3697.05801	0.44671
3695.12945	0.44494
3693.20088	0.44206
3691.27232	0.43904
3689.34375	0.44339
3687.41519	0.45271
3685.48662	0.45664
3683.55806	0.45624
3681.62950	0.45465
3679.70093	0.45254
3677.77237	0.45019
3675.84380	0.45643
3673.91524	0.46505
3671.98667	0.46530
3670.05811	0.47280
3668.12954	0.48414
3666.20098	0.48672
3664.27242	0.48730
3662.34385	0.48945
3660.41529	0.49123
3658.48672	0.49260
3656.55816	0.49731
3654.62959	0.50091
3652.70103	0.49760
3650.77246	0.49469
3648.84390	0.50965
3646.91534	0.52690
3644.98677	0.53232
3643.05821	0.53472
3641.12964	0.53810
3639.20108	0.54222
3637.27251	0.54639
3635.34395	0.55043
3633.41538	0.55248
3631.48682	0.55166
3629.55826	0.56016
3627.62969	0.58166
3625.70113	0.59053
3623.77256	0.59038
3621.84400	0.59013
3619.91543	0.59700
3617.98687	0.60862
3616.05830	0.61382
3614.12974	0.61791
3612.20118	0.62545
3610.27261	0.63282
3608.34405	0.64165
3606.41548	0.65017
3604.48692	0.65394
3602.55835	0.65727
3600.62979	0.66406
3598.70123	0.67098
3596.77266	0.67591
3594.84410	0.68229
3592.91553	0.68862
3590.98697	0.69072
3589.05840	0.69356
3587.12984	0.70509
3585.20127	0.71760
3583.27271	0.72488
3581.34415	0.73050
3579.41558	0.73581
3577.48702	0.74051
3575.55845	0.74588
3573.62989	0.75159
3571.70132	0.75473
3569.77276	0.75537
3567.84419	0.76104
3565.91563	0.77624
3563.98707	0.78803
3562.05850	0.79449
3560.12994	0.80085
3558.20137	0.80856
3556.27281	0.81527
3554.34424	0.82135
3552.41568	0.82969
3550.48711	0.83729
3548.55855	0.84297
3546.62999	0.85206
3544.70142	0.86388
3542.77286	0.87145
3540.84429	0.87532
3538.91573	0.88000
3536.98716	0.88779
3535.05860	0.89690
3533.13003	0.90364
3531.20147	0.90847
3529.27291	0.91352
3527.34434	0.91896
3525.41578	0.92540
3523.48721	0.93419
3521.55865	0.94379
3519.63008	0.95145
3517.70152	0.95772
3515.77295	0.96443
3513.84439	0.97179
3511.91583	0.97848
3509.98726	0.98520
3508.05870	0.99418
3506.13013	1.00416
3504.20157	1.01540
3502.27300	1.02871
3500.34444	1.03948
3498.41587	1.04605
3496.48731	1.05257
3494.55875	1.06034
3492.63018	1.06691
3490.70162	1.07346
3488.77305	1.07987
3486.84449	1.08329
3484.91592	1.08581
3482.98736	1.09153
3481.05879	1.09970
3479.13023	1.10572
3477.20167	1.10871
3475.27310	1.11008
3473.34454	1.11188
3471.41597	1.11783
3469.48741	1.12672
3467.55884	1.13271
3465.63028	1.13500
3463.70171	1.13682
3461.77315	1.13901
3459.84459	1.14102
3457.91602	1.14274
3455.98746	1.14451
3454.05889	1.14683
3452.13033	1.15187
3450.20176	1.16003
3448.27320	1.16614
3446.34464	1.16774
3444.41607	1.16892
3442.48751	1.17240
3440.55894	1.17684
3438.63038	1.17917
3436.70181	1.17791
3434.77325	1.17525
3432.84468	1.17570
3430.91612	1.17979
3428.98756	1.18417
3427.05899	1.18789
3425.13043	1.19006
3423.20186	1.18946
3421.27330	1.18933
3419.34473	1.19106
3417.41617	1.19063
3415.48760	1.18903
3413.55904	1.18961
3411.63048	1.18983
3409.70191	1.18779
3407.77335	1.18771
3405.84478	1.19149
3403.91622	1.19528
3401.98765	1.19803
3400.05909	1.20064
3398.13052	1.20226
3396.20196	1.20360
3394.27340	1.20486
3392.34483	1.20526
3390.41627	1.20607
3388.48770	1.20817
3386.55914	1.20927
3384.63057	1.21035
3382.70201	1.21534
3380.77344	1.21971
3378.84488	1.21970
3376.91632	1.22134
3374.98775	1.22566
3373.05919	1.22731
3371.13062	1.22640
3369.20206	1.22564
3367.27349	1.22590
3365.34493	1.22767
3363.41636	1.22937
3361.48780	1.23060
3359.55924	1.23507
3357.63067	1.24321
3355.70211	1.24785
3353.77354	1.24538
3351.84498	1.24182
3349.91641	1.24156
3347.98785	1.24350
3346.05928	1.24499
3344.13072	1.24684
3342.20216	1.25221
3340.27359	1.25637
3338.34503	1.25648
3336.41646	1.25892
3334.48790	1.26265
3332.55933	1.26405
3330.63077	1.26672
3328.70220	1.27016
3326.77364	1.27200
3324.84508	1.27699
3322.91651	1.28545
3320.98795	1.28980
3319.05938	1.28802
3317.13082	1.28521
3315.20225	1.28769
3313.27369	1.29628
3311.34513	1.30292
3309.41656	1.30263
3307.48800	1.30135
3305.55943	1.30349
3303.63087	1.30481
3301.70230	1.30385
3299.77374	1.30413
3297.84517	1.30618
3295.91661	1.30941
3293.98805	1.31199
3292.05948	1.31238
3290.13092	1.31379
3288.20235	1.31705
3286.27379	1.31816
3284.34522	1.31672
3282.41666	1.31502
3280.48809	1.31309
3278.55953	1.31119
3276.63097	1.30842
3274.70240	1.30373
3272.77384	1.30130
3270.84527	1.30404
3268.91671	1.30610
3266.98814	1.30196
3265.05958	1.29649
3263.13101	1.29381
3261.20245	1.29078
3259.27389	1.28554
3257.34532	1.27933
3255.41676	1.27372
3253.48819	1.26696
3251.55963	1.25845
3249.63106	1.25205
3247.70250	1.24837
3245.77393	1.24442
3243.84537	1.23788
3241.91681	1.23018
3239.98824	1.22385
3238.05968	1.21802
3236.13111	1.21367
3234.20255	1.21309
3232.27398	1.21408
3230.34542	1.21242
3228.41685	1.20661
3226.48829	1.20066
3224.55973	1.19911
3222.63116	1.19927
3220.70260	1.19671
3218.77403	1.19228
3216.84547	1.18843
3214.91690	1.18583
3212.98834	1.18399
3211.05977	1.18142
3209.13121	1.17627
3207.20265	1.16934
3205.27408	1.16462
3203.34552	1.16306
3201.41695	1.16215
3199.48839	1.15983
3197.55982	1.15494
3195.63126	1.14919
3193.70269	1.14524
3191.77413	1.14189
3189.84557	1.13745
3187.91700	1.13269
3185.98844	1.12772
3184.05987	1.12214
3182.13131	1.11655
3180.20274	1.11215
3178.27418	1.10883
3176.34562	1.10500
3174.41705	1.10085
3172.48849	1.09716
3170.55992	1.09355
3168.63136	1.09022
3166.70279	1.08707
3164.77423	1.08289
3162.84566	1.07772
3160.91710	1.07400
3158.98854	1.07213
3157.05997	1.06925
3155.13141	1.06480
3153.20284	1.06104
3151.27428	1.05898
3149.34571	1.05760
3147.41715	1.05614
3145.48858	1.05472
3143.56002	1.05285
3141.63146	1.05010
3139.70289	1.04787
3137.77433	1.04807
3135.84576	1.04936
3133.91720	1.04929
3131.98863	1.04804
3130.06007	1.04608
3128.13150	1.04381
3126.20294	1.04220
3124.27438	1.04179
3122.34581	1.04249
3120.41725	1.04288
3118.48868	1.04258
3116.56012	1.04267
3114.63155	1.04304
3112.70299	1.04305
3110.77442	1.04210
3108.84586	1.04028
3106.91730	1.03867
3104.98873	1.03759
3103.06017	1.03685
3101.13160	1.03651
3099.20304	1.03645
3097.27447	1.03640
3095.34591	1.03603
3093.41734	1.03529
3091.48878	1.03448
3089.56022	1.03314
3087.63165	1.03084
3085.70309	1.02908
3083.77452	1.02862
3081.84596	1.02774
3079.91739	1.02608
3077.98883	1.02470
3076.06026	1.02359
3074.13170	1.02194
3072.20314	1.01890
3070.27457	1.01482
3068.34601	1.01143
3066.41744	1.00999
3064.48888	1.00901
3062.56031	1.00555
3060.63175	1.00016
3058.70318	0.99558
3056.77462	0.99185
3054.84606	0.98777
3052.91749	0.98334
3050.98893	0.97902
3049.06036	0.97489
3047.13180	0.96983
3045.20323	0.96419
3043.27467	0.95998
3041.34610	0.95644
3039.41754	0.95238
3037.48898	0.94896
3035.56041	0.94622
3033.63185	0.94311
3031.70328	0.93971
3029.77472	0.93616
3027.84615	0.93225
3025.91759	0.92905
3023.98903	0.92774
3022.06046	0.92658
3020.13190	0.92366
3018.20333	0.92092
3016.27477	0.92019
3014.34620	0.91975
3012.41764	0.91862
3010.48907	0.91788
3008.56051	0.91707
3006.63195	0.91545
3004.70338	0.91383
3002.77482	0.91279
3000.84625	0.91242
2998.91769	0.91236
2996.98912	0.91286
2995.06056	0.91495
2993.13199	0.91764
2991.20343	0.92014
2989.27487	0.92401
2987.34630	0.92928
2985.41774	0.93458
2983.48917	0.94007
2981.56061	0.94653
2979.63204	0.95361
2977.70348	0.96008
2975.77491	0.96613
2973.84635	0.97306
2971.91779	0.98118
2969.98922	0.98985
2968.06066	0.99742
2966.13209	1.00290
2964.20353	1.00729
2962.27496	1.01059
2960.34640	1.01184
2958.41783	1.01048
2956.48927	1.00580
2954.56071	0.99911
2952.63214	0.99323
2950.70358	0.98914
2948.77501	0.98692
2946.84645	0.98702
2944.91788	0.98995
2942.98932	0.99690
2941.06075	1.00747
2939.13219	1.01832
2937.20363	1.02841
2935.27506	1.03934
2933.34650	1.04976
2931.41793	1.05751
2929.48937	1.06400
2927.56080	1.07090
2925.63224	1.07781
2923.70367	1.08365
2921.77511	1.08745
2919.84655	1.08838
2917.91798	1.08386
2915.98942	1.07037
2914.06085	1.04986
2912.13229	1.02877
2910.20372	1.01049
2908.27516	0.99461
2906.34659	0.98072
2904.41803	0.97010
2902.48947	0.96327
2900.56090	0.95792
2898.63234	0.95210
2896.70377	0.94670
2894.77521	0.94243
2892.84664	0.93853
2890.91808	0.93484
2888.98952	0.93204
2887.06095	0.93036
2885.13239	0.92938
2883.20382	0.92850
2881.27526	0.92803
2879.34669	0.92912
2877.41813	0.93094
2875.48956	0.93027
2873.56100	0.92676
2871.63244	0.92301
2869.70387	0.91905
2867.77531	0.91338
2865.84674	0.90722
2863.91818	0.90353
2861.98961	0.90380
2860.06105	0.90703
2858.13248	0.91214
2856.20392	0.91937
2854.27536	0.92828
2852.34679	0.93672
2850.41823	0.93942
2848.48966	0.92830
2846.56110	0.90311
2844.63253	0.87471
2842.70397	0.85152
2840.77540	0.83399
2838.84684	0.82022
2836.91828	0.80918
2834.98971	0.80062
2833.06115	0.79428
2831.13258	0.78926
2829.20402	0.78463
2827.27545	0.78054
2825.34689	0.77741
2823.41832	0.77474
2821.48976	0.77174
2819.56120	0.76830
2817.63263	0.76524
2815.70407	0.76250
2813.77550	0.75931
2811.84694	0.75622
2809.91837	0.75404
2807.98981	0.75223
2806.06124	0.74993
2804.13268	0.74717
2802.20412	0.74441
2800.27555	0.74175
2798.34699	0.73954
2796.41842	0.73794
2794.48986	0.73598
2792.56129	0.73310
2790.63273	0.72989
2788.70416	0.72686
2786.77560	0.72397
2784.84704	0.72062
2782.91847	0.71680
2780.98991	0.71342
2779.06134	0.71058
2777.13278	0.70777
2775.20421	0.70484
2773.27565	0.70174
2771.34708	0.69860
2769.41852	0.69576
2767.48996	0.69323
2765.56139	0.69078
2763.63283	0.68813
2761.70426	0.68539
2759.77570	0.68303
2757.84713	0.68106
2755.91857	0.67951
2753.99001	0.67852
2752.06144	0.67750
2750.13288	0.67606
2748.20431	0.67458
2746.27575	0.67321
2744.34718	0.67232
2742.41862	0.67221
2740.49005	0.67225
2738.56149	0.67176
2736.63293	0.67105
2734.70436	0.67036
2732.77580	0.66923
2730.84723	0.66762
2728.91867	0.66617
2726.99010	0.66482
2725.06154	0.66297
2723.13297	0.66083
2721.20441	0.65875
2719.27585	0.65646
2717.34728	0.65400
2715.41872	0.65176
2713.49015	0.64976
2711.56159	0.64776
2709.63302	0.64560
2707.70446	0.64323
2705.77589	0.64081
2703.84733	0.63870
2701.91877	0.63691
2699.99020	0.63489
2698.06164	0.63246
2696.13307	0.63006
2694.20451	0.62806
2692.27594	0.62645
2690.34738	0.62517
2688.41881	0.62435
2686.49025	0.62389
2684.56169	0.62334
2682.63312	0.62266
2680.70456	0.62204
2678.77599	0.62142
2676.84743	0.62068
2674.91886	0.61985
2672.99030	0.61930
2671.06173	0.61925
2669.13317	0.61928
2667.20461	0.61911
2665.27604	0.61864
2663.34748	0.61779
2661.41891	0.61671
2659.49035	0.61553
2657.56178	0.61440
2655.63322	0.61333
2653.70465	0.61231
2651.77609	0.61137
2649.84753	0.61024
2647.91896	0.60890
2645.99040	0.60753
2644.06183	0.60606
2642.13327	0.60484
2640.20470	0.60401
2638.27614	0.60318
2636.34757	0.60205
2634.41901	0.60052
2632.49045	0.59895
2630.56188	0.59790
2628.63332	0.59721
2626.70475	0.59634
2624.77619	0.59519
2622.84762	0.59405
2620.91906	0.59329
2618.99049	0.59276
2617.06193	0.59197
2615.13337	0.59115
2613.20480	0.59087
2611.27624	0.59083
2609.34767	0.59061
2607.41911	0.59017
2605.49054	0.58938
2603.56198	0.58829
2601.63342	0.58748
2599.70485	0.58705
2597.77629	0.58658
2595.84772	0.58572
2593.91916	0.58448
2591.99059	0.58323
2590.06203	0.58201
2588.13346	0.58051
2586.20490	0.57877
2584.27634	0.57693
2582.34777	0.57514
2580.41921	0.57346
2578.49064	0.57172
2576.56208	0.56986
2574.63351	0.56801
2572.70495	0.56618
2570.77638	0.56426
2568.84782	0.56225
2566.91926	0.56045
2564.99069	0.55886
2563.06213	0.55726
2561.13356	0.55566
2559.20500	0.55422
2557.27643	0.55306
2555.34787	0.55198
2553.41930	0.55048
2551.49074	0.54864
2549.56218	0.54701
2547.63361	0.54586
2545.70505	0.54499
2543.77648	0.54413
2541.84792	0.54325
2539.91935	0.54244
2537.99079	0.54160
2536.06222	0.54058
2534.13366	0.53940
2532.20510	0.53822
2530.27653	0.53717
2528.34797	0.53629
2526.41940	0.53541
2524.49084	0.53432
2522.56227	0.53311
2520.63371	0.53202
2518.70514	0.53109
2516.77658	0.53032
2514.84802	0.52962
2512.91945	0.52883
2510.99089	0.52784
2509.06232	0.52676
2507.13376	0.52596
2505.20519	0.52559
2503.27663	0.52525
2501.34806	0.52443
2499.41950	0.52328
2497.49094	0.52231
2495.56237	0.52158
2493.63381	0.52098
2491.70524	0.52050
2489.77668	0.51994
2487.84811	0.51919
2485.91955	0.51862
2483.99098	0.51835
2482.06242	0.51823
2480.13386	0.51830
2478.20529	0.51828
2476.27673	0.51769
2474.34816	0.51682
2472.41960	0.51635
2470.49103	0.51632
2468.56247	0.51608
2466.63391	0.51540
2464.70534	0.51442
2462.77678	0.51308
2460.84821	0.51172
2458.91965	0.51072
2456.99108	0.50997
2455.06252	0.50931
2453.13395	0.50858
2451.20539	0.50776
2449.27683	0.50676
2447.34826	0.50537
2445.41970	0.50370
2443.49113	0.50225
2441.56257	0.50134
2439.63400	0.50052
2437.70544	0.49918
2435.77687	0.49774
2433.84831	0.49677
2431.91975	0.49602
2429.99118	0.49510
2428.06262	0.49403
2426.13405	0.49311
2424.20549	0.49241
2422.27692	0.49183
2420.34836	0.49133
2418.41979	0.49084
2416.49123	0.49040
2414.56267	0.48990
2412.63410	0.48917
2410.70554	0.48844
2408.77697	0.48778
2406.84841	0.48689
2404.91984	0.48579
2402.99128	0.48477
2401.06271	0.48398
2399.13415	0.48318
2397.20559	0.48185
2395.27702	0.48017
2393.34846	0.47872
2391.41989	0.47750
2389.49133	0.47614
2387.56276	0.47459
2385.63420	0.47315
2383.70563	0.47189
2381.77707	0.47109
2379.84851	0.47093
2377.91994	0.47073
2375.99138	0.46996
2374.06281	0.46916
2372.13425	0.46902
2370.20568	0.46971
2368.27712	0.47055
2366.34855	0.47069
2364.41999	0.46994
2362.49143	0.46977
2360.56286	0.47218
2358.63430	0.47476
2356.70573	0.47510
2354.77717	0.47436
2352.84860	0.47261
2350.92004	0.46974
2348.99147	0.46670
2347.06291	0.46453
2345.13435	0.46426
2343.20578	0.46522
2341.27722	0.46551
2339.34865	0.46521
2337.42009	0.46465
2335.49152	0.46383
2333.56296	0.46320
2331.63440	0.46310
2329.70583	0.46316
2327.77727	0.46268
2325.84870	0.46164
2323.92014	0.46041
2321.99157	0.45933
2320.06301	0.45823
2318.13444	0.45654
2316.20588	0.45453
2314.27732	0.45309
2312.34875	0.45227
2310.42019	0.45171
2308.49162	0.45128
2306.56306	0.45087
2304.63449	0.45046
2302.70593	0.45009
2300.77736	0.44966
2298.84880	0.44920
2296.92024	0.44894
2294.99167	0.44896
2293.06311	0.44912
2291.13454	0.44918
2289.20598	0.44901
2287.27741	0.44864
2285.34885	0.44822
2283.42028	0.44803
2281.49172	0.44811
2279.56316	0.44818
2277.63459	0.44823
2275.70603	0.44834
2273.77746	0.44835
2271.84890	0.44817
2269.92033	0.44789
2267.99177	0.44759
2266.06320	0.44727
2264.13464	0.44698
2262.20608	0.44680
2260.27751	0.44660
2258.34895	0.44639
2256.42038	0.44626
2254.49182	0.44596
2252.56325	0.44532
2250.63469	0.44461
2248.70612	0.44419
2246.77756	0.44391
2244.84900	0.44355
2242.92043	0.44311
2240.99187	0.44258
2239.06330	0.44205
2237.13474	0.44168
2235.20617	0.44144
2233.27761	0.44126
2231.34904	0.44115
2229.42048	0.44114
2227.49192	0.44105
2225.56335	0.44073
2223.63479	0.44034
2221.70622	0.43996
2219.77766	0.43952
2217.84909	0.43895
2215.92053	0.43820
2213.99196	0.43725
2212.06340	0.43620
2210.13484	0.43518
2208.20627	0.43428
2206.27771	0.43339
2204.34914	0.43235
2202.42058	0.43111
2200.49201	0.42980
2198.56345	0.42844
2196.63488	0.42706
2194.70632	0.42581
2192.77776	0.42473
2190.84919	0.42376
2188.92063	0.42290
2186.99206	0.42211
2185.06350	0.42119
2183.13493	0.42018
2181.20637	0.41930
2179.27781	0.41858
2177.34924	0.41807
2175.42068	0.41788
2173.49211	0.41783
2171.56355	0.41773
2169.63498	0.41763
2167.70642	0.41770
2165.77785	0.41803
2163.84929	0.41851
2161.92073	0.41882
2159.99216	0.41896
2158.06360	0.41918
2156.13503	0.41960
2154.20647	0.42008
2152.27790	0.42045
2150.34934	0.42062
2148.42077	0.42069
2146.49221	0.42076
2144.56365	0.42074
2142.63508	0.42054
2140.70652	0.42019
2138.77795	0.41972
2136.84939	0.41923
2134.92082	0.41871
2132.99226	0.41797
2131.06369	0.41705
2129.13513	0.41618
2127.20657	0.41538
2125.27800	0.41460
2123.34944	0.41393
2121.42087	0.41337
2119.49231	0.41270
2117.56374	0.41190
2115.63518	0.41117
2113.70661	0.41067
2111.77805	0.41051
2109.84949	0.41061
2107.92092	0.41074
2105.99236	0.41093
2104.06379	0.41123
2102.13523	0.41156
2100.20666	0.41193
2098.27810	0.41240
2096.34953	0.41290
2094.42097	0.41331
2092.49241	0.41367
2090.56384	0.41410
2088.63528	0.41456
2086.70671	0.41491
2084.77815	0.41503
2082.84958	0.41497
2080.92102	0.41484
2078.99245	0.41463
2077.06389	0.41445
2075.13533	0.41439
2073.20676	0.41418
2071.27820	0.41373
2069.34963	0.41317
2067.42107	0.41246
2065.49250	0.41172
2063.56394	0.41107
2061.63537	0.41019
2059.70681	0.40902
2057.77825	0.40783
2055.84968	0.40671
2053.92112	0.40561
2051.99255	0.40442
2050.06399	0.40321
2048.13542	0.40215
2046.20686	0.40117
2044.27830	0.40016
2042.34973	0.39931
2040.42117	0.39871
2038.49260	0.39803
2036.56404	0.39727
2034.63547	0.39675
2032.70691	0.39654
2030.77834	0.39652
2028.84978	0.39660
2026.92122	0.39679
2024.99265	0.39707
2023.06409	0.39720
2021.13552	0.39709
2019.20696	0.39698
2017.27839	0.39705
2015.34983	0.39707
2013.42126	0.39695
2011.49270	0.39678
2009.56414	0.39654
2007.63557	0.39625
2005.70701	0.39590
2003.77844	0.39536
2001.84988	0.39449
1999.92131	0.39356
1997.99275	0.39268
1996.06418	0.39148
1994.13562	0.38999
1992.20706	0.38870
1990.27849	0.38742
1988.34993	0.38579
1986.42136	0.38399
1984.49280	0.38220
1982.56423	0.38045
1980.63567	0.37874
1978.70710	0.37691
1976.77854	0.37497
1974.84998	0.37311
1972.92141	0.37134
1970.99285	0.36956
1969.06428	0.36811
1967.13572	0.36723
1965.20715	0.36626
1963.27859	0.36501
1961.35002	0.36409
1959.42146	0.36357
1957.49290	0.36322
1955.56433	0.36310
1953.63577	0.36312
1951.70720	0.36317
1949.77864	0.36326
1947.85007	0.36331
1945.92151	0.36334
1943.99294	0.36380
1942.06438	0.36468
1940.13582	0.36500
1938.20725	0.36471
1936.27869	0.36445
1934.35012	0.36435
1932.42156	0.36423
1930.49299	0.36403
1928.56443	0.36364
1926.63586	0.36293
1924.70730	0.36217
1922.77874	0.36162
1920.85017	0.36075
1918.92161	0.35962
1916.99304	0.35855
1915.06448	0.35709
1913.13591	0.35526
1911.20735	0.35358
1909.27878	0.35210
1907.35022	0.35042
1905.42166	0.34856
1903.49309	0.34689
1901.56453	0.34557
1899.63596	0.34447
1897.70740	0.34357
1895.77883	0.34310
1893.85027	0.34287
1891.92171	0.34272
1889.99314	0.34344
1888.06458	0.34467
1886.13601	0.34542
1884.20745	0.34631
1882.27888	0.34768
1880.35032	0.34919
1878.42175	0.35074
1876.49319	0.35223
1874.56463	0.35341
1872.63606	0.35427
1870.70750	0.35555
1868.77893	0.35823
1866.85037	0.36065
1864.92180	0.36135
1862.99324	0.36159
1861.06467	0.36201
1859.13611	0.36241
1857.20755	0.36258
1855.27898	0.36249
1853.35042	0.36202
1851.42185	0.36126
1849.49329	0.36046
1847.56472	0.35953
1845.63616	0.35871
1843.70759	0.35812
1841.77903	0.35668
1839.85047	0.35464
1837.92190	0.35316
1835.99334	0.35232
1834.06477	0.35135
1832.13621	0.35050
1830.20764	0.35071
1828.27908	0.35135
1826.35051	0.35179
1824.42195	0.35291
1822.49339	0.35397
1820.56482	0.35458
1818.63626	0.35568
1816.70769	0.35735
1814.77913	0.35896
1812.85056	0.36064
1810.92200	0.36297
1808.99343	0.36533
1807.06487	0.36711
1805.13631	0.36874
1803.20774	0.37068
1801.27918	0.37339
1799.35061	0.37608
1797.42205	0.37757
1795.49348	0.37826
1793.56492	0.37963
1791.63635	0.38230
1789.70779	0.38336
1787.77923	0.38278
1785.85066	0.38241
1783.92210	0.38249
1781.99353	0.38271
1780.06497	0.38318
1778.13640	0.38337
1776.20784	0.38300
1774.27927	0.38328
1772.35071	0.38549
1770.42215	0.38787
1768.49358	0.38915
1766.56502	0.39036
1764.63645	0.39190
1762.70789	0.39525
1760.77932	0.40037
1758.85076	0.40507
1756.92220	0.41086
1754.99363	0.41697
1753.06507	0.42255
1751.13650	0.43150
1749.20794	0.44482
1747.27937	0.45650
1745.35081	0.46566
1743.42224	0.47455
1741.49368	0.48387
1739.56512	0.49297
1737.63655	0.49881
1735.70799	0.50321
1733.77942	0.51265
1731.85086	0.52157
1729.92229	0.52651
1727.99373	0.53142
1726.06516	0.53687
1724.13660	0.54405
1722.20804	0.55157
1720.27947	0.55807
1718.35091	0.56896
1716.42234	0.58951
1714.49378	0.60736
1712.56521	0.62134
1710.63665	0.63704
1708.70808	0.65643
1706.77952	0.68541
1704.85096	0.72393
1702.92239	0.75842
1700.99383	0.80533
1699.06526	0.88003
1697.13670	0.94734
1695.20813	1.00915
1693.27957	1.05309
1691.35100	1.08480
1689.42244	1.12143
1687.49388	1.15437
1685.56531	1.18591
1683.63675	1.22926
1681.70818	1.25520
1679.77962	1.26683
1677.85105	1.27717
1675.92249	1.28862
1673.99392	1.29854
1672.06536	1.30505
1670.13680	1.31120
1668.20823	1.31515
1666.27967	1.31295
1664.35110	1.30990
1662.42254	1.30793
1660.49397	1.30456
1658.56541	1.30014
1656.63684	1.29488
1654.70828	1.29099
1652.77972	1.28790
1650.85115	1.28202
1648.92259	1.27667
1646.99402	1.27162
1645.06546	1.26683
1643.13689	1.26202
1641.20833	1.25765
1639.27976	1.25288
1637.35120	1.24760
1635.42264	1.24172
1633.49407	1.23484
1631.56551	1.22788
1629.63694	1.21988
1627.70838	1.21133
1625.77981	1.20276
1623.85125	1.19211
1621.92269	1.17955
1619.99412	1.16879
1618.06556	1.15714
1616.13699	1.14116
1614.20843	1.12760
1612.27986	1.11617
1610.35130	1.10405
1608.42273	1.09207
1606.49417	1.08209
1604.56561	1.07515
1602.63704	1.07096
1600.70848	1.06889
1598.77991	1.06857
1596.85135	1.06996
1594.92278	1.07228
1592.99422	1.07538
1591.06565	1.08023
1589.13709	1.08651
1587.20853	1.09356
1585.27996	1.10123
1583.35140	1.10972
1581.42283	1.11854
1579.49427	1.12670
1577.56570	1.13751
1575.63714	1.15363
1573.70857	1.16319
1571.78001	1.16798
1569.85145	1.17723
1567.92288	1.18798
1565.99432	1.19491
1564.06575	1.20037
1562.13719	1.20304
1560.20862	1.20814
1558.28006	1.22415
1556.35149	1.22566
1554.42293	1.22021
1552.49437	1.21579
1550.56580	1.21219
1548.63724	1.20857
1546.70867	1.20513
1544.78011	1.20233
1542.85154	1.20143
1540.92298	1.20135
1538.99441	1.19408
1537.06585	1.18631
1535.13729	1.18109
1533.20872	1.17807
1531.28016	1.17537
1529.35159	1.17149
1527.42303	1.16681
1525.49446	1.16359
1523.56590	1.16400
1521.63733	1.16391
1519.70877	1.15900
1517.78021	1.14955
1515.85164	1.13548
1513.92308	1.12135
1511.99451	1.10878
1510.06595	1.09732
1508.13738	1.08195
1506.20882	1.05551
1504.28025	1.03872
1502.35169	1.02704
1500.42313	1.01391
1498.49456	0.99773
1496.56600	0.97897
1494.63743	0.96318
1492.70887	0.95118
1490.78030	0.93862
1488.85174	0.92472
1486.92317	0.91463
1484.99461	0.90828
1483.06605	0.90485
1481.13748	0.90454
1479.20892	0.90697
1477.28035	0.91241
1475.35179	0.92256
1473.42322	0.94111
1471.49466	0.96216
1469.56610	0.97319
1467.63753	0.97978
1465.70897	0.98850
1463.78040	0.99759
1461.85184	1.00173
1459.92327	1.00395
1457.99471	1.01117
1456.06614	1.02022
1454.13758	1.02029
1452.20902	1.01715
1450.28045	1.01356
1448.35189	1.00960
1446.42332	1.00482
1444.49476	0.99948
1442.56619	0.99356
1440.63763	0.98673
1438.70906	0.97862
1436.78050	0.96874
1434.85194	0.95878
1432.92337	0.95002
1430.99481	0.94197
1429.06624	0.93555
1427.13768	0.93185
1425.20911	0.93106
1423.28055	0.93281
1421.35198	0.93579
1419.42342	0.94102
1417.49486	0.94700
1415.56629	0.94980
1413.63773	0.95175
1411.70916	0.95448
1409.78060	0.95787
1407.85203	0.96176
1405.92347	0.96701
1403.99490	0.97297
1402.06634	0.97726
1400.13778	0.98082
1398.20921	0.98456
1396.28065	0.98794
1394.35208	0.99123
1392.42352	0.99388
1390.49495	0.99622
1388.56639	1.00101
1386.63782	1.00947
1384.70926	1.01722
1382.78070	1.02213
1380.85213	1.02467
1378.92357	1.02354
1376.99500	1.01723
1375.06644	1.00550
1373.13787	0.99044
1371.20931	0.97528
1369.28074	0.95870
1367.35218	0.94081
1365.42362	0.92479
1363.49505	0.91031
1361.56649	0.89762
1359.63792	0.88893
1357.70936	0.88350
1355.78079	0.88038
1353.85223	0.87936
1351.92366	0.87986
1349.99510	0.88109
1348.06654	0.88272
1346.13797	0.88486
1344.20941	0.88762
1342.28084	0.89116
1340.35228	0.89638
1338.42371	0.90341
1336.49515	0.91088
1334.56659	0.91927
1332.63802	0.92913
1330.70946	0.93931
1328.78089	0.94803
1326.85233	0.95429
1324.92376	0.95810
1322.99520	0.96033
1321.06663	0.96244
1319.13807	0.96512
1317.20951	0.96733
1315.28094	0.96802
1313.35238	0.96736
1311.42381	0.96567
1309.49525	0.96339
1307.56668	0.96092
1305.63812	0.95791
1303.70955	0.95393
1301.78099	0.94917
1299.85243	0.94429
1297.92386	0.93966
1295.99530	0.93533
1294.06673	0.93154
1292.13817	0.92928
1290.20960	0.92929
1288.28104	0.93080
1286.35247	0.93272
1284.42391	0.93505
1282.49535	0.93799
1280.56678	0.94187
1278.63822	0.94710
1276.70965	0.95340
1274.78109	0.96048
1272.85252	0.96890
1270.92396	0.97862
1268.99539	0.98870
1267.06683	0.99835
1265.13827	1.00663
1263.20970	1.01280
1261.28114	1.01687
1259.35257	1.01912
1257.42401	1.01978
1255.49544	1.01934
1253.56688	1.01850
1251.63831	1.01706
1249.70975	1.01448
1247.78119	1.01067
1245.85262	1.00599
1243.92406	1.00086
1241.99549	0.99511
1240.06693	0.98854
1238.13836	0.98127
1236.20980	0.97312
1234.28123	0.96413
1232.35267	0.95486
1230.42411	0.94564
1228.49554	0.93617
1226.56698	0.92644
1224.63841	0.91686
1222.70985	0.90733
1220.78128	0.89829
1218.85272	0.89110
1216.92415	0.88647
1214.99559	0.88436
1213.06703	0.88504
1211.13846	0.88848
1209.20990	0.89347
1207.28133	0.89780
1205.35277	0.89937
1203.42420	0.89788
1201.49564	0.89488
1199.56708	0.89127
1197.63851	0.88726
1195.70995	0.88395
1193.78138	0.88222
1191.85282	0.88156
1189.92425	0.88130
1187.99569	0.88145
1186.06712	0.88164
1184.13856	0.88165
1182.21000	0.88236
1180.28143	0.88448
1178.35287	0.88823
1176.42430	0.89366
1174.49574	0.90016
1172.56717	0.90665
1170.63861	0.91336
1168.71004	0.92195
1166.78148	0.93278
1164.85292	0.94367
1162.92435	0.95199
1160.99579	0.95628
1159.06722	0.95491
1157.13866	0.94691
1155.21009	0.93416
1153.28153	0.91954
1151.35296	0.90494
1149.42440	0.89166
1147.49584	0.88066
1145.56727	0.87368
1143.63871	0.87264
1141.71014	0.87743
1139.78158	0.88666
1137.85301	0.89922
1135.92445	0.91460
1133.99588	0.93288
1132.06732	0.95432
1130.13876	0.97856
1128.21019	1.00444
1126.28163	1.02974
1124.35306	1.05183
1122.42450	1.06947
1120.49593	1.08263
1118.56737	1.09097
1116.63880	1.09454
1114.71024	1.09313
1112.78168	1.08664
1110.85311	1.07726
1108.92455	1.06739
1106.99598	1.05779
1105.06742	1.04968
1103.13885	1.04444
1101.21029	1.04117
1099.28172	1.03904
1097.35316	1.03965
1095.42460	1.04458
1093.49603	1.05402
1091.56747	1.06686
1089.63890	1.08152
1087.71034	1.09732
1085.78177	1.11374
1083.85321	1.12931
1081.92464	1.14183
1079.99608	1.14944
1078.06752	1.15210
1076.13895	1.15034
1074.21039	1.14496
1072.28182	1.13766
1070.35326	1.13031
1068.42469	1.12449
1066.49613	1.11953
1064.56756	1.11453
1062.63900	1.11131
1060.71044	1.11025
1058.78187	1.10938
1056.85331	1.10732
1054.92474	1.10362
1052.99618	1.09872
1051.06761	1.09444
1049.13905	1.09226
1047.21049	1.09140
1045.28192	1.09082
1043.35336	1.09045
1041.42479	1.08941
1039.49623	1.08695
1037.56766	1.08314
1035.63910	1.07761
1033.71053	1.07021
1031.78197	1.06113
1029.85341	1.04952
1027.92484	1.03446
1025.99628	1.01698
1024.06771	0.99908
1022.13915	0.98213
1020.21058	0.96712
1018.28202	0.95437
1016.35345	0.94261
1014.42489	0.92990
1012.49633	0.91496
1010.56776	0.89783
1008.63920	0.87978
1006.71063	0.86240
1004.78207	0.84626
1002.85350	0.83153
1000.92494	0.81914
998.99637	0.81008
997.06781	0.80408
995.13925	0.79982
993.21068	0.79571
991.28212	0.79071
989.35355	0.78497
987.42499	0.77925
985.49642	0.77373
983.56786	0.76859
981.63929	0.76459
979.71073	0.76194
977.78217	0.75905
975.85360	0.75400
973.92504	0.74632
971.99647	0.73626
970.06791	0.72414
968.13934	0.71102
966.21078	0.69885
964.28221	0.68952
962.35365	0.68458
960.42509	0.68531
958.49652	0.69144
956.56796	0.69916
954.63939	0.70257
952.71083	0.69864
950.78226	0.68915
948.85370	0.67768
946.92513	0.66733
944.99657	0.65989
943.06801	0.65545
941.13944	0.65312
939.21088	0.65200
937.28231	0.65186
935.35375	0.65315
933.42518	0.65596
931.49662	0.65981
929.56805	0.66450
927.63949	0.67007
925.71093	0.67637
923.78236	0.68343
921.85380	0.69095
919.92523	0.69768
917.99667	0.70278
916.06810	0.70673
914.13954	0.71047
912.21098	0.71474
910.28241	0.72005
908.35385	0.72643
906.42528	0.73326
904.49672	0.73999
902.56815	0.74635
900.63959	0.75163
898.71102	0.75510
896.78246	0.75655
894.85390	0.75622
892.92533	0.75487
890.99677	0.75302
889.06820	0.75050
887.13964	0.74744
885.21107	0.74487
883.28251	0.74355
881.35394	0.74311
879.42538	0.74311
877.49682	0.74344
875.56825	0.74375
873.63969	0.74395
871.71112	0.74428
869.78256	0.74450
867.85399	0.74462
865.92543	0.74518
863.99686	0.74664
862.06830	0.74927
860.13974	0.75274
858.21117	0.75669
856.28261	0.76102
854.35404	0.76457
852.42548	0.76676
850.49691	0.76885
848.56835	0.77121
846.63978	0.77318
844.71122	0.77486
842.78266	0.77653
840.85409	0.77842
838.92553	0.78066
836.99696	0.78293
835.06840	0.78518
833.13983	0.78752
831.21127	0.78951
829.28270	0.79085
827.35414	0.79149
825.42558	0.79154
823.49701	0.79166
821.56845	0.79216
819.63988	0.79259
817.71132	0.79280
815.78275	0.79289
813.85419	0.79249
811.92562	0.79215
809.99706	0.79287
808.06850	0.79363
806.13993	0.79302
804.21137	0.79174
802.28280	0.79083
800.35424	0.79029
798.42567	0.79007
796.49711	0.78985
794.56854	0.78943
792.63998	0.78960
790.71142	0.79107
788.78285	0.79349
786.85429	0.79635
784.92572	0.79950
782.99716	0.80292
781.06859	0.80671
779.14003	0.81063
777.21147	0.81452
775.28290	0.81889
773.35434	0.82367
771.42577	0.82857
769.49721	0.83361
767.56864	0.83865
765.64008	0.84392
763.71151	0.84959
761.78295	0.85509
759.85439	0.86085
757.92582	0.86757
755.99726	0.87370
754.06869	0.87869
752.14013	0.88450
750.21156	0.89145
748.28300	0.89772
746.35443	0.90203
744.42587	0.90545
742.49731	0.90933
740.56874	0.91259
738.64018	0.91477
736.71161	0.91707
734.78305	0.91956
732.85448	0.92282
730.92592	0.92733
728.99735	0.93104
727.06879	0.93350
725.14023	0.93649
723.21166	0.94034
721.28310	0.94452
719.35453	0.94799
717.42597	0.94995
715.49740	0.95220
713.56884	0.95629
711.64027	0.96138
709.71171	0.96686
707.78315	0.97332
705.85458	0.98071
703.92602	0.98769
701.99745	0.99256
700.06889	0.99579
698.14032	0.99968
696.21176	1.00416
694.28319	1.00773
692.35463	1.01048
690.42607	1.01227
688.49750	1.01266
686.56894	1.01153
684.64037	1.00887
682.71181	1.00610
680.78324	1.00426
678.85468	1.00191
676.92611	0.99736
674.99755	0.98988
673.06899	0.98073
671.14042	0.97267
669.21186	0.96351
667.28329	0.95090
665.35473	0.94244
663.42616	0.93549
661.49760	0.92637
659.56903	0.91593
657.64047	0.90527
655.71191	0.89505
653.78334	0.88602
651.85478	0.87725
649.92621	0.86753
647.99765	0.85890
646.06908	0.85377
644.14052	0.85083
642.21195	0.84833
640.28339	0.84712
638.35483	0.84872
636.42626	0.85166
634.49770	0.85323
632.56913	0.85369
630.64057	0.85425
628.71200	0.85533
626.78344	0.85789
624.85488	0.86190
622.92631	0.86601
620.99775	0.87074
619.06918	0.87722
617.14062	0.88237
615.21205	0.88279
613.28349	0.88248
611.35492	0.88542
609.42636	0.88831
607.49780	0.88757
605.56923	0.88480
603.64067	0.88180
601.71210	0.87781
599.78354	0.87361
