3997.91406	0.61831
3995.98550	0.61660
3994.05693	0.61522
3992.12837	0.61445
3990.19980	0.61490
3988.27124	0.61509
3986.34268	0.61355
3984.41411	0.61241
3982.48555	0.61317
3980.55698	0.61373
3978.62842	0.61322
3976.69985	0.61364
3974.77129	0.61523
3972.84272	0.61585
3970.91416	0.61523
3968.98560	0.61472
3967.05703	0.61434
3965.12847	0.61359
3963.19990	0.61293
3961.27134	0.61245
3959.34277	0.61161
3957.41421	0.61100
3955.48564	0.61122
3953.55708	0.61097
3951.62852	0.60886
3949.69995	0.60664
3947.77139	0.60663
3945.84282	0.60671
3943.91426	0.60628
3941.98569	0.60683
3940.05713	0.60691
3938.12856	0.60568
3936.20000	0.60362
3934.27144	0.60186
3932.34287	0.60283
3930.41431	0.60508
3928.48574	0.60403
3926.55718	0.60134
3924.62861	0.60159
3922.70005	0.60292
3920.77148	0.60222
3918.84292	0.60258
3916.91436	0.60556
3914.98579	0.60761
3913.05723	0.60702
3911.12866	0.60471
3909.20010	0.60098
3907.27153	0.59636
3905.34297	0.59390
3903.41440	0.59648
3901.48584	0.60138
3899.55728	0.60597
3897.62871	0.60667
3895.70015	0.60217
3893.77158	0.59824
3891.84302	0.60113
3889.91445	0.60251
3887.98589	0.59655
3886.05733	0.59235
3884.12876	0.59286
3882.20020	0.59225
3880.27163	0.59423
3878.34307	0.59549
3876.41450	0.59182
3874.48594	0.58785
3872.55737	0.58612
3870.62881	0.58806
3868.70025	0.59005
3866.77168	0.58686
3864.84312	0.58643
3862.91455	0.59181
3860.98599	0.59322
3859.05742	0.58862
3857.12886	0.57921
3855.20029	0.56936
3853.27173	0.57875
3851.34317	0.59400
3849.41460	0.59485
3847.48604	0.59024
3845.55747	0.58458
3843.62891	0.57980
3841.70034	0.57648
3839.77178	0.57593
3837.84321	0.58053
3835.91465	0.58427
3833.98609	0.58465
3832.05752	0.58553
3830.12896	0.58619
3828.20039	0.58487
3826.27183	0.58212
3824.34326	0.57576
3822.41470	0.57011
3820.48613	0.57471
3818.55757	0.57829
3816.62901	0.58068
3814.70044	0.58453
3812.77188	0.58183
3810.84331	0.57502
3808.91475	0.56985
3806.98618	0.57053
3805.05762	0.56946
3803.12905	0.56441
3801.20049	0.56808
3799.27193	0.57394
3797.34336	0.57466
3795.41480	0.57497
3793.48623	0.57435
3791.55767	0.57322
3789.62910	0.57180
3787.70054	0.56949
3785.77197	0.56904
3783.84341	0.57020
3781.91485	0.56908
3779.98628	0.56900
3778.05772	0.57223
3776.12915	0.57303
3774.20059	0.57062
3772.27202	0.56815
3770.34346	0.56867
3768.41489	0.56969
3766.48633	0.56899
3764.55777	0.56900
3762.62920	0.56751
3760.70064	0.56514
3758.77207	0.56656
3756.84351	0.56695
3754.91494	0.56049
3752.98638	0.55127
3751.05781	0.55351
3749.12925	0.56158
3747.20069	0.55794
3745.27212	0.55705
3743.34356	0.56649
3741.41499	0.56912
3739.48643	0.56311
3737.55786	0.55536
3735.62930	0.55720
3733.70074	0.57162
3731.77217	0.57933
3729.84361	0.57700
3727.91504	0.57309
3725.98648	0.57333
3724.05791	0.57537
3722.12935	0.57611
3720.20078	0.57721
3718.27222	0.57750
3716.34366	0.57476
3714.41509	0.57048
3712.48653	0.57110
3710.55796	0.57976
3708.62940	0.58471
3706.70083	0.58432
3704.77227	0.58260
3702.84370	0.58344
3700.91514	0.58670
3698.98658	0.58768
3697.05801	0.58740
3695.12945	0.58632
3693.20088	0.58210
3691.27232	0.57828
3689.34375	0.58656
3687.41519	0.59807
3685.48662	0.60045
3683.55806	0.59897
3681.62950	0.59709
3679.70093	0.59426
3677.77237	0.59067
3675.84380	0.59662
3673.91524	0.60655
3671.98667	0.60849
3670.05811	0.61864
3668.12954	0.63169
3666.20098	0.63400
3664.27242	0.63378
3662.34385	0.63579
3660.41529	0.63880
3658.48672	0.64197
3656.55816	0.64796
3654.62959	0.65158
3652.70103	0.64715
3650.77246	0.64250
3648.84390	0.65904
3646.91534	0.68140
3644.98677	0.68845
3643.05821	0.68979
3641.12964	0.69233
3639.20108	0.69695
3637.27251	0.70160
3635.34395	0.70507
3633.41538	0.70611
3631.48682	0.70509
3629.55826	0.71463
3627.62969	0.73601
3625.70113	0.74334
3623.77256	0.74205
3621.84400	0.74112
3619.91543	0.74836
3617.98687	0.76133
3616.05830	0.76737
3614.12974	0.77111
3612.20118	0.77663
3610.27261	0.78219
3608.34405	0.79185
3606.41548	0.80384
3604.48692	0.81115
3602.55835	0.81633
3600.62979	0.82313
3598.70123	0.82906
3596.77266	0.83379
3594.84410	0.84271
3592.91553	0.85206
3590.98697	0.85428
3589.05840	0.85567
3587.12984	0.86591
3585.20127	0.87630
3583.27271	0.88173
3581.34415	0.88771
3579.41558	0.89469
3577.48702	0.90088
3575.55845	0.90846
3573.62989	0.91710
3571.70132	0.92217
3569.77276	0.92340
3567.84419	0.92735
3565.91563	0.93779
3563.98707	0.94701
3562.05850	0.95444
3560.12994	0.96194
3558.20137	0.96952
3556.27281	0.97679
3554.34424	0.98335
3552.41568	0.98986
3550.48711	0.99540
3548.55855	1.00088
3546.62999	1.01095
3544.70142	1.02465
3542.77286	1.03389
3540.84429	1.03787
3538.91573	1.04104
3536.98716	1.04614
3535.05860	1.05314
3533.13003	1.05949
3531.20147	1.06371
3529.27291	1.06770
3527.34434	1.07409
3525.41578	1.08319
3523.48721	1.09254
3521.55865	1.09940
3519.63008	1.10538
3517.70152	1.11228
3515.77295	1.11881
3513.84439	1.12515
3511.91583	1.13221
3509.98726	1.13972
3508.05870	1.14732
3506.13013	1.15621
3504.20157	1.16927
3502.27300	1.18198
3500.34444	1.18826
3498.41587	1.19289
3496.48731	1.19963
3494.55875	1.20625
3492.63018	1.21085
3490.70162	1.21437
3488.77305	1.21807
3486.84449	1.22427
3484.91592	1.23301
3482.98736	1.24032
3481.05879	1.24432
3479.13023	1.24634
3477.20167	1.24870
3475.27310	1.25221
3473.34454	1.25572
3471.41597	1.25887
3469.48741	1.26217
3467.55884	1.26549
3465.63028	1.26808
3463.70171	1.27117
3461.77315	1.27639
3459.84459	1.28052
3457.91602	1.28094
3455.98746	1.28343
3454.05889	1.29221
3452.13033	1.30108
3450.20176	1.30461
3448.27320	1.30534
3446.34464	1.30634
3444.41607	1.30574
3442.48751	1.30275
3440.55894	1.30206
3438.63038	1.30705
3436.70181	1.31514
3434.77325	1.32039
3432.84468	1.32151
3430.91612	1.32191
3428.98756	1.32105
3427.05899	1.32048
3425.13043	1.32382
3423.20186	1.32725
3421.27330	1.32597
3419.34473	1.32200
3417.41617	1.32031
3415.48760	1.32239
3413.55904	1.32523
3411.63048	1.32626
3409.70191	1.32712
3407.77335	1.33078
3405.84478	1.33662
3403.91622	1.34014
3401.98765	1.33809
3400.05909	1.33449
3398.13052	1.33481
3396.20196	1.33628
3394.27340	1.33686
3392.34483	1.34053
3390.41627	1.34487
3388.48770	1.34422
3386.55914	1.34111
3384.63057	1.34132
3382.70201	1.34579
3380.77344	1.35163
3378.84488	1.35807
3376.91632	1.36473
3374.98775	1.36621
3373.05919	1.36017
3371.13062	1.35415
3369.20206	1.35517
3367.27349	1.36047
3365.34493	1.36317
3363.41636	1.36468
3361.48780	1.36917
3359.55924	1.37404
3357.63067	1.37780
3355.70211	1.37974
3353.77354	1.37641
3351.84498	1.37215
3349.91641	1.37494
3347.98785	1.38256
3346.05928	1.38895
3344.13072	1.39305
3342.20216	1.39454
3340.27359	1.39547
3338.34503	1.39931
3336.41646	1.40292
3334.48790	1.40117
3332.55933	1.39705
3330.63077	1.39832
3328.70220	1.40627
3326.77364	1.41469
3324.84508	1.42020
3322.91651	1.42252
3320.98795	1.42050
3319.05938	1.41699
3317.13082	1.41706
3315.20225	1.42243
3313.27369	1.42842
3311.34513	1.42931
3309.41656	1.43067
3307.48800	1.43908
3305.55943	1.44829
3303.63087	1.45092
3301.70230	1.44869
3299.77374	1.44743
3297.84517	1.44934
3295.91661	1.45330
3293.98805	1.45699
3292.05948	1.45732
3290.13092	1.45462
3288.20235	1.45241
3286.27379	1.45190
3284.34522	1.45206
3282.41666	1.45247
3280.48809	1.45190
3278.55953	1.44897
3276.63097	1.44553
3274.70240	1.44248
3272.77384	1.43957
3270.84527	1.43909
3268.91671	1.43955
3266.98814	1.43533
3265.05958	1.42866
3263.13101	1.42707
3261.20245	1.42806
3259.27389	1.42470
3257.34532	1.41802
3255.41676	1.41104
3253.48819	1.40518
3251.55963	1.40050
3249.63106	1.39579
3247.70250	1.39064
3245.77393	1.38377
3243.84537	1.37546
3241.91681	1.36925
3239.98824	1.36744
3238.05968	1.36604
3236.13111	1.35967
3234.20255	1.35099
3232.27398	1.34380
3230.34542	1.33903
3228.41685	1.33692
3226.48829	1.33519
3224.55973	1.33360
3222.63116	1.33244
3220.70260	1.32831
3218.77403	1.32058
3216.84547	1.31361
3214.91690	1.30862
3212.98834	1.30203
3211.05977	1.29475
3209.13121	1.29163
3207.20265	1.29134
3205.27408	1.28940
3203.34552	1.28770
3201.41695	1.28846
3199.48839	1.28697
3197.55982	1.28133
3195.63126	1.27557
3193.70269	1.27083
3191.77413	1.26661
3189.84557	1.26382
3187.91700	1.26096
3185.98844	1.25561
3184.05987	1.24979
3182.13131	1.24594
3180.20274	1.24265
3178.27418	1.23854
3176.34562	1.23380
3174.41705	1.22801
3172.48849	1.22234
3170.55992	1.21976
3168.63136	1.21881
3166.70279	1.21593
3164.77423	1.21285
3162.84566	1.21200
3160.91710	1.21087
3158.98854	1.20656
3157.05997	1.20053
3155.13141	1.19558
3153.20284	1.19238
3151.27428	1.19026
3149.34571	1.18775
3147.41715	1.18422
3145.48858	1.18088
3143.56002	1.17864
3141.63146	1.17767
3139.70289	1.17737
3137.77433	1.17723
3135.84576	1.17708
3133.91720	1.17543
3131.98863	1.17148
3130.06007	1.16746
3128.13150	1.16658
3126.20294	1.16864
3124.27438	1.17035
3122.34581	1.17064
3120.41725	1.16934
3118.48868	1.16719
3116.56012	1.16766
3114.63155	1.17077
3112.70299	1.17356
3110.77442	1.17513
3108.84586	1.17527
3106.91730	1.17422
3104.98873	1.17217
3103.06017	1.16935
3101.13160	1.16733
3099.20304	1.16650
3097.27447	1.16512
3095.34591	1.16225
3093.41734	1.15932
3091.48878	1.15838
3089.56022	1.15916
3087.63165	1.15879
3085.70309	1.15555
3083.77452	1.15179
3081.84596	1.14969
3079.91739	1.14783
3077.98883	1.14579
3076.06026	1.14439
3074.13170	1.14308
3072.20314	1.14205
3070.27457	1.14023
3068.34601	1.13588
3066.41744	1.13063
3064.48888	1.12584
3062.56031	1.12145
3060.63175	1.11837
3058.70318	1.11599
3056.77462	1.11251
3054.84606	1.10804
3052.91749	1.10407
3050.98893	1.10139
3049.06036	1.09860
3047.13180	1.09421
3045.20323	1.08896
3043.27467	1.08388
3041.34610	1.07950
3039.41754	1.07555
3037.48898	1.07161
3035.56041	1.06814
3033.63185	1.06527
3031.70328	1.06287
3029.77472	1.06035
3027.84615	1.05664
3025.91759	1.05298
3023.98903	1.05169
3022.06046	1.05152
3020.13190	1.04990
3018.20333	1.04727
3016.27477	1.04465
3014.34620	1.04310
3012.41764	1.04403
3010.48907	1.04517
3008.56051	1.04302
3006.63195	1.03906
3004.70338	1.03667
3002.77482	1.03620
3000.84625	1.03695
2998.91769	1.03868
2996.98912	1.03960
2995.06056	1.03926
2993.13199	1.04018
2991.20343	1.04344
2989.27487	1.04822
2987.34630	1.05355
2985.41774	1.05829
2983.48917	1.06261
2981.56061	1.06761
2979.63204	1.07366
2977.70348	1.08092
2975.77491	1.08879
2973.84635	1.09570
2971.91779	1.10098
2969.98922	1.10492
2968.06066	1.10858
2966.13209	1.11380
2964.20353	1.12051
2962.27496	1.12581
2960.34640	1.12676
2958.41783	1.12325
2956.48927	1.11795
2954.56071	1.11262
2952.63214	1.10667
2950.70358	1.10038
2948.77501	1.09659
2946.84645	1.09741
2944.91788	1.10076
2942.98932	1.10503
2941.06075	1.11206
2939.13219	1.12133
2937.20363	1.12952
2935.27506	1.13637
2933.34650	1.14343
2931.41793	1.15005
2929.48937	1.15659
2927.56080	1.16399
2925.63224	1.16993
2923.70367	1.17378
2921.77511	1.17723
2919.84655	1.17902
2917.91798	1.17538
2915.98942	1.16369
2914.06085	1.14508
2912.13229	1.12407
2910.20372	1.10552
2908.27516	1.09188
2906.34659	1.08205
2904.41803	1.07342
2902.48947	1.06585
2900.56090	1.06068
2898.63234	1.05725
2896.70377	1.05491
2894.77521	1.05346
2892.84664	1.05147
2890.91808	1.04782
2888.98952	1.04302
2887.06095	1.03865
2885.13239	1.03661
2883.20382	1.03689
2881.27526	1.03762
2879.34669	1.03861
2877.41813	1.04042
2875.48956	1.04145
2873.56100	1.04026
2871.63244	1.03658
2869.70387	1.03074
2867.77531	1.02441
2865.84674	1.01991
2863.91818	1.01726
2861.98961	1.01498
2860.06105	1.01483
2858.13248	1.01862
2856.20392	1.02468
2854.27536	1.03211
2852.34679	1.04046
2850.41823	1.04425
2848.48966	1.03461
2846.56110	1.01141
2844.63253	0.98566
2842.70397	0.96547
2840.77540	0.95086
2838.84684	0.93993
2836.91828	0.93233
2834.98971	0.92729
2833.06115	0.92268
2831.13258	0.91803
2829.20402	0.91396
2827.27545	0.90947
2825.34689	0.90443
2823.41832	0.90066
2821.48976	0.89812
2819.56120	0.89538
2817.63263	0.89261
2815.70407	0.89051
2813.77550	0.88839
2811.84694	0.88523
2809.91837	0.88139
2807.98981	0.87826
2806.06124	0.87552
2804.13268	0.87195
2802.20412	0.86809
2800.27555	0.86464
2798.34699	0.86129
2796.41842	0.85767
2794.48986	0.85379
2792.56129	0.85018
2790.63273	0.84690
2788.70416	0.84385
2786.77560	0.84142
2784.84704	0.83922
2782.91847	0.83653
2780.98991	0.83342
2779.06134	0.83052
2777.13278	0.82849
2775.20421	0.82717
2773.27565	0.82585
2771.34708	0.82425
2769.41852	0.82218
2767.48996	0.81962
2765.56139	0.81725
2763.63283	0.81554
2761.70426	0.81407
2759.77570	0.81224
2757.84713	0.81037
2755.91857	0.80917
2753.99001	0.80837
2752.06144	0.80690
2750.13288	0.80462
2748.20431	0.80239
2746.27575	0.80051
2744.34718	0.79874
2742.41862	0.79702
2740.49005	0.79539
2738.56149	0.79374
2736.63293	0.79188
2734.70436	0.78996
2732.77580	0.78851
2730.84723	0.78765
2728.91867	0.78658
2726.99010	0.78480
2725.06154	0.78282
2723.13297	0.78141
2721.20441	0.78058
2719.27585	0.77937
2717.34728	0.77756
2715.41872	0.77584
2713.49015	0.77410
2711.56159	0.77210
2709.63302	0.77033
2707.70446	0.76904
2705.77589	0.76802
2703.84733	0.76711
2701.91877	0.76599
2699.99020	0.76412
2698.06164	0.76195
2696.13307	0.76063
2694.20451	0.76041
2692.27594	0.76059
2690.34738	0.76041
2688.41881	0.75970
2686.49025	0.75906
2684.56169	0.75881
2682.63312	0.75845
2680.70456	0.75766
2678.77599	0.75674
2676.84743	0.75575
2674.91886	0.75434
2672.99030	0.75283
2671.06173	0.75219
2669.13317	0.75232
2667.20461	0.75186
2665.27604	0.75021
2663.34748	0.74830
2661.41891	0.74676
2659.49035	0.74528
2657.56178	0.74346
2655.63322	0.74161
2653.70465	0.74042
2651.77609	0.73946
2649.84753	0.73791
2647.91896	0.73603
2645.99040	0.73443
2644.06183	0.73308
2642.13327	0.73134
2640.20470	0.72932
2638.27614	0.72786
2636.34757	0.72690
2634.41901	0.72549
2632.49045	0.72350
2630.56188	0.72169
2628.63332	0.72029
2626.70475	0.71902
2624.77619	0.71759
2622.84762	0.71626
2620.91906	0.71562
2618.99049	0.71537
2617.06193	0.71477
2615.13337	0.71365
2613.20480	0.71221
2611.27624	0.71073
2609.34767	0.70935
2607.41911	0.70819
2605.49054	0.70738
2603.56198	0.70688
2601.63342	0.70616
2599.70485	0.70489
2597.77629	0.70362
2595.84772	0.70269
2593.91916	0.70151
2591.99059	0.70006
2590.06203	0.69929
2588.13346	0.69893
2586.20490	0.69797
2584.27634	0.69640
2582.34777	0.69462
2580.41921	0.69319
2578.49064	0.69257
2576.56208	0.69239
2574.63351	0.69205
2572.70495	0.69115
2570.77638	0.68968
2568.84782	0.68815
2566.91926	0.68682
2564.99069	0.68553
2563.06213	0.68433
2561.13356	0.68339
2559.20500	0.68262
2557.27643	0.68186
2555.34787	0.68107
2553.41930	0.68016
2551.49074	0.67907
2549.56218	0.67799
2547.63361	0.67721
2545.70505	0.67670
2543.77648	0.67621
2541.84792	0.67568
2539.91935	0.67532
2537.99079	0.67515
2536.06222	0.67484
2534.13366	0.67437
2532.20510	0.67405
2530.27653	0.67382
2528.34797	0.67331
2526.41940	0.67252
2524.49084	0.67191
2522.56227	0.67182
2520.63371	0.67184
2518.70514	0.67129
2516.77658	0.67020
2514.84802	0.66904
2512.91945	0.66817
2510.99089	0.66760
2509.06232	0.66689
2507.13376	0.66572
2505.20519	0.66435
2503.27663	0.66309
2501.34806	0.66194
2499.41950	0.66077
2497.49094	0.65973
2495.56237	0.65893
2493.63381	0.65818
2491.70524	0.65728
2489.77668	0.65609
2487.84811	0.65458
2485.91955	0.65329
2483.99098	0.65247
2482.06242	0.65163
2480.13386	0.65061
2478.20529	0.64968
2476.27673	0.64884
2474.34816	0.64792
2472.41960	0.64693
2470.49103	0.64591
2468.56247	0.64483
2466.63391	0.64384
2464.70534	0.64293
2462.77678	0.64163
2460.84821	0.63998
2458.91965	0.63862
2456.99108	0.63768
2455.06252	0.63691
2453.13395	0.63626
2451.20539	0.63542
2449.27683	0.63401
2447.34826	0.63241
2445.41970	0.63084
2443.49113	0.62918
2441.56257	0.62781
2439.63400	0.62657
2437.70544	0.62487
2435.77687	0.62281
2433.84831	0.62090
2431.91975	0.61932
2429.99118	0.61788
2428.06262	0.61629
2426.13405	0.61451
2424.20549	0.61284
2422.27692	0.61162
2420.34836	0.61059
2418.41979	0.60922
2416.49123	0.60785
2414.56267	0.60729
2412.63410	0.60736
2410.70554	0.60719
2408.77697	0.60654
2406.84841	0.60570
2404.91984	0.60485
2402.99128	0.60408
2401.06271	0.60329
2399.13415	0.60244
2397.20559	0.60179
2395.27702	0.60109
2393.34846	0.60006
2391.41989	0.59891
2389.49133	0.59781
2387.56276	0.59688
2385.63420	0.59606
2383.70563	0.59512
2381.77707	0.59424
2379.84851	0.59349
2377.91994	0.59272
2375.99138	0.59195
2374.06281	0.59145
2372.13425	0.59111
2370.20568	0.59030
2368.27712	0.58926
2366.34855	0.58955
2364.41999	0.59112
2362.49143	0.59159
2360.56286	0.59141
2358.63430	0.59174
2356.70573	0.59206
2354.77717	0.59247
2352.84860	0.59189
2350.92004	0.58971
2348.99147	0.58684
2347.06291	0.58450
2345.13435	0.58443
2343.20578	0.58649
2341.27722	0.58715
2339.34865	0.58648
2337.42009	0.58769
2335.49152	0.59044
2333.56296	0.59219
2331.63440	0.59276
2329.70583	0.59306
2327.77727	0.59263
2325.84870	0.59115
2323.92014	0.59002
2321.99157	0.59009
2320.06301	0.59021
2318.13444	0.58960
2316.20588	0.58880
2314.27732	0.58810
2312.34875	0.58738
2310.42019	0.58674
2308.49162	0.58598
2306.56306	0.58474
2304.63449	0.58326
2302.70593	0.58186
2300.77736	0.58038
2298.84880	0.57888
2296.92024	0.57771
2294.99167	0.57670
2293.06311	0.57545
2291.13454	0.57381
2289.20598	0.57187
2287.27741	0.57010
2285.34885	0.56878
2283.42028	0.56783
2281.49172	0.56711
2279.56316	0.56648
2277.63459	0.56573
2275.70603	0.56459
2273.77746	0.56323
2271.84890	0.56210
2269.92033	0.56116
2267.99177	0.56019
2266.06320	0.55912
2264.13464	0.55814
2262.20608	0.55746
2260.27751	0.55699
2258.34895	0.55658
2256.42038	0.55601
2254.49182	0.55516
2252.56325	0.55434
2250.63469	0.55387
2248.70612	0.55351
2246.77756	0.55298
2244.84900	0.55248
2242.92043	0.55223
2240.99187	0.55189
2239.06330	0.55145
2237.13474	0.55125
2235.20617	0.55098
2233.27761	0.55045
2231.34904	0.54992
2229.42048	0.54938
2227.49192	0.54876
2225.56335	0.54817
2223.63479	0.54765
2221.70622	0.54726
2219.77766	0.54698
2217.84909	0.54665
2215.92053	0.54596
2213.99196	0.54488
2212.06340	0.54390
2210.13484	0.54344
2208.20627	0.54332
2206.27771	0.54320
2204.34914	0.54288
2202.42058	0.54247
2200.49201	0.54227
2198.56345	0.54228
2196.63488	0.54228
2194.70632	0.54228
2192.77776	0.54242
2190.84919	0.54275
2188.92063	0.54311
2186.99206	0.54341
2185.06350	0.54386
2183.13493	0.54442
2181.20637	0.54495
2179.27781	0.54578
2177.34924	0.54688
2175.42068	0.54787
2173.49211	0.54877
2171.56355	0.54957
2169.63498	0.55010
2167.70642	0.55055
2165.77785	0.55127
2163.84929	0.55210
2161.92073	0.55275
2159.99216	0.55326
2158.06360	0.55376
2156.13503	0.55407
2154.20647	0.55406
2152.27790	0.55383
2150.34934	0.55346
2148.42077	0.55305
2146.49221	0.55266
2144.56365	0.55218
2142.63508	0.55151
2140.70652	0.55078
2138.77795	0.55002
2136.84939	0.54912
2134.92082	0.54813
2132.99226	0.54722
2131.06369	0.54634
2129.13513	0.54560
2127.20657	0.54522
2125.27800	0.54500
2123.34944	0.54468
2121.42087	0.54437
2119.49231	0.54407
2117.56374	0.54375
2115.63518	0.54363
2113.70661	0.54368
2111.77805	0.54362
2109.84949	0.54347
2107.92092	0.54356
2105.99236	0.54388
2104.06379	0.54409
2102.13523	0.54398
2100.20666	0.54357
2098.27810	0.54312
2096.34953	0.54262
2094.42097	0.54192
2092.49241	0.54118
2090.56384	0.54049
2088.63528	0.53949
2086.70671	0.53806
2084.77815	0.53646
2082.84958	0.53477
2080.92102	0.53305
2078.99245	0.53158
2077.06389	0.53037
2075.13533	0.52902
2073.20676	0.52725
2071.27820	0.52541
2069.34963	0.52377
2067.42107	0.52235
2065.49250	0.52119
2063.56394	0.52005
2061.63537	0.51871
2059.70681	0.51755
2057.77825	0.51671
2055.84968	0.51595
2053.92112	0.51524
2051.99255	0.51466
2050.06399	0.51407
2048.13542	0.51340
2046.20686	0.51294
2044.27830	0.51291
2042.34973	0.51311
2040.42117	0.51332
2038.49260	0.51340
2036.56404	0.51341
2034.63547	0.51342
2032.70691	0.51345
2030.77834	0.51360
2028.84978	0.51370
2026.92122	0.51350
2024.99265	0.51324
2023.06409	0.51289
2021.13552	0.51214
2019.20696	0.51130
2017.27839	0.51073
2015.34983	0.51009
2013.42126	0.50920
2011.49270	0.50826
2009.56414	0.50725
2007.63557	0.50624
2005.70701	0.50541
2003.77844	0.50469
2001.84988	0.50377
1999.92131	0.50272
1997.99275	0.50178
1996.06418	0.50090
1994.13562	0.50018
1992.20706	0.49987
1990.27849	0.49950
1988.34993	0.49889
1986.42136	0.49845
1984.49280	0.49819
1982.56423	0.49803
1980.63567	0.49805
1978.70710	0.49817
1976.77854	0.49844
1974.84998	0.49904
1972.92141	0.49984
1970.99285	0.50049
1969.06428	0.50108
1967.13572	0.50196
1965.20715	0.50278
1963.27859	0.50320
1961.35002	0.50361
1959.42146	0.50406
1957.49290	0.50427
1955.56433	0.50437
1953.63577	0.50436
1951.70720	0.50412
1949.77864	0.50376
1947.85007	0.50326
1945.92151	0.50264
1943.99294	0.50218
1942.06438	0.50187
1940.13582	0.50103
1938.20725	0.49972
1936.27869	0.49862
1934.35012	0.49803
1932.42156	0.49750
1930.49299	0.49661
1928.56443	0.49556
1926.63586	0.49452
1924.70730	0.49378
1922.77874	0.49345
1920.85017	0.49282
1918.92161	0.49214
1916.99304	0.49183
1915.06448	0.49119
1913.13591	0.49029
1911.20735	0.48993
1909.27878	0.49012
1907.35022	0.49015
1905.42166	0.48994
1903.49309	0.48985
1901.56453	0.48993
1899.63596	0.49018
1897.70740	0.49066
1895.77883	0.49147
1893.85027	0.49213
1891.92171	0.49224
1889.99314	0.49258
1888.06458	0.49301
1886.13601	0.49285
1884.20745	0.49253
1882.27888	0.49237
1880.35032	0.49227
1878.42175	0.49217
1876.49319	0.49184
1874.56463	0.49123
1872.63606	0.49054
1870.70750	0.49037
1868.77893	0.49172
1866.85037	0.49315
1864.92180	0.49304
1862.99324	0.49259
1861.06467	0.49278
1859.13611	0.49353
1857.20755	0.49434
1855.27898	0.49500
1853.35042	0.49562
1851.42185	0.49615
1849.49329	0.49663
1847.56472	0.49716
1845.63616	0.49837
1843.70759	0.50021
1841.77903	0.50059
1839.85047	0.49991
1837.92190	0.49973
1835.99334	0.49982
1834.06477	0.49937
1832.13621	0.49896
1830.20764	0.49954
1828.27908	0.50013
1826.35051	0.50002
1824.42195	0.50012
1822.49339	0.50012
1820.56482	0.49979
1818.63626	0.49988
1816.70769	0.50060
1814.77913	0.50161
1812.85056	0.50279
1810.92200	0.50431
1808.99343	0.50571
1807.06487	0.50661
1805.13631	0.50734
1803.20774	0.50847
1801.27918	0.51046
1799.35061	0.51231
1797.42205	0.51303
1795.49348	0.51322
1793.56492	0.51416
1791.63635	0.51645
1789.70779	0.51745
1787.77923	0.51718
1785.85066	0.51728
1783.92210	0.51777
1781.99353	0.51826
1780.06497	0.51890
1778.13640	0.51910
1776.20784	0.51870
1774.27927	0.51905
1772.35071	0.52171
1770.42215	0.52459
1768.49358	0.52609
1766.56502	0.52740
1764.63645	0.52894
1762.70789	0.53225
1760.77932	0.53748
1758.85076	0.54253
1756.92220	0.54873
1754.99363	0.55512
1753.06507	0.56095
1751.13650	0.57037
1749.20794	0.58444
1747.27937	0.59651
1745.35081	0.60514
1743.42224	0.61271
1741.49368	0.62032
1739.56512	0.62751
1737.63655	0.63168
1735.70799	0.63438
1733.77942	0.64084
1731.85086	0.64675
1729.92229	0.64977
1727.99373	0.65319
1726.06516	0.65735
1724.13660	0.66311
1722.20804	0.66923
1720.27947	0.67488
1718.35091	0.68558
1716.42234	0.70584
1714.49378	0.72337
1712.56521	0.73766
1710.63665	0.75404
1708.70808	0.77371
1706.77952	0.80161
1704.85096	0.83797
1702.92239	0.87076
1700.99383	0.91446
1699.06526	0.98075
1697.13670	1.03784
1695.20813	1.08942
1693.27957	1.12556
1691.35100	1.15171
1689.42244	1.18269
1687.49388	1.21075
1685.56531	1.23754
1683.63675	1.27748
1681.70818	1.30475
1679.77962	1.31855
1677.85105	1.33197
1675.92249	1.34862
1673.99392	1.36311
1672.06536	1.37108
1670.13680	1.38069
1668.20823	1.39294
1666.27967	1.39780
1664.35110	1.39997
1662.42254	1.40382
1660.49397	1.40569
1658.56541	1.40484
1656.63684	1.40252
1654.70828	1.39883
1652.77972	1.39208
1650.85115	1.38781
1648.92259	1.38591
1646.99402	1.38489
1645.06546	1.38314
1643.13689	1.37921
1641.20833	1.37519
1639.27976	1.37099
1637.35120	1.36742
1635.42264	1.36713
1633.49407	1.36601
1631.56551	1.36224
1629.63694	1.35653
1627.70838	1.34909
1625.77981	1.34089
1623.85125	1.33265
1621.92269	1.32368
1619.99412	1.31450
1618.06556	1.30411
1616.13699	1.28986
1614.20843	1.27544
1612.27986	1.26161
1610.35130	1.24731
1608.42273	1.23372
1606.49417	1.22257
1604.56561	1.21382
1602.63704	1.20654
1600.70848	1.20179
1598.77991	1.19965
1596.85135	1.19886
1594.92278	1.19870
1592.99422	1.19902
1591.06565	1.20031
1589.13709	1.20325
1587.20853	1.20786
1585.27996	1.21349
1583.35140	1.22018
1581.42283	1.22716
1579.49427	1.23322
1577.56570	1.24096
1575.63714	1.25233
1573.70857	1.25950
1571.78001	1.26464
1569.85145	1.27487
1567.92288	1.28635
1565.99432	1.29353
1564.06575	1.29901
1562.13719	1.30222
1560.20862	1.30705
1558.28006	1.32241
1556.35149	1.33034
1554.42293	1.33197
1552.49437	1.33169
1550.56580	1.33013
1548.63724	1.32863
1546.70867	1.32690
1544.78011	1.32277
1542.85154	1.31599
1540.92298	1.31448
1538.99441	1.31833
1537.06585	1.31685
1535.13729	1.31273
1533.20872	1.30809
1531.28016	1.30415
1529.35159	1.30098
1527.42303	1.29820
1525.49446	1.29587
1523.56590	1.29452
1521.63733	1.29347
1519.70877	1.29092
1517.78021	1.28536
1515.85164	1.27693
1513.92308	1.26722
1511.99451	1.25674
1510.06595	1.24636
1508.13738	1.23221
1506.20882	1.20821
1504.28025	1.19311
1502.35169	1.18267
1500.42313	1.17039
1498.49456	1.15371
1496.56600	1.13295
1494.63743	1.11524
1492.70887	1.10187
1490.78030	1.08785
1488.85174	1.07156
1486.92317	1.05837
1484.99461	1.04898
1483.06605	1.04258
1481.13748	1.03953
1479.20892	1.03974
1477.28035	1.04301
1475.35179	1.05081
1473.42322	1.06668
1471.49466	1.08392
1469.56610	1.09217
1467.63753	1.09770
1465.70897	1.10637
1463.78040	1.11613
1461.85184	1.12111
1459.92327	1.12352
1457.99471	1.13022
1456.06614	1.14053
1454.13758	1.14284
1452.20902	1.14185
1450.28045	1.14057
1448.35189	1.13847
1446.42332	1.13453
1444.49476	1.12933
1442.56619	1.12341
1440.63763	1.11704
1438.70906	1.10966
1436.78050	1.09844
1434.85194	1.08492
1432.92337	1.07312
1430.99481	1.06149
1429.06624	1.05024
1427.13768	1.04142
1425.20911	1.03467
1423.28055	1.03016
1421.35198	1.02842
1419.42342	1.02891
1417.49486	1.03000
1415.56629	1.02963
1413.63773	1.02895
1411.70916	1.02945
1409.78060	1.03111
1407.85203	1.03373
1405.92347	1.03858
1403.99490	1.04478
1402.06634	1.04939
1400.13778	1.05358
1398.20921	1.05889
1396.28065	1.06491
1394.35208	1.07120
1392.42352	1.07620
1390.49495	1.08058
1388.56639	1.08777
1386.63782	1.09892
1384.70926	1.10950
1382.78070	1.11806
1380.85213	1.12529
1378.92357	1.12983
1376.99500	1.12962
1375.06644	1.12259
1373.13787	1.11047
1371.20931	1.09854
1369.28074	1.08579
1367.35218	1.07095
1365.42362	1.05673
1363.49505	1.04323
1361.56649	1.03047
1359.63792	1.02093
1357.70936	1.01466
1355.78079	1.01083
1353.85223	1.00892
1351.92366	1.00834
1349.99510	1.00841
1348.06654	1.00865
1346.13797	1.00947
1344.20941	1.01149
1342.28084	1.01454
1340.35228	1.01919
1338.42371	1.02576
1336.49515	1.03279
1334.56659	1.04058
1332.63802	1.05016
1330.70946	1.06106
1328.78089	1.07161
1326.85233	1.08033
1324.92376	1.08675
1322.99520	1.09152
1321.06663	1.09623
1319.13807	1.10191
1317.20951	1.10735
1315.28094	1.11108
1313.35238	1.11320
1311.42381	1.11395
1309.49525	1.11395
1307.56668	1.11403
1305.63812	1.11343
1303.70955	1.11101
1301.78099	1.10700
1299.85243	1.10234
1297.92386	1.09747
1295.99530	1.09204
1294.06673	1.08638
1292.13817	1.08180
1290.20960	1.07872
1288.28104	1.07606
1286.35247	1.07359
1284.42391	1.07217
1282.49535	1.07117
1280.56678	1.06970
1278.63822	1.06842
1276.70965	1.06810
1274.78109	1.06896
1272.85252	1.07135
1270.92396	1.07517
1268.99539	1.07968
1267.06683	1.08430
1265.13827	1.08847
1263.20970	1.09131
1261.28114	1.09240
1259.35257	1.09254
1257.42401	1.09293
1255.49544	1.09369
1253.56688	1.09474
1251.63831	1.09618
1249.70975	1.09704
1247.78119	1.09642
1245.85262	1.09504
1243.92406	1.09367
1241.99549	1.09196
1240.06693	1.08969
1238.13836	1.08678
1236.20980	1.08263
1234.28123	1.07728
1232.35267	1.07120
1230.42411	1.06408
1228.49554	1.05568
1226.56698	1.04632
1224.63841	1.03645
1222.70985	1.02677
1220.78128	1.01778
1218.85272	1.00954
1216.92415	1.00259
1214.99559	0.99774
1213.06703	0.99532
1211.13846	0.99496
1209.20990	0.99557
1207.28133	0.99582
1205.35277	0.99442
1203.42420	0.99071
1201.49564	0.98540
1199.56708	0.97969
1197.63851	0.97433
1195.70995	0.96999
1193.78138	0.96701
1191.85282	0.96545
1189.92425	0.96562
1187.99569	0.96781
1186.06712	0.97172
1184.13856	0.97671
1182.21000	0.98284
1180.28143	0.99083
1178.35287	1.00098
1176.42430	1.01264
1174.49574	1.02459
1172.56717	1.03576
1170.63861	1.04670
1168.71004	1.05937
1166.78148	1.07437
1164.85292	1.08982
1162.92435	1.10267
1160.99579	1.11035
1159.06722	1.11262
1157.13866	1.11061
1155.21009	1.10396
1153.28153	1.09294
1151.35296	1.08053
1149.42440	1.06871
1147.49584	1.05774
1145.56727	1.04855
1143.63871	1.04237
1141.71014	1.03961
1139.78158	1.04009
1137.85301	1.04353
1135.92445	1.04956
1133.99588	1.05762
1132.06732	1.06762
1130.13876	1.07980
1128.21019	1.09339
1126.28163	1.10671
1124.35306	1.11856
1122.42450	1.12880
1120.49593	1.13818
1118.56737	1.14653
1116.63880	1.15127
1114.71024	1.15070
1112.78168	1.14734
1110.85311	1.14452
1108.92455	1.14224
1106.99598	1.13941
1105.06742	1.13604
1103.13885	1.13259
1101.21029	1.12998
1099.28172	1.12834
1097.35316	1.12768
1095.42460	1.12942
1093.49603	1.13429
1091.56747	1.14062
1089.63890	1.14686
1087.71034	1.15427
1085.78177	1.16399
1083.85321	1.17455
1081.92464	1.18322
1079.99608	1.18794
1078.06752	1.18944
1076.13895	1.18861
1074.21039	1.18415
1072.28182	1.17567
1070.35326	1.16474
1068.42469	1.15313
1066.49613	1.14180
1064.56756	1.13091
1062.63900	1.12011
1060.71044	1.10950
1058.78187	1.09935
1056.85331	1.08907
1054.92474	1.07920
1052.99618	1.07203
1051.06761	1.06838
1049.13905	1.06723
1047.21049	1.06834
1045.28192	1.07207
1043.35336	1.07764
1041.42479	1.08379
1039.49623	1.09013
1037.56766	1.09642
1035.63910	1.10137
1033.71053	1.10398
1031.78197	1.10452
1029.85341	1.10295
1027.92484	1.09880
1025.99628	1.09239
1024.06771	1.08491
1022.13915	1.07777
1020.21058	1.07166
1018.28202	1.06593
1016.35345	1.05931
1014.42489	1.05096
1012.49633	1.04049
1010.56776	1.02754
1008.63920	1.01193
1006.71063	0.99493
1004.78207	0.97828
1002.85350	0.96236
1000.92494	0.94760
998.99637	0.93527
997.06781	0.92560
995.13925	0.91735
993.21068	0.90903
991.28212	0.90019
989.35355	0.89136
987.42499	0.88347
985.49642	0.87701
983.56786	0.87162
981.63929	0.86694
979.71073	0.86319
977.78217	0.86044
975.85360	0.85794
973.92504	0.85432
971.99647	0.84858
970.06791	0.84106
968.13934	0.83313
966.21078	0.82660
964.28221	0.82276
962.35365	0.82203
960.42509	0.82528
958.49652	0.83305
956.56796	0.84229
954.63939	0.84772
952.71083	0.84688
950.78226	0.84106
948.85370	0.83302
946.92513	0.82490
944.99657	0.81744
943.06801	0.81104
941.13944	0.80643
939.21088	0.80325
937.28231	0.80011
935.35375	0.79634
933.42518	0.79236
931.49662	0.78874
929.56805	0.78555
927.63949	0.78237
925.71093	0.77901
923.78236	0.77581
921.85380	0.77262
919.92523	0.76866
917.99667	0.76351
916.06810	0.75753
914.13954	0.75181
912.21098	0.74718
910.28241	0.74396
908.35385	0.74261
906.42528	0.74333
904.49672	0.74554
902.56815	0.74861
900.63959	0.75245
898.71102	0.75663
896.78246	0.75999
894.85390	0.76245
892.92533	0.76481
890.99677	0.76680
889.06820	0.76826
887.13964	0.76981
885.21107	0.77166
883.28251	0.77386
881.35394	0.77669
879.42538	0.78009
877.49682	0.78333
875.56825	0.78540
873.63969	0.78647
871.71112	0.78756
869.78256	0.78843
867.85399	0.78815
865.92543	0.78687
863.99686	0.78497
862.06830	0.78282
860.13974	0.78120
858.21117	0.78019
856.28261	0.77921
854.35404	0.77792
852.42548	0.77602
850.49691	0.77365
848.56835	0.77132
846.63978	0.76925
844.71122	0.76769
842.78266	0.76693
840.85409	0.76700
838.92553	0.76788
836.99696	0.76966
835.06840	0.77228
833.13983	0.77516
831.21127	0.77805
829.28270	0.78136
827.35414	0.78531
825.42558	0.78987
823.49701	0.79499
821.56845	0.80054
819.63988	0.80638
817.71132	0.81238
815.78275	0.81850
813.85419	0.82430
811.92562	0.82965
809.99706	0.83565
808.06850	0.84251
806.13993	0.84878
804.21137	0.85379
802.28280	0.85819
800.35424	0.86211
798.42567	0.86509
796.49711	0.86789
794.56854	0.87145
792.63998	0.87496
790.71142	0.87710
788.78285	0.87827
786.85429	0.88012
784.92572	0.88273
782.99716	0.88509
781.06859	0.88700
779.14003	0.88825
777.21147	0.88900
775.28290	0.89038
773.35434	0.89247
771.42577	0.89406
769.49721	0.89433
767.56864	0.89390
765.64008	0.89399
763.71151	0.89483
761.78295	0.89572
759.85439	0.89626
757.92582	0.89666
755.99726	0.89730
754.06869	0.89830
752.14013	0.89936
750.21156	0.90012
748.28300	0.89960
746.35443	0.89733
744.42587	0.89500
742.49731	0.89358
740.56874	0.89179
738.64018	0.88895
736.71161	0.88561
734.78305	0.88250
732.85448	0.88026
730.92592	0.87811
728.99735	0.87436
727.06879	0.86975
725.14023	0.86620
723.21166	0.86367
721.28310	0.86161
719.35453	0.85944
717.42597	0.85622
715.49740	0.85272
713.56884	0.85020
711.64027	0.84845
709.71171	0.84708
707.78315	0.84660
705.85458	0.84749
703.92602	0.84913
701.99745	0.84993
700.06889	0.85008
698.14032	0.85123
696.21176	0.85341
694.28319	0.85553
692.35463	0.85742
690.42607	0.85936
688.49750	0.86107
686.56894	0.86291
684.64037	0.86602
682.71181	0.87014
680.78324	0.87461
678.85468	0.88005
676.92611	0.88615
674.99755	0.89194
673.06899	0.89722
671.14042	0.90220
669.21186	0.91027
667.28329	0.92159
665.35473	0.92722
663.42616	0.93044
661.49760	0.93479
659.56903	0.94004
657.64047	0.94488
655.71191	0.94891
653.78334	0.95363
651.85478	0.95996
649.92621	0.96629
647.99765	0.97092
646.06908	0.97512
644.14052	0.98057
642.21195	0.98607
640.28339	0.99026
638.35483	0.99357
636.42626	0.99672
634.49770	0.99970
632.56913	1.00217
630.64057	1.00413
628.71200	1.00573
626.78344	1.00766
624.85488	1.00999
622.92631	1.01100
620.99775	1.01054
619.06918	1.01033
617.14062	1.01030
615.21205	1.00953
613.28349	1.00838
611.35492	1.00777
609.42636	1.00810
607.49780	1.00788
605.56923	1.00440
603.64067	0.99881
601.71210	0.99537
599.78354	0.99321
