3997.91406	0.66624
3995.98550	0.66508
3994.05693	0.66631
3992.12837	0.66931
3990.19980	0.67078
3988.27124	0.66853
3986.34268	0.66489
3984.41411	0.66371
3982.48555	0.66546
3980.55698	0.66718
3978.62842	0.66660
3976.69985	0.66524
3974.77129	0.66490
3972.84272	0.66454
3970.91416	0.66338
3968.98560	0.66305
3967.05703	0.66422
3965.12847	0.66479
3963.19990	0.66344
3961.27134	0.66181
3959.34277	0.66178
3957.41421	0.66271
3955.48564	0.66342
3953.55708	0.66332
3951.62852	0.66175
3949.69995	0.65981
3947.77139	0.65857
3945.84282	0.65664
3943.91426	0.65519
3941.98569	0.65612
3940.05713	0.65634
3938.12856	0.65364
3936.20000	0.65018
3934.27144	0.64865
3932.34287	0.64999
3930.41431	0.65229
3928.48574	0.65244
3926.55718	0.65057
3924.62861	0.64863
3922.70005	0.64707
3920.77148	0.64558
3918.84292	0.64559
3916.91436	0.64723
3914.98579	0.64768
3913.05723	0.64652
3911.12866	0.64500
3909.20010	0.64197
3907.27153	0.63624
3905.34297	0.63179
3903.41440	0.63501
3901.48584	0.64142
3899.55728	0.64431
3897.62871	0.64354
3895.70015	0.64013
3893.77158	0.63674
3891.84302	0.63707
3889.91445	0.63778
3887.98589	0.63557
3886.05733	0.63529
3884.12876	0.63650
3882.20020	0.63489
3880.27163	0.63436
3878.34307	0.63368
3876.41450	0.63013
3874.48594	0.62515
3872.55737	0.62022
3870.62881	0.62137
3868.70025	0.62737
3866.77168	0.62707
3864.84312	0.62443
3862.91455	0.62648
3860.98599	0.62803
3859.05742	0.62493
3857.12886	0.61682
3855.20029	0.60605
3853.27173	0.61063
3851.34317	0.62381
3849.41460	0.62530
3847.48604	0.62210
3845.55747	0.61800
3843.62891	0.61352
3841.70034	0.60855
3839.77178	0.60617
3837.84321	0.61152
3835.91465	0.61694
3833.98609	0.61737
3832.05752	0.61722
3830.12896	0.61795
3828.20039	0.61883
3826.27183	0.61841
3824.34326	0.61295
3822.41470	0.60609
3820.48613	0.60746
3818.55757	0.60863
3816.62901	0.60869
3814.70044	0.61330
3812.77188	0.61514
3810.84331	0.61340
3808.91475	0.61214
3806.98618	0.61318
3805.05762	0.61068
3803.12905	0.60544
3801.20049	0.60828
3799.27193	0.61297
3797.34336	0.61414
3795.41480	0.61669
3793.48623	0.61746
3791.55767	0.61555
3789.62910	0.61352
3787.70054	0.61186
3785.77197	0.61125
3783.84341	0.61108
3781.91485	0.60892
3779.98628	0.60760
3778.05772	0.61023
3776.12915	0.61199
3774.20059	0.60994
3772.27202	0.60565
3770.34346	0.60325
3768.41489	0.60447
3766.48633	0.60567
3764.55777	0.60523
3762.62920	0.60355
3760.70064	0.60332
3758.77207	0.60591
3756.84351	0.60548
3754.91494	0.59951
3752.98638	0.59111
3751.05781	0.59022
3749.12925	0.59633
3747.20069	0.59525
3745.27212	0.59530
3743.34356	0.60282
3741.41499	0.60523
3739.48643	0.60028
3737.55786	0.59238
3735.62930	0.59006
3733.70074	0.59797
3731.77217	0.60369
3729.84361	0.60266
3727.91504	0.59831
3725.98648	0.59523
3724.05791	0.59570
3722.12935	0.59784
3720.20078	0.59989
3718.27222	0.60064
3716.34366	0.59904
3714.41509	0.59500
3712.48653	0.59270
3710.55796	0.59741
3708.62940	0.60115
3706.70083	0.60053
3704.77227	0.59832
3702.84370	0.59856
3700.91514	0.60217
3698.98658	0.60346
3697.05801	0.60265
3695.12945	0.60207
3693.20088	0.60038
3691.27232	0.59729
3689.34375	0.59971
3687.41519	0.60856
3685.48662	0.61413
3683.55806	0.61495
3681.62950	0.61320
3679.70093	0.61084
3677.77237	0.60909
3675.84380	0.61533
3673.91524	0.62376
3671.98667	0.62412
3670.05811	0.63082
3668.12954	0.64249
3666.20098	0.64580
3664.27242	0.64627
3662.34385	0.64972
3660.41529	0.65486
3658.48672	0.65882
3656.55816	0.66433
3654.62959	0.66886
3652.70103	0.66779
3650.77246	0.66673
3648.84390	0.67999
3646.91534	0.69804
3644.98677	0.70660
3643.05821	0.71075
3641.12964	0.71512
3639.20108	0.72083
3637.27251	0.72627
3635.34395	0.73078
3633.41538	0.73392
3631.48682	0.73429
3629.55826	0.74123
3627.62969	0.76098
3625.70113	0.77216
3623.77256	0.77495
3621.84400	0.77541
3619.91543	0.78016
3617.98687	0.79115
3616.05830	0.80011
3614.12974	0.80820
3612.20118	0.81617
3610.27261	0.82296
3608.34405	0.83374
3606.41548	0.84453
3604.48692	0.84814
3602.55835	0.85048
3600.62979	0.85834
3598.70123	0.86889
3596.77266	0.87799
3594.84410	0.88734
3592.91553	0.89442
3590.98697	0.89732
3589.05840	0.90321
3587.12984	0.91797
3585.20127	0.93185
3583.27271	0.94137
3581.34415	0.95003
3579.41558	0.95724
3577.48702	0.96383
3575.55845	0.97381
3573.62989	0.98543
3571.70132	0.99275
3569.77276	0.99649
3567.84419	1.00456
3565.91563	1.01785
3563.98707	1.02634
3562.05850	1.03320
3560.12994	1.04181
3558.20137	1.04998
3556.27281	1.05710
3554.34424	1.06656
3552.41568	1.07926
3550.48711	1.08943
3548.55855	1.09549
3546.62999	1.10178
3544.70142	1.11060
3542.77286	1.11887
3540.84429	1.12560
3538.91573	1.13314
3536.98716	1.14168
3535.05860	1.15022
3533.13003	1.15914
3531.20147	1.16783
3529.27291	1.17654
3527.34434	1.18867
3525.41578	1.20206
3523.48721	1.21174
3521.55865	1.21949
3519.63008	1.22755
3517.70152	1.23658
3515.77295	1.24657
3513.84439	1.25565
3511.91583	1.26191
3509.98726	1.26705
3508.05870	1.27404
3506.13013	1.28095
3504.20157	1.28895
3502.27300	1.30168
3500.34444	1.31604
3498.41587	1.32889
3496.48731	1.33837
3494.55875	1.34420
3492.63018	1.34979
3490.70162	1.35556
3488.77305	1.35933
3486.84449	1.36217
3484.91592	1.36658
3482.98736	1.37272
3481.05879	1.37796
3479.13023	1.37961
3477.20167	1.38045
3475.27310	1.38473
3473.34454	1.39117
3471.41597	1.39846
3469.48741	1.40767
3467.55884	1.41437
3465.63028	1.41759
3463.70171	1.42589
3461.77315	1.43898
3459.84459	1.44214
3457.91602	1.43414
3455.98746	1.43377
3454.05889	1.44427
3452.13033	1.45284
3450.20176	1.45709
3448.27320	1.45799
3446.34464	1.45444
3444.41607	1.45205
3442.48751	1.45598
3440.55894	1.46422
3438.63038	1.47086
3436.70181	1.47299
3434.77325	1.47459
3432.84468	1.47801
3430.91612	1.47746
3428.98756	1.47379
3427.05899	1.47322
3425.13043	1.47570
3423.20186	1.47985
3421.27330	1.48317
3419.34473	1.48280
3417.41617	1.47930
3415.48760	1.47945
3413.55904	1.48851
3411.63048	1.49673
3409.70191	1.49601
3407.77335	1.49510
3405.84478	1.50160
3403.91622	1.50980
3401.98765	1.50936
3400.05909	1.50280
3398.13052	1.50207
3396.20196	1.50830
3394.27340	1.51131
3392.34483	1.50749
3390.41627	1.50297
3388.48770	1.50122
3386.55914	1.50190
3384.63057	1.50498
3382.70201	1.51031
3380.77344	1.51695
3378.84488	1.52322
3376.91632	1.52875
3374.98775	1.52998
3373.05919	1.52468
3371.13062	1.51927
3369.20206	1.51627
3367.27349	1.51597
3365.34493	1.51947
3363.41636	1.52303
3361.48780	1.52883
3359.55924	1.53902
3357.63067	1.54580
3355.70211	1.54633
3353.77354	1.54772
3351.84498	1.55444
3349.91641	1.56229
3347.98785	1.56267
3346.05928	1.55412
3344.13072	1.54580
3342.20216	1.54428
3340.27359	1.54799
3338.34503	1.55353
3336.41646	1.55926
3334.48790	1.56413
3332.55933	1.56683
3330.63077	1.56933
3328.70220	1.57416
3326.77364	1.57868
3324.84508	1.58026
3322.91651	1.58072
3320.98795	1.58155
3319.05938	1.58194
3317.13082	1.58201
3315.20225	1.58321
3313.27369	1.58728
3311.34513	1.59221
3309.41656	1.59324
3307.48800	1.59329
3305.55943	1.59610
3303.63087	1.59809
3301.70230	1.59724
3299.77374	1.59329
3297.84517	1.58777
3295.91661	1.58620
3293.98805	1.59076
3292.05948	1.59615
3290.13092	1.59515
3288.20235	1.58965
3286.27379	1.58516
3284.34522	1.58158
3282.41666	1.57917
3280.48809	1.57713
3278.55953	1.57320
3276.63097	1.57269
3274.70240	1.57969
3272.77384	1.58552
3270.84527	1.58213
3268.91671	1.57162
3266.98814	1.55951
3265.05958	1.55217
3263.13101	1.54991
3261.20245	1.54925
3259.27389	1.55002
3257.34532	1.54662
3255.41676	1.53376
3253.48819	1.52089
3251.55963	1.51576
3249.63106	1.51345
3247.70250	1.51296
3245.77393	1.51570
3243.84537	1.51418
3241.91681	1.50268
3239.98824	1.48488
3238.05968	1.46946
3236.13111	1.46186
3234.20255	1.46133
3232.27398	1.46377
3230.34542	1.46330
3228.41685	1.46056
3226.48829	1.45955
3224.55973	1.45885
3222.63116	1.45796
3220.70260	1.45829
3218.77403	1.45950
3216.84547	1.46013
3214.91690	1.45749
3212.98834	1.45034
3211.05977	1.44050
3209.13121	1.43260
3207.20265	1.43172
3205.27408	1.43498
3203.34552	1.43533
3201.41695	1.43190
3199.48839	1.42592
3197.55982	1.41846
3195.63126	1.41223
3193.70269	1.40790
3191.77413	1.40401
3189.84557	1.40059
3187.91700	1.39980
3185.98844	1.40003
3184.05987	1.39672
3182.13131	1.39094
3180.20274	1.38646
3178.27418	1.38258
3176.34562	1.37642
3174.41705	1.36953
3172.48849	1.36425
3170.55992	1.35903
3168.63136	1.35597
3166.70279	1.35864
3164.77423	1.36003
3162.84566	1.35216
3160.91710	1.34142
3158.98854	1.33762
3157.05997	1.33897
3155.13141	1.33729
3153.20284	1.33131
3151.27428	1.32723
3149.34571	1.32806
3147.41715	1.32837
3145.48858	1.32375
3143.56002	1.31810
3141.63146	1.31485
3139.70289	1.31286
3137.77433	1.31045
3135.84576	1.30868
3133.91720	1.30915
3131.98863	1.30847
3130.06007	1.30576
3128.13150	1.30429
3126.20294	1.30230
3124.27438	1.29923
3122.34581	1.29858
3120.41725	1.29911
3118.48868	1.29704
3116.56012	1.29468
3114.63155	1.29642
3112.70299	1.29941
3110.77442	1.29825
3108.84586	1.29509
3106.91730	1.29536
3104.98873	1.29767
3103.06017	1.29698
3101.13160	1.29377
3099.20304	1.29219
3097.27447	1.29322
3095.34591	1.29440
3093.41734	1.29468
3091.48878	1.29646
3089.56022	1.30114
3087.63165	1.30512
3085.70309	1.30444
3083.77452	1.30088
3081.84596	1.29770
3079.91739	1.29497
3077.98883	1.29281
3076.06026	1.29212
3074.13170	1.29047
3072.20314	1.28550
3070.27457	1.28116
3068.34601	1.28148
3066.41744	1.28391
3064.48888	1.28343
3062.56031	1.27856
3060.63175	1.27254
3058.70318	1.26870
3056.77462	1.26638
3054.84606	1.26250
3052.91749	1.25618
3050.98893	1.25026
3049.06036	1.24660
3047.13180	1.24262
3045.20323	1.23639
3043.27467	1.23040
3041.34610	1.22624
3039.41754	1.22260
3037.48898	1.21895
3035.56041	1.21458
3033.63185	1.20907
3031.70328	1.20528
3029.77472	1.20391
3027.84615	1.20158
3025.91759	1.19713
3023.98903	1.19204
3022.06046	1.18792
3020.13190	1.18606
3018.20333	1.18645
3016.27477	1.18721
3014.34620	1.18652
3012.41764	1.18424
3010.48907	1.18069
3008.56051	1.17722
3006.63195	1.17598
3004.70338	1.17561
3002.77482	1.17364
3000.84625	1.17184
2998.91769	1.17199
2996.98912	1.17329
2995.06056	1.17544
2993.13199	1.17821
2991.20343	1.18154
2989.27487	1.18741
2987.34630	1.19712
2985.41774	1.20778
2983.48917	1.21619
2981.56061	1.22322
2979.63204	1.22890
2977.70348	1.23345
2975.77491	1.24123
2973.84635	1.25156
2971.91779	1.25863
2969.98922	1.26367
2968.06066	1.27240
2966.13209	1.28472
2964.20353	1.29567
2962.27496	1.30185
2960.34640	1.30290
2958.41783	1.29974
2956.48927	1.29360
2954.56071	1.28667
2952.63214	1.28145
2950.70358	1.27838
2948.77501	1.27666
2946.84645	1.27584
2944.91788	1.27778
2942.98932	1.28617
2941.06075	1.29987
2939.13219	1.31397
2937.20363	1.32748
2935.27506	1.34046
2933.34650	1.35058
2931.41793	1.35759
2929.48937	1.36425
2927.56080	1.37165
2925.63224	1.37752
2923.70367	1.38055
2921.77511	1.38204
2919.84655	1.38194
2917.91798	1.37508
2915.98942	1.35594
2914.06085	1.32879
2912.13229	1.30162
2910.20372	1.27685
2908.27516	1.25525
2906.34659	1.23890
2904.41803	1.22935
2902.48947	1.22445
2900.56090	1.21905
2898.63234	1.21209
2896.70377	1.20604
2894.77521	1.20059
2892.84664	1.19510
2890.91808	1.19089
2888.98952	1.18673
2887.06095	1.18146
2885.13239	1.17823
2883.20382	1.17923
2881.27526	1.18196
2879.34669	1.18375
2877.41813	1.18582
2875.48956	1.18851
2873.56100	1.18789
2871.63244	1.18241
2869.70387	1.17480
2867.77531	1.16740
2865.84674	1.16141
2863.91818	1.15806
2861.98961	1.15856
2860.06105	1.16257
2858.13248	1.16879
2856.20392	1.17777
2854.27536	1.18974
2852.34679	1.19996
2850.41823	1.19944
2848.48966	1.18128
2846.56110	1.14905
2844.63253	1.11451
2842.70397	1.08590
2840.77540	1.06431
2838.84684	1.04837
2836.91828	1.03740
2834.98971	1.02996
2833.06115	1.02364
2831.13258	1.01753
2829.20402	1.01145
2827.27545	1.00591
2825.34689	1.00245
2823.41832	1.00003
2821.48976	0.99601
2819.56120	0.99105
2817.63263	0.98750
2815.70407	0.98526
2813.77550	0.98227
2811.84694	0.97804
2809.91837	0.97418
2807.98981	0.97103
2806.06124	0.96710
2804.13268	0.96166
2802.20412	0.95646
2800.27555	0.95297
2798.34699	0.94945
2796.41842	0.94532
2794.48986	0.94219
2792.56129	0.93935
2790.63273	0.93600
2788.70416	0.93296
2786.77560	0.92994
2784.84704	0.92619
2782.91847	0.92189
2780.98991	0.91740
2779.06134	0.91348
2777.13278	0.91081
2775.20421	0.90862
2773.27565	0.90616
2771.34708	0.90353
2769.41852	0.90090
2767.48996	0.89882
2765.56139	0.89701
2763.63283	0.89425
2761.70426	0.89078
2759.77570	0.88782
2757.84713	0.88547
2755.91857	0.88289
2753.99001	0.87962
2752.06144	0.87573
2750.13288	0.87225
2748.20431	0.87002
2746.27575	0.86796
2744.34718	0.86520
2742.41862	0.86242
2740.49005	0.85985
2738.56149	0.85696
2736.63293	0.85367
2734.70436	0.85046
2732.77580	0.84744
2730.84723	0.84459
2728.91867	0.84211
2726.99010	0.83964
2725.06154	0.83671
2723.13297	0.83393
2721.20441	0.83183
2719.27585	0.82999
2717.34728	0.82819
2715.41872	0.82667
2713.49015	0.82540
2711.56159	0.82420
2709.63302	0.82249
2707.70446	0.81959
2705.77589	0.81649
2703.84733	0.81428
2701.91877	0.81219
2699.99020	0.80999
2698.06164	0.80834
2696.13307	0.80695
2694.20451	0.80537
2692.27594	0.80366
2690.34738	0.80174
2688.41881	0.79943
2686.49025	0.79712
2684.56169	0.79485
2682.63312	0.79229
2680.70456	0.78984
2678.77599	0.78776
2676.84743	0.78568
2674.91886	0.78308
2672.99030	0.78010
2671.06173	0.77768
2669.13317	0.77626
2667.20461	0.77520
2665.27604	0.77383
2663.34748	0.77210
2661.41891	0.77016
2659.49035	0.76798
2657.56178	0.76595
2655.63322	0.76502
2653.70465	0.76536
2651.77609	0.76561
2649.84753	0.76470
2647.91896	0.76333
2645.99040	0.76208
2644.06183	0.76034
2642.13327	0.75815
2640.20470	0.75631
2638.27614	0.75496
2636.34757	0.75380
2634.41901	0.75232
2632.49045	0.75029
2630.56188	0.74797
2628.63332	0.74557
2626.70475	0.74327
2624.77619	0.74102
2622.84762	0.73850
2620.91906	0.73587
2618.99049	0.73344
2617.06193	0.73124
2615.13337	0.72922
2613.20480	0.72693
2611.27624	0.72398
2609.34767	0.72098
2607.41911	0.71864
2605.49054	0.71653
2603.56198	0.71438
2601.63342	0.71271
2599.70485	0.71151
2597.77629	0.71032
2595.84772	0.70908
2593.91916	0.70785
2591.99059	0.70672
2590.06203	0.70596
2588.13346	0.70524
2586.20490	0.70413
2584.27634	0.70286
2582.34777	0.70184
2580.41921	0.70111
2578.49064	0.70026
2576.56208	0.69897
2574.63351	0.69726
2572.70495	0.69557
2570.77638	0.69426
2568.84782	0.69275
2566.91926	0.69065
2564.99069	0.68860
2563.06213	0.68681
2561.13356	0.68488
2559.20500	0.68273
2557.27643	0.68074
2555.34787	0.67887
2553.41930	0.67666
2551.49074	0.67440
2549.56218	0.67278
2547.63361	0.67160
2545.70505	0.67042
2543.77648	0.66929
2541.84792	0.66829
2539.91935	0.66741
2537.99079	0.66680
2536.06222	0.66637
2534.13366	0.66586
2532.20510	0.66535
2530.27653	0.66493
2528.34797	0.66440
2526.41940	0.66382
2524.49084	0.66343
2522.56227	0.66334
2520.63371	0.66364
2518.70514	0.66400
2516.77658	0.66373
2514.84802	0.66283
2512.91945	0.66181
2510.99089	0.66061
2509.06232	0.65888
2507.13376	0.65675
2505.20519	0.65461
2503.27663	0.65256
2501.34806	0.65047
2499.41950	0.64822
2497.49094	0.64591
2495.56237	0.64387
2493.63381	0.64208
2491.70524	0.64021
2489.77668	0.63822
2487.84811	0.63612
2485.91955	0.63377
2483.99098	0.63104
2482.06242	0.62826
2480.13386	0.62611
2478.20529	0.62463
2476.27673	0.62307
2474.34816	0.62114
2472.41960	0.61920
2470.49103	0.61734
2468.56247	0.61542
2466.63391	0.61374
2464.70534	0.61263
2462.77678	0.61187
2460.84821	0.61108
2458.91965	0.61006
2456.99108	0.60883
2455.06252	0.60758
2453.13395	0.60640
2451.20539	0.60510
2449.27683	0.60368
2447.34826	0.60221
2445.41970	0.60078
2443.49113	0.59953
2441.56257	0.59830
2439.63400	0.59683
2437.70544	0.59520
2435.77687	0.59365
2433.84831	0.59230
2431.91975	0.59094
2429.99118	0.58944
2428.06262	0.58819
2426.13405	0.58728
2424.20549	0.58619
2422.27692	0.58480
2420.34836	0.58357
2418.41979	0.58270
2416.49123	0.58191
2414.56267	0.58078
2412.63410	0.57948
2410.70554	0.57854
2408.77697	0.57804
2406.84841	0.57757
2404.91984	0.57686
2402.99128	0.57583
2401.06271	0.57460
2399.13415	0.57392
2397.20559	0.57403
2395.27702	0.57419
2393.34846	0.57390
2391.41989	0.57320
2389.49133	0.57213
2387.56276	0.57103
2385.63420	0.57045
2383.70563	0.57035
2381.77707	0.57021
2379.84851	0.56978
2377.91994	0.56906
2375.99138	0.56868
2374.06281	0.56932
2372.13425	0.57024
2370.20568	0.57053
2368.27712	0.57054
2366.34855	0.57101
2364.41999	0.57182
2362.49143	0.57152
2360.56286	0.56856
2358.63430	0.56453
2356.70573	0.56259
2354.77717	0.56098
2352.84860	0.55793
2350.92004	0.55504
2348.99147	0.55288
2347.06291	0.55153
2345.13435	0.55173
2343.20578	0.55245
2341.27722	0.55159
2339.34865	0.55046
2337.42009	0.55021
2335.49152	0.54999
2333.56296	0.55011
2331.63440	0.55041
2329.70583	0.54928
2327.77727	0.54732
2325.84870	0.54578
2323.92014	0.54449
2321.99157	0.54384
2320.06301	0.54353
2318.13444	0.54233
2316.20588	0.54020
2314.27732	0.53764
2312.34875	0.53507
2310.42019	0.53328
2308.49162	0.53246
2306.56306	0.53158
2304.63449	0.52985
2302.70593	0.52787
2300.77736	0.52641
2298.84880	0.52532
2296.92024	0.52426
2294.99167	0.52336
2293.06311	0.52258
2291.13454	0.52160
2289.20598	0.52056
2287.27741	0.51978
2285.34885	0.51911
2283.42028	0.51863
2281.49172	0.51841
2279.56316	0.51823
2277.63459	0.51804
2275.70603	0.51784
2273.77746	0.51746
2271.84890	0.51695
2269.92033	0.51645
2267.99177	0.51592
2266.06320	0.51540
2264.13464	0.51501
2262.20608	0.51463
2260.27751	0.51407
2258.34895	0.51320
2256.42038	0.51219
2254.49182	0.51129
2252.56325	0.51046
2250.63469	0.50963
2248.70612	0.50885
2246.77756	0.50804
2244.84900	0.50718
2242.92043	0.50639
2240.99187	0.50570
2239.06330	0.50522
2237.13474	0.50491
2235.20617	0.50455
2233.27761	0.50413
2231.34904	0.50382
2229.42048	0.50356
2227.49192	0.50330
2225.56335	0.50325
2223.63479	0.50329
2221.70622	0.50312
2219.77766	0.50284
2217.84909	0.50263
2215.92053	0.50252
2213.99196	0.50242
2212.06340	0.50213
2210.13484	0.50152
2208.20627	0.50077
2206.27771	0.50010
2204.34914	0.49960
2202.42058	0.49911
2200.49201	0.49839
2198.56345	0.49756
2196.63488	0.49679
2194.70632	0.49610
2192.77776	0.49544
2190.84919	0.49483
2188.92063	0.49430
2186.99206	0.49393
2185.06350	0.49354
2183.13493	0.49299
2181.20637	0.49229
2179.27781	0.49165
2177.34924	0.49134
2175.42068	0.49132
2173.49211	0.49122
2171.56355	0.49090
2169.63498	0.49060
2167.70642	0.49056
2165.77785	0.49070
2163.84929	0.49079
2161.92073	0.49069
2159.99216	0.49048
2158.06360	0.49027
2156.13503	0.49011
2154.20647	0.49011
2152.27790	0.49023
2150.34934	0.49025
2148.42077	0.49012
2146.49221	0.48998
2144.56365	0.48978
2142.63508	0.48943
2140.70652	0.48907
2138.77795	0.48893
2136.84939	0.48881
2134.92082	0.48848
2132.99226	0.48800
2131.06369	0.48749
2129.13513	0.48702
2127.20657	0.48673
2125.27800	0.48645
2123.34944	0.48584
2121.42087	0.48486
2119.49231	0.48385
2117.56374	0.48298
2115.63518	0.48218
2113.70661	0.48138
2111.77805	0.48065
2109.84949	0.47997
2107.92092	0.47932
2105.99236	0.47874
2104.06379	0.47830
2102.13523	0.47788
2100.20666	0.47731
2098.27810	0.47663
2096.34953	0.47615
2094.42097	0.47596
2092.49241	0.47603
2090.56384	0.47633
2088.63528	0.47658
2086.70671	0.47672
2084.77815	0.47686
2082.84958	0.47693
2080.92102	0.47703
2078.99245	0.47720
2077.06389	0.47722
2075.13533	0.47715
2073.20676	0.47723
2071.27820	0.47745
2069.34963	0.47745
2067.42107	0.47700
2065.49250	0.47643
2063.56394	0.47584
2061.63537	0.47490
2059.70681	0.47360
2057.77825	0.47219
2055.84968	0.47078
2053.92112	0.46936
2051.99255	0.46792
2050.06399	0.46646
2048.13542	0.46496
2046.20686	0.46358
2044.27830	0.46231
2042.34973	0.46114
2040.42117	0.46020
2038.49260	0.45937
2036.56404	0.45849
2034.63547	0.45762
2032.70691	0.45694
2030.77834	0.45663
2028.84978	0.45657
2026.92122	0.45649
2024.99265	0.45643
2023.06409	0.45645
2021.13552	0.45639
2019.20696	0.45638
2017.27839	0.45650
2015.34983	0.45638
2013.42126	0.45591
2011.49270	0.45550
2009.56414	0.45528
2007.63557	0.45497
2005.70701	0.45435
2003.77844	0.45352
2001.84988	0.45256
1999.92131	0.45146
1997.99275	0.45019
1996.06418	0.44865
1994.13562	0.44699
1992.20706	0.44555
1990.27849	0.44420
1988.34993	0.44265
1986.42136	0.44104
1984.49280	0.43962
1982.56423	0.43842
1980.63567	0.43727
1978.70710	0.43615
1976.77854	0.43516
1974.84998	0.43449
1972.92141	0.43399
1970.99285	0.43338
1969.06428	0.43298
1967.13572	0.43300
1965.20715	0.43284
1963.27859	0.43235
1961.35002	0.43208
1959.42146	0.43205
1957.49290	0.43191
1955.56433	0.43170
1953.63577	0.43141
1951.70720	0.43093
1949.77864	0.43045
1947.85007	0.42995
1945.92151	0.42920
1943.99294	0.42836
1942.06438	0.42748
1940.13582	0.42612
1938.20725	0.42439
1936.27869	0.42275
1934.35012	0.42124
1932.42156	0.41961
1930.49299	0.41785
1928.56443	0.41614
1926.63586	0.41455
1924.70730	0.41323
1922.77874	0.41235
1920.85017	0.41157
1918.92161	0.41091
1916.99304	0.41051
1915.06448	0.40985
1913.13591	0.40901
1911.20735	0.40849
1909.27878	0.40840
1907.35022	0.40837
1905.42166	0.40821
1903.49309	0.40814
1901.56453	0.40818
1899.63596	0.40819
1897.70740	0.40822
1895.77883	0.40853
1893.85027	0.40893
1891.92171	0.40914
1889.99314	0.40963
1888.06458	0.41005
1886.13601	0.40993
1884.20745	0.40978
1882.27888	0.40966
1880.35032	0.40933
1878.42175	0.40888
1876.49319	0.40831
1874.56463	0.40743
1872.63606	0.40628
1870.70750	0.40542
1868.77893	0.40566
1866.85037	0.40587
1864.92180	0.40473
1862.99324	0.40324
1861.06467	0.40225
1859.13611	0.40163
1857.20755	0.40103
1855.27898	0.40033
1853.35042	0.39951
1851.42185	0.39862
1849.49329	0.39788
1847.56472	0.39739
1845.63616	0.39746
1843.70759	0.39802
1841.77903	0.39767
1839.85047	0.39672
1837.92190	0.39638
1835.99334	0.39644
1834.06477	0.39612
1832.13621	0.39587
1830.20764	0.39664
1828.27908	0.39760
1826.35051	0.39805
1824.42195	0.39878
1822.49339	0.39921
1820.56482	0.39905
1818.63626	0.39918
1816.70769	0.39973
1814.77913	0.40026
1812.85056	0.40088
1810.92200	0.40190
1808.99343	0.40281
1807.06487	0.40315
1805.13631	0.40327
1803.20774	0.40366
1801.27918	0.40471
1799.35061	0.40588
1797.42205	0.40641
1795.49348	0.40663
1793.56492	0.40788
1791.63635	0.41074
1789.70779	0.41236
1787.77923	0.41273
1785.85066	0.41371
1783.92210	0.41545
1781.99353	0.41753
1780.06497	0.42004
1778.13640	0.42218
1776.20784	0.42362
1774.27927	0.42589
1772.35071	0.43061
1770.42215	0.43543
1768.49358	0.43872
1766.56502	0.44174
1764.63645	0.44468
1762.70789	0.44912
1760.77932	0.45530
1758.85076	0.46104
1756.92220	0.46813
1754.99363	0.47593
1753.06507	0.48340
1751.13650	0.49474
1749.20794	0.51097
1747.27937	0.52517
1745.35081	0.53620
1743.42224	0.54642
1741.49368	0.55650
1739.56512	0.56591
1737.63655	0.57191
1735.70799	0.57636
1733.77942	0.58505
1731.85086	0.59327
1729.92229	0.59854
1727.99373	0.60438
1726.06516	0.61109
1724.13660	0.61966
1722.20804	0.62851
1720.27947	0.63643
1718.35091	0.64936
1716.42234	0.67188
1714.49378	0.69034
1712.56521	0.70482
1710.63665	0.72110
1708.70808	0.74057
1706.77952	0.76866
1704.85096	0.80617
1702.92239	0.84119
1700.99383	0.88983
1699.06526	0.96714
1697.13670	1.03934
1695.20813	1.10803
1693.27957	1.15748
1691.35100	1.19431
1689.42244	1.23740
1687.49388	1.27691
1685.56531	1.31692
1683.63675	1.37384
1681.70818	1.40941
1679.77962	1.42570
1677.85105	1.43962
1675.92249	1.45664
1673.99392	1.47500
1672.06536	1.48923
1670.13680	1.50307
1668.20823	1.51764
1666.27967	1.52383
1664.35110	1.52608
1662.42254	1.52804
1660.49397	1.52773
1658.56541	1.52627
1656.63684	1.52302
1654.70828	1.51798
1652.77972	1.51318
1650.85115	1.51344
1648.92259	1.51512
1646.99402	1.51568
1645.06546	1.51243
1643.13689	1.50648
1641.20833	1.50154
1639.27976	1.49658
1637.35120	1.49018
1635.42264	1.48441
1633.49407	1.48135
1631.56551	1.47804
1629.63694	1.47180
1627.70838	1.46386
1625.77981	1.45558
1623.85125	1.44512
1621.92269	1.43300
1619.99412	1.42271
1618.06556	1.41130
1616.13699	1.39366
1614.20843	1.37720
1612.27986	1.36332
1610.35130	1.34829
1608.42273	1.33206
1606.49417	1.31725
1604.56561	1.30532
1602.63704	1.29604
1600.70848	1.28952
1598.77991	1.28483
1596.85135	1.28159
1594.92278	1.28018
1592.99422	1.28076
1591.06565	1.28276
1589.13709	1.28555
1587.20853	1.29022
1585.27996	1.29665
1583.35140	1.30394
1581.42283	1.31173
1579.49427	1.31966
1577.56570	1.33073
1575.63714	1.34613
1573.70857	1.35511
1571.78001	1.36053
1569.85145	1.37048
1567.92288	1.38149
1565.99432	1.38911
1564.06575	1.39669
1562.13719	1.40312
1560.20862	1.41167
1558.28006	1.42754
1556.35149	1.43336
1554.42293	1.43567
1552.49437	1.43807
1550.56580	1.43957
1548.63724	1.43895
1546.70867	1.43724
1544.78011	1.43602
1542.85154	1.43374
1540.92298	1.42719
1538.99441	1.42219
1537.06585	1.41983
1535.13729	1.41500
1533.20872	1.40826
1531.28016	1.40257
1529.35159	1.39813
1527.42303	1.39327
1525.49446	1.38785
1523.56590	1.38524
1521.63733	1.38411
1519.70877	1.37979
1517.78021	1.37147
1515.85164	1.36009
1513.92308	1.34831
1511.99451	1.33678
1510.06595	1.32691
1508.13738	1.31192
1506.20882	1.27568
1504.28025	1.25071
1502.35169	1.23425
1500.42313	1.21541
1498.49456	1.19042
1496.56600	1.16013
1494.63743	1.13582
1492.70887	1.11829
1490.78030	1.09731
1488.85174	1.06898
1486.92317	1.04664
1484.99461	1.03262
1483.06605	1.02319
1481.13748	1.01750
1479.20892	1.01604
1477.28035	1.01942
1475.35179	1.02914
1473.42322	1.04949
1471.49466	1.07417
1469.56610	1.08837
1467.63753	1.09707
1465.70897	1.10691
1463.78040	1.11723
1461.85184	1.12331
1459.92327	1.12732
1457.99471	1.13590
1456.06614	1.14672
1454.13758	1.14860
1452.20902	1.14701
1450.28045	1.14486
1448.35189	1.14146
1446.42332	1.13653
1444.49476	1.13179
1442.56619	1.12666
1440.63763	1.11996
1438.70906	1.11114
1436.78050	1.09871
1434.85194	1.08614
1432.92337	1.07676
1430.99481	1.06827
1429.06624	1.06125
1427.13768	1.05767
1425.20911	1.05696
1423.28055	1.05835
1421.35198	1.06160
1419.42342	1.06799
1417.49486	1.07519
1415.56629	1.07861
1413.63773	1.08062
1411.70916	1.08324
1409.78060	1.08676
1407.85203	1.09072
1405.92347	1.09465
1403.99490	1.09682
1402.06634	1.09660
1400.13778	1.09608
1398.20921	1.09573
1396.28065	1.09472
1394.35208	1.09348
1392.42352	1.09304
1390.49495	1.09381
1388.56639	1.09712
1386.63782	1.10362
1384.70926	1.11003
1382.78070	1.11508
1380.85213	1.11893
1378.92357	1.11984
1376.99500	1.11579
1375.06644	1.10536
1373.13787	1.09056
1371.20931	1.07569
1369.28074	1.05907
1367.35218	1.04035
1365.42362	1.02278
1363.49505	1.00618
1361.56649	0.99224
1359.63792	0.98391
1357.70936	0.97927
1355.78079	0.97685
1353.85223	0.97651
1351.92366	0.97748
1349.99510	0.97879
1348.06654	0.98005
1346.13797	0.98125
1344.20941	0.98261
1342.28084	0.98465
1340.35228	0.98787
1338.42371	0.99198
1336.49515	0.99685
1334.56659	1.00324
1332.63802	1.01141
1330.70946	1.02112
1328.78089	1.03095
1326.85233	1.03913
1324.92376	1.04540
1322.99520	1.05094
1321.06663	1.05703
1319.13807	1.06366
1317.20951	1.06947
1315.28094	1.07399
1313.35238	1.07811
1311.42381	1.08175
1309.49525	1.08443
1307.56668	1.08606
1305.63812	1.08672
1303.70955	1.08692
1301.78099	1.08608
1299.85243	1.08286
1297.92386	1.07750
1295.99530	1.07165
1294.06673	1.06665
1292.13817	1.06258
1290.20960	1.05897
1288.28104	1.05572
1286.35247	1.05309
1284.42391	1.05086
1282.49535	1.04849
1280.56678	1.04636
1278.63822	1.04514
1276.70965	1.04516
1274.78109	1.04674
1272.85252	1.04980
1270.92396	1.05385
1268.99539	1.05861
1267.06683	1.06381
1265.13827	1.06880
1263.20970	1.07275
1261.28114	1.07549
1259.35257	1.07774
1257.42401	1.08011
1255.49544	1.08245
1253.56688	1.08429
1251.63831	1.08580
1249.70975	1.08723
1247.78119	1.08787
1245.85262	1.08724
1243.92406	1.08612
1241.99549	1.08467
1240.06693	1.08206
1238.13836	1.07838
1236.20980	1.07420
1234.28123	1.06912
1232.35267	1.06248
1230.42411	1.05457
1228.49554	1.04625
1226.56698	1.03756
1224.63841	1.02809
1222.70985	1.01863
1220.78128	1.01061
1218.85272	1.00449
1216.92415	0.99971
1214.99559	0.99627
1213.06703	0.99528
1211.13846	0.99736
1209.20990	1.00126
1207.28133	1.00447
1205.35277	1.00552
1203.42420	1.00413
1201.49564	1.00009
1199.56708	0.99433
1197.63851	0.98902
1195.70995	0.98501
1193.78138	0.98190
1191.85282	0.97980
1189.92425	0.97898
1187.99569	0.97941
1186.06712	0.98099
1184.13856	0.98364
1182.21000	0.98729
1180.28143	0.99257
1178.35287	1.00025
1176.42430	1.00937
1174.49574	1.01829
1172.56717	1.02651
1170.63861	1.03445
1168.71004	1.04301
1166.78148	1.05252
1164.85292	1.06269
1162.92435	1.07221
1160.99579	1.07773
1159.06722	1.07653
1157.13866	1.06974
1155.21009	1.05964
1153.28153	1.04632
1151.35296	1.02995
1149.42440	1.01271
1147.49584	0.99730
1145.56727	0.98538
1143.63871	0.97753
1141.71014	0.97400
1139.78158	0.97464
1137.85301	0.97854
1135.92445	0.98535
1133.99588	0.99506
1132.06732	1.00701
1130.13876	1.02061
1128.21019	1.03556
1126.28163	1.05070
1124.35306	1.06417
1122.42450	1.07531
1120.49593	1.08479
1118.56737	1.09212
1116.63880	1.09540
1114.71024	1.09340
1112.78168	1.08687
1110.85311	1.07877
1108.92455	1.07198
1106.99598	1.06686
1105.06742	1.06263
1103.13885	1.05931
1101.21029	1.05746
1099.28172	1.05840
1097.35316	1.06331
1095.42460	1.07169
1093.49603	1.08297
1091.56747	1.09794
1089.63890	1.11681
1087.71034	1.13867
1085.78177	1.16195
1083.85321	1.18394
1081.92464	1.20199
1079.99608	1.21427
1078.06752	1.21993
1076.13895	1.21983
1074.21039	1.21483
1072.28182	1.20456
1070.35326	1.18973
1068.42469	1.17296
1066.49613	1.15644
1064.56756	1.14090
1062.63900	1.12626
1060.71044	1.11246
1058.78187	1.09984
1056.85331	1.08849
1054.92474	1.07775
1052.99618	1.06728
1051.06761	1.05822
1049.13905	1.05266
1047.21049	1.05129
1045.28192	1.05283
1043.35336	1.05668
1041.42479	1.06328
1039.49623	1.07102
1037.56766	1.07694
1035.63910	1.08065
1033.71053	1.08363
1031.78197	1.08550
1029.85341	1.08441
1027.92484	1.07978
1025.99628	1.07235
1024.06771	1.06324
1022.13915	1.05354
1020.21058	1.04421
1018.28202	1.03542
1016.35345	1.02597
1014.42489	1.01395
1012.49633	0.99805
1010.56776	0.97850
1008.63920	0.95658
1006.71063	0.93346
1004.78207	0.91035
1002.85350	0.88888
1000.92494	0.87034
998.99637	0.85510
997.06781	0.84314
995.13925	0.83378
993.21068	0.82544
991.28212	0.81678
989.35355	0.80751
987.42499	0.79819
985.49642	0.78978
983.56786	0.78299
981.63929	0.77768
979.71073	0.77372
977.78217	0.77079
975.85360	0.76766
973.92504	0.76294
971.99647	0.75615
970.06791	0.74768
968.13934	0.73845
966.21078	0.72978
964.28221	0.72336
962.35365	0.72072
960.42509	0.72279
958.49652	0.72900
956.56796	0.73613
954.63939	0.73962
952.71083	0.73668
950.78226	0.72760
948.85370	0.71496
946.92513	0.70171
944.99657	0.68966
943.06801	0.67915
941.13944	0.66971
939.21088	0.66103
937.28231	0.65298
935.35375	0.64553
933.42518	0.63869
931.49662	0.63257
929.56805	0.62740
927.63949	0.62340
925.71093	0.62080
923.78236	0.61975
921.85380	0.61964
919.92523	0.61931
917.99667	0.61852
916.06810	0.61814
914.13954	0.61901
912.21098	0.62163
910.28241	0.62657
908.35385	0.63379
906.42528	0.64266
904.49672	0.65282
902.56815	0.66379
900.63959	0.67451
898.71102	0.68379
896.78246	0.69084
894.85390	0.69541
892.92533	0.69783
890.99677	0.69900
889.06820	0.69954
887.13964	0.69923
885.21107	0.69805
883.28251	0.69670
881.35394	0.69522
879.42538	0.69322
877.49682	0.69126
875.56825	0.68946
873.63969	0.68695
871.71112	0.68369
869.78256	0.68024
867.85399	0.67688
865.92543	0.67381
863.99686	0.67117
862.06830	0.66918
860.13974	0.66837
858.21117	0.66918
856.28261	0.67159
854.35404	0.67553
852.42548	0.68068
850.49691	0.68630
848.56835	0.69200
846.63978	0.69806
844.71122	0.70476
842.78266	0.71204
840.85409	0.71934
838.92553	0.72648
836.99696	0.73363
835.06840	0.74062
833.13983	0.74765
831.21127	0.75452
829.28270	0.76016
827.35414	0.76452
825.42558	0.76806
823.49701	0.77042
821.56845	0.77137
819.63988	0.77122
817.71132	0.77058
815.78275	0.76996
813.85419	0.76896
811.92562	0.76717
809.99706	0.76476
808.06850	0.76166
806.13993	0.75799
804.21137	0.75445
802.28280	0.75146
800.35424	0.74914
798.42567	0.74788
796.49711	0.74794
794.56854	0.74922
792.63998	0.75180
790.71142	0.75604
788.78285	0.76227
786.85429	0.77061
784.92572	0.78029
782.99716	0.79036
781.06859	0.80113
779.14003	0.81291
777.21147	0.82511
775.28290	0.83723
773.35434	0.84880
771.42577	0.85979
769.49721	0.87084
767.56864	0.88170
765.64008	0.89132
763.71151	0.89941
761.78295	0.90660
759.85439	0.91336
757.92582	0.91954
755.99726	0.92431
754.06869	0.92734
752.14013	0.92925
750.21156	0.93020
748.28300	0.92983
746.35443	0.92787
744.42587	0.92421
742.49731	0.91902
740.56874	0.91294
738.64018	0.90708
736.71161	0.90200
734.78305	0.89818
732.85448	0.89647
730.92592	0.89663
728.99735	0.89776
727.06879	0.90006
725.14023	0.90360
723.21166	0.90846
721.28310	0.91541
719.35453	0.92307
717.42597	0.92922
715.49740	0.93488
713.56884	0.94228
711.64027	0.95196
709.71171	0.96278
707.78315	0.97361
705.85458	0.98381
703.92602	0.99241
701.99745	0.99906
700.06889	1.00443
698.14032	1.00899
696.21176	1.01277
694.28319	1.01469
692.35463	1.01462
690.42607	1.01438
688.49750	1.01408
686.56894	1.01306
684.64037	1.01147
682.71181	1.00875
680.78324	1.00507
678.85468	1.00122
676.92611	0.99746
674.99755	0.99456
673.06899	0.99290
671.14042	0.99226
669.21186	0.99213
667.28329	0.99162
665.35473	0.99198
663.42616	0.99359
661.49760	0.99471
659.56903	0.99514
657.64047	0.99693
655.71191	1.00111
653.78334	1.00750
651.85478	1.01461
649.92621	1.02163
647.99765	1.02928
646.06908	1.03725
644.14052	1.04588
642.21195	1.05642
640.28339	1.06720
638.35483	1.07440
636.42626	1.07688
634.49770	1.07685
632.56913	1.07791
630.64057	1.08054
628.71200	1.08116
626.78344	1.07833
624.85488	1.07452
622.92631	1.07091
620.99775	1.06648
619.06918	1.06197
617.14062	1.05707
615.21205	1.04980
613.28349	1.04226
611.35492	1.03749
609.42636	1.03589
607.49780	1.03624
605.56923	1.03668
603.64067	1.03557
601.71210	1.03328
599.78354	1.03277
