3997.91406	0.58155
3995.98550	0.58324
3994.05693	0.58425
3992.12837	0.58377
3990.19980	0.58237
3988.27124	0.58049
3986.34268	0.57944
3984.41411	0.58061
3982.48555	0.58216
3980.55698	0.58126
3978.62842	0.57903
3976.69985	0.57778
3974.77129	0.57753
3972.84272	0.57765
3970.91416	0.57769
3968.98560	0.57793
3967.05703	0.57879
3965.12847	0.57968
3963.19990	0.58009
3961.27134	0.57989
3959.34277	0.57952
3957.41421	0.57952
3955.48564	0.57947
3953.55708	0.57907
3951.62852	0.57848
3949.69995	0.57824
3947.77139	0.57795
3945.84282	0.57592
3943.91426	0.57447
3941.98569	0.57615
3940.05713	0.57713
3938.12856	0.57548
3936.20000	0.57327
3934.27144	0.57220
3932.34287	0.57393
3930.41431	0.57631
3928.48574	0.57482
3926.55718	0.57168
3924.62861	0.57072
3922.70005	0.57014
3920.77148	0.56868
3918.84292	0.56979
3916.91436	0.57413
3914.98579	0.57664
3913.05723	0.57602
3911.12866	0.57380
3909.20010	0.56901
3907.27153	0.56226
3905.34297	0.55844
3903.41440	0.56093
3901.48584	0.56464
3899.55728	0.56725
3897.62871	0.56879
3895.70015	0.56676
3893.77158	0.56273
3891.84302	0.56324
3889.91445	0.56631
3887.98589	0.56552
3886.05733	0.56606
3884.12876	0.56861
3882.20020	0.56819
3880.27163	0.56927
3878.34307	0.56839
3876.41450	0.56321
3874.48594	0.55958
3872.55737	0.55768
3870.62881	0.55817
3868.70025	0.56221
3866.77168	0.56240
3864.84312	0.56229
3862.91455	0.56570
3860.98599	0.56584
3859.05742	0.56171
3857.12886	0.55446
3855.20029	0.54561
3853.27173	0.55064
3851.34317	0.56402
3849.41460	0.56660
3847.48604	0.56371
3845.55747	0.55954
3843.62891	0.55580
3841.70034	0.55050
3839.77178	0.54511
3837.84321	0.55005
3835.91465	0.55876
3833.98609	0.56055
3832.05752	0.56008
3830.12896	0.55988
3828.20039	0.55932
3826.27183	0.55885
3824.34326	0.55506
3822.41470	0.54965
3820.48613	0.55127
3818.55757	0.55409
3816.62901	0.55769
3814.70044	0.56281
3812.77188	0.56215
3810.84331	0.55778
3808.91475	0.55439
3806.98618	0.55463
3805.05762	0.55210
3803.12905	0.54695
3801.20049	0.54991
3799.27193	0.55364
3797.34336	0.55367
3795.41480	0.55567
3793.48623	0.55706
3791.55767	0.55701
3789.62910	0.55656
3787.70054	0.55528
3785.77197	0.55485
3783.84341	0.55453
3781.91485	0.55197
3779.98628	0.55234
3778.05772	0.55795
3776.12915	0.56042
3774.20059	0.55687
3772.27202	0.55103
3770.34346	0.55006
3768.41489	0.55443
3766.48633	0.55729
3764.55777	0.55718
3762.62920	0.55387
3760.70064	0.55109
3758.77207	0.55317
3756.84351	0.55366
3754.91494	0.54772
3752.98638	0.53872
3751.05781	0.53778
3749.12925	0.54457
3747.20069	0.54391
3745.27212	0.54437
3743.34356	0.55107
3741.41499	0.55106
3739.48643	0.54386
3737.55786	0.53510
3735.62930	0.53383
3733.70074	0.54395
3731.77217	0.55099
3729.84361	0.55046
3727.91504	0.54790
3725.98648	0.54714
3724.05791	0.54719
3722.12935	0.54817
3720.20078	0.55009
3718.27222	0.55007
3716.34366	0.54698
3714.41509	0.54144
3712.48653	0.53909
3710.55796	0.54704
3708.62940	0.55296
3706.70083	0.55174
3704.77227	0.54811
3702.84370	0.54734
3700.91514	0.55100
3698.98658	0.55298
3697.05801	0.55197
3695.12945	0.54971
3693.20088	0.54663
3691.27232	0.54560
3689.34375	0.55273
3687.41519	0.56073
3685.48662	0.56173
3683.55806	0.55921
3681.62950	0.55662
3679.70093	0.55357
3677.77237	0.54908
3675.84380	0.55425
3673.91524	0.56434
3671.98667	0.56487
3670.05811	0.57071
3668.12954	0.58040
3666.20098	0.58267
3664.27242	0.58388
3662.34385	0.58714
3660.41529	0.58924
3658.48672	0.59023
3656.55816	0.59600
3654.62959	0.60079
3652.70103	0.59662
3650.77246	0.59121
3648.84390	0.60480
3646.91534	0.62483
3644.98677	0.63233
3643.05821	0.63553
3641.12964	0.64007
3639.20108	0.64474
3637.27251	0.64766
3635.34395	0.65040
3633.41538	0.65218
3631.48682	0.65104
3629.55826	0.65714
3627.62969	0.67400
3625.70113	0.68077
3623.77256	0.68026
3621.84400	0.67852
3619.91543	0.68278
3617.98687	0.69395
3616.05830	0.69981
3614.12974	0.70352
3612.20118	0.70975
3610.27261	0.71502
3608.34405	0.72147
3606.41548	0.72851
3604.48692	0.73147
3602.55835	0.73371
3600.62979	0.73978
3598.70123	0.74756
3596.77266	0.75295
3594.84410	0.75743
3592.91553	0.76218
3590.98697	0.76431
3589.05840	0.76677
3587.12984	0.77700
3585.20127	0.78775
3583.27271	0.79248
3581.34415	0.79588
3579.41558	0.80106
3577.48702	0.80787
3575.55845	0.81479
3573.62989	0.81911
3571.70132	0.81899
3569.77276	0.81628
3567.84419	0.82005
3565.91563	0.83505
3563.98707	0.84662
3562.05850	0.85417
3560.12994	0.86173
3558.20137	0.86745
3556.27281	0.87104
3554.34424	0.87600
3552.41568	0.88504
3550.48711	0.89374
3548.55855	0.89861
3546.62999	0.90509
3544.70142	0.91644
3542.77286	0.92508
3540.84429	0.92871
3538.91573	0.93294
3536.98716	0.94088
3535.05860	0.94955
3533.13003	0.95503
3531.20147	0.95787
3529.27291	0.95987
3527.34434	0.96200
3525.41578	0.96604
3523.48721	0.97369
3521.55865	0.98375
3519.63008	0.99381
3517.70152	1.00326
3515.77295	1.01065
3513.84439	1.01591
3511.91583	1.02178
3509.98726	1.03052
3508.05870	1.04098
3506.13013	1.04882
3504.20157	1.05472
3502.27300	1.06344
3500.34444	1.07425
3498.41587	1.08258
3496.48731	1.08614
3494.55875	1.08815
3492.63018	1.09287
3490.70162	1.10033
3488.77305	1.10922
3486.84449	1.11798
3484.91592	1.12430
3482.98736	1.12942
3481.05879	1.13650
3479.13023	1.14195
3477.20167	1.14283
3475.27310	1.14272
3473.34454	1.14441
3471.41597	1.14736
3469.48741	1.14952
3467.55884	1.15182
3465.63028	1.15694
3463.70171	1.16292
3461.77315	1.16665
3459.84459	1.16963
3457.91602	1.17396
3455.98746	1.17725
3454.05889	1.17920
3452.13033	1.18386
3450.20176	1.18878
3448.27320	1.18876
3446.34464	1.18764
3444.41607	1.19096
3442.48751	1.19730
3440.55894	1.20379
3438.63038	1.20784
3436.70181	1.20824
3434.77325	1.20839
3432.84468	1.21023
3430.91612	1.21230
3428.98756	1.21581
3427.05899	1.21985
3425.13043	1.22044
3423.20186	1.21861
3421.27330	1.21806
3419.34473	1.22037
3417.41617	1.22547
3415.48760	1.22943
3413.55904	1.22724
3411.63048	1.22328
3409.70191	1.22498
3407.77335	1.22910
3405.84478	1.22775
3403.91622	1.22264
3401.98765	1.22182
3400.05909	1.22635
3398.13052	1.23064
3396.20196	1.23101
3394.27340	1.22939
3392.34483	1.22986
3390.41627	1.23324
3388.48770	1.23698
3386.55914	1.23844
3384.63057	1.23881
3382.70201	1.23980
3380.77344	1.23878
3378.84488	1.23696
3376.91632	1.23954
3374.98775	1.24492
3373.05919	1.24760
3371.13062	1.24624
3369.20206	1.24423
3367.27349	1.24618
3365.34493	1.25058
3363.41636	1.25305
3361.48780	1.25589
3359.55924	1.26127
3357.63067	1.26457
3355.70211	1.26324
3353.77354	1.26146
3351.84498	1.26250
3349.91641	1.26610
3347.98785	1.27096
3346.05928	1.27472
3344.13072	1.27672
3342.20216	1.27829
3340.27359	1.27838
3338.34503	1.27698
3336.41646	1.27799
3334.48790	1.28278
3332.55933	1.28820
3330.63077	1.29119
3328.70220	1.29272
3326.77364	1.29689
3324.84508	1.30284
3322.91651	1.30658
3320.98795	1.30916
3319.05938	1.31217
3317.13082	1.31472
3315.20225	1.31642
3313.27369	1.31728
3311.34513	1.31842
3309.41656	1.32249
3307.48800	1.32955
3305.55943	1.33530
3303.63087	1.33745
3301.70230	1.33859
3299.77374	1.34087
3297.84517	1.34380
3295.91661	1.34751
3293.98805	1.35316
3292.05948	1.35937
3290.13092	1.36247
3288.20235	1.36107
3286.27379	1.35730
3284.34522	1.35432
3282.41666	1.35369
3280.48809	1.35349
3278.55953	1.35226
3276.63097	1.35287
3274.70240	1.35590
3272.77384	1.35615
3270.84527	1.35087
3268.91671	1.34193
3266.98814	1.33292
3265.05958	1.32795
3263.13101	1.32465
3261.20245	1.31771
3259.27389	1.30900
3257.34532	1.30162
3255.41676	1.29586
3253.48819	1.29161
3251.55963	1.28637
3249.63106	1.27897
3247.70250	1.27200
3245.77393	1.26687
3243.84537	1.26251
3241.91681	1.25780
3239.98824	1.25215
3238.05968	1.24667
3236.13111	1.24173
3234.20255	1.23527
3232.27398	1.22929
3230.34542	1.22538
3228.41685	1.21913
3226.48829	1.21252
3224.55973	1.21210
3222.63116	1.21527
3220.70260	1.21491
3218.77403	1.20795
3216.84547	1.19720
3214.91690	1.18918
3212.98834	1.18624
3211.05977	1.18316
3209.13121	1.17705
3207.20265	1.17237
3205.27408	1.17075
3203.34552	1.16849
3201.41695	1.16507
3199.48839	1.16239
3197.55982	1.15964
3195.63126	1.15475
3193.70269	1.14834
3191.77413	1.14318
3189.84557	1.13905
3187.91700	1.13530
3185.98844	1.13390
3184.05987	1.13233
3182.13131	1.12734
3180.20274	1.12193
3178.27418	1.11764
3176.34562	1.11275
3174.41705	1.10850
3172.48849	1.10602
3170.55992	1.10279
3168.63136	1.09816
3166.70279	1.09422
3164.77423	1.09053
3162.84566	1.08621
3160.91710	1.08235
3158.98854	1.07919
3157.05997	1.07511
3155.13141	1.06915
3153.20284	1.06330
3151.27428	1.06008
3149.34571	1.05857
3147.41715	1.05678
3145.48858	1.05535
3143.56002	1.05428
3141.63146	1.05171
3139.70289	1.04815
3137.77433	1.04585
3135.84576	1.04465
3133.91720	1.04309
3131.98863	1.04225
3130.06007	1.04321
3128.13150	1.04401
3126.20294	1.04413
3124.27438	1.04541
3122.34581	1.04644
3120.41725	1.04498
3118.48868	1.04417
3116.56012	1.04578
3114.63155	1.04692
3112.70299	1.04729
3110.77442	1.04767
3108.84586	1.04748
3106.91730	1.04700
3104.98873	1.04584
3103.06017	1.04363
3101.13160	1.04207
3099.20304	1.04205
3097.27447	1.04186
3095.34591	1.04104
3093.41734	1.03985
3091.48878	1.03731
3089.56022	1.03401
3087.63165	1.03122
3085.70309	1.02899
3083.77452	1.02703
3081.84596	1.02406
3079.91739	1.01987
3077.98883	1.01648
3076.06026	1.01436
3074.13170	1.01206
3072.20314	1.00931
3070.27457	1.00597
3068.34601	1.00169
3066.41744	0.99827
3064.48888	0.99700
3062.56031	0.99565
3060.63175	0.99263
3058.70318	0.98906
3056.77462	0.98566
3054.84606	0.98193
3052.91749	0.97773
3050.98893	0.97389
3049.06036	0.97100
3047.13180	0.96781
3045.20323	0.96334
3043.27467	0.95888
3041.34610	0.95569
3039.41754	0.95332
3037.48898	0.95079
3035.56041	0.94733
3033.63185	0.94326
3031.70328	0.93975
3029.77472	0.93644
3027.84615	0.93222
3025.91759	0.92799
3023.98903	0.92482
3022.06046	0.92162
3020.13190	0.91753
3018.20333	0.91434
3016.27477	0.91300
3014.34620	0.91171
3012.41764	0.90974
3010.48907	0.90785
3008.56051	0.90620
3006.63195	0.90481
3004.70338	0.90378
3002.77482	0.90282
3000.84625	0.90201
2998.91769	0.90223
2996.98912	0.90373
2995.06056	0.90514
2993.13199	0.90598
2991.20343	0.90852
2989.27487	0.91381
2987.34630	0.91955
2985.41774	0.92436
2983.48917	0.92923
2981.56061	0.93474
2979.63204	0.94095
2977.70348	0.94770
2975.77491	0.95412
2973.84635	0.95997
2971.91779	0.96617
2969.98922	0.97372
2968.06066	0.98228
2966.13209	0.98938
2964.20353	0.99337
2962.27496	0.99534
2960.34640	0.99598
2958.41783	0.99424
2956.48927	0.98944
2954.56071	0.98314
2952.63214	0.97810
2950.70358	0.97469
2948.77501	0.97219
2946.84645	0.97201
2944.91788	0.97508
2942.98932	0.98027
2941.06075	0.98742
2939.13219	0.99792
2937.20363	1.01168
2935.27506	1.02590
2933.34650	1.03825
2931.41793	1.04912
2929.48937	1.05943
2927.56080	1.06902
2925.63224	1.07736
2923.70367	1.08389
2921.77511	1.08861
2919.84655	1.09082
2917.91798	1.08660
2915.98942	1.07150
2914.06085	1.04734
2912.13229	1.02174
2910.20372	1.00030
2908.27516	0.98368
2906.34659	0.97088
2904.41803	0.96075
2902.48947	0.95274
2900.56090	0.94738
2898.63234	0.94406
2896.70377	0.94143
2894.77521	0.93920
2892.84664	0.93651
2890.91808	0.93229
2888.98952	0.92742
2887.06095	0.92352
2885.13239	0.92109
2883.20382	0.92046
2881.27526	0.92151
2879.34669	0.92270
2877.41813	0.92277
2875.48956	0.92181
2873.56100	0.92016
2871.63244	0.91683
2869.70387	0.91075
2867.77531	0.90353
2865.84674	0.89728
2863.91818	0.89287
2861.98961	0.89160
2860.06105	0.89414
2858.13248	0.90012
2856.20392	0.90879
2854.27536	0.91850
2852.34679	0.92770
2850.41823	0.93132
2848.48966	0.91962
2846.56110	0.89289
2844.63253	0.86326
2842.70397	0.83915
2840.77540	0.82217
2838.84684	0.81066
2836.91828	0.80197
2834.98971	0.79496
2833.06115	0.78920
2831.13258	0.78439
2829.20402	0.78061
2827.27545	0.77732
2825.34689	0.77405
2823.41832	0.77113
2821.48976	0.76852
2819.56120	0.76599
2817.63263	0.76362
2815.70407	0.76112
2813.77550	0.75849
2811.84694	0.75598
2809.91837	0.75368
2807.98981	0.75161
2806.06124	0.74918
2804.13268	0.74616
2802.20412	0.74304
2800.27555	0.74000
2798.34699	0.73736
2796.41842	0.73506
2794.48986	0.73213
2792.56129	0.72870
2790.63273	0.72604
2788.70416	0.72435
2786.77560	0.72270
2784.84704	0.72036
2782.91847	0.71787
2780.98991	0.71618
2779.06134	0.71481
2777.13278	0.71271
2775.20421	0.71033
2773.27565	0.70869
2771.34708	0.70746
2769.41852	0.70595
2767.48996	0.70418
2765.56139	0.70242
2763.63283	0.70081
2761.70426	0.69930
2759.77570	0.69804
2757.84713	0.69671
2755.91857	0.69501
2753.99001	0.69335
2752.06144	0.69160
2750.13288	0.68925
2748.20431	0.68678
2746.27575	0.68501
2744.34718	0.68403
2742.41862	0.68306
2740.49005	0.68165
2738.56149	0.68004
2736.63293	0.67843
2734.70436	0.67671
2732.77580	0.67458
2730.84723	0.67241
2728.91867	0.67097
2726.99010	0.66989
2725.06154	0.66848
2723.13297	0.66706
2721.20441	0.66580
2719.27585	0.66423
2717.34728	0.66248
2715.41872	0.66095
2713.49015	0.65972
2711.56159	0.65858
2709.63302	0.65753
2707.70446	0.65661
2705.77589	0.65546
2703.84733	0.65391
2701.91877	0.65245
2699.99020	0.65157
2698.06164	0.65101
2696.13307	0.65003
2694.20451	0.64882
2692.27594	0.64807
2690.34738	0.64757
2688.41881	0.64676
2686.49025	0.64547
2684.56169	0.64402
2682.63312	0.64275
2680.70456	0.64154
2678.77599	0.64043
2676.84743	0.63951
2674.91886	0.63843
2672.99030	0.63719
2671.06173	0.63614
2669.13317	0.63517
2667.20461	0.63425
2665.27604	0.63368
2663.34748	0.63290
2661.41891	0.63147
2659.49035	0.62996
2657.56178	0.62873
2655.63322	0.62757
2653.70465	0.62651
2651.77609	0.62576
2649.84753	0.62509
2647.91896	0.62416
2645.99040	0.62326
2644.06183	0.62230
2642.13327	0.62089
2640.20470	0.61938
2638.27614	0.61863
2636.34757	0.61860
2634.41901	0.61819
2632.49045	0.61712
2630.56188	0.61600
2628.63332	0.61486
2626.70475	0.61363
2624.77619	0.61291
2622.84762	0.61270
2620.91906	0.61186
2618.99049	0.61021
2617.06193	0.60889
2615.13337	0.60814
2613.20480	0.60760
2611.27624	0.60725
2609.34767	0.60691
2607.41911	0.60656
2605.49054	0.60630
2603.56198	0.60581
2601.63342	0.60493
2599.70485	0.60405
2597.77629	0.60344
2595.84772	0.60292
2593.91916	0.60205
2591.99059	0.60071
2590.06203	0.59948
2588.13346	0.59862
2586.20490	0.59756
2584.27634	0.59619
2582.34777	0.59507
2580.41921	0.59425
2578.49064	0.59325
2576.56208	0.59229
2574.63351	0.59176
2572.70495	0.59116
2570.77638	0.58998
2568.84782	0.58856
2566.91926	0.58734
2564.99069	0.58621
2563.06213	0.58498
2561.13356	0.58395
2559.20500	0.58336
2557.27643	0.58291
2555.34787	0.58229
2553.41930	0.58156
2551.49074	0.58066
2549.56218	0.57962
2547.63361	0.57863
2545.70505	0.57776
2543.77648	0.57690
2541.84792	0.57581
2539.91935	0.57456
2537.99079	0.57341
2536.06222	0.57255
2534.13366	0.57189
2532.20510	0.57127
2530.27653	0.57069
2528.34797	0.56994
2526.41940	0.56883
2524.49084	0.56760
2522.56227	0.56657
2520.63371	0.56575
2518.70514	0.56494
2516.77658	0.56411
2514.84802	0.56341
2512.91945	0.56282
2510.99089	0.56226
2509.06232	0.56177
2507.13376	0.56126
2505.20519	0.56078
2503.27663	0.56069
2501.34806	0.56084
2499.41950	0.56068
2497.49094	0.56031
2495.56237	0.56012
2493.63381	0.56002
2491.70524	0.55972
2489.77668	0.55920
2487.84811	0.55863
2485.91955	0.55801
2483.99098	0.55718
2482.06242	0.55613
2480.13386	0.55510
2478.20529	0.55439
2476.27673	0.55389
2474.34816	0.55302
2472.41960	0.55160
2470.49103	0.54991
2468.56247	0.54815
2466.63391	0.54665
2464.70534	0.54541
2462.77678	0.54379
2460.84821	0.54182
2458.91965	0.54034
2456.99108	0.53948
2455.06252	0.53875
2453.13395	0.53782
2451.20539	0.53661
2449.27683	0.53533
2447.34826	0.53431
2445.41970	0.53357
2443.49113	0.53301
2441.56257	0.53275
2439.63400	0.53259
2437.70544	0.53209
2435.77687	0.53134
2433.84831	0.53065
2431.91975	0.53003
2429.99118	0.52950
2428.06262	0.52914
2426.13405	0.52885
2424.20549	0.52857
2422.27692	0.52813
2420.34836	0.52743
2418.41979	0.52665
2416.49123	0.52597
2414.56267	0.52538
2412.63410	0.52472
2410.70554	0.52390
2408.77697	0.52299
2406.84841	0.52218
2404.91984	0.52147
2402.99128	0.52068
2401.06271	0.51991
2399.13415	0.51933
2397.20559	0.51865
2395.27702	0.51785
2393.34846	0.51715
2391.41989	0.51636
2389.49133	0.51543
2387.56276	0.51476
2385.63420	0.51428
2383.70563	0.51375
2381.77707	0.51334
2379.84851	0.51318
2377.91994	0.51321
2375.99138	0.51317
2374.06281	0.51280
2372.13425	0.51243
2370.20568	0.51212
2368.27712	0.51119
2366.34855	0.51021
2364.41999	0.51052
2362.49143	0.51218
2360.56286	0.51398
2358.63430	0.51463
2356.70573	0.51403
2354.77717	0.51242
2352.84860	0.51008
2350.92004	0.50746
2348.99147	0.50488
2347.06291	0.50290
2345.13435	0.50244
2343.20578	0.50306
2341.27722	0.50331
2339.34865	0.50365
2337.42009	0.50424
2335.49152	0.50357
2333.56296	0.50147
2331.63440	0.50043
2329.70583	0.50126
2327.77727	0.50139
2325.84870	0.50014
2323.92014	0.49884
2321.99157	0.49778
2320.06301	0.49697
2318.13444	0.49634
2316.20588	0.49552
2314.27732	0.49461
2312.34875	0.49374
2310.42019	0.49298
2308.49162	0.49235
2306.56306	0.49160
2304.63449	0.49050
2302.70593	0.48902
2300.77736	0.48736
2298.84880	0.48579
2296.92024	0.48451
2294.99167	0.48354
2293.06311	0.48267
2291.13454	0.48160
2289.20598	0.48040
2287.27741	0.47927
2285.34885	0.47810
2283.42028	0.47699
2281.49172	0.47615
2279.56316	0.47537
2277.63459	0.47453
2275.70603	0.47393
2273.77746	0.47358
2271.84890	0.47331
2269.92033	0.47305
2267.99177	0.47283
2266.06320	0.47259
2264.13464	0.47225
2262.20608	0.47194
2260.27751	0.47181
2258.34895	0.47166
2256.42038	0.47124
2254.49182	0.47067
2252.56325	0.47011
2250.63469	0.46953
2248.70612	0.46901
2246.77756	0.46849
2244.84900	0.46777
2242.92043	0.46690
2240.99187	0.46624
2239.06330	0.46602
2237.13474	0.46588
2235.20617	0.46534
2233.27761	0.46458
2231.34904	0.46394
2229.42048	0.46336
2227.49192	0.46292
2225.56335	0.46269
2223.63479	0.46247
2221.70622	0.46226
2219.77766	0.46203
2217.84909	0.46169
2215.92053	0.46114
2213.99196	0.46041
2212.06340	0.45988
2210.13484	0.45973
2208.20627	0.45962
2206.27771	0.45939
2204.34914	0.45929
2202.42058	0.45925
2200.49201	0.45913
2198.56345	0.45899
2196.63488	0.45878
2194.70632	0.45835
2192.77776	0.45770
2190.84919	0.45684
2188.92063	0.45600
2186.99206	0.45535
2185.06350	0.45474
2183.13493	0.45390
2181.20637	0.45283
2179.27781	0.45174
2177.34924	0.45087
2175.42068	0.45028
2173.49211	0.44977
2171.56355	0.44929
2169.63498	0.44883
2167.70642	0.44835
2165.77785	0.44784
2163.84929	0.44731
2161.92073	0.44694
2159.99216	0.44686
2158.06360	0.44683
2156.13503	0.44678
2154.20647	0.44691
2152.27790	0.44717
2150.34934	0.44734
2148.42077	0.44743
2146.49221	0.44747
2144.56365	0.44747
2142.63508	0.44752
2140.70652	0.44770
2138.77795	0.44790
2136.84939	0.44815
2134.92082	0.44842
2132.99226	0.44846
2131.06369	0.44831
2129.13513	0.44828
2127.20657	0.44831
2125.27800	0.44809
2123.34944	0.44754
2121.42087	0.44693
2119.49231	0.44649
2117.56374	0.44613
2115.63518	0.44570
2113.70661	0.44521
2111.77805	0.44477
2109.84949	0.44436
2107.92092	0.44394
2105.99236	0.44363
2104.06379	0.44340
2102.13523	0.44297
2100.20666	0.44241
2098.27810	0.44182
2096.34953	0.44115
2094.42097	0.44049
2092.49241	0.43997
2090.56384	0.43952
2088.63528	0.43906
2086.70671	0.43852
2084.77815	0.43780
2082.84958	0.43706
2080.92102	0.43652
2078.99245	0.43587
2077.06389	0.43491
2075.13533	0.43397
2073.20676	0.43323
2071.27820	0.43251
2069.34963	0.43172
2067.42107	0.43091
2065.49250	0.43012
2063.56394	0.42925
2061.63537	0.42823
2059.70681	0.42717
2057.77825	0.42622
2055.84968	0.42532
2053.92112	0.42440
2051.99255	0.42345
2050.06399	0.42257
2048.13542	0.42176
2046.20686	0.42100
2044.27830	0.42020
2042.34973	0.41938
2040.42117	0.41870
2038.49260	0.41809
2036.56404	0.41749
2034.63547	0.41699
2032.70691	0.41667
2030.77834	0.41649
2028.84978	0.41635
2026.92122	0.41621
2024.99265	0.41618
2023.06409	0.41624
2021.13552	0.41609
2019.20696	0.41577
2017.27839	0.41553
2015.34983	0.41509
2013.42126	0.41419
2011.49270	0.41321
2009.56414	0.41252
2007.63557	0.41198
2005.70701	0.41131
2003.77844	0.41043
2001.84988	0.40943
1999.92131	0.40854
1997.99275	0.40775
1996.06418	0.40681
1994.13562	0.40578
1992.20706	0.40501
1990.27849	0.40432
1988.34993	0.40350
1986.42136	0.40265
1984.49280	0.40177
1982.56423	0.40089
1980.63567	0.40012
1978.70710	0.39939
1976.77854	0.39857
1974.84998	0.39773
1972.92141	0.39703
1970.99285	0.39640
1969.06428	0.39583
1967.13572	0.39541
1965.20715	0.39471
1963.27859	0.39364
1961.35002	0.39269
1959.42146	0.39199
1957.49290	0.39130
1955.56433	0.39047
1953.63577	0.38937
1951.70720	0.38802
1949.77864	0.38662
1947.85007	0.38524
1945.92151	0.38379
1943.99294	0.38249
1942.06438	0.38152
1940.13582	0.38038
1938.20725	0.37893
1936.27869	0.37751
1934.35012	0.37622
1932.42156	0.37502
1930.49299	0.37386
1928.56443	0.37275
1926.63586	0.37167
1924.70730	0.37088
1922.77874	0.37060
1920.85017	0.37023
1918.92161	0.36988
1916.99304	0.36994
1915.06448	0.36961
1913.13591	0.36894
1911.20735	0.36872
1909.27878	0.36899
1907.35022	0.36897
1905.42166	0.36843
1903.49309	0.36796
1901.56453	0.36771
1899.63596	0.36730
1897.70740	0.36676
1895.77883	0.36659
1893.85027	0.36640
1891.92171	0.36570
1889.99314	0.36520
1888.06458	0.36474
1886.13601	0.36374
1884.20745	0.36272
1882.27888	0.36191
1880.35032	0.36110
1878.42175	0.36022
1876.49319	0.35929
1874.56463	0.35828
1872.63606	0.35717
1870.70750	0.35652
1868.77893	0.35714
1866.85037	0.35751
1864.92180	0.35646
1862.99324	0.35527
1861.06467	0.35456
1859.13611	0.35412
1857.20755	0.35369
1855.27898	0.35317
1853.35042	0.35254
1851.42185	0.35178
1849.49329	0.35108
1847.56472	0.35048
1845.63616	0.35041
1843.70759	0.35112
1841.77903	0.35065
1839.85047	0.34907
1837.92190	0.34793
1835.99334	0.34720
1834.06477	0.34594
1832.13621	0.34456
1830.20764	0.34413
1828.27908	0.34389
1826.35051	0.34311
1824.42195	0.34255
1822.49339	0.34171
1820.56482	0.34042
1818.63626	0.33944
1816.70769	0.33873
1814.77913	0.33791
1812.85056	0.33731
1810.92200	0.33738
1808.99343	0.33743
1807.06487	0.33688
1805.13631	0.33619
1803.20774	0.33601
1801.27918	0.33682
1799.35061	0.33782
1797.42205	0.33793
1795.49348	0.33762
1793.56492	0.33833
1791.63635	0.34051
1789.70779	0.34113
1787.77923	0.34029
1785.85066	0.34003
1783.92210	0.34049
1781.99353	0.34094
1780.06497	0.34136
1778.13640	0.34133
1776.20784	0.34065
1774.27927	0.34063
1772.35071	0.34265
1770.42215	0.34464
1768.49358	0.34526
1766.56502	0.34545
1764.63645	0.34563
1762.70789	0.34740
1760.77932	0.35083
1758.85076	0.35369
1756.92220	0.35730
1754.99363	0.36121
1753.06507	0.36463
1751.13650	0.37104
1749.20794	0.38143
1747.27937	0.39023
1745.35081	0.39653
1743.42224	0.40241
1741.49368	0.40857
1739.56512	0.41455
1737.63655	0.41803
1735.70799	0.42059
1733.77942	0.42741
1731.85086	0.43350
1729.92229	0.43649
1727.99373	0.43978
1726.06516	0.44373
1724.13660	0.44952
1722.20804	0.45568
1720.27947	0.46099
1718.35091	0.47093
1716.42234	0.48964
1714.49378	0.50416
1712.56521	0.51452
1710.63665	0.52649
1708.70808	0.54156
1706.77952	0.56449
1704.85096	0.59515
1702.92239	0.62234
1700.99383	0.65908
1699.06526	0.71670
1697.13670	0.76886
1695.20813	0.81736
1693.27957	0.85167
1691.35100	0.87804
1689.42244	0.91091
1687.49388	0.94127
1685.56531	0.97236
1683.63675	1.02511
1681.70818	1.06375
1679.77962	1.08404
1677.85105	1.10322
1675.92249	1.12733
1673.99392	1.15247
1672.06536	1.17026
1670.13680	1.19053
1668.20823	1.21405
1666.27967	1.22564
1664.35110	1.23408
1662.42254	1.24793
1660.49397	1.26027
1658.56541	1.26649
1656.63684	1.26852
1654.70828	1.26990
1652.77972	1.27336
1650.85115	1.27319
1648.92259	1.27209
1646.99402	1.27462
1645.06546	1.27653
1643.13689	1.27382
1641.20833	1.27097
1639.27976	1.26810
1637.35120	1.26594
1635.42264	1.26731
1633.49407	1.26717
1631.56551	1.26439
1629.63694	1.26017
1627.70838	1.25465
1625.77981	1.24765
1623.85125	1.23805
1621.92269	1.22432
1619.99412	1.20935
1618.06556	1.19080
1616.13699	1.16352
1614.20843	1.13882
1612.27986	1.11800
1610.35130	1.09594
1608.42273	1.07308
1606.49417	1.05277
1604.56561	1.03633
1602.63704	1.02310
1600.70848	1.01327
1598.77991	1.00622
1596.85135	1.00123
1594.92278	0.99796
1592.99422	0.99579
1591.06565	0.99490
1589.13709	0.99628
1587.20853	1.00055
1585.27996	1.00717
1583.35140	1.01559
1581.42283	1.02489
1579.49427	1.03378
1577.56570	1.04589
1575.63714	1.06531
1573.70857	1.07818
1571.78001	1.08518
1569.85145	1.09818
1567.92288	1.11490
1565.99432	1.12690
1564.06575	1.13628
1562.13719	1.14177
1560.20862	1.14974
1558.28006	1.17629
1556.35149	1.18869
1554.42293	1.19024
1552.49437	1.19270
1550.56580	1.19582
1548.63724	1.19715
1546.70867	1.19614
1544.78011	1.19437
1542.85154	1.19333
1540.92298	1.19272
1538.99441	1.18691
1537.06585	1.18071
1535.13729	1.17657
1533.20872	1.17427
1531.28016	1.17111
1529.35159	1.16616
1527.42303	1.16143
1525.49446	1.15891
1523.56590	1.15878
1521.63733	1.15917
1519.70877	1.15902
1517.78021	1.15728
1515.85164	1.15148
1513.92308	1.14039
1511.99451	1.12613
1510.06595	1.11208
1508.13738	1.09392
1506.20882	1.06146
1504.28025	1.03851
1502.35169	1.02159
1500.42313	1.00307
1498.49456	0.98024
1496.56600	0.95310
1494.63743	0.93019
1492.70887	0.91290
1490.78030	0.89393
1488.85174	0.87054
1486.92317	0.85146
1484.99461	0.83811
1483.06605	0.82789
1481.13748	0.81995
1479.20892	0.81494
1477.28035	0.81383
1475.35179	0.81823
1473.42322	0.83148
1471.49466	0.84703
1469.56610	0.85437
1467.63753	0.85880
1465.70897	0.86609
1463.78040	0.87486
1461.85184	0.87885
1459.92327	0.88026
1457.99471	0.88770
1456.06614	0.90052
1454.13758	0.90334
1452.20902	0.90183
1450.28045	0.90005
1448.35189	0.89851
1446.42332	0.89626
1444.49476	0.89241
1442.56619	0.88726
1440.63763	0.88159
1438.70906	0.87538
1436.78050	0.86681
1434.85194	0.85648
1432.92337	0.84686
1430.99481	0.83699
1429.06624	0.82722
1427.13768	0.81956
1425.20911	0.81413
1423.28055	0.81081
1421.35198	0.80949
1419.42342	0.81011
1417.49486	0.81099
1415.56629	0.80960
1413.63773	0.80724
1411.70916	0.80524
1409.78060	0.80388
1407.85203	0.80326
1405.92347	0.80428
1403.99490	0.80658
1402.06634	0.80814
1400.13778	0.80950
1398.20921	0.81152
1396.28065	0.81394
1394.35208	0.81718
1392.42352	0.82046
1390.49495	0.82420
1388.56639	0.83223
1386.63782	0.84690
1384.70926	0.86259
1382.78070	0.87580
1380.85213	0.88632
1378.92357	0.89209
1376.99500	0.89152
1375.06644	0.88435
1373.13787	0.87203
1371.20931	0.85768
1369.28074	0.84079
1367.35218	0.82143
1365.42362	0.80265
1363.49505	0.78464
1361.56649	0.76880
1359.63792	0.75793
1357.70936	0.75058
1355.78079	0.74538
1353.85223	0.74204
1351.92366	0.73980
1349.99510	0.73805
1348.06654	0.73682
1346.13797	0.73601
1344.20941	0.73555
1342.28084	0.73571
1340.35228	0.73762
1338.42371	0.74180
1336.49515	0.74711
1334.56659	0.75363
1332.63802	0.76197
1330.70946	0.77144
1328.78089	0.77984
1326.85233	0.78535
1324.92376	0.78818
1322.99520	0.78984
1321.06663	0.79157
1319.13807	0.79369
1317.20951	0.79574
1315.28094	0.79740
1313.35238	0.79878
1311.42381	0.79939
1309.49525	0.79895
1307.56668	0.79769
1305.63812	0.79559
1303.70955	0.79283
1301.78099	0.78972
1299.85243	0.78617
1297.92386	0.78213
1295.99530	0.77810
1294.06673	0.77483
1292.13817	0.77291
1290.20960	0.77276
1288.28104	0.77404
1286.35247	0.77582
1284.42391	0.77742
1282.49535	0.77886
1280.56678	0.78048
1278.63822	0.78254
1276.70965	0.78533
1274.78109	0.78925
1272.85252	0.79463
1270.92396	0.80139
1268.99539	0.80904
1267.06683	0.81671
1265.13827	0.82306
1263.20970	0.82701
1261.28114	0.82865
1259.35257	0.82893
1257.42401	0.82861
1255.49544	0.82830
1253.56688	0.82829
1251.63831	0.82836
1249.70975	0.82847
1247.78119	0.82866
1245.85262	0.82862
1243.92406	0.82817
1241.99549	0.82739
1240.06693	0.82631
1238.13836	0.82458
1236.20980	0.82165
1234.28123	0.81751
1232.35267	0.81285
1230.42411	0.80777
1228.49554	0.80157
1226.56698	0.79436
1224.63841	0.78687
1222.70985	0.77931
1220.78128	0.77179
1218.85272	0.76487
1216.92415	0.75927
1214.99559	0.75576
1213.06703	0.75480
1211.13846	0.75610
1209.20990	0.75847
1207.28133	0.75985
1205.35277	0.75834
1203.42420	0.75351
1201.49564	0.74656
1199.56708	0.73878
1197.63851	0.73076
1195.70995	0.72308
1193.78138	0.71684
1191.85282	0.71291
1189.92425	0.71127
1187.99569	0.71139
1186.06712	0.71271
1184.13856	0.71512
1182.21000	0.71933
1180.28143	0.72575
1178.35287	0.73397
1176.42430	0.74356
1174.49574	0.75418
1172.56717	0.76542
1170.63861	0.77759
1168.71004	0.79130
1166.78148	0.80587
1164.85292	0.81995
1162.92435	0.83191
1160.99579	0.83936
1159.06722	0.84098
1157.13866	0.83715
1155.21009	0.82870
1153.28153	0.81692
1151.35296	0.80338
1149.42440	0.78953
1147.49584	0.77697
1145.56727	0.76694
1143.63871	0.76048
1141.71014	0.75870
1139.78158	0.76158
1137.85301	0.76776
1135.92445	0.77628
1133.99588	0.78727
1132.06732	0.80117
1130.13876	0.81778
1128.21019	0.83565
1126.28163	0.85269
1124.35306	0.86749
1122.42450	0.87976
1120.49593	0.88949
1118.56737	0.89613
1116.63880	0.89849
1114.71024	0.89627
1112.78168	0.89129
1110.85311	0.88541
1108.92455	0.87963
1106.99598	0.87481
1105.06742	0.87109
1103.13885	0.86832
1101.21029	0.86729
1099.28172	0.86921
1097.35316	0.87472
1095.42460	0.88335
1093.49603	0.89423
1091.56747	0.90706
1089.63890	0.92150
1087.71034	0.93698
1085.78177	0.95267
1083.85321	0.96699
1081.92464	0.97801
1079.99608	0.98445
1078.06752	0.98603
1076.13895	0.98284
1074.21039	0.97573
1072.28182	0.96649
1070.35326	0.95635
1068.42469	0.94548
1066.49613	0.93354
1064.56756	0.92109
1062.63900	0.90933
1060.71044	0.89759
1058.78187	0.88538
1056.85331	0.87402
1054.92474	0.86428
1052.99618	0.85671
1051.06761	0.85186
1049.13905	0.84924
1047.21049	0.84937
1045.28192	0.85318
1043.35336	0.85940
1041.42479	0.86631
1039.49623	0.87243
1037.56766	0.87620
1035.63910	0.87757
1033.71053	0.87713
1031.78197	0.87431
1029.85341	0.86853
1027.92484	0.86036
1025.99628	0.85091
1024.06771	0.84146
1022.13915	0.83312
1020.21058	0.82605
1018.28202	0.81961
1016.35345	0.81254
1014.42489	0.80307
1012.49633	0.78995
1010.56776	0.77380
1008.63920	0.75638
1006.71063	0.73929
1004.78207	0.72384
1002.85350	0.71081
1000.92494	0.70045
998.99637	0.69264
997.06781	0.68673
995.13925	0.68182
993.21068	0.67704
991.28212	0.67187
989.35355	0.66683
987.42499	0.66277
985.49642	0.65976
983.56786	0.65781
981.63929	0.65735
979.71073	0.65812
977.78217	0.65900
975.85360	0.65892
973.92504	0.65702
971.99647	0.65278
970.06791	0.64679
968.13934	0.64056
966.21078	0.63562
964.28221	0.63309
962.35365	0.63418
960.42509	0.63997
958.49652	0.64945
956.56796	0.65855
954.63939	0.66255
952.71083	0.65948
950.78226	0.65099
948.85370	0.64052
946.92513	0.63121
944.99657	0.62436
943.06801	0.61968
941.13944	0.61665
939.21088	0.61508
937.28231	0.61471
935.35375	0.61514
933.42518	0.61623
931.49662	0.61822
929.56805	0.62127
927.63949	0.62504
925.71093	0.62885
923.78236	0.63270
921.85380	0.63664
919.92523	0.63981
917.99667	0.64178
916.06810	0.64340
914.13954	0.64563
912.21098	0.64899
910.28241	0.65354
908.35385	0.65904
906.42528	0.66522
904.49672	0.67183
902.56815	0.67839
900.63959	0.68431
898.71102	0.68922
896.78246	0.69291
894.85390	0.69548
892.92533	0.69736
890.99677	0.69930
889.06820	0.70201
887.13964	0.70552
885.21107	0.70943
883.28251	0.71381
881.35394	0.71882
879.42538	0.72417
877.49682	0.72938
875.56825	0.73412
873.63969	0.73847
871.71112	0.74249
869.78256	0.74612
867.85399	0.74945
865.92543	0.75258
863.99686	0.75548
862.06830	0.75841
860.13974	0.76191
858.21117	0.76579
856.28261	0.76956
854.35404	0.77324
852.42548	0.77655
850.49691	0.77893
848.56835	0.78085
846.63978	0.78316
844.71122	0.78562
842.78266	0.78775
840.85409	0.78964
838.92553	0.79138
836.99696	0.79294
835.06840	0.79466
833.13983	0.79679
831.21127	0.79880
829.28270	0.80000
827.35414	0.80021
825.42558	0.79978
823.49701	0.79944
821.56845	0.79939
819.63988	0.79931
817.71132	0.79928
815.78275	0.79980
813.85419	0.80084
811.92562	0.80187
809.99706	0.80292
808.06850	0.80397
806.13993	0.80455
804.21137	0.80494
802.28280	0.80599
800.35424	0.80815
798.42567	0.81091
796.49711	0.81325
794.56854	0.81569
792.63998	0.81932
790.71142	0.82357
788.78285	0.82759
786.85429	0.83124
784.92572	0.83461
782.99716	0.83772
781.06859	0.84007
779.14003	0.84164
777.21147	0.84345
775.28290	0.84580
773.35434	0.84774
771.42577	0.84900
769.49721	0.85006
767.56864	0.85097
765.64008	0.85144
763.71151	0.85189
761.78295	0.85329
759.85439	0.85574
757.92582	0.85861
755.99726	0.86157
754.06869	0.86529
752.14013	0.87056
750.21156	0.87646
748.28300	0.88176
746.35443	0.88657
744.42587	0.89103
742.49731	0.89528
740.56874	0.90001
738.64018	0.90524
736.71161	0.91014
734.78305	0.91439
732.85448	0.91831
730.92592	0.92156
728.99735	0.92354
727.06879	0.92518
725.14023	0.92744
723.21166	0.92964
721.28310	0.93006
719.35453	0.92704
717.42597	0.92181
715.49740	0.91690
713.56884	0.91268
711.64027	0.90920
709.71171	0.90683
707.78315	0.90446
705.85458	0.90145
703.92602	0.89942
701.99745	0.89845
700.06889	0.89685
698.14032	0.89492
696.21176	0.89389
694.28319	0.89414
692.35463	0.89567
690.42607	0.89804
688.49750	0.90028
686.56894	0.90217
684.64037	0.90427
682.71181	0.90676
680.78324	0.90985
678.85468	0.91396
676.92611	0.91859
674.99755	0.92303
673.06899	0.92650
671.14042	0.92826
669.21186	0.92899
667.28329	0.92806
665.35473	0.92492
663.42616	0.92103
661.49760	0.91615
659.56903	0.91008
657.64047	0.90287
655.71191	0.89523
653.78334	0.88920
651.85478	0.88466
649.92621	0.87910
647.99765	0.87323
646.06908	0.86975
644.14052	0.86854
642.21195	0.86873
640.28339	0.87020
638.35483	0.87217
636.42626	0.87452
634.49770	0.87756
632.56913	0.88045
630.64057	0.88297
628.71200	0.88627
626.78344	0.89169
624.85488	0.89906
622.92631	0.90640
620.99775	0.91296
619.06918	0.92078
617.14062	0.93055
615.21205	0.93890
613.28349	0.94407
611.35492	0.94639
609.42636	0.94616
607.49780	0.94497
605.56923	0.94297
603.64067	0.93919
601.71210	0.93420
599.78354	0.92903
