3997.91406	0.66490
3995.98550	0.66479
3994.05693	0.66443
3992.12837	0.66348
3990.19980	0.66256
3988.27124	0.66175
3986.34268	0.66018
3984.41411	0.65955
3982.48555	0.66148
3980.55698	0.66326
3978.62842	0.66178
3976.69985	0.65798
3974.77129	0.65576
3972.84272	0.65690
3970.91416	0.65879
3968.98560	0.65910
3967.05703	0.65834
3965.12847	0.65748
3963.19990	0.65703
3961.27134	0.65734
3959.34277	0.65822
3957.41421	0.65865
3955.48564	0.65740
3953.55708	0.65520
3951.62852	0.65341
3949.69995	0.65284
3947.77139	0.65332
3945.84282	0.65292
3943.91426	0.65258
3941.98569	0.65380
3940.05713	0.65356
3938.12856	0.65128
3936.20000	0.64880
3934.27144	0.64735
3932.34287	0.64943
3930.41431	0.65315
3928.48574	0.65274
3926.55718	0.64977
3924.62861	0.64831
3922.70005	0.64798
3920.77148	0.64722
3918.84292	0.64718
3916.91436	0.64900
3914.98579	0.65107
3913.05723	0.65140
3911.12866	0.65010
3909.20010	0.64662
3907.27153	0.64078
3905.34297	0.63589
3903.41440	0.63491
3901.48584	0.63602
3899.55728	0.63911
3897.62871	0.64099
3895.70015	0.63853
3893.77158	0.63517
3891.84302	0.63609
3889.91445	0.63744
3887.98589	0.63491
3886.05733	0.63417
3884.12876	0.63646
3882.20020	0.63664
3880.27163	0.63725
3878.34307	0.63737
3876.41450	0.63516
3874.48594	0.63310
3872.55737	0.63178
3870.62881	0.63277
3868.70025	0.63509
3866.77168	0.63375
3864.84312	0.63234
3862.91455	0.63402
3860.98599	0.63482
3859.05742	0.63299
3857.12886	0.62740
3855.20029	0.61917
3853.27173	0.62360
3851.34317	0.63417
3849.41460	0.63452
3847.48604	0.63167
3845.55747	0.62955
3843.62891	0.62771
3841.70034	0.62369
3839.77178	0.62008
3837.84321	0.62331
3835.91465	0.62786
3833.98609	0.62890
3832.05752	0.62899
3830.12896	0.62845
3828.20039	0.62724
3826.27183	0.62617
3824.34326	0.62305
3822.41470	0.61843
3820.48613	0.61855
3818.55757	0.62058
3816.62901	0.62430
3814.70044	0.62958
3812.77188	0.62952
3810.84331	0.62565
3808.91475	0.62211
3806.98618	0.62185
3805.05762	0.62018
3803.12905	0.61522
3801.20049	0.61648
3799.27193	0.62169
3797.34336	0.62420
3795.41480	0.62553
3793.48623	0.62488
3791.55767	0.62393
3789.62910	0.62396
3787.70054	0.62354
3785.77197	0.62298
3783.84341	0.62202
3781.91485	0.61986
3779.98628	0.62022
3778.05772	0.62375
3776.12915	0.62453
3774.20059	0.62176
3772.27202	0.61857
3770.34346	0.61847
3768.41489	0.61999
3766.48633	0.62024
3764.55777	0.62011
3762.62920	0.61860
3760.70064	0.61702
3758.77207	0.61831
3756.84351	0.61801
3754.91494	0.61253
3752.98638	0.60445
3751.05781	0.60281
3749.12925	0.60792
3747.20069	0.60830
3745.27212	0.61151
3743.34356	0.61931
3741.41499	0.61924
3739.48643	0.61199
3737.55786	0.60232
3735.62930	0.59946
3733.70074	0.60808
3731.77217	0.61519
3729.84361	0.61665
3727.91504	0.61465
3725.98648	0.61159
3724.05791	0.61015
3722.12935	0.61169
3720.20078	0.61478
3718.27222	0.61626
3716.34366	0.61498
3714.41509	0.61144
3712.48653	0.60922
3710.55796	0.61380
3708.62940	0.61781
3706.70083	0.61707
3704.77227	0.61468
3702.84370	0.61552
3700.91514	0.62060
3698.98658	0.62380
3697.05801	0.62466
3695.12945	0.62414
3693.20088	0.62075
3691.27232	0.61598
3689.34375	0.61794
3687.41519	0.62557
3685.48662	0.62898
3683.55806	0.62927
3681.62950	0.62975
3679.70093	0.63006
3677.77237	0.62787
3675.84380	0.63003
3673.91524	0.63775
3671.98667	0.64077
3670.05811	0.64716
3668.12954	0.65583
3666.20098	0.65921
3664.27242	0.66194
3662.34385	0.66615
3660.41529	0.66980
3658.48672	0.67327
3656.55816	0.68047
3654.62959	0.68616
3652.70103	0.68497
3650.77246	0.68512
3648.84390	0.70106
3646.91534	0.71673
3644.98677	0.72282
3643.05821	0.72818
3641.12964	0.73586
3639.20108	0.74334
3637.27251	0.74856
3635.34395	0.75360
3633.41538	0.75892
3631.48682	0.76273
3629.55826	0.77248
3627.62969	0.78871
3625.70113	0.79601
3623.77256	0.79943
3621.84400	0.80269
3619.91543	0.80824
3617.98687	0.81722
3616.05830	0.82450
3614.12974	0.83166
3612.20118	0.84014
3610.27261	0.84791
3608.34405	0.85778
3606.41548	0.86763
3604.48692	0.87183
3602.55835	0.87400
3600.62979	0.87959
3598.70123	0.88805
3596.77266	0.89889
3594.84410	0.91420
3592.91553	0.92771
3590.98697	0.93446
3589.05840	0.94029
3587.12984	0.95002
3585.20127	0.95794
3583.27271	0.96321
3581.34415	0.97142
3579.41558	0.98417
3577.48702	0.99704
3575.55845	1.00659
3573.62989	1.01332
3571.70132	1.01775
3569.77276	1.02013
3567.84419	1.02623
3565.91563	1.04106
3563.98707	1.05363
3562.05850	1.06225
3560.12994	1.07216
3558.20137	1.08103
3556.27281	1.08332
3554.34424	1.08511
3552.41568	1.09600
3550.48711	1.10982
3548.55855	1.11854
3546.62999	1.12567
3544.70142	1.13430
3542.77286	1.14212
3540.84429	1.14833
3538.91573	1.15338
3536.98716	1.15879
3535.05860	1.16707
3533.13003	1.17694
3531.20147	1.18724
3529.27291	1.19877
3527.34434	1.21008
3525.41578	1.22018
3523.48721	1.22917
3521.55865	1.23556
3519.63008	1.24283
3517.70152	1.25487
3515.77295	1.26660
3513.84439	1.27470
3511.91583	1.28302
3509.98726	1.29328
3508.05870	1.30218
3506.13013	1.30940
3504.20157	1.31945
3502.27300	1.32991
3500.34444	1.33595
3498.41587	1.34083
3496.48731	1.34956
3494.55875	1.36233
3492.63018	1.37160
3490.70162	1.37433
3488.77305	1.37692
3486.84449	1.38332
3484.91592	1.38986
3482.98736	1.39500
3481.05879	1.40016
3479.13023	1.40445
3477.20167	1.40802
3475.27310	1.41072
3473.34454	1.41181
3471.41597	1.41209
3469.48741	1.41489
3467.55884	1.42187
3465.63028	1.42723
3463.70171	1.42965
3461.77315	1.43453
3459.84459	1.44091
3457.91602	1.44626
3455.98746	1.44931
3454.05889	1.44877
3452.13033	1.45044
3450.20176	1.45546
3448.27320	1.45573
3446.34464	1.45502
3444.41607	1.46038
3442.48751	1.46487
3440.55894	1.46661
3438.63038	1.47244
3436.70181	1.47904
3434.77325	1.48020
3432.84468	1.48150
3430.91612	1.48378
3428.98756	1.48179
3427.05899	1.47968
3425.13043	1.48035
3423.20186	1.48078
3421.27330	1.48125
3419.34473	1.48178
3417.41617	1.48157
3415.48760	1.48130
3413.55904	1.47974
3411.63048	1.47902
3409.70191	1.47961
3407.77335	1.47904
3405.84478	1.48372
3403.91622	1.49569
3401.98765	1.50552
3400.05909	1.50743
3398.13052	1.50313
3396.20196	1.49772
3394.27340	1.49557
3392.34483	1.49743
3390.41627	1.49942
3388.48770	1.49945
3386.55914	1.50197
3384.63057	1.50605
3382.70201	1.50531
3380.77344	1.50460
3378.84488	1.51136
3376.91632	1.51878
3374.98775	1.52006
3373.05919	1.52083
3371.13062	1.52448
3369.20206	1.52835
3367.27349	1.53145
3365.34493	1.53230
3363.41636	1.52895
3361.48780	1.52587
3359.55924	1.52693
3357.63067	1.52706
3355.70211	1.52334
3353.77354	1.51920
3351.84498	1.51855
3349.91641	1.52484
3347.98785	1.53369
3346.05928	1.53722
3344.13072	1.53953
3342.20216	1.54605
3340.27359	1.55240
3338.34503	1.55693
3336.41646	1.55998
3334.48790	1.55447
3332.55933	1.54350
3330.63077	1.54189
3328.70220	1.55014
3326.77364	1.55515
3324.84508	1.55570
3322.91651	1.56149
3320.98795	1.57067
3319.05938	1.57600
3317.13082	1.57668
3315.20225	1.57015
3313.27369	1.55868
3311.34513	1.55314
3309.41656	1.55766
3307.48800	1.56844
3305.55943	1.57838
3303.63087	1.57704
3301.70230	1.56645
3299.77374	1.56250
3297.84517	1.56879
3295.91661	1.57572
3293.98805	1.57656
3292.05948	1.57222
3290.13092	1.56862
3288.20235	1.57031
3286.27379	1.57675
3284.34522	1.57909
3282.41666	1.57298
3280.48809	1.56720
3278.55953	1.56179
3276.63097	1.55297
3274.70240	1.54878
3272.77384	1.55099
3270.84527	1.55194
3268.91671	1.55090
3266.98814	1.55053
3265.05958	1.54748
3263.13101	1.54040
3261.20245	1.53782
3259.27389	1.54235
3257.34532	1.54317
3255.41676	1.53396
3253.48819	1.52184
3251.55963	1.51870
3249.63106	1.52403
3247.70250	1.52290
3245.77393	1.51228
3243.84537	1.50281
3241.91681	1.49778
3239.98824	1.49471
3238.05968	1.49070
3236.13111	1.48646
3234.20255	1.48349
3232.27398	1.47854
3230.34542	1.47423
3228.41685	1.47444
3226.48829	1.47526
3224.55973	1.47519
3222.63116	1.47461
3220.70260	1.47387
3218.77403	1.47354
3216.84547	1.46927
3214.91690	1.46179
3212.98834	1.45774
3211.05977	1.45575
3209.13121	1.44960
3207.20265	1.44151
3205.27408	1.43874
3203.34552	1.43885
3201.41695	1.43636
3199.48839	1.43452
3197.55982	1.43193
3195.63126	1.42411
3193.70269	1.41762
3191.77413	1.41560
3189.84557	1.41419
3187.91700	1.41315
3185.98844	1.41105
3184.05987	1.40808
3182.13131	1.40621
3180.20274	1.40174
3178.27418	1.39405
3176.34562	1.38752
3174.41705	1.38403
3172.48849	1.38197
3170.55992	1.37870
3168.63136	1.37454
3166.70279	1.37060
3164.77423	1.36641
3162.84566	1.36178
3160.91710	1.35776
3158.98854	1.35604
3157.05997	1.35521
3155.13141	1.35201
3153.20284	1.34721
3151.27428	1.34366
3149.34571	1.34200
3147.41715	1.34082
3145.48858	1.33787
3143.56002	1.33425
3141.63146	1.33423
3139.70289	1.33601
3137.77433	1.33349
3135.84576	1.32654
3133.91720	1.31813
3131.98863	1.31180
3130.06007	1.31113
3128.13150	1.31462
3126.20294	1.31863
3124.27438	1.32204
3122.34581	1.32490
3120.41725	1.32637
3118.48868	1.32444
3116.56012	1.31885
3114.63155	1.31241
3112.70299	1.30896
3110.77442	1.31003
3108.84586	1.31338
3106.91730	1.31544
3104.98873	1.31589
3103.06017	1.31669
3101.13160	1.31638
3099.20304	1.31452
3097.27447	1.31426
3095.34591	1.31452
3093.41734	1.31282
3091.48878	1.31017
3089.56022	1.30683
3087.63165	1.30195
3085.70309	1.29729
3083.77452	1.29590
3081.84596	1.29747
3079.91739	1.29887
3077.98883	1.29793
3076.06026	1.29495
3074.13170	1.29195
3072.20314	1.28952
3070.27457	1.28668
3068.34601	1.28407
3066.41744	1.28123
3064.48888	1.27635
3062.56031	1.27109
3060.63175	1.26682
3058.70318	1.26253
3056.77462	1.25780
3054.84606	1.25213
3052.91749	1.24698
3050.98893	1.24434
3049.06036	1.24206
3047.13180	1.23832
3045.20323	1.23496
3043.27467	1.23212
3041.34610	1.22840
3039.41754	1.22536
3037.48898	1.22445
3035.56041	1.22458
3033.63185	1.22541
3031.70328	1.22604
3029.77472	1.22305
3027.84615	1.21663
3025.91759	1.21144
3023.98903	1.20849
3022.06046	1.20529
3020.13190	1.20109
3018.20333	1.19607
3016.27477	1.19142
3014.34620	1.18928
3012.41764	1.18928
3010.48907	1.18877
3008.56051	1.18651
3006.63195	1.18287
3004.70338	1.17885
3002.77482	1.17595
3000.84625	1.17422
2998.91769	1.17279
2996.98912	1.17189
2995.06056	1.17310
2993.13199	1.17770
2991.20343	1.18353
2989.27487	1.18779
2987.34630	1.19195
2985.41774	1.19801
2983.48917	1.20528
2981.56061	1.21340
2979.63204	1.22334
2977.70348	1.23449
2975.77491	1.24414
2973.84635	1.25244
2971.91779	1.26210
2969.98922	1.27241
2968.06066	1.28163
2966.13209	1.29019
2964.20353	1.29686
2962.27496	1.30009
2960.34640	1.30066
2958.41783	1.29888
2956.48927	1.29503
2954.56071	1.28962
2952.63214	1.28233
2950.70358	1.27544
2948.77501	1.27175
2946.84645	1.27121
2944.91788	1.27382
2942.98932	1.27915
2941.06075	1.28624
2939.13219	1.29530
2937.20363	1.30538
2935.27506	1.31510
2933.34650	1.32464
2931.41793	1.33290
2929.48937	1.33752
2927.56080	1.33843
2925.63224	1.33901
2923.70367	1.34228
2921.77511	1.34548
2919.84655	1.34395
2917.91798	1.33685
2915.98942	1.32217
2914.06085	1.29989
2912.13229	1.27717
2910.20372	1.25846
2908.27516	1.24218
2906.34659	1.22777
2904.41803	1.21747
2902.48947	1.21179
2900.56090	1.20741
2898.63234	1.20249
2896.70377	1.19893
2894.77521	1.19713
2892.84664	1.19481
2890.91808	1.19106
2888.98952	1.18757
2887.06095	1.18543
2885.13239	1.18390
2883.20382	1.18253
2881.27526	1.18194
2879.34669	1.18268
2877.41813	1.18366
2875.48956	1.18291
2873.56100	1.18018
2871.63244	1.17520
2869.70387	1.16685
2867.77531	1.15643
2865.84674	1.14781
2863.91818	1.14334
2861.98961	1.14159
2860.06105	1.14163
2858.13248	1.14623
2856.20392	1.15585
2854.27536	1.16552
2852.34679	1.17112
2850.41823	1.16910
2848.48966	1.15350
2846.56110	1.12526
2844.63253	1.09482
2842.70397	1.07002
2840.77540	1.05192
2838.84684	1.03908
2836.91828	1.03029
2834.98971	1.02427
2833.06115	1.01934
2831.13258	1.01462
2829.20402	1.01056
2827.27545	1.00729
2825.34689	1.00416
2823.41832	1.00119
2821.48976	0.99834
2819.56120	0.99459
2817.63263	0.98999
2815.70407	0.98595
2813.77550	0.98249
2811.84694	0.97882
2809.91837	0.97533
2807.98981	0.97184
2806.06124	0.96751
2804.13268	0.96258
2802.20412	0.95755
2800.27555	0.95266
2798.34699	0.94874
2796.41842	0.94604
2794.48986	0.94311
2792.56129	0.93915
2790.63273	0.93541
2788.70416	0.93275
2786.77560	0.93047
2784.84704	0.92816
2782.91847	0.92650
2780.98991	0.92506
2779.06134	0.92274
2777.13278	0.92082
2775.20421	0.91992
2773.27565	0.91822
2771.34708	0.91565
2769.41852	0.91380
2767.48996	0.91294
2765.56139	0.91172
2763.63283	0.90924
2761.70426	0.90660
2759.77570	0.90510
2757.84713	0.90400
2755.91857	0.90236
2753.99001	0.90048
2752.06144	0.89817
2750.13288	0.89502
2748.20431	0.89160
2746.27575	0.88891
2744.34718	0.88708
2742.41862	0.88520
2740.49005	0.88242
2738.56149	0.87854
2736.63293	0.87440
2734.70436	0.87133
2732.77580	0.86968
2730.84723	0.86886
2728.91867	0.86763
2726.99010	0.86521
2725.06154	0.86247
2723.13297	0.86020
2721.20441	0.85825
2719.27585	0.85628
2717.34728	0.85423
2715.41872	0.85246
2713.49015	0.85075
2711.56159	0.84867
2709.63302	0.84655
2707.70446	0.84443
2705.77589	0.84220
2703.84733	0.84007
2701.91877	0.83798
2699.99020	0.83622
2698.06164	0.83488
2696.13307	0.83279
2694.20451	0.82973
2692.27594	0.82698
2690.34738	0.82496
2688.41881	0.82317
2686.49025	0.82135
2684.56169	0.81936
2682.63312	0.81703
2680.70456	0.81463
2678.77599	0.81231
2676.84743	0.80974
2674.91886	0.80704
2672.99030	0.80434
2671.06173	0.80161
2669.13317	0.79931
2667.20461	0.79756
2665.27604	0.79580
2663.34748	0.79368
2661.41891	0.79151
2659.49035	0.79000
2657.56178	0.78925
2655.63322	0.78861
2653.70465	0.78773
2651.77609	0.78673
2649.84753	0.78554
2647.91896	0.78434
2645.99040	0.78321
2644.06183	0.78170
2642.13327	0.77991
2640.20470	0.77837
2638.27614	0.77724
2636.34757	0.77664
2634.41901	0.77618
2632.49045	0.77500
2630.56188	0.77316
2628.63332	0.77143
2626.70475	0.76973
2624.77619	0.76784
2622.84762	0.76633
2620.91906	0.76522
2618.99049	0.76381
2617.06193	0.76227
2615.13337	0.76107
2613.20480	0.75992
2611.27624	0.75837
2609.34767	0.75640
2607.41911	0.75457
2605.49054	0.75306
2603.56198	0.75147
2601.63342	0.75004
2599.70485	0.74916
2597.77629	0.74836
2595.84772	0.74714
2593.91916	0.74572
2591.99059	0.74446
2590.06203	0.74324
2588.13346	0.74187
2586.20490	0.74060
2584.27634	0.73975
2582.34777	0.73914
2580.41921	0.73827
2578.49064	0.73702
2576.56208	0.73560
2574.63351	0.73413
2572.70495	0.73268
2570.77638	0.73134
2568.84782	0.73023
2566.91926	0.72927
2564.99069	0.72833
2563.06213	0.72715
2561.13356	0.72541
2559.20500	0.72321
2557.27643	0.72113
2555.34787	0.71969
2553.41930	0.71900
2551.49074	0.71853
2549.56218	0.71781
2547.63361	0.71680
2545.70505	0.71550
2543.77648	0.71417
2541.84792	0.71336
2539.91935	0.71287
2537.99079	0.71201
2536.06222	0.71080
2534.13366	0.70974
2532.20510	0.70915
2530.27653	0.70904
2528.34797	0.70910
2526.41940	0.70877
2524.49084	0.70763
2522.56227	0.70592
2520.63371	0.70435
2518.70514	0.70317
2516.77658	0.70229
2514.84802	0.70152
2512.91945	0.70056
2510.99089	0.69946
2509.06232	0.69829
2507.13376	0.69668
2505.20519	0.69479
2503.27663	0.69300
2501.34806	0.69104
2499.41950	0.68900
2497.49094	0.68733
2495.56237	0.68604
2493.63381	0.68495
2491.70524	0.68374
2489.77668	0.68193
2487.84811	0.67985
2485.91955	0.67839
2483.99098	0.67728
2482.06242	0.67576
2480.13386	0.67377
2478.20529	0.67143
2476.27673	0.66920
2474.34816	0.66760
2472.41960	0.66629
2470.49103	0.66478
2468.56247	0.66298
2466.63391	0.66122
2464.70534	0.65986
2462.77678	0.65885
2460.84821	0.65786
2458.91965	0.65653
2456.99108	0.65493
2455.06252	0.65365
2453.13395	0.65256
2451.20539	0.65127
2449.27683	0.65003
2447.34826	0.64890
2445.41970	0.64755
2443.49113	0.64610
2441.56257	0.64494
2439.63400	0.64396
2437.70544	0.64282
2435.77687	0.64147
2433.84831	0.64010
2431.91975	0.63885
2429.99118	0.63792
2428.06262	0.63732
2426.13405	0.63680
2424.20549	0.63605
2422.27692	0.63491
2420.34836	0.63350
2418.41979	0.63227
2416.49123	0.63128
2414.56267	0.63053
2412.63410	0.62999
2410.70554	0.62922
2408.77697	0.62826
2406.84841	0.62763
2404.91984	0.62712
2402.99128	0.62623
2401.06271	0.62511
2399.13415	0.62407
2397.20559	0.62301
2395.27702	0.62193
2393.34846	0.62094
2391.41989	0.61961
2389.49133	0.61795
2387.56276	0.61669
2385.63420	0.61581
2383.70563	0.61490
2381.77707	0.61423
2379.84851	0.61366
2377.91994	0.61250
2375.99138	0.61122
2374.06281	0.61107
2372.13425	0.61251
2370.20568	0.61464
2368.27712	0.61564
2366.34855	0.61563
2364.41999	0.61648
2362.49143	0.61864
2360.56286	0.62134
2358.63430	0.62217
2356.70573	0.62054
2354.77717	0.61895
2352.84860	0.61729
2350.92004	0.61474
2348.99147	0.61243
2347.06291	0.61140
2345.13435	0.61176
2343.20578	0.61188
2341.27722	0.61039
2339.34865	0.60860
2337.42009	0.60762
2335.49152	0.60683
2333.56296	0.60640
2331.63440	0.60704
2329.70583	0.60780
2327.77727	0.60773
2325.84870	0.60722
2323.92014	0.60658
2321.99157	0.60553
2320.06301	0.60380
2318.13444	0.60187
2316.20588	0.60057
2314.27732	0.60003
2312.34875	0.59980
2310.42019	0.59960
2308.49162	0.59909
2306.56306	0.59795
2304.63449	0.59652
2302.70593	0.59553
2300.77736	0.59508
2298.84880	0.59461
2296.92024	0.59366
2294.99167	0.59219
2293.06311	0.59075
2291.13454	0.58977
2289.20598	0.58890
2287.27741	0.58789
2285.34885	0.58693
2283.42028	0.58585
2281.49172	0.58447
2279.56316	0.58319
2277.63459	0.58227
2275.70603	0.58141
2273.77746	0.58038
2271.84890	0.57912
2269.92033	0.57779
2267.99177	0.57659
2266.06320	0.57544
2264.13464	0.57419
2262.20608	0.57296
2260.27751	0.57201
2258.34895	0.57143
2256.42038	0.57078
2254.49182	0.56960
2252.56325	0.56816
2250.63469	0.56691
2248.70612	0.56600
2246.77756	0.56532
2244.84900	0.56447
2242.92043	0.56329
2240.99187	0.56218
2239.06330	0.56151
2237.13474	0.56116
2235.20617	0.56068
2233.27761	0.56000
2231.34904	0.55932
2229.42048	0.55867
2227.49192	0.55801
2225.56335	0.55719
2223.63479	0.55620
2221.70622	0.55538
2219.77766	0.55482
2217.84909	0.55442
2215.92053	0.55424
2213.99196	0.55398
2212.06340	0.55342
2210.13484	0.55287
2208.20627	0.55252
2206.27771	0.55226
2204.34914	0.55203
2202.42058	0.55168
2200.49201	0.55126
2198.56345	0.55089
2196.63488	0.55054
2194.70632	0.55013
2192.77776	0.54981
2190.84919	0.54970
2188.92063	0.54967
2186.99206	0.54948
2185.06350	0.54915
2183.13493	0.54894
2181.20637	0.54895
2179.27781	0.54901
2177.34924	0.54906
2175.42068	0.54909
2173.49211	0.54895
2171.56355	0.54864
2169.63498	0.54833
2167.70642	0.54813
2165.77785	0.54806
2163.84929	0.54799
2161.92073	0.54784
2159.99216	0.54764
2158.06360	0.54722
2156.13503	0.54648
2154.20647	0.54597
2152.27790	0.54600
2150.34934	0.54599
2148.42077	0.54555
2146.49221	0.54490
2144.56365	0.54435
2142.63508	0.54405
2140.70652	0.54393
2138.77795	0.54373
2136.84939	0.54342
2134.92082	0.54312
2132.99226	0.54297
2131.06369	0.54284
2129.13513	0.54258
2127.20657	0.54230
2125.27800	0.54216
2123.34944	0.54198
2121.42087	0.54158
2119.49231	0.54109
2117.56374	0.54061
2115.63518	0.54002
2113.70661	0.53928
2111.77805	0.53858
2109.84949	0.53798
2107.92092	0.53740
2105.99236	0.53690
2104.06379	0.53635
2102.13523	0.53537
2100.20666	0.53409
2098.27810	0.53302
2096.34953	0.53220
2094.42097	0.53120
2092.49241	0.52985
2090.56384	0.52833
2088.63528	0.52682
2086.70671	0.52543
2084.77815	0.52405
2082.84958	0.52258
2080.92102	0.52115
2078.99245	0.51981
2077.06389	0.51857
2075.13533	0.51739
2073.20676	0.51618
2071.27820	0.51502
2069.34963	0.51403
2067.42107	0.51312
2065.49250	0.51214
2063.56394	0.51115
2061.63537	0.51015
2059.70681	0.50907
2057.77825	0.50798
2055.84968	0.50698
2053.92112	0.50605
2051.99255	0.50494
2050.06399	0.50369
2048.13542	0.50257
2046.20686	0.50159
2044.27830	0.50065
2042.34973	0.49975
2040.42117	0.49894
2038.49260	0.49797
2036.56404	0.49682
2034.63547	0.49569
2032.70691	0.49456
2030.77834	0.49334
2028.84978	0.49200
2026.92122	0.49066
2024.99265	0.48953
2023.06409	0.48860
2021.13552	0.48757
2019.20696	0.48641
2017.27839	0.48528
2015.34983	0.48421
2013.42126	0.48320
2011.49270	0.48225
2009.56414	0.48143
2007.63557	0.48073
2005.70701	0.48005
2003.77844	0.47951
2001.84988	0.47920
1999.92131	0.47894
1997.99275	0.47867
1996.06418	0.47842
1994.13562	0.47841
1992.20706	0.47863
1990.27849	0.47859
1988.34993	0.47833
1986.42136	0.47832
1984.49280	0.47836
1982.56423	0.47823
1980.63567	0.47805
1978.70710	0.47790
1976.77854	0.47785
1974.84998	0.47785
1972.92141	0.47766
1970.99285	0.47727
1969.06428	0.47686
1967.13572	0.47645
1965.20715	0.47584
1963.27859	0.47505
1961.35002	0.47441
1959.42146	0.47401
1957.49290	0.47353
1955.56433	0.47288
1953.63577	0.47220
1951.70720	0.47150
1949.77864	0.47078
1947.85007	0.47010
1945.92151	0.46963
1943.99294	0.46975
1942.06438	0.47007
1940.13582	0.46956
1938.20725	0.46855
1936.27869	0.46788
1934.35012	0.46765
1932.42156	0.46761
1930.49299	0.46767
1928.56443	0.46783
1926.63586	0.46787
1924.70730	0.46800
1922.77874	0.46864
1920.85017	0.46914
1918.92161	0.46930
1916.99304	0.46949
1915.06448	0.46941
1913.13591	0.46907
1911.20735	0.46887
1909.27878	0.46880
1907.35022	0.46838
1905.42166	0.46756
1903.49309	0.46678
1901.56453	0.46614
1899.63596	0.46544
1897.70740	0.46452
1895.77883	0.46343
1893.85027	0.46222
1891.92171	0.46110
1889.99314	0.46053
1888.06458	0.46014
1886.13601	0.45936
1884.20745	0.45860
1882.27888	0.45810
1880.35032	0.45761
1878.42175	0.45701
1876.49319	0.45639
1874.56463	0.45574
1872.63606	0.45511
1870.70750	0.45505
1868.77893	0.45614
1866.85037	0.45694
1864.92180	0.45658
1862.99324	0.45629
1861.06467	0.45657
1859.13611	0.45710
1857.20755	0.45750
1855.27898	0.45778
1853.35042	0.45807
1851.42185	0.45840
1849.49329	0.45875
1847.56472	0.45911
1845.63616	0.45991
1843.70759	0.46111
1841.77903	0.46115
1839.85047	0.46046
1837.92190	0.46037
1835.99334	0.46080
1834.06477	0.46086
1832.13621	0.46072
1830.20764	0.46120
1828.27908	0.46178
1826.35051	0.46190
1824.42195	0.46224
1822.49339	0.46263
1820.56482	0.46285
1818.63626	0.46338
1816.70769	0.46417
1814.77913	0.46495
1812.85056	0.46590
1810.92200	0.46737
1808.99343	0.46889
1807.06487	0.47005
1805.13631	0.47102
1803.20774	0.47220
1801.27918	0.47410
1799.35061	0.47613
1797.42205	0.47737
1795.49348	0.47816
1793.56492	0.47973
1791.63635	0.48254
1789.70779	0.48418
1787.77923	0.48472
1785.85066	0.48580
1783.92210	0.48746
1781.99353	0.48894
1780.06497	0.49014
1778.13640	0.49089
1776.20784	0.49130
1774.27927	0.49239
1772.35071	0.49508
1770.42215	0.49776
1768.49358	0.49943
1766.56502	0.50090
1764.63645	0.50260
1762.70789	0.50603
1760.77932	0.51127
1758.85076	0.51641
1756.92220	0.52290
1754.99363	0.52997
1753.06507	0.53678
1751.13650	0.54715
1749.20794	0.56199
1747.27937	0.57507
1745.35081	0.58530
1743.42224	0.59451
1741.49368	0.60320
1739.56512	0.61104
1737.63655	0.61590
1735.70799	0.61916
1733.77942	0.62553
1731.85086	0.63177
1729.92229	0.63586
1727.99373	0.64032
1726.06516	0.64554
1724.13660	0.65266
1722.20804	0.66044
1720.27947	0.66757
1718.35091	0.67938
1716.42234	0.70175
1714.49378	0.72286
1712.56521	0.74052
1710.63665	0.75993
1708.70808	0.78287
1706.77952	0.81534
1704.85096	0.85821
1702.92239	0.89803
1700.99383	0.95178
1699.06526	1.03488
1697.13670	1.10877
1695.20813	1.17789
1693.27957	1.22872
1691.35100	1.26533
1689.42244	1.30572
1687.49388	1.34097
1685.56531	1.37507
1683.63675	1.42161
1681.70818	1.44643
1679.77962	1.45480
1677.85105	1.46320
1675.92249	1.47356
1673.99392	1.48069
1672.06536	1.48348
1670.13680	1.48650
1668.20823	1.48931
1666.27967	1.48673
1664.35110	1.48340
1662.42254	1.48203
1660.49397	1.47974
1658.56541	1.47665
1656.63684	1.47349
1654.70828	1.47209
1652.77972	1.46738
1650.85115	1.46160
1648.92259	1.46153
1646.99402	1.46032
1645.06546	1.45233
1643.13689	1.44643
1641.20833	1.44544
1639.27976	1.44538
1637.35120	1.44550
1635.42264	1.44569
1633.49407	1.44127
1631.56551	1.43678
1629.63694	1.43284
1627.70838	1.42800
1625.77981	1.42207
1623.85125	1.41554
1621.92269	1.40832
1619.99412	1.40072
1618.06556	1.38956
1616.13699	1.37349
1614.20843	1.36184
1612.27986	1.35194
1610.35130	1.33947
1608.42273	1.32545
1606.49417	1.31330
1604.56561	1.30489
1602.63704	1.29884
1600.70848	1.29466
1598.77991	1.29210
1596.85135	1.29009
1594.92278	1.28792
1592.99422	1.28652
1591.06565	1.28754
1589.13709	1.29056
1587.20853	1.29456
1585.27996	1.29953
1583.35140	1.30650
1581.42283	1.31480
1579.49427	1.32196
1577.56570	1.32982
1575.63714	1.34308
1573.70857	1.35479
1571.78001	1.36349
1569.85145	1.37484
1567.92288	1.38583
1565.99432	1.39367
1564.06575	1.40155
1562.13719	1.40869
1560.20862	1.41899
1558.28006	1.43239
1556.35149	1.43012
1554.42293	1.42690
1552.49437	1.42613
1550.56580	1.42482
1548.63724	1.42218
1546.70867	1.42013
1544.78011	1.41826
1542.85154	1.41425
1540.92298	1.40728
1538.99441	1.40094
1537.06585	1.39669
1535.13729	1.39136
1533.20872	1.38460
1531.28016	1.37853
1529.35159	1.37388
1527.42303	1.36948
1525.49446	1.36487
1523.56590	1.36119
1521.63733	1.35650
1519.70877	1.34992
1517.78021	1.34148
1515.85164	1.33044
1513.92308	1.31917
1511.99451	1.30782
1510.06595	1.29651
1508.13738	1.27966
1506.20882	1.24857
1504.28025	1.22998
1502.35169	1.21856
1500.42313	1.20623
1498.49456	1.19083
1496.56600	1.17155
1494.63743	1.15451
1492.70887	1.14160
1490.78030	1.12780
1488.85174	1.11224
1486.92317	1.10029
1484.99461	1.09168
1483.06605	1.08581
1481.13748	1.08290
1479.20892	1.08280
1477.28035	1.08585
1475.35179	1.09357
1473.42322	1.10984
1471.49466	1.12889
1469.56610	1.13854
1467.63753	1.14383
1465.70897	1.15012
1463.78040	1.15615
1461.85184	1.15893
1459.92327	1.16110
1457.99471	1.16717
1456.06614	1.17357
1454.13758	1.17318
1452.20902	1.17072
1450.28045	1.16784
1448.35189	1.16463
1446.42332	1.16153
1444.49476	1.15829
1442.56619	1.15423
1440.63763	1.14986
1438.70906	1.14477
1436.78050	1.13689
1434.85194	1.12805
1432.92337	1.12103
1430.99481	1.11496
1429.06624	1.11088
1427.13768	1.10999
1425.20911	1.11150
1423.28055	1.11464
1421.35198	1.11915
1419.42342	1.12673
1417.49486	1.13431
1415.56629	1.13721
1413.63773	1.13883
1411.70916	1.14082
1409.78060	1.14292
1407.85203	1.14534
1405.92347	1.14832
1403.99490	1.15094
1402.06634	1.15256
1400.13778	1.15374
1398.20921	1.15381
1396.28065	1.15272
1394.35208	1.15246
1392.42352	1.15319
1390.49495	1.15400
1388.56639	1.15648
1386.63782	1.16231
1384.70926	1.16880
1382.78070	1.17405
1380.85213	1.17779
1378.92357	1.17865
1376.99500	1.17588
1375.06644	1.16911
1373.13787	1.15853
1371.20931	1.14665
1369.28074	1.13323
1367.35218	1.11784
1365.42362	1.10252
1363.49505	1.08738
1361.56649	1.07454
1359.63792	1.06670
1357.70936	1.06183
1355.78079	1.05832
1353.85223	1.05616
1351.92366	1.05538
1349.99510	1.05494
1348.06654	1.05378
1346.13797	1.05200
1344.20941	1.05037
1342.28084	1.04935
1340.35228	1.04930
1338.42371	1.05018
1336.49515	1.05163
1334.56659	1.05429
1332.63802	1.05888
1330.70946	1.06495
1328.78089	1.07090
1326.85233	1.07553
1324.92376	1.07866
1322.99520	1.08065
1321.06663	1.08243
1319.13807	1.08531
1317.20951	1.08928
1315.28094	1.09320
1313.35238	1.09652
1311.42381	1.09869
1309.49525	1.09967
1307.56668	1.10055
1305.63812	1.10120
1303.70955	1.10100
1301.78099	1.10055
1299.85243	1.09942
1297.92386	1.09634
1295.99530	1.09206
1294.06673	1.08809
1292.13817	1.08476
1290.20960	1.08199
1288.28104	1.07981
1286.35247	1.07770
1284.42391	1.07529
1282.49535	1.07312
1280.56678	1.07140
1278.63822	1.06984
1276.70965	1.06882
1274.78109	1.06876
1272.85252	1.06960
1270.92396	1.07089
1268.99539	1.07216
1267.06683	1.07356
1265.13827	1.07512
1263.20970	1.07593
1261.28114	1.07541
1259.35257	1.07423
1257.42401	1.07316
1255.49544	1.07240
1253.56688	1.07179
1251.63831	1.07160
1249.70975	1.07261
1247.78119	1.07449
1245.85262	1.07638
1243.92406	1.07769
1241.99549	1.07819
1240.06693	1.07847
1238.13836	1.07855
1236.20980	1.07756
1234.28123	1.07557
1232.35267	1.07326
1230.42411	1.06997
1228.49554	1.06488
1226.56698	1.05833
1224.63841	1.05115
1222.70985	1.04391
1220.78128	1.03685
1218.85272	1.03018
1216.92415	1.02430
1214.99559	1.01983
1213.06703	1.01734
1211.13846	1.01677
1209.20990	1.01653
1207.28133	1.01440
1205.35277	1.00962
1203.42420	1.00234
1201.49564	0.99258
1199.56708	0.98118
1197.63851	0.96957
1195.70995	0.95841
1193.78138	0.94805
1191.85282	0.93912
1189.92425	0.93180
1187.99569	0.92625
1186.06712	0.92313
1184.13856	0.92288
1182.21000	0.92564
1180.28143	0.93134
1178.35287	0.93970
1176.42430	0.95091
1174.49574	0.96481
1172.56717	0.97992
1170.63861	0.99563
1168.71004	1.01284
1166.78148	1.03145
1164.85292	1.04962
1162.92435	1.06501
1160.99579	1.07610
1159.06722	1.08167
1157.13866	1.08054
1155.21009	1.07388
1153.28153	1.06489
1151.35296	1.05497
1149.42440	1.04373
1147.49584	1.03212
1145.56727	1.02213
1143.63871	1.01541
1141.71014	1.01238
1139.78158	1.01215
1137.85301	1.01434
1135.92445	1.01919
1133.99588	1.02659
1132.06732	1.03660
1130.13876	1.04951
1128.21019	1.06470
1126.28163	1.08022
1124.35306	1.09478
1122.42450	1.10817
1120.49593	1.11995
1118.56737	1.12900
1116.63880	1.13393
1114.71024	1.13480
1112.78168	1.13324
1110.85311	1.13082
1108.92455	1.12886
1106.99598	1.12814
1105.06742	1.12837
1103.13885	1.12891
1101.21029	1.12969
1099.28172	1.13208
1097.35316	1.13799
1095.42460	1.14786
1093.49603	1.16094
1091.56747	1.17609
1089.63890	1.19153
1087.71034	1.20629
1085.78177	1.22064
1083.85321	1.23367
1081.92464	1.24364
1079.99608	1.24891
1078.06752	1.24835
1076.13895	1.24249
1074.21039	1.23195
1072.28182	1.21779
1070.35326	1.20242
1068.42469	1.18668
1066.49613	1.17056
1064.56756	1.15563
1062.63900	1.14284
1060.71044	1.13165
1058.78187	1.12155
1056.85331	1.11192
1054.92474	1.10282
1052.99618	1.09580
1051.06761	1.09129
1049.13905	1.08848
1047.21049	1.08819
1045.28192	1.09191
1043.35336	1.09866
1041.42479	1.10655
1039.49623	1.11488
1037.56766	1.12243
1035.63910	1.12714
1033.71053	1.12911
1031.78197	1.12927
1029.85341	1.12615
1027.92484	1.11951
1025.99628	1.11165
1024.06771	1.10330
1022.13915	1.09440
1020.21058	1.08528
1018.28202	1.07578
1016.35345	1.06550
1014.42489	1.05306
1012.49633	1.03697
1010.56776	1.01768
1008.63920	0.99590
1006.71063	0.97203
1004.78207	0.94827
1002.85350	0.92658
1000.92494	0.90650
998.99637	0.88833
997.06781	0.87337
995.13925	0.86100
993.21068	0.84959
991.28212	0.83801
989.35355	0.82641
987.42499	0.81649
985.49642	0.80928
983.56786	0.80440
981.63929	0.80143
979.71073	0.80008
977.78217	0.79970
975.85360	0.79954
973.92504	0.79869
971.99647	0.79629
970.06791	0.79226
968.13934	0.78726
966.21078	0.78265
964.28221	0.78022
962.35365	0.78114
960.42509	0.78599
958.49652	0.79446
956.56796	0.80349
954.63939	0.80809
952.71083	0.80552
950.78226	0.79643
948.85370	0.78357
946.92513	0.77033
944.99657	0.75888
943.06801	0.74966
941.13944	0.74227
939.21088	0.73618
937.28231	0.73067
935.35375	0.72521
933.42518	0.72019
931.49662	0.71622
929.56805	0.71320
927.63949	0.71091
925.71093	0.70987
923.78236	0.71027
921.85380	0.71081
919.92523	0.71019
917.99667	0.70865
916.06810	0.70692
914.13954	0.70567
912.21098	0.70569
910.28241	0.70722
908.35385	0.70999
906.42528	0.71393
904.49672	0.71887
902.56815	0.72390
900.63959	0.72829
898.71102	0.73162
896.78246	0.73320
894.85390	0.73288
892.92533	0.73137
890.99677	0.72931
889.06820	0.72672
887.13964	0.72339
885.21107	0.72010
883.28251	0.71789
881.35394	0.71683
879.42538	0.71651
877.49682	0.71655
875.56825	0.71698
873.63969	0.71780
871.71112	0.71878
869.78256	0.72039
867.85399	0.72354
865.92543	0.72855
863.99686	0.73488
862.06830	0.74171
860.13974	0.74910
858.21117	0.75768
856.28261	0.76750
854.35404	0.77764
852.42548	0.78704
850.49691	0.79562
848.56835	0.80376
846.63978	0.81081
844.71122	0.81591
842.78266	0.81992
840.85409	0.82379
838.92553	0.82691
836.99696	0.82891
835.06840	0.83008
833.13983	0.83029
831.21127	0.82895
829.28270	0.82607
827.35414	0.82266
825.42558	0.81952
823.49701	0.81678
821.56845	0.81421
819.63988	0.81176
817.71132	0.81008
815.78275	0.80995
813.85419	0.81152
811.92562	0.81455
809.99706	0.81866
808.06850	0.82355
806.13993	0.82942
804.21137	0.83638
802.28280	0.84392
800.35424	0.85260
798.42567	0.86286
796.49711	0.87334
794.56854	0.88383
792.63998	0.89511
790.71142	0.90643
788.78285	0.91724
786.85429	0.92740
784.92572	0.93606
782.99716	0.94298
781.06859	0.94854
779.14003	0.95277
777.21147	0.95559
775.28290	0.95696
773.35434	0.95706
771.42577	0.95647
769.49721	0.95496
767.56864	0.95237
765.64008	0.94988
763.71151	0.94858
761.78295	0.94839
759.85439	0.94865
757.92582	0.94936
755.99726	0.95151
754.06869	0.95549
752.14013	0.96044
750.21156	0.96543
748.28300	0.97026
746.35443	0.97491
744.42587	0.97946
742.49731	0.98401
740.56874	0.98816
738.64018	0.99179
736.71161	0.99575
734.78305	1.00108
732.85448	1.00772
730.92592	1.01430
728.99735	1.01897
727.06879	1.02205
725.14023	1.02553
723.21166	1.02950
721.28310	1.03339
719.35453	1.03675
717.42597	1.03780
715.49740	1.03710
713.56884	1.03693
711.64027	1.03727
709.71171	1.03775
707.78315	1.03893
705.85458	1.04039
703.92602	1.04030
701.99745	1.03749
700.06889	1.03411
698.14032	1.03229
696.21176	1.03039
694.28319	1.02762
692.35463	1.02617
690.42607	1.02647
688.49750	1.02731
686.56894	1.02788
684.64037	1.02730
682.71181	1.02670
680.78324	1.02847
678.85468	1.03235
676.92611	1.03673
674.99755	1.04153
673.06899	1.04615
671.14042	1.04942
669.21186	1.05334
667.28329	1.05925
665.35473	1.06266
663.42616	1.06464
661.49760	1.06648
659.56903	1.06819
657.64047	1.06980
655.71191	1.07046
653.78334	1.06928
651.85478	1.06632
649.92621	1.06273
647.99765	1.05920
646.06908	1.05580
644.14052	1.05342
642.21195	1.05200
640.28339	1.05018
638.35483	1.04850
636.42626	1.04804
634.49770	1.04764
632.56913	1.04605
630.64057	1.04287
628.71200	1.03905
626.78344	1.03866
624.85488	1.04359
622.92631	1.04886
620.99775	1.05115
619.06918	1.05390
617.14062	1.05883
615.21205	1.06296
613.28349	1.06595
611.35492	1.06937
609.42636	1.07220
607.49780	1.07438
605.56923	1.07889
603.64067	1.08623
601.71210	1.08997
599.78354	1.08625
