3997.91406	0.49789
3995.98550	0.49665
3994.05693	0.49735
3992.12837	0.49934
3990.19980	0.50025
3988.27124	0.49958
3986.34268	0.49860
3984.41411	0.49797
3982.48555	0.49766
3980.55698	0.49744
3978.62842	0.49716
3976.69985	0.49747
3974.77129	0.49888
3972.84272	0.50025
3970.91416	0.50036
3968.98560	0.49966
3967.05703	0.49877
3965.12847	0.49759
3963.19990	0.49723
3961.27134	0.49842
3959.34277	0.49924
3957.41421	0.49933
3955.48564	0.49934
3953.55708	0.49798
3951.62852	0.49533
3949.69995	0.49440
3947.77139	0.49530
3945.84282	0.49475
3943.91426	0.49466
3941.98569	0.49646
3940.05713	0.49588
3938.12856	0.49314
3936.20000	0.49069
3934.27144	0.48958
3932.34287	0.49198
3930.41431	0.49588
3928.48574	0.49633
3926.55718	0.49497
3924.62861	0.49523
3922.70005	0.49552
3920.77148	0.49451
3918.84292	0.49526
3916.91436	0.49900
3914.98579	0.50085
3913.05723	0.49920
3911.12866	0.49750
3909.20010	0.49536
3907.27153	0.49036
3905.34297	0.48601
3903.41440	0.48805
3901.48584	0.49363
3899.55728	0.49838
3897.62871	0.49888
3895.70015	0.49442
3893.77158	0.49107
3891.84302	0.49528
3889.91445	0.49739
3887.98589	0.49119
3886.05733	0.48817
3884.12876	0.49082
3882.20020	0.49076
3880.27163	0.49277
3878.34307	0.49350
3876.41450	0.48893
3874.48594	0.48422
3872.55737	0.48069
3870.62881	0.48204
3868.70025	0.48720
3866.77168	0.48639
3864.84312	0.48597
3862.91455	0.49026
3860.98599	0.49031
3859.05742	0.48443
3857.12886	0.47370
3855.20029	0.46223
3853.27173	0.47272
3851.34317	0.49159
3849.41460	0.49338
3847.48604	0.48789
3845.55747	0.48135
3843.62891	0.47751
3841.70034	0.47636
3839.77178	0.47671
3837.84321	0.48150
3835.91465	0.48609
3833.98609	0.48606
3832.05752	0.48438
3830.12896	0.48286
3828.20039	0.48207
3826.27183	0.48155
3824.34326	0.47695
3822.41470	0.47243
3820.48613	0.47723
3818.55757	0.48017
3816.62901	0.48332
3814.70044	0.48878
3812.77188	0.48621
3810.84331	0.47826
3808.91475	0.47177
3806.98618	0.47216
3805.05762	0.47165
3803.12905	0.46866
3801.20049	0.47537
3799.27193	0.48036
3797.34336	0.47996
3795.41480	0.48160
3793.48623	0.48094
3791.55767	0.47824
3789.62910	0.47659
3787.70054	0.47551
3785.77197	0.47582
3783.84341	0.47631
3781.91485	0.47447
3779.98628	0.47574
3778.05772	0.48109
3776.12915	0.48170
3774.20059	0.47724
3772.27202	0.47300
3770.34346	0.47462
3768.41489	0.47890
3766.48633	0.47990
3764.55777	0.47952
3762.62920	0.47692
3760.70064	0.47457
3758.77207	0.47644
3756.84351	0.47542
3754.91494	0.46739
3752.98638	0.45822
3751.05781	0.46162
3749.12925	0.47013
3747.20069	0.46763
3745.27212	0.46889
3743.34356	0.47703
3741.41499	0.47487
3739.48643	0.46416
3737.55786	0.45438
3735.62930	0.45695
3733.70074	0.46902
3731.77217	0.47426
3729.84361	0.47211
3727.91504	0.46797
3725.98648	0.46647
3724.05791	0.46853
3722.12935	0.47206
3720.20078	0.47441
3718.27222	0.47339
3716.34366	0.46897
3714.41509	0.46317
3712.48653	0.46374
3710.55796	0.47395
3708.62940	0.47752
3706.70083	0.47417
3704.77227	0.46973
3702.84370	0.46928
3700.91514	0.47371
3698.98658	0.47551
3697.05801	0.47445
3695.12945	0.47264
3693.20088	0.46902
3691.27232	0.46646
3689.34375	0.47468
3687.41519	0.48497
3685.48662	0.48492
3683.55806	0.48027
3681.62950	0.47704
3679.70093	0.47456
3677.77237	0.47079
3675.84380	0.47721
3673.91524	0.48766
3671.98667	0.48837
3670.05811	0.49606
3668.12954	0.50611
3666.20098	0.50631
3664.27242	0.50456
3662.34385	0.50467
3660.41529	0.50482
3658.48672	0.50574
3656.55816	0.51241
3654.62959	0.51622
3652.70103	0.50873
3650.77246	0.50227
3648.84390	0.52166
3646.91534	0.54164
3644.98677	0.54451
3643.05821	0.54455
3641.12964	0.54706
3639.20108	0.55111
3637.27251	0.55470
3635.34395	0.55742
3633.41538	0.55898
3631.48682	0.55931
3629.55826	0.56848
3627.62969	0.58633
3625.70113	0.59077
3623.77256	0.58785
3621.84400	0.58600
3619.91543	0.59307
3617.98687	0.60619
3616.05830	0.61196
3614.12974	0.61486
3612.20118	0.61846
3610.27261	0.62198
3608.34405	0.63065
3606.41548	0.64036
3604.48692	0.64357
3602.55835	0.64571
3600.62979	0.65141
3598.70123	0.65710
3596.77266	0.66134
3594.84410	0.66749
3592.91553	0.67295
3590.98697	0.67379
3589.05840	0.67699
3587.12984	0.69058
3585.20127	0.70149
3583.27271	0.70447
3581.34415	0.70663
3579.41558	0.71035
3577.48702	0.71567
3575.55845	0.72281
3573.62989	0.72978
3571.70132	0.73289
3569.77276	0.73292
3567.84419	0.74001
3565.91563	0.75673
3563.98707	0.76585
3562.05850	0.76909
3560.12994	0.77305
3558.20137	0.77794
3556.27281	0.78229
3554.34424	0.78780
3552.41568	0.79631
3550.48711	0.80246
3548.55855	0.80498
3546.62999	0.81019
3544.70142	0.81899
3542.77286	0.82666
3540.84429	0.83147
3538.91573	0.83484
3536.98716	0.84071
3535.05860	0.84843
3533.13003	0.85250
3531.20147	0.85459
3529.27291	0.86041
3527.34434	0.86855
3525.41578	0.87454
3523.48721	0.88020
3521.55865	0.88596
3519.63008	0.88995
3517.70152	0.89549
3515.77295	0.90475
3513.84439	0.91460
3511.91583	0.92175
3509.98726	0.92598
3508.05870	0.92954
3506.13013	0.93416
3504.20157	0.94160
3502.27300	0.95103
3500.34444	0.95805
3498.41587	0.96247
3496.48731	0.96781
3494.55875	0.97535
3492.63018	0.98176
3490.70162	0.98474
3488.77305	0.98604
3486.84449	0.98879
3484.91592	0.99392
3482.98736	1.00040
3481.05879	1.00564
3479.13023	1.00685
3477.20167	1.00652
3475.27310	1.00795
3473.34454	1.01088
3471.41597	1.01498
3469.48741	1.02007
3467.55884	1.02378
3465.63028	1.02420
3463.70171	1.02378
3461.77315	1.02653
3459.84459	1.03293
3457.91602	1.03881
3455.98746	1.04115
3454.05889	1.04120
3452.13033	1.04027
3450.20176	1.04028
3448.27320	1.04404
3446.34464	1.04945
3444.41607	1.05213
3442.48751	1.05305
3440.55894	1.05386
3438.63038	1.05480
3436.70181	1.05792
3434.77325	1.06208
3432.84468	1.06357
3430.91612	1.06450
3428.98756	1.06696
3427.05899	1.06701
3425.13043	1.06483
3423.20186	1.06586
3421.27330	1.06998
3419.34473	1.07319
3417.41617	1.07466
3415.48760	1.07516
3413.55904	1.07567
3411.63048	1.07697
3409.70191	1.07852
3407.77335	1.07862
3405.84478	1.07734
3403.91622	1.07655
3401.98765	1.07566
3400.05909	1.07534
3398.13052	1.07959
3396.20196	1.08696
3394.27340	1.09124
3392.34483	1.09120
3390.41627	1.09130
3388.48770	1.09464
3386.55914	1.09851
3384.63057	1.09856
3382.70201	1.09614
3380.77344	1.09560
3378.84488	1.09667
3376.91632	1.09757
3374.98775	1.09940
3373.05919	1.10224
3371.13062	1.10449
3369.20206	1.10587
3367.27349	1.10742
3365.34493	1.10956
3363.41636	1.11079
3361.48780	1.11149
3359.55924	1.11473
3357.63067	1.11974
3355.70211	1.12248
3353.77354	1.12243
3351.84498	1.12373
3349.91641	1.12792
3347.98785	1.13075
3346.05928	1.12975
3344.13072	1.12732
3342.20216	1.12574
3340.27359	1.12588
3338.34503	1.12818
3336.41646	1.13147
3334.48790	1.13364
3332.55933	1.13505
3330.63077	1.13748
3328.70220	1.14098
3326.77364	1.14354
3324.84508	1.14337
3322.91651	1.14194
3320.98795	1.14166
3319.05938	1.14224
3317.13082	1.14305
3315.20225	1.14462
3313.27369	1.14640
3311.34513	1.14815
3309.41656	1.15003
3307.48800	1.15079
3305.55943	1.15177
3303.63087	1.15440
3301.70230	1.15561
3299.77374	1.15442
3297.84517	1.15477
3295.91661	1.15731
3293.98805	1.15799
3292.05948	1.15855
3290.13092	1.16232
3288.20235	1.16423
3286.27379	1.16225
3284.34522	1.16135
3282.41666	1.16197
3280.48809	1.16070
3278.55953	1.15745
3276.63097	1.15533
3274.70240	1.15632
3272.77384	1.15847
3270.84527	1.15842
3268.91671	1.15664
3266.98814	1.15403
3265.05958	1.14906
3263.13101	1.14439
3261.20245	1.14445
3259.27389	1.14675
3257.34532	1.14579
3255.41676	1.14116
3253.48819	1.13603
3251.55963	1.13174
3249.63106	1.12790
3247.70250	1.12496
3245.77393	1.12416
3243.84537	1.12550
3241.91681	1.12587
3239.98824	1.12372
3238.05968	1.12152
3236.13111	1.11932
3234.20255	1.11484
3232.27398	1.10950
3230.34542	1.10652
3228.41685	1.10587
3226.48829	1.10478
3224.55973	1.10269
3222.63116	1.10151
3220.70260	1.10092
3218.77403	1.09915
3216.84547	1.09702
3214.91690	1.09533
3212.98834	1.09244
3211.05977	1.08891
3209.13121	1.08675
3207.20265	1.08423
3205.27408	1.07970
3203.34552	1.07547
3201.41695	1.07477
3199.48839	1.07624
3197.55982	1.07519
3195.63126	1.07158
3193.70269	1.06765
3191.77413	1.06350
3189.84557	1.06128
3187.91700	1.06175
3185.98844	1.06157
3184.05987	1.05876
3182.13131	1.05409
3180.20274	1.04986
3178.27418	1.04785
3176.34562	1.04688
3174.41705	1.04408
3172.48849	1.03944
3170.55992	1.03658
3168.63136	1.03617
3166.70279	1.03535
3164.77423	1.03463
3162.84566	1.03491
3160.91710	1.03334
3158.98854	1.03000
3157.05997	1.02778
3155.13141	1.02651
3153.20284	1.02575
3151.27428	1.02535
3149.34571	1.02379
3147.41715	1.02109
3145.48858	1.01841
3143.56002	1.01610
3141.63146	1.01351
3139.70289	1.01075
3137.77433	1.00946
3135.84576	1.00995
3133.91720	1.01099
3131.98863	1.01141
3130.06007	1.01004
3128.13150	1.00739
3126.20294	1.00581
3124.27438	1.00579
3122.34581	1.00557
3120.41725	1.00514
3118.48868	1.00513
3116.56012	1.00454
3114.63155	1.00316
3112.70299	1.00189
3110.77442	1.00164
3108.84586	1.00251
3106.91730	1.00328
3104.98873	1.00397
3103.06017	1.00549
3101.13160	1.00727
3099.20304	1.00777
3097.27447	1.00721
3095.34591	1.00801
3093.41734	1.00975
3091.48878	1.00925
3089.56022	1.00684
3087.63165	1.00407
3085.70309	1.00067
3083.77452	0.99821
3081.84596	0.99786
3079.91739	0.99706
3077.98883	0.99538
3076.06026	0.99533
3074.13170	0.99626
3072.20314	0.99645
3070.27457	0.99536
3068.34601	0.99312
3066.41744	0.99164
3064.48888	0.99118
3062.56031	0.98886
3060.63175	0.98428
3058.70318	0.98078
3056.77462	0.97916
3054.84606	0.97665
3052.91749	0.97301
3050.98893	0.97009
3049.06036	0.96774
3047.13180	0.96525
3045.20323	0.96374
3043.27467	0.96363
3041.34610	0.96296
3039.41754	0.96092
3037.48898	0.95815
3035.56041	0.95507
3033.63185	0.95277
3031.70328	0.95119
3029.77472	0.94837
3027.84615	0.94459
3025.91759	0.94201
3023.98903	0.94012
3022.06046	0.93763
3020.13190	0.93520
3018.20333	0.93372
3016.27477	0.93326
3014.34620	0.93280
3012.41764	0.93155
3010.48907	0.92960
3008.56051	0.92696
3006.63195	0.92396
3004.70338	0.92175
3002.77482	0.92124
3000.84625	0.92182
2998.91769	0.92196
2996.98912	0.92188
2995.06056	0.92314
2993.13199	0.92570
2991.20343	0.92874
2989.27487	0.93277
2987.34630	0.93761
2985.41774	0.94189
2983.48917	0.94624
2981.56061	0.95243
2979.63204	0.96019
2977.70348	0.96753
2975.77491	0.97319
2973.84635	0.97782
2971.91779	0.98315
2969.98922	0.98989
2968.06066	0.99684
2966.13209	1.00300
2964.20353	1.00826
2962.27496	1.01142
2960.34640	1.01153
2958.41783	1.00924
2956.48927	1.00456
2954.56071	0.99849
2952.63214	0.99409
2950.70358	0.99239
2948.77501	0.99199
2946.84645	0.99197
2944.91788	0.99314
2942.98932	0.99732
2941.06075	1.00391
2939.13219	1.01039
2937.20363	1.01572
2935.27506	1.01978
2933.34650	1.02314
2931.41793	1.02765
2929.48937	1.03341
2927.56080	1.03805
2925.63224	1.04098
2923.70367	1.04364
2921.77511	1.04607
2919.84655	1.04769
2917.91798	1.04675
2915.98942	1.04024
2914.06085	1.02851
2912.13229	1.01513
2910.20372	1.00276
2908.27516	0.99224
2906.34659	0.98303
2904.41803	0.97503
2902.48947	0.96959
2900.56090	0.96670
2898.63234	0.96467
2896.70377	0.96283
2894.77521	0.96090
2892.84664	0.95813
2890.91808	0.95478
2888.98952	0.95195
2887.06095	0.94977
2885.13239	0.94769
2883.20382	0.94651
2881.27526	0.94758
2879.34669	0.95004
2877.41813	0.95172
2875.48956	0.95108
2873.56100	0.94793
2871.63244	0.94381
2869.70387	0.93955
2867.77531	0.93461
2865.84674	0.92932
2863.91818	0.92426
2861.98961	0.92075
2860.06105	0.92074
2858.13248	0.92359
2856.20392	0.92690
2854.27536	0.93065
2852.34679	0.93557
2850.41823	0.93795
2848.48966	0.93140
2846.56110	0.91520
2844.63253	0.89583
2842.70397	0.87930
2840.77540	0.86722
2838.84684	0.85895
2836.91828	0.85332
2834.98971	0.84886
2833.06115	0.84462
2831.13258	0.84128
2829.20402	0.83914
2827.27545	0.83677
2825.34689	0.83389
2823.41832	0.83174
2821.48976	0.82997
2819.56120	0.82777
2817.63263	0.82562
2815.70407	0.82317
2813.77550	0.81974
2811.84694	0.81631
2809.91837	0.81374
2807.98981	0.81165
2806.06124	0.80929
2804.13268	0.80610
2802.20412	0.80207
2800.27555	0.79802
2798.34699	0.79498
2796.41842	0.79286
2794.48986	0.79075
2792.56129	0.78829
2790.63273	0.78574
2788.70416	0.78386
2786.77560	0.78290
2784.84704	0.78147
2782.91847	0.77852
2780.98991	0.77553
2779.06134	0.77397
2777.13278	0.77293
2775.20421	0.77146
2773.27565	0.76981
2771.34708	0.76841
2769.41852	0.76728
2767.48996	0.76585
2765.56139	0.76419
2763.63283	0.76298
2761.70426	0.76185
2759.77570	0.76016
2757.84713	0.75795
2755.91857	0.75566
2753.99001	0.75399
2752.06144	0.75278
2750.13288	0.75106
2748.20431	0.74886
2746.27575	0.74689
2744.34718	0.74512
2742.41862	0.74333
2740.49005	0.74134
2738.56149	0.73895
2736.63293	0.73687
2734.70436	0.73540
2732.77580	0.73357
2730.84723	0.73130
2728.91867	0.72892
2726.99010	0.72641
2725.06154	0.72408
2723.13297	0.72196
2721.20441	0.71971
2719.27585	0.71736
2717.34728	0.71527
2715.41872	0.71408
2713.49015	0.71357
2711.56159	0.71266
2709.63302	0.71121
2707.70446	0.70979
2705.77589	0.70852
2703.84733	0.70734
2701.91877	0.70604
2699.99020	0.70464
2698.06164	0.70348
2696.13307	0.70225
2694.20451	0.70059
2692.27594	0.69898
2690.34738	0.69747
2688.41881	0.69562
2686.49025	0.69371
2684.56169	0.69208
2682.63312	0.69017
2680.70456	0.68752
2678.77599	0.68455
2676.84743	0.68163
2674.91886	0.67907
2672.99030	0.67714
2671.06173	0.67560
2669.13317	0.67388
2667.20461	0.67146
2665.27604	0.66880
2663.34748	0.66674
2661.41891	0.66491
2659.49035	0.66283
2657.56178	0.66097
2655.63322	0.65958
2653.70465	0.65843
2651.77609	0.65724
2649.84753	0.65607
2647.91896	0.65508
2645.99040	0.65410
2644.06183	0.65328
2642.13327	0.65277
2640.20470	0.65213
2638.27614	0.65085
2636.34757	0.64912
2634.41901	0.64759
2632.49045	0.64641
2630.56188	0.64543
2628.63332	0.64427
2626.70475	0.64247
2624.77619	0.64045
2622.84762	0.63876
2620.91906	0.63705
2618.99049	0.63508
2617.06193	0.63313
2615.13337	0.63129
2613.20480	0.62929
2611.27624	0.62696
2609.34767	0.62458
2607.41911	0.62249
2605.49054	0.62067
2603.56198	0.61892
2601.63342	0.61710
2599.70485	0.61496
2597.77629	0.61261
2595.84772	0.61055
2593.91916	0.60884
2591.99059	0.60740
2590.06203	0.60630
2588.13346	0.60515
2586.20490	0.60385
2584.27634	0.60288
2582.34777	0.60199
2580.41921	0.60072
2578.49064	0.59934
2576.56208	0.59817
2574.63351	0.59709
2572.70495	0.59606
2570.77638	0.59505
2568.84782	0.59388
2566.91926	0.59253
2564.99069	0.59116
2563.06213	0.58986
2561.13356	0.58869
2559.20500	0.58731
2557.27643	0.58559
2555.34787	0.58414
2553.41930	0.58279
2551.49074	0.58070
2549.56218	0.57825
2547.63361	0.57613
2545.70505	0.57430
2543.77648	0.57263
2541.84792	0.57098
2539.91935	0.56921
2537.99079	0.56745
2536.06222	0.56580
2534.13366	0.56437
2532.20510	0.56330
2530.27653	0.56242
2528.34797	0.56134
2526.41940	0.55983
2524.49084	0.55824
2522.56227	0.55701
2520.63371	0.55592
2518.70514	0.55487
2516.77658	0.55403
2514.84802	0.55326
2512.91945	0.55252
2510.99089	0.55182
2509.06232	0.55083
2507.13376	0.54968
2505.20519	0.54894
2503.27663	0.54842
2501.34806	0.54753
2499.41950	0.54626
2497.49094	0.54498
2495.56237	0.54386
2493.63381	0.54282
2491.70524	0.54164
2489.77668	0.54026
2487.84811	0.53905
2485.91955	0.53816
2483.99098	0.53717
2482.06242	0.53583
2480.13386	0.53440
2478.20529	0.53317
2476.27673	0.53209
2474.34816	0.53094
2472.41960	0.52960
2470.49103	0.52818
2468.56247	0.52676
2466.63391	0.52562
2464.70534	0.52484
2462.77678	0.52381
2460.84821	0.52229
2458.91965	0.52076
2456.99108	0.51952
2455.06252	0.51836
2453.13395	0.51706
2451.20539	0.51563
2449.27683	0.51407
2447.34826	0.51256
2445.41970	0.51129
2443.49113	0.51023
2441.56257	0.50918
2439.63400	0.50810
2437.70544	0.50723
2435.77687	0.50646
2433.84831	0.50548
2431.91975	0.50440
2429.99118	0.50342
2428.06262	0.50270
2426.13405	0.50243
2424.20549	0.50255
2422.27692	0.50258
2420.34836	0.50235
2418.41979	0.50214
2416.49123	0.50204
2414.56267	0.50175
2412.63410	0.50143
2410.70554	0.50144
2408.77697	0.50144
2406.84841	0.50116
2404.91984	0.50088
2402.99128	0.50063
2401.06271	0.50015
2399.13415	0.49950
2397.20559	0.49879
2395.27702	0.49803
2393.34846	0.49727
2391.41989	0.49637
2389.49133	0.49517
2387.56276	0.49408
2385.63420	0.49339
2383.70563	0.49289
2381.77707	0.49268
2379.84851	0.49293
2377.91994	0.49340
2375.99138	0.49390
2374.06281	0.49476
2372.13425	0.49631
2370.20568	0.49797
2368.27712	0.49933
2366.34855	0.50091
2364.41999	0.50186
2362.49143	0.50174
2360.56286	0.50262
2358.63430	0.50468
2356.70573	0.50665
2354.77717	0.50811
2352.84860	0.50782
2350.92004	0.50501
2348.99147	0.50128
2347.06291	0.49899
2345.13435	0.50044
2343.20578	0.50454
2341.27722	0.50713
2339.34865	0.50795
2337.42009	0.50811
2335.49152	0.50691
2333.56296	0.50456
2331.63440	0.50337
2329.70583	0.50381
2327.77727	0.50414
2325.84870	0.50394
2323.92014	0.50389
2321.99157	0.50385
2320.06301	0.50313
2318.13444	0.50190
2316.20588	0.50092
2314.27732	0.50039
2312.34875	0.49999
2310.42019	0.49960
2308.49162	0.49924
2306.56306	0.49871
2304.63449	0.49806
2302.70593	0.49777
2300.77736	0.49786
2298.84880	0.49807
2296.92024	0.49834
2294.99167	0.49861
2293.06311	0.49876
2291.13454	0.49885
2289.20598	0.49884
2287.27741	0.49871
2285.34885	0.49865
2283.42028	0.49865
2281.49172	0.49854
2279.56316	0.49847
2277.63459	0.49865
2275.70603	0.49879
2273.77746	0.49840
2271.84890	0.49768
2269.92033	0.49714
2267.99177	0.49679
2266.06320	0.49652
2264.13464	0.49647
2262.20608	0.49665
2260.27751	0.49681
2258.34895	0.49677
2256.42038	0.49669
2254.49182	0.49681
2252.56325	0.49718
2250.63469	0.49774
2248.70612	0.49830
2246.77756	0.49877
2244.84900	0.49928
2242.92043	0.49989
2240.99187	0.50061
2239.06330	0.50148
2237.13474	0.50233
2235.20617	0.50282
2233.27761	0.50296
2231.34904	0.50322
2229.42048	0.50376
2227.49192	0.50414
2225.56335	0.50418
2223.63479	0.50414
2221.70622	0.50402
2219.77766	0.50377
2217.84909	0.50352
2215.92053	0.50312
2213.99196	0.50227
2212.06340	0.50126
2210.13484	0.50064
2208.20627	0.50049
2206.27771	0.50038
2204.34914	0.49997
2202.42058	0.49933
2200.49201	0.49879
2198.56345	0.49866
2196.63488	0.49892
2194.70632	0.49929
2192.77776	0.49952
2190.84919	0.49962
2188.92063	0.49987
2186.99206	0.50051
2185.06350	0.50124
2183.13493	0.50173
2181.20637	0.50226
2179.27781	0.50316
2177.34924	0.50426
2175.42068	0.50522
2173.49211	0.50593
2171.56355	0.50640
2169.63498	0.50671
2167.70642	0.50718
2165.77785	0.50785
2163.84929	0.50822
2161.92073	0.50817
2159.99216	0.50798
2158.06360	0.50773
2156.13503	0.50721
2154.20647	0.50654
2152.27790	0.50594
2150.34934	0.50519
2148.42077	0.50416
2146.49221	0.50299
2144.56365	0.50181
2142.63508	0.50060
2140.70652	0.49933
2138.77795	0.49817
2136.84939	0.49719
2134.92082	0.49626
2132.99226	0.49539
2131.06369	0.49467
2129.13513	0.49421
2127.20657	0.49404
2125.27800	0.49394
2123.34944	0.49379
2121.42087	0.49381
2119.49231	0.49393
2117.56374	0.49404
2115.63518	0.49442
2113.70661	0.49514
2111.77805	0.49590
2109.84949	0.49654
2107.92092	0.49703
2105.99236	0.49746
2104.06379	0.49802
2102.13523	0.49849
2100.20666	0.49866
2098.27810	0.49870
2096.34953	0.49844
2094.42097	0.49754
2092.49241	0.49629
2090.56384	0.49525
2088.63528	0.49435
2086.70671	0.49313
2084.77815	0.49154
2082.84958	0.48986
2080.92102	0.48823
2078.99245	0.48649
2077.06389	0.48478
2075.13533	0.48338
2073.20676	0.48199
2071.27820	0.48039
2069.34963	0.47886
2067.42107	0.47767
2065.49250	0.47681
2063.56394	0.47610
2061.63537	0.47553
2059.70681	0.47513
2057.77825	0.47482
2055.84968	0.47469
2053.92112	0.47482
2051.99255	0.47501
2050.06399	0.47528
2048.13542	0.47577
2046.20686	0.47635
2044.27830	0.47684
2042.34973	0.47732
2040.42117	0.47788
2038.49260	0.47831
2036.56404	0.47848
2034.63547	0.47841
2032.70691	0.47821
2030.77834	0.47802
2028.84978	0.47772
2026.92122	0.47699
2024.99265	0.47579
2023.06409	0.47445
2021.13552	0.47305
2019.20696	0.47177
2017.27839	0.47091
2015.34983	0.47006
2013.42126	0.46866
2011.49270	0.46695
2009.56414	0.46548
2007.63557	0.46428
2005.70701	0.46312
2003.77844	0.46211
2001.84988	0.46133
1999.92131	0.46089
1997.99275	0.46087
1996.06418	0.46078
1994.13562	0.46058
1992.20706	0.46085
1990.27849	0.46126
1988.34993	0.46151
1986.42136	0.46189
1984.49280	0.46226
1982.56423	0.46253
1980.63567	0.46283
1978.70710	0.46305
1976.77854	0.46316
1974.84998	0.46341
1972.92141	0.46370
1970.99285	0.46361
1969.06428	0.46336
1967.13572	0.46336
1965.20715	0.46289
1963.27859	0.46168
1961.35002	0.46051
1959.42146	0.45958
1957.49290	0.45856
1955.56433	0.45730
1953.63577	0.45582
1951.70720	0.45425
1949.77864	0.45275
1947.85007	0.45130
1945.92151	0.44991
1943.99294	0.44910
1942.06438	0.44888
1940.13582	0.44814
1938.20725	0.44698
1936.27869	0.44639
1934.35012	0.44636
1932.42156	0.44636
1930.49299	0.44625
1928.56443	0.44628
1926.63586	0.44638
1924.70730	0.44692
1922.77874	0.44803
1920.85017	0.44848
1918.92161	0.44875
1916.99304	0.44989
1915.06448	0.45062
1913.13591	0.45049
1911.20735	0.45048
1909.27878	0.45089
1907.35022	0.45097
1905.42166	0.45028
1903.49309	0.44931
1901.56453	0.44822
1899.63596	0.44688
1897.70740	0.44558
1895.77883	0.44470
1893.85027	0.44349
1891.92171	0.44159
1889.99314	0.44028
1888.06458	0.43944
1886.13601	0.43796
1884.20745	0.43632
1882.27888	0.43504
1880.35032	0.43413
1878.42175	0.43348
1876.49319	0.43288
1874.56463	0.43210
1872.63606	0.43113
1870.70750	0.43103
1868.77893	0.43317
1866.85037	0.43503
1864.92180	0.43469
1862.99324	0.43425
1861.06467	0.43477
1859.13611	0.43561
1857.20755	0.43620
1855.27898	0.43664
1853.35042	0.43721
1851.42185	0.43771
1849.49329	0.43803
1847.56472	0.43808
1845.63616	0.43886
1843.70759	0.44103
1841.77903	0.44143
1839.85047	0.44002
1837.92190	0.43923
1835.99334	0.43894
1834.06477	0.43763
1832.13621	0.43597
1830.20764	0.43578
1828.27908	0.43587
1826.35051	0.43505
1824.42195	0.43468
1822.49339	0.43413
1820.56482	0.43296
1818.63626	0.43231
1816.70769	0.43222
1814.77913	0.43209
1812.85056	0.43218
1810.92200	0.43323
1808.99343	0.43449
1807.06487	0.43499
1805.13631	0.43516
1803.20774	0.43589
1801.27918	0.43801
1799.35061	0.44034
1797.42205	0.44128
1795.49348	0.44147
1793.56492	0.44324
1791.63635	0.44774
1789.70779	0.45025
1787.77923	0.45031
1785.85066	0.45098
1783.92210	0.45250
1781.99353	0.45409
1780.06497	0.45615
1778.13640	0.45760
1776.20784	0.45758
1774.27927	0.45806
1772.35071	0.46164
1770.42215	0.46537
1768.49358	0.46667
1766.56502	0.46705
1764.63645	0.46718
1762.70789	0.46921
1760.77932	0.47327
1758.85076	0.47650
1756.92220	0.48051
1754.99363	0.48482
1753.06507	0.48848
1751.13650	0.49533
1749.20794	0.50633
1747.27937	0.51535
1745.35081	0.52141
1743.42224	0.52658
1741.49368	0.53192
1739.56512	0.53724
1737.63655	0.53978
1735.70799	0.54119
1733.77942	0.54741
1731.85086	0.55319
1729.92229	0.55531
1727.99373	0.55742
1726.06516	0.56001
1724.13660	0.56420
1722.20804	0.56857
1720.27947	0.57205
1718.35091	0.58044
1716.42234	0.59854
1714.49378	0.61267
1712.56521	0.62205
1710.63665	0.63250
1708.70808	0.64559
1706.77952	0.66550
1704.85096	0.69142
1702.92239	0.71327
1700.99383	0.74350
1699.06526	0.79213
1697.13670	0.83495
1695.20813	0.87254
1693.27957	0.89657
1691.35100	0.91287
1689.42244	0.93236
1687.49388	0.94847
1685.56531	0.96377
1683.63675	0.99076
1681.70818	1.00701
1679.77962	1.01148
1677.85105	1.01474
1675.92249	1.02050
1673.99392	1.02695
1672.06536	1.02994
1670.13680	1.03516
1668.20823	1.04289
1666.27967	1.04399
1664.35110	1.04357
1662.42254	1.04731
1660.49397	1.05098
1658.56541	1.05067
1656.63684	1.04783
1654.70828	1.04702
1652.77972	1.05489
1650.85115	1.05648
1648.92259	1.05342
1646.99402	1.05540
1645.06546	1.05780
1643.13689	1.05488
1641.20833	1.05162
1639.27976	1.04936
1637.35120	1.04977
1635.42264	1.05438
1633.49407	1.05406
1631.56551	1.05005
1629.63694	1.04657
1627.70838	1.04429
1625.77981	1.04232
1623.85125	1.04085
1621.92269	1.03775
1619.99412	1.03169
1618.06556	1.02541
1616.13699	1.01956
1614.20843	1.01230
1612.27986	1.00383
1610.35130	0.99513
1608.42273	0.98674
1606.49417	0.97874
1604.56561	0.97114
1602.63704	0.96445
1600.70848	0.95924
1598.77991	0.95501
1596.85135	0.95204
1594.92278	0.95109
1592.99422	0.95127
1591.06565	0.95185
1589.13709	0.95361
1587.20853	0.95686
1585.27996	0.96093
1583.35140	0.96562
1581.42283	0.97026
1579.49427	0.97371
1577.56570	0.97910
1575.63714	0.99035
1573.70857	0.99691
1571.78001	0.99906
1569.85145	1.00508
1567.92288	1.01190
1565.99432	1.01434
1564.06575	1.01554
1562.13719	1.01532
1560.20862	1.01753
1558.28006	1.03142
1556.35149	1.03582
1554.42293	1.03457
1552.49437	1.03429
1550.56580	1.03450
1548.63724	1.03426
1546.70867	1.03289
1544.78011	1.03210
1542.85154	1.03339
1540.92298	1.03717
1538.99441	1.03760
1537.06585	1.03209
1535.13729	1.02656
1533.20872	1.02331
1531.28016	1.01999
1529.35159	1.01582
1527.42303	1.01291
1525.49446	1.01068
1523.56590	1.00851
1521.63733	1.00858
1519.70877	1.00784
1517.78021	1.00396
1515.85164	0.99876
1513.92308	0.99202
1511.99451	0.98357
1510.06595	0.97464
1508.13738	0.96610
1506.20882	0.95601
1504.28025	0.94558
1502.35169	0.93573
1500.42313	0.92569
1498.49456	0.91529
1496.56600	0.90415
1494.63743	0.89327
1492.70887	0.88368
1490.78030	0.87453
1488.85174	0.86570
1486.92317	0.85839
1484.99461	0.85258
1483.06605	0.84846
1481.13748	0.84629
1479.20892	0.84575
1477.28035	0.84722
1475.35179	0.85252
1473.42322	0.86395
1471.49466	0.87547
1469.56610	0.87905
1467.63753	0.87995
1465.70897	0.88340
1463.78040	0.88826
1461.85184	0.88934
1459.92327	0.88868
1457.99471	0.89356
1456.06614	0.90222
1454.13758	0.90166
1452.20902	0.89815
1450.28045	0.89559
1448.35189	0.89470
1446.42332	0.89446
1444.49476	0.89333
1442.56619	0.89116
1440.63763	0.88805
1438.70906	0.88473
1436.78050	0.88288
1434.85194	0.88102
1432.92337	0.87769
1430.99481	0.87552
1429.06624	0.87534
1427.13768	0.87509
1425.20911	0.87525
1423.28055	0.87654
1421.35198	0.87820
1419.42342	0.88242
1417.49486	0.88725
1415.56629	0.88748
1413.63773	0.88620
1411.70916	0.88554
1409.78060	0.88492
1407.85203	0.88399
1405.92347	0.88372
1403.99490	0.88350
1402.06634	0.88161
1400.13778	0.87913
1398.20921	0.87733
1396.28065	0.87624
1394.35208	0.87568
1392.42352	0.87481
1390.49495	0.87409
1388.56639	0.87571
1386.63782	0.87989
1384.70926	0.88354
1382.78070	0.88620
1380.85213	0.88848
1378.92357	0.88955
1376.99500	0.88887
1375.06644	0.88680
1373.13787	0.88331
1371.20931	0.87851
1369.28074	0.87317
1367.35218	0.86739
1365.42362	0.86126
1363.49505	0.85585
1361.56649	0.85207
1359.63792	0.84920
1357.70936	0.84699
1355.78079	0.84576
1353.85223	0.84520
1351.92366	0.84468
1349.99510	0.84414
1348.06654	0.84351
1346.13797	0.84255
1344.20941	0.84126
1342.28084	0.84003
1340.35228	0.83970
1338.42371	0.84048
1336.49515	0.84162
1334.56659	0.84335
1332.63802	0.84629
1330.70946	0.85014
1328.78089	0.85399
1326.85233	0.85722
1324.92376	0.85995
1322.99520	0.86260
1321.06663	0.86559
1319.13807	0.86941
1317.20951	0.87378
1315.28094	0.87814
1313.35238	0.88265
1311.42381	0.88683
1309.49525	0.89020
1307.56668	0.89315
1305.63812	0.89602
1303.70955	0.89862
1301.78099	0.90078
1299.85243	0.90235
1297.92386	0.90301
1295.99530	0.90288
1294.06673	0.90286
1292.13817	0.90331
1290.20960	0.90384
1288.28104	0.90416
1286.35247	0.90403
1284.42391	0.90324
1282.49535	0.90209
1280.56678	0.90093
1278.63822	0.89999
1276.70965	0.89937
1274.78109	0.89878
1272.85252	0.89829
1270.92396	0.89854
1268.99539	0.89943
1267.06683	0.90016
1265.13827	0.90071
1263.20970	0.90138
1261.28114	0.90166
1259.35257	0.90120
1257.42401	0.90056
1255.49544	0.90033
1253.56688	0.90086
1251.63831	0.90222
1249.70975	0.90397
1247.78119	0.90578
1245.85262	0.90772
1243.92406	0.90950
1241.99549	0.91080
1240.06693	0.91189
1238.13836	0.91296
1236.20980	0.91369
1234.28123	0.91387
1232.35267	0.91341
1230.42411	0.91200
1228.49554	0.90966
1226.56698	0.90681
1224.63841	0.90353
1222.70985	0.89941
1220.78128	0.89454
1218.85272	0.88985
1216.92415	0.88591
1214.99559	0.88267
1213.06703	0.87993
1211.13846	0.87744
1209.20990	0.87478
1207.28133	0.87144
1205.35277	0.86693
1203.42420	0.86080
1201.49564	0.85307
1199.56708	0.84475
1197.63851	0.83691
1195.70995	0.82973
1193.78138	0.82312
1191.85282	0.81753
1189.92425	0.81344
1187.99569	0.81101
1186.06712	0.81015
1184.13856	0.81039
1182.21000	0.81169
1180.28143	0.81502
1178.35287	0.82102
1176.42430	0.82901
1174.49574	0.83788
1172.56717	0.84679
1170.63861	0.85568
1168.71004	0.86508
1166.78148	0.87495
1164.85292	0.88444
1162.92435	0.89265
1160.99579	0.89873
1159.06722	0.90185
1157.13866	0.90188
1155.21009	0.89891
1153.28153	0.89312
1151.35296	0.88590
1149.42440	0.87872
1147.49584	0.87201
1145.56727	0.86592
1143.63871	0.86118
1141.71014	0.85881
1139.78158	0.85864
1137.85301	0.85997
1135.92445	0.86305
1133.99588	0.86802
1132.06732	0.87444
1130.13876	0.88205
1128.21019	0.89061
1126.28163	0.89964
1124.35306	0.90840
1122.42450	0.91596
1120.49593	0.92191
1118.56737	0.92632
1116.63880	0.92941
1114.71024	0.93140
1112.78168	0.93201
1110.85311	0.93133
1108.92455	0.93027
1106.99598	0.92928
1105.06742	0.92865
1103.13885	0.92925
1101.21029	0.93144
1099.28172	0.93423
1097.35316	0.93691
1095.42460	0.94032
1093.49603	0.94511
1091.56747	0.95107
1089.63890	0.95851
1087.71034	0.96665
1085.78177	0.97407
1083.85321	0.98078
1081.92464	0.98630
1079.99608	0.98929
1078.06752	0.98935
1076.13895	0.98716
1074.21039	0.98349
1072.28182	0.97799
1070.35326	0.97084
1068.42469	0.96380
1066.49613	0.95728
1064.56756	0.95075
1062.63900	0.94461
1060.71044	0.93867
1058.78187	0.93260
1056.85331	0.92681
1054.92474	0.92136
1052.99618	0.91687
1051.06761	0.91409
1049.13905	0.91264
1047.21049	0.91223
1045.28192	0.91351
1043.35336	0.91686
1041.42479	0.92112
1039.49623	0.92528
1037.56766	0.92965
1035.63910	0.93365
1033.71053	0.93569
1031.78197	0.93576
1029.85341	0.93488
1027.92484	0.93289
1025.99628	0.92944
1024.06771	0.92494
1022.13915	0.91975
1020.21058	0.91458
1018.28202	0.90990
1016.35345	0.90476
1014.42489	0.89802
1012.49633	0.88921
1010.56776	0.87821
1008.63920	0.86500
1006.71063	0.85006
1004.78207	0.83463
1002.85350	0.81999
1000.92494	0.80645
998.99637	0.79394
997.06781	0.78303
995.13925	0.77414
993.21068	0.76648
991.28212	0.75868
989.35355	0.74995
987.42499	0.74068
985.49642	0.73225
983.56786	0.72545
981.63929	0.71993
979.71073	0.71562
977.78217	0.71284
975.85360	0.71141
973.92504	0.71014
971.99647	0.70772
970.06791	0.70395
968.13934	0.69964
966.21078	0.69590
964.28221	0.69360
962.35365	0.69334
960.42509	0.69567
958.49652	0.70057
956.56796	0.70630
954.63939	0.70965
952.71083	0.70830
950.78226	0.70245
948.85370	0.69361
946.92513	0.68398
944.99657	0.67560
943.06801	0.66884
941.13944	0.66281
939.21088	0.65720
937.28231	0.65236
935.35375	0.64831
933.42518	0.64463
931.49662	0.64127
929.56805	0.63850
927.63949	0.63645
925.71093	0.63516
923.78236	0.63452
921.85380	0.63426
919.92523	0.63421
917.99667	0.63435
916.06810	0.63458
914.13954	0.63496
912.21098	0.63611
910.28241	0.63870
908.35385	0.64285
906.42528	0.64824
904.49672	0.65424
902.56815	0.66015
900.63959	0.66582
898.71102	0.67131
896.78246	0.67608
894.85390	0.67948
892.92533	0.68154
890.99677	0.68240
889.06820	0.68235
887.13964	0.68204
885.21107	0.68183
883.28251	0.68162
881.35394	0.68145
879.42538	0.68140
877.49682	0.68118
875.56825	0.68030
873.63969	0.67889
871.71112	0.67739
869.78256	0.67578
867.85399	0.67407
865.92543	0.67269
863.99686	0.67199
862.06830	0.67193
860.13974	0.67210
858.21117	0.67235
856.28261	0.67320
854.35404	0.67479
852.42548	0.67641
850.49691	0.67783
848.56835	0.67939
846.63978	0.68093
844.71122	0.68231
842.78266	0.68429
840.85409	0.68762
838.92553	0.69201
836.99696	0.69652
835.06840	0.70088
833.13983	0.70548
831.21127	0.71019
829.28270	0.71447
827.35414	0.71869
825.42558	0.72338
823.49701	0.72774
821.56845	0.73130
819.63988	0.73478
817.71132	0.73855
815.78275	0.74260
813.85419	0.74666
811.92562	0.74962
809.99706	0.75060
808.06850	0.75036
806.13993	0.75024
804.21137	0.75031
802.28280	0.74961
800.35424	0.74806
798.42567	0.74646
796.49711	0.74491
794.56854	0.74344
792.63998	0.74248
790.71142	0.74191
788.78285	0.74181
786.85429	0.74264
784.92572	0.74406
782.99716	0.74542
781.06859	0.74704
779.14003	0.74960
777.21147	0.75321
775.28290	0.75770
773.35434	0.76278
771.42577	0.76838
769.49721	0.77480
767.56864	0.78162
765.64008	0.78869
763.71151	0.79678
761.78295	0.80551
759.85439	0.81426
757.92582	0.82342
755.99726	0.83258
754.06869	0.84114
752.14013	0.84892
750.21156	0.85559
748.28300	0.86099
746.35443	0.86492
744.42587	0.86719
742.49731	0.86762
740.56874	0.86630
738.64018	0.86412
736.71161	0.86146
734.78305	0.85837
732.85448	0.85547
730.92592	0.85265
728.99735	0.84880
727.06879	0.84457
725.14023	0.84146
723.21166	0.83930
721.28310	0.83755
719.35453	0.83593
717.42597	0.83455
715.49740	0.83472
713.56884	0.83691
711.64027	0.83967
709.71171	0.84265
707.78315	0.84702
705.85458	0.85325
703.92602	0.86062
701.99745	0.86793
700.06889	0.87478
698.14032	0.88164
696.21176	0.88890
694.28319	0.89679
692.35463	0.90542
690.42607	0.91429
688.49750	0.92238
686.56894	0.93006
684.64037	0.93720
682.71181	0.94230
680.78324	0.94622
678.85468	0.94933
676.92611	0.94922
674.99755	0.94668
673.06899	0.94405
671.14042	0.94105
669.21186	0.93634
667.28329	0.92876
665.35473	0.92124
663.42616	0.91410
661.49760	0.90675
659.56903	0.90019
657.64047	0.89430
655.71191	0.88882
653.78334	0.88431
651.85478	0.88095
649.92621	0.87993
647.99765	0.88106
646.06908	0.88199
644.14052	0.88324
642.21195	0.88680
640.28339	0.89246
638.35483	0.89977
636.42626	0.90895
634.49770	0.91830
632.56913	0.92613
630.64057	0.93405
628.71200	0.94243
626.78344	0.95018
624.85488	0.95863
622.92631	0.96702
620.99775	0.97189
619.06918	0.97522
617.14062	0.97913
615.21205	0.97901
613.28349	0.97496
611.35492	0.97157
609.42636	0.96779
607.49780	0.96231
605.56923	0.95830
603.64067	0.95574
601.71210	0.95032
599.78354	0.94081
