3997.91406	0.63484
3995.98550	0.63323
3994.05693	0.63192
3992.12837	0.63169
3990.19980	0.63222
3988.27124	0.63212
3986.34268	0.63170
3984.41411	0.63210
3982.48555	0.63262
3980.55698	0.63189
3978.62842	0.62996
3976.69985	0.62861
3974.77129	0.62919
3972.84272	0.63085
3970.91416	0.63182
3968.98560	0.63155
3967.05703	0.63126
3965.12847	0.63115
3963.19990	0.62996
3961.27134	0.62859
3959.34277	0.62925
3957.41421	0.63119
3955.48564	0.63197
3953.55708	0.63134
3951.62852	0.63056
3949.69995	0.63057
3947.77139	0.63132
3945.84282	0.63140
3943.91426	0.63108
3941.98569	0.63062
3940.05713	0.62918
3938.12856	0.62783
3936.20000	0.62684
3934.27144	0.62509
3932.34287	0.62320
3930.41431	0.62306
3928.48574	0.62369
3926.55718	0.62341
3924.62861	0.62251
3922.70005	0.62143
3920.77148	0.62071
3918.84292	0.62129
3916.91436	0.62264
3914.98579	0.62306
3913.05723	0.62217
3911.12866	0.62077
3909.20010	0.61881
3907.27153	0.61586
3905.34297	0.61378
3903.41440	0.61437
3901.48584	0.61538
3899.55728	0.61685
3897.62871	0.61849
3895.70015	0.61813
3893.77158	0.61682
3891.84302	0.61712
3889.91445	0.61685
3887.98589	0.61431
3886.05733	0.61396
3884.12876	0.61640
3882.20020	0.61626
3880.27163	0.61507
3878.34307	0.61396
3876.41450	0.61173
3874.48594	0.60949
3872.55737	0.60722
3870.62881	0.60722
3868.70025	0.61071
3866.77168	0.61161
3864.84312	0.61086
3862.91455	0.61169
3860.98599	0.61133
3859.05742	0.60810
3857.12886	0.60142
3855.20029	0.59233
3853.27173	0.59507
3851.34317	0.60570
3849.41460	0.60767
3847.48604	0.60624
3845.55747	0.60479
3843.62891	0.60402
3841.70034	0.60245
3839.77178	0.59883
3837.84321	0.59828
3835.91465	0.60099
3833.98609	0.60178
3832.05752	0.60227
3830.12896	0.60332
3828.20039	0.60402
3826.27183	0.60436
3824.34326	0.60149
3822.41470	0.59532
3820.48613	0.59402
3818.55757	0.59770
3816.62901	0.60245
3814.70044	0.60644
3812.77188	0.60676
3810.84331	0.60540
3808.91475	0.60387
3806.98618	0.60342
3805.05762	0.60205
3803.12905	0.59959
3801.20049	0.60326
3799.27193	0.60803
3797.34336	0.60820
3795.41480	0.60826
3793.48623	0.60815
3791.55767	0.60673
3789.62910	0.60552
3787.70054	0.60515
3785.77197	0.60504
3783.84341	0.60434
3781.91485	0.60259
3779.98628	0.60166
3778.05772	0.60250
3776.12915	0.60259
3774.20059	0.60123
3772.27202	0.59887
3770.34346	0.59666
3768.41489	0.59607
3766.48633	0.59680
3764.55777	0.59785
3762.62920	0.59698
3760.70064	0.59495
3758.77207	0.59547
3756.84351	0.59572
3754.91494	0.59119
3752.98638	0.58308
3751.05781	0.57909
3749.12925	0.58166
3747.20069	0.58071
3745.27212	0.58256
3743.34356	0.59262
3741.41499	0.59760
3739.48643	0.59465
3737.55786	0.58931
3735.62930	0.59040
3733.70074	0.59699
3731.77217	0.59840
3729.84361	0.59665
3727.91504	0.59524
3725.98648	0.59478
3724.05791	0.59472
3722.12935	0.59512
3720.20078	0.59535
3718.27222	0.59426
3716.34366	0.59154
3714.41509	0.58744
3712.48653	0.58471
3710.55796	0.58829
3708.62940	0.59230
3706.70083	0.59219
3704.77227	0.59013
3702.84370	0.58951
3700.91514	0.59161
3698.98658	0.59290
3697.05801	0.59234
3695.12945	0.59072
3693.20088	0.58768
3691.27232	0.58381
3689.34375	0.58428
3687.41519	0.59002
3685.48662	0.59424
3683.55806	0.59585
3681.62950	0.59601
3679.70093	0.59464
3677.77237	0.59199
3675.84380	0.59771
3673.91524	0.60898
3671.98667	0.61108
3670.05811	0.61364
3668.12954	0.62154
3666.20098	0.62652
3664.27242	0.62905
3662.34385	0.63138
3660.41529	0.63366
3658.48672	0.63634
3656.55816	0.64161
3654.62959	0.64599
3652.70103	0.64422
3650.77246	0.63843
3648.84390	0.64561
3646.91534	0.66377
3644.98677	0.67331
3643.05821	0.67781
3641.12964	0.68123
3639.20108	0.68406
3637.27251	0.68654
3635.34395	0.69017
3633.41538	0.69394
3631.48682	0.69424
3629.55826	0.69713
3627.62969	0.71079
3625.70113	0.71941
3623.77256	0.72091
3621.84400	0.72156
3619.91543	0.72809
3617.98687	0.73912
3616.05830	0.74564
3614.12974	0.74950
3612.20118	0.75266
3610.27261	0.75509
3608.34405	0.76125
3606.41548	0.77029
3604.48692	0.77728
3602.55835	0.78371
3600.62979	0.79019
3598.70123	0.79515
3596.77266	0.79969
3594.84410	0.80545
3592.91553	0.81096
3590.98697	0.81391
3589.05840	0.81755
3587.12984	0.82775
3585.20127	0.83787
3583.27271	0.84249
3581.34415	0.84530
3579.41558	0.84833
3577.48702	0.85198
3575.55845	0.85736
3573.62989	0.86322
3571.70132	0.86653
3569.77276	0.86751
3567.84419	0.87206
3565.91563	0.88269
3563.98707	0.89014
3562.05850	0.89550
3560.12994	0.90253
3558.20137	0.90929
3556.27281	0.91296
3554.34424	0.91651
3552.41568	0.92397
3550.48711	0.93078
3548.55855	0.93505
3546.62999	0.94227
3544.70142	0.95192
3542.77286	0.95783
3540.84429	0.96096
3538.91573	0.96551
3536.98716	0.97175
3535.05860	0.97755
3533.13003	0.98401
3531.20147	0.99226
3529.27291	1.00011
3527.34434	1.00698
3525.41578	1.01373
3523.48721	1.02057
3521.55865	1.02970
3519.63008	1.04030
3517.70152	1.04766
3515.77295	1.05133
3513.84439	1.05623
3511.91583	1.06532
3509.98726	1.07591
3508.05870	1.08466
3506.13013	1.09356
3504.20157	1.10388
3502.27300	1.11340
3500.34444	1.12294
3498.41587	1.13293
3496.48731	1.14107
3494.55875	1.14724
3492.63018	1.15219
3490.70162	1.15756
3488.77305	1.16599
3486.84449	1.17552
3484.91592	1.18085
3482.98736	1.18364
3481.05879	1.18963
3479.13023	1.19613
3477.20167	1.19760
3475.27310	1.19682
3473.34454	1.19844
3471.41597	1.20181
3469.48741	1.20602
3467.55884	1.21079
3465.63028	1.21268
3463.70171	1.21093
3461.77315	1.21154
3459.84459	1.21693
3457.91602	1.22255
3455.98746	1.22724
3454.05889	1.23085
3452.13033	1.23225
3450.20176	1.23415
3448.27320	1.23675
3446.34464	1.23609
3444.41607	1.23254
3442.48751	1.22946
3440.55894	1.22848
3438.63038	1.23115
3436.70181	1.23690
3434.77325	1.24141
3432.84468	1.24207
3430.91612	1.24160
3428.98756	1.24428
3427.05899	1.24881
3425.13043	1.24972
3423.20186	1.24792
3421.27330	1.24981
3419.34473	1.25366
3417.41617	1.25115
3415.48760	1.24528
3413.55904	1.24483
3411.63048	1.24785
3409.70191	1.24826
3407.77335	1.24651
3405.84478	1.24505
3403.91622	1.24509
3401.98765	1.24651
3400.05909	1.24805
3398.13052	1.24937
3396.20196	1.25126
3394.27340	1.25378
3392.34483	1.25262
3390.41627	1.24671
3388.48770	1.24421
3386.55914	1.24915
3384.63057	1.25698
3382.70201	1.26160
3380.77344	1.26075
3378.84488	1.25710
3376.91632	1.25460
3374.98775	1.25519
3373.05919	1.25708
3371.13062	1.25738
3369.20206	1.25708
3367.27349	1.25897
3365.34493	1.26157
3363.41636	1.26223
3361.48780	1.26129
3359.55924	1.26013
3357.63067	1.26231
3355.70211	1.26858
3353.77354	1.27412
3351.84498	1.27629
3349.91641	1.27532
3347.98785	1.27399
3346.05928	1.27751
3344.13072	1.28520
3342.20216	1.28872
3340.27359	1.28564
3338.34503	1.28390
3336.41646	1.28726
3334.48790	1.29290
3332.55933	1.29845
3330.63077	1.30162
3328.70220	1.30325
3326.77364	1.30702
3324.84508	1.31156
3322.91651	1.31375
3320.98795	1.31455
3319.05938	1.31448
3317.13082	1.31418
3315.20225	1.31779
3313.27369	1.32623
3311.34513	1.33294
3309.41656	1.33427
3307.48800	1.33390
3305.55943	1.33245
3303.63087	1.33049
3301.70230	1.33360
3299.77374	1.33966
3297.84517	1.34001
3295.91661	1.33601
3293.98805	1.33313
3292.05948	1.33101
3290.13092	1.33163
3288.20235	1.33512
3286.27379	1.33432
3284.34522	1.32933
3282.41666	1.32640
3280.48809	1.32542
3278.55953	1.32442
3276.63097	1.32556
3274.70240	1.32988
3272.77384	1.33317
3270.84527	1.33166
3268.91671	1.32729
3266.98814	1.32476
3265.05958	1.32529
3263.13101	1.32443
3261.20245	1.31869
3259.27389	1.31020
3257.34532	1.30284
3255.41676	1.29549
3253.48819	1.28537
3251.55963	1.27650
3249.63106	1.27232
3247.70250	1.26976
3245.77393	1.26608
3243.84537	1.26096
3241.91681	1.25397
3239.98824	1.24692
3238.05968	1.24185
3236.13111	1.23658
3234.20255	1.23111
3232.27398	1.22767
3230.34542	1.22298
3228.41685	1.21474
3226.48829	1.20578
3224.55973	1.19899
3222.63116	1.19581
3220.70260	1.19437
3218.77403	1.19195
3216.84547	1.19005
3214.91690	1.18891
3212.98834	1.18451
3211.05977	1.17676
3209.13121	1.17037
3207.20265	1.16710
3205.27408	1.16405
3203.34552	1.15947
3201.41695	1.15603
3199.48839	1.15410
3197.55982	1.15159
3195.63126	1.15023
3193.70269	1.14903
3191.77413	1.14367
3189.84557	1.13622
3187.91700	1.13115
3185.98844	1.12823
3184.05987	1.12545
3182.13131	1.12236
3180.20274	1.11975
3178.27418	1.11800
3176.34562	1.11512
3174.41705	1.10911
3172.48849	1.10214
3170.55992	1.09828
3168.63136	1.09697
3166.70279	1.09322
3164.77423	1.08643
3162.84566	1.08016
3160.91710	1.07432
3158.98854	1.06823
3157.05997	1.06453
3155.13141	1.06425
3153.20284	1.06459
3151.27428	1.06305
3149.34571	1.06079
3147.41715	1.05986
3145.48858	1.05920
3143.56002	1.05701
3141.63146	1.05388
3139.70289	1.05173
3137.77433	1.05156
3135.84576	1.05128
3133.91720	1.04941
3131.98863	1.04908
3130.06007	1.05240
3128.13150	1.05608
3126.20294	1.05561
3124.27438	1.05184
3122.34581	1.05024
3120.41725	1.05250
3118.48868	1.05482
3116.56012	1.05547
3114.63155	1.05640
3112.70299	1.05765
3110.77442	1.05865
3108.84586	1.06027
3106.91730	1.06128
3104.98873	1.05989
3103.06017	1.05753
3101.13160	1.05684
3099.20304	1.05704
3097.27447	1.05563
3095.34591	1.05344
3093.41734	1.05182
3091.48878	1.05019
3089.56022	1.04809
3087.63165	1.04576
3085.70309	1.04404
3083.77452	1.04227
3081.84596	1.03909
3079.91739	1.03506
3077.98883	1.03170
3076.06026	1.02954
3074.13170	1.02753
3072.20314	1.02476
3070.27457	1.02168
3068.34601	1.01874
3066.41744	1.01579
3064.48888	1.01231
3062.56031	1.00881
3060.63175	1.00683
3058.70318	1.00601
3056.77462	1.00371
3054.84606	0.99888
3052.91749	0.99370
3050.98893	0.99006
3049.06036	0.98706
3047.13180	0.98364
3045.20323	0.98053
3043.27467	0.97832
3041.34610	0.97617
3039.41754	0.97332
3037.48898	0.97049
3035.56041	0.96803
3033.63185	0.96490
3031.70328	0.96128
3029.77472	0.95817
3027.84615	0.95496
3025.91759	0.95092
3023.98903	0.94726
3022.06046	0.94528
3020.13190	0.94423
3018.20333	0.94275
3016.27477	0.94044
3014.34620	0.93802
3012.41764	0.93696
3010.48907	0.93699
3008.56051	0.93585
3006.63195	0.93332
3004.70338	0.93160
3002.77482	0.93154
3000.84625	0.93244
2998.91769	0.93399
2996.98912	0.93598
2995.06056	0.93841
2993.13199	0.94209
2991.20343	0.94725
2989.27487	0.95275
2987.34630	0.95855
2985.41774	0.96551
2983.48917	0.97238
2981.56061	0.97782
2979.63204	0.98290
2977.70348	0.98881
2975.77491	0.99554
2973.84635	1.00307
2971.91779	1.01079
2969.98922	1.01695
2968.06066	1.02210
2966.13209	1.02772
2964.20353	1.03242
2962.27496	1.03394
2960.34640	1.03201
2958.41783	1.02847
2956.48927	1.02397
2954.56071	1.01751
2952.63214	1.01005
2950.70358	1.00414
2948.77501	1.00107
2946.84645	1.00071
2944.91788	1.00300
2942.98932	1.00836
2941.06075	1.01674
2939.13219	1.02670
2937.20363	1.03680
2935.27506	1.04714
2933.34650	1.05684
2931.41793	1.06377
2929.48937	1.06882
2927.56080	1.07453
2925.63224	1.08032
2923.70367	1.08465
2921.77511	1.08722
2919.84655	1.08662
2917.91798	1.08070
2915.98942	1.06852
2914.06085	1.05222
2912.13229	1.03615
2910.20372	1.02238
2908.27516	1.01081
2906.34659	1.00091
2904.41803	0.99223
2902.48947	0.98617
2900.56090	0.98408
2898.63234	0.98397
2896.70377	0.98301
2894.77521	0.98110
2892.84664	0.97865
2890.91808	0.97468
2888.98952	0.96951
2887.06095	0.96494
2885.13239	0.96181
2883.20382	0.96077
2881.27526	0.96133
2879.34669	0.96130
2877.41813	0.96040
2875.48956	0.95888
2873.56100	0.95573
2871.63244	0.95124
2869.70387	0.94546
2867.77531	0.93775
2865.84674	0.92991
2863.91818	0.92480
2861.98961	0.92359
2860.06105	0.92616
2858.13248	0.93155
2856.20392	0.93879
2854.27536	0.94729
2852.34679	0.95483
2850.41823	0.95578
2848.48966	0.94462
2846.56110	0.92363
2844.63253	0.90115
2842.70397	0.88227
2840.77540	0.86826
2838.84684	0.85914
2836.91828	0.85314
2834.98971	0.84788
2833.06115	0.84259
2831.13258	0.83764
2829.20402	0.83311
2827.27545	0.82901
2825.34689	0.82540
2823.41832	0.82231
2821.48976	0.81943
2819.56120	0.81603
2817.63263	0.81203
2815.70407	0.80794
2813.77550	0.80415
2811.84694	0.80058
2809.91837	0.79681
2807.98981	0.79273
2806.06124	0.78851
2804.13268	0.78417
2802.20412	0.77996
2800.27555	0.77663
2798.34699	0.77397
2796.41842	0.77093
2794.48986	0.76742
2792.56129	0.76424
2790.63273	0.76201
2788.70416	0.76049
2786.77560	0.75871
2784.84704	0.75642
2782.91847	0.75417
2780.98991	0.75206
2779.06134	0.74976
2777.13278	0.74736
2775.20421	0.74510
2773.27565	0.74326
2771.34708	0.74187
2769.41852	0.74040
2767.48996	0.73864
2765.56139	0.73703
2763.63283	0.73538
2761.70426	0.73369
2759.77570	0.73255
2757.84713	0.73155
2755.91857	0.73013
2753.99001	0.72861
2752.06144	0.72717
2750.13288	0.72580
2748.20431	0.72441
2746.27575	0.72307
2744.34718	0.72166
2742.41862	0.71995
2740.49005	0.71850
2738.56149	0.71757
2736.63293	0.71640
2734.70436	0.71487
2732.77580	0.71358
2730.84723	0.71265
2728.91867	0.71175
2726.99010	0.71057
2725.06154	0.70904
2723.13297	0.70763
2721.20441	0.70662
2719.27585	0.70551
2717.34728	0.70401
2715.41872	0.70278
2713.49015	0.70230
2711.56159	0.70197
2709.63302	0.70118
2707.70446	0.70022
2705.77589	0.69968
2703.84733	0.69920
2701.91877	0.69788
2699.99020	0.69609
2698.06164	0.69505
2696.13307	0.69465
2694.20451	0.69402
2692.27594	0.69309
2690.34738	0.69202
2688.41881	0.69081
2686.49025	0.68960
2684.56169	0.68847
2682.63312	0.68739
2680.70456	0.68647
2678.77599	0.68548
2676.84743	0.68377
2674.91886	0.68170
2672.99030	0.68011
2671.06173	0.67884
2669.13317	0.67744
2667.20461	0.67562
2665.27604	0.67331
2663.34748	0.67102
2661.41891	0.66907
2659.49035	0.66748
2657.56178	0.66618
2655.63322	0.66464
2653.70465	0.66273
2651.77609	0.66133
2649.84753	0.66056
2647.91896	0.65970
2645.99040	0.65877
2644.06183	0.65815
2642.13327	0.65748
2640.20470	0.65659
2638.27614	0.65591
2636.34757	0.65532
2634.41901	0.65415
2632.49045	0.65272
2630.56188	0.65168
2628.63332	0.65081
2626.70475	0.64988
2624.77619	0.64888
2622.84762	0.64786
2620.91906	0.64700
2618.99049	0.64584
2617.06193	0.64400
2615.13337	0.64221
2613.20480	0.64117
2611.27624	0.64024
2609.34767	0.63881
2607.41911	0.63730
2605.49054	0.63615
2603.56198	0.63530
2601.63342	0.63442
2599.70485	0.63325
2597.77629	0.63186
2595.84772	0.63020
2593.91916	0.62818
2591.99059	0.62652
2590.06203	0.62585
2588.13346	0.62566
2586.20490	0.62515
2584.27634	0.62452
2582.34777	0.62408
2580.41921	0.62352
2578.49064	0.62279
2576.56208	0.62216
2574.63351	0.62175
2572.70495	0.62153
2570.77638	0.62141
2568.84782	0.62120
2566.91926	0.62069
2564.99069	0.62001
2563.06213	0.61934
2561.13356	0.61876
2559.20500	0.61836
2557.27643	0.61809
2555.34787	0.61792
2553.41930	0.61779
2551.49074	0.61757
2549.56218	0.61730
2547.63361	0.61680
2545.70505	0.61594
2543.77648	0.61504
2541.84792	0.61419
2539.91935	0.61335
2537.99079	0.61285
2536.06222	0.61264
2534.13366	0.61195
2532.20510	0.61091
2530.27653	0.61021
2528.34797	0.60972
2526.41940	0.60896
2524.49084	0.60816
2522.56227	0.60764
2520.63371	0.60683
2518.70514	0.60544
2516.77658	0.60418
2514.84802	0.60323
2512.91945	0.60230
2510.99089	0.60156
2509.06232	0.60098
2507.13376	0.60023
2505.20519	0.59931
2503.27663	0.59833
2501.34806	0.59736
2499.41950	0.59667
2497.49094	0.59642
2495.56237	0.59619
2493.63381	0.59558
2491.70524	0.59476
2489.77668	0.59404
2487.84811	0.59359
2485.91955	0.59331
2483.99098	0.59286
2482.06242	0.59215
2480.13386	0.59142
2478.20529	0.59077
2476.27673	0.58995
2474.34816	0.58866
2472.41960	0.58691
2470.49103	0.58514
2468.56247	0.58368
2466.63391	0.58244
2464.70534	0.58125
2462.77678	0.58007
2460.84821	0.57881
2458.91965	0.57728
2456.99108	0.57559
2455.06252	0.57418
2453.13395	0.57313
2451.20539	0.57206
2449.27683	0.57064
2447.34826	0.56901
2445.41970	0.56750
2443.49113	0.56618
2441.56257	0.56516
2439.63400	0.56441
2437.70544	0.56371
2435.77687	0.56319
2433.84831	0.56289
2431.91975	0.56251
2429.99118	0.56202
2428.06262	0.56153
2426.13405	0.56099
2424.20549	0.56039
2422.27692	0.56002
2420.34836	0.56009
2418.41979	0.56051
2416.49123	0.56086
2414.56267	0.56068
2412.63410	0.56011
2410.70554	0.55972
2408.77697	0.55958
2406.84841	0.55930
2404.91984	0.55888
2402.99128	0.55864
2401.06271	0.55855
2399.13415	0.55822
2397.20559	0.55744
2395.27702	0.55668
2393.34846	0.55619
2391.41989	0.55554
2389.49133	0.55475
2387.56276	0.55410
2385.63420	0.55336
2383.70563	0.55253
2381.77707	0.55197
2379.84851	0.55148
2377.91994	0.55072
2375.99138	0.55032
2374.06281	0.55046
2372.13425	0.55030
2370.20568	0.54967
2368.27712	0.54965
2366.34855	0.55089
2364.41999	0.55140
2362.49143	0.55033
2360.56286	0.54879
2358.63430	0.54726
2356.70573	0.54719
2354.77717	0.54738
2352.84860	0.54594
2350.92004	0.54331
2348.99147	0.54050
2347.06291	0.53862
2345.13435	0.53878
2343.20578	0.54024
2341.27722	0.54123
2339.34865	0.54217
2337.42009	0.54276
2335.49152	0.54179
2333.56296	0.54007
2331.63440	0.53953
2329.70583	0.54022
2327.77727	0.54090
2325.84870	0.54090
2323.92014	0.54003
2321.99157	0.53915
2320.06301	0.53886
2318.13444	0.53822
2316.20588	0.53703
2314.27732	0.53590
2312.34875	0.53494
2310.42019	0.53435
2308.49162	0.53409
2306.56306	0.53351
2304.63449	0.53249
2302.70593	0.53142
2300.77736	0.53027
2298.84880	0.52901
2296.92024	0.52788
2294.99167	0.52705
2293.06311	0.52638
2291.13454	0.52564
2289.20598	0.52476
2287.27741	0.52377
2285.34885	0.52274
2283.42028	0.52183
2281.49172	0.52105
2279.56316	0.52025
2277.63459	0.51944
2275.70603	0.51868
2273.77746	0.51786
2271.84890	0.51698
2269.92033	0.51625
2267.99177	0.51557
2266.06320	0.51473
2264.13464	0.51387
2262.20608	0.51322
2260.27751	0.51276
2258.34895	0.51231
2256.42038	0.51169
2254.49182	0.51088
2252.56325	0.51003
2250.63469	0.50928
2248.70612	0.50864
2246.77756	0.50804
2244.84900	0.50755
2242.92043	0.50698
2240.99187	0.50619
2239.06330	0.50545
2237.13474	0.50491
2235.20617	0.50438
2233.27761	0.50390
2231.34904	0.50345
2229.42048	0.50285
2227.49192	0.50210
2225.56335	0.50125
2223.63479	0.50042
2221.70622	0.49982
2219.77766	0.49941
2217.84909	0.49914
2215.92053	0.49887
2213.99196	0.49844
2212.06340	0.49797
2210.13484	0.49763
2208.20627	0.49736
2206.27771	0.49724
2204.34914	0.49719
2202.42058	0.49715
2200.49201	0.49719
2198.56345	0.49724
2196.63488	0.49706
2194.70632	0.49670
2192.77776	0.49647
2190.84919	0.49650
2188.92063	0.49671
2186.99206	0.49703
2185.06350	0.49742
2183.13493	0.49776
2181.20637	0.49812
2179.27781	0.49853
2177.34924	0.49886
2175.42068	0.49917
2173.49211	0.49964
2171.56355	0.50020
2169.63498	0.50078
2167.70642	0.50140
2165.77785	0.50192
2163.84929	0.50222
2161.92073	0.50251
2159.99216	0.50265
2158.06360	0.50225
2156.13503	0.50161
2154.20647	0.50132
2152.27790	0.50129
2150.34934	0.50109
2148.42077	0.50050
2146.49221	0.49955
2144.56365	0.49841
2142.63508	0.49734
2140.70652	0.49639
2138.77795	0.49526
2136.84939	0.49387
2134.92082	0.49251
2132.99226	0.49136
2131.06369	0.49026
2129.13513	0.48911
2127.20657	0.48807
2125.27800	0.48723
2123.34944	0.48641
2121.42087	0.48546
2119.49231	0.48446
2117.56374	0.48347
2115.63518	0.48259
2113.70661	0.48197
2111.77805	0.48166
2109.84949	0.48141
2107.92092	0.48111
2105.99236	0.48090
2104.06379	0.48087
2102.13523	0.48091
2100.20666	0.48109
2098.27810	0.48157
2096.34953	0.48221
2094.42097	0.48280
2092.49241	0.48324
2090.56384	0.48357
2088.63528	0.48380
2086.70671	0.48389
2084.77815	0.48382
2082.84958	0.48375
2080.92102	0.48377
2078.99245	0.48376
2077.06389	0.48361
2075.13533	0.48331
2073.20676	0.48287
2071.27820	0.48238
2069.34963	0.48186
2067.42107	0.48121
2065.49250	0.48046
2063.56394	0.47967
2061.63537	0.47895
2059.70681	0.47823
2057.77825	0.47716
2055.84968	0.47575
2053.92112	0.47443
2051.99255	0.47334
2050.06399	0.47247
2048.13542	0.47184
2046.20686	0.47125
2044.27830	0.47046
2042.34973	0.46959
2040.42117	0.46893
2038.49260	0.46845
2036.56404	0.46807
2034.63547	0.46779
2032.70691	0.46764
2030.77834	0.46753
2028.84978	0.46731
2026.92122	0.46704
2024.99265	0.46690
2023.06409	0.46690
2021.13552	0.46687
2019.20696	0.46677
2017.27839	0.46667
2015.34983	0.46643
2013.42126	0.46605
2011.49270	0.46554
2009.56414	0.46479
2007.63557	0.46391
2005.70701	0.46327
2003.77844	0.46281
2001.84988	0.46213
1999.92131	0.46132
1997.99275	0.46065
1996.06418	0.45985
1994.13562	0.45890
1992.20706	0.45823
1990.27849	0.45767
1988.34993	0.45696
1986.42136	0.45646
1984.49280	0.45594
1982.56423	0.45507
1980.63567	0.45420
1978.70710	0.45361
1976.77854	0.45324
1974.84998	0.45306
1972.92141	0.45301
1970.99285	0.45294
1969.06428	0.45296
1967.13572	0.45322
1965.20715	0.45342
1963.27859	0.45348
1961.35002	0.45359
1959.42146	0.45382
1957.49290	0.45415
1955.56433	0.45456
1953.63577	0.45495
1951.70720	0.45536
1949.77864	0.45584
1947.85007	0.45627
1945.92151	0.45659
1943.99294	0.45693
1942.06438	0.45717
1940.13582	0.45694
1938.20725	0.45641
1936.27869	0.45599
1934.35012	0.45555
1932.42156	0.45481
1930.49299	0.45397
1928.56443	0.45323
1926.63586	0.45236
1924.70730	0.45129
1922.77874	0.45029
1920.85017	0.44934
1918.92161	0.44824
1916.99304	0.44703
1915.06448	0.44574
1913.13591	0.44421
1911.20735	0.44255
1909.27878	0.44122
1907.35022	0.44019
1905.42166	0.43904
1903.49309	0.43780
1901.56453	0.43662
1899.63596	0.43556
1897.70740	0.43465
1895.77883	0.43392
1893.85027	0.43320
1891.92171	0.43241
1889.99314	0.43205
1888.06458	0.43212
1886.13601	0.43198
1884.20745	0.43170
1882.27888	0.43139
1880.35032	0.43097
1878.42175	0.43060
1876.49319	0.43039
1874.56463	0.43008
1872.63606	0.42965
1870.70750	0.42947
1868.77893	0.42967
1866.85037	0.42944
1864.92180	0.42857
1862.99324	0.42775
1861.06467	0.42716
1859.13611	0.42665
1857.20755	0.42611
1855.27898	0.42546
1853.35042	0.42470
1851.42185	0.42400
1849.49329	0.42344
1847.56472	0.42286
1845.63616	0.42261
1843.70759	0.42283
1841.77903	0.42250
1839.85047	0.42170
1837.92190	0.42114
1835.99334	0.42085
1834.06477	0.42034
1832.13621	0.41986
1830.20764	0.41999
1828.27908	0.42029
1826.35051	0.42047
1824.42195	0.42093
1822.49339	0.42120
1820.56482	0.42113
1818.63626	0.42134
1816.70769	0.42178
1814.77913	0.42207
1812.85056	0.42229
1810.92200	0.42273
1808.99343	0.42322
1807.06487	0.42353
1805.13631	0.42388
1803.20774	0.42443
1801.27918	0.42527
1799.35061	0.42584
1797.42205	0.42574
1795.49348	0.42541
1793.56492	0.42554
1791.63635	0.42637
1789.70779	0.42650
1787.77923	0.42592
1785.85066	0.42550
1783.92210	0.42520
1781.99353	0.42475
1780.06497	0.42422
1778.13640	0.42349
1776.20784	0.42248
1774.27927	0.42165
1772.35071	0.42150
1770.42215	0.42139
1768.49358	0.42100
1766.56502	0.42063
1764.63645	0.42047
1762.70789	0.42124
1760.77932	0.42320
1758.85076	0.42550
1756.92220	0.42896
1754.99363	0.43294
1753.06507	0.43704
1751.13650	0.44426
1749.20794	0.45525
1747.27937	0.46493
1745.35081	0.47218
1743.42224	0.47866
1741.49368	0.48508
1739.56512	0.49114
1737.63655	0.49499
1735.70799	0.49756
1733.77942	0.50274
1731.85086	0.50774
1729.92229	0.51072
1727.99373	0.51384
1726.06516	0.51748
1724.13660	0.52259
1722.20804	0.52811
1720.27947	0.53324
1718.35091	0.54197
1716.42234	0.55772
1714.49378	0.57145
1712.56521	0.58260
1710.63665	0.59545
1708.70808	0.61131
1706.77952	0.63474
1704.85096	0.66600
1702.92239	0.69508
1700.99383	0.73587
1699.06526	0.79995
1697.13670	0.85931
1695.20813	0.91569
1693.27957	0.95656
1691.35100	0.98842
1689.42244	1.02705
1687.49388	1.06327
1685.56531	1.10050
1683.63675	1.15773
1681.70818	1.19818
1679.77962	1.22008
1677.85105	1.23980
1675.92249	1.26300
1673.99392	1.28759
1672.06536	1.30667
1670.13680	1.32585
1668.20823	1.34279
1666.27967	1.34950
1664.35110	1.35528
1662.42254	1.36335
1660.49397	1.36690
1658.56541	1.36659
1656.63684	1.36591
1654.70828	1.36700
1652.77972	1.36714
1650.85115	1.36384
1648.92259	1.35991
1646.99402	1.35641
1645.06546	1.35574
1643.13689	1.35333
1641.20833	1.34897
1639.27976	1.34457
1637.35120	1.34385
1635.42264	1.34520
1633.49407	1.33994
1631.56551	1.33311
1629.63694	1.32682
1627.70838	1.32039
1625.77981	1.31202
1623.85125	1.29984
1621.92269	1.28404
1619.99412	1.26905
1618.06556	1.25257
1616.13699	1.22940
1614.20843	1.20803
1612.27986	1.18919
1610.35130	1.16851
1608.42273	1.14689
1606.49417	1.12816
1604.56561	1.11333
1602.63704	1.10113
1600.70848	1.09197
1598.77991	1.08625
1596.85135	1.08339
1594.92278	1.08261
1592.99422	1.08330
1591.06565	1.08534
1589.13709	1.08929
1587.20853	1.09586
1585.27996	1.10482
1583.35140	1.11567
1581.42283	1.12719
1579.49427	1.13802
1577.56570	1.15175
1575.63714	1.17210
1573.70857	1.18622
1571.78001	1.19504
1569.85145	1.20857
1567.92288	1.22270
1565.99432	1.23119
1564.06575	1.23868
1562.13719	1.24537
1560.20862	1.25389
1558.28006	1.26810
1556.35149	1.27239
1554.42293	1.27288
1552.49437	1.27313
1550.56580	1.27375
1548.63724	1.27443
1546.70867	1.27359
1544.78011	1.27027
1542.85154	1.26521
1540.92298	1.25974
1538.99441	1.25263
1537.06585	1.24746
1535.13729	1.24166
1533.20872	1.23371
1531.28016	1.22732
1529.35159	1.22300
1527.42303	1.21885
1525.49446	1.21534
1523.56590	1.21281
1521.63733	1.21070
1519.70877	1.20964
1517.78021	1.20538
1515.85164	1.19587
1513.92308	1.18432
1511.99451	1.17151
1510.06595	1.15823
1508.13738	1.13873
1506.20882	1.10346
1504.28025	1.08187
1502.35169	1.06755
1500.42313	1.05149
1498.49456	1.03171
1496.56600	1.00914
1494.63743	0.99146
1492.70887	0.97908
1490.78030	0.96570
1488.85174	0.94929
1486.92317	0.93641
1484.99461	0.92832
1483.06605	0.92342
1481.13748	0.92064
1479.20892	0.92007
1477.28035	0.92303
1475.35179	0.93077
1473.42322	0.94652
1471.49466	0.96534
1469.56610	0.97536
1467.63753	0.98100
1465.70897	0.98858
1463.78040	0.99811
1461.85184	1.00400
1459.92327	1.00722
1457.99471	1.01454
1456.06614	1.02650
1454.13758	1.03084
1452.20902	1.03108
1450.28045	1.03042
1448.35189	1.02944
1446.42332	1.02822
1444.49476	1.02603
1442.56619	1.02204
1440.63763	1.01696
1438.70906	1.01179
1436.78050	1.00566
1434.85194	0.99852
1432.92337	0.99178
1430.99481	0.98471
1429.06624	0.97732
1427.13768	0.97128
1425.20911	0.96707
1423.28055	0.96418
1421.35198	0.96226
1419.42342	0.96186
1417.49486	0.96131
1415.56629	0.95807
1413.63773	0.95336
1411.70916	0.94820
1409.78060	0.94302
1407.85203	0.93831
1405.92347	0.93440
1403.99490	0.93141
1402.06634	0.92925
1400.13778	0.92751
1398.20921	0.92570
1396.28065	0.92401
1394.35208	0.92328
1392.42352	0.92389
1390.49495	0.92654
1388.56639	0.93418
1386.63782	0.94874
1384.70926	0.96497
1382.78070	0.97993
1380.85213	0.99281
1378.92357	0.99979
1376.99500	0.99874
1375.06644	0.98978
1373.13787	0.97482
1371.20931	0.95804
1369.28074	0.93887
1367.35218	0.91766
1365.42362	0.89778
1363.49505	0.87863
1361.56649	0.86179
1359.63792	0.85102
1357.70936	0.84470
1355.78079	0.84108
1353.85223	0.83960
1351.92366	0.83949
1349.99510	0.84001
1348.06654	0.84064
1346.13797	0.84160
1344.20941	0.84341
1342.28084	0.84595
1340.35228	0.85016
1338.42371	0.85684
1336.49515	0.86461
1334.56659	0.87363
1332.63802	0.88502
1330.70946	0.89797
1328.78089	0.90942
1326.85233	0.91683
1324.92376	0.92034
1322.99520	0.92177
1321.06663	0.92312
1319.13807	0.92535
1317.20951	0.92759
1315.28094	0.92893
1313.35238	0.92969
1311.42381	0.92978
1309.49525	0.92888
1307.56668	0.92668
1305.63812	0.92298
1303.70955	0.91840
1301.78099	0.91367
1299.85243	0.90848
1297.92386	0.90221
1295.99530	0.89561
1294.06673	0.89033
1292.13817	0.88729
1290.20960	0.88633
1288.28104	0.88670
1286.35247	0.88752
1284.42391	0.88827
1282.49535	0.88898
1280.56678	0.88972
1278.63822	0.89093
1276.70965	0.89343
1274.78109	0.89751
1272.85252	0.90312
1270.92396	0.90989
1268.99539	0.91726
1267.06683	0.92476
1265.13827	0.93122
1263.20970	0.93496
1261.28114	0.93530
1259.35257	0.93334
1257.42401	0.93076
1255.49544	0.92837
1253.56688	0.92602
1251.63831	0.92361
1249.70975	0.92137
1247.78119	0.91932
1245.85262	0.91740
1243.92406	0.91571
1241.99549	0.91426
1240.06693	0.91246
1238.13836	0.90969
1236.20980	0.90609
1234.28123	0.90209
1232.35267	0.89763
1230.42411	0.89244
1228.49554	0.88639
1226.56698	0.87948
1224.63841	0.87211
1222.70985	0.86475
1220.78128	0.85777
1218.85272	0.85183
1216.92415	0.84766
1214.99559	0.84594
1213.06703	0.84725
1211.13846	0.85150
1209.20990	0.85721
1207.28133	0.86138
1205.35277	0.86127
1203.42420	0.85625
1201.49564	0.84732
1199.56708	0.83588
1197.63851	0.82318
1195.70995	0.81041
1193.78138	0.79898
1191.85282	0.78993
1189.92425	0.78327
1187.99569	0.77861
1186.06712	0.77564
1184.13856	0.77440
1182.21000	0.77534
1180.28143	0.77903
1178.35287	0.78567
1176.42430	0.79493
1174.49574	0.80616
1172.56717	0.81906
1170.63861	0.83369
1168.71004	0.85006
1166.78148	0.86797
1164.85292	0.88627
1162.92435	0.90220
1160.99579	0.91337
1159.06722	0.91889
1157.13866	0.91869
1155.21009	0.91380
1153.28153	0.90564
1151.35296	0.89524
1149.42440	0.88385
1147.49584	0.87291
1145.56727	0.86424
1143.63871	0.85979
1141.71014	0.86008
1139.78158	0.86449
1137.85301	0.87293
1135.92445	0.88469
1133.99588	0.89828
1132.06732	0.91427
1130.13876	0.93357
1128.21019	0.95422
1126.28163	0.97367
1124.35306	0.99123
1122.42450	1.00667
1120.49593	1.01899
1118.56737	1.02687
1116.63880	1.02926
1114.71024	1.02631
1112.78168	1.01946
1110.85311	1.01088
1108.92455	1.00271
1106.99598	0.99537
1105.06742	0.98882
1103.13885	0.98406
1101.21029	0.98176
1099.28172	0.98262
1097.35316	0.98737
1095.42460	0.99546
1093.49603	1.00610
1091.56747	1.01927
1089.63890	1.03489
1087.71034	1.05176
1085.78177	1.06822
1083.85321	1.08376
1081.92464	1.09763
1079.99608	1.10703
1078.06752	1.11044
1076.13895	1.10946
1074.21039	1.10540
1072.28182	1.09909
1070.35326	1.09217
1068.42469	1.08520
1066.49613	1.07765
1064.56756	1.06965
1062.63900	1.06157
1060.71044	1.05305
1058.78187	1.04407
1056.85331	1.03562
1054.92474	1.02806
1052.99618	1.02114
1051.06761	1.01506
1049.13905	1.01003
1047.21049	1.00719
1045.28192	1.00798
1043.35336	1.01149
1041.42479	1.01545
1039.49623	1.01804
1037.56766	1.01861
1035.63910	1.01746
1033.71053	1.01415
1031.78197	1.00797
1029.85341	0.99895
1027.92484	0.98721
1025.99628	0.97339
1024.06771	0.95874
1022.13915	0.94428
1020.21058	0.93097
1018.28202	0.91943
1016.35345	0.90847
1014.42489	0.89572
1012.49633	0.87955
1010.56776	0.85951
1008.63920	0.83702
1006.71063	0.81451
1004.78207	0.79383
1002.85350	0.77628
1000.92494	0.76256
998.99637	0.75286
997.06781	0.74694
995.13925	0.74368
993.21068	0.74156
991.28212	0.73948
989.35355	0.73715
987.42499	0.73493
985.49642	0.73349
983.56786	0.73337
981.63929	0.73447
979.71073	0.73635
977.78217	0.73796
975.85360	0.73754
973.92504	0.73342
971.99647	0.72485
970.06791	0.71285
968.13934	0.69940
966.21078	0.68643
964.28221	0.67588
962.35365	0.66977
960.42509	0.66980
958.49652	0.67545
956.56796	0.68203
954.63939	0.68262
952.71083	0.67379
950.78226	0.65815
948.85370	0.64061
946.92513	0.62470
944.99657	0.61221
943.06801	0.60377
941.13944	0.59868
939.21088	0.59592
937.28231	0.59535
935.35375	0.59716
933.42518	0.60126
931.49662	0.60735
929.56805	0.61487
927.63949	0.62371
925.71093	0.63408
923.78236	0.64577
921.85380	0.65768
919.92523	0.66845
917.99667	0.67794
916.06810	0.68691
914.13954	0.69582
912.21098	0.70475
910.28241	0.71349
908.35385	0.72151
906.42528	0.72869
904.49672	0.73501
902.56815	0.73951
900.63959	0.74110
898.71102	0.73985
896.78246	0.73612
894.85390	0.72999
892.92533	0.72224
890.99677	0.71391
889.06820	0.70513
887.13964	0.69577
885.21107	0.68664
883.28251	0.67873
881.35394	0.67235
879.42538	0.66764
877.49682	0.66449
875.56825	0.66216
873.63969	0.66036
871.71112	0.65991
869.78256	0.66159
867.85399	0.66513
865.92543	0.66984
863.99686	0.67564
862.06830	0.68304
860.13974	0.69206
858.21117	0.70221
856.28261	0.71320
854.35404	0.72451
852.42548	0.73532
850.49691	0.74551
848.56835	0.75541
846.63978	0.76472
844.71122	0.77269
842.78266	0.77935
840.85409	0.78538
838.92553	0.79085
836.99696	0.79504
835.06840	0.79764
833.13983	0.79902
831.21127	0.79949
829.28270	0.79903
827.35414	0.79765
825.42558	0.79566
823.49701	0.79343
821.56845	0.79061
819.63988	0.78673
817.71132	0.78260
815.78275	0.77915
813.85419	0.77578
811.92562	0.77163
809.99706	0.76715
808.06850	0.76338
806.13993	0.76066
804.21137	0.75882
802.28280	0.75792
800.35424	0.75847
798.42567	0.76057
796.49711	0.76380
794.56854	0.76875
792.63998	0.77566
790.71142	0.78390
788.78285	0.79370
786.85429	0.80518
784.92572	0.81758
782.99716	0.83033
781.06859	0.84323
779.14003	0.85636
777.21147	0.86918
775.28290	0.88122
773.35434	0.89314
771.42577	0.90456
769.49721	0.91384
767.56864	0.92079
765.64008	0.92554
763.71151	0.92759
761.78295	0.92807
759.85439	0.92789
757.92582	0.92597
755.99726	0.92161
754.06869	0.91548
752.14013	0.90854
750.21156	0.90115
748.28300	0.89377
746.35443	0.88698
744.42587	0.88043
742.49731	0.87363
740.56874	0.86676
738.64018	0.86059
736.71161	0.85568
734.78305	0.85212
732.85448	0.85046
730.92592	0.85097
728.99735	0.85257
727.06879	0.85471
725.14023	0.85803
723.21166	0.86286
721.28310	0.86870
719.35453	0.87460
717.42597	0.88048
715.49740	0.88749
713.56884	0.89585
711.64027	0.90412
709.71171	0.91110
707.78315	0.91655
705.85458	0.91997
703.92602	0.92113
701.99745	0.92104
700.06889	0.92031
698.14032	0.91895
696.21176	0.91647
694.28319	0.91130
692.35463	0.90380
690.42607	0.89669
688.49750	0.89093
686.56894	0.88535
684.64037	0.87976
682.71181	0.87400
680.78324	0.86698
678.85468	0.85986
676.92611	0.85521
674.99755	0.85318
673.06899	0.85252
671.14042	0.85266
669.21186	0.85392
667.28329	0.85571
665.35473	0.85721
663.42616	0.85968
661.49760	0.86389
659.56903	0.87051
657.64047	0.87929
655.71191	0.88872
653.78334	0.89865
651.85478	0.90861
649.92621	0.91823
647.99765	0.92941
646.06908	0.94214
644.14052	0.95497
642.21195	0.96811
640.28339	0.98144
638.35483	0.99345
636.42626	1.00143
634.49770	1.00227
632.56913	0.99760
630.64057	0.99246
628.71200	0.98774
626.78344	0.98065
624.85488	0.97035
622.92631	0.95897
620.99775	0.94784
619.06918	0.93700
617.14062	0.92610
615.21205	0.91561
613.28349	0.90653
611.35492	0.89937
609.42636	0.89457
607.49780	0.89078
605.56923	0.88710
603.64067	0.88659
601.71210	0.89016
599.78354	0.89325
