3997.91406	0.84118
3995.98550	0.84006
3994.05693	0.83787
3992.12837	0.83707
3990.19980	0.83713
3988.27124	0.83772
3986.34268	0.83855
3984.41411	0.83758
3982.48555	0.83464
3980.55698	0.83255
3978.62842	0.83277
3976.69985	0.83398
3974.77129	0.83442
3972.84272	0.83438
3970.91416	0.83490
3968.98560	0.83536
3967.05703	0.83501
3965.12847	0.83428
3963.19990	0.83337
3961.27134	0.83281
3959.34277	0.83356
3957.41421	0.83538
3955.48564	0.83663
3953.55708	0.83610
3951.62852	0.83460
3949.69995	0.83315
3947.77139	0.83231
3945.84282	0.83242
3943.91426	0.83098
3941.98569	0.82831
3940.05713	0.82914
3938.12856	0.83154
3936.20000	0.83190
3934.27144	0.83091
3932.34287	0.82855
3930.41431	0.82628
3928.48574	0.82785
3926.55718	0.83017
3924.62861	0.82838
3922.70005	0.82605
3920.77148	0.82737
3918.84292	0.82957
3916.91436	0.82926
3914.98579	0.82743
3913.05723	0.82632
3911.12866	0.82619
3909.20010	0.82776
3907.27153	0.83101
3905.34297	0.83217
3903.41440	0.82788
3901.48584	0.82250
3899.55728	0.81951
3897.62871	0.82049
3895.70015	0.82548
3893.77158	0.83008
3891.84302	0.82818
3889.91445	0.82511
3887.98589	0.82626
3886.05733	0.82496
3884.12876	0.82209
3882.20020	0.82297
3880.27163	0.82298
3878.34307	0.82397
3876.41450	0.82693
3874.48594	0.82701
3872.55737	0.82466
3870.62881	0.82178
3868.70025	0.82064
3866.77168	0.82348
3864.84312	0.82413
3862.91455	0.82053
3860.98599	0.82012
3859.05742	0.82318
3857.12886	0.82703
3855.20029	0.82725
3853.27173	0.81480
3851.34317	0.80854
3849.41460	0.81357
3847.48604	0.82026
3845.55747	0.82513
3843.62891	0.82554
3841.70034	0.82283
3839.77178	0.82004
3837.84321	0.81589
3835.91465	0.81287
3833.98609	0.81208
3832.05752	0.81150
3830.12896	0.81117
3828.20039	0.81074
3826.27183	0.81093
3824.34326	0.81427
3822.41470	0.81633
3820.48613	0.81293
3818.55757	0.81282
3816.62901	0.81189
3814.70044	0.80885
3812.77188	0.81021
3810.84331	0.81380
3808.91475	0.81653
3806.98618	0.81588
3805.05762	0.81433
3803.12905	0.81188
3801.20049	0.80542
3799.27193	0.80457
3797.34336	0.80681
3795.41480	0.80663
3793.48623	0.80756
3791.55767	0.80858
3789.62910	0.80702
3787.70054	0.80499
3785.77197	0.80356
3783.84341	0.80280
3781.91485	0.80376
3779.98628	0.80307
3778.05772	0.79962
3776.12915	0.79853
3774.20059	0.79999
3772.27202	0.80096
3770.34346	0.79946
3768.41489	0.79842
3766.48633	0.79867
3764.55777	0.79787
3762.62920	0.79775
3760.70064	0.79726
3758.77207	0.79485
3756.84351	0.79557
3754.91494	0.80008
3752.98638	0.80289
3751.05781	0.79673
3749.12925	0.79085
3747.20069	0.79336
3745.27212	0.79546
3743.34356	0.79492
3741.41499	0.79776
3739.48643	0.80229
3737.55786	0.80221
3735.62930	0.79151
3733.70074	0.78182
3731.77217	0.78403
3729.84361	0.79048
3727.91504	0.79437
3725.98648	0.79312
3724.05791	0.79061
3722.12935	0.79001
3720.20078	0.78996
3718.27222	0.79016
3716.34366	0.79131
3714.41509	0.79337
3712.48653	0.79186
3710.55796	0.78448
3708.62940	0.78215
3706.70083	0.78572
3704.77227	0.79000
3702.84370	0.79022
3700.91514	0.78794
3698.98658	0.78935
3697.05801	0.79283
3695.12945	0.79633
3693.20088	0.80125
3691.27232	0.80489
3689.34375	0.79884
3687.41519	0.79200
3685.48662	0.79231
3683.55806	0.79513
3681.62950	0.79829
3679.70093	0.80245
3677.77237	0.80669
3675.84380	0.80489
3673.91524	0.80314
3671.98667	0.80630
3670.05811	0.80469
3668.12954	0.80266
3666.20098	0.80692
3664.27242	0.81233
3662.34385	0.81693
3660.41529	0.82215
3658.48672	0.82594
3656.55816	0.82521
3654.62959	0.82677
3652.70103	0.83520
3650.77246	0.84239
3648.84390	0.83434
3646.91534	0.82923
3644.98677	0.83470
3643.05821	0.84141
3641.12964	0.84602
3639.20108	0.84928
3637.27251	0.85289
3635.34395	0.85677
3633.41538	0.86146
3631.48682	0.86783
3629.55826	0.87049
3627.62969	0.86904
3625.70113	0.87498
3623.77256	0.88429
3621.84400	0.89102
3619.91543	0.89240
3617.98687	0.89254
3616.05830	0.89626
3614.12974	0.89981
3612.20118	0.90364
3610.27261	0.90893
3608.34405	0.91160
3606.41548	0.91372
3604.48692	0.91892
3602.55835	0.92620
3600.62979	0.93387
3598.70123	0.93922
3596.77266	0.94220
3594.84410	0.94571
3592.91553	0.95151
3590.98697	0.95821
3589.05840	0.96257
3587.12984	0.96343
3585.20127	0.96678
3583.27271	0.97282
3581.34415	0.97807
3579.41558	0.98261
3577.48702	0.98694
3575.55845	0.99004
3573.62989	0.99390
3571.70132	1.00044
3569.77276	1.00605
3567.84419	1.00743
3565.91563	1.00932
3563.98707	1.01490
3562.05850	1.02034
3560.12994	1.02479
3558.20137	1.03099
3556.27281	1.03962
3554.34424	1.04780
3552.41568	1.05299
3550.48711	1.05736
3548.55855	1.06422
3546.62999	1.07101
3544.70142	1.07548
3542.77286	1.07900
3540.84429	1.08115
3538.91573	1.08424
3536.98716	1.09033
3535.05860	1.09619
3533.13003	1.10162
3531.20147	1.10935
3529.27291	1.11694
3527.34434	1.12164
3525.41578	1.12465
3523.48721	1.12636
3521.55865	1.12848
3519.63008	1.13261
3517.70152	1.13715
3515.77295	1.14223
3513.84439	1.14858
3511.91583	1.15423
3509.98726	1.15841
3508.05870	1.16211
3506.13013	1.16760
3504.20157	1.17621
3502.27300	1.18387
3500.34444	1.18915
3498.41587	1.19446
3496.48731	1.19866
3494.55875	1.20176
3492.63018	1.20560
3490.70162	1.21044
3488.77305	1.21603
3486.84449	1.22147
3484.91592	1.22496
3482.98736	1.22692
3481.05879	1.23039
3479.13023	1.23604
3477.20167	1.23973
3475.27310	1.23896
3473.34454	1.23902
3471.41597	1.24298
3469.48741	1.24687
3467.55884	1.25060
3465.63028	1.25487
3463.70171	1.25648
3461.77315	1.25718
3459.84459	1.25956
3457.91602	1.26199
3455.98746	1.26420
3454.05889	1.26411
3452.13033	1.26131
3450.20176	1.26092
3448.27320	1.26345
3446.34464	1.26661
3444.41607	1.27144
3442.48751	1.27700
3440.55894	1.28061
3438.63038	1.28205
3436.70181	1.28197
3434.77325	1.28156
3432.84468	1.28218
3430.91612	1.28207
3428.98756	1.28052
3427.05899	1.27974
3425.13043	1.27995
3423.20186	1.28038
3421.27330	1.28038
3419.34473	1.27979
3417.41617	1.28153
3415.48760	1.28729
3413.55904	1.29139
3411.63048	1.28920
3409.70191	1.28633
3407.77335	1.28773
3405.84478	1.29135
3403.91622	1.29539
3401.98765	1.29969
3400.05909	1.30227
3398.13052	1.30097
3396.20196	1.29760
3394.27340	1.29618
3392.34483	1.29813
3390.41627	1.30076
3388.48770	1.30088
3386.55914	1.30018
3384.63057	1.30166
3382.70201	1.30468
3380.77344	1.30793
3378.84488	1.30926
3376.91632	1.30684
3374.98775	1.30320
3373.05919	1.30066
3371.13062	1.29999
3369.20206	1.30276
3367.27349	1.30726
3365.34493	1.30899
3363.41636	1.30782
3361.48780	1.30739
3359.55924	1.30799
3357.63067	1.30742
3355.70211	1.30666
3353.77354	1.30707
3351.84498	1.30720
3349.91641	1.30697
3347.98785	1.30813
3346.05928	1.31074
3344.13072	1.31202
3342.20216	1.31083
3340.27359	1.30985
3338.34503	1.30934
3336.41646	1.30811
3334.48790	1.30706
3332.55933	1.30724
3330.63077	1.31086
3328.70220	1.31701
3326.77364	1.32031
3324.84508	1.32012
3322.91651	1.31988
3320.98795	1.32103
3319.05938	1.32396
3317.13082	1.32751
3315.20225	1.32994
3313.27369	1.33109
3311.34513	1.33052
3309.41656	1.32949
3307.48800	1.33059
3305.55943	1.33284
3303.63087	1.33470
3301.70230	1.33539
3299.77374	1.33438
3297.84517	1.33604
3295.91661	1.34198
3293.98805	1.34518
3292.05948	1.34452
3290.13092	1.34513
3288.20235	1.34652
3286.27379	1.34676
3284.34522	1.34595
3282.41666	1.34537
3280.48809	1.34695
3278.55953	1.34861
3276.63097	1.34779
3274.70240	1.34657
3272.77384	1.34654
3270.84527	1.34729
3268.91671	1.34869
3266.98814	1.34952
3265.05958	1.34939
3263.13101	1.34839
3261.20245	1.34576
3259.27389	1.34309
3257.34532	1.34143
3255.41676	1.33922
3253.48819	1.33572
3251.55963	1.33185
3249.63106	1.32851
3247.70250	1.32522
3245.77393	1.32179
3243.84537	1.31688
3241.91681	1.30876
3239.98824	1.30073
3238.05968	1.29697
3236.13111	1.29677
3234.20255	1.29614
3232.27398	1.29184
3230.34542	1.28582
3228.41685	1.28317
3226.48829	1.28219
3224.55973	1.27646
3222.63116	1.26854
3220.70260	1.26494
3218.77403	1.26387
3216.84547	1.26161
3214.91690	1.25979
3212.98834	1.25932
3211.05977	1.25719
3209.13121	1.25341
3207.20265	1.25010
3205.27408	1.24569
3203.34552	1.24033
3201.41695	1.23736
3199.48839	1.23633
3197.55982	1.23416
3195.63126	1.23035
3193.70269	1.22682
3191.77413	1.22464
3189.84557	1.22236
3187.91700	1.21871
3185.98844	1.21478
3184.05987	1.21089
3182.13131	1.20736
3180.20274	1.20482
3178.27418	1.20146
3176.34562	1.19665
3174.41705	1.19241
3172.48849	1.18985
3170.55992	1.18745
3168.63136	1.18349
3166.70279	1.18025
3164.77423	1.17887
3162.84566	1.17662
3160.91710	1.17359
3158.98854	1.17130
3157.05997	1.16989
3155.13141	1.16964
3153.20284	1.16891
3151.27428	1.16661
3149.34571	1.16430
3147.41715	1.16113
3145.48858	1.15705
3143.56002	1.15483
3141.63146	1.15355
3139.70289	1.15092
3137.77433	1.14804
3135.84576	1.14595
3133.91720	1.14428
3131.98863	1.14322
3130.06007	1.14273
3128.13150	1.14230
3126.20294	1.14201
3124.27438	1.14122
3122.34581	1.13900
3120.41725	1.13662
3118.48868	1.13657
3116.56012	1.13869
3114.63155	1.13929
3112.70299	1.13588
3110.77442	1.13122
3108.84586	1.12951
3106.91730	1.13053
3104.98873	1.13073
3103.06017	1.12846
3101.13160	1.12511
3099.20304	1.12219
3097.27447	1.12011
3095.34591	1.11877
3093.41734	1.11744
3091.48878	1.11565
3089.56022	1.11370
3087.63165	1.11185
3085.70309	1.10979
3083.77452	1.10711
3081.84596	1.10466
3079.91739	1.10339
3077.98883	1.10202
3076.06026	1.09908
3074.13170	1.09521
3072.20314	1.09229
3070.27457	1.09132
3068.34601	1.09064
3066.41744	1.08807
3064.48888	1.08350
3062.56031	1.07851
3060.63175	1.07500
3058.70318	1.07320
3056.77462	1.07139
3054.84606	1.06840
3052.91749	1.06501
3050.98893	1.06279
3049.06036	1.06200
3047.13180	1.06047
3045.20323	1.05625
3043.27467	1.05118
3041.34610	1.04762
3039.41754	1.04519
3037.48898	1.04336
3035.56041	1.04124
3033.63185	1.03740
3031.70328	1.03228
3029.77472	1.02721
3027.84615	1.02335
3025.91759	1.02132
3023.98903	1.02006
3022.06046	1.01824
3020.13190	1.01584
3018.20333	1.01312
3016.27477	1.01009
3014.34620	1.00727
3012.41764	1.00511
3010.48907	1.00300
3008.56051	1.00028
3006.63195	0.99739
3004.70338	0.99520
3002.77482	0.99413
3000.84625	0.99401
2998.91769	0.99369
2996.98912	0.99261
2995.06056	0.99284
2993.13199	0.99573
2991.20343	0.99892
2989.27487	1.00039
2987.34630	1.00201
2985.41774	1.00583
2983.48917	1.01061
2981.56061	1.01442
2979.63204	1.01775
2977.70348	1.02153
2975.77491	1.02595
2973.84635	1.03151
2971.91779	1.03734
2969.98922	1.04156
2968.06066	1.04471
2966.13209	1.04864
2964.20353	1.05328
2962.27496	1.05644
2960.34640	1.05655
2958.41783	1.05397
2956.48927	1.05003
2954.56071	1.04598
2952.63214	1.04267
2950.70358	1.04051
2948.77501	1.03939
2946.84645	1.03915
2944.91788	1.04063
2942.98932	1.04524
2941.06075	1.05170
2939.13219	1.05809
2937.20363	1.06564
2935.27506	1.07461
2933.34650	1.08226
2931.41793	1.08744
2929.48937	1.09196
2927.56080	1.09691
2925.63224	1.10155
2923.70367	1.10533
2921.77511	1.10828
2919.84655	1.11006
2917.91798	1.10825
2915.98942	1.10000
2914.06085	1.08704
2912.13229	1.07405
2910.20372	1.06283
2908.27516	1.05268
2906.34659	1.04425
2904.41803	1.03851
2902.48947	1.03459
2900.56090	1.03111
2898.63234	1.02775
2896.70377	1.02532
2894.77521	1.02346
2892.84664	1.02069
2890.91808	1.01748
2888.98952	1.01475
2887.06095	1.01201
2885.13239	1.01006
2883.20382	1.00985
2881.27526	1.00993
2879.34669	1.00903
2877.41813	1.00735
2875.48956	1.00529
2873.56100	1.00254
2871.63244	0.99817
2869.70387	0.99269
2867.77531	0.98681
2865.84674	0.98041
2863.91818	0.97512
2861.98961	0.97277
2860.06105	0.97321
2858.13248	0.97555
2856.20392	0.97917
2854.27536	0.98391
2852.34679	0.98901
2850.41823	0.99073
2848.48966	0.98350
2846.56110	0.96707
2844.63253	0.94838
2842.70397	0.93274
2840.77540	0.92077
2838.84684	0.91213
2836.91828	0.90626
2834.98971	0.90184
2833.06115	0.89792
2831.13258	0.89423
2829.20402	0.89042
2827.27545	0.88632
2825.34689	0.88245
2823.41832	0.87891
2821.48976	0.87556
2819.56120	0.87273
2817.63263	0.87023
2815.70407	0.86732
2813.77550	0.86366
2811.84694	0.86000
2809.91837	0.85728
2807.98981	0.85491
2806.06124	0.85172
2804.13268	0.84807
2802.20412	0.84476
2800.27555	0.84170
2798.34699	0.83891
2796.41842	0.83662
2794.48986	0.83472
2792.56129	0.83340
2790.63273	0.83258
2788.70416	0.83100
2786.77560	0.82813
2784.84704	0.82534
2782.91847	0.82366
2780.98991	0.82290
2779.06134	0.82253
2777.13278	0.82199
2775.20421	0.82103
2773.27565	0.81977
2771.34708	0.81895
2769.41852	0.81893
2767.48996	0.81897
2765.56139	0.81837
2763.63283	0.81723
2761.70426	0.81614
2759.77570	0.81549
2757.84713	0.81543
2755.91857	0.81543
2753.99001	0.81468
2752.06144	0.81347
2750.13288	0.81246
2748.20431	0.81161
2746.27575	0.81090
2744.34718	0.81048
2742.41862	0.80963
2740.49005	0.80792
2738.56149	0.80638
2736.63293	0.80562
2734.70436	0.80521
2732.77580	0.80468
2730.84723	0.80372
2728.91867	0.80227
2726.99010	0.80023
2725.06154	0.79785
2723.13297	0.79585
2721.20441	0.79459
2719.27585	0.79364
2717.34728	0.79203
2715.41872	0.78979
2713.49015	0.78787
2711.56159	0.78629
2709.63302	0.78448
2707.70446	0.78258
2705.77589	0.78118
2703.84733	0.78018
2701.91877	0.77888
2699.99020	0.77750
2698.06164	0.77657
2696.13307	0.77576
2694.20451	0.77480
2692.27594	0.77361
2690.34738	0.77240
2688.41881	0.77168
2686.49025	0.77137
2684.56169	0.77111
2682.63312	0.77046
2680.70456	0.76926
2678.77599	0.76799
2676.84743	0.76696
2674.91886	0.76616
2672.99030	0.76550
2671.06173	0.76468
2669.13317	0.76360
2667.20461	0.76230
2665.27604	0.76099
2663.34748	0.76024
2661.41891	0.75990
2659.49035	0.75905
2657.56178	0.75754
2655.63322	0.75593
2653.70465	0.75448
2651.77609	0.75310
2649.84753	0.75199
2647.91896	0.75134
2645.99040	0.75098
2644.06183	0.75054
2642.13327	0.74984
2640.20470	0.74919
2638.27614	0.74883
2636.34757	0.74843
2634.41901	0.74773
2632.49045	0.74681
2630.56188	0.74604
2628.63332	0.74561
2626.70475	0.74511
2624.77619	0.74456
2622.84762	0.74436
2620.91906	0.74432
2618.99049	0.74404
2617.06193	0.74372
2615.13337	0.74355
2613.20480	0.74311
2611.27624	0.74255
2609.34767	0.74246
2607.41911	0.74221
2605.49054	0.74119
2603.56198	0.74016
2601.63342	0.73948
2599.70485	0.73889
2597.77629	0.73812
2595.84772	0.73707
2593.91916	0.73616
2591.99059	0.73566
2590.06203	0.73535
2588.13346	0.73510
2586.20490	0.73474
2584.27634	0.73426
2582.34777	0.73388
2580.41921	0.73335
2578.49064	0.73222
2576.56208	0.73072
2574.63351	0.72964
2572.70495	0.72910
2570.77638	0.72854
2568.84782	0.72779
2566.91926	0.72685
2564.99069	0.72572
2563.06213	0.72472
2561.13356	0.72388
2559.20500	0.72300
2557.27643	0.72226
2555.34787	0.72168
2553.41930	0.72096
2551.49074	0.72013
2549.56218	0.71954
2547.63361	0.71911
2545.70505	0.71862
2543.77648	0.71817
2541.84792	0.71780
2539.91935	0.71748
2537.99079	0.71706
2536.06222	0.71636
2534.13366	0.71539
2532.20510	0.71470
2530.27653	0.71453
2528.34797	0.71410
2526.41940	0.71306
2524.49084	0.71200
2522.56227	0.71134
2520.63371	0.71078
2518.70514	0.71022
2516.77658	0.70995
2514.84802	0.70959
2512.91945	0.70857
2510.99089	0.70726
2509.06232	0.70623
2507.13376	0.70538
2505.20519	0.70456
2503.27663	0.70390
2501.34806	0.70335
2499.41950	0.70253
2497.49094	0.70126
2495.56237	0.70013
2493.63381	0.69938
2491.70524	0.69849
2489.77668	0.69737
2487.84811	0.69625
2485.91955	0.69525
2483.99098	0.69455
2482.06242	0.69425
2480.13386	0.69419
2478.20529	0.69385
2476.27673	0.69308
2474.34816	0.69206
2472.41960	0.69103
2470.49103	0.69017
2468.56247	0.68972
2466.63391	0.68948
2464.70534	0.68891
2462.77678	0.68813
2460.84821	0.68761
2458.91965	0.68735
2456.99108	0.68697
2455.06252	0.68635
2453.13395	0.68575
2451.20539	0.68532
2449.27683	0.68480
2447.34826	0.68401
2445.41970	0.68310
2443.49113	0.68223
2441.56257	0.68143
2439.63400	0.68063
2437.70544	0.67974
2435.77687	0.67891
2433.84831	0.67835
2431.91975	0.67787
2429.99118	0.67694
2428.06262	0.67564
2426.13405	0.67454
2424.20549	0.67379
2422.27692	0.67329
2420.34836	0.67259
2418.41979	0.67145
2416.49123	0.67044
2414.56267	0.66972
2412.63410	0.66893
2410.70554	0.66832
2408.77697	0.66792
2406.84841	0.66731
2404.91984	0.66638
2402.99128	0.66539
2401.06271	0.66473
2399.13415	0.66439
2397.20559	0.66388
2395.27702	0.66321
2393.34846	0.66263
2391.41989	0.66185
2389.49133	0.66079
2387.56276	0.66009
2385.63420	0.65997
2383.70563	0.65961
2381.77707	0.65865
2379.84851	0.65798
2377.91994	0.65794
2375.99138	0.65759
2374.06281	0.65635
2372.13425	0.65507
2370.20568	0.65459
2368.27712	0.65495
2366.34855	0.65636
2364.41999	0.65733
2362.49143	0.65531
2360.56286	0.65084
2358.63430	0.64509
2356.70573	0.64085
2354.77717	0.64105
2352.84860	0.64286
2350.92004	0.64381
2348.99147	0.64449
2347.06291	0.64456
2345.13435	0.64336
2343.20578	0.64288
2341.27722	0.64343
2339.34865	0.64263
2337.42009	0.64192
2335.49152	0.64225
2333.56296	0.64162
2331.63440	0.63961
2329.70583	0.63841
2327.77727	0.63912
2325.84870	0.64037
2323.92014	0.64074
2321.99157	0.63991
2320.06301	0.63872
2318.13444	0.63819
2316.20588	0.63805
2314.27732	0.63747
2312.34875	0.63654
2310.42019	0.63589
2308.49162	0.63567
2306.56306	0.63568
2304.63449	0.63566
2302.70593	0.63537
2300.77736	0.63473
2298.84880	0.63398
2296.92024	0.63369
2294.99167	0.63382
2293.06311	0.63371
2291.13454	0.63331
2289.20598	0.63292
2287.27741	0.63259
2285.34885	0.63237
2283.42028	0.63222
2281.49172	0.63195
2279.56316	0.63148
2277.63459	0.63107
2275.70603	0.63079
2273.77746	0.63030
2271.84890	0.62961
2269.92033	0.62909
2267.99177	0.62877
2266.06320	0.62855
2264.13464	0.62840
2262.20608	0.62803
2260.27751	0.62721
2258.34895	0.62621
2256.42038	0.62554
2254.49182	0.62507
2252.56325	0.62453
2250.63469	0.62406
2248.70612	0.62359
2246.77756	0.62285
2244.84900	0.62179
2242.92043	0.62054
2240.99187	0.61929
2239.06330	0.61818
2237.13474	0.61707
2235.20617	0.61571
2233.27761	0.61411
2231.34904	0.61248
2229.42048	0.61099
2227.49192	0.60976
2225.56335	0.60883
2223.63479	0.60791
2221.70622	0.60662
2219.77766	0.60514
2217.84909	0.60384
2215.92053	0.60266
2213.99196	0.60146
2212.06340	0.60038
2210.13484	0.59963
2208.20627	0.59906
2206.27771	0.59828
2204.34914	0.59724
2202.42058	0.59624
2200.49201	0.59571
2198.56345	0.59564
2196.63488	0.59561
2194.70632	0.59543
2192.77776	0.59509
2190.84919	0.59487
2188.92063	0.59494
2186.99206	0.59492
2185.06350	0.59448
2183.13493	0.59393
2181.20637	0.59356
2179.27781	0.59333
2177.34924	0.59325
2175.42068	0.59321
2173.49211	0.59286
2171.56355	0.59217
2169.63498	0.59160
2167.70642	0.59122
2165.77785	0.59075
2163.84929	0.59005
2161.92073	0.58909
2159.99216	0.58790
2158.06360	0.58673
2156.13503	0.58588
2154.20647	0.58529
2152.27790	0.58468
2150.34934	0.58390
2148.42077	0.58292
2146.49221	0.58180
2144.56365	0.58082
2142.63508	0.58011
2140.70652	0.57950
2138.77795	0.57872
2136.84939	0.57782
2134.92082	0.57705
2132.99226	0.57665
2131.06369	0.57642
2129.13513	0.57602
2127.20657	0.57552
2125.27800	0.57526
2123.34944	0.57524
2121.42087	0.57520
2119.49231	0.57506
2117.56374	0.57484
2115.63518	0.57443
2113.70661	0.57393
2111.77805	0.57360
2109.84949	0.57363
2107.92092	0.57388
2105.99236	0.57402
2104.06379	0.57395
2102.13523	0.57386
2100.20666	0.57388
2098.27810	0.57412
2096.34953	0.57441
2094.42097	0.57445
2092.49241	0.57425
2090.56384	0.57398
2088.63528	0.57372
2086.70671	0.57353
2084.77815	0.57316
2082.84958	0.57235
2080.92102	0.57124
2078.99245	0.57009
2077.06389	0.56900
2075.13533	0.56794
2073.20676	0.56665
2071.27820	0.56513
2069.34963	0.56376
2067.42107	0.56266
2065.49250	0.56155
2063.56394	0.56028
2061.63537	0.55887
2059.70681	0.55735
2057.77825	0.55593
2055.84968	0.55463
2053.92112	0.55331
2051.99255	0.55210
2050.06399	0.55121
2048.13542	0.55055
2046.20686	0.54987
2044.27830	0.54899
2042.34973	0.54806
2040.42117	0.54736
2038.49260	0.54687
2036.56404	0.54648
2034.63547	0.54609
2032.70691	0.54556
2030.77834	0.54491
2028.84978	0.54437
2026.92122	0.54398
2024.99265	0.54348
2023.06409	0.54282
2021.13552	0.54209
2019.20696	0.54120
2017.27839	0.54012
2015.34983	0.53891
2013.42126	0.53760
2011.49270	0.53614
2009.56414	0.53447
2007.63557	0.53266
2005.70701	0.53081
2003.77844	0.52895
2001.84988	0.52714
1999.92131	0.52540
1997.99275	0.52366
1996.06418	0.52189
1994.13562	0.51992
1992.20706	0.51761
1990.27849	0.51527
1988.34993	0.51322
1986.42136	0.51131
1984.49280	0.50945
1982.56423	0.50759
1980.63567	0.50569
1978.70710	0.50383
1976.77854	0.50196
1974.84998	0.50004
1972.92141	0.49808
1970.99285	0.49620
1969.06428	0.49444
1967.13572	0.49271
1965.20715	0.49117
1963.27859	0.48979
1961.35002	0.48842
1959.42146	0.48721
1957.49290	0.48623
1955.56433	0.48534
1953.63577	0.48453
1951.70720	0.48389
1949.77864	0.48326
1947.85007	0.48257
1945.92151	0.48200
1943.99294	0.48158
1942.06438	0.48116
1940.13582	0.48087
1938.20725	0.48066
1936.27869	0.48030
1934.35012	0.47989
1932.42156	0.47964
1930.49299	0.47959
1928.56443	0.47954
1926.63586	0.47935
1924.70730	0.47895
1922.77874	0.47827
1920.85017	0.47753
1918.92161	0.47681
1916.99304	0.47612
1915.06448	0.47570
1913.13591	0.47552
1911.20735	0.47523
1909.27878	0.47474
1907.35022	0.47429
1905.42166	0.47398
1903.49309	0.47374
1901.56453	0.47345
1899.63596	0.47313
1897.70740	0.47274
1895.77883	0.47219
1893.85027	0.47164
1891.92171	0.47117
1889.99314	0.47069
1888.06458	0.47025
1886.13601	0.46974
1884.20745	0.46899
1882.27888	0.46811
1880.35032	0.46732
1878.42175	0.46658
1876.49319	0.46576
1874.56463	0.46489
1872.63606	0.46416
1870.70750	0.46347
1868.77893	0.46229
1866.85037	0.46097
1864.92180	0.46011
1862.99324	0.45931
1861.06467	0.45812
1859.13611	0.45668
1857.20755	0.45534
1855.27898	0.45428
1853.35042	0.45334
1851.42185	0.45225
1849.49329	0.45099
1847.56472	0.44987
1845.63616	0.44883
1843.70759	0.44738
1841.77903	0.44596
1839.85047	0.44483
1837.92190	0.44360
1835.99334	0.44223
1834.06477	0.44098
1832.13621	0.43986
1830.20764	0.43839
1828.27908	0.43685
1826.35051	0.43555
1824.42195	0.43405
1822.49339	0.43262
1820.56482	0.43133
1818.63626	0.43000
1816.70769	0.42867
1814.77913	0.42746
1812.85056	0.42623
1810.92200	0.42483
1808.99343	0.42353
1807.06487	0.42249
1805.13631	0.42167
1803.20774	0.42096
1801.27918	0.42021
1799.35061	0.41948
1797.42205	0.41884
1795.49348	0.41835
1793.56492	0.41787
1791.63635	0.41737
1789.70779	0.41700
1787.77923	0.41674
1785.85066	0.41640
1783.92210	0.41601
1781.99353	0.41570
1780.06497	0.41552
1778.13640	0.41560
1776.20784	0.41574
1774.27927	0.41579
1772.35071	0.41593
1770.42215	0.41661
1768.49358	0.41779
1766.56502	0.41929
1764.63645	0.42111
1762.70789	0.42338
1760.77932	0.42620
1758.85076	0.42944
1756.92220	0.43363
1754.99363	0.43813
1753.06507	0.44265
1751.13650	0.44902
1749.20794	0.45739
1747.27937	0.46504
1745.35081	0.47173
1743.42224	0.47813
1741.49368	0.48426
1739.56512	0.49017
1737.63655	0.49491
1735.70799	0.49887
1733.77942	0.50478
1731.85086	0.51107
1729.92229	0.51663
1727.99373	0.52287
1726.06516	0.52957
1724.13660	0.53735
1722.20804	0.54535
1720.27947	0.55275
1718.35091	0.56297
1716.42234	0.57950
1714.49378	0.59490
1712.56521	0.60816
1710.63665	0.62241
1708.70808	0.63864
1706.77952	0.66101
1704.85096	0.68988
1702.92239	0.71616
1700.99383	0.74998
1699.06526	0.79938
1697.13670	0.84320
1695.20813	0.88473
1693.27957	0.91548
1691.35100	0.93925
1689.42244	0.96658
1687.49388	0.99101
1685.56531	1.01368
1683.63675	1.04535
1681.70818	1.06829
1679.77962	1.08157
1677.85105	1.09242
1675.92249	1.10280
1673.99392	1.11269
1672.06536	1.12056
1670.13680	1.12767
1668.20823	1.13449
1666.27967	1.13828
1664.35110	1.14120
1662.42254	1.14521
1660.49397	1.14901
1658.56541	1.15153
1656.63684	1.15243
1654.70828	1.15220
1652.77972	1.14876
1650.85115	1.14565
1648.92259	1.14464
1646.99402	1.14339
1645.06546	1.14187
1643.13689	1.13982
1641.20833	1.13803
1639.27976	1.13687
1637.35120	1.13595
1635.42264	1.13405
1633.49407	1.13177
1631.56551	1.13013
1629.63694	1.12762
1627.70838	1.12376
1625.77981	1.11889
1623.85125	1.11186
1621.92269	1.10243
1619.99412	1.09350
1618.06556	1.08140
1616.13699	1.06095
1614.20843	1.04268
1612.27986	1.02767
1610.35130	1.01083
1608.42273	0.99254
1606.49417	0.97619
1604.56561	0.96312
1602.63704	0.95218
1600.70848	0.94345
1598.77991	0.93747
1596.85135	0.93372
1594.92278	0.93133
1592.99422	0.93008
1591.06565	0.93029
1589.13709	0.93250
1587.20853	0.93718
1585.27996	0.94401
1583.35140	0.95269
1581.42283	0.96196
1579.49427	0.97002
1577.56570	0.97918
1575.63714	0.99314
1573.70857	1.00383
1571.78001	1.01021
1569.85145	1.01857
1567.92288	1.02883
1565.99432	1.03766
1564.06575	1.04620
1562.13719	1.05283
1560.20862	1.05909
1558.28006	1.07063
1556.35149	1.07574
1554.42293	1.07627
1552.49437	1.07627
1550.56580	1.07592
1548.63724	1.07466
1546.70867	1.07255
1544.78011	1.06950
1542.85154	1.06615
1540.92298	1.06155
1538.99441	1.05508
1537.06585	1.05262
1535.13729	1.05107
1533.20872	1.04774
1531.28016	1.04325
1529.35159	1.03926
1527.42303	1.03543
1525.49446	1.03209
1523.56590	1.02993
1521.63733	1.02889
1519.70877	1.02888
1517.78021	1.02700
1515.85164	1.02180
1513.92308	1.01420
1511.99451	1.00485
1510.06595	0.99454
1508.13738	0.97717
1506.20882	0.94783
1504.28025	0.93297
1502.35169	0.92345
1500.42313	0.91143
1498.49456	0.89512
1496.56600	0.87596
1494.63743	0.86143
1492.70887	0.85144
1490.78030	0.83954
1488.85174	0.82368
1486.92317	0.81181
1484.99461	0.80470
1483.06605	0.79976
1481.13748	0.79649
1479.20892	0.79549
1477.28035	0.79711
1475.35179	0.80194
1473.42322	0.81277
1471.49466	0.82641
1469.56610	0.83446
1467.63753	0.83974
1465.70897	0.84612
1463.78040	0.85326
1461.85184	0.85787
1459.92327	0.86076
1457.99471	0.86541
1456.06614	0.87156
1454.13758	0.87395
1452.20902	0.87446
1450.28045	0.87439
1448.35189	0.87352
1446.42332	0.87138
1444.49476	0.86863
1442.56619	0.86569
1440.63763	0.86252
1438.70906	0.85857
1436.78050	0.85270
1434.85194	0.84675
1432.92337	0.84232
1430.99481	0.83767
1429.06624	0.83287
1427.13768	0.82953
1425.20911	0.82763
1423.28055	0.82679
1421.35198	0.82671
1419.42342	0.82730
1417.49486	0.82816
1415.56629	0.82795
1413.63773	0.82635
1411.70916	0.82377
1409.78060	0.82143
1407.85203	0.81967
1405.92347	0.81798
1403.99490	0.81659
1402.06634	0.81574
1400.13778	0.81466
1398.20921	0.81299
1396.28065	0.81169
1394.35208	0.81180
1392.42352	0.81372
1390.49495	0.81763
1388.56639	0.82534
1386.63782	0.83803
1384.70926	0.85102
1382.78070	0.86128
1380.85213	0.86813
1378.92357	0.87031
1376.99500	0.86793
1375.06644	0.86084
1373.13787	0.84985
1371.20931	0.83821
1369.28074	0.82545
1367.35218	0.81200
1365.42362	0.80049
1363.49505	0.79024
1361.56649	0.78196
1359.63792	0.77795
1357.70936	0.77679
1355.78079	0.77679
1353.85223	0.77748
1351.92366	0.77880
1349.99510	0.78039
1348.06654	0.78180
1346.13797	0.78324
1344.20941	0.78502
1342.28084	0.78712
1340.35228	0.79004
1338.42371	0.79422
1336.49515	0.79922
1334.56659	0.80509
1332.63802	0.81181
1330.70946	0.81832
1328.78089	0.82302
1326.85233	0.82495
1324.92376	0.82478
1322.99520	0.82395
1321.06663	0.82338
1319.13807	0.82302
1317.20951	0.82235
1315.28094	0.82121
1313.35238	0.81987
1311.42381	0.81829
1309.49525	0.81590
1307.56668	0.81248
1305.63812	0.80865
1303.70955	0.80517
1301.78099	0.80190
1299.85243	0.79811
1297.92386	0.79377
1295.99530	0.78992
1294.06673	0.78768
1292.13817	0.78736
1290.20960	0.78856
1288.28104	0.79067
1286.35247	0.79331
1284.42391	0.79631
1282.49535	0.79965
1280.56678	0.80340
1278.63822	0.80768
1276.70965	0.81273
1274.78109	0.81870
1272.85252	0.82532
1270.92396	0.83211
1268.99539	0.83888
1267.06683	0.84530
1265.13827	0.85021
1263.20970	0.85271
1261.28114	0.85317
1259.35257	0.85265
1257.42401	0.85186
1255.49544	0.85102
1253.56688	0.84995
1251.63831	0.84845
1249.70975	0.84664
1247.78119	0.84476
1245.85262	0.84279
1243.92406	0.84047
1241.99549	0.83768
1240.06693	0.83459
1238.13836	0.83109
1236.20980	0.82679
1234.28123	0.82183
1232.35267	0.81673
1230.42411	0.81149
1228.49554	0.80591
1226.56698	0.80020
1224.63841	0.79464
1222.70985	0.78970
1220.78128	0.78589
1218.85272	0.78329
1216.92415	0.78224
1214.99559	0.78346
1213.06703	0.78737
1211.13846	0.79368
1209.20990	0.80093
1207.28133	0.80683
1205.35277	0.80963
1203.42420	0.80960
1201.49564	0.80846
1199.56708	0.80714
1197.63851	0.80584
1195.70995	0.80510
1193.78138	0.80555
1191.85282	0.80773
1189.92425	0.81191
1187.99569	0.81766
1186.06712	0.82422
1184.13856	0.83101
1182.21000	0.83820
1180.28143	0.84676
1178.35287	0.85691
1176.42430	0.86776
1174.49574	0.87840
1172.56717	0.88875
1170.63861	0.89969
1168.71004	0.91175
1166.78148	0.92441
1164.85292	0.93664
1162.92435	0.94688
1160.99579	0.95335
1159.06722	0.95480
1157.13866	0.95115
1155.21009	0.94359
1153.28153	0.93408
1151.35296	0.92411
1149.42440	0.91465
1147.49584	0.90657
1145.56727	0.90087
1143.63871	0.89888
1141.71014	0.90122
1139.78158	0.90733
1137.85301	0.91640
1135.92445	0.92801
1133.99588	0.94177
1132.06732	0.95700
1130.13876	0.97313
1128.21019	0.98936
1126.28163	1.00450
1124.35306	1.01736
1122.42450	1.02724
1120.49593	1.03411
1118.56737	1.03781
1116.63880	1.03853
1114.71024	1.03710
1112.78168	1.03394
1110.85311	1.02947
1108.92455	1.02486
1106.99598	1.02146
1105.06742	1.01977
1103.13885	1.01940
1101.21029	1.01995
1099.28172	1.02182
1097.35316	1.02600
1095.42460	1.03240
1093.49603	1.03982
1091.56747	1.04762
1089.63890	1.05532
1087.71034	1.06265
1085.78177	1.06994
1083.85321	1.07557
1081.92464	1.07703
1079.99608	1.07413
1078.06752	1.06769
1076.13895	1.05855
1074.21039	1.04755
1072.28182	1.03514
1070.35326	1.02276
1068.42469	1.01188
1066.49613	1.00221
1064.56756	0.99343
1062.63900	0.98605
1060.71044	0.97997
1058.78187	0.97495
1056.85331	0.97128
1054.92474	0.96946
1052.99618	0.96953
1051.06761	0.97130
1049.13905	0.97498
1047.21049	0.98025
1045.28192	0.98654
1043.35336	0.99377
1041.42479	1.00101
1039.49623	1.00633
1037.56766	1.00862
1035.63910	1.00810
1033.71053	1.00556
1031.78197	1.00176
1029.85341	0.99678
1027.92484	0.99068
1025.99628	0.98447
1024.06771	0.97874
1022.13915	0.97336
1020.21058	0.96825
1018.28202	0.96253
1016.35345	0.95524
1014.42489	0.94637
1012.49633	0.93609
1010.56776	0.92433
1008.63920	0.91091
1006.71063	0.89693
1004.78207	0.88430
1002.85350	0.87354
1000.92494	0.86456
998.99637	0.85767
997.06781	0.85246
995.13925	0.84747
993.21068	0.84159
991.28212	0.83476
989.35355	0.82735
987.42499	0.81987
985.49642	0.81286
983.56786	0.80730
981.63929	0.80381
979.71073	0.80193
977.78217	0.80103
975.85360	0.80048
973.92504	0.79929
971.99647	0.79690
970.06791	0.79430
968.13934	0.79326
966.21078	0.79478
964.28221	0.79924
962.35365	0.80769
960.42509	0.82107
958.49652	0.83735
956.56796	0.85145
954.63939	0.85920
952.71083	0.86031
950.78226	0.85702
948.85370	0.85239
946.92513	0.84884
944.99657	0.84658
943.06801	0.84496
941.13944	0.84399
939.21088	0.84302
937.28231	0.84079
935.35375	0.83765
933.42518	0.83526
931.49662	0.83399
929.56805	0.83295
927.63949	0.83162
925.71093	0.83023
923.78236	0.82931
921.85380	0.82875
919.92523	0.82747
917.99667	0.82493
916.06810	0.82198
914.13954	0.81966
912.21098	0.81870
910.28241	0.81958
908.35385	0.82205
906.42528	0.82540
904.49672	0.82861
902.56815	0.83101
900.63959	0.83255
898.71102	0.83274
896.78246	0.83105
894.85390	0.82783
892.92533	0.82416
890.99677	0.82078
889.06820	0.81753
887.13964	0.81434
885.21107	0.81162
883.28251	0.80989
881.35394	0.80953
879.42538	0.81068
877.49682	0.81286
875.56825	0.81499
873.63969	0.81653
871.71112	0.81809
869.78256	0.82026
867.85399	0.82264
865.92543	0.82476
863.99686	0.82728
862.06830	0.83063
860.13974	0.83420
858.21117	0.83821
856.28261	0.84343
854.35404	0.84866
852.42548	0.85246
850.49691	0.85567
848.56835	0.85946
846.63978	0.86369
844.71122	0.86802
842.78266	0.87251
840.85409	0.87746
838.92553	0.88291
836.99696	0.88857
835.06840	0.89451
833.13983	0.90118
831.21127	0.90818
829.28270	0.91464
827.35414	0.92101
825.42558	0.92826
823.49701	0.93562
821.56845	0.94203
819.63988	0.94827
817.71132	0.95517
815.78275	0.96240
813.85419	0.96932
811.92562	0.97554
809.99706	0.98144
808.06850	0.98709
806.13993	0.99184
804.21137	0.99486
802.28280	0.99626
800.35424	0.99758
798.42567	0.99941
796.49711	1.00064
794.56854	1.00082
792.63998	1.00089
790.71142	1.00158
788.78285	1.00260
786.85429	1.00337
784.92572	1.00419
782.99716	1.00596
781.06859	1.00837
779.14003	1.01058
777.21147	1.01283
775.28290	1.01513
773.35434	1.01721
771.42577	1.01926
769.49721	1.02119
767.56864	1.02263
765.64008	1.02403
763.71151	1.02588
761.78295	1.02673
759.85439	1.02525
757.92582	1.02314
755.99726	1.02264
754.06869	1.02340
752.14013	1.02309
750.21156	1.02054
748.28300	1.01781
746.35443	1.01660
744.42587	1.01507
742.49731	1.01189
740.56874	1.00846
738.64018	1.00524
736.71161	1.00147
734.78305	0.99804
732.85448	0.99650
730.92592	0.99650
728.99735	0.99569
727.06879	0.99330
725.14023	0.99198
723.21166	0.99352
721.28310	0.99634
719.35453	0.99799
717.42597	0.99894
715.49740	1.00153
713.56884	1.00597
711.64027	1.01168
709.71171	1.01822
707.78315	1.02381
705.85458	1.02835
703.92602	1.03398
701.99745	1.04010
700.06889	1.04449
698.14032	1.04845
696.21176	1.05413
694.28319	1.06009
692.35463	1.06513
690.42607	1.06987
688.49750	1.07405
686.56894	1.07789
684.64037	1.08273
682.71181	1.08831
680.78324	1.09235
678.85468	1.09391
676.92611	1.09471
674.99755	1.09591
673.06899	1.09626
671.14042	1.09424
669.21186	1.09068
667.28329	1.09109
665.35473	1.09283
663.42616	1.09053
661.49760	1.08577
659.56903	1.08182
657.64047	1.07851
655.71191	1.07442
653.78334	1.07000
651.85478	1.06592
649.92621	1.06360
647.99765	1.06471
646.06908	1.06693
644.14052	1.06786
642.21195	1.07004
640.28339	1.07432
638.35483	1.07770
636.42626	1.07964
634.49770	1.08107
632.56913	1.08113
630.64057	1.08030
628.71200	1.08006
626.78344	1.07923
624.85488	1.07835
622.92631	1.08012
620.99775	1.08117
619.06918	1.07725
617.14062	1.07115
615.21205	1.06602
613.28349	1.06031
611.35492	1.05244
609.42636	1.04218
607.49780	1.03059
605.56923	1.02074
603.64067	1.01255
601.71210	1.00229
599.78354	0.98933
