3997.91406	0.96603
3995.98550	0.96841
3994.05693	0.96999
3992.12837	0.96900
3990.19980	0.96845
3988.27124	0.96920
3986.34268	0.96908
3984.41411	0.96799
3982.48555	0.96761
3980.55698	0.96762
3978.62842	0.96614
3976.69985	0.96377
3974.77129	0.96274
3972.84272	0.96305
3970.91416	0.96348
3968.98560	0.96500
3967.05703	0.96727
3965.12847	0.96666
3963.19990	0.96394
3961.27134	0.96256
3959.34277	0.96125
3957.41421	0.95919
3955.48564	0.95888
3953.55708	0.96124
3951.62852	0.96451
3949.69995	0.96596
3947.77139	0.96522
3945.84282	0.96424
3943.91426	0.96247
3941.98569	0.95969
3940.05713	0.95838
3938.12856	0.95835
3936.20000	0.95832
3934.27144	0.95813
3932.34287	0.95668
3930.41431	0.95485
3928.48574	0.95618
3926.55718	0.95927
3924.62861	0.95893
3922.70005	0.95566
3920.77148	0.95463
3918.84292	0.95620
3916.91436	0.95630
3914.98579	0.95316
3913.05723	0.95017
3911.12866	0.94950
3909.20010	0.95019
3907.27153	0.94987
3905.34297	0.94653
3903.41440	0.94286
3901.48584	0.94357
3899.55728	0.94555
3897.62871	0.94593
3895.70015	0.94580
3893.77158	0.94676
3891.84302	0.94940
3889.91445	0.94984
3887.98589	0.94691
3886.05733	0.94363
3884.12876	0.94227
3882.20020	0.94277
3880.27163	0.94397
3878.34307	0.94381
3876.41450	0.94293
3874.48594	0.94236
3872.55737	0.94112
3870.62881	0.93967
3868.70025	0.93907
3866.77168	0.93784
3864.84312	0.93765
3862.91455	0.93972
3860.98599	0.94026
3859.05742	0.93868
3857.12886	0.93489
3855.20029	0.92918
3853.27173	0.93117
3851.34317	0.93744
3849.41460	0.93721
3847.48604	0.93564
3845.55747	0.93494
3843.62891	0.93400
3841.70034	0.93374
3839.77178	0.93696
3837.84321	0.94085
3835.91465	0.94023
3833.98609	0.93676
3832.05752	0.93337
3830.12896	0.93193
3828.20039	0.93172
3826.27183	0.93117
3824.34326	0.93049
3822.41470	0.93072
3820.48613	0.93106
3818.55757	0.93056
3816.62901	0.93067
3814.70044	0.93049
3812.77188	0.92953
3810.84331	0.92949
3808.91475	0.93083
3806.98618	0.93152
3805.05762	0.92916
3803.12905	0.92596
3801.20049	0.92592
3799.27193	0.92807
3797.34336	0.92915
3795.41480	0.92940
3793.48623	0.92948
3791.55767	0.93017
3789.62910	0.93153
3787.70054	0.93255
3785.77197	0.93274
3783.84341	0.93270
3781.91485	0.93293
3779.98628	0.93211
3778.05772	0.92928
3776.12915	0.92767
3774.20059	0.92837
3772.27202	0.92841
3770.34346	0.92629
3768.41489	0.92525
3766.48633	0.92677
3764.55777	0.92781
3762.62920	0.92595
3760.70064	0.92339
3758.77207	0.92467
3756.84351	0.92742
3754.91494	0.92586
3752.98638	0.91901
3751.05781	0.91353
3749.12925	0.91878
3747.20069	0.92370
3745.27212	0.92258
3743.34356	0.92019
3741.41499	0.91987
3739.48643	0.91854
3737.55786	0.91529
3735.62930	0.91435
3733.70074	0.91977
3731.77217	0.92369
3729.84361	0.92300
3727.91504	0.92161
3725.98648	0.92234
3724.05791	0.92362
3722.12935	0.92333
3720.20078	0.92227
3718.27222	0.92112
3716.34366	0.91960
3714.41509	0.91847
3712.48653	0.92053
3710.55796	0.92498
3708.62940	0.92524
3706.70083	0.92358
3704.77227	0.92329
3702.84370	0.92439
3700.91514	0.92468
3698.98658	0.92416
3697.05801	0.92451
3695.12945	0.92467
3693.20088	0.92421
3691.27232	0.92670
3689.34375	0.93282
3687.41519	0.93424
3685.48662	0.93279
3683.55806	0.93196
3681.62950	0.93162
3679.70093	0.93245
3677.77237	0.93473
3675.84380	0.93669
3673.91524	0.93707
3671.98667	0.93804
3670.05811	0.94292
3668.12954	0.94875
3666.20098	0.95144
3664.27242	0.95318
3662.34385	0.95534
3660.41529	0.95844
3658.48672	0.96343
3656.55816	0.97057
3654.62959	0.97438
3652.70103	0.97230
3650.77246	0.96924
3648.84390	0.97576
3646.91534	0.98637
3644.98677	0.99249
3643.05821	0.99822
3641.12964	1.00384
3639.20108	1.00739
3637.27251	1.00954
3635.34395	1.01263
3633.41538	1.01708
3631.48682	1.01976
3629.55826	1.02229
3627.62969	1.03011
3625.70113	1.03562
3623.77256	1.03752
3621.84400	1.03817
3619.91543	1.04009
3617.98687	1.04648
3616.05830	1.05303
3614.12974	1.05622
3612.20118	1.05787
3610.27261	1.06132
3608.34405	1.06862
3606.41548	1.07627
3604.48692	1.08131
3602.55835	1.08662
3600.62979	1.09254
3598.70123	1.09662
3596.77266	1.09904
3594.84410	1.10146
3592.91553	1.10501
3590.98697	1.10851
3589.05840	1.11247
3587.12984	1.11904
3585.20127	1.12404
3583.27271	1.12665
3581.34415	1.13053
3579.41558	1.13559
3577.48702	1.13898
3575.55845	1.14196
3573.62989	1.14745
3571.70132	1.15195
3569.77276	1.15114
3567.84419	1.14940
3565.91563	1.15585
3563.98707	1.16519
3562.05850	1.17244
3560.12994	1.17970
3558.20137	1.18622
3556.27281	1.18874
3554.34424	1.18811
3552.41568	1.18887
3550.48711	1.19237
3548.55855	1.19585
3546.62999	1.19936
3544.70142	1.20509
3542.77286	1.21163
3540.84429	1.21697
3538.91573	1.22006
3536.98716	1.22158
3535.05860	1.22498
3533.13003	1.22961
3531.20147	1.23227
3529.27291	1.23416
3527.34434	1.23768
3525.41578	1.24119
3523.48721	1.24369
3521.55865	1.24811
3519.63008	1.25534
3517.70152	1.26269
3515.77295	1.26842
3513.84439	1.27307
3511.91583	1.27700
3509.98726	1.28005
3508.05870	1.28334
3506.13013	1.28938
3504.20157	1.29845
3502.27300	1.30505
3500.34444	1.30668
3498.41587	1.30882
3496.48731	1.31306
3494.55875	1.31724
3492.63018	1.32182
3490.70162	1.32496
3488.77305	1.32374
3486.84449	1.32223
3484.91592	1.32431
3482.98736	1.32812
3481.05879	1.33259
3479.13023	1.33770
3477.20167	1.34121
3475.27310	1.34154
3473.34454	1.34162
3471.41597	1.34627
3469.48741	1.35393
3467.55884	1.35750
3465.63028	1.35689
3463.70171	1.35796
3461.77315	1.36118
3459.84459	1.36285
3457.91602	1.36095
3455.98746	1.35848
3454.05889	1.35890
3452.13033	1.36063
3450.20176	1.36198
3448.27320	1.36368
3446.34464	1.36561
3444.41607	1.36729
3442.48751	1.36967
3440.55894	1.37344
3438.63038	1.37731
3436.70181	1.37911
3434.77325	1.37793
3432.84468	1.37487
3430.91612	1.37303
3428.98756	1.37399
3427.05899	1.37497
3425.13043	1.37435
3423.20186	1.37323
3421.27330	1.37279
3419.34473	1.37460
3417.41617	1.37652
3415.48760	1.37595
3413.55904	1.37544
3411.63048	1.37585
3409.70191	1.37561
3407.77335	1.37475
3405.84478	1.37259
3403.91622	1.37146
3401.98765	1.37330
3400.05909	1.37399
3398.13052	1.37280
3396.20196	1.37407
3394.27340	1.37942
3392.34483	1.38502
3390.41627	1.38459
3388.48770	1.37922
3386.55914	1.37760
3384.63057	1.38307
3382.70201	1.38783
3380.77344	1.38700
3378.84488	1.38502
3376.91632	1.38592
3374.98775	1.38912
3373.05919	1.38976
3371.13062	1.38710
3369.20206	1.38677
3367.27349	1.38869
3365.34493	1.38901
3363.41636	1.38847
3361.48780	1.38790
3359.55924	1.38633
3357.63067	1.38554
3355.70211	1.38831
3353.77354	1.39247
3351.84498	1.39527
3349.91641	1.39848
3347.98785	1.40102
3346.05928	1.40065
3344.13072	1.39924
3342.20216	1.39727
3340.27359	1.39499
3338.34503	1.39341
3336.41646	1.39231
3334.48790	1.39165
3332.55933	1.39297
3330.63077	1.39801
3328.70220	1.40186
3326.77364	1.40050
3324.84508	1.40055
3322.91651	1.40578
3320.98795	1.41148
3319.05938	1.41402
3317.13082	1.41356
3315.20225	1.41254
3313.27369	1.41413
3311.34513	1.41798
3309.41656	1.42226
3307.48800	1.42674
3305.55943	1.42877
3303.63087	1.42744
3301.70230	1.42644
3299.77374	1.42796
3297.84517	1.43121
3295.91661	1.43495
3293.98805	1.43652
3292.05948	1.43213
3290.13092	1.42612
3288.20235	1.42592
3286.27379	1.42805
3284.34522	1.42665
3282.41666	1.42365
3280.48809	1.42236
3278.55953	1.42099
3276.63097	1.41693
3274.70240	1.41364
3272.77384	1.41374
3270.84527	1.41352
3268.91671	1.41258
3266.98814	1.41261
3265.05958	1.41180
3263.13101	1.41057
3261.20245	1.40806
3259.27389	1.40146
3257.34532	1.39563
3255.41676	1.39635
3253.48819	1.40094
3251.55963	1.40259
3249.63106	1.39850
3247.70250	1.39115
3245.77393	1.38364
3243.84537	1.37814
3241.91681	1.37512
3239.98824	1.37128
3238.05968	1.36522
3236.13111	1.36200
3234.20255	1.36274
3232.27398	1.36192
3230.34542	1.35878
3228.41685	1.35590
3226.48829	1.35346
3224.55973	1.35210
3222.63116	1.35280
3220.70260	1.35318
3218.77403	1.34936
3216.84547	1.34371
3214.91690	1.34065
3212.98834	1.33874
3211.05977	1.33549
3209.13121	1.33110
3207.20265	1.32700
3205.27408	1.32370
3203.34552	1.31926
3201.41695	1.31375
3199.48839	1.31067
3197.55982	1.30980
3195.63126	1.30748
3193.70269	1.30424
3191.77413	1.30232
3189.84557	1.30122
3187.91700	1.29962
3185.98844	1.29652
3184.05987	1.29265
3182.13131	1.28890
3180.20274	1.28472
3178.27418	1.28167
3176.34562	1.28124
3174.41705	1.28027
3172.48849	1.27533
3170.55992	1.26844
3168.63136	1.26422
3166.70279	1.26251
3164.77423	1.25984
3162.84566	1.25714
3160.91710	1.25713
3158.98854	1.25722
3157.05997	1.25540
3155.13141	1.25433
3153.20284	1.25391
3151.27428	1.25191
3149.34571	1.24864
3147.41715	1.24549
3145.48858	1.24354
3143.56002	1.24329
3141.63146	1.24431
3139.70289	1.24527
3137.77433	1.24410
3135.84576	1.24030
3133.91720	1.23792
3131.98863	1.23920
3130.06007	1.24049
3128.13150	1.24106
3126.20294	1.24285
3124.27438	1.24509
3122.34581	1.24558
3120.41725	1.24355
3118.48868	1.24212
3116.56012	1.24299
3114.63155	1.24422
3112.70299	1.24522
3110.77442	1.24607
3108.84586	1.24610
3106.91730	1.24584
3104.98873	1.24627
3103.06017	1.24646
3101.13160	1.24534
3099.20304	1.24312
3097.27447	1.23974
3095.34591	1.23708
3093.41734	1.23756
3091.48878	1.23938
3089.56022	1.24040
3087.63165	1.24097
3085.70309	1.24038
3083.77452	1.23758
3081.84596	1.23346
3079.91739	1.22982
3077.98883	1.22812
3076.06026	1.22802
3074.13170	1.22732
3072.20314	1.22519
3070.27457	1.22289
3068.34601	1.22034
3066.41744	1.21628
3064.48888	1.21131
3062.56031	1.20802
3060.63175	1.20826
3058.70318	1.20952
3056.77462	1.20725
3054.84606	1.20227
3052.91749	1.19826
3050.98893	1.19549
3049.06036	1.19259
3047.13180	1.18895
3045.20323	1.18488
3043.27467	1.18138
3041.34610	1.17833
3039.41754	1.17543
3037.48898	1.17302
3035.56041	1.17066
3033.63185	1.16893
3031.70328	1.16824
3029.77472	1.16600
3027.84615	1.16145
3025.91759	1.15743
3023.98903	1.15467
3022.06046	1.15120
3020.13190	1.14804
3018.20333	1.14682
3016.27477	1.14499
3014.34620	1.14187
3012.41764	1.14084
3010.48907	1.14218
3008.56051	1.14270
3006.63195	1.14080
3004.70338	1.13778
3002.77482	1.13597
3000.84625	1.13670
2998.91769	1.13853
2996.98912	1.13940
2995.06056	1.13994
2993.13199	1.14183
2991.20343	1.14582
2989.27487	1.15132
2987.34630	1.15633
2985.41774	1.15973
2983.48917	1.16226
2981.56061	1.16541
2979.63204	1.17077
2977.70348	1.17805
2975.77491	1.18396
2973.84635	1.18728
2971.91779	1.19119
2969.98922	1.19706
2968.06066	1.20269
2966.13209	1.20650
2964.20353	1.20932
2962.27496	1.21112
2960.34640	1.21016
2958.41783	1.20717
2956.48927	1.20398
2954.56071	1.19972
2952.63214	1.19387
2950.70358	1.18872
2948.77501	1.18660
2946.84645	1.18776
2944.91788	1.19151
2942.98932	1.19736
2941.06075	1.20437
2939.13219	1.21056
2937.20363	1.21560
2935.27506	1.22220
2933.34650	1.23108
2931.41793	1.23909
2929.48937	1.24514
2927.56080	1.25179
2925.63224	1.26026
2923.70367	1.26782
2921.77511	1.27156
2919.84655	1.27132
2917.91798	1.26675
2915.98942	1.25683
2914.06085	1.24190
2912.13229	1.22474
2910.20372	1.20998
2908.27516	1.19923
2906.34659	1.19027
2904.41803	1.18281
2902.48947	1.17782
2900.56090	1.17483
2898.63234	1.17395
2896.70377	1.17407
2894.77521	1.17269
2892.84664	1.17019
2890.91808	1.16698
2888.98952	1.16189
2887.06095	1.15631
2885.13239	1.15237
2883.20382	1.14983
2881.27526	1.14767
2879.34669	1.14615
2877.41813	1.14557
2875.48956	1.14487
2873.56100	1.14318
2871.63244	1.14008
2869.70387	1.13532
2867.77531	1.13023
2865.84674	1.12675
2863.91818	1.12511
2861.98961	1.12437
2860.06105	1.12490
2858.13248	1.12874
2856.20392	1.13521
2854.27536	1.14102
2852.34679	1.14502
2850.41823	1.14469
2848.48966	1.13545
2846.56110	1.11919
2844.63253	1.10245
2842.70397	1.08847
2840.77540	1.07685
2838.84684	1.06683
2836.91828	1.05888
2834.98971	1.05349
2833.06115	1.04945
2831.13258	1.04509
2829.20402	1.04046
2827.27545	1.03638
2825.34689	1.03274
2823.41832	1.02886
2821.48976	1.02460
2819.56120	1.02077
2817.63263	1.01775
2815.70407	1.01510
2813.77550	1.01236
2811.84694	1.00967
2809.91837	1.00775
2807.98981	1.00626
2806.06124	1.00403
2804.13268	1.00086
2802.20412	0.99773
2800.27555	0.99565
2798.34699	0.99448
2796.41842	0.99326
2794.48986	0.99194
2792.56129	0.99142
2790.63273	0.99116
2788.70416	0.99007
2786.77560	0.98861
2784.84704	0.98747
2782.91847	0.98669
2780.98991	0.98583
2779.06134	0.98456
2777.13278	0.98348
2775.20421	0.98254
2773.27565	0.98075
2771.34708	0.97834
2769.41852	0.97621
2767.48996	0.97440
2765.56139	0.97285
2763.63283	0.97145
2761.70426	0.96934
2759.77570	0.96647
2757.84713	0.96401
2755.91857	0.96200
2753.99001	0.95944
2752.06144	0.95655
2750.13288	0.95415
2748.20431	0.95269
2746.27575	0.95174
2744.34718	0.94980
2742.41862	0.94715
2740.49005	0.94577
2738.56149	0.94581
2736.63293	0.94583
2734.70436	0.94476
2732.77580	0.94282
2730.84723	0.94118
2728.91867	0.94048
2726.99010	0.94017
2725.06154	0.93948
2723.13297	0.93844
2721.20441	0.93731
2719.27585	0.93592
2717.34728	0.93408
2715.41872	0.93199
2713.49015	0.93001
2711.56159	0.92820
2709.63302	0.92674
2707.70446	0.92600
2705.77589	0.92537
2703.84733	0.92411
2701.91877	0.92282
2699.99020	0.92174
2698.06164	0.92015
2696.13307	0.91812
2694.20451	0.91631
2692.27594	0.91483
2690.34738	0.91350
2688.41881	0.91238
2686.49025	0.91121
2684.56169	0.90969
2682.63312	0.90805
2680.70456	0.90636
2678.77599	0.90481
2676.84743	0.90431
2674.91886	0.90464
2672.99030	0.90428
2671.06173	0.90276
2669.13317	0.90099
2667.20461	0.89990
2665.27604	0.89932
2663.34748	0.89830
2661.41891	0.89714
2659.49035	0.89657
2657.56178	0.89607
2655.63322	0.89516
2653.70465	0.89411
2651.77609	0.89349
2649.84753	0.89353
2647.91896	0.89330
2645.99040	0.89207
2644.06183	0.89079
2642.13327	0.89073
2640.20470	0.89160
2638.27614	0.89233
2636.34757	0.89273
2634.41901	0.89273
2632.49045	0.89190
2630.56188	0.89057
2628.63332	0.88947
2626.70475	0.88878
2624.77619	0.88814
2622.84762	0.88724
2620.91906	0.88619
2618.99049	0.88545
2617.06193	0.88498
2615.13337	0.88443
2613.20480	0.88385
2611.27624	0.88299
2609.34767	0.88154
2607.41911	0.88010
2605.49054	0.87890
2603.56198	0.87726
2601.63342	0.87515
2599.70485	0.87366
2597.77629	0.87304
2595.84772	0.87225
2593.91916	0.87128
2591.99059	0.87073
2590.06203	0.86977
2588.13346	0.86800
2586.20490	0.86678
2584.27634	0.86674
2582.34777	0.86675
2580.41921	0.86601
2578.49064	0.86485
2576.56208	0.86357
2574.63351	0.86254
2572.70495	0.86242
2570.77638	0.86278
2568.84782	0.86211
2566.91926	0.86030
2564.99069	0.85861
2563.06213	0.85728
2561.13356	0.85575
2559.20500	0.85412
2557.27643	0.85285
2555.34787	0.85219
2553.41930	0.85158
2551.49074	0.85036
2549.56218	0.84884
2547.63361	0.84755
2545.70505	0.84661
2543.77648	0.84580
2541.84792	0.84468
2539.91935	0.84346
2537.99079	0.84243
2536.06222	0.84126
2534.13366	0.83983
2532.20510	0.83847
2530.27653	0.83745
2528.34797	0.83671
2526.41940	0.83600
2524.49084	0.83525
2522.56227	0.83426
2520.63371	0.83285
2518.70514	0.83138
2516.77658	0.83054
2514.84802	0.83048
2512.91945	0.83001
2510.99089	0.82826
2509.06232	0.82645
2507.13376	0.82550
2505.20519	0.82456
2503.27663	0.82314
2501.34806	0.82197
2499.41950	0.82150
2497.49094	0.82118
2495.56237	0.82060
2493.63381	0.82004
2491.70524	0.81943
2489.77668	0.81824
2487.84811	0.81679
2485.91955	0.81592
2483.99098	0.81566
2482.06242	0.81542
2480.13386	0.81505
2478.20529	0.81463
2476.27673	0.81403
2474.34816	0.81313
2472.41960	0.81205
2470.49103	0.81107
2468.56247	0.81027
2466.63391	0.80930
2464.70534	0.80805
2462.77678	0.80689
2460.84821	0.80591
2458.91965	0.80466
2456.99108	0.80285
2455.06252	0.80084
2453.13395	0.79913
2451.20539	0.79794
2449.27683	0.79711
2447.34826	0.79612
2445.41970	0.79475
2443.49113	0.79322
2441.56257	0.79183
2439.63400	0.79087
2437.70544	0.79030
2435.77687	0.78984
2433.84831	0.78946
2431.91975	0.78914
2429.99118	0.78867
2428.06262	0.78813
2426.13405	0.78762
2424.20549	0.78700
2422.27692	0.78629
2420.34836	0.78575
2418.41979	0.78530
2416.49123	0.78456
2414.56267	0.78357
2412.63410	0.78256
2410.70554	0.78166
2408.77697	0.78088
2406.84841	0.78003
2404.91984	0.77883
2402.99128	0.77737
2401.06271	0.77592
2399.13415	0.77466
2397.20559	0.77380
2395.27702	0.77293
2393.34846	0.77167
2391.41989	0.77044
2389.49133	0.76946
2387.56276	0.76872
2385.63420	0.76827
2383.70563	0.76770
2381.77707	0.76664
2379.84851	0.76569
2377.91994	0.76543
2375.99138	0.76546
2374.06281	0.76497
2372.13425	0.76347
2370.20568	0.76202
2368.27712	0.76271
2366.34855	0.76427
2364.41999	0.76450
2362.49143	0.76545
2360.56286	0.76686
2358.63430	0.76596
2356.70573	0.76342
2354.77717	0.76030
2352.84860	0.75796
2350.92004	0.75694
2348.99147	0.75617
2347.06291	0.75536
2345.13435	0.75472
2343.20578	0.75429
2341.27722	0.75458
2339.34865	0.75462
2337.42009	0.75333
2335.49152	0.75144
2333.56296	0.74908
2331.63440	0.74691
2329.70583	0.74638
2327.77727	0.74728
2325.84870	0.74823
2323.92014	0.74796
2321.99157	0.74701
2320.06301	0.74665
2318.13444	0.74635
2316.20588	0.74581
2314.27732	0.74530
2312.34875	0.74453
2310.42019	0.74370
2308.49162	0.74308
2306.56306	0.74226
2304.63449	0.74128
2302.70593	0.74046
2300.77736	0.73962
2298.84880	0.73859
2296.92024	0.73729
2294.99167	0.73540
2293.06311	0.73328
2291.13454	0.73161
2289.20598	0.73017
2287.27741	0.72871
2285.34885	0.72739
2283.42028	0.72603
2281.49172	0.72458
2279.56316	0.72340
2277.63459	0.72237
2275.70603	0.72130
2273.77746	0.72033
2271.84890	0.71930
2269.92033	0.71831
2267.99177	0.71780
2266.06320	0.71735
2264.13464	0.71655
2262.20608	0.71580
2260.27751	0.71520
2258.34895	0.71466
2256.42038	0.71426
2254.49182	0.71394
2252.56325	0.71340
2250.63469	0.71262
2248.70612	0.71208
2246.77756	0.71201
2244.84900	0.71182
2242.92043	0.71108
2240.99187	0.71000
2239.06330	0.70899
2237.13474	0.70826
2235.20617	0.70756
2233.27761	0.70667
2231.34904	0.70589
2229.42048	0.70552
2227.49192	0.70540
2225.56335	0.70530
2223.63479	0.70517
2221.70622	0.70501
2219.77766	0.70477
2217.84909	0.70452
2215.92053	0.70452
2213.99196	0.70481
2212.06340	0.70522
2210.13484	0.70558
2208.20627	0.70585
2206.27771	0.70613
2204.34914	0.70653
2202.42058	0.70706
2200.49201	0.70764
2198.56345	0.70799
2196.63488	0.70793
2194.70632	0.70765
2192.77776	0.70734
2190.84919	0.70692
2188.92063	0.70640
2186.99206	0.70594
2185.06350	0.70551
2183.13493	0.70485
2181.20637	0.70396
2179.27781	0.70322
2177.34924	0.70267
2175.42068	0.70199
2173.49211	0.70125
2171.56355	0.70081
2169.63498	0.70063
2167.70642	0.70033
2165.77785	0.69979
2163.84929	0.69921
2161.92073	0.69885
2159.99216	0.69876
2158.06360	0.69880
2156.13503	0.69879
2154.20647	0.69869
2152.27790	0.69853
2150.34934	0.69820
2148.42077	0.69787
2146.49221	0.69792
2144.56365	0.69823
2142.63508	0.69837
2140.70652	0.69818
2138.77795	0.69759
2136.84939	0.69670
2134.92082	0.69599
2132.99226	0.69564
2131.06369	0.69539
2129.13513	0.69500
2127.20657	0.69427
2125.27800	0.69333
2123.34944	0.69259
2121.42087	0.69210
2119.49231	0.69152
2117.56374	0.69060
2115.63518	0.68958
2113.70661	0.68875
2111.77805	0.68794
2109.84949	0.68702
2107.92092	0.68626
2105.99236	0.68589
2104.06379	0.68581
2102.13523	0.68569
2100.20666	0.68540
2098.27810	0.68519
2096.34953	0.68512
2094.42097	0.68499
2092.49241	0.68471
2090.56384	0.68447
2088.63528	0.68440
2086.70671	0.68429
2084.77815	0.68417
2082.84958	0.68418
2080.92102	0.68393
2078.99245	0.68329
2077.06389	0.68282
2075.13533	0.68262
2073.20676	0.68235
2071.27820	0.68216
2069.34963	0.68221
2067.42107	0.68208
2065.49250	0.68166
2063.56394	0.68151
2061.63537	0.68164
2059.70681	0.68139
2057.77825	0.68067
2055.84968	0.67999
2053.92112	0.67949
2051.99255	0.67900
2050.06399	0.67861
2048.13542	0.67836
2046.20686	0.67790
2044.27830	0.67735
2042.34973	0.67708
2040.42117	0.67682
2038.49260	0.67623
2036.56404	0.67554
2034.63547	0.67494
2032.70691	0.67434
2030.77834	0.67371
2028.84978	0.67313
2026.92122	0.67266
2024.99265	0.67228
2023.06409	0.67194
2021.13552	0.67154
2019.20696	0.67103
2017.27839	0.67056
2015.34983	0.67010
2013.42126	0.66943
2011.49270	0.66865
2009.56414	0.66801
2007.63557	0.66754
2005.70701	0.66707
2003.77844	0.66641
2001.84988	0.66594
1999.92131	0.66605
1997.99275	0.66629
1996.06418	0.66623
1994.13562	0.66607
1992.20706	0.66607
1990.27849	0.66618
1988.34993	0.66627
1986.42136	0.66637
1984.49280	0.66666
1982.56423	0.66727
1980.63567	0.66795
1978.70710	0.66845
1976.77854	0.66859
1974.84998	0.66834
1972.92141	0.66790
1970.99285	0.66760
1969.06428	0.66751
1967.13572	0.66754
1965.20715	0.66754
1963.27859	0.66728
1961.35002	0.66667
1959.42146	0.66577
1957.49290	0.66477
1955.56433	0.66384
1953.63577	0.66297
1951.70720	0.66205
1949.77864	0.66110
1947.85007	0.66015
1945.92151	0.65920
1943.99294	0.65845
1942.06438	0.65827
1940.13582	0.65834
1938.20725	0.65820
1936.27869	0.65799
1934.35012	0.65796
1932.42156	0.65808
1930.49299	0.65828
1928.56443	0.65862
1926.63586	0.65911
1924.70730	0.65981
1922.77874	0.66065
1920.85017	0.66110
1918.92161	0.66142
1916.99304	0.66208
1915.06448	0.66258
1913.13591	0.66286
1911.20735	0.66319
1909.27878	0.66329
1907.35022	0.66306
1905.42166	0.66275
1903.49309	0.66239
1901.56453	0.66200
1899.63596	0.66170
1897.70740	0.66123
1895.77883	0.66038
1893.85027	0.65926
1891.92171	0.65811
1889.99314	0.65729
1888.06458	0.65673
1886.13601	0.65601
1884.20745	0.65520
1882.27888	0.65451
1880.35032	0.65386
1878.42175	0.65333
1876.49319	0.65297
1874.56463	0.65248
1872.63606	0.65182
1870.70750	0.65156
1868.77893	0.65221
1866.85037	0.65294
1864.92180	0.65297
1862.99324	0.65293
1861.06467	0.65321
1859.13611	0.65361
1857.20755	0.65396
1855.27898	0.65433
1853.35042	0.65463
1851.42185	0.65461
1849.49329	0.65429
1847.56472	0.65383
1845.63616	0.65365
1843.70759	0.65388
1841.77903	0.65373
1839.85047	0.65312
1837.92190	0.65250
1835.99334	0.65178
1834.06477	0.65083
1832.13621	0.65010
1830.20764	0.64995
1828.27908	0.64988
1826.35051	0.64922
1824.42195	0.64845
1822.49339	0.64790
1820.56482	0.64736
1818.63626	0.64705
1816.70769	0.64704
1814.77913	0.64700
1812.85056	0.64701
1810.92200	0.64751
1808.99343	0.64803
1807.06487	0.64815
1805.13631	0.64836
1803.20774	0.64891
1801.27918	0.64996
1799.35061	0.65114
1797.42205	0.65172
1795.49348	0.65202
1793.56492	0.65290
1791.63635	0.65461
1789.70779	0.65557
1787.77923	0.65565
1785.85066	0.65593
1783.92210	0.65658
1781.99353	0.65706
1780.06497	0.65725
1778.13640	0.65719
1776.20784	0.65663
1774.27927	0.65596
1772.35071	0.65600
1770.42215	0.65617
1768.49358	0.65576
1766.56502	0.65525
1764.63645	0.65495
1762.70789	0.65492
1760.77932	0.65516
1758.85076	0.65554
1756.92220	0.65653
1754.99363	0.65793
1753.06507	0.65939
1751.13650	0.66220
1749.20794	0.66708
1747.27937	0.67225
1745.35081	0.67705
1743.42224	0.68160
1741.49368	0.68579
1739.56512	0.69009
1737.63655	0.69383
1735.70799	0.69718
1733.77942	0.70227
1731.85086	0.70637
1729.92229	0.70888
1727.99373	0.71167
1726.06516	0.71477
1724.13660	0.71873
1722.20804	0.72270
1720.27947	0.72595
1718.35091	0.73120
1716.42234	0.74163
1714.49378	0.75175
1712.56521	0.76057
1710.63665	0.77069
1708.70808	0.78274
1706.77952	0.80078
1704.85096	0.82563
1702.92239	0.84854
1700.99383	0.87895
1699.06526	0.92527
1697.13670	0.96725
1695.20813	1.00616
1693.27957	1.03383
1691.35100	1.05470
1689.42244	1.07859
1687.49388	1.09988
1685.56531	1.12157
1683.63675	1.15504
1681.70818	1.17725
1679.77962	1.18864
1677.85105	1.19977
1675.92249	1.21317
1673.99392	1.22623
1672.06536	1.23609
1670.13680	1.24788
1668.20823	1.25947
1666.27967	1.26423
1664.35110	1.26771
1662.42254	1.27382
1660.49397	1.28026
1658.56541	1.28455
1656.63684	1.28645
1654.70828	1.28813
1652.77972	1.29306
1650.85115	1.29429
1648.92259	1.29288
1646.99402	1.29391
1645.06546	1.29467
1643.13689	1.29198
1641.20833	1.28981
1639.27976	1.28872
1637.35120	1.28807
1635.42264	1.28926
1633.49407	1.28974
1631.56551	1.28803
1629.63694	1.28511
1627.70838	1.28194
1625.77981	1.27819
1623.85125	1.27243
1621.92269	1.26492
1619.99412	1.25752
1618.06556	1.24781
1616.13699	1.23255
1614.20843	1.21902
1612.27986	1.20872
1610.35130	1.19844
1608.42273	1.18777
1606.49417	1.17860
1604.56561	1.17145
1602.63704	1.16544
1600.70848	1.16056
1598.77991	1.15644
1596.85135	1.15285
1594.92278	1.14978
1592.99422	1.14718
1591.06565	1.14543
1589.13709	1.14476
1587.20853	1.14537
1585.27996	1.14742
1583.35140	1.15106
1581.42283	1.15566
1579.49427	1.16031
1577.56570	1.16752
1575.63714	1.18027
1573.70857	1.18921
1571.78001	1.19436
1569.85145	1.20348
1567.92288	1.21454
1565.99432	1.22124
1564.06575	1.22645
1562.13719	1.23185
1560.20862	1.24032
1558.28006	1.25407
1556.35149	1.25844
1554.42293	1.25950
1552.49437	1.25990
1550.56580	1.25927
1548.63724	1.25807
1546.70867	1.25702
1544.78011	1.25705
1542.85154	1.25898
1540.92298	1.25831
1538.99441	1.25050
1537.06585	1.24594
1535.13729	1.24361
1533.20872	1.24195
1531.28016	1.24030
1529.35159	1.23729
1527.42303	1.23231
1525.49446	1.22664
1523.56590	1.22298
1521.63733	1.22222
1519.70877	1.22208
1517.78021	1.21838
1515.85164	1.21195
1513.92308	1.20540
1511.99451	1.19808
1510.06595	1.19005
1508.13738	1.17809
1506.20882	1.15620
1504.28025	1.14228
1502.35169	1.13280
1500.42313	1.12279
1498.49456	1.11161
1496.56600	1.09916
1494.63743	1.08924
1492.70887	1.08241
1490.78030	1.07541
1488.85174	1.06735
1486.92317	1.06093
1484.99461	1.05622
1483.06605	1.05288
1481.13748	1.05092
1479.20892	1.05023
1477.28035	1.05113
1475.35179	1.05459
1473.42322	1.06142
1471.49466	1.06794
1469.56610	1.07094
1467.63753	1.07305
1465.70897	1.07651
1463.78040	1.08132
1461.85184	1.08455
1459.92327	1.08632
1457.99471	1.09063
1456.06614	1.09790
1454.13758	1.10071
1452.20902	1.10184
1450.28045	1.10350
1448.35189	1.10574
1446.42332	1.10741
1444.49476	1.10760
1442.56619	1.10686
1440.63763	1.10574
1438.70906	1.10420
1436.78050	1.10180
1434.85194	1.09878
1432.92337	1.09533
1430.99481	1.09045
1429.06624	1.08428
1427.13768	1.07879
1425.20911	1.07408
1423.28055	1.06962
1421.35198	1.06625
1419.42342	1.06427
1417.49486	1.06205
1415.56629	1.05852
1413.63773	1.05429
1411.70916	1.04980
1409.78060	1.04575
1407.85203	1.04281
1405.92347	1.04084
1403.99490	1.03899
1402.06634	1.03704
1400.13778	1.03587
1398.20921	1.03617
1396.28065	1.03742
1394.35208	1.03887
1392.42352	1.04090
1390.49495	1.04488
1388.56639	1.05273
1386.63782	1.06476
1384.70926	1.07703
1382.78070	1.08805
1380.85213	1.09749
1378.92357	1.10336
1376.99500	1.10528
1375.06644	1.10320
1373.13787	1.09630
1371.20931	1.08663
1369.28074	1.07504
1367.35218	1.06188
1365.42362	1.04842
1363.49505	1.03300
1361.56649	1.01691
1359.63792	1.00464
1357.70936	0.99513
1355.78079	0.98657
1353.85223	0.97870
1351.92366	0.97187
1349.99510	0.96642
1348.06654	0.96237
1346.13797	0.95953
1344.20941	0.95756
1342.28084	0.95649
1340.35228	0.95733
1338.42371	0.96065
1336.49515	0.96571
1334.56659	0.97273
1332.63802	0.98197
1330.70946	0.99227
1328.78089	1.00169
1326.85233	1.00896
1324.92376	1.01396
1322.99520	1.01731
1321.06663	1.02011
1319.13807	1.02364
1317.20951	1.02759
1315.28094	1.03039
1313.35238	1.03218
1311.42381	1.03375
1309.49525	1.03472
1307.56668	1.03425
1305.63812	1.03221
1303.70955	1.02939
1301.78099	1.02611
1299.85243	1.02212
1297.92386	1.01733
1295.99530	1.01224
1294.06673	1.00789
1292.13817	1.00516
1290.20960	1.00404
1288.28104	1.00400
1286.35247	1.00453
1284.42391	1.00508
1282.49535	1.00539
1280.56678	1.00571
1278.63822	1.00649
1276.70965	1.00808
1274.78109	1.01078
1272.85252	1.01499
1270.92396	1.02061
1268.99539	1.02682
1267.06683	1.03309
1265.13827	1.03863
1263.20970	1.04229
1261.28114	1.04379
1259.35257	1.04387
1257.42401	1.04347
1255.49544	1.04298
1253.56688	1.04231
1251.63831	1.04145
1249.70975	1.04040
1247.78119	1.03933
1245.85262	1.03808
1243.92406	1.03624
1241.99549	1.03422
1240.06693	1.03225
1238.13836	1.02981
1236.20980	1.02673
1234.28123	1.02273
1232.35267	1.01753
1230.42411	1.01168
1228.49554	1.00567
1226.56698	0.99900
1224.63841	0.99114
1222.70985	0.98282
1220.78128	0.97500
1218.85272	0.96761
1216.92415	0.96071
1214.99559	0.95526
1213.06703	0.95243
1211.13846	0.95295
1209.20990	0.95571
1207.28133	0.95779
1205.35277	0.95702
1203.42420	0.95306
1201.49564	0.94670
1199.56708	0.93909
1197.63851	0.93085
1195.70995	0.92223
1193.78138	0.91402
1191.85282	0.90729
1189.92425	0.90244
1187.99569	0.89910
1186.06712	0.89691
1184.13856	0.89572
1182.21000	0.89570
1180.28143	0.89713
1178.35287	0.89990
1176.42430	0.90398
1174.49574	0.90909
1172.56717	0.91447
1170.63861	0.92017
1168.71004	0.92722
1166.78148	0.93564
1164.85292	0.94425
1162.92435	0.95172
1160.99579	0.95655
1159.06722	0.95791
1157.13866	0.95616
1155.21009	0.95141
1153.28153	0.94380
1151.35296	0.93427
1149.42440	0.92393
1147.49584	0.91418
1145.56727	0.90637
1143.63871	0.90110
1141.71014	0.89918
1139.78158	0.90127
1137.85301	0.90697
1135.92445	0.91560
1133.99588	0.92695
1132.06732	0.94129
1130.13876	0.95868
1128.21019	0.97821
1126.28163	0.99737
1124.35306	1.01296
1122.42450	1.02408
1120.49593	1.03147
1118.56737	1.03511
1116.63880	1.03533
1114.71024	1.03328
1112.78168	1.02905
1110.85311	1.02161
1108.92455	1.01128
1106.99598	1.00008
1105.06742	0.98980
1103.13885	0.98114
1101.21029	0.97448
1099.28172	0.97051
1097.35316	0.96996
1095.42460	0.97307
1093.49603	0.97928
1091.56747	0.98776
1089.63890	0.99792
1087.71034	1.00951
1085.78177	1.02215
1083.85321	1.03441
1081.92464	1.04499
1079.99608	1.05334
1078.06752	1.05867
1076.13895	1.06072
1074.21039	1.06082
1072.28182	1.06048
1070.35326	1.05986
1068.42469	1.05924
1066.49613	1.05920
1064.56756	1.05870
1062.63900	1.05586
1060.71044	1.05007
1058.78187	1.04195
1056.85331	1.03247
1054.92474	1.02253
1052.99618	1.01296
1051.06761	1.00503
1049.13905	0.99996
1047.21049	0.99780
1045.28192	0.99818
1043.35336	1.00106
1041.42479	1.00595
1039.49623	1.01155
1037.56766	1.01616
1035.63910	1.01882
1033.71053	1.01988
1031.78197	1.01938
1029.85341	1.01647
1027.92484	1.01102
1025.99628	1.00435
1024.06771	0.99803
1022.13915	0.99320
1020.21058	0.99084
1018.28202	0.99098
1016.35345	0.99163
1014.42489	0.98934
1012.49633	0.98173
1010.56776	0.96875
1008.63920	0.95139
1006.71063	0.93084
1004.78207	0.90883
1002.85350	0.88751
1000.92494	0.86866
998.99637	0.85253
997.06781	0.83846
995.13925	0.82561
993.21068	0.81253
991.28212	0.79854
989.35355	0.78440
987.42499	0.77089
985.49642	0.75879
983.56786	0.74933
981.63929	0.74296
979.71073	0.73914
977.78217	0.73729
975.85360	0.73649
973.92504	0.73521
971.99647	0.73245
970.06791	0.72843
968.13934	0.72397
966.21078	0.72040
964.28221	0.71940
962.35365	0.72313
960.42509	0.73374
958.49652	0.75081
956.56796	0.76953
954.63939	0.78261
952.71083	0.78512
950.78226	0.77749
948.85370	0.76434
946.92513	0.75032
944.99657	0.73742
943.06801	0.72618
941.13944	0.71643
939.21088	0.70712
937.28231	0.69789
935.35375	0.68940
933.42518	0.68206
931.49662	0.67573
929.56805	0.67019
927.63949	0.66563
925.71093	0.66275
923.78236	0.66178
921.85380	0.66151
919.92523	0.66054
917.99667	0.65888
916.06810	0.65777
914.13954	0.65811
912.21098	0.66015
910.28241	0.66400
908.35385	0.66991
906.42528	0.67772
904.49672	0.68652
902.56815	0.69503
900.63959	0.70194
898.71102	0.70640
896.78246	0.70821
894.85390	0.70773
892.92533	0.70541
890.99677	0.70152
889.06820	0.69643
887.13964	0.69104
885.21107	0.68612
883.28251	0.68184
881.35394	0.67817
879.42538	0.67528
877.49682	0.67319
875.56825	0.67185
873.63969	0.67143
871.71112	0.67194
869.78256	0.67313
867.85399	0.67522
865.92543	0.67875
863.99686	0.68347
862.06830	0.68880
860.13974	0.69472
858.21117	0.70152
856.28261	0.70929
854.35404	0.71740
852.42548	0.72456
850.49691	0.73027
848.56835	0.73511
846.63978	0.73947
844.71122	0.74318
842.78266	0.74597
840.85409	0.74795
838.92553	0.74947
836.99696	0.75043
835.06840	0.75046
833.13983	0.74932
831.21127	0.74742
829.28270	0.74570
827.35414	0.74410
825.42558	0.74225
823.49701	0.74074
821.56845	0.74014
819.63988	0.74040
817.71132	0.74148
815.78275	0.74364
813.85419	0.74677
811.92562	0.75051
809.99706	0.75516
808.06850	0.76120
806.13993	0.76831
804.21137	0.77601
802.28280	0.78452
800.35424	0.79408
798.42567	0.80405
796.49711	0.81316
794.56854	0.82121
792.63998	0.82867
790.71142	0.83553
788.78285	0.84180
786.85429	0.84664
784.92572	0.84884
782.99716	0.84913
781.06859	0.84864
779.14003	0.84709
777.21147	0.84367
775.28290	0.83824
773.35434	0.83217
771.42577	0.82665
769.49721	0.82134
767.56864	0.81614
765.64008	0.81153
763.71151	0.80762
761.78295	0.80459
759.85439	0.80290
757.92582	0.80298
755.99726	0.80498
754.06869	0.80885
752.14013	0.81408
750.21156	0.82031
748.28300	0.82754
746.35443	0.83570
744.42587	0.84521
742.49731	0.85596
740.56874	0.86730
738.64018	0.87887
736.71161	0.89017
734.78305	0.90097
732.85448	0.91125
730.92592	0.92060
728.99735	0.92845
727.06879	0.93474
725.14023	0.93932
723.21166	0.94141
721.28310	0.94182
719.35453	0.94126
717.42597	0.93861
715.49740	0.93357
713.56884	0.92747
711.64027	0.92217
709.71171	0.91789
707.78315	0.91314
705.85458	0.90826
703.92602	0.90482
701.99745	0.90237
700.06889	0.89988
698.14032	0.89796
696.21176	0.89813
694.28319	0.90104
692.35463	0.90548
690.42607	0.91035
688.49750	0.91659
686.56894	0.92495
684.64037	0.93373
682.71181	0.94170
680.78324	0.94974
678.85468	0.95813
676.92611	0.96591
674.99755	0.97263
673.06899	0.97757
671.14042	0.97960
669.21186	0.97899
667.28329	0.97744
665.35473	0.97509
663.42616	0.96989
661.49760	0.96150
659.56903	0.95150
657.64047	0.94087
655.71191	0.93016
653.78334	0.91951
651.85478	0.90896
649.92621	0.89922
647.99765	0.89019
646.06908	0.88263
644.14052	0.87915
642.21195	0.88028
640.28339	0.88412
638.35483	0.88973
636.42626	0.89618
634.49770	0.90174
632.56913	0.90725
630.64057	0.91593
628.71200	0.92756
626.78344	0.93934
624.85488	0.95157
622.92631	0.96434
620.99775	0.97502
619.06918	0.98402
617.14062	0.99316
615.21205	1.00028
613.28349	1.00520
611.35492	1.01025
609.42636	1.01387
607.49780	1.01276
605.56923	1.00525
603.64067	0.99278
601.71210	0.97934
599.78354	0.96705
