3997.91406	0.53536
3995.98550	0.53410
3994.05693	0.53405
3992.12837	0.53438
3990.19980	0.53395
3988.27124	0.53319
3986.34268	0.53250
3984.41411	0.53214
3982.48555	0.53235
3980.55698	0.53246
3978.62842	0.53198
3976.69985	0.53166
3974.77129	0.53187
3972.84272	0.53172
3970.91416	0.53132
3968.98560	0.53180
3967.05703	0.53271
3965.12847	0.53228
3963.19990	0.53093
3961.27134	0.53059
3959.34277	0.53098
3957.41421	0.53146
3955.48564	0.53168
3953.55708	0.53045
3951.62852	0.52869
3949.69995	0.52899
3947.77139	0.53040
3945.84282	0.53022
3943.91426	0.53038
3941.98569	0.53173
3940.05713	0.53129
3938.12856	0.52944
3936.20000	0.52751
3934.27144	0.52644
3932.34287	0.52768
3930.41431	0.52932
3928.48574	0.52840
3926.55718	0.52721
3924.62861	0.52836
3922.70005	0.52878
3920.77148	0.52685
3918.84292	0.52642
3916.91436	0.52854
3914.98579	0.52902
3913.05723	0.52723
3911.12866	0.52538
3909.20010	0.52302
3907.27153	0.51994
3905.34297	0.51946
3903.41440	0.52305
3901.48584	0.52622
3899.55728	0.52763
3897.62871	0.52634
3895.70015	0.52172
3893.77158	0.51834
3891.84302	0.52109
3889.91445	0.52216
3887.98589	0.51773
3886.05733	0.51650
3884.12876	0.51825
3882.20020	0.51758
3880.27163	0.51879
3878.34307	0.51792
3876.41450	0.51337
3874.48594	0.51020
3872.55737	0.50859
3870.62881	0.51023
3868.70025	0.51337
3866.77168	0.51128
3864.84312	0.51001
3862.91455	0.51291
3860.98599	0.51272
3859.05742	0.50840
3857.12886	0.50242
3855.20029	0.50037
3853.27173	0.51272
3851.34317	0.51978
3849.41460	0.51531
3847.48604	0.50968
3845.55747	0.50604
3843.62891	0.50530
3841.70034	0.50555
3839.77178	0.50634
3837.84321	0.51024
3835.91465	0.51254
3833.98609	0.51136
3832.05752	0.51029
3830.12896	0.50930
3828.20039	0.50773
3826.27183	0.50579
3824.34326	0.50148
3822.41470	0.49982
3820.48613	0.50728
3818.55757	0.51019
3816.62901	0.51001
3814.70044	0.51165
3812.77188	0.50927
3810.84331	0.50385
3808.91475	0.50003
3806.98618	0.50127
3805.05762	0.50125
3803.12905	0.49903
3801.20049	0.50289
3799.27193	0.50612
3797.34336	0.50629
3795.41480	0.50653
3793.48623	0.50439
3791.55767	0.50163
3789.62910	0.50022
3787.70054	0.49931
3785.77197	0.49938
3783.84341	0.50023
3781.91485	0.50047
3779.98628	0.50197
3778.05772	0.50367
3776.12915	0.50260
3774.20059	0.50020
3772.27202	0.49824
3770.34346	0.49867
3768.41489	0.50067
3766.48633	0.50194
3764.55777	0.50161
3762.62920	0.49835
3760.70064	0.49589
3758.77207	0.49781
3756.84351	0.49824
3754.91494	0.49428
3752.98638	0.49049
3751.05781	0.49430
3749.12925	0.49893
3747.20069	0.49674
3745.27212	0.49735
3743.34356	0.50013
3741.41499	0.49651
3739.48643	0.49050
3737.55786	0.48767
3735.62930	0.49237
3733.70074	0.49996
3731.77217	0.50068
3729.84361	0.49628
3727.91504	0.49244
3725.98648	0.49257
3724.05791	0.49461
3722.12935	0.49618
3720.20078	0.49723
3718.27222	0.49634
3716.34366	0.49311
3714.41509	0.48904
3712.48653	0.48899
3710.55796	0.49504
3708.62940	0.49686
3706.70083	0.49406
3704.77227	0.49091
3702.84370	0.49077
3700.91514	0.49350
3698.98658	0.49394
3697.05801	0.49235
3695.12945	0.49044
3693.20088	0.48754
3691.27232	0.48673
3689.34375	0.49494
3687.41519	0.50192
3685.48662	0.50102
3683.55806	0.49872
3681.62950	0.49797
3679.70093	0.49795
3677.77237	0.49873
3675.84380	0.50640
3673.91524	0.51209
3671.98667	0.50992
3670.05811	0.51384
3668.12954	0.52001
3666.20098	0.51985
3664.27242	0.51981
3662.34385	0.52217
3660.41529	0.52407
3658.48672	0.52548
3656.55816	0.53015
3654.62959	0.53280
3652.70103	0.52881
3650.77246	0.52773
3648.84390	0.54410
3646.91534	0.55710
3644.98677	0.55765
3643.05821	0.55742
3641.12964	0.56031
3639.20108	0.56401
3637.27251	0.56634
3635.34395	0.56868
3633.41538	0.57117
3631.48682	0.57297
3629.55826	0.58198
3627.62969	0.59698
3625.70113	0.60081
3623.77256	0.59944
3621.84400	0.59915
3619.91543	0.60493
3617.98687	0.61426
3616.05830	0.61911
3614.12974	0.62453
3612.20118	0.63117
3610.27261	0.63478
3608.34405	0.64000
3606.41548	0.64703
3604.48692	0.65034
3602.55835	0.65234
3600.62979	0.65635
3598.70123	0.66090
3596.77266	0.66543
3594.84410	0.67188
3592.91553	0.67765
3590.98697	0.67986
3589.05840	0.68364
3587.12984	0.69438
3585.20127	0.70317
3583.27271	0.70663
3581.34415	0.70985
3579.41558	0.71480
3577.48702	0.72072
3575.55845	0.72689
3573.62989	0.73254
3571.70132	0.73614
3569.77276	0.73802
3567.84419	0.74366
3565.91563	0.75546
3563.98707	0.76391
3562.05850	0.76966
3560.12994	0.77668
3558.20137	0.78452
3556.27281	0.79177
3554.34424	0.79849
3552.41568	0.80498
3550.48711	0.81030
3548.55855	0.81570
3546.62999	0.82417
3544.70142	0.83379
3542.77286	0.83983
3540.84429	0.84363
3538.91573	0.84827
3536.98716	0.85430
3535.05860	0.86097
3533.13003	0.86760
3531.20147	0.87417
3529.27291	0.88163
3527.34434	0.89002
3525.41578	0.89835
3523.48721	0.90717
3521.55865	0.91626
3519.63008	0.92421
3517.70152	0.93180
3515.77295	0.93977
3513.84439	0.94704
3511.91583	0.95328
3509.98726	0.96159
3508.05870	0.97297
3506.13013	0.98409
3504.20157	0.99522
3502.27300	1.00722
3500.34444	1.01727
3498.41587	1.02459
3496.48731	1.03248
3494.55875	1.04338
3492.63018	1.05432
3490.70162	1.06282
3488.77305	1.07009
3486.84449	1.07749
3484.91592	1.08362
3482.98736	1.08836
3481.05879	1.09355
3479.13023	1.09822
3477.20167	1.10204
3475.27310	1.10603
3473.34454	1.11149
3471.41597	1.11874
3469.48741	1.12494
3467.55884	1.12888
3465.63028	1.13269
3463.70171	1.13795
3461.77315	1.14378
3459.84459	1.14879
3457.91602	1.15376
3455.98746	1.16058
3454.05889	1.16849
3452.13033	1.17459
3450.20176	1.17900
3448.27320	1.18484
3446.34464	1.19276
3444.41607	1.19918
3442.48751	1.20295
3440.55894	1.20535
3438.63038	1.20722
3436.70181	1.20977
3434.77325	1.21303
3432.84468	1.21564
3430.91612	1.21581
3428.98756	1.21570
3427.05899	1.21844
3425.13043	1.22200
3423.20186	1.22506
3421.27330	1.22732
3419.34473	1.22797
3417.41617	1.22869
3415.48760	1.23114
3413.55904	1.23450
3411.63048	1.23557
3409.70191	1.23417
3407.77335	1.23399
3405.84478	1.23592
3403.91622	1.23739
3401.98765	1.23649
3400.05909	1.23611
3398.13052	1.23993
3396.20196	1.24501
3394.27340	1.24806
3392.34483	1.25008
3390.41627	1.25176
3388.48770	1.25494
3386.55914	1.26056
3384.63057	1.26494
3382.70201	1.26589
3380.77344	1.26625
3378.84488	1.26920
3376.91632	1.27496
3374.98775	1.28093
3373.05919	1.28390
3371.13062	1.28519
3369.20206	1.28875
3367.27349	1.29468
3365.34493	1.30066
3363.41636	1.30423
3361.48780	1.30565
3359.55924	1.30818
3357.63067	1.31268
3355.70211	1.31893
3353.77354	1.32724
3351.84498	1.33462
3349.91641	1.33842
3347.98785	1.34191
3346.05928	1.34692
3344.13072	1.35116
3342.20216	1.35583
3340.27359	1.36273
3338.34503	1.37014
3336.41646	1.37555
3334.48790	1.37689
3332.55933	1.37662
3330.63077	1.38021
3328.70220	1.38918
3326.77364	1.40043
3324.84508	1.40965
3322.91651	1.41504
3320.98795	1.41759
3319.05938	1.42067
3317.13082	1.42613
3315.20225	1.43163
3313.27369	1.43725
3311.34513	1.44473
3309.41656	1.45309
3307.48800	1.46269
3305.55943	1.47116
3303.63087	1.47307
3301.70230	1.47295
3299.77374	1.47991
3297.84517	1.49162
3295.91661	1.49896
3293.98805	1.49892
3292.05948	1.49661
3290.13092	1.49571
3288.20235	1.49348
3286.27379	1.49138
3284.34522	1.49453
3282.41666	1.50010
3280.48809	1.50169
3278.55953	1.49727
3276.63097	1.48960
3274.70240	1.48579
3272.77384	1.48597
3270.84527	1.48255
3268.91671	1.47604
3266.98814	1.46932
3265.05958	1.46125
3263.13101	1.45391
3261.20245	1.44671
3259.27389	1.43411
3257.34532	1.41845
3255.41676	1.40779
3253.48819	1.40074
3251.55963	1.38984
3249.63106	1.37492
3247.70250	1.36097
3245.77393	1.35034
3243.84537	1.34190
3241.91681	1.33250
3239.98824	1.32045
3238.05968	1.30888
3236.13111	1.30101
3234.20255	1.29619
3232.27398	1.29245
3230.34542	1.28694
3228.41685	1.27841
3226.48829	1.27032
3224.55973	1.26601
3222.63116	1.26388
3220.70260	1.25919
3218.77403	1.25137
3216.84547	1.24515
3214.91690	1.24085
3212.98834	1.23563
3211.05977	1.23027
3209.13121	1.22516
3207.20265	1.21994
3205.27408	1.21570
3203.34552	1.21096
3201.41695	1.20313
3199.48839	1.19365
3197.55982	1.18537
3195.63126	1.17944
3193.70269	1.17620
3191.77413	1.17356
3189.84557	1.16898
3187.91700	1.16299
3185.98844	1.15671
3184.05987	1.15174
3182.13131	1.14893
3180.20274	1.14533
3178.27418	1.13917
3176.34562	1.13290
3174.41705	1.12783
3172.48849	1.12346
3170.55992	1.11967
3168.63136	1.11548
3166.70279	1.10995
3164.77423	1.10372
3162.84566	1.09873
3160.91710	1.09596
3158.98854	1.09330
3157.05997	1.08929
3155.13141	1.08548
3153.20284	1.08242
3151.27428	1.07918
3149.34571	1.07556
3147.41715	1.07189
3145.48858	1.06836
3143.56002	1.06465
3141.63146	1.06053
3139.70289	1.05623
3137.77433	1.05241
3135.84576	1.05004
3133.91720	1.04920
3131.98863	1.04837
3130.06007	1.04598
3128.13150	1.04329
3126.20294	1.04240
3124.27438	1.04181
3122.34581	1.03982
3120.41725	1.03822
3118.48868	1.03852
3116.56012	1.03950
3114.63155	1.03984
3112.70299	1.04023
3110.77442	1.04161
3108.84586	1.04340
3106.91730	1.04389
3104.98873	1.04225
3103.06017	1.03980
3101.13160	1.03853
3099.20304	1.03889
3097.27447	1.03954
3095.34591	1.03875
3093.41734	1.03647
3091.48878	1.03423
3089.56022	1.03233
3087.63165	1.02958
3085.70309	1.02589
3083.77452	1.02277
3081.84596	1.02127
3079.91739	1.02003
3077.98883	1.01754
3076.06026	1.01491
3074.13170	1.01291
3072.20314	1.01065
3070.27457	1.00754
3068.34601	1.00351
3066.41744	0.99945
3064.48888	0.99699
3062.56031	0.99621
3060.63175	0.99499
3058.70318	0.99164
3056.77462	0.98672
3054.84606	0.98182
3052.91749	0.97760
3050.98893	0.97391
3049.06036	0.97094
3047.13180	0.96856
3045.20323	0.96570
3043.27467	0.96239
3041.34610	0.95952
3039.41754	0.95646
3037.48898	0.95231
3035.56041	0.94777
3033.63185	0.94388
3031.70328	0.94080
3029.77472	0.93782
3027.84615	0.93422
3025.91759	0.93018
3023.98903	0.92612
3022.06046	0.92259
3020.13190	0.92006
3018.20333	0.91766
3016.27477	0.91437
3014.34620	0.91096
3012.41764	0.90811
3010.48907	0.90552
3008.56051	0.90352
3006.63195	0.90252
3004.70338	0.90192
3002.77482	0.90095
3000.84625	0.89976
2998.91769	0.89909
2996.98912	0.89983
2995.06056	0.90271
2993.13199	0.90678
2991.20343	0.91061
2989.27487	0.91484
2987.34630	0.92057
2985.41774	0.92718
2983.48917	0.93411
2981.56061	0.94173
2979.63204	0.94993
2977.70348	0.95803
2975.77491	0.96627
2973.84635	0.97552
2971.91779	0.98523
2969.98922	0.99408
2968.06066	1.00296
2966.13209	1.01272
2964.20353	1.02076
2962.27496	1.02454
2960.34640	1.02467
2958.41783	1.02218
2956.48927	1.01697
2954.56071	1.00950
2952.63214	1.00133
2950.70358	0.99412
2948.77501	0.98965
2946.84645	0.98981
2944.91788	0.99409
2942.98932	1.00032
2941.06075	1.00877
2939.13219	1.02019
2937.20363	1.03292
2935.27506	1.04523
2933.34650	1.05666
2931.41793	1.06735
2929.48937	1.07706
2927.56080	1.08489
2925.63224	1.09109
2923.70367	1.09658
2921.77511	1.09964
2919.84655	1.09771
2917.91798	1.08973
2915.98942	1.07389
2914.06085	1.05084
2912.13229	1.02669
2910.20372	1.00639
2908.27516	0.99026
2906.34659	0.97715
2904.41803	0.96641
2902.48947	0.95802
2900.56090	0.95169
2898.63234	0.94697
2896.70377	0.94363
2894.77521	0.94072
2892.84664	0.93729
2890.91808	0.93346
2888.98952	0.92952
2887.06095	0.92621
2885.13239	0.92457
2883.20382	0.92483
2881.27526	0.92637
2879.34669	0.92783
2877.41813	0.92804
2875.48956	0.92726
2873.56100	0.92567
2871.63244	0.92249
2869.70387	0.91746
2867.77531	0.91073
2865.84674	0.90348
2863.91818	0.89866
2861.98961	0.89766
2860.06105	0.89954
2858.13248	0.90385
2856.20392	0.91061
2854.27536	0.91846
2852.34679	0.92461
2850.41823	0.92448
2848.48966	0.91263
2846.56110	0.88991
2844.63253	0.86527
2842.70397	0.84514
2840.77540	0.82941
2838.84684	0.81733
2836.91828	0.80882
2834.98971	0.80265
2833.06115	0.79791
2831.13258	0.79412
2829.20402	0.79053
2827.27545	0.78668
2825.34689	0.78257
2823.41832	0.77855
2821.48976	0.77472
2819.56120	0.77092
2817.63263	0.76748
2815.70407	0.76444
2813.77550	0.76095
2811.84694	0.75680
2809.91837	0.75309
2807.98981	0.75060
2806.06124	0.74839
2804.13268	0.74566
2802.20412	0.74260
2800.27555	0.73921
2798.34699	0.73575
2796.41842	0.73288
2794.48986	0.73076
2792.56129	0.72906
2790.63273	0.72733
2788.70416	0.72520
2786.77560	0.72281
2784.84704	0.72052
2782.91847	0.71861
2780.98991	0.71734
2779.06134	0.71669
2777.13278	0.71587
2775.20421	0.71425
2773.27565	0.71226
2771.34708	0.71063
2769.41852	0.70947
2767.48996	0.70836
2765.56139	0.70677
2763.63283	0.70472
2761.70426	0.70282
2759.77570	0.70148
2757.84713	0.70061
2755.91857	0.69966
2753.99001	0.69800
2752.06144	0.69560
2750.13288	0.69339
2748.20431	0.69203
2746.27575	0.69086
2744.34718	0.68941
2742.41862	0.68835
2740.49005	0.68775
2738.56149	0.68678
2736.63293	0.68527
2734.70436	0.68389
2732.77580	0.68299
2730.84723	0.68203
2728.91867	0.68073
2726.99010	0.67961
2725.06154	0.67871
2723.13297	0.67754
2721.20441	0.67608
2719.27585	0.67481
2717.34728	0.67390
2715.41872	0.67309
2713.49015	0.67213
2711.56159	0.67072
2709.63302	0.66887
2707.70446	0.66720
2705.77589	0.66596
2703.84733	0.66501
2701.91877	0.66406
2699.99020	0.66278
2698.06164	0.66133
2696.13307	0.66021
2694.20451	0.65922
2692.27594	0.65794
2690.34738	0.65645
2688.41881	0.65502
2686.49025	0.65384
2684.56169	0.65278
2682.63312	0.65147
2680.70456	0.64994
2678.77599	0.64841
2676.84743	0.64683
2674.91886	0.64514
2672.99030	0.64366
2671.06173	0.64219
2669.13317	0.64029
2667.20461	0.63821
2665.27604	0.63631
2663.34748	0.63480
2661.41891	0.63378
2659.49035	0.63278
2657.56178	0.63131
2655.63322	0.62981
2653.70465	0.62862
2651.77609	0.62768
2649.84753	0.62699
2647.91896	0.62622
2645.99040	0.62524
2644.06183	0.62438
2642.13327	0.62380
2640.20470	0.62346
2638.27614	0.62315
2636.34757	0.62259
2634.41901	0.62196
2632.49045	0.62132
2630.56188	0.62032
2628.63332	0.61904
2626.70475	0.61784
2624.77619	0.61688
2622.84762	0.61627
2620.91906	0.61599
2618.99049	0.61570
2617.06193	0.61500
2615.13337	0.61391
2613.20480	0.61270
2611.27624	0.61159
2609.34767	0.61079
2607.41911	0.61009
2605.49054	0.60912
2603.56198	0.60795
2601.63342	0.60686
2599.70485	0.60588
2597.77629	0.60481
2595.84772	0.60369
2593.91916	0.60280
2591.99059	0.60196
2590.06203	0.60083
2588.13346	0.59975
2586.20490	0.59925
2584.27634	0.59898
2582.34777	0.59826
2580.41921	0.59725
2578.49064	0.59651
2576.56208	0.59617
2574.63351	0.59607
2572.70495	0.59607
2570.77638	0.59588
2568.84782	0.59516
2566.91926	0.59410
2564.99069	0.59327
2563.06213	0.59281
2561.13356	0.59227
2559.20500	0.59139
2557.27643	0.59029
2555.34787	0.58892
2553.41930	0.58721
2551.49074	0.58532
2549.56218	0.58340
2547.63361	0.58159
2545.70505	0.57994
2543.77648	0.57827
2541.84792	0.57643
2539.91935	0.57460
2537.99079	0.57295
2536.06222	0.57141
2534.13366	0.56994
2532.20510	0.56857
2530.27653	0.56736
2528.34797	0.56641
2526.41940	0.56576
2524.49084	0.56539
2522.56227	0.56502
2520.63371	0.56453
2518.70514	0.56413
2516.77658	0.56389
2514.84802	0.56362
2512.91945	0.56325
2510.99089	0.56285
2509.06232	0.56240
2507.13376	0.56180
2505.20519	0.56106
2503.27663	0.56007
2501.34806	0.55875
2499.41950	0.55743
2497.49094	0.55642
2495.56237	0.55543
2493.63381	0.55415
2491.70524	0.55269
2489.77668	0.55120
2487.84811	0.54968
2485.91955	0.54820
2483.99098	0.54693
2482.06242	0.54558
2480.13386	0.54387
2478.20529	0.54216
2476.27673	0.54079
2474.34816	0.53979
2472.41960	0.53890
2470.49103	0.53802
2468.56247	0.53739
2466.63391	0.53689
2464.70534	0.53622
2462.77678	0.53562
2460.84821	0.53542
2458.91965	0.53553
2456.99108	0.53576
2455.06252	0.53587
2453.13395	0.53567
2451.20539	0.53534
2449.27683	0.53493
2447.34826	0.53446
2445.41970	0.53405
2443.49113	0.53355
2441.56257	0.53272
2439.63400	0.53166
2437.70544	0.53076
2435.77687	0.53014
2433.84831	0.52955
2431.91975	0.52872
2429.99118	0.52758
2428.06262	0.52611
2426.13405	0.52447
2424.20549	0.52303
2422.27692	0.52193
2420.34836	0.52097
2418.41979	0.51999
2416.49123	0.51899
2414.56267	0.51810
2412.63410	0.51732
2410.70554	0.51663
2408.77697	0.51610
2406.84841	0.51569
2404.91984	0.51531
2402.99128	0.51487
2401.06271	0.51440
2399.13415	0.51407
2397.20559	0.51387
2395.27702	0.51355
2393.34846	0.51287
2391.41989	0.51189
2389.49133	0.51088
2387.56276	0.50989
2385.63420	0.50866
2383.70563	0.50698
2381.77707	0.50523
2379.84851	0.50391
2377.91994	0.50272
2375.99138	0.50111
2374.06281	0.49941
2372.13425	0.49787
2370.20568	0.49574
2368.27712	0.49342
2366.34855	0.49266
2364.41999	0.49332
2362.49143	0.49260
2360.56286	0.48913
2358.63430	0.48594
2356.70573	0.48657
2354.77717	0.48934
2352.84860	0.49047
2350.92004	0.48859
2348.99147	0.48512
2347.06291	0.48237
2345.13435	0.48211
2343.20578	0.48315
2341.27722	0.48324
2339.34865	0.48308
2337.42009	0.48346
2335.49152	0.48374
2333.56296	0.48301
2331.63440	0.48180
2329.70583	0.48100
2327.77727	0.48052
2325.84870	0.48022
2323.92014	0.48022
2321.99157	0.48017
2320.06301	0.47957
2318.13444	0.47855
2316.20588	0.47740
2314.27732	0.47622
2312.34875	0.47516
2310.42019	0.47439
2308.49162	0.47387
2306.56306	0.47342
2304.63449	0.47296
2302.70593	0.47251
2300.77736	0.47211
2298.84880	0.47190
2296.92024	0.47190
2294.99167	0.47198
2293.06311	0.47209
2291.13454	0.47229
2289.20598	0.47259
2287.27741	0.47297
2285.34885	0.47335
2283.42028	0.47354
2281.49172	0.47368
2279.56316	0.47402
2277.63459	0.47448
2275.70603	0.47479
2273.77746	0.47486
2271.84890	0.47484
2269.92033	0.47485
2267.99177	0.47473
2266.06320	0.47438
2264.13464	0.47389
2262.20608	0.47323
2260.27751	0.47244
2258.34895	0.47176
2256.42038	0.47119
2254.49182	0.47052
2252.56325	0.46976
2250.63469	0.46909
2248.70612	0.46848
2246.77756	0.46794
2244.84900	0.46741
2242.92043	0.46678
2240.99187	0.46618
2239.06330	0.46572
2237.13474	0.46519
2235.20617	0.46458
2233.27761	0.46411
2231.34904	0.46380
2229.42048	0.46339
2227.49192	0.46286
2225.56335	0.46257
2223.63479	0.46249
2221.70622	0.46219
2219.77766	0.46164
2217.84909	0.46128
2215.92053	0.46111
2213.99196	0.46055
2212.06340	0.45950
2210.13484	0.45850
2208.20627	0.45789
2206.27771	0.45742
2204.34914	0.45665
2202.42058	0.45573
2200.49201	0.45500
2198.56345	0.45437
2196.63488	0.45365
2194.70632	0.45290
2192.77776	0.45217
2190.84919	0.45141
2188.92063	0.45075
2186.99206	0.45018
2185.06350	0.44956
2183.13493	0.44903
2181.20637	0.44861
2179.27781	0.44816
2177.34924	0.44785
2175.42068	0.44770
2173.49211	0.44757
2171.56355	0.44757
2169.63498	0.44769
2167.70642	0.44779
2165.77785	0.44783
2163.84929	0.44786
2161.92073	0.44797
2159.99216	0.44824
2158.06360	0.44859
2156.13503	0.44879
2154.20647	0.44896
2152.27790	0.44927
2150.34934	0.44954
2148.42077	0.44969
2146.49221	0.44982
2144.56365	0.44991
2142.63508	0.44983
2140.70652	0.44960
2138.77795	0.44943
2136.84939	0.44937
2134.92082	0.44932
2132.99226	0.44921
2131.06369	0.44912
2129.13513	0.44909
2127.20657	0.44892
2125.27800	0.44854
2123.34944	0.44831
2121.42087	0.44837
2119.49231	0.44829
2117.56374	0.44802
2115.63518	0.44789
2113.70661	0.44782
2111.77805	0.44764
2109.84949	0.44736
2107.92092	0.44696
2105.99236	0.44649
2104.06379	0.44606
2102.13523	0.44557
2100.20666	0.44512
2098.27810	0.44498
2096.34953	0.44489
2094.42097	0.44448
2092.49241	0.44406
2090.56384	0.44402
2088.63528	0.44407
2086.70671	0.44398
2084.77815	0.44398
2082.84958	0.44411
2080.92102	0.44419
2078.99245	0.44424
2077.06389	0.44445
2075.13533	0.44470
2073.20676	0.44479
2071.27820	0.44468
2069.34963	0.44423
2067.42107	0.44357
2065.49250	0.44307
2063.56394	0.44257
2061.63537	0.44181
2059.70681	0.44086
2057.77825	0.43978
2055.84968	0.43874
2053.92112	0.43784
2051.99255	0.43688
2050.06399	0.43587
2048.13542	0.43497
2046.20686	0.43410
2044.27830	0.43320
2042.34973	0.43252
2040.42117	0.43208
2038.49260	0.43162
2036.56404	0.43131
2034.63547	0.43128
2032.70691	0.43136
2030.77834	0.43158
2028.84978	0.43198
2026.92122	0.43245
2024.99265	0.43303
2023.06409	0.43369
2021.13552	0.43411
2019.20696	0.43434
2017.27839	0.43480
2015.34983	0.43527
2013.42126	0.43533
2011.49270	0.43518
2009.56414	0.43497
2007.63557	0.43461
2005.70701	0.43404
2003.77844	0.43317
2001.84988	0.43213
1999.92131	0.43120
1997.99275	0.43031
1996.06418	0.42917
1994.13562	0.42793
1992.20706	0.42709
1990.27849	0.42649
1988.34993	0.42584
1986.42136	0.42524
1984.49280	0.42469
1982.56423	0.42418
1980.63567	0.42388
1978.70710	0.42392
1976.77854	0.42432
1974.84998	0.42485
1972.92141	0.42530
1970.99285	0.42566
1969.06428	0.42634
1967.13572	0.42765
1965.20715	0.42880
1963.27859	0.42918
1961.35002	0.42922
1959.42146	0.42927
1957.49290	0.42927
1955.56433	0.42918
1953.63577	0.42887
1951.70720	0.42816
1949.77864	0.42711
1947.85007	0.42598
1945.92151	0.42475
1943.99294	0.42370
1942.06438	0.42310
1940.13582	0.42216
1938.20725	0.42078
1936.27869	0.41963
1934.35012	0.41871
1932.42156	0.41787
1930.49299	0.41729
1928.56443	0.41695
1926.63586	0.41651
1924.70730	0.41637
1922.77874	0.41692
1920.85017	0.41717
1918.92161	0.41742
1916.99304	0.41857
1915.06448	0.41949
1913.13591	0.41989
1911.20735	0.42074
1909.27878	0.42231
1907.35022	0.42376
1905.42166	0.42455
1903.49309	0.42521
1901.56453	0.42596
1899.63596	0.42643
1897.70740	0.42669
1895.77883	0.42722
1893.85027	0.42756
1891.92171	0.42733
1889.99314	0.42744
1888.06458	0.42762
1886.13601	0.42699
1884.20745	0.42623
1882.27888	0.42568
1880.35032	0.42510
1878.42175	0.42450
1876.49319	0.42406
1874.56463	0.42371
1872.63606	0.42316
1870.70750	0.42311
1868.77893	0.42521
1866.85037	0.42782
1864.92180	0.42851
1862.99324	0.42868
1861.06467	0.42953
1859.13611	0.43097
1857.20755	0.43241
1855.27898	0.43344
1853.35042	0.43403
1851.42185	0.43417
1849.49329	0.43388
1847.56472	0.43329
1845.63616	0.43340
1843.70759	0.43463
1841.77903	0.43437
1839.85047	0.43253
1837.92190	0.43097
1835.99334	0.42999
1834.06477	0.42865
1832.13621	0.42721
1830.20764	0.42688
1828.27908	0.42683
1826.35051	0.42602
1824.42195	0.42555
1822.49339	0.42506
1820.56482	0.42419
1818.63626	0.42367
1816.70769	0.42338
1814.77913	0.42283
1812.85056	0.42245
1810.92200	0.42294
1808.99343	0.42370
1807.06487	0.42385
1805.13631	0.42364
1803.20774	0.42358
1801.27918	0.42435
1799.35061	0.42540
1797.42205	0.42543
1795.49348	0.42455
1793.56492	0.42414
1791.63635	0.42517
1789.70779	0.42488
1787.77923	0.42294
1785.85066	0.42107
1783.92210	0.41953
1781.99353	0.41816
1780.06497	0.41723
1778.13640	0.41610
1776.20784	0.41426
1774.27927	0.41304
1772.35071	0.41434
1770.42215	0.41632
1768.49358	0.41705
1766.56502	0.41747
1764.63645	0.41797
1762.70789	0.42004
1760.77932	0.42381
1758.85076	0.42695
1756.92220	0.43092
1754.99363	0.43524
1753.06507	0.43890
1751.13650	0.44545
1749.20794	0.45587
1747.27937	0.46462
1745.35081	0.47048
1743.42224	0.47510
1741.49368	0.47918
1739.56512	0.48248
1737.63655	0.48353
1735.70799	0.48351
1733.77942	0.48598
1731.85086	0.48780
1729.92229	0.48763
1727.99373	0.48787
1726.06516	0.48863
1724.13660	0.49062
1722.20804	0.49288
1720.27947	0.49473
1718.35091	0.50068
1716.42234	0.51522
1714.49378	0.52763
1712.56521	0.53640
1710.63665	0.54637
1708.70808	0.55904
1706.77952	0.57921
1704.85096	0.60732
1702.92239	0.63288
1700.99383	0.66906
1699.06526	0.72818
1697.13670	0.78531
1695.20813	0.84233
1693.27957	0.88455
1691.35100	0.91798
1689.42244	0.95992
1687.49388	0.99998
1685.56531	1.04104
1683.63675	1.10996
1681.70818	1.16398
1679.77962	1.19443
1677.85105	1.22153
1675.92249	1.25355
1673.99392	1.28939
1672.06536	1.31783
1670.13680	1.34798
1668.20823	1.38026
1666.27967	1.39627
1664.35110	1.40814
1662.42254	1.42684
1660.49397	1.44400
1658.56541	1.45366
1656.63684	1.45859
1654.70828	1.46285
1652.77972	1.46487
1650.85115	1.46181
1648.92259	1.45871
1646.99402	1.45854
1645.06546	1.46039
1643.13689	1.45893
1641.20833	1.45730
1639.27976	1.45493
1637.35120	1.45155
1635.42264	1.44958
1633.49407	1.44590
1631.56551	1.43914
1629.63694	1.42948
1627.70838	1.41820
1625.77981	1.40589
1623.85125	1.38942
1621.92269	1.36803
1619.99412	1.34787
1618.06556	1.32385
1616.13699	1.28896
1614.20843	1.25819
1612.27986	1.23185
1610.35130	1.20406
1608.42273	1.17624
1606.49417	1.15170
1604.56561	1.13114
1602.63704	1.11376
1600.70848	1.10009
1598.77991	1.09008
1596.85135	1.08289
1594.92278	1.07738
1592.99422	1.07347
1591.06565	1.07201
1589.13709	1.07323
1587.20853	1.07754
1585.27996	1.08495
1583.35140	1.09469
1581.42283	1.10480
1579.49427	1.11375
1577.56570	1.12655
1575.63714	1.14974
1573.70857	1.16686
1571.78001	1.17700
1569.85145	1.19393
1567.92288	1.21487
1565.99432	1.23063
1564.06575	1.24422
1562.13719	1.25395
1560.20862	1.26671
1558.28006	1.29860
1556.35149	1.31488
1554.42293	1.32153
1552.49437	1.32830
1550.56580	1.33346
1548.63724	1.33513
1546.70867	1.33343
1544.78011	1.33021
1542.85154	1.32744
1540.92298	1.32340
1538.99441	1.31229
1537.06585	1.30254
1535.13729	1.29295
1533.20872	1.28352
1531.28016	1.27692
1529.35159	1.27061
1527.42303	1.26272
1525.49446	1.25415
1523.56590	1.24755
1521.63733	1.24460
1519.70877	1.24335
1517.78021	1.23741
1515.85164	1.22576
1513.92308	1.21096
1511.99451	1.19379
1510.06595	1.17570
1508.13738	1.15087
1506.20882	1.11256
1504.28025	1.08949
1502.35169	1.07286
1500.42313	1.05381
1498.49456	1.03043
1496.56600	1.00424
1494.63743	0.98297
1492.70887	0.96674
1490.78030	0.94847
1488.85174	0.92587
1486.92317	0.90776
1484.99461	0.89498
1483.06605	0.88496
1481.13748	0.87728
1479.20892	0.87286
1477.28035	0.87281
1475.35179	0.87830
1473.42322	0.89279
1471.49466	0.91131
1469.56610	0.92129
1467.63753	0.92699
1465.70897	0.93458
1463.78040	0.94331
1461.85184	0.94802
1459.92327	0.95077
1457.99471	0.95974
1456.06614	0.97448
1454.13758	0.97899
1452.20902	0.97849
1450.28045	0.97726
1448.35189	0.97637
1446.42332	0.97512
1444.49476	0.97227
1442.56619	0.96779
1440.63763	0.96222
1438.70906	0.95602
1436.78050	0.94932
1434.85194	0.94228
1432.92337	0.93507
1430.99481	0.92799
1429.06624	0.92204
1427.13768	0.91830
1425.20911	0.91730
1423.28055	0.91853
1421.35198	0.92061
1419.42342	0.92547
1417.49486	0.93224
1415.56629	0.93526
1413.63773	0.93660
1411.70916	0.93858
1409.78060	0.94093
1407.85203	0.94318
1405.92347	0.94662
1403.99490	0.95079
1402.06634	0.95329
1400.13778	0.95509
1398.20921	0.95757
1396.28065	0.96054
1394.35208	0.96324
1392.42352	0.96458
1390.49495	0.96560
1388.56639	0.96938
1386.63782	0.97729
1384.70926	0.98530
1382.78070	0.99175
1380.85213	0.99663
1378.92357	0.99763
1376.99500	0.99308
1375.06644	0.98283
1373.13787	0.96847
1371.20931	0.95300
1369.28074	0.93567
1367.35218	0.91701
1365.42362	0.89982
1363.49505	0.88337
1361.56649	0.86842
1359.63792	0.85780
1357.70936	0.85067
1355.78079	0.84563
1353.85223	0.84185
1351.92366	0.83848
1349.99510	0.83537
1348.06654	0.83301
1346.13797	0.83138
1344.20941	0.82987
1342.28084	0.82831
1340.35228	0.82742
1338.42371	0.82783
1336.49515	0.82954
1334.56659	0.83291
1332.63802	0.83804
1330.70946	0.84413
1328.78089	0.84974
1326.85233	0.85399
1324.92376	0.85686
1322.99520	0.85916
1321.06663	0.86207
1319.13807	0.86585
1317.20951	0.86953
1315.28094	0.87268
1313.35238	0.87606
1311.42381	0.87963
1309.49525	0.88268
1307.56668	0.88499
1305.63812	0.88658
1303.70955	0.88766
1301.78099	0.88811
1299.85243	0.88747
1297.92386	0.88550
1295.99530	0.88278
1294.06673	0.88060
1292.13817	0.87944
1290.20960	0.87885
1288.28104	0.87854
1286.35247	0.87850
1284.42391	0.87838
1282.49535	0.87811
1280.56678	0.87816
1278.63822	0.87890
1276.70965	0.88044
1274.78109	0.88291
1272.85252	0.88675
1270.92396	0.89222
1268.99539	0.89875
1267.06683	0.90543
1265.13827	0.91154
1263.20970	0.91675
1261.28114	0.92094
1259.35257	0.92437
1257.42401	0.92793
1255.49544	0.93218
1253.56688	0.93681
1251.63831	0.94141
1249.70975	0.94611
1247.78119	0.95088
1245.85262	0.95510
1243.92406	0.95823
1241.99549	0.96047
1240.06693	0.96196
1238.13836	0.96195
1236.20980	0.95996
1234.28123	0.95632
1232.35267	0.95114
1230.42411	0.94432
1228.49554	0.93606
1226.56698	0.92644
1224.63841	0.91571
1222.70985	0.90458
1220.78128	0.89326
1218.85272	0.88152
1216.92415	0.87018
1214.99559	0.86089
1213.06703	0.85434
1211.13846	0.85012
1209.20990	0.84724
1207.28133	0.84391
1205.35277	0.83842
1203.42420	0.83054
1201.49564	0.82148
1199.56708	0.81241
1197.63851	0.80386
1195.70995	0.79604
1193.78138	0.78924
1191.85282	0.78390
1189.92425	0.78020
1187.99569	0.77792
1186.06712	0.77692
1184.13856	0.77739
1182.21000	0.77958
1180.28143	0.78350
1178.35287	0.78904
1176.42430	0.79616
1174.49574	0.80456
1172.56717	0.81352
1170.63861	0.82290
1168.71004	0.83372
1166.78148	0.84661
1164.85292	0.86066
1162.92435	0.87358
1160.99579	0.88278
1159.06722	0.88612
1157.13866	0.88283
1155.21009	0.87411
1153.28153	0.86197
1151.35296	0.84849
1149.42440	0.83548
1147.49584	0.82388
1145.56727	0.81485
1143.63871	0.80979
1141.71014	0.80915
1139.78158	0.81279
1137.85301	0.82025
1135.92445	0.83062
1133.99588	0.84352
1132.06732	0.85939
1130.13876	0.87860
1128.21019	0.89991
1126.28163	0.92056
1124.35306	0.93900
1122.42450	0.95534
1120.49593	0.96934
1118.56737	0.98013
1116.63880	0.98741
1114.71024	0.99115
1112.78168	0.99151
1110.85311	0.98975
1108.92455	0.98695
1106.99598	0.98340
1105.06742	0.97982
1103.13885	0.97714
1101.21029	0.97596
1099.28172	0.97706
1097.35316	0.98105
1095.42460	0.98798
1093.49603	0.99808
1091.56747	1.01098
1089.63890	1.02557
1087.71034	1.04232
1085.78177	1.06191
1083.85321	1.08242
1081.92464	1.10053
1079.99608	1.11349
1078.06752	1.12072
1076.13895	1.12333
1074.21039	1.12147
1072.28182	1.11439
1070.35326	1.10360
1068.42469	1.09257
1066.49613	1.08240
1064.56756	1.07238
1062.63900	1.06288
1060.71044	1.05349
1058.78187	1.04339
1056.85331	1.03301
1054.92474	1.02262
1052.99618	1.01272
1051.06761	1.00467
1049.13905	0.99873
1047.21049	0.99451
1045.28192	0.99259
1043.35336	0.99312
1041.42479	0.99519
1039.49623	0.99744
1037.56766	0.99878
1035.63910	0.99958
1033.71053	1.00019
1031.78197	0.99879
1029.85341	0.99389
1027.92484	0.98653
1025.99628	0.97791
1024.06771	0.96810
1022.13915	0.95792
1020.21058	0.94856
1018.28202	0.94015
1016.35345	0.93220
1014.42489	0.92350
1012.49633	0.91204
1010.56776	0.89702
1008.63920	0.87950
1006.71063	0.86109
1004.78207	0.84301
1002.85350	0.82596
1000.92494	0.81045
998.99637	0.79686
997.06781	0.78562
995.13925	0.77626
993.21068	0.76705
991.28212	0.75669
989.35355	0.74520
987.42499	0.73347
985.49642	0.72253
983.56786	0.71317
981.63929	0.70609
979.71073	0.70156
977.78217	0.69890
975.85360	0.69689
973.92504	0.69445
971.99647	0.69078
970.06791	0.68570
968.13934	0.68024
966.21078	0.67635
964.28221	0.67578
962.35365	0.67938
960.42509	0.68775
958.49652	0.70072
956.56796	0.71525
954.63939	0.72635
952.71083	0.73171
950.78226	0.73244
948.85370	0.73080
946.92513	0.72913
944.99657	0.72885
943.06801	0.72976
941.13944	0.73082
939.21088	0.73129
937.28231	0.73109
935.35375	0.73061
933.42518	0.73002
931.49662	0.72890
929.56805	0.72746
927.63949	0.72655
925.71093	0.72613
923.78236	0.72587
921.85380	0.72569
919.92523	0.72496
917.99667	0.72344
916.06810	0.72177
914.13954	0.72053
912.21098	0.72002
910.28241	0.72057
908.35385	0.72248
906.42528	0.72536
904.49672	0.72836
902.56815	0.73114
900.63959	0.73359
898.71102	0.73536
896.78246	0.73639
894.85390	0.73689
892.92533	0.73659
890.99677	0.73543
889.06820	0.73416
887.13964	0.73337
885.21107	0.73326
883.28251	0.73390
881.35394	0.73483
879.42538	0.73523
877.49682	0.73482
875.56825	0.73378
873.63969	0.73253
871.71112	0.73149
869.78256	0.73035
867.85399	0.72878
865.92543	0.72707
863.99686	0.72581
862.06830	0.72513
860.13974	0.72467
858.21117	0.72439
856.28261	0.72473
854.35404	0.72605
852.42548	0.72777
850.49691	0.72895
848.56835	0.72978
846.63978	0.73094
844.71122	0.73275
842.78266	0.73550
840.85409	0.73925
838.92553	0.74366
836.99696	0.74888
835.06840	0.75556
833.13983	0.76315
831.21127	0.77064
829.28270	0.77794
827.35414	0.78495
825.42558	0.79196
823.49701	0.79977
821.56845	0.80797
819.63988	0.81577
817.71132	0.82317
815.78275	0.83061
813.85419	0.83837
811.92562	0.84568
809.99706	0.85148
808.06850	0.85592
806.13993	0.85960
804.21137	0.86230
802.28280	0.86405
800.35424	0.86587
798.42567	0.86761
796.49711	0.86831
794.56854	0.86884
792.63998	0.87002
790.71142	0.87135
788.78285	0.87304
786.85429	0.87583
784.92572	0.87936
782.99716	0.88241
781.06859	0.88483
779.14003	0.88779
777.21147	0.89156
775.28290	0.89522
773.35434	0.89887
771.42577	0.90282
769.49721	0.90606
767.56864	0.90815
765.64008	0.91005
763.71151	0.91247
761.78295	0.91532
759.85439	0.91811
757.92582	0.92009
755.99726	0.92072
754.06869	0.92036
752.14013	0.91934
750.21156	0.91740
748.28300	0.91506
746.35443	0.91294
744.42587	0.91038
742.49731	0.90717
740.56874	0.90413
738.64018	0.90138
736.71161	0.89854
734.78305	0.89564
732.85448	0.89345
730.92592	0.89258
728.99735	0.89223
727.06879	0.89194
725.14023	0.89265
723.21166	0.89489
721.28310	0.89811
719.35453	0.90160
717.42597	0.90501
715.49740	0.90909
713.56884	0.91490
711.64027	0.92185
709.71171	0.92859
707.78315	0.93481
705.85458	0.94069
703.92602	0.94619
701.99745	0.95143
700.06889	0.95666
698.14032	0.96109
696.21176	0.96372
694.28319	0.96556
692.35463	0.96820
690.42607	0.97078
688.49750	0.97162
686.56894	0.97103
684.64037	0.96974
682.71181	0.96775
680.78324	0.96551
678.85468	0.96364
676.92611	0.96203
674.99755	0.96093
673.06899	0.96095
671.14042	0.96156
669.21186	0.96244
667.28329	0.96365
665.35473	0.96393
663.42616	0.96398
661.49760	0.96535
659.56903	0.96825
657.64047	0.97053
655.71191	0.97117
653.78334	0.97250
651.85478	0.97684
649.92621	0.98333
647.99765	0.98946
646.06908	0.99446
644.14052	0.99913
642.21195	1.00400
640.28339	1.00920
638.35483	1.01471
636.42626	1.01835
634.49770	1.01702
632.56913	1.01304
630.64057	1.00945
628.71200	1.00521
626.78344	1.00008
624.85488	0.99447
622.92631	0.98858
620.99775	0.98292
619.06918	0.97706
617.14062	0.97041
615.21205	0.96371
613.28349	0.95773
611.35492	0.95108
609.42636	0.94334
607.49780	0.93646
605.56923	0.93079
603.64067	0.92661
601.71210	0.92501
599.78354	0.92568
