3997.91406	0.87920
3995.98550	0.87981
3994.05693	0.88191
3992.12837	0.88354
3990.19980	0.88386
3988.27124	0.88316
3986.34268	0.88087
3984.41411	0.87755
3982.48555	0.87564
3980.55698	0.87496
3978.62842	0.87435
3976.69985	0.87466
3974.77129	0.87549
3972.84272	0.87566
3970.91416	0.87548
3968.98560	0.87611
3967.05703	0.87768
3965.12847	0.87827
3963.19990	0.87768
3961.27134	0.87796
3959.34277	0.87846
3957.41421	0.87764
3955.48564	0.87668
3953.55708	0.87677
3951.62852	0.87705
3949.69995	0.87619
3947.77139	0.87423
3945.84282	0.87229
3943.91426	0.87149
3941.98569	0.87109
3940.05713	0.87024
3938.12856	0.86998
3936.20000	0.86919
3934.27144	0.86682
3932.34287	0.86569
3930.41431	0.86756
3928.48574	0.86970
3926.55718	0.87155
3924.62861	0.87338
3922.70005	0.87250
3920.77148	0.86938
3918.84292	0.86755
3916.91436	0.86781
3914.98579	0.86809
3913.05723	0.86761
3911.12866	0.86668
3909.20010	0.86423
3907.27153	0.86017
3905.34297	0.85853
3903.41440	0.86266
3901.48584	0.86676
3899.55728	0.86846
3897.62871	0.86862
3895.70015	0.86536
3893.77158	0.86177
3891.84302	0.86315
3889.91445	0.86476
3887.98589	0.86302
3886.05733	0.86316
3884.12876	0.86332
3882.20020	0.86157
3880.27163	0.86359
3878.34307	0.86305
3876.41450	0.85791
3874.48594	0.85586
3872.55737	0.85790
3870.62881	0.86254
3868.70025	0.86628
3866.77168	0.86413
3864.84312	0.86331
3862.91455	0.86661
3860.98599	0.86630
3859.05742	0.86198
3857.12886	0.85640
3855.20029	0.85450
3853.27173	0.86641
3851.34317	0.87472
3849.41460	0.87149
3847.48604	0.86574
3845.55747	0.86096
3843.62891	0.85898
3841.70034	0.85885
3839.77178	0.86139
3837.84321	0.86863
3835.91465	0.87077
3833.98609	0.86684
3832.05752	0.86463
3830.12896	0.86417
3828.20039	0.86283
3826.27183	0.86080
3824.34326	0.85642
3822.41470	0.85344
3820.48613	0.85881
3818.55757	0.86278
3816.62901	0.86500
3814.70044	0.86709
3812.77188	0.86459
3810.84331	0.86038
3808.91475	0.85914
3806.98618	0.86332
3805.05762	0.86472
3803.12905	0.86350
3801.20049	0.86816
3799.27193	0.86970
3797.34336	0.86771
3795.41480	0.86763
3793.48623	0.86598
3791.55767	0.86249
3789.62910	0.85888
3787.70054	0.85624
3785.77197	0.85740
3783.84341	0.86058
3781.91485	0.86135
3779.98628	0.86231
3778.05772	0.86320
3776.12915	0.86056
3774.20059	0.85670
3772.27202	0.85514
3770.34346	0.85805
3768.41489	0.86051
3766.48633	0.85945
3764.55777	0.85833
3762.62920	0.85610
3760.70064	0.85483
3758.77207	0.85852
3756.84351	0.86026
3754.91494	0.85626
3752.98638	0.85282
3751.05781	0.85849
3749.12925	0.86428
3747.20069	0.86271
3745.27212	0.86521
3743.34356	0.87000
3741.41499	0.86691
3739.48643	0.86215
3737.55786	0.86320
3735.62930	0.86960
3733.70074	0.87096
3731.77217	0.86859
3729.84361	0.86669
3727.91504	0.86616
3725.98648	0.86814
3724.05791	0.87008
3722.12935	0.86970
3720.20078	0.86887
3718.27222	0.86855
3716.34366	0.86744
3714.41509	0.86507
3712.48653	0.86674
3710.55796	0.87615
3708.62940	0.88040
3706.70083	0.87780
3704.77227	0.87322
3702.84370	0.87163
3700.91514	0.87449
3698.98658	0.87581
3697.05801	0.87556
3695.12945	0.87493
3693.20088	0.87263
3691.27232	0.87254
3689.34375	0.88111
3687.41519	0.88841
3685.48662	0.88854
3683.55806	0.88694
3681.62950	0.88578
3679.70093	0.88381
3677.77237	0.88322
3675.84380	0.89381
3673.91524	0.90385
3671.98667	0.90462
3670.05811	0.91011
3668.12954	0.91513
3666.20098	0.91397
3664.27242	0.91362
3662.34385	0.91674
3660.41529	0.92108
3658.48672	0.92484
3656.55816	0.93028
3654.62959	0.93297
3652.70103	0.92957
3650.77246	0.93068
3648.84390	0.95306
3646.91534	0.96943
3644.98677	0.96787
3643.05821	0.96514
3641.12964	0.96855
3639.20108	0.97580
3637.27251	0.98200
3635.34395	0.98729
3633.41538	0.99284
3631.48682	0.99791
3629.55826	1.01007
3627.62969	1.02602
3625.70113	1.02826
3623.77256	1.02525
3621.84400	1.02472
3619.91543	1.03288
3617.98687	1.04541
3616.05830	1.05125
3614.12974	1.05571
3612.20118	1.06132
3610.27261	1.06647
3608.34405	1.07243
3606.41548	1.07451
3604.48692	1.07251
3602.55835	1.07433
3600.62979	1.08304
3598.70123	1.09303
3596.77266	1.10054
3594.84410	1.10626
3592.91553	1.10658
3590.98697	1.10174
3589.05840	1.10305
3587.12984	1.11842
3585.20127	1.13037
3583.27271	1.13317
3581.34415	1.13501
3579.41558	1.13769
3577.48702	1.14082
3575.55845	1.14553
3573.62989	1.15016
3571.70132	1.15159
3569.77276	1.15330
3567.84419	1.16433
3565.91563	1.17815
3563.98707	1.17982
3562.05850	1.17850
3560.12994	1.17987
3558.20137	1.18275
3556.27281	1.18547
3554.34424	1.18723
3552.41568	1.18917
3550.48711	1.19026
3548.55855	1.19130
3546.62999	1.19656
3544.70142	1.20221
3542.77286	1.20199
3540.84429	1.19965
3538.91573	1.19999
3536.98716	1.20345
3535.05860	1.20657
3533.13003	1.20729
3531.20147	1.20763
3529.27291	1.21019
3527.34434	1.21487
3525.41578	1.21889
3523.48721	1.22221
3521.55865	1.22570
3519.63008	1.22845
3517.70152	1.23079
3515.77295	1.23261
3513.84439	1.23387
3511.91583	1.23541
3509.98726	1.23666
3508.05870	1.23676
3506.13013	1.23668
3504.20157	1.23980
3502.27300	1.24494
3500.34444	1.24632
3498.41587	1.24607
3496.48731	1.24770
3494.55875	1.24997
3492.63018	1.25258
3490.70162	1.25599
3488.77305	1.25842
3486.84449	1.25817
3484.91592	1.25620
3482.98736	1.25718
3481.05879	1.26273
3479.13023	1.26747
3477.20167	1.26986
3475.27310	1.27026
3473.34454	1.26853
3471.41597	1.26795
3469.48741	1.26796
3467.55884	1.26637
3465.63028	1.26623
3463.70171	1.27020
3461.77315	1.27483
3459.84459	1.27574
3457.91602	1.27512
3455.98746	1.27509
3454.05889	1.27444
3452.13033	1.27408
3450.20176	1.27491
3448.27320	1.27552
3446.34464	1.27489
3444.41607	1.27515
3442.48751	1.27816
3440.55894	1.27994
3438.63038	1.27846
3436.70181	1.27804
3434.77325	1.27989
3432.84468	1.28144
3430.91612	1.28206
3428.98756	1.28241
3427.05899	1.28280
3425.13043	1.28297
3423.20186	1.28255
3421.27330	1.28295
3419.34473	1.28559
3417.41617	1.28860
3415.48760	1.28866
3413.55904	1.28511
3411.63048	1.28293
3409.70191	1.28594
3407.77335	1.28861
3405.84478	1.28598
3403.91622	1.28283
3401.98765	1.28394
3400.05909	1.28791
3398.13052	1.29101
3396.20196	1.29057
3394.27340	1.28872
3392.34483	1.28856
3390.41627	1.28830
3388.48770	1.28798
3386.55914	1.29112
3384.63057	1.29754
3382.70201	1.30288
3380.77344	1.30363
3378.84488	1.29933
3376.91632	1.29347
3374.98775	1.29143
3373.05919	1.29301
3371.13062	1.29383
3369.20206	1.29377
3367.27349	1.29521
3365.34493	1.29733
3363.41636	1.29814
3361.48780	1.29821
3359.55924	1.29830
3357.63067	1.29882
3355.70211	1.29977
3353.77354	1.29907
3351.84498	1.29799
3349.91641	1.29833
3347.98785	1.29818
3346.05928	1.29885
3344.13072	1.30090
3342.20216	1.30152
3340.27359	1.30226
3338.34503	1.30504
3336.41646	1.30725
3334.48790	1.30734
3332.55933	1.30629
3330.63077	1.30467
3328.70220	1.30376
3326.77364	1.30462
3324.84508	1.30622
3322.91651	1.30957
3320.98795	1.31504
3319.05938	1.31869
3317.13082	1.32017
3315.20225	1.32146
3313.27369	1.32054
3311.34513	1.31749
3309.41656	1.31545
3307.48800	1.31580
3305.55943	1.31885
3303.63087	1.32235
3301.70230	1.32366
3299.77374	1.32364
3297.84517	1.32210
3295.91661	1.31817
3293.98805	1.31425
3292.05948	1.31331
3290.13092	1.31486
3288.20235	1.31537
3286.27379	1.31354
3284.34522	1.31150
3282.41666	1.31077
3280.48809	1.31099
3278.55953	1.31289
3276.63097	1.31762
3274.70240	1.32045
3272.77384	1.31661
3270.84527	1.31111
3268.91671	1.30888
3266.98814	1.30851
3265.05958	1.30964
3263.13101	1.31254
3261.20245	1.31484
3259.27389	1.31499
3257.34532	1.31398
3255.41676	1.31332
3253.48819	1.31333
3251.55963	1.31344
3249.63106	1.31202
3247.70250	1.30826
3245.77393	1.30591
3243.84537	1.30776
3241.91681	1.30997
3239.98824	1.30817
3238.05968	1.30404
3236.13111	1.30265
3234.20255	1.30469
3232.27398	1.30667
3230.34542	1.30760
3228.41685	1.30777
3226.48829	1.30548
3224.55973	1.30105
3222.63116	1.29794
3220.70260	1.29900
3218.77403	1.30214
3216.84547	1.30160
3214.91690	1.29725
3212.98834	1.29481
3211.05977	1.29692
3209.13121	1.29871
3207.20265	1.29602
3205.27408	1.29343
3203.34552	1.29345
3201.41695	1.29331
3199.48839	1.29276
3197.55982	1.29148
3195.63126	1.28879
3193.70269	1.28734
3191.77413	1.28874
3189.84557	1.28986
3187.91700	1.28852
3185.98844	1.28615
3184.05987	1.28342
3182.13131	1.28071
3180.20274	1.28022
3178.27418	1.28360
3176.34562	1.28710
3174.41705	1.28688
3172.48849	1.28580
3170.55992	1.28526
3168.63136	1.28369
3166.70279	1.28255
3164.77423	1.28309
3162.84566	1.28268
3160.91710	1.27907
3158.98854	1.27494
3157.05997	1.27321
3155.13141	1.27274
3153.20284	1.27191
3151.27428	1.27092
3149.34571	1.27104
3147.41715	1.27319
3145.48858	1.27430
3143.56002	1.27116
3141.63146	1.26678
3139.70289	1.26455
3137.77433	1.26454
3135.84576	1.26563
3133.91720	1.26644
3131.98863	1.26677
3130.06007	1.26564
3128.13150	1.26297
3126.20294	1.26069
3124.27438	1.25913
3122.34581	1.25791
3120.41725	1.25644
3118.48868	1.25607
3116.56012	1.25819
3114.63155	1.25929
3112.70299	1.25714
3110.77442	1.25385
3108.84586	1.25156
3106.91730	1.25118
3104.98873	1.25198
3103.06017	1.25298
3101.13160	1.25428
3099.20304	1.25598
3097.27447	1.25811
3095.34591	1.25938
3093.41734	1.25723
3091.48878	1.25333
3089.56022	1.25234
3087.63165	1.25400
3085.70309	1.25353
3083.77452	1.25013
3081.84596	1.24767
3079.91739	1.24692
3077.98883	1.24600
3076.06026	1.24399
3074.13170	1.24103
3072.20314	1.24000
3070.27457	1.24064
3068.34601	1.23836
3066.41744	1.23462
3064.48888	1.23390
3062.56031	1.23556
3060.63175	1.23618
3058.70318	1.23398
3056.77462	1.23098
3054.84606	1.22887
3052.91749	1.22630
3050.98893	1.22389
3049.06036	1.22257
3047.13180	1.22020
3045.20323	1.21625
3043.27467	1.21315
3041.34610	1.21193
3039.41754	1.21119
3037.48898	1.21000
3035.56041	1.20858
3033.63185	1.20670
3031.70328	1.20453
3029.77472	1.20254
3027.84615	1.20038
3025.91759	1.19908
3023.98903	1.19933
3022.06046	1.19858
3020.13190	1.19581
3018.20333	1.19340
3016.27477	1.19246
3014.34620	1.19227
3012.41764	1.19180
3010.48907	1.19022
3008.56051	1.18824
3006.63195	1.18729
3004.70338	1.18734
3002.77482	1.18728
3000.84625	1.18627
2998.91769	1.18388
2996.98912	1.18145
2995.06056	1.18054
2993.13199	1.18093
2991.20343	1.18296
2989.27487	1.18645
2987.34630	1.18901
2985.41774	1.18943
2983.48917	1.18895
2981.56061	1.18967
2979.63204	1.19297
2977.70348	1.19702
2975.77491	1.19932
2973.84635	1.20130
2971.91779	1.20529
2969.98922	1.21056
2968.06066	1.21448
2966.13209	1.21577
2964.20353	1.21607
2962.27496	1.21716
2960.34640	1.21924
2958.41783	1.22069
2956.48927	1.21995
2954.56071	1.21810
2952.63214	1.21648
2950.70358	1.21565
2948.77501	1.21583
2946.84645	1.21676
2944.91788	1.21898
2942.98932	1.22310
2941.06075	1.22820
2939.13219	1.23217
2937.20363	1.23383
2935.27506	1.23574
2933.34650	1.24054
2931.41793	1.24620
2929.48937	1.25052
2927.56080	1.25348
2925.63224	1.25553
2923.70367	1.25837
2921.77511	1.26240
2919.84655	1.26501
2917.91798	1.26287
2915.98942	1.25570
2914.06085	1.24677
2912.13229	1.23846
2910.20372	1.23143
2908.27516	1.22614
2906.34659	1.22213
2904.41803	1.21847
2902.48947	1.21556
2900.56090	1.21348
2898.63234	1.21059
2896.70377	1.20693
2894.77521	1.20385
2892.84664	1.20190
2890.91808	1.20044
2888.98952	1.19730
2887.06095	1.19235
2885.13239	1.18925
2883.20382	1.19002
2881.27526	1.19181
2879.34669	1.19163
2877.41813	1.18976
2875.48956	1.18769
2873.56100	1.18622
2871.63244	1.18437
2869.70387	1.18159
2867.77531	1.17962
2865.84674	1.17922
2863.91818	1.17898
2861.98961	1.17854
2860.06105	1.17995
2858.13248	1.18422
2856.20392	1.18900
2854.27536	1.19292
2852.34679	1.19677
2850.41823	1.19763
2848.48966	1.19098
2846.56110	1.17883
2844.63253	1.16653
2842.70397	1.15627
2840.77540	1.14792
2838.84684	1.14206
2836.91828	1.13858
2834.98971	1.13556
2833.06115	1.13244
2831.13258	1.13013
2829.20402	1.12848
2827.27545	1.12613
2825.34689	1.12241
2823.41832	1.11901
2821.48976	1.11657
2819.56120	1.11369
2817.63263	1.11121
2815.70407	1.11079
2813.77550	1.11116
2811.84694	1.11049
2809.91837	1.10926
2807.98981	1.10854
2806.06124	1.10839
2804.13268	1.10799
2802.20412	1.10598
2800.27555	1.10258
2798.34699	1.09964
2796.41842	1.09771
2794.48986	1.09644
2792.56129	1.09617
2790.63273	1.09642
2788.70416	1.09533
2786.77560	1.09261
2784.84704	1.09012
2782.91847	1.08888
2780.98991	1.08836
2779.06134	1.08788
2777.13278	1.08695
2775.20421	1.08499
2773.27565	1.08259
2771.34708	1.08079
2769.41852	1.07875
2767.48996	1.07604
2765.56139	1.07374
2763.63283	1.07197
2761.70426	1.07075
2759.77570	1.06995
2757.84713	1.06854
2755.91857	1.06680
2753.99001	1.06554
2752.06144	1.06433
2750.13288	1.06300
2748.20431	1.06214
2746.27575	1.06202
2744.34718	1.06235
2742.41862	1.06236
2740.49005	1.06181
2738.56149	1.06115
2736.63293	1.06044
2734.70436	1.05987
2732.77580	1.05951
2730.84723	1.05876
2728.91867	1.05781
2726.99010	1.05680
2725.06154	1.05567
2723.13297	1.05533
2721.20441	1.05554
2719.27585	1.05487
2717.34728	1.05349
2715.41872	1.05245
2713.49015	1.05138
2711.56159	1.04957
2709.63302	1.04722
2707.70446	1.04498
2705.77589	1.04360
2703.84733	1.04288
2701.91877	1.04188
2699.99020	1.04064
2698.06164	1.03981
2696.13307	1.03908
2694.20451	1.03771
2692.27594	1.03602
2690.34738	1.03438
2688.41881	1.03293
2686.49025	1.03204
2684.56169	1.03130
2682.63312	1.02992
2680.70456	1.02778
2678.77599	1.02617
2676.84743	1.02582
2674.91886	1.02559
2672.99030	1.02451
2671.06173	1.02232
2669.13317	1.02014
2667.20461	1.01939
2665.27604	1.01923
2663.34748	1.01869
2661.41891	1.01820
2659.49035	1.01773
2657.56178	1.01684
2655.63322	1.01578
2653.70465	1.01458
2651.77609	1.01340
2649.84753	1.01272
2647.91896	1.01218
2645.99040	1.01155
2644.06183	1.01110
2642.13327	1.01069
2640.20470	1.01000
2638.27614	1.00896
2636.34757	1.00765
2634.41901	1.00625
2632.49045	1.00521
2630.56188	1.00457
2628.63332	1.00402
2626.70475	1.00321
2624.77619	1.00145
2622.84762	0.99916
2620.91906	0.99767
2618.99049	0.99650
2617.06193	0.99438
2615.13337	0.99173
2613.20480	0.98955
2611.27624	0.98798
2609.34767	0.98646
2607.41911	0.98425
2605.49054	0.98157
2603.56198	0.97936
2601.63342	0.97764
2599.70485	0.97617
2597.77629	0.97526
2595.84772	0.97452
2593.91916	0.97294
2591.99059	0.97041
2590.06203	0.96770
2588.13346	0.96567
2586.20490	0.96417
2584.27634	0.96284
2582.34777	0.96218
2580.41921	0.96184
2578.49064	0.96058
2576.56208	0.95883
2574.63351	0.95785
2572.70495	0.95752
2570.77638	0.95742
2568.84782	0.95735
2566.91926	0.95685
2564.99069	0.95614
2563.06213	0.95571
2561.13356	0.95521
2559.20500	0.95452
2557.27643	0.95404
2555.34787	0.95349
2553.41930	0.95267
2551.49074	0.95205
2549.56218	0.95118
2547.63361	0.94914
2545.70505	0.94677
2543.77648	0.94534
2541.84792	0.94445
2539.91935	0.94334
2537.99079	0.94171
2536.06222	0.93966
2534.13366	0.93788
2532.20510	0.93681
2530.27653	0.93586
2528.34797	0.93434
2526.41940	0.93274
2524.49084	0.93197
2522.56227	0.93171
2520.63371	0.93080
2518.70514	0.92916
2516.77658	0.92781
2514.84802	0.92669
2512.91945	0.92533
2510.99089	0.92428
2509.06232	0.92377
2507.13376	0.92309
2505.20519	0.92177
2503.27663	0.92039
2501.34806	0.91940
2499.41950	0.91826
2497.49094	0.91646
2495.56237	0.91423
2493.63381	0.91245
2491.70524	0.91122
2489.77668	0.90959
2487.84811	0.90769
2485.91955	0.90597
2483.99098	0.90378
2482.06242	0.90099
2480.13386	0.89808
2478.20529	0.89501
2476.27673	0.89234
2474.34816	0.89010
2472.41960	0.88741
2470.49103	0.88500
2468.56247	0.88354
2466.63391	0.88187
2464.70534	0.87954
2462.77678	0.87734
2460.84821	0.87595
2458.91965	0.87554
2456.99108	0.87538
2455.06252	0.87475
2453.13395	0.87391
2451.20539	0.87320
2449.27683	0.87282
2447.34826	0.87311
2445.41970	0.87407
2443.49113	0.87492
2441.56257	0.87486
2439.63400	0.87417
2437.70544	0.87355
2435.77687	0.87297
2433.84831	0.87210
2431.91975	0.87115
2429.99118	0.87043
2428.06262	0.86976
2426.13405	0.86916
2424.20549	0.86860
2422.27692	0.86745
2420.34836	0.86581
2418.41979	0.86446
2416.49123	0.86349
2414.56267	0.86252
2412.63410	0.86141
2410.70554	0.86034
2408.77697	0.85947
2406.84841	0.85884
2404.91984	0.85811
2402.99128	0.85685
2401.06271	0.85548
2399.13415	0.85466
2397.20559	0.85412
2395.27702	0.85331
2393.34846	0.85218
2391.41989	0.85087
2389.49133	0.84968
2387.56276	0.84874
2385.63420	0.84754
2383.70563	0.84577
2381.77707	0.84398
2379.84851	0.84305
2377.91994	0.84286
2375.99138	0.84230
2374.06281	0.84078
2372.13425	0.83848
2370.20568	0.83597
2368.27712	0.83434
2366.34855	0.83372
2364.41999	0.83391
2362.49143	0.83553
2360.56286	0.83691
2358.63430	0.83569
2356.70573	0.83465
2354.77717	0.83720
2352.84860	0.84008
2350.92004	0.83864
2348.99147	0.83434
2347.06291	0.83073
2345.13435	0.83042
2343.20578	0.83269
2341.27722	0.83404
2339.34865	0.83433
2337.42009	0.83479
2335.49152	0.83495
2333.56296	0.83484
2331.63440	0.83540
2329.70583	0.83519
2327.77727	0.83316
2325.84870	0.83123
2323.92014	0.83084
2321.99157	0.83156
2320.06301	0.83174
2318.13444	0.83094
2316.20588	0.82980
2314.27732	0.82821
2312.34875	0.82655
2310.42019	0.82546
2308.49162	0.82452
2306.56306	0.82334
2304.63449	0.82223
2302.70593	0.82143
2300.77736	0.82081
2298.84880	0.82031
2296.92024	0.82000
2294.99167	0.81972
2293.06311	0.81912
2291.13454	0.81843
2289.20598	0.81821
2287.27741	0.81830
2285.34885	0.81814
2283.42028	0.81762
2281.49172	0.81698
2279.56316	0.81640
2277.63459	0.81590
2275.70603	0.81557
2273.77746	0.81543
2271.84890	0.81495
2269.92033	0.81406
2267.99177	0.81355
2266.06320	0.81352
2264.13464	0.81329
2262.20608	0.81284
2260.27751	0.81270
2258.34895	0.81273
2256.42038	0.81248
2254.49182	0.81216
2252.56325	0.81196
2250.63469	0.81180
2248.70612	0.81202
2246.77756	0.81253
2244.84900	0.81278
2242.92043	0.81308
2240.99187	0.81351
2239.06330	0.81338
2237.13474	0.81267
2235.20617	0.81196
2233.27761	0.81167
2231.34904	0.81182
2229.42048	0.81213
2227.49192	0.81224
2225.56335	0.81205
2223.63479	0.81185
2221.70622	0.81176
2219.77766	0.81164
2217.84909	0.81177
2215.92053	0.81216
2213.99196	0.81206
2212.06340	0.81161
2210.13484	0.81187
2208.20627	0.81263
2206.27771	0.81309
2204.34914	0.81345
2202.42058	0.81403
2200.49201	0.81457
2198.56345	0.81495
2196.63488	0.81535
2194.70632	0.81572
2192.77776	0.81595
2190.84919	0.81591
2188.92063	0.81572
2186.99206	0.81571
2185.06350	0.81584
2183.13493	0.81585
2181.20637	0.81574
2179.27781	0.81551
2177.34924	0.81509
2175.42068	0.81448
2173.49211	0.81366
2171.56355	0.81278
2169.63498	0.81196
2167.70642	0.81128
2165.77785	0.81073
2163.84929	0.81011
2161.92073	0.80929
2159.99216	0.80851
2158.06360	0.80786
2156.13503	0.80719
2154.20647	0.80655
2152.27790	0.80601
2150.34934	0.80550
2148.42077	0.80497
2146.49221	0.80435
2144.56365	0.80374
2142.63508	0.80349
2140.70652	0.80361
2138.77795	0.80361
2136.84939	0.80318
2134.92082	0.80259
2132.99226	0.80198
2131.06369	0.80113
2129.13513	0.80005
2127.20657	0.79905
2125.27800	0.79832
2123.34944	0.79798
2121.42087	0.79765
2119.49231	0.79668
2117.56374	0.79519
2115.63518	0.79375
2113.70661	0.79248
2111.77805	0.79134
2109.84949	0.79036
2107.92092	0.78940
2105.99236	0.78831
2104.06379	0.78704
2102.13523	0.78561
2100.20666	0.78430
2098.27810	0.78355
2096.34953	0.78308
2094.42097	0.78225
2092.49241	0.78109
2090.56384	0.77992
2088.63528	0.77881
2086.70671	0.77783
2084.77815	0.77699
2082.84958	0.77607
2080.92102	0.77494
2078.99245	0.77361
2077.06389	0.77240
2075.13533	0.77145
2073.20676	0.77043
2071.27820	0.76915
2069.34963	0.76749
2067.42107	0.76522
2065.49250	0.76271
2063.56394	0.76048
2061.63537	0.75851
2059.70681	0.75666
2057.77825	0.75471
2055.84968	0.75248
2053.92112	0.75019
2051.99255	0.74794
2050.06399	0.74571
2048.13542	0.74393
2046.20686	0.74282
2044.27830	0.74175
2042.34973	0.74040
2040.42117	0.73931
2038.49260	0.73847
2036.56404	0.73771
2034.63547	0.73706
2032.70691	0.73620
2030.77834	0.73500
2028.84978	0.73394
2026.92122	0.73318
2024.99265	0.73243
2023.06409	0.73153
2021.13552	0.73036
2019.20696	0.72915
2017.27839	0.72842
2015.34983	0.72788
2013.42126	0.72690
2011.49270	0.72573
2009.56414	0.72467
2007.63557	0.72363
2005.70701	0.72252
2003.77844	0.72127
2001.84988	0.71994
1999.92131	0.71884
1997.99275	0.71794
1996.06418	0.71678
1994.13562	0.71562
1992.20706	0.71494
1990.27849	0.71426
1988.34993	0.71343
1986.42136	0.71283
1984.49280	0.71216
1982.56423	0.71134
1980.63567	0.71065
1978.70710	0.71018
1976.77854	0.70972
1974.84998	0.70906
1972.92141	0.70826
1970.99285	0.70727
1969.06428	0.70659
1967.13572	0.70668
1965.20715	0.70657
1963.27859	0.70587
1961.35002	0.70536
1959.42146	0.70506
1957.49290	0.70456
1955.56433	0.70394
1953.63577	0.70346
1951.70720	0.70315
1949.77864	0.70270
1947.85007	0.70169
1945.92151	0.70033
1943.99294	0.69955
1942.06438	0.69955
1940.13582	0.69894
1938.20725	0.69742
1936.27869	0.69586
1934.35012	0.69461
1932.42156	0.69344
1930.49299	0.69202
1928.56443	0.69027
1926.63586	0.68818
1924.70730	0.68623
1922.77874	0.68496
1920.85017	0.68349
1918.92161	0.68164
1916.99304	0.68011
1915.06448	0.67852
1913.13591	0.67676
1911.20735	0.67557
1909.27878	0.67505
1907.35022	0.67447
1905.42166	0.67390
1903.49309	0.67402
1901.56453	0.67464
1899.63596	0.67533
1897.70740	0.67621
1895.77883	0.67771
1893.85027	0.67963
1891.92171	0.68180
1889.99314	0.68490
1888.06458	0.68805
1886.13601	0.69021
1884.20745	0.69246
1882.27888	0.69500
1880.35032	0.69728
1878.42175	0.69912
1876.49319	0.70027
1874.56463	0.70066
1872.63606	0.70051
1870.70750	0.70087
1868.77893	0.70306
1866.85037	0.70490
1864.92180	0.70447
1862.99324	0.70347
1861.06467	0.70295
1859.13611	0.70283
1857.20755	0.70278
1855.27898	0.70277
1853.35042	0.70290
1851.42185	0.70308
1849.49329	0.70308
1847.56472	0.70298
1845.63616	0.70409
1843.70759	0.70722
1841.77903	0.70895
1839.85047	0.70890
1837.92190	0.70953
1835.99334	0.71102
1834.06477	0.71184
1832.13621	0.71234
1830.20764	0.71477
1828.27908	0.71800
1826.35051	0.71980
1824.42195	0.72160
1822.49339	0.72311
1820.56482	0.72408
1818.63626	0.72552
1816.70769	0.72723
1814.77913	0.72861
1812.85056	0.73010
1810.92200	0.73243
1808.99343	0.73495
1807.06487	0.73684
1805.13631	0.73825
1803.20774	0.73970
1801.27918	0.74224
1799.35061	0.74547
1797.42205	0.74755
1795.49348	0.74841
1793.56492	0.75074
1791.63635	0.75614
1789.70779	0.75934
1787.77923	0.75960
1785.85066	0.76019
1783.92210	0.76155
1781.99353	0.76284
1780.06497	0.76420
1778.13640	0.76473
1776.20784	0.76384
1774.27927	0.76337
1772.35071	0.76567
1770.42215	0.76800
1768.49358	0.76765
1766.56502	0.76602
1764.63645	0.76415
1762.70789	0.76395
1760.77932	0.76567
1758.85076	0.76663
1756.92220	0.76754
1754.99363	0.76839
1753.06507	0.76874
1751.13650	0.77091
1749.20794	0.77542
1747.27937	0.77893
1745.35081	0.78097
1743.42224	0.78262
1741.49368	0.78456
1739.56512	0.78667
1737.63655	0.78704
1735.70799	0.78733
1733.77942	0.79251
1731.85086	0.79734
1729.92229	0.79882
1727.99373	0.80037
1726.06516	0.80215
1724.13660	0.80476
1722.20804	0.80714
1720.27947	0.80835
1718.35091	0.81266
1716.42234	0.82524
1714.49378	0.83561
1712.56521	0.84060
1710.63665	0.84438
1708.70808	0.84880
1706.77952	0.85688
1704.85096	0.86815
1702.92239	0.87704
1700.99383	0.88975
1699.06526	0.91099
1697.13670	0.93020
1695.20813	0.94767
1693.27957	0.95841
1691.35100	0.96614
1689.42244	0.97686
1687.49388	0.98609
1685.56531	0.99558
1683.63675	1.01552
1681.70818	1.02926
1679.77962	1.03435
1677.85105	1.03891
1675.92249	1.04643
1673.99392	1.05453
1672.06536	1.05901
1670.13680	1.06716
1668.20823	1.07857
1666.27967	1.08261
1664.35110	1.08463
1662.42254	1.09076
1660.49397	1.09722
1658.56541	1.09956
1656.63684	1.09903
1654.70828	1.10063
1652.77972	1.11206
1650.85115	1.11546
1648.92259	1.11283
1646.99402	1.11437
1645.06546	1.11675
1643.13689	1.11545
1641.20833	1.11378
1639.27976	1.11225
1637.35120	1.11227
1635.42264	1.11696
1633.49407	1.11882
1631.56551	1.11693
1629.63694	1.11518
1627.70838	1.11363
1625.77981	1.11057
1623.85125	1.10651
1621.92269	1.10174
1619.99412	1.09579
1618.06556	1.08995
1616.13699	1.08557
1614.20843	1.08074
1612.27986	1.07474
1610.35130	1.06900
1608.42273	1.06415
1606.49417	1.06014
1604.56561	1.05698
1602.63704	1.05484
1600.70848	1.05351
1598.77991	1.05221
1596.85135	1.05102
1594.92278	1.05066
1592.99422	1.05076
1591.06565	1.05061
1589.13709	1.05067
1587.20853	1.05176
1585.27996	1.05380
1583.35140	1.05605
1581.42283	1.05739
1579.49427	1.05765
1577.56570	1.06043
1575.63714	1.06817
1573.70857	1.07156
1571.78001	1.07176
1569.85145	1.07513
1567.92288	1.07919
1565.99432	1.08009
1564.06575	1.08005
1562.13719	1.07940
1560.20862	1.08134
1558.28006	1.09129
1556.35149	1.09306
1554.42293	1.09116
1552.49437	1.09041
1550.56580	1.09087
1548.63724	1.09170
1546.70867	1.09110
1544.78011	1.08901
1542.85154	1.08608
1540.92298	1.08676
1538.99441	1.09056
1537.06585	1.08861
1535.13729	1.08577
1533.20872	1.08588
1531.28016	1.08616
1529.35159	1.08421
1527.42303	1.08229
1525.49446	1.08124
1523.56590	1.08073
1521.63733	1.08280
1519.70877	1.08510
1517.78021	1.08422
1515.85164	1.08185
1513.92308	1.07898
1511.99451	1.07555
1510.06595	1.07101
1508.13738	1.06545
1506.20882	1.06268
1504.28025	1.05960
1502.35169	1.05423
1500.42313	1.04813
1498.49456	1.04253
1496.56600	1.03671
1494.63743	1.02928
1492.70887	1.02148
1490.78030	1.01343
1488.85174	1.00529
1486.92317	0.99752
1484.99461	0.98977
1483.06605	0.98273
1481.13748	0.97710
1479.20892	0.97309
1477.28035	0.97071
1475.35179	0.97119
1473.42322	0.97728
1471.49466	0.98495
1469.56610	0.98765
1467.63753	0.98918
1465.70897	0.99320
1463.78040	0.99783
1461.85184	0.99878
1459.92327	0.99808
1457.99471	1.00193
1456.06614	1.01042
1454.13758	1.01193
1452.20902	1.01063
1450.28045	1.01016
1448.35189	1.01158
1446.42332	1.01311
1444.49476	1.01241
1442.56619	1.01025
1440.63763	1.00746
1438.70906	1.00436
1436.78050	1.00252
1434.85194	1.00121
1432.92337	0.99813
1430.99481	0.99466
1429.06624	0.99223
1427.13768	0.99031
1425.20911	0.98884
1423.28055	0.98805
1421.35198	0.98761
1419.42342	0.98864
1417.49486	0.99046
1415.56629	0.99037
1413.63773	0.98938
1411.70916	0.98826
1409.78060	0.98724
1407.85203	0.98672
1405.92347	0.98721
1403.99490	0.98813
1402.06634	0.98825
1400.13778	0.98844
1398.20921	0.98903
1396.28065	0.98903
1394.35208	0.98882
1392.42352	0.98838
1390.49495	0.98800
1388.56639	0.98978
1386.63782	0.99427
1384.70926	0.99798
1382.78070	1.00016
1380.85213	1.00245
1378.92357	1.00471
1376.99500	1.00567
1375.06644	1.00500
1373.13787	1.00264
1371.20931	0.99869
1369.28074	0.99398
1367.35218	0.98881
1365.42362	0.98307
1363.49505	0.97715
1361.56649	0.97235
1359.63792	0.96885
1357.70936	0.96578
1355.78079	0.96340
1353.85223	0.96198
1351.92366	0.96051
1349.99510	0.95841
1348.06654	0.95643
1346.13797	0.95505
1344.20941	0.95399
1342.28084	0.95331
1340.35228	0.95403
1338.42371	0.95653
1336.49515	0.95893
1334.56659	0.96099
1332.63802	0.96359
1330.70946	0.96632
1328.78089	0.96835
1326.85233	0.96948
1324.92376	0.96999
1322.99520	0.97034
1321.06663	0.97068
1319.13807	0.97098
1317.20951	0.97105
1315.28094	0.97096
1313.35238	0.97105
1311.42381	0.97082
1309.49525	0.96968
1307.56668	0.96785
1305.63812	0.96585
1303.70955	0.96412
1301.78099	0.96251
1299.85243	0.96033
1297.92386	0.95725
1295.99530	0.95407
1294.06673	0.95172
1292.13817	0.95017
1290.20960	0.94912
1288.28104	0.94879
1286.35247	0.94919
1284.42391	0.95014
1282.49535	0.95183
1280.56678	0.95425
1278.63822	0.95711
1276.70965	0.95993
1274.78109	0.96259
1272.85252	0.96566
1270.92396	0.96931
1268.99539	0.97285
1267.06683	0.97584
1265.13827	0.97828
1263.20970	0.97998
1261.28114	0.98100
1259.35257	0.98159
1257.42401	0.98167
1255.49544	0.98119
1253.56688	0.98030
1251.63831	0.97908
1249.70975	0.97761
1247.78119	0.97618
1245.85262	0.97470
1243.92406	0.97277
1241.99549	0.97040
1240.06693	0.96770
1238.13836	0.96475
1236.20980	0.96182
1234.28123	0.95873
1232.35267	0.95532
1230.42411	0.95190
1228.49554	0.94870
1226.56698	0.94581
1224.63841	0.94334
1222.70985	0.94143
1220.78128	0.94032
1218.85272	0.94017
1216.92415	0.94099
1214.99559	0.94305
1213.06703	0.94666
1211.13846	0.95126
1209.20990	0.95562
1207.28133	0.95932
1205.35277	0.96217
1203.42420	0.96345
1201.49564	0.96309
1199.56708	0.96172
1197.63851	0.95975
1195.70995	0.95747
1193.78138	0.95545
1191.85282	0.95401
1189.92425	0.95314
1187.99569	0.95304
1186.06712	0.95390
1184.13856	0.95584
1182.21000	0.95906
1180.28143	0.96338
1178.35287	0.96807
1176.42430	0.97307
1174.49574	0.97889
1172.56717	0.98509
1170.63861	0.99112
1168.71004	0.99665
1166.78148	1.00101
1164.85292	1.00373
1162.92435	1.00523
1160.99579	1.00615
1159.06722	1.00595
1157.13866	1.00374
1155.21009	0.99996
1153.28153	0.99580
1151.35296	0.99219
1149.42440	0.98935
1147.49584	0.98719
1145.56727	0.98598
1143.63871	0.98590
1141.71014	0.98660
1139.78158	0.98804
1137.85301	0.99080
1135.92445	0.99473
1133.99588	0.99877
1132.06732	1.00209
1130.13876	1.00493
1128.21019	1.00772
1126.28163	1.01048
1124.35306	1.01356
1122.42450	1.01646
1120.49593	1.01754
1118.56737	1.01687
1116.63880	1.01604
1114.71024	1.01538
1112.78168	1.01418
1110.85311	1.01207
1108.92455	1.00898
1106.99598	1.00515
1105.06742	1.00133
1103.13885	0.99850
1101.21029	0.99646
1099.28172	0.99358
1097.35316	0.99007
1095.42460	0.98804
1093.49603	0.98747
1091.56747	0.98697
1089.63890	0.98695
1087.71034	0.98822
1085.78177	0.99008
1083.85321	0.99191
1081.92464	0.99380
1079.99608	0.99546
1078.06752	0.99694
1076.13895	0.99873
1074.21039	1.00076
1072.28182	1.00286
1070.35326	1.00520
1068.42469	1.00722
1066.49613	1.00743
1064.56756	1.00600
1062.63900	1.00505
1060.71044	1.00475
1058.78187	1.00312
1056.85331	0.99958
1054.92474	0.99536
1052.99618	0.99158
1051.06761	0.98830
1049.13905	0.98507
1047.21049	0.98196
1045.28192	0.97878
1043.35336	0.97569
1041.42479	0.97318
1039.49623	0.97044
1037.56766	0.96685
1035.63910	0.96337
1033.71053	0.96052
1031.78197	0.95783
1029.85341	0.95512
1027.92484	0.95278
1025.99628	0.95075
1024.06771	0.94865
1022.13915	0.94653
1020.21058	0.94473
1018.28202	0.94370
1016.35345	0.94363
1014.42489	0.94391
1012.49633	0.94389
1010.56776	0.94337
1008.63920	0.94217
1006.71063	0.94101
1004.78207	0.94101
1002.85350	0.94169
1000.92494	0.94229
998.99637	0.94275
997.06781	0.94298
995.13925	0.94321
993.21068	0.94369
991.28212	0.94371
989.35355	0.94243
987.42499	0.93943
985.49642	0.93437
983.56786	0.92733
981.63929	0.91907
979.71073	0.91005
977.78217	0.90011
975.85360	0.88928
973.92504	0.87772
971.99647	0.86573
970.06791	0.85377
968.13934	0.84234
966.21078	0.83242
964.28221	0.82516
962.35365	0.82088
960.42509	0.81974
958.49652	0.82206
956.56796	0.82635
954.63939	0.82954
952.71083	0.83042
950.78226	0.83075
948.85370	0.83252
946.92513	0.83601
944.99657	0.84063
943.06801	0.84612
941.13944	0.85201
939.21088	0.85755
937.28231	0.86264
935.35375	0.86751
933.42518	0.87214
931.49662	0.87643
929.56805	0.88009
927.63949	0.88301
925.71093	0.88494
923.78236	0.88559
921.85380	0.88530
919.92523	0.88434
917.99667	0.88291
916.06810	0.88140
914.13954	0.88022
912.21098	0.88019
910.28241	0.88142
908.35385	0.88299
906.42528	0.88465
904.49672	0.88690
902.56815	0.88943
900.63959	0.89139
898.71102	0.89272
896.78246	0.89370
894.85390	0.89446
892.92533	0.89516
890.99677	0.89558
889.06820	0.89544
887.13964	0.89530
885.21107	0.89570
883.28251	0.89636
881.35394	0.89667
879.42538	0.89642
877.49682	0.89588
875.56825	0.89515
873.63969	0.89418
871.71112	0.89293
869.78256	0.89113
867.85399	0.88891
865.92543	0.88708
863.99686	0.88613
862.06830	0.88590
860.13974	0.88611
858.21117	0.88685
856.28261	0.88788
854.35404	0.88863
852.42548	0.88917
850.49691	0.89026
848.56835	0.89261
846.63978	0.89611
844.71122	0.90016
842.78266	0.90456
840.85409	0.90904
838.92553	0.91332
836.99696	0.91775
835.06840	0.92236
833.13983	0.92660
831.21127	0.93052
829.28270	0.93434
827.35414	0.93751
825.42558	0.93954
823.49701	0.94054
821.56845	0.94078
819.63988	0.94083
817.71132	0.94120
815.78275	0.94173
813.85419	0.94169
811.92562	0.94034
809.99706	0.93801
808.06850	0.93631
806.13993	0.93605
804.21137	0.93598
802.28280	0.93521
800.35424	0.93428
798.42567	0.93330
796.49711	0.93206
794.56854	0.93064
792.63998	0.92877
790.71142	0.92641
788.78285	0.92440
786.85429	0.92319
784.92572	0.92185
782.99716	0.91999
781.06859	0.91854
779.14003	0.91777
777.21147	0.91666
775.28290	0.91519
773.35434	0.91473
771.42577	0.91488
769.49721	0.91439
767.56864	0.91396
765.64008	0.91414
763.71151	0.91432
761.78295	0.91447
759.85439	0.91487
757.92582	0.91526
755.99726	0.91563
754.06869	0.91636
752.14013	0.91698
750.21156	0.91694
748.28300	0.91678
746.35443	0.91696
744.42587	0.91723
742.49731	0.91734
740.56874	0.91728
738.64018	0.91737
736.71161	0.91807
734.78305	0.91933
732.85448	0.92028
730.92592	0.92027
728.99735	0.91986
727.06879	0.91973
725.14023	0.91922
723.21166	0.91777
721.28310	0.91648
719.35453	0.91620
717.42597	0.91609
715.49740	0.91559
713.56884	0.91500
711.64027	0.91465
709.71171	0.91480
707.78315	0.91553
705.85458	0.91643
703.92602	0.91729
701.99745	0.91870
700.06889	0.92062
698.14032	0.92237
696.21176	0.92387
694.28319	0.92470
692.35463	0.92470
690.42607	0.92592
688.49750	0.92987
686.56894	0.93469
684.64037	0.93845
682.71181	0.94136
680.78324	0.94386
678.85468	0.94625
676.92611	0.94908
674.99755	0.95306
673.06899	0.95652
671.14042	0.95690
669.21186	0.95650
667.28329	0.95979
665.35473	0.96158
663.42616	0.96066
661.49760	0.95992
659.56903	0.96042
657.64047	0.96108
655.71191	0.96042
653.78334	0.95833
651.85478	0.95650
649.92621	0.95548
647.99765	0.95440
646.06908	0.95261
644.14052	0.94939
642.21195	0.94541
640.28339	0.94146
638.35483	0.93768
636.42626	0.93581
634.49770	0.93611
632.56913	0.93548
630.64057	0.93312
628.71200	0.93063
626.78344	0.92826
624.85488	0.92649
622.92631	0.92594
620.99775	0.92560
619.06918	0.92531
617.14062	0.92639
615.21205	0.92848
613.28349	0.92991
611.35492	0.93126
609.42636	0.93335
607.49780	0.93447
605.56923	0.93335
603.64067	0.93164
601.71210	0.93091
599.78354	0.93135
