3997.91406	0.69330
3995.98550	0.69314
3994.05693	0.69340
3992.12837	0.69335
3990.19980	0.69327
3988.27124	0.69320
3986.34268	0.69239
3984.41411	0.69142
3982.48555	0.69153
3980.55698	0.69238
3978.62842	0.69225
3976.69985	0.69082
3974.77129	0.68967
3972.84272	0.68928
3970.91416	0.68900
3968.98560	0.68903
3967.05703	0.68938
3965.12847	0.68922
3963.19990	0.68830
3961.27134	0.68723
3959.34277	0.68663
3957.41421	0.68627
3955.48564	0.68541
3953.55708	0.68464
3951.62852	0.68464
3949.69995	0.68517
3947.77139	0.68579
3945.84282	0.68557
3943.91426	0.68544
3941.98569	0.68570
3940.05713	0.68490
3938.12856	0.68420
3936.20000	0.68410
3934.27144	0.68393
3932.34287	0.68459
3930.41431	0.68562
3928.48574	0.68482
3926.55718	0.68327
3924.62861	0.68320
3922.70005	0.68275
3920.77148	0.68042
3918.84292	0.67942
3916.91436	0.68186
3914.98579	0.68433
3913.05723	0.68424
3911.12866	0.68245
3909.20010	0.67946
3907.27153	0.67606
3905.34297	0.67504
3903.41440	0.67729
3901.48584	0.67970
3899.55728	0.68141
3897.62871	0.68104
3895.70015	0.67804
3893.77158	0.67586
3891.84302	0.67809
3889.91445	0.67930
3887.98589	0.67600
3886.05733	0.67427
3884.12876	0.67543
3882.20020	0.67566
3880.27163	0.67692
3878.34307	0.67620
3876.41450	0.67306
3874.48594	0.67130
3872.55737	0.66976
3870.62881	0.66968
3868.70025	0.67250
3866.77168	0.67353
3864.84312	0.67504
3862.91455	0.67672
3860.98599	0.67447
3859.05742	0.67022
3857.12886	0.66523
3855.20029	0.66214
3853.27173	0.66948
3851.34317	0.67447
3849.41460	0.67079
3847.48604	0.66682
3845.55747	0.66512
3843.62891	0.66468
3841.70034	0.66320
3839.77178	0.66231
3837.84321	0.66525
3835.91465	0.66719
3833.98609	0.66662
3832.05752	0.66629
3830.12896	0.66521
3828.20039	0.66303
3826.27183	0.66092
3824.34326	0.65783
3822.41470	0.65670
3820.48613	0.66030
3818.55757	0.65963
3816.62901	0.65854
3814.70044	0.66034
3812.77188	0.65871
3810.84331	0.65455
3808.91475	0.65217
3806.98618	0.65358
3805.05762	0.65285
3803.12905	0.65049
3801.20049	0.65370
3799.27193	0.65631
3797.34336	0.65575
3795.41480	0.65481
3793.48623	0.65265
3791.55767	0.65042
3789.62910	0.64906
3787.70054	0.64847
3785.77197	0.64919
3783.84341	0.64976
3781.91485	0.64902
3779.98628	0.64989
3778.05772	0.65170
3776.12915	0.65071
3774.20059	0.64801
3772.27202	0.64607
3770.34346	0.64711
3768.41489	0.64946
3766.48633	0.65076
3764.55777	0.65109
3762.62920	0.64927
3760.70064	0.64818
3758.77207	0.65075
3756.84351	0.65158
3754.91494	0.64762
3752.98638	0.64269
3751.05781	0.64531
3749.12925	0.65013
3747.20069	0.64759
3745.27212	0.64844
3743.34356	0.65428
3741.41499	0.65308
3739.48643	0.64685
3737.55786	0.64143
3735.62930	0.64256
3733.70074	0.64863
3731.77217	0.64983
3729.84361	0.64682
3727.91504	0.64399
3725.98648	0.64421
3724.05791	0.64701
3722.12935	0.64894
3720.20078	0.64827
3718.27222	0.64596
3716.34366	0.64291
3714.41509	0.63951
3712.48653	0.64006
3710.55796	0.64750
3708.62940	0.65069
3706.70083	0.64854
3704.77227	0.64610
3702.84370	0.64679
3700.91514	0.64946
3698.98658	0.64963
3697.05801	0.64907
3695.12945	0.64910
3693.20088	0.64814
3691.27232	0.64834
3689.34375	0.65501
3687.41519	0.65999
3685.48662	0.65863
3683.55806	0.65705
3681.62950	0.65796
3679.70093	0.65880
3677.77237	0.65871
3675.84380	0.66657
3673.91524	0.67415
3671.98667	0.67167
3670.05811	0.67344
3668.12954	0.67993
3666.20098	0.68186
3664.27242	0.68279
3662.34385	0.68539
3660.41529	0.68835
3658.48672	0.69148
3656.55816	0.69736
3654.62959	0.70136
3652.70103	0.70096
3650.77246	0.70566
3648.84390	0.72339
3646.91534	0.73328
3644.98677	0.73403
3643.05821	0.73488
3641.12964	0.73787
3639.20108	0.74177
3637.27251	0.74558
3635.34395	0.75047
3633.41538	0.75562
3631.48682	0.75886
3629.55826	0.76892
3627.62969	0.78695
3625.70113	0.79397
3623.77256	0.79519
3621.84400	0.79804
3619.91543	0.80857
3617.98687	0.82146
3616.05830	0.82580
3614.12974	0.82945
3612.20118	0.83630
3610.27261	0.84236
3608.34405	0.85045
3606.41548	0.85922
3604.48692	0.86341
3602.55835	0.86661
3600.62979	0.87236
3598.70123	0.87857
3596.77266	0.88406
3594.84410	0.89104
3592.91553	0.89821
3590.98697	0.90276
3589.05840	0.90845
3587.12984	0.92048
3585.20127	0.93140
3583.27271	0.93688
3581.34415	0.94238
3579.41558	0.95066
3577.48702	0.95921
3575.55845	0.96670
3573.62989	0.97369
3571.70132	0.97997
3569.77276	0.98603
3567.84419	0.99492
3565.91563	1.00615
3563.98707	1.01380
3562.05850	1.02006
3560.12994	1.02744
3558.20137	1.03611
3556.27281	1.04390
3554.34424	1.04978
3552.41568	1.05726
3550.48711	1.06575
3548.55855	1.07343
3546.62999	1.08422
3544.70142	1.09764
3542.77286	1.10679
3540.84429	1.11094
3538.91573	1.11397
3536.98716	1.11921
3535.05860	1.12698
3533.13003	1.13446
3531.20147	1.14209
3529.27291	1.15288
3527.34434	1.16433
3525.41578	1.17204
3523.48721	1.17832
3521.55865	1.18538
3519.63008	1.19261
3517.70152	1.20033
3515.77295	1.20869
3513.84439	1.21951
3511.91583	1.23176
3509.98726	1.24068
3508.05870	1.24676
3506.13013	1.25240
3504.20157	1.25954
3502.27300	1.26968
3500.34444	1.28234
3498.41587	1.29748
3496.48731	1.31236
3494.55875	1.32217
3492.63018	1.32614
3490.70162	1.32916
3488.77305	1.33636
3486.84449	1.34595
3484.91592	1.35304
3482.98736	1.35828
3481.05879	1.36256
3479.13023	1.36342
3477.20167	1.36317
3475.27310	1.36705
3473.34454	1.37489
3471.41597	1.38168
3469.48741	1.38784
3467.55884	1.39510
3465.63028	1.39815
3463.70171	1.39809
3461.77315	1.40319
3459.84459	1.41265
3457.91602	1.41841
3455.98746	1.41880
3454.05889	1.42006
3452.13033	1.42503
3450.20176	1.42962
3448.27320	1.43161
3446.34464	1.43377
3444.41607	1.43480
3442.48751	1.43137
3440.55894	1.42810
3438.63038	1.43067
3436.70181	1.43715
3434.77325	1.44214
3432.84468	1.44435
3430.91612	1.44724
3428.98756	1.45139
3427.05899	1.45332
3425.13043	1.45285
3423.20186	1.45259
3421.27330	1.45392
3419.34473	1.45597
3417.41617	1.45771
3415.48760	1.45997
3413.55904	1.46217
3411.63048	1.46604
3409.70191	1.47317
3407.77335	1.47651
3405.84478	1.47240
3403.91622	1.46690
3401.98765	1.46519
3400.05909	1.46729
3398.13052	1.47106
3396.20196	1.47549
3394.27340	1.48006
3392.34483	1.48404
3390.41627	1.48581
3388.48770	1.48361
3386.55914	1.48013
3384.63057	1.47945
3382.70201	1.47840
3380.77344	1.47495
3378.84488	1.47657
3376.91632	1.48511
3374.98775	1.48949
3373.05919	1.48452
3371.13062	1.47863
3369.20206	1.47847
3367.27349	1.48508
3365.34493	1.49627
3363.41636	1.50557
3361.48780	1.50887
3359.55924	1.50504
3357.63067	1.49683
3355.70211	1.49238
3353.77354	1.49469
3351.84498	1.49964
3349.91641	1.50448
3347.98785	1.50878
3346.05928	1.51322
3344.13072	1.51799
3342.20216	1.52000
3340.27359	1.51959
3338.34503	1.52271
3336.41646	1.52900
3334.48790	1.53031
3332.55933	1.52567
3330.63077	1.52358
3328.70220	1.52815
3326.77364	1.53634
3324.84508	1.54353
3322.91651	1.54609
3320.98795	1.54605
3319.05938	1.54805
3317.13082	1.55075
3315.20225	1.55025
3313.27369	1.54825
3311.34513	1.54667
3309.41656	1.54356
3307.48800	1.54253
3305.55943	1.54838
3303.63087	1.55696
3301.70230	1.56193
3299.77374	1.56307
3297.84517	1.56349
3295.91661	1.56359
3293.98805	1.56206
3292.05948	1.56068
3290.13092	1.56195
3288.20235	1.56351
3286.27379	1.56081
3284.34522	1.55477
3282.41666	1.55060
3280.48809	1.55153
3278.55953	1.55684
3276.63097	1.56134
3274.70240	1.55869
3272.77384	1.55142
3270.84527	1.54923
3268.91671	1.55109
3266.98814	1.54736
3265.05958	1.53878
3263.13101	1.53166
3261.20245	1.52693
3259.27389	1.52405
3257.34532	1.52236
3255.41676	1.51873
3253.48819	1.51087
3251.55963	1.50201
3249.63106	1.49540
3247.70250	1.48999
3245.77393	1.48405
3243.84537	1.47656
3241.91681	1.46892
3239.98824	1.46419
3238.05968	1.46288
3236.13111	1.46236
3234.20255	1.45867
3232.27398	1.45088
3230.34542	1.44387
3228.41685	1.44154
3226.48829	1.44165
3224.55973	1.43926
3222.63116	1.43166
3220.70260	1.42321
3218.77403	1.41945
3216.84547	1.41721
3214.91690	1.41312
3212.98834	1.41033
3211.05977	1.40912
3209.13121	1.40490
3207.20265	1.39647
3205.27408	1.38721
3203.34552	1.38021
3201.41695	1.37522
3199.48839	1.37060
3197.55982	1.36800
3195.63126	1.36748
3193.70269	1.36519
3191.77413	1.36081
3189.84557	1.35554
3187.91700	1.35020
3185.98844	1.34690
3184.05987	1.34444
3182.13131	1.34076
3180.20274	1.33780
3178.27418	1.33546
3176.34562	1.32989
3174.41705	1.32084
3172.48849	1.31152
3170.55992	1.30360
3168.63136	1.29883
3166.70279	1.29713
3164.77423	1.29448
3162.84566	1.29155
3160.91710	1.29071
3158.98854	1.28821
3157.05997	1.28280
3155.13141	1.27701
3153.20284	1.27139
3151.27428	1.26719
3149.34571	1.26556
3147.41715	1.26387
3145.48858	1.25899
3143.56002	1.25253
3141.63146	1.24717
3139.70289	1.24352
3137.77433	1.24229
3135.84576	1.24330
3133.91720	1.24454
3131.98863	1.24340
3130.06007	1.23989
3128.13150	1.23739
3126.20294	1.23704
3124.27438	1.23708
3122.34581	1.23632
3120.41725	1.23479
3118.48868	1.23401
3116.56012	1.23513
3114.63155	1.23631
3112.70299	1.23560
3110.77442	1.23448
3108.84586	1.23476
3106.91730	1.23446
3104.98873	1.23207
3103.06017	1.23155
3101.13160	1.23471
3099.20304	1.23681
3097.27447	1.23568
3095.34591	1.23407
3093.41734	1.23368
3091.48878	1.23380
3089.56022	1.23404
3087.63165	1.23420
3085.70309	1.23246
3083.77452	1.22849
3081.84596	1.22494
3079.91739	1.22334
3077.98883	1.22343
3076.06026	1.22424
3074.13170	1.22290
3072.20314	1.21814
3070.27457	1.21299
3068.34601	1.20909
3066.41744	1.20593
3064.48888	1.20431
3062.56031	1.20378
3060.63175	1.20179
3058.70318	1.19775
3056.77462	1.19400
3054.84606	1.19088
3052.91749	1.18666
3050.98893	1.18255
3049.06036	1.17956
3047.13180	1.17598
3045.20323	1.17108
3043.27467	1.16627
3041.34610	1.16284
3039.41754	1.15999
3037.48898	1.15644
3035.56041	1.15268
3033.63185	1.15058
3031.70328	1.15051
3029.77472	1.14921
3027.84615	1.14423
3025.91759	1.13829
3023.98903	1.13503
3022.06046	1.13412
3020.13190	1.13314
3018.20333	1.13101
3016.27477	1.12787
3014.34620	1.12463
3012.41764	1.12210
3010.48907	1.11927
3008.56051	1.11545
3006.63195	1.11202
3004.70338	1.11004
3002.77482	1.10875
3000.84625	1.10687
2998.91769	1.10415
2996.98912	1.10180
2995.06056	1.10145
2993.13199	1.10333
2991.20343	1.10637
2989.27487	1.11056
2987.34630	1.11623
2985.41774	1.12247
2983.48917	1.12860
2981.56061	1.13481
2979.63204	1.14089
2977.70348	1.14680
2975.77491	1.15301
2973.84635	1.16025
2971.91779	1.16940
2969.98922	1.17870
2968.06066	1.18536
2966.13209	1.19019
2964.20353	1.19488
2962.27496	1.19902
2960.34640	1.20012
2958.41783	1.19655
2956.48927	1.19135
2954.56071	1.18693
2952.63214	1.18208
2950.70358	1.17703
2948.77501	1.17419
2946.84645	1.17463
2944.91788	1.17770
2942.98932	1.18374
2941.06075	1.19345
2939.13219	1.20490
2937.20363	1.21489
2935.27506	1.22274
2933.34650	1.23074
2931.41793	1.24033
2929.48937	1.24968
2927.56080	1.25665
2925.63224	1.26129
2923.70367	1.26381
2921.77511	1.26420
2919.84655	1.26193
2917.91798	1.25353
2915.98942	1.23708
2914.06085	1.21637
2912.13229	1.19630
2910.20372	1.17959
2908.27516	1.16699
2906.34659	1.15734
2904.41803	1.14923
2902.48947	1.14244
2900.56090	1.13714
2898.63234	1.13303
2896.70377	1.12964
2894.77521	1.12698
2892.84664	1.12512
2890.91808	1.12319
2888.98952	1.12093
2887.06095	1.11917
2885.13239	1.11846
2883.20382	1.11939
2881.27526	1.12164
2879.34669	1.12333
2877.41813	1.12398
2875.48956	1.12379
2873.56100	1.12127
2871.63244	1.11635
2869.70387	1.11070
2867.77531	1.10406
2865.84674	1.09715
2863.91818	1.09292
2861.98961	1.09179
2860.06105	1.09197
2858.13248	1.09376
2856.20392	1.09909
2854.27536	1.10747
2852.34679	1.11428
2850.41823	1.11262
2848.48966	1.09821
2846.56110	1.07466
2844.63253	1.05004
2842.70397	1.02933
2840.77540	1.01381
2838.84684	1.00324
2836.91828	0.99593
2834.98971	0.99001
2833.06115	0.98500
2831.13258	0.98081
2829.20402	0.97670
2827.27545	0.97235
2825.34689	0.96802
2823.41832	0.96364
2821.48976	0.95961
2819.56120	0.95710
2817.63263	0.95574
2815.70407	0.95357
2813.77550	0.95013
2811.84694	0.94649
2809.91837	0.94301
2807.98981	0.93940
2806.06124	0.93574
2804.13268	0.93244
2802.20412	0.92957
2800.27555	0.92614
2798.34699	0.92195
2796.41842	0.91839
2794.48986	0.91592
2792.56129	0.91321
2790.63273	0.90956
2788.70416	0.90565
2786.77560	0.90228
2784.84704	0.89918
2782.91847	0.89567
2780.98991	0.89187
2779.06134	0.88836
2777.13278	0.88518
2775.20421	0.88173
2773.27565	0.87788
2771.34708	0.87446
2769.41852	0.87209
2767.48996	0.87011
2765.56139	0.86763
2763.63283	0.86500
2761.70426	0.86290
2759.77570	0.86099
2757.84713	0.85878
2755.91857	0.85640
2753.99001	0.85437
2752.06144	0.85287
2750.13288	0.85158
2748.20431	0.85039
2746.27575	0.84934
2744.34718	0.84882
2742.41862	0.84896
2740.49005	0.84893
2738.56149	0.84831
2736.63293	0.84704
2734.70436	0.84506
2732.77580	0.84346
2730.84723	0.84294
2728.91867	0.84231
2726.99010	0.84086
2725.06154	0.83900
2723.13297	0.83728
2721.20441	0.83630
2719.27585	0.83593
2717.34728	0.83503
2715.41872	0.83308
2713.49015	0.83104
2711.56159	0.82945
2709.63302	0.82776
2707.70446	0.82588
2705.77589	0.82409
2703.84733	0.82260
2701.91877	0.82129
2699.99020	0.82020
2698.06164	0.81939
2696.13307	0.81824
2694.20451	0.81690
2692.27594	0.81626
2690.34738	0.81596
2688.41881	0.81539
2686.49025	0.81493
2684.56169	0.81480
2682.63312	0.81445
2680.70456	0.81363
2678.77599	0.81271
2676.84743	0.81178
2674.91886	0.81113
2672.99030	0.81108
2671.06173	0.81090
2669.13317	0.81009
2667.20461	0.80914
2665.27604	0.80830
2663.34748	0.80715
2661.41891	0.80571
2659.49035	0.80455
2657.56178	0.80352
2655.63322	0.80199
2653.70465	0.80009
2651.77609	0.79834
2649.84753	0.79663
2647.91896	0.79488
2645.99040	0.79342
2644.06183	0.79196
2642.13327	0.79024
2640.20470	0.78853
2638.27614	0.78686
2636.34757	0.78547
2634.41901	0.78442
2632.49045	0.78335
2630.56188	0.78224
2628.63332	0.78103
2626.70475	0.77976
2624.77619	0.77890
2622.84762	0.77841
2620.91906	0.77794
2618.99049	0.77757
2617.06193	0.77737
2615.13337	0.77722
2613.20480	0.77735
2611.27624	0.77757
2609.34767	0.77714
2607.41911	0.77636
2605.49054	0.77628
2603.56198	0.77662
2601.63342	0.77648
2599.70485	0.77605
2597.77629	0.77568
2595.84772	0.77502
2593.91916	0.77412
2591.99059	0.77320
2590.06203	0.77193
2588.13346	0.77049
2586.20490	0.76931
2584.27634	0.76807
2582.34777	0.76672
2580.41921	0.76528
2578.49064	0.76341
2576.56208	0.76125
2574.63351	0.75919
2572.70495	0.75720
2570.77638	0.75527
2568.84782	0.75334
2566.91926	0.75112
2564.99069	0.74899
2563.06213	0.74731
2561.13356	0.74557
2559.20500	0.74363
2557.27643	0.74190
2555.34787	0.74035
2553.41930	0.73854
2551.49074	0.73633
2549.56218	0.73405
2547.63361	0.73212
2545.70505	0.73072
2543.77648	0.72986
2541.84792	0.72908
2539.91935	0.72794
2537.99079	0.72668
2536.06222	0.72577
2534.13366	0.72536
2532.20510	0.72499
2530.27653	0.72433
2528.34797	0.72352
2526.41940	0.72260
2524.49084	0.72142
2522.56227	0.72032
2520.63371	0.71994
2518.70514	0.71983
2516.77658	0.71906
2514.84802	0.71785
2512.91945	0.71677
2510.99089	0.71565
2509.06232	0.71431
2507.13376	0.71299
2505.20519	0.71191
2503.27663	0.71094
2501.34806	0.70975
2499.41950	0.70829
2497.49094	0.70686
2495.56237	0.70563
2493.63381	0.70457
2491.70524	0.70362
2489.77668	0.70248
2487.84811	0.70094
2485.91955	0.69948
2483.99098	0.69842
2482.06242	0.69756
2480.13386	0.69660
2478.20529	0.69541
2476.27673	0.69430
2474.34816	0.69376
2472.41960	0.69355
2470.49103	0.69314
2468.56247	0.69247
2466.63391	0.69173
2464.70534	0.69107
2462.77678	0.69052
2460.84821	0.69018
2458.91965	0.69011
2456.99108	0.69029
2455.06252	0.69068
2453.13395	0.69106
2451.20539	0.69130
2449.27683	0.69163
2447.34826	0.69212
2445.41970	0.69262
2443.49113	0.69300
2441.56257	0.69341
2439.63400	0.69402
2437.70544	0.69464
2435.77687	0.69506
2433.84831	0.69524
2431.91975	0.69539
2429.99118	0.69585
2428.06262	0.69644
2426.13405	0.69687
2424.20549	0.69748
2422.27692	0.69830
2420.34836	0.69885
2418.41979	0.69909
2416.49123	0.69922
2414.56267	0.69907
2412.63410	0.69861
2410.70554	0.69813
2408.77697	0.69797
2406.84841	0.69812
2404.91984	0.69807
2402.99128	0.69756
2401.06271	0.69697
2399.13415	0.69644
2397.20559	0.69570
2395.27702	0.69496
2393.34846	0.69443
2391.41989	0.69378
2389.49133	0.69305
2387.56276	0.69250
2385.63420	0.69189
2383.70563	0.69102
2381.77707	0.69014
2379.84851	0.68929
2377.91994	0.68785
2375.99138	0.68566
2374.06281	0.68417
2372.13425	0.68381
2370.20568	0.68220
2368.27712	0.67888
2366.34855	0.67752
2364.41999	0.67963
2362.49143	0.68115
2360.56286	0.67843
2358.63430	0.67422
2356.70573	0.67272
2354.77717	0.67314
2352.84860	0.67262
2350.92004	0.66961
2348.99147	0.66476
2347.06291	0.65982
2345.13435	0.65640
2343.20578	0.65465
2341.27722	0.65379
2339.34865	0.65309
2337.42009	0.65103
2335.49152	0.64746
2333.56296	0.64312
2331.63440	0.63939
2329.70583	0.63765
2327.77727	0.63730
2325.84870	0.63702
2323.92014	0.63648
2321.99157	0.63592
2320.06301	0.63525
2318.13444	0.63408
2316.20588	0.63295
2314.27732	0.63292
2312.34875	0.63384
2310.42019	0.63461
2308.49162	0.63527
2306.56306	0.63632
2304.63449	0.63737
2302.70593	0.63819
2300.77736	0.63937
2298.84880	0.64100
2296.92024	0.64251
2294.99167	0.64361
2293.06311	0.64443
2291.13454	0.64519
2289.20598	0.64601
2287.27741	0.64684
2285.34885	0.64744
2283.42028	0.64758
2281.49172	0.64739
2279.56316	0.64722
2277.63459	0.64721
2275.70603	0.64705
2273.77746	0.64654
2271.84890	0.64606
2269.92033	0.64569
2267.99177	0.64510
2266.06320	0.64455
2264.13464	0.64430
2262.20608	0.64403
2260.27751	0.64351
2258.34895	0.64292
2256.42038	0.64266
2254.49182	0.64273
2252.56325	0.64280
2250.63469	0.64272
2248.70612	0.64270
2246.77756	0.64316
2244.84900	0.64418
2242.92043	0.64527
2240.99187	0.64619
2239.06330	0.64697
2237.13474	0.64766
2235.20617	0.64855
2233.27761	0.64998
2231.34904	0.65173
2229.42048	0.65330
2227.49192	0.65461
2225.56335	0.65592
2223.63479	0.65734
2221.70622	0.65860
2219.77766	0.65953
2217.84909	0.66031
2215.92053	0.66098
2213.99196	0.66127
2212.06340	0.66124
2210.13484	0.66125
2208.20627	0.66147
2206.27771	0.66180
2204.34914	0.66198
2202.42058	0.66190
2200.49201	0.66154
2198.56345	0.66080
2196.63488	0.66010
2194.70632	0.65982
2192.77776	0.65973
2190.84919	0.65961
2188.92063	0.65952
2186.99206	0.65935
2185.06350	0.65878
2183.13493	0.65790
2181.20637	0.65713
2179.27781	0.65655
2177.34924	0.65596
2175.42068	0.65525
2173.49211	0.65444
2171.56355	0.65360
2169.63498	0.65286
2167.70642	0.65220
2165.77785	0.65122
2163.84929	0.64972
2161.92073	0.64804
2159.99216	0.64657
2158.06360	0.64509
2156.13503	0.64312
2154.20647	0.64076
2152.27790	0.63847
2150.34934	0.63636
2148.42077	0.63410
2146.49221	0.63149
2144.56365	0.62861
2142.63508	0.62580
2140.70652	0.62337
2138.77795	0.62101
2136.84939	0.61840
2134.92082	0.61577
2132.99226	0.61346
2131.06369	0.61147
2129.13513	0.60951
2127.20657	0.60760
2125.27800	0.60605
2123.34944	0.60487
2121.42087	0.60384
2119.49231	0.60290
2117.56374	0.60202
2115.63518	0.60122
2113.70661	0.60059
2111.77805	0.60021
2109.84949	0.60005
2107.92092	0.60018
2105.99236	0.60050
2104.06379	0.60081
2102.13523	0.60110
2100.20666	0.60159
2098.27810	0.60239
2096.34953	0.60305
2094.42097	0.60322
2092.49241	0.60330
2090.56384	0.60366
2088.63528	0.60416
2086.70671	0.60447
2084.77815	0.60452
2082.84958	0.60447
2080.92102	0.60438
2078.99245	0.60409
2077.06389	0.60386
2075.13533	0.60402
2073.20676	0.60436
2071.27820	0.60465
2069.34963	0.60497
2067.42107	0.60534
2065.49250	0.60574
2063.56394	0.60612
2061.63537	0.60635
2059.70681	0.60659
2057.77825	0.60706
2055.84968	0.60765
2053.92112	0.60812
2051.99255	0.60850
2050.06399	0.60901
2048.13542	0.60974
2046.20686	0.61050
2044.27830	0.61103
2042.34973	0.61142
2040.42117	0.61184
2038.49260	0.61227
2036.56404	0.61282
2034.63547	0.61340
2032.70691	0.61374
2030.77834	0.61363
2028.84978	0.61308
2026.92122	0.61230
2024.99265	0.61130
2023.06409	0.61005
2021.13552	0.60877
2019.20696	0.60753
2017.27839	0.60637
2015.34983	0.60524
2013.42126	0.60374
2011.49270	0.60182
2009.56414	0.59988
2007.63557	0.59807
2005.70701	0.59625
2003.77844	0.59439
2001.84988	0.59261
1999.92131	0.59097
1997.99275	0.58939
1996.06418	0.58767
1994.13562	0.58605
1992.20706	0.58521
1990.27849	0.58469
1988.34993	0.58367
1986.42136	0.58260
1984.49280	0.58171
1982.56423	0.58072
1980.63567	0.57973
1978.70710	0.57892
1976.77854	0.57828
1974.84998	0.57775
1972.92141	0.57713
1970.99285	0.57634
1969.06428	0.57575
1967.13572	0.57540
1965.20715	0.57473
1963.27859	0.57368
1961.35002	0.57267
1959.42146	0.57164
1957.49290	0.57047
1955.56433	0.56927
1953.63577	0.56798
1951.70720	0.56638
1949.77864	0.56449
1947.85007	0.56246
1945.92151	0.56026
1943.99294	0.55810
1942.06438	0.55631
1940.13582	0.55434
1938.20725	0.55194
1936.27869	0.54956
1934.35012	0.54745
1932.42156	0.54544
1930.49299	0.54340
1928.56443	0.54149
1926.63586	0.53979
1924.70730	0.53851
1922.77874	0.53774
1920.85017	0.53694
1918.92161	0.53650
1916.99304	0.53700
1915.06448	0.53740
1913.13591	0.53742
1911.20735	0.53797
1909.27878	0.53943
1907.35022	0.54102
1905.42166	0.54207
1903.49309	0.54302
1901.56453	0.54403
1899.63596	0.54500
1897.70740	0.54600
1895.77883	0.54702
1893.85027	0.54758
1891.92171	0.54774
1889.99314	0.54846
1888.06458	0.54920
1886.13601	0.54896
1884.20745	0.54827
1882.27888	0.54746
1880.35032	0.54658
1878.42175	0.54572
1876.49319	0.54472
1874.56463	0.54331
1872.63606	0.54139
1870.70750	0.53969
1868.77893	0.53927
1866.85037	0.53878
1864.92180	0.53691
1862.99324	0.53490
1861.06467	0.53337
1859.13611	0.53210
1857.20755	0.53100
1855.27898	0.53002
1853.35042	0.52907
1851.42185	0.52806
1849.49329	0.52701
1847.56472	0.52585
1845.63616	0.52549
1843.70759	0.52674
1841.77903	0.52723
1839.85047	0.52620
1837.92190	0.52512
1835.99334	0.52439
1834.06477	0.52327
1832.13621	0.52210
1830.20764	0.52206
1828.27908	0.52218
1826.35051	0.52139
1824.42195	0.52066
1822.49339	0.51964
1820.56482	0.51812
1818.63626	0.51682
1816.70769	0.51574
1814.77913	0.51445
1812.85056	0.51310
1810.92200	0.51225
1808.99343	0.51159
1807.06487	0.51039
1805.13631	0.50888
1803.20774	0.50762
1801.27918	0.50713
1799.35061	0.50674
1797.42205	0.50548
1795.49348	0.50387
1793.56492	0.50353
1791.63635	0.50541
1789.70779	0.50635
1787.77923	0.50592
1785.85066	0.50613
1783.92210	0.50712
1781.99353	0.50837
1780.06497	0.51028
1778.13640	0.51195
1776.20784	0.51256
1774.27927	0.51385
1772.35071	0.51835
1770.42215	0.52346
1768.49358	0.52658
1766.56502	0.52884
1764.63645	0.53070
1762.70789	0.53453
1760.77932	0.54082
1758.85076	0.54654
1756.92220	0.55324
1754.99363	0.56018
1753.06507	0.56646
1751.13650	0.57661
1749.20794	0.59135
1747.27937	0.60361
1745.35081	0.61261
1743.42224	0.62047
1741.49368	0.62796
1739.56512	0.63525
1737.63655	0.63973
1735.70799	0.64266
1733.77942	0.64989
1731.85086	0.65660
1729.92229	0.65996
1727.99373	0.66369
1726.06516	0.66792
1724.13660	0.67354
1722.20804	0.67931
1720.27947	0.68397
1718.35091	0.69300
1716.42234	0.71253
1714.49378	0.72965
1712.56521	0.74204
1710.63665	0.75563
1708.70808	0.77236
1706.77952	0.79741
1704.85096	0.83120
1702.92239	0.86171
1700.99383	0.90325
1699.06526	0.96973
1697.13670	1.03062
1695.20813	1.08702
1693.27957	1.12686
1691.35100	1.15620
1689.42244	1.19060
1687.49388	1.22081
1685.56531	1.24944
1683.63675	1.29346
1681.70818	1.32186
1679.77962	1.33326
1677.85105	1.34302
1675.92249	1.35681
1673.99392	1.37215
1672.06536	1.38130
1670.13680	1.38821
1668.20823	1.39665
1666.27967	1.39932
1664.35110	1.39998
1662.42254	1.40272
1660.49397	1.40335
1658.56541	1.40134
1656.63684	1.39915
1654.70828	1.39882
1652.77972	1.39691
1650.85115	1.39172
1648.92259	1.38726
1646.99402	1.38342
1645.06546	1.38219
1643.13689	1.38053
1641.20833	1.37746
1639.27976	1.37277
1637.35120	1.36813
1635.42264	1.36565
1633.49407	1.36197
1631.56551	1.35679
1629.63694	1.35097
1627.70838	1.34486
1625.77981	1.33749
1623.85125	1.32783
1621.92269	1.31690
1619.99412	1.30724
1618.06556	1.29625
1616.13699	1.27896
1614.20843	1.26220
1612.27986	1.24789
1610.35130	1.23246
1608.42273	1.21593
1606.49417	1.20088
1604.56561	1.18830
1602.63704	1.17805
1600.70848	1.17102
1598.77991	1.16640
1596.85135	1.16310
1594.92278	1.16110
1592.99422	1.16063
1591.06565	1.16159
1589.13709	1.16382
1587.20853	1.16807
1585.27996	1.17411
1583.35140	1.18099
1581.42283	1.18810
1579.49427	1.19475
1577.56570	1.20393
1575.63714	1.21938
1573.70857	1.23045
1571.78001	1.23715
1569.85145	1.24849
1567.92288	1.26180
1565.99432	1.27083
1564.06575	1.27844
1562.13719	1.28412
1560.20862	1.29234
1558.28006	1.30964
1556.35149	1.31266
1554.42293	1.31038
1552.49437	1.30955
1550.56580	1.30867
1548.63724	1.30591
1546.70867	1.30218
1544.78011	1.29920
1542.85154	1.29640
1540.92298	1.29091
1538.99441	1.28629
1537.06585	1.28411
1535.13729	1.28099
1533.20872	1.27697
1531.28016	1.27280
1529.35159	1.26929
1527.42303	1.26609
1525.49446	1.26158
1523.56590	1.25748
1521.63733	1.25729
1519.70877	1.25763
1517.78021	1.25217
1515.85164	1.24141
1513.92308	1.22925
1511.99451	1.21721
1510.06595	1.20575
1508.13738	1.18997
1506.20882	1.16350
1504.28025	1.14640
1502.35169	1.13338
1500.42313	1.11778
1498.49456	1.09766
1496.56600	1.07421
1494.63743	1.05538
1492.70887	1.04171
1490.78030	1.02708
1488.85174	1.00990
1486.92317	0.99677
1484.99461	0.98820
1483.06605	0.98280
1481.13748	0.98062
1479.20892	0.98176
1477.28035	0.98621
1475.35179	0.99498
1473.42322	1.01202
1471.49466	1.03217
1469.56610	1.04244
1467.63753	1.04776
1465.70897	1.05447
1463.78040	1.06190
1461.85184	1.06546
1459.92327	1.06727
1457.99471	1.07402
1456.06614	1.08337
1454.13758	1.08377
1452.20902	1.08102
1450.28045	1.07790
1448.35189	1.07400
1446.42332	1.06876
1444.49476	1.06296
1442.56619	1.05703
1440.63763	1.05079
1438.70906	1.04358
1436.78050	1.03387
1434.85194	1.02325
1432.92337	1.01467
1430.99481	1.00755
1429.06624	1.00135
1427.13768	0.99619
1425.20911	0.99299
1423.28055	0.99233
1421.35198	0.99301
1419.42342	0.99584
1417.49486	1.00004
1415.56629	1.00142
1413.63773	1.00143
1411.70916	1.00190
1409.78060	1.00300
1407.85203	1.00441
1405.92347	1.00717
1403.99490	1.01108
1402.06634	1.01360
1400.13778	1.01528
1398.20921	1.01729
1396.28065	1.01944
1394.35208	1.02176
1392.42352	1.02331
1390.49495	1.02445
1388.56639	1.02786
1386.63782	1.03511
1384.70926	1.04250
1382.78070	1.04768
1380.85213	1.05066
1378.92357	1.05029
1376.99500	1.04561
1375.06644	1.03646
1373.13787	1.02445
1371.20931	1.01241
1369.28074	0.99919
1367.35218	0.98453
1365.42362	0.97110
1363.49505	0.95906
1361.56649	0.94888
1359.63792	0.94228
1357.70936	0.93836
1355.78079	0.93572
1353.85223	0.93393
1351.92366	0.93308
1349.99510	0.93278
1348.06654	0.93247
1346.13797	0.93229
1344.20941	0.93262
1342.28084	0.93326
1340.35228	0.93471
1338.42371	0.93765
1336.49515	0.94136
1334.56659	0.94581
1332.63802	0.95129
1330.70946	0.95733
1328.78089	0.96264
1326.85233	0.96602
1324.92376	0.96774
1322.99520	0.96912
1321.06663	0.97115
1319.13807	0.97362
1317.20951	0.97555
1315.28094	0.97695
1313.35238	0.97839
1311.42381	0.97988
1309.49525	0.98140
1307.56668	0.98268
1305.63812	0.98334
1303.70955	0.98362
1301.78099	0.98373
1299.85243	0.98323
1297.92386	0.98206
1295.99530	0.98127
1294.06673	0.98168
1292.13817	0.98322
1290.20960	0.98617
1288.28104	0.99068
1286.35247	0.99578
1284.42391	1.00061
1282.49535	1.00584
1280.56678	1.01224
1278.63822	1.01911
1276.70965	1.02601
1274.78109	1.03366
1272.85252	1.04237
1270.92396	1.05177
1268.99539	1.06136
1267.06683	1.07047
1265.13827	1.07836
1263.20970	1.08443
1261.28114	1.08869
1259.35257	1.09189
1257.42401	1.09449
1255.49544	1.09656
1253.56688	1.09834
1251.63831	1.09946
1249.70975	1.09930
1247.78119	1.09806
1245.85262	1.09569
1243.92406	1.09203
1241.99549	1.08791
1240.06693	1.08354
1238.13836	1.07803
1236.20980	1.07137
1234.28123	1.06391
1232.35267	1.05540
1230.42411	1.04599
1228.49554	1.03629
1226.56698	1.02666
1224.63841	1.01701
1222.70985	1.00680
1220.78128	0.99617
1218.85272	0.98604
1216.92415	0.97697
1214.99559	0.96962
1213.06703	0.96502
1211.13846	0.96280
1209.20990	0.96104
1207.28133	0.95802
1205.35277	0.95271
1203.42420	0.94481
1201.49564	0.93517
1199.56708	0.92548
1197.63851	0.91641
1195.70995	0.90756
1193.78138	0.89937
1191.85282	0.89314
1189.92425	0.88924
1187.99569	0.88686
1186.06712	0.88553
1184.13856	0.88594
1182.21000	0.88889
1180.28143	0.89466
1178.35287	0.90323
1176.42430	0.91383
1174.49574	0.92566
1172.56717	0.93877
1170.63861	0.95342
1168.71004	0.96946
1166.78148	0.98597
1164.85292	1.00151
1162.92435	1.01491
1160.99579	1.02487
1159.06722	1.02981
1157.13866	1.02857
1155.21009	1.02153
1153.28153	1.01086
1151.35296	0.99948
1149.42440	0.98892
1147.49584	0.97915
1145.56727	0.97114
1143.63871	0.96645
1141.71014	0.96513
1139.78158	0.96696
1137.85301	0.97218
1135.92445	0.98031
1133.99588	0.99068
1132.06732	1.00365
1130.13876	1.01976
1128.21019	1.03788
1126.28163	1.05600
1124.35306	1.07263
1122.42450	1.08681
1120.49593	1.09796
1118.56737	1.10571
1116.63880	1.10969
1114.71024	1.10965
1112.78168	1.10668
1110.85311	1.10329
1108.92455	1.10120
1106.99598	1.10032
1105.06742	1.10024
1103.13885	1.10138
1101.21029	1.10437
1099.28172	1.10924
1097.35316	1.11638
1095.42460	1.12727
1093.49603	1.14181
1091.56747	1.15726
1089.63890	1.17211
1087.71034	1.18709
1085.78177	1.20279
1083.85321	1.21802
1081.92464	1.22927
1079.99608	1.23355
1078.06752	1.23236
1076.13895	1.22908
1074.21039	1.22447
1072.28182	1.21791
1070.35326	1.21017
1068.42469	1.20360
1066.49613	1.20013
1064.56756	1.19961
1062.63900	1.20050
1060.71044	1.20094
1058.78187	1.20028
1056.85331	1.19975
1054.92474	1.20085
1052.99618	1.20295
1051.06761	1.20360
1049.13905	1.20205
1047.21049	1.20088
1045.28192	1.20216
1043.35336	1.20524
1041.42479	1.20906
1039.49623	1.21243
1037.56766	1.21467
1035.63910	1.21570
1033.71053	1.21389
1031.78197	1.20888
1029.85341	1.20251
1027.92484	1.19464
1025.99628	1.18373
1024.06771	1.17055
1022.13915	1.15780
1020.21058	1.14564
1018.28202	1.13210
1016.35345	1.11717
1014.42489	1.10204
1012.49633	1.08638
1010.56776	1.06859
1008.63920	1.04790
1006.71063	1.02535
1004.78207	1.00262
1002.85350	0.98060
1000.92494	0.96004
998.99637	0.94232
997.06781	0.92750
995.13925	0.91378
993.21068	0.89976
991.28212	0.88526
989.35355	0.87055
987.42499	0.85607
985.49642	0.84236
983.56786	0.82976
981.63929	0.81857
979.71073	0.80928
977.78217	0.80187
975.85360	0.79510
973.92504	0.78743
971.99647	0.77835
970.06791	0.76869
968.13934	0.75989
966.21078	0.75315
964.28221	0.74882
962.35365	0.74776
960.42509	0.75193
958.49652	0.76157
956.56796	0.77257
954.63939	0.77927
952.71083	0.77958
950.78226	0.77525
948.85370	0.76878
946.92513	0.76246
944.99657	0.75801
943.06801	0.75559
941.13944	0.75415
939.21088	0.75322
937.28231	0.75316
935.35375	0.75389
933.42518	0.75486
931.49662	0.75577
929.56805	0.75670
927.63949	0.75802
925.71093	0.76016
923.78236	0.76327
921.85380	0.76641
919.92523	0.76801
917.99667	0.76793
916.06810	0.76773
914.13954	0.76841
912.21098	0.76962
910.28241	0.77142
908.35385	0.77454
906.42528	0.77914
904.49672	0.78483
902.56815	0.79074
900.63959	0.79589
898.71102	0.79977
896.78246	0.80205
894.85390	0.80286
892.92533	0.80301
890.99677	0.80312
889.06820	0.80330
887.13964	0.80379
885.21107	0.80524
883.28251	0.80796
881.35394	0.81175
879.42538	0.81635
877.49682	0.82144
875.56825	0.82706
873.63969	0.83333
871.71112	0.83984
869.78256	0.84665
867.85399	0.85365
865.92543	0.86033
863.99686	0.86771
862.06830	0.87661
860.13974	0.88567
858.21117	0.89398
856.28261	0.90204
854.35404	0.90986
852.42548	0.91689
850.49691	0.92304
848.56835	0.92830
846.63978	0.93235
844.71122	0.93519
842.78266	0.93696
840.85409	0.93814
838.92553	0.93919
836.99696	0.93923
835.06840	0.93780
833.13983	0.93555
831.21127	0.93231
829.28270	0.92822
827.35414	0.92397
825.42558	0.91955
823.49701	0.91484
821.56845	0.90934
819.63988	0.90283
817.71132	0.89635
815.78275	0.89025
813.85419	0.88403
811.92562	0.87827
809.99706	0.87378
808.06850	0.86997
806.13993	0.86540
804.21137	0.85939
802.28280	0.85297
800.35424	0.84757
798.42567	0.84326
796.49711	0.83960
794.56854	0.83659
792.63998	0.83392
790.71142	0.83153
788.78285	0.82990
786.85429	0.82935
784.92572	0.82998
782.99716	0.83123
781.06859	0.83231
779.14003	0.83370
777.21147	0.83589
775.28290	0.83892
773.35434	0.84298
771.42577	0.84787
769.49721	0.85327
767.56864	0.85907
765.64008	0.86522
763.71151	0.87183
761.78295	0.87933
759.85439	0.88771
757.92582	0.89642
755.99726	0.90512
754.06869	0.91388
752.14013	0.92274
750.21156	0.93115
748.28300	0.93875
746.35443	0.94620
744.42587	0.95366
742.49731	0.95992
740.56874	0.96409
738.64018	0.96665
736.71161	0.96910
734.78305	0.97200
732.85448	0.97423
730.92592	0.97496
728.99735	0.97453
727.06879	0.97357
725.14023	0.97238
723.21166	0.97106
721.28310	0.96935
719.35453	0.96690
717.42597	0.96394
715.49740	0.96140
713.56884	0.96030
711.64027	0.96019
709.71171	0.95966
707.78315	0.95885
705.85458	0.95923
703.92602	0.96117
701.99745	0.96370
700.06889	0.96624
698.14032	0.96821
696.21176	0.96961
694.28319	0.97221
692.35463	0.97656
690.42607	0.98226
688.49750	0.99017
686.56894	0.99971
684.64037	1.00920
682.71181	1.01934
680.78324	1.03150
678.85468	1.04477
676.92611	1.05690
674.99755	1.06613
673.06899	1.07206
671.14042	1.07564
669.21186	1.07977
667.28329	1.08652
665.35473	1.09078
663.42616	1.09240
661.49760	1.09217
659.56903	1.08877
657.64047	1.08327
655.71191	1.07777
653.78334	1.07164
651.85478	1.06326
649.92621	1.05291
647.99765	1.04329
646.06908	1.03674
644.14052	1.03308
642.21195	1.03028
640.28339	1.02700
638.35483	1.02416
636.42626	1.02221
634.49770	1.02088
632.56913	1.01980
630.64057	1.01921
628.71200	1.02085
626.78344	1.02491
624.85488	1.02937
622.92631	1.03264
620.99775	1.03543
619.06918	1.03914
617.14062	1.04276
615.21205	1.04357
613.28349	1.04055
611.35492	1.03596
609.42636	1.03287
607.49780	1.03034
605.56923	1.02516
603.64067	1.01801
601.71210	1.01094
599.78354	1.00286
