3997.91406	0.71764
3995.98550	0.71544
3994.05693	0.71406
3992.12837	0.71397
3990.19980	0.71441
3988.27124	0.71408
3986.34268	0.71258
3984.41411	0.71177
3982.48555	0.71170
3980.55698	0.71034
3978.62842	0.70839
3976.69985	0.70773
3974.77129	0.70847
3972.84272	0.70967
3970.91416	0.71013
3968.98560	0.70945
3967.05703	0.70879
3965.12847	0.70870
3963.19990	0.70815
3961.27134	0.70699
3959.34277	0.70613
3957.41421	0.70572
3955.48564	0.70547
3953.55708	0.70508
3951.62852	0.70426
3949.69995	0.70375
3947.77139	0.70366
3945.84282	0.70274
3943.91426	0.70244
3941.98569	0.70387
3940.05713	0.70429
3938.12856	0.70275
3936.20000	0.70060
3934.27144	0.69889
3932.34287	0.69806
3930.41431	0.69786
3928.48574	0.69753
3926.55718	0.69705
3924.62861	0.69686
3922.70005	0.69677
3920.77148	0.69697
3918.84292	0.69768
3916.91436	0.69773
3914.98579	0.69586
3913.05723	0.69354
3911.12866	0.69249
3909.20010	0.69102
3907.27153	0.68746
3905.34297	0.68471
3903.41440	0.68645
3901.48584	0.68954
3899.55728	0.69080
3897.62871	0.68990
3895.70015	0.68747
3893.77158	0.68669
3891.84302	0.68913
3889.91445	0.68886
3887.98589	0.68564
3886.05733	0.68600
3884.12876	0.68922
3882.20020	0.68941
3880.27163	0.68789
3878.34307	0.68490
3876.41450	0.68114
3874.48594	0.67933
3872.55737	0.67906
3870.62881	0.67991
3868.70025	0.68168
3866.77168	0.68169
3864.84312	0.68250
3862.91455	0.68488
3860.98599	0.68464
3859.05742	0.68209
3857.12886	0.67916
3855.20029	0.67830
3853.27173	0.68283
3851.34317	0.68379
3849.41460	0.68068
3847.48604	0.67810
3845.55747	0.67626
3843.62891	0.67481
3841.70034	0.67411
3839.77178	0.67490
3837.84321	0.67584
3835.91465	0.67457
3833.98609	0.67369
3832.05752	0.67434
3830.12896	0.67425
3828.20039	0.67298
3826.27183	0.67135
3824.34326	0.66868
3822.41470	0.66727
3820.48613	0.66966
3818.55757	0.66958
3816.62901	0.66937
3814.70044	0.67174
3812.77188	0.67155
3810.84331	0.66907
3808.91475	0.66759
3806.98618	0.66829
3805.05762	0.66749
3803.12905	0.66736
3801.20049	0.67178
3799.27193	0.67249
3797.34336	0.67020
3795.41480	0.66911
3793.48623	0.66775
3791.55767	0.66628
3789.62910	0.66498
3787.70054	0.66373
3785.77197	0.66390
3783.84341	0.66409
3781.91485	0.66284
3779.98628	0.66305
3778.05772	0.66402
3776.12915	0.66257
3774.20059	0.66054
3772.27202	0.66012
3770.34346	0.66114
3768.41489	0.66118
3766.48633	0.66032
3764.55777	0.65938
3762.62920	0.65741
3760.70064	0.65693
3758.77207	0.66015
3756.84351	0.66133
3754.91494	0.65820
3752.98638	0.65504
3751.05781	0.65748
3749.12925	0.66016
3747.20069	0.65776
3745.27212	0.65756
3743.34356	0.66018
3741.41499	0.65904
3739.48643	0.65585
3737.55786	0.65397
3735.62930	0.65552
3733.70074	0.65722
3731.77217	0.65620
3729.84361	0.65485
3727.91504	0.65413
3725.98648	0.65430
3724.05791	0.65484
3722.12935	0.65517
3720.20078	0.65567
3718.27222	0.65555
3716.34366	0.65426
3714.41509	0.65332
3712.48653	0.65528
3710.55796	0.65868
3708.62940	0.65811
3706.70083	0.65561
3704.77227	0.65395
3702.84370	0.65482
3700.91514	0.65726
3698.98658	0.65832
3697.05801	0.65837
3695.12945	0.65748
3693.20088	0.65506
3691.27232	0.65343
3689.34375	0.65773
3687.41519	0.66347
3685.48662	0.66483
3683.55806	0.66398
3681.62950	0.66264
3679.70093	0.66136
3677.77237	0.66179
3675.84380	0.66824
3673.91524	0.67293
3671.98667	0.67184
3670.05811	0.67576
3668.12954	0.68291
3666.20098	0.68535
3664.27242	0.68606
3662.34385	0.68728
3660.41529	0.68888
3658.48672	0.69173
3656.55816	0.69847
3654.62959	0.70410
3652.70103	0.70441
3650.77246	0.70579
3648.84390	0.71730
3646.91534	0.72737
3644.98677	0.73052
3643.05821	0.73284
3641.12964	0.73609
3639.20108	0.73969
3637.27251	0.74376
3635.34395	0.74864
3633.41538	0.75277
3631.48682	0.75523
3629.55826	0.76165
3627.62969	0.77186
3625.70113	0.77641
3623.77256	0.77832
3621.84400	0.78006
3619.91543	0.78516
3617.98687	0.79443
3616.05830	0.80139
3614.12974	0.80655
3612.20118	0.81119
3610.27261	0.81516
3608.34405	0.82219
3606.41548	0.83109
3604.48692	0.83587
3602.55835	0.83826
3600.62979	0.84310
3598.70123	0.85083
3596.77266	0.85911
3594.84410	0.86755
3592.91553	0.87369
3590.98697	0.87647
3589.05840	0.88166
3587.12984	0.89272
3585.20127	0.90072
3583.27271	0.90508
3581.34415	0.91047
3579.41558	0.91702
3577.48702	0.92424
3575.55845	0.93265
3573.62989	0.94034
3571.70132	0.94493
3569.77276	0.94799
3567.84419	0.95561
3565.91563	0.96840
3563.98707	0.97657
3562.05850	0.98125
3560.12994	0.98608
3558.20137	0.99291
3556.27281	1.00111
3554.34424	1.00872
3552.41568	1.01643
3550.48711	1.02329
3548.55855	1.02874
3546.62999	1.03560
3544.70142	1.04411
3542.77286	1.05263
3540.84429	1.06141
3538.91573	1.07018
3536.98716	1.07854
3535.05860	1.08646
3533.13003	1.09306
3531.20147	1.09826
3529.27291	1.10442
3527.34434	1.11329
3525.41578	1.12320
3523.48721	1.13357
3521.55865	1.14470
3519.63008	1.15571
3517.70152	1.16629
3515.77295	1.17523
3513.84439	1.18213
3511.91583	1.18864
3509.98726	1.19669
3508.05870	1.20575
3506.13013	1.21318
3504.20157	1.22074
3502.27300	1.23064
3500.34444	1.24096
3498.41587	1.25157
3496.48731	1.26279
3494.55875	1.27259
3492.63018	1.27861
3490.70162	1.28290
3488.77305	1.29047
3486.84449	1.29922
3484.91592	1.30409
3482.98736	1.30872
3481.05879	1.31651
3479.13023	1.32374
3477.20167	1.32962
3475.27310	1.33591
3473.34454	1.34141
3471.41597	1.34525
3469.48741	1.34989
3467.55884	1.35759
3465.63028	1.36573
3463.70171	1.37088
3461.77315	1.37487
3459.84459	1.37946
3457.91602	1.38254
3455.98746	1.38489
3454.05889	1.38918
3452.13033	1.39475
3450.20176	1.39931
3448.27320	1.40331
3446.34464	1.41076
3444.41607	1.42093
3442.48751	1.42841
3440.55894	1.43117
3438.63038	1.43209
3436.70181	1.43494
3434.77325	1.43920
3432.84468	1.44082
3430.91612	1.43799
3428.98756	1.43439
3427.05899	1.43295
3425.13043	1.43289
3423.20186	1.43568
3421.27330	1.44110
3419.34473	1.44599
3417.41617	1.45018
3415.48760	1.45007
3413.55904	1.44396
3411.63048	1.44207
3409.70191	1.44838
3407.77335	1.45368
3405.84478	1.45465
3403.91622	1.45605
3401.98765	1.45863
3400.05909	1.46150
3398.13052	1.46732
3396.20196	1.47577
3394.27340	1.48073
3392.34483	1.47936
3390.41627	1.47586
3388.48770	1.47468
3386.55914	1.47624
3384.63057	1.47812
3382.70201	1.47878
3380.77344	1.48250
3378.84488	1.48964
3376.91632	1.49228
3374.98775	1.49267
3373.05919	1.49695
3371.13062	1.50180
3369.20206	1.50714
3367.27349	1.51225
3365.34493	1.51226
3363.41636	1.51064
3361.48780	1.50988
3359.55924	1.50728
3357.63067	1.50781
3355.70211	1.51530
3353.77354	1.52081
3351.84498	1.52058
3349.91641	1.52367
3347.98785	1.53204
3346.05928	1.53806
3344.13072	1.53923
3342.20216	1.53981
3340.27359	1.54313
3338.34503	1.54965
3336.41646	1.55747
3334.48790	1.56427
3332.55933	1.57141
3330.63077	1.57925
3328.70220	1.58342
3326.77364	1.58200
3324.84508	1.57945
3322.91651	1.58008
3320.98795	1.58361
3319.05938	1.59044
3317.13082	1.60010
3315.20225	1.60677
3313.27369	1.60814
3311.34513	1.60805
3309.41656	1.60796
3307.48800	1.60655
3305.55943	1.60522
3303.63087	1.60887
3301.70230	1.61700
3299.77374	1.62178
3297.84517	1.62141
3295.91661	1.61908
3293.98805	1.61500
3292.05948	1.61230
3290.13092	1.61374
3288.20235	1.61717
3286.27379	1.62169
3284.34522	1.62761
3282.41666	1.63009
3280.48809	1.62423
3278.55953	1.61800
3276.63097	1.61930
3274.70240	1.62151
3272.77384	1.61905
3270.84527	1.61495
3268.91671	1.60821
3266.98814	1.59831
3265.05958	1.59288
3263.13101	1.59380
3261.20245	1.59305
3259.27389	1.58423
3257.34532	1.56795
3255.41676	1.55193
3253.48819	1.54195
3251.55963	1.53566
3249.63106	1.53129
3247.70250	1.52710
3245.77393	1.51689
3243.84537	1.50225
3241.91681	1.49186
3239.98824	1.48686
3238.05968	1.48504
3236.13111	1.48473
3234.20255	1.48052
3232.27398	1.47224
3230.34542	1.46716
3228.41685	1.46486
3226.48829	1.45927
3224.55973	1.45109
3222.63116	1.44352
3220.70260	1.43666
3218.77403	1.43125
3216.84547	1.42914
3214.91690	1.42853
3212.98834	1.42669
3211.05977	1.42334
3209.13121	1.41677
3207.20265	1.40838
3205.27408	1.40249
3203.34552	1.39926
3201.41695	1.39618
3199.48839	1.39171
3197.55982	1.38689
3195.63126	1.38185
3193.70269	1.37635
3191.77413	1.37279
3189.84557	1.37022
3187.91700	1.36547
3185.98844	1.35986
3184.05987	1.35555
3182.13131	1.35146
3180.20274	1.34625
3178.27418	1.33933
3176.34562	1.33025
3174.41705	1.32038
3172.48849	1.31176
3170.55992	1.30577
3168.63136	1.30314
3166.70279	1.30208
3164.77423	1.30054
3162.84566	1.29949
3160.91710	1.29840
3158.98854	1.29521
3157.05997	1.29119
3155.13141	1.28778
3153.20284	1.28359
3151.27428	1.27754
3149.34571	1.27214
3147.41715	1.26931
3145.48858	1.26685
3143.56002	1.26402
3141.63146	1.26169
3139.70289	1.25932
3137.77433	1.25699
3135.84576	1.25457
3133.91720	1.25242
3131.98863	1.25222
3130.06007	1.25306
3128.13150	1.25264
3126.20294	1.25132
3124.27438	1.25002
3122.34581	1.24710
3120.41725	1.24372
3118.48868	1.24366
3116.56012	1.24525
3114.63155	1.24536
3112.70299	1.24478
3110.77442	1.24382
3108.84586	1.24262
3106.91730	1.24185
3104.98873	1.24029
3103.06017	1.23778
3101.13160	1.23627
3099.20304	1.23616
3097.27447	1.23621
3095.34591	1.23522
3093.41734	1.23292
3091.48878	1.23064
3089.56022	1.23043
3087.63165	1.23174
3085.70309	1.23045
3083.77452	1.22585
3081.84596	1.22174
3079.91739	1.21881
3077.98883	1.21623
3076.06026	1.21384
3074.13170	1.20997
3072.20314	1.20532
3070.27457	1.20291
3068.34601	1.20318
3066.41744	1.20326
3064.48888	1.19948
3062.56031	1.19292
3060.63175	1.18769
3058.70318	1.18422
3056.77462	1.18021
3054.84606	1.17447
3052.91749	1.16828
3050.98893	1.16372
3049.06036	1.16123
3047.13180	1.15889
3045.20323	1.15415
3043.27467	1.14758
3041.34610	1.14195
3039.41754	1.13736
3037.48898	1.13252
3035.56041	1.12830
3033.63185	1.12550
3031.70328	1.12304
3029.77472	1.11998
3027.84615	1.11632
3025.91759	1.11263
3023.98903	1.10983
3022.06046	1.10714
3020.13190	1.10369
3018.20333	1.10083
3016.27477	1.09941
3014.34620	1.09798
3012.41764	1.09468
3010.48907	1.09040
3008.56051	1.08787
3006.63195	1.08703
3004.70338	1.08617
3002.77482	1.08522
3000.84625	1.08478
2998.91769	1.08485
2996.98912	1.08510
2995.06056	1.08526
2993.13199	1.08619
2991.20343	1.08904
2989.27487	1.09397
2987.34630	1.10068
2985.41774	1.10793
2983.48917	1.11493
2981.56061	1.12241
2979.63204	1.13034
2977.70348	1.13864
2975.77491	1.14806
2973.84635	1.15813
2971.91779	1.16722
2969.98922	1.17551
2968.06066	1.18474
2966.13209	1.19414
2964.20353	1.20084
2962.27496	1.20322
2960.34640	1.20241
2958.41783	1.20051
2956.48927	1.19724
2954.56071	1.19170
2952.63214	1.18564
2950.70358	1.18163
2948.77501	1.17931
2946.84645	1.17759
2944.91788	1.17831
2942.98932	1.18376
2941.06075	1.19367
2939.13219	1.20524
2937.20363	1.21587
2935.27506	1.22595
2933.34650	1.23665
2931.41793	1.24665
2929.48937	1.25337
2927.56080	1.25713
2925.63224	1.26118
2923.70367	1.26580
2921.77511	1.26801
2919.84655	1.26564
2917.91798	1.25703
2915.98942	1.24173
2914.06085	1.22194
2912.13229	1.20095
2910.20372	1.18174
2908.27516	1.16573
2906.34659	1.15277
2904.41803	1.14227
2902.48947	1.13333
2900.56090	1.12602
2898.63234	1.12110
2896.70377	1.11790
2894.77521	1.11475
2892.84664	1.11150
2890.91808	1.10826
2888.98952	1.10388
2887.06095	1.09921
2885.13239	1.09679
2883.20382	1.09688
2881.27526	1.09817
2879.34669	1.09966
2877.41813	1.10139
2875.48956	1.10291
2873.56100	1.10200
2871.63244	1.09770
2869.70387	1.09107
2867.77531	1.08352
2865.84674	1.07654
2863.91818	1.07123
2861.98961	1.06892
2860.06105	1.07027
2858.13248	1.07387
2856.20392	1.07837
2854.27536	1.08325
2852.34679	1.08700
2850.41823	1.08576
2848.48966	1.07429
2846.56110	1.05265
2844.63253	1.02831
2842.70397	1.00764
2840.77540	0.99215
2838.84684	0.98191
2836.91828	0.97524
2834.98971	0.96904
2833.06115	0.96213
2831.13258	0.95501
2829.20402	0.94865
2827.27545	0.94409
2825.34689	0.94094
2823.41832	0.93780
2821.48976	0.93369
2819.56120	0.92880
2817.63263	0.92480
2815.70407	0.92287
2813.77550	0.92132
2811.84694	0.91783
2809.91837	0.91335
2807.98981	0.90967
2806.06124	0.90661
2804.13268	0.90335
2802.20412	0.89931
2800.27555	0.89510
2798.34699	0.89169
2796.41842	0.88864
2794.48986	0.88534
2792.56129	0.88232
2790.63273	0.87976
2788.70416	0.87685
2786.77560	0.87332
2784.84704	0.86971
2782.91847	0.86642
2780.98991	0.86376
2779.06134	0.86205
2777.13278	0.86093
2775.20421	0.85940
2773.27565	0.85703
2771.34708	0.85441
2769.41852	0.85256
2767.48996	0.85175
2765.56139	0.85075
2763.63283	0.84857
2761.70426	0.84563
2759.77570	0.84314
2757.84713	0.84202
2755.91857	0.84150
2753.99001	0.84016
2752.06144	0.83824
2750.13288	0.83641
2748.20431	0.83416
2746.27575	0.83135
2744.34718	0.82876
2742.41862	0.82679
2740.49005	0.82504
2738.56149	0.82293
2736.63293	0.82080
2734.70436	0.81926
2732.77580	0.81754
2730.84723	0.81476
2728.91867	0.81135
2726.99010	0.80810
2725.06154	0.80576
2723.13297	0.80455
2721.20441	0.80365
2719.27585	0.80214
2717.34728	0.80007
2715.41872	0.79780
2713.49015	0.79549
2711.56159	0.79339
2709.63302	0.79157
2707.70446	0.79004
2705.77589	0.78903
2703.84733	0.78836
2701.91877	0.78735
2699.99020	0.78584
2698.06164	0.78434
2696.13307	0.78311
2694.20451	0.78195
2692.27594	0.78067
2690.34738	0.77912
2688.41881	0.77746
2686.49025	0.77616
2684.56169	0.77502
2682.63312	0.77339
2680.70456	0.77120
2678.77599	0.76893
2676.84743	0.76717
2674.91886	0.76602
2672.99030	0.76492
2671.06173	0.76338
2669.13317	0.76136
2667.20461	0.75918
2665.27604	0.75707
2663.34748	0.75523
2661.41891	0.75390
2659.49035	0.75274
2657.56178	0.75148
2655.63322	0.75018
2653.70465	0.74883
2651.77609	0.74756
2649.84753	0.74629
2647.91896	0.74497
2645.99040	0.74386
2644.06183	0.74271
2642.13327	0.74133
2640.20470	0.74020
2638.27614	0.73950
2636.34757	0.73864
2634.41901	0.73741
2632.49045	0.73633
2630.56188	0.73535
2628.63332	0.73376
2626.70475	0.73181
2624.77619	0.73037
2622.84762	0.72925
2620.91906	0.72780
2618.99049	0.72622
2617.06193	0.72482
2615.13337	0.72331
2613.20480	0.72156
2611.27624	0.71988
2609.34767	0.71855
2607.41911	0.71742
2605.49054	0.71610
2603.56198	0.71442
2601.63342	0.71278
2599.70485	0.71184
2597.77629	0.71142
2595.84772	0.71092
2593.91916	0.71021
2591.99059	0.70916
2590.06203	0.70764
2588.13346	0.70627
2586.20490	0.70545
2584.27634	0.70486
2582.34777	0.70432
2580.41921	0.70376
2578.49064	0.70296
2576.56208	0.70175
2574.63351	0.70038
2572.70495	0.69923
2570.77638	0.69832
2568.84782	0.69724
2566.91926	0.69574
2564.99069	0.69401
2563.06213	0.69245
2561.13356	0.69120
2559.20500	0.68999
2557.27643	0.68867
2555.34787	0.68729
2553.41930	0.68583
2551.49074	0.68438
2549.56218	0.68308
2547.63361	0.68189
2545.70505	0.68084
2543.77648	0.68005
2541.84792	0.67932
2539.91935	0.67856
2537.99079	0.67780
2536.06222	0.67692
2534.13366	0.67623
2532.20510	0.67588
2530.27653	0.67556
2528.34797	0.67502
2526.41940	0.67414
2524.49084	0.67321
2522.56227	0.67251
2520.63371	0.67184
2518.70514	0.67097
2516.77658	0.66986
2514.84802	0.66855
2512.91945	0.66680
2510.99089	0.66473
2509.06232	0.66315
2507.13376	0.66211
2505.20519	0.66101
2503.27663	0.65979
2501.34806	0.65863
2499.41950	0.65739
2497.49094	0.65608
2495.56237	0.65501
2493.63381	0.65438
2491.70524	0.65406
2489.77668	0.65355
2487.84811	0.65264
2485.91955	0.65181
2483.99098	0.65138
2482.06242	0.65112
2480.13386	0.65076
2478.20529	0.65020
2476.27673	0.64957
2474.34816	0.64901
2472.41960	0.64829
2470.49103	0.64728
2468.56247	0.64605
2466.63391	0.64465
2464.70534	0.64321
2462.77678	0.64182
2460.84821	0.64042
2458.91965	0.63904
2456.99108	0.63765
2455.06252	0.63600
2453.13395	0.63411
2451.20539	0.63249
2449.27683	0.63114
2447.34826	0.62976
2445.41970	0.62861
2443.49113	0.62770
2441.56257	0.62652
2439.63400	0.62517
2437.70544	0.62413
2435.77687	0.62336
2433.84831	0.62263
2431.91975	0.62189
2429.99118	0.62139
2428.06262	0.62107
2426.13405	0.62059
2424.20549	0.61991
2422.27692	0.61915
2420.34836	0.61827
2418.41979	0.61718
2416.49123	0.61604
2414.56267	0.61502
2412.63410	0.61386
2410.70554	0.61248
2408.77697	0.61107
2406.84841	0.60974
2404.91984	0.60831
2402.99128	0.60658
2401.06271	0.60492
2399.13415	0.60353
2397.20559	0.60212
2395.27702	0.60066
2393.34846	0.59936
2391.41989	0.59833
2389.49133	0.59755
2387.56276	0.59667
2385.63420	0.59554
2383.70563	0.59458
2381.77707	0.59394
2379.84851	0.59347
2377.91994	0.59305
2375.99138	0.59254
2374.06281	0.59178
2372.13425	0.59089
2370.20568	0.59030
2368.27712	0.58946
2366.34855	0.58763
2364.41999	0.58603
2362.49143	0.58590
2360.56286	0.58743
2358.63430	0.58895
2356.70573	0.58878
2354.77717	0.58842
2352.84860	0.58872
2350.92004	0.58776
2348.99147	0.58512
2347.06291	0.58248
2345.13435	0.58147
2343.20578	0.58131
2341.27722	0.58076
2339.34865	0.58068
2337.42009	0.58065
2335.49152	0.57999
2333.56296	0.57895
2331.63440	0.57847
2329.70583	0.57926
2327.77727	0.58031
2325.84870	0.58060
2323.92014	0.58056
2321.99157	0.58074
2320.06301	0.58093
2318.13444	0.58055
2316.20588	0.57943
2314.27732	0.57802
2312.34875	0.57680
2310.42019	0.57569
2308.49162	0.57441
2306.56306	0.57314
2304.63449	0.57203
2302.70593	0.57073
2300.77736	0.56916
2298.84880	0.56786
2296.92024	0.56699
2294.99167	0.56609
2293.06311	0.56504
2291.13454	0.56424
2289.20598	0.56387
2287.27741	0.56358
2285.34885	0.56324
2283.42028	0.56303
2281.49172	0.56274
2279.56316	0.56213
2277.63459	0.56162
2275.70603	0.56163
2273.77746	0.56177
2271.84890	0.56174
2269.92033	0.56165
2267.99177	0.56142
2266.06320	0.56114
2264.13464	0.56105
2262.20608	0.56078
2260.27751	0.56007
2258.34895	0.55934
2256.42038	0.55894
2254.49182	0.55862
2252.56325	0.55797
2250.63469	0.55692
2248.70612	0.55575
2246.77756	0.55489
2244.84900	0.55434
2242.92043	0.55364
2240.99187	0.55271
2239.06330	0.55209
2237.13474	0.55185
2235.20617	0.55165
2233.27761	0.55138
2231.34904	0.55127
2229.42048	0.55144
2227.49192	0.55170
2225.56335	0.55192
2223.63479	0.55212
2221.70622	0.55238
2219.77766	0.55262
2217.84909	0.55273
2215.92053	0.55276
2213.99196	0.55278
2212.06340	0.55271
2210.13484	0.55241
2208.20627	0.55208
2206.27771	0.55188
2204.34914	0.55132
2202.42058	0.55047
2200.49201	0.54983
2198.56345	0.54933
2196.63488	0.54860
2194.70632	0.54765
2192.77776	0.54674
2190.84919	0.54593
2188.92063	0.54516
2186.99206	0.54451
2185.06350	0.54412
2183.13493	0.54392
2181.20637	0.54363
2179.27781	0.54312
2177.34924	0.54258
2175.42068	0.54215
2173.49211	0.54196
2171.56355	0.54212
2169.63498	0.54237
2167.70642	0.54240
2165.77785	0.54244
2163.84929	0.54256
2161.92073	0.54252
2159.99216	0.54246
2158.06360	0.54252
2156.13503	0.54250
2154.20647	0.54243
2152.27790	0.54243
2150.34934	0.54234
2148.42077	0.54196
2146.49221	0.54144
2144.56365	0.54097
2142.63508	0.54052
2140.70652	0.54000
2138.77795	0.53930
2136.84939	0.53860
2134.92082	0.53811
2132.99226	0.53771
2131.06369	0.53732
2129.13513	0.53687
2127.20657	0.53626
2125.27800	0.53566
2123.34944	0.53526
2121.42087	0.53495
2119.49231	0.53466
2117.56374	0.53451
2115.63518	0.53456
2113.70661	0.53469
2111.77805	0.53471
2109.84949	0.53461
2107.92092	0.53453
2105.99236	0.53453
2104.06379	0.53459
2102.13523	0.53455
2100.20666	0.53435
2098.27810	0.53419
2096.34953	0.53411
2094.42097	0.53395
2092.49241	0.53368
2090.56384	0.53340
2088.63528	0.53316
2086.70671	0.53281
2084.77815	0.53230
2082.84958	0.53161
2080.92102	0.53078
2078.99245	0.52996
2077.06389	0.52929
2075.13533	0.52877
2073.20676	0.52836
2071.27820	0.52803
2069.34963	0.52766
2067.42107	0.52728
2065.49250	0.52701
2063.56394	0.52679
2061.63537	0.52662
2059.70681	0.52647
2057.77825	0.52608
2055.84968	0.52555
2053.92112	0.52520
2051.99255	0.52490
2050.06399	0.52447
2048.13542	0.52409
2046.20686	0.52401
2044.27830	0.52407
2042.34973	0.52393
2040.42117	0.52354
2038.49260	0.52306
2036.56404	0.52256
2034.63547	0.52193
2032.70691	0.52117
2030.77834	0.52052
2028.84978	0.51999
2026.92122	0.51949
2024.99265	0.51889
2023.06409	0.51812
2021.13552	0.51723
2019.20696	0.51633
2017.27839	0.51573
2015.34983	0.51537
2013.42126	0.51487
2011.49270	0.51435
2009.56414	0.51396
2007.63557	0.51358
2005.70701	0.51327
2003.77844	0.51307
2001.84988	0.51272
1999.92131	0.51226
1997.99275	0.51200
1996.06418	0.51188
1994.13562	0.51172
1992.20706	0.51155
1990.27849	0.51118
1988.34993	0.51055
1986.42136	0.51010
1984.49280	0.50991
1982.56423	0.50970
1980.63567	0.50938
1978.70710	0.50906
1976.77854	0.50886
1974.84998	0.50876
1972.92141	0.50859
1970.99285	0.50822
1969.06428	0.50803
1967.13572	0.50822
1965.20715	0.50821
1963.27859	0.50775
1961.35002	0.50734
1959.42146	0.50727
1957.49290	0.50743
1955.56433	0.50764
1953.63577	0.50765
1951.70720	0.50748
1949.77864	0.50730
1947.85007	0.50694
1945.92151	0.50628
1943.99294	0.50595
1942.06438	0.50634
1940.13582	0.50658
1938.20725	0.50621
1936.27869	0.50579
1934.35012	0.50556
1932.42156	0.50538
1930.49299	0.50521
1928.56443	0.50516
1926.63586	0.50517
1924.70730	0.50527
1922.77874	0.50551
1920.85017	0.50548
1918.92161	0.50545
1916.99304	0.50568
1915.06448	0.50561
1913.13591	0.50530
1911.20735	0.50529
1909.27878	0.50569
1907.35022	0.50608
1905.42166	0.50624
1903.49309	0.50636
1901.56453	0.50646
1899.63596	0.50638
1897.70740	0.50620
1895.77883	0.50625
1893.85027	0.50632
1891.92171	0.50617
1889.99314	0.50637
1888.06458	0.50670
1886.13601	0.50658
1884.20745	0.50644
1882.27888	0.50641
1880.35032	0.50626
1878.42175	0.50612
1876.49319	0.50602
1874.56463	0.50575
1872.63606	0.50528
1870.70750	0.50518
1868.77893	0.50650
1866.85037	0.50807
1864.92180	0.50834
1862.99324	0.50826
1861.06467	0.50855
1859.13611	0.50907
1857.20755	0.50962
1855.27898	0.51012
1853.35042	0.51037
1851.42185	0.51043
1849.49329	0.51048
1847.56472	0.51039
1845.63616	0.51064
1843.70759	0.51158
1841.77903	0.51174
1839.85047	0.51113
1837.92190	0.51088
1835.99334	0.51094
1834.06477	0.51055
1832.13621	0.51010
1830.20764	0.51068
1828.27908	0.51177
1826.35051	0.51249
1824.42195	0.51342
1822.49339	0.51432
1820.56482	0.51500
1818.63626	0.51600
1816.70769	0.51719
1814.77913	0.51816
1812.85056	0.51908
1810.92200	0.52046
1808.99343	0.52192
1807.06487	0.52285
1805.13631	0.52342
1803.20774	0.52406
1801.27918	0.52525
1799.35061	0.52642
1797.42205	0.52681
1795.49348	0.52671
1793.56492	0.52705
1791.63635	0.52843
1789.70779	0.52897
1787.77923	0.52847
1785.85066	0.52817
1783.92210	0.52825
1781.99353	0.52834
1780.06497	0.52859
1778.13640	0.52890
1776.20784	0.52892
1774.27927	0.52934
1772.35071	0.53130
1770.42215	0.53393
1768.49358	0.53623
1766.56502	0.53844
1764.63645	0.54039
1762.70789	0.54343
1760.77932	0.54807
1758.85076	0.55258
1756.92220	0.55823
1754.99363	0.56435
1753.06507	0.56992
1751.13650	0.57813
1749.20794	0.58974
1747.27937	0.59971
1745.35081	0.60693
1743.42224	0.61290
1741.49368	0.61811
1739.56512	0.62240
1737.63655	0.62465
1735.70799	0.62591
1733.77942	0.62940
1731.85086	0.63260
1729.92229	0.63435
1727.99373	0.63674
1726.06516	0.63980
1724.13660	0.64424
1722.20804	0.64905
1720.27947	0.65327
1718.35091	0.66108
1716.42234	0.67707
1714.49378	0.69137
1712.56521	0.70236
1710.63665	0.71466
1708.70808	0.72976
1706.77952	0.75240
1704.85096	0.78284
1702.92239	0.81062
1700.99383	0.84954
1699.06526	0.91238
1697.13670	0.97356
1695.20813	1.03530
1693.27957	1.08114
1691.35100	1.11701
1689.42244	1.16129
1687.49388	1.20293
1685.56531	1.24389
1683.63675	1.30821
1681.70818	1.35518
1679.77962	1.38014
1677.85105	1.40351
1675.92249	1.43244
1673.99392	1.46333
1672.06536	1.48482
1670.13680	1.50476
1668.20823	1.52756
1666.27967	1.53865
1664.35110	1.54380
1662.42254	1.55191
1660.49397	1.56127
1658.56541	1.56790
1656.63684	1.57103
1654.70828	1.57326
1652.77972	1.57598
1650.85115	1.57588
1648.92259	1.57361
1646.99402	1.56962
1645.06546	1.56686
1643.13689	1.56448
1641.20833	1.56198
1639.27976	1.55861
1637.35120	1.55385
1635.42264	1.54856
1633.49407	1.54521
1631.56551	1.54094
1629.63694	1.53218
1627.70838	1.52030
1625.77981	1.50821
1623.85125	1.49211
1621.92269	1.46987
1619.99412	1.45003
1618.06556	1.42866
1616.13699	1.39686
1614.20843	1.36745
1612.27986	1.34167
1610.35130	1.31369
1608.42273	1.28666
1606.49417	1.26597
1604.56561	1.25086
1602.63704	1.23826
1600.70848	1.22779
1598.77991	1.21987
1596.85135	1.21466
1594.92278	1.21192
1592.99422	1.21155
1591.06565	1.21380
1589.13709	1.21877
1587.20853	1.22611
1585.27996	1.23501
1583.35140	1.24523
1581.42283	1.25596
1579.49427	1.26632
1577.56570	1.28048
1575.63714	1.30171
1573.70857	1.31573
1571.78001	1.32469
1569.85145	1.34073
1567.92288	1.35962
1565.99432	1.37243
1564.06575	1.38314
1562.13719	1.39134
1560.20862	1.40144
1558.28006	1.42550
1556.35149	1.43973
1554.42293	1.44510
1552.49437	1.44831
1550.56580	1.45016
1548.63724	1.44979
1546.70867	1.44730
1544.78011	1.44435
1542.85154	1.44066
1540.92298	1.43185
1538.99441	1.42232
1537.06585	1.41904
1535.13729	1.41500
1533.20872	1.40775
1531.28016	1.40070
1529.35159	1.39573
1527.42303	1.39069
1525.49446	1.38459
1523.56590	1.37870
1521.63733	1.37226
1519.70877	1.36599
1517.78021	1.35762
1515.85164	1.34552
1513.92308	1.33194
1511.99451	1.31610
1510.06595	1.29838
1508.13738	1.27207
1506.20882	1.22764
1504.28025	1.20077
1502.35169	1.18308
1500.42313	1.16361
1498.49456	1.13835
1496.56600	1.10803
1494.63743	1.08455
1492.70887	1.06821
1490.78030	1.05017
1488.85174	1.02927
1486.92317	1.01490
1484.99461	1.00594
1483.06605	0.99998
1481.13748	0.99739
1479.20892	0.99857
1477.28035	1.00415
1475.35179	1.01542
1473.42322	1.03589
1471.49466	1.05946
1469.56610	1.07243
1467.63753	1.08009
1465.70897	1.08929
1463.78040	1.10004
1461.85184	1.10702
1459.92327	1.11130
1457.99471	1.12008
1456.06614	1.13234
1454.13758	1.13468
1452.20902	1.13260
1450.28045	1.13007
1448.35189	1.12765
1446.42332	1.12459
1444.49476	1.12050
1442.56619	1.11539
1440.63763	1.10967
1438.70906	1.10326
1436.78050	1.09502
1434.85194	1.08656
1432.92337	1.08008
1430.99481	1.07512
1429.06624	1.07191
1427.13768	1.07084
1425.20911	1.07212
1423.28055	1.07543
1421.35198	1.07963
1419.42342	1.08635
1417.49486	1.09410
1415.56629	1.09787
1413.63773	1.09973
1411.70916	1.10183
1409.78060	1.10507
1407.85203	1.10886
1405.92347	1.11218
1403.99490	1.11446
1402.06634	1.11563
1400.13778	1.11612
1398.20921	1.11583
1396.28065	1.11534
1394.35208	1.11498
1392.42352	1.11430
1390.49495	1.11395
1388.56639	1.11562
1386.63782	1.12069
1384.70926	1.12738
1382.78070	1.13329
1380.85213	1.13645
1378.92357	1.13555
1376.99500	1.13077
1375.06644	1.12172
1373.13787	1.10953
1371.20931	1.09695
1369.28074	1.08273
1367.35218	1.06678
1365.42362	1.05179
1363.49505	1.03743
1361.56649	1.02489
1359.63792	1.01682
1357.70936	1.01191
1355.78079	1.00869
1353.85223	1.00627
1351.92366	1.00401
1349.99510	1.00226
1348.06654	1.00113
1346.13797	0.99993
1344.20941	0.99835
1342.28084	0.99691
1340.35228	0.99686
1338.42371	0.99908
1336.49515	1.00261
1334.56659	1.00716
1332.63802	1.01339
1330.70946	1.02086
1328.78089	1.02809
1326.85233	1.03423
1324.92376	1.03933
1322.99520	1.04394
1321.06663	1.04901
1319.13807	1.05496
1317.20951	1.06029
1315.28094	1.06379
1313.35238	1.06656
1311.42381	1.06925
1309.49525	1.07135
1307.56668	1.07246
1305.63812	1.07222
1303.70955	1.07085
1301.78099	1.06864
1299.85243	1.06488
1297.92386	1.05938
1295.99530	1.05356
1294.06673	1.04864
1292.13817	1.04467
1290.20960	1.04178
1288.28104	1.04000
1286.35247	1.03870
1284.42391	1.03739
1282.49535	1.03615
1280.56678	1.03521
1278.63822	1.03463
1276.70965	1.03462
1274.78109	1.03597
1272.85252	1.03927
1270.92396	1.04389
1268.99539	1.04872
1267.06683	1.05325
1265.13827	1.05747
1263.20970	1.06103
1261.28114	1.06337
1259.35257	1.06468
1257.42401	1.06581
1255.49544	1.06735
1253.56688	1.06937
1251.63831	1.07138
1249.70975	1.07293
1247.78119	1.07392
1245.85262	1.07461
1243.92406	1.07536
1241.99549	1.07619
1240.06693	1.07647
1238.13836	1.07543
1236.20980	1.07291
1234.28123	1.06932
1232.35267	1.06500
1230.42411	1.05964
1228.49554	1.05300
1226.56698	1.04561
1224.63841	1.03798
1222.70985	1.03008
1220.78128	1.02191
1218.85272	1.01397
1216.92415	1.00708
1214.99559	1.00194
1213.06703	0.99891
1211.13846	0.99788
1209.20990	0.99812
1207.28133	0.99764
1205.35277	0.99423
1203.42420	0.98789
1201.49564	0.97998
1199.56708	0.97108
1197.63851	0.96172
1195.70995	0.95282
1193.78138	0.94472
1191.85282	0.93756
1189.92425	0.93181
1187.99569	0.92774
1186.06712	0.92521
1184.13856	0.92421
1182.21000	0.92549
1180.28143	0.92981
1178.35287	0.93709
1176.42430	0.94694
1174.49574	0.95865
1172.56717	0.97124
1170.63861	0.98450
1168.71004	0.99895
1166.78148	1.01481
1164.85292	1.03164
1162.92435	1.04793
1160.99579	1.06103
1159.06722	1.06857
1157.13866	1.06998
1155.21009	1.06667
1153.28153	1.06010
1151.35296	1.05023
1149.42440	1.03768
1147.49584	1.02501
1145.56727	1.01396
1143.63871	1.00573
1141.71014	1.00179
1139.78158	1.00207
1137.85301	1.00557
1135.92445	1.01208
1133.99588	1.02142
1132.06732	1.03313
1130.13876	1.04771
1128.21019	1.06486
1126.28163	1.08222
1124.35306	1.09904
1122.42450	1.11571
1120.49593	1.12995
1118.56737	1.13981
1116.63880	1.14605
1114.71024	1.14933
1112.78168	1.14997
1110.85311	1.14923
1108.92455	1.14783
1106.99598	1.14553
1105.06742	1.14190
1103.13885	1.13790
1101.21029	1.13565
1099.28172	1.13538
1097.35316	1.13657
1095.42460	1.14110
1093.49603	1.15115
1091.56747	1.16613
1089.63890	1.18375
1087.71034	1.20282
1085.78177	1.22288
1083.85321	1.24274
1081.92464	1.25978
1079.99608	1.27082
1078.06752	1.27494
1076.13895	1.27261
1074.21039	1.26446
1072.28182	1.25275
1070.35326	1.23996
1068.42469	1.22647
1066.49613	1.21202
1064.56756	1.19938
1062.63900	1.19195
1060.71044	1.18846
1058.78187	1.18490
1056.85331	1.17971
1054.92474	1.17441
1052.99618	1.17077
1051.06761	1.16888
1049.13905	1.16851
1047.21049	1.17018
1045.28192	1.17448
1043.35336	1.18097
1041.42479	1.18775
1039.49623	1.19357
1037.56766	1.19865
1035.63910	1.20235
1033.71053	1.20327
1031.78197	1.20065
1029.85341	1.19441
1027.92484	1.18518
1025.99628	1.17349
1024.06771	1.15997
1022.13915	1.14671
1020.21058	1.13464
1018.28202	1.12280
1016.35345	1.11097
1014.42489	1.09847
1012.49633	1.08335
1010.56776	1.06486
1008.63920	1.04413
1006.71063	1.02301
1004.78207	1.00303
1002.85350	0.98566
1000.92494	0.97108
998.99637	0.95914
997.06781	0.95101
995.13925	0.94568
993.21068	0.93917
991.28212	0.92921
989.35355	0.91659
987.42499	0.90262
985.49642	0.88789
983.56786	0.87318
981.63929	0.85940
979.71073	0.84733
977.78217	0.83726
975.85360	0.82819
973.92504	0.81835
971.99647	0.80694
970.06791	0.79419
968.13934	0.78110
966.21078	0.76936
964.28221	0.76033
962.35365	0.75509
960.42509	0.75456
958.49652	0.75840
956.56796	0.76381
954.63939	0.76664
952.71083	0.76473
950.78226	0.75912
948.85370	0.75221
946.92513	0.74595
944.99657	0.74121
943.06801	0.73804
941.13944	0.73608
939.21088	0.73503
937.28231	0.73499
935.35375	0.73585
933.42518	0.73723
931.49662	0.73901
929.56805	0.74133
927.63949	0.74420
925.71093	0.74753
923.78236	0.75127
921.85380	0.75509
919.92523	0.75800
917.99667	0.75941
916.06810	0.75995
914.13954	0.76038
912.21098	0.76110
910.28241	0.76269
908.35385	0.76557
906.42528	0.76962
904.49672	0.77443
902.56815	0.77939
900.63959	0.78344
898.71102	0.78585
896.78246	0.78642
894.85390	0.78544
892.92533	0.78385
890.99677	0.78197
889.06820	0.77967
887.13964	0.77744
885.21107	0.77555
883.28251	0.77379
881.35394	0.77249
879.42538	0.77236
877.49682	0.77328
875.56825	0.77416
873.63969	0.77422
871.71112	0.77383
869.78256	0.77379
867.85399	0.77437
865.92543	0.77548
863.99686	0.77685
862.06830	0.77863
860.13974	0.78117
858.21117	0.78412
856.28261	0.78756
854.35404	0.79201
852.42548	0.79711
850.49691	0.80209
848.56835	0.80664
846.63978	0.81105
844.71122	0.81579
842.78266	0.82103
840.85409	0.82648
838.92553	0.83120
836.99696	0.83442
835.06840	0.83692
833.13983	0.84000
831.21127	0.84374
829.28270	0.84728
827.35414	0.85014
825.42558	0.85282
823.49701	0.85550
821.56845	0.85772
819.63988	0.85998
817.71132	0.86309
815.78275	0.86686
813.85419	0.87081
811.92562	0.87487
809.99706	0.87913
808.06850	0.88361
806.13993	0.88773
804.21137	0.89089
802.28280	0.89386
800.35424	0.89725
798.42567	0.90013
796.49711	0.90203
794.56854	0.90385
792.63998	0.90615
790.71142	0.90830
788.78285	0.90997
786.85429	0.91195
784.92572	0.91496
782.99716	0.91851
781.06859	0.92167
779.14003	0.92438
777.21147	0.92701
775.28290	0.92958
773.35434	0.93211
771.42577	0.93455
769.49721	0.93634
767.56864	0.93740
765.64008	0.93870
763.71151	0.94034
761.78295	0.94156
759.85439	0.94273
757.92582	0.94473
755.99726	0.94747
754.06869	0.95038
752.14013	0.95335
750.21156	0.95665
748.28300	0.96036
746.35443	0.96404
744.42587	0.96693
742.49731	0.96857
740.56874	0.96999
738.64018	0.97199
736.71161	0.97391
734.78305	0.97607
732.85448	0.97886
730.92592	0.98145
728.99735	0.98409
727.06879	0.98780
725.14023	0.99235
723.21166	0.99662
721.28310	1.00035
719.35453	1.00426
717.42597	1.00799
715.49740	1.01100
713.56884	1.01449
711.64027	1.01935
709.71171	1.02533
707.78315	1.03165
705.85458	1.03688
703.92602	1.04072
701.99745	1.04446
700.06889	1.04805
698.14032	1.05037
696.21176	1.05157
694.28319	1.05182
692.35463	1.05112
690.42607	1.05056
688.49750	1.05119
686.56894	1.05343
684.64037	1.05630
682.71181	1.05789
680.78324	1.05789
678.85468	1.05760
676.92611	1.05831
674.99755	1.05956
673.06899	1.05925
671.14042	1.05615
669.21186	1.05119
667.28329	1.05023
665.35473	1.05340
663.42616	1.05511
661.49760	1.05378
659.56903	1.05052
657.64047	1.04880
655.71191	1.04985
653.78334	1.05098
651.85478	1.04999
649.92621	1.04723
647.99765	1.04391
646.06908	1.04233
644.14052	1.04283
642.21195	1.04273
640.28339	1.04266
638.35483	1.04496
636.42626	1.04785
634.49770	1.04797
632.56913	1.04417
630.64057	1.03858
628.71200	1.03484
626.78344	1.03377
624.85488	1.03385
622.92631	1.03359
620.99775	1.03182
619.06918	1.02985
617.14062	1.03021
615.21205	1.03262
613.28349	1.03541
611.35492	1.03807
609.42636	1.04051
607.49780	1.04146
605.56923	1.04062
603.64067	1.04009
601.71210	1.04013
599.78354	1.04080
