3997.91406	0.93611
3995.98550	0.93798
3994.05693	0.93742
3992.12837	0.93531
3990.19980	0.93482
3988.27124	0.93711
3986.34268	0.93966
3984.41411	0.94020
3982.48555	0.93857
3980.55698	0.93568
3978.62842	0.93443
3976.69985	0.93554
3974.77129	0.93603
3972.84272	0.93539
3970.91416	0.93434
3968.98560	0.93262
3967.05703	0.93177
3965.12847	0.93231
3963.19990	0.93163
3961.27134	0.92915
3959.34277	0.92700
3957.41421	0.92553
3955.48564	0.92547
3953.55708	0.92742
3951.62852	0.92877
3949.69995	0.92811
3947.77139	0.92773
3945.84282	0.92880
3943.91426	0.92967
3941.98569	0.92934
3940.05713	0.92869
3938.12856	0.92821
3936.20000	0.92746
3934.27144	0.92584
3932.34287	0.92387
3930.41431	0.92380
3928.48574	0.92574
3926.55718	0.92645
3924.62861	0.92446
3922.70005	0.92358
3920.77148	0.92534
3918.84292	0.92590
3916.91436	0.92374
3914.98579	0.92252
3913.05723	0.92356
3911.12866	0.92549
3909.20010	0.92697
3907.27153	0.92771
3905.34297	0.92870
3903.41440	0.92927
3901.48584	0.92738
3899.55728	0.92507
3897.62871	0.92477
3895.70015	0.92513
3893.77158	0.92368
3891.84302	0.92043
3889.91445	0.92011
3887.98589	0.92322
3886.05733	0.92510
3884.12876	0.92368
3882.20020	0.92199
3880.27163	0.92009
3878.34307	0.91910
3876.41450	0.91907
3874.48594	0.91789
3872.55737	0.91662
3870.62881	0.91610
3868.70025	0.91528
3866.77168	0.91487
3864.84312	0.91479
3862.91455	0.91509
3860.98599	0.91621
3859.05742	0.91855
3857.12886	0.92329
3855.20029	0.92928
3853.27173	0.92553
3851.34317	0.91753
3849.41460	0.91702
3847.48604	0.91849
3845.55747	0.91854
3843.62891	0.91735
3841.70034	0.91668
3839.77178	0.91587
3837.84321	0.91379
3835.91465	0.91278
3833.98609	0.91357
3832.05752	0.91447
3830.12896	0.91337
3828.20039	0.91057
3826.27183	0.90893
3824.34326	0.91006
3822.41470	0.91216
3820.48613	0.91405
3818.55757	0.91502
3816.62901	0.91230
3814.70044	0.90886
3812.77188	0.90887
3810.84331	0.90938
3808.91475	0.90760
3806.98618	0.90385
3805.05762	0.90379
3803.12905	0.90771
3801.20049	0.90866
3799.27193	0.90620
3797.34336	0.90407
3795.41480	0.90236
3793.48623	0.90269
3791.55767	0.90403
3789.62910	0.90423
3787.70054	0.90356
3785.77197	0.90268
3783.84341	0.90251
3781.91485	0.90457
3779.98628	0.90652
3778.05772	0.90483
3776.12915	0.90265
3774.20059	0.90293
3772.27202	0.90489
3770.34346	0.90557
3768.41489	0.90362
3766.48633	0.90127
3764.55777	0.89948
3762.62920	0.89876
3760.70064	0.89818
3758.77207	0.89756
3756.84351	0.89852
3754.91494	0.89987
3752.98638	0.90046
3751.05781	0.89915
3749.12925	0.89744
3747.20069	0.89877
3745.27212	0.90072
3743.34356	0.90019
3741.41499	0.90079
3739.48643	0.90466
3737.55786	0.91054
3735.62930	0.91326
3733.70074	0.90769
3731.77217	0.90215
3729.84361	0.90038
3727.91504	0.89877
3725.98648	0.89707
3724.05791	0.89835
3722.12935	0.89949
3720.20078	0.89821
3718.27222	0.89836
3716.34366	0.90139
3714.41509	0.90551
3712.48653	0.90732
3710.55796	0.90353
3708.62940	0.89995
3706.70083	0.90005
3704.77227	0.90178
3702.84370	0.90254
3700.91514	0.90193
3698.98658	0.90158
3697.05801	0.90141
3695.12945	0.90219
3693.20088	0.90563
3691.27232	0.90999
3689.34375	0.90715
3687.41519	0.90110
3685.48662	0.90117
3683.55806	0.90416
3681.62950	0.90709
3679.70093	0.91083
3677.77237	0.91480
3675.84380	0.91337
3673.91524	0.91129
3671.98667	0.91387
3670.05811	0.91514
3668.12954	0.91599
3666.20098	0.92009
3664.27242	0.92490
3662.34385	0.92874
3660.41529	0.93283
3658.48672	0.93746
3656.55816	0.94021
3654.62959	0.94236
3652.70103	0.94771
3650.77246	0.95456
3648.84390	0.95611
3646.91534	0.95712
3644.98677	0.96104
3643.05821	0.96482
3641.12964	0.96881
3639.20108	0.97422
3637.27251	0.97968
3635.34395	0.98344
3633.41538	0.98718
3631.48682	0.99263
3629.55826	0.99835
3627.62969	1.00323
3625.70113	1.00801
3623.77256	1.01243
3621.84400	1.01662
3619.91543	1.02025
3617.98687	1.02448
3616.05830	1.03095
3614.12974	1.03646
3612.20118	1.03889
3610.27261	1.04082
3608.34405	1.04378
3606.41548	1.04761
3604.48692	1.05245
3602.55835	1.05851
3600.62979	1.06594
3598.70123	1.07377
3596.77266	1.08023
3594.84410	1.08542
3592.91553	1.09082
3590.98697	1.09806
3589.05840	1.10760
3587.12984	1.11375
3585.20127	1.11413
3583.27271	1.11496
3581.34415	1.11788
3579.41558	1.12314
3577.48702	1.13012
3575.55845	1.13774
3573.62989	1.14555
3571.70132	1.15261
3569.77276	1.15839
3567.84419	1.16268
3565.91563	1.16450
3563.98707	1.16597
3562.05850	1.16834
3560.12994	1.17194
3558.20137	1.17892
3556.27281	1.18795
3554.34424	1.19601
3552.41568	1.20332
3550.48711	1.20972
3548.55855	1.21458
3546.62999	1.22059
3544.70142	1.22920
3542.77286	1.23558
3540.84429	1.23736
3538.91573	1.23791
3536.98716	1.24046
3535.05860	1.24376
3533.13003	1.24739
3531.20147	1.25434
3529.27291	1.26327
3527.34434	1.27092
3525.41578	1.27982
3523.48721	1.29090
3521.55865	1.29868
3519.63008	1.30233
3517.70152	1.30758
3515.77295	1.31653
3513.84439	1.32613
3511.91583	1.33423
3509.98726	1.34039
3508.05870	1.34414
3506.13013	1.34995
3504.20157	1.36100
3502.27300	1.37019
3500.34444	1.37621
3498.41587	1.38538
3496.48731	1.39582
3494.55875	1.40256
3492.63018	1.40558
3490.70162	1.40927
3488.77305	1.41707
3486.84449	1.42705
3484.91592	1.43357
3482.98736	1.43350
3481.05879	1.42858
3479.13023	1.42370
3477.20167	1.42269
3475.27310	1.42761
3473.34454	1.43811
3471.41597	1.44926
3469.48741	1.45656
3467.55884	1.45902
3465.63028	1.45969
3463.70171	1.46210
3461.77315	1.46395
3459.84459	1.46565
3457.91602	1.47089
3455.98746	1.47896
3454.05889	1.48510
3452.13033	1.48495
3450.20176	1.48571
3448.27320	1.49355
3446.34464	1.49768
3444.41607	1.49372
3442.48751	1.49173
3440.55894	1.49368
3438.63038	1.49676
3436.70181	1.50278
3434.77325	1.50998
3432.84468	1.51305
3430.91612	1.51322
3428.98756	1.51285
3427.05899	1.50966
3425.13043	1.50420
3423.20186	1.50218
3421.27330	1.50605
3419.34473	1.50952
3417.41617	1.50891
3415.48760	1.50881
3413.55904	1.51187
3411.63048	1.51690
3409.70191	1.51900
3407.77335	1.51293
3405.84478	1.50432
3403.91622	1.50301
3401.98765	1.50778
3400.05909	1.51192
3398.13052	1.51369
3396.20196	1.51253
3394.27340	1.51033
3392.34483	1.51263
3390.41627	1.51791
3388.48770	1.52019
3386.55914	1.51788
3384.63057	1.51309
3382.70201	1.51202
3380.77344	1.51771
3378.84488	1.52449
3376.91632	1.52781
3374.98775	1.52724
3373.05919	1.52253
3371.13062	1.51786
3369.20206	1.51757
3367.27349	1.51907
3365.34493	1.52048
3363.41636	1.52367
3361.48780	1.52552
3359.55924	1.52191
3357.63067	1.51809
3355.70211	1.51960
3353.77354	1.52417
3351.84498	1.52990
3349.91641	1.53480
3347.98785	1.53366
3346.05928	1.52745
3344.13072	1.52259
3342.20216	1.52366
3340.27359	1.53228
3338.34503	1.54597
3336.41646	1.55626
3334.48790	1.55507
3332.55933	1.54884
3330.63077	1.54844
3328.70220	1.55168
3326.77364	1.55435
3324.84508	1.55951
3322.91651	1.56684
3320.98795	1.57205
3319.05938	1.57685
3317.13082	1.58613
3315.20225	1.59808
3313.27369	1.60516
3311.34513	1.60414
3309.41656	1.59976
3307.48800	1.59867
3305.55943	1.60395
3303.63087	1.61253
3301.70230	1.61723
3299.77374	1.61553
3297.84517	1.61343
3295.91661	1.61532
3293.98805	1.61676
3292.05948	1.61657
3290.13092	1.61951
3288.20235	1.62229
3286.27379	1.61836
3284.34522	1.61120
3282.41666	1.60773
3280.48809	1.60637
3278.55953	1.60420
3276.63097	1.60342
3274.70240	1.60102
3272.77384	1.59453
3270.84527	1.58776
3268.91671	1.57997
3266.98814	1.57331
3265.05958	1.57166
3263.13101	1.57021
3261.20245	1.56888
3259.27389	1.56984
3257.34532	1.56701
3255.41676	1.55873
3253.48819	1.54878
3251.55963	1.54010
3249.63106	1.53332
3247.70250	1.52506
3245.77393	1.51587
3243.84537	1.50976
3241.91681	1.50471
3239.98824	1.49569
3238.05968	1.48342
3236.13111	1.47629
3234.20255	1.47791
3232.27398	1.47846
3230.34542	1.47272
3228.41685	1.46623
3226.48829	1.45764
3224.55973	1.44653
3222.63116	1.43992
3220.70260	1.43692
3218.77403	1.43195
3216.84547	1.42500
3214.91690	1.41741
3212.98834	1.41052
3211.05977	1.40478
3209.13121	1.39763
3207.20265	1.38857
3205.27408	1.38173
3203.34552	1.37951
3201.41695	1.37781
3199.48839	1.37477
3197.55982	1.37452
3195.63126	1.37340
3193.70269	1.36439
3191.77413	1.35385
3189.84557	1.34938
3187.91700	1.34616
3185.98844	1.33950
3184.05987	1.33285
3182.13131	1.32885
3180.20274	1.32584
3178.27418	1.32052
3176.34562	1.31251
3174.41705	1.30677
3172.48849	1.30444
3170.55992	1.30110
3168.63136	1.29594
3166.70279	1.29096
3164.77423	1.28656
3162.84566	1.28213
3160.91710	1.27680
3158.98854	1.27134
3157.05997	1.26715
3155.13141	1.26295
3153.20284	1.25713
3151.27428	1.25103
3149.34571	1.24736
3147.41715	1.24695
3145.48858	1.24766
3143.56002	1.24672
3141.63146	1.24317
3139.70289	1.23789
3137.77433	1.23370
3135.84576	1.23240
3133.91720	1.23269
3131.98863	1.23304
3130.06007	1.23199
3128.13150	1.23031
3126.20294	1.23165
3124.27438	1.23579
3122.34581	1.23899
3120.41725	1.24013
3118.48868	1.23981
3116.56012	1.23796
3114.63155	1.23640
3112.70299	1.23748
3110.77442	1.23958
3108.84586	1.23929
3106.91730	1.23632
3104.98873	1.23275
3103.06017	1.22955
3101.13160	1.22778
3099.20304	1.22893
3097.27447	1.23081
3095.34591	1.22945
3093.41734	1.22545
3091.48878	1.22218
3089.56022	1.21934
3087.63165	1.21572
3085.70309	1.21292
3083.77452	1.21074
3081.84596	1.20675
3079.91739	1.20047
3077.98883	1.19405
3076.06026	1.19003
3074.13170	1.18714
3072.20314	1.18295
3070.27457	1.17848
3068.34601	1.17443
3066.41744	1.16971
3064.48888	1.16441
3062.56031	1.16024
3060.63175	1.15810
3058.70318	1.15595
3056.77462	1.15243
3054.84606	1.14846
3052.91749	1.14407
3050.98893	1.13937
3049.06036	1.13518
3047.13180	1.13116
3045.20323	1.12652
3043.27467	1.12190
3041.34610	1.11827
3039.41754	1.11522
3037.48898	1.11216
3035.56041	1.10903
3033.63185	1.10502
3031.70328	1.09953
3029.77472	1.09454
3027.84615	1.09143
3025.91759	1.08834
3023.98903	1.08365
3022.06046	1.07830
3020.13190	1.07394
3018.20333	1.07081
3016.27477	1.06863
3014.34620	1.06663
3012.41764	1.06350
3010.48907	1.06015
3008.56051	1.05837
3006.63195	1.05809
3004.70338	1.05783
3002.77482	1.05685
3000.84625	1.05584
2998.91769	1.05550
2996.98912	1.05633
2995.06056	1.05847
2993.13199	1.06155
2991.20343	1.06598
2989.27487	1.07188
2987.34630	1.07786
2985.41774	1.08312
2983.48917	1.08834
2981.56061	1.09410
2979.63204	1.10107
2977.70348	1.10957
2975.77491	1.11833
2973.84635	1.12599
2971.91779	1.13201
2969.98922	1.13618
2968.06066	1.13923
2966.13209	1.14324
2964.20353	1.14855
2962.27496	1.15146
2960.34640	1.14867
2958.41783	1.14176
2956.48927	1.13451
2954.56071	1.12767
2952.63214	1.12000
2950.70358	1.11271
2948.77501	1.10888
2946.84645	1.10963
2944.91788	1.11301
2942.98932	1.11747
2941.06075	1.12337
2939.13219	1.13088
2937.20363	1.13895
2935.27506	1.14605
2933.34650	1.15158
2931.41793	1.15660
2929.48937	1.16220
2927.56080	1.16676
2925.63224	1.16857
2923.70367	1.16939
2921.77511	1.16990
2919.84655	1.16796
2917.91798	1.16243
2915.98942	1.15284
2914.06085	1.13889
2912.13229	1.12277
2910.20372	1.10827
2908.27516	1.09719
2906.34659	1.08950
2904.41803	1.08404
2902.48947	1.07878
2900.56090	1.07400
2898.63234	1.07145
2896.70377	1.07079
2894.77521	1.06982
2892.84664	1.06683
2890.91808	1.06247
2888.98952	1.05850
2887.06095	1.05587
2885.13239	1.05437
2883.20382	1.05340
2881.27526	1.05332
2879.34669	1.05383
2877.41813	1.05304
2875.48956	1.05019
2873.56100	1.04590
2871.63244	1.03990
2869.70387	1.03221
2867.77531	1.02453
2865.84674	1.01808
2863.91818	1.01366
2861.98961	1.01196
2860.06105	1.01188
2858.13248	1.01289
2856.20392	1.01616
2854.27536	1.02155
2852.34679	1.02702
2850.41823	1.02793
2848.48966	1.01854
2846.56110	1.00029
2844.63253	0.98146
2842.70397	0.96690
2840.77540	0.95606
2838.84684	0.94767
2836.91828	0.94129
2834.98971	0.93622
2833.06115	0.93176
2831.13258	0.92771
2829.20402	0.92335
2827.27545	0.91823
2825.34689	0.91338
2823.41832	0.90947
2821.48976	0.90612
2819.56120	0.90320
2817.63263	0.90050
2815.70407	0.89730
2813.77550	0.89338
2811.84694	0.88930
2809.91837	0.88592
2807.98981	0.88346
2806.06124	0.88083
2804.13268	0.87738
2802.20412	0.87365
2800.27555	0.87036
2798.34699	0.86800
2796.41842	0.86662
2794.48986	0.86583
2792.56129	0.86485
2790.63273	0.86289
2788.70416	0.86027
2786.77560	0.85797
2784.84704	0.85628
2782.91847	0.85466
2780.98991	0.85301
2779.06134	0.85164
2777.13278	0.85046
2775.20421	0.84920
2773.27565	0.84750
2771.34708	0.84516
2769.41852	0.84268
2767.48996	0.84039
2765.56139	0.83817
2763.63283	0.83630
2761.70426	0.83456
2759.77570	0.83244
2757.84713	0.83085
2755.91857	0.83033
2753.99001	0.82956
2752.06144	0.82812
2750.13288	0.82676
2748.20431	0.82542
2746.27575	0.82436
2744.34718	0.82393
2742.41862	0.82337
2740.49005	0.82233
2738.56149	0.82152
2736.63293	0.82128
2734.70436	0.82175
2732.77580	0.82279
2730.84723	0.82336
2728.91867	0.82329
2726.99010	0.82344
2725.06154	0.82354
2723.13297	0.82275
2721.20441	0.82142
2719.27585	0.82045
2717.34728	0.81974
2715.41872	0.81839
2713.49015	0.81642
2711.56159	0.81479
2709.63302	0.81370
2707.70446	0.81258
2705.77589	0.81118
2703.84733	0.80945
2701.91877	0.80724
2699.99020	0.80471
2698.06164	0.80249
2696.13307	0.80093
2694.20451	0.79968
2692.27594	0.79854
2690.34738	0.79750
2688.41881	0.79618
2686.49025	0.79458
2684.56169	0.79309
2682.63312	0.79193
2680.70456	0.79132
2678.77599	0.79108
2676.84743	0.79029
2674.91886	0.78886
2672.99030	0.78805
2671.06173	0.78842
2669.13317	0.78901
2667.20461	0.78878
2665.27604	0.78794
2663.34748	0.78733
2661.41891	0.78705
2659.49035	0.78641
2657.56178	0.78526
2655.63322	0.78423
2653.70465	0.78330
2651.77609	0.78194
2649.84753	0.78030
2647.91896	0.77900
2645.99040	0.77787
2644.06183	0.77636
2642.13327	0.77502
2640.20470	0.77438
2638.27614	0.77393
2636.34757	0.77313
2634.41901	0.77192
2632.49045	0.77079
2630.56188	0.77020
2628.63332	0.76978
2626.70475	0.76926
2624.77619	0.76890
2622.84762	0.76866
2620.91906	0.76851
2618.99049	0.76874
2617.06193	0.76913
2615.13337	0.76932
2613.20480	0.76950
2611.27624	0.77001
2609.34767	0.77093
2607.41911	0.77192
2605.49054	0.77212
2603.56198	0.77135
2601.63342	0.77083
2599.70485	0.77118
2597.77629	0.77139
2595.84772	0.77069
2593.91916	0.76939
2591.99059	0.76808
2590.06203	0.76696
2588.13346	0.76579
2586.20490	0.76452
2584.27634	0.76317
2582.34777	0.76145
2580.41921	0.75927
2578.49064	0.75700
2576.56208	0.75507
2574.63351	0.75360
2572.70495	0.75250
2570.77638	0.75157
2568.84782	0.75037
2566.91926	0.74875
2564.99069	0.74717
2563.06213	0.74595
2561.13356	0.74486
2559.20500	0.74375
2557.27643	0.74300
2555.34787	0.74274
2553.41930	0.74246
2551.49074	0.74209
2549.56218	0.74201
2547.63361	0.74207
2545.70505	0.74201
2543.77648	0.74201
2541.84792	0.74201
2539.91935	0.74170
2537.99079	0.74119
2536.06222	0.74071
2534.13366	0.74007
2532.20510	0.73923
2530.27653	0.73846
2528.34797	0.73789
2526.41940	0.73759
2524.49084	0.73733
2522.56227	0.73682
2520.63371	0.73610
2518.70514	0.73507
2516.77658	0.73355
2514.84802	0.73187
2512.91945	0.73049
2510.99089	0.72920
2509.06232	0.72785
2507.13376	0.72710
2505.20519	0.72697
2503.27663	0.72671
2501.34806	0.72611
2499.41950	0.72559
2497.49094	0.72545
2495.56237	0.72528
2493.63381	0.72458
2491.70524	0.72368
2489.77668	0.72311
2487.84811	0.72296
2485.91955	0.72324
2483.99098	0.72385
2482.06242	0.72442
2480.13386	0.72468
2478.20529	0.72471
2476.27673	0.72451
2474.34816	0.72419
2472.41960	0.72384
2470.49103	0.72328
2468.56247	0.72270
2466.63391	0.72211
2464.70534	0.72097
2462.77678	0.71950
2460.84821	0.71812
2458.91965	0.71651
2456.99108	0.71476
2455.06252	0.71335
2453.13395	0.71200
2451.20539	0.71041
2449.27683	0.70892
2447.34826	0.70754
2445.41970	0.70584
2443.49113	0.70400
2441.56257	0.70254
2439.63400	0.70153
2437.70544	0.70062
2435.77687	0.69969
2433.84831	0.69897
2431.91975	0.69827
2429.99118	0.69730
2428.06262	0.69635
2426.13405	0.69573
2424.20549	0.69554
2422.27692	0.69575
2420.34836	0.69606
2418.41979	0.69609
2416.49123	0.69590
2414.56267	0.69586
2412.63410	0.69593
2410.70554	0.69593
2408.77697	0.69601
2406.84841	0.69620
2404.91984	0.69608
2402.99128	0.69561
2401.06271	0.69526
2399.13415	0.69509
2397.20559	0.69495
2395.27702	0.69462
2393.34846	0.69382
2391.41989	0.69296
2389.49133	0.69249
2387.56276	0.69196
2385.63420	0.69095
2383.70563	0.68975
2381.77707	0.68863
2379.84851	0.68774
2377.91994	0.68710
2375.99138	0.68588
2374.06281	0.68356
2372.13425	0.68108
2370.20568	0.67955
2368.27712	0.67933
2366.34855	0.67982
2364.41999	0.68032
2362.49143	0.68113
2360.56286	0.68271
2358.63430	0.68352
2356.70573	0.68178
2354.77717	0.67982
2352.84860	0.67917
2350.92004	0.67842
2348.99147	0.67758
2347.06291	0.67754
2345.13435	0.67837
2343.20578	0.67919
2341.27722	0.68022
2339.34865	0.68142
2337.42009	0.68127
2335.49152	0.67970
2333.56296	0.67812
2331.63440	0.67808
2329.70583	0.67955
2327.77727	0.68055
2325.84870	0.67999
2323.92014	0.67820
2321.99157	0.67591
2320.06301	0.67383
2318.13444	0.67217
2316.20588	0.67065
2314.27732	0.66922
2312.34875	0.66813
2310.42019	0.66739
2308.49162	0.66668
2306.56306	0.66577
2304.63449	0.66463
2302.70593	0.66343
2300.77736	0.66252
2298.84880	0.66207
2296.92024	0.66191
2294.99167	0.66179
2293.06311	0.66137
2291.13454	0.66087
2289.20598	0.66083
2287.27741	0.66105
2285.34885	0.66127
2283.42028	0.66159
2281.49172	0.66179
2279.56316	0.66181
2277.63459	0.66206
2275.70603	0.66281
2273.77746	0.66372
2271.84890	0.66418
2269.92033	0.66409
2267.99177	0.66382
2266.06320	0.66379
2264.13464	0.66392
2262.20608	0.66368
2260.27751	0.66275
2258.34895	0.66134
2256.42038	0.65993
2254.49182	0.65862
2252.56325	0.65716
2250.63469	0.65566
2248.70612	0.65416
2246.77756	0.65253
2244.84900	0.65091
2242.92043	0.64935
2240.99187	0.64772
2239.06330	0.64612
2237.13474	0.64483
2235.20617	0.64379
2233.27761	0.64308
2231.34904	0.64289
2229.42048	0.64287
2227.49192	0.64275
2225.56335	0.64294
2223.63479	0.64371
2221.70622	0.64467
2219.77766	0.64547
2217.84909	0.64625
2215.92053	0.64702
2213.99196	0.64778
2212.06340	0.64855
2210.13484	0.64933
2208.20627	0.65021
2206.27771	0.65103
2204.34914	0.65143
2202.42058	0.65150
2200.49201	0.65148
2198.56345	0.65131
2196.63488	0.65085
2194.70632	0.65007
2192.77776	0.64896
2190.84919	0.64751
2188.92063	0.64595
2186.99206	0.64448
2185.06350	0.64302
2183.13493	0.64145
2181.20637	0.63976
2179.27781	0.63807
2177.34924	0.63664
2175.42068	0.63563
2173.49211	0.63480
2171.56355	0.63392
2169.63498	0.63309
2167.70642	0.63240
2165.77785	0.63201
2163.84929	0.63221
2161.92073	0.63281
2159.99216	0.63339
2158.06360	0.63373
2156.13503	0.63411
2154.20647	0.63484
2152.27790	0.63572
2150.34934	0.63643
2148.42077	0.63702
2146.49221	0.63759
2144.56365	0.63807
2142.63508	0.63820
2140.70652	0.63789
2138.77795	0.63732
2136.84939	0.63652
2134.92082	0.63539
2132.99226	0.63389
2131.06369	0.63220
2129.13513	0.63055
2127.20657	0.62880
2125.27800	0.62673
2123.34944	0.62440
2121.42087	0.62210
2119.49231	0.62009
2117.56374	0.61835
2115.63518	0.61664
2113.70661	0.61481
2111.77805	0.61315
2109.84949	0.61189
2107.92092	0.61089
2105.99236	0.60995
2104.06379	0.60925
2102.13523	0.60891
2100.20666	0.60891
2098.27810	0.60931
2096.34953	0.61009
2094.42097	0.61082
2092.49241	0.61133
2090.56384	0.61178
2088.63528	0.61225
2086.70671	0.61282
2084.77815	0.61358
2082.84958	0.61422
2080.92102	0.61435
2078.99245	0.61429
2077.06389	0.61440
2075.13533	0.61438
2073.20676	0.61388
2071.27820	0.61307
2069.34963	0.61223
2067.42107	0.61115
2065.49250	0.60953
2063.56394	0.60766
2061.63537	0.60593
2059.70681	0.60431
2057.77825	0.60261
2055.84968	0.60070
2053.92112	0.59868
2051.99255	0.59680
2050.06399	0.59507
2048.13542	0.59343
2046.20686	0.59185
2044.27830	0.59045
2042.34973	0.58949
2040.42117	0.58886
2038.49260	0.58825
2036.56404	0.58770
2034.63547	0.58736
2032.70691	0.58717
2030.77834	0.58710
2028.84978	0.58724
2026.92122	0.58761
2024.99265	0.58806
2023.06409	0.58838
2021.13552	0.58845
2019.20696	0.58825
2017.27839	0.58784
2015.34983	0.58739
2013.42126	0.58695
2011.49270	0.58630
2009.56414	0.58536
2007.63557	0.58419
2005.70701	0.58272
2003.77844	0.58104
2001.84988	0.57941
1999.92131	0.57784
1997.99275	0.57613
1996.06418	0.57426
1994.13562	0.57222
1992.20706	0.57002
1990.27849	0.56787
1988.34993	0.56591
1986.42136	0.56409
1984.49280	0.56253
1982.56423	0.56117
1980.63567	0.55994
1978.70710	0.55889
1976.77854	0.55789
1974.84998	0.55694
1972.92141	0.55617
1970.99285	0.55552
1969.06428	0.55498
1967.13572	0.55464
1965.20715	0.55448
1963.27859	0.55431
1961.35002	0.55412
1959.42146	0.55392
1957.49290	0.55364
1955.56433	0.55314
1953.63577	0.55242
1951.70720	0.55169
1949.77864	0.55104
1947.85007	0.55025
1945.92151	0.54919
1943.99294	0.54776
1942.06438	0.54596
1940.13582	0.54428
1938.20725	0.54284
1936.27869	0.54135
1934.35012	0.53970
1932.42156	0.53791
1930.49299	0.53612
1928.56443	0.53425
1926.63586	0.53230
1924.70730	0.53054
1922.77874	0.52905
1920.85017	0.52772
1918.92161	0.52637
1916.99304	0.52501
1915.06448	0.52395
1913.13591	0.52326
1911.20735	0.52276
1909.27878	0.52231
1907.35022	0.52188
1905.42166	0.52153
1903.49309	0.52130
1901.56453	0.52118
1899.63596	0.52121
1897.70740	0.52128
1895.77883	0.52120
1893.85027	0.52104
1891.92171	0.52112
1889.99314	0.52150
1888.06458	0.52187
1886.13601	0.52215
1884.20745	0.52237
1882.27888	0.52243
1880.35032	0.52228
1878.42175	0.52185
1876.49319	0.52125
1874.56463	0.52054
1872.63606	0.51970
1870.70750	0.51886
1868.77893	0.51799
1866.85037	0.51693
1864.92180	0.51583
1862.99324	0.51469
1861.06467	0.51332
1859.13611	0.51178
1857.20755	0.51026
1855.27898	0.50875
1853.35042	0.50722
1851.42185	0.50568
1849.49329	0.50417
1847.56472	0.50261
1845.63616	0.50105
1843.70759	0.49977
1841.77903	0.49876
1839.85047	0.49764
1837.92190	0.49634
1835.99334	0.49507
1834.06477	0.49388
1832.13621	0.49287
1830.20764	0.49215
1828.27908	0.49153
1826.35051	0.49071
1824.42195	0.48982
1822.49339	0.48902
1820.56482	0.48816
1818.63626	0.48730
1816.70769	0.48647
1814.77913	0.48559
1812.85056	0.48458
1810.92200	0.48342
1808.99343	0.48246
1807.06487	0.48187
1805.13631	0.48149
1803.20774	0.48104
1801.27918	0.48037
1799.35061	0.47955
1797.42205	0.47897
1795.49348	0.47880
1793.56492	0.47897
1791.63635	0.47923
1789.70779	0.47900
1787.77923	0.47860
1785.85066	0.47842
1783.92210	0.47845
1781.99353	0.47857
1780.06497	0.47868
1778.13640	0.47876
1776.20784	0.47871
1774.27927	0.47889
1772.35071	0.47972
1770.42215	0.48061
1768.49358	0.48129
1766.56502	0.48205
1764.63645	0.48292
1762.70789	0.48443
1760.77932	0.48688
1758.85076	0.48944
1756.92220	0.49237
1754.99363	0.49535
1753.06507	0.49817
1751.13650	0.50263
1749.20794	0.50941
1747.27937	0.51599
1745.35081	0.52139
1743.42224	0.52617
1741.49368	0.53074
1739.56512	0.53500
1737.63655	0.53790
1735.70799	0.54008
1733.77942	0.54406
1731.85086	0.54799
1729.92229	0.55086
1727.99373	0.55406
1726.06516	0.55766
1724.13660	0.56234
1722.20804	0.56739
1720.27947	0.57216
1718.35091	0.57988
1716.42234	0.59434
1714.49378	0.60825
1712.56521	0.62011
1710.63665	0.63346
1708.70808	0.64938
1706.77952	0.67239
1704.85096	0.70329
1702.92239	0.73208
1700.99383	0.77073
1699.06526	0.82966
1697.13670	0.88305
1695.20813	0.93333
1693.27957	0.97058
1691.35100	0.99986
1689.42244	1.03477
1687.49388	1.06805
1685.56531	1.10426
1683.63675	1.16083
1681.70818	1.19988
1679.77962	1.22084
1677.85105	1.24075
1675.92249	1.26494
1673.99392	1.29034
1672.06536	1.30896
1670.13680	1.32708
1668.20823	1.34574
1666.27967	1.35574
1664.35110	1.36386
1662.42254	1.37493
1660.49397	1.38318
1658.56541	1.38672
1656.63684	1.38769
1654.70828	1.38743
1652.77972	1.38398
1650.85115	1.38074
1648.92259	1.37838
1646.99402	1.37444
1645.06546	1.37230
1643.13689	1.37210
1641.20833	1.37217
1639.27976	1.37059
1637.35120	1.36683
1635.42264	1.36220
1633.49407	1.35911
1631.56551	1.35608
1629.63694	1.35046
1627.70838	1.34264
1625.77981	1.33301
1623.85125	1.31874
1621.92269	1.30066
1619.99412	1.28401
1618.06556	1.26188
1616.13699	1.22752
1614.20843	1.19887
1612.27986	1.17585
1610.35130	1.14951
1608.42273	1.12074
1606.49417	1.09599
1604.56561	1.07678
1602.63704	1.06062
1600.70848	1.04759
1598.77991	1.03820
1596.85135	1.03160
1594.92278	1.02687
1592.99422	1.02393
1591.06565	1.02321
1589.13709	1.02517
1587.20853	1.03001
1585.27996	1.03719
1583.35140	1.04648
1581.42283	1.05719
1579.49427	1.06798
1577.56570	1.08167
1575.63714	1.10169
1573.70857	1.11641
1571.78001	1.12694
1569.85145	1.14330
1567.92288	1.16131
1565.99432	1.17427
1564.06575	1.18628
1562.13719	1.19584
1560.20862	1.20601
1558.28006	1.22706
1556.35149	1.23869
1554.42293	1.24329
1552.49437	1.24633
1550.56580	1.24695
1548.63724	1.24531
1546.70867	1.24279
1544.78011	1.23986
1542.85154	1.23759
1540.92298	1.23470
1538.99441	1.22736
1537.06585	1.22271
1535.13729	1.21875
1533.20872	1.21368
1531.28016	1.20901
1529.35159	1.20480
1527.42303	1.19986
1525.49446	1.19539
1523.56590	1.19320
1521.63733	1.19182
1519.70877	1.19065
1517.78021	1.18693
1515.85164	1.17746
1513.92308	1.16412
1511.99451	1.14920
1510.06595	1.13394
1508.13738	1.10996
1506.20882	1.06943
1504.28025	1.04755
1502.35169	1.03271
1500.42313	1.01432
1498.49456	0.99030
1496.56600	0.96277
1494.63743	0.94223
1492.70887	0.92893
1490.78030	0.91376
1488.85174	0.89308
1486.92317	0.87796
1484.99461	0.86956
1483.06605	0.86332
1481.13748	0.85840
1479.20892	0.85671
1477.28035	0.85959
1475.35179	0.86757
1473.42322	0.88311
1471.49466	0.90109
1469.56610	0.91128
1467.63753	0.91812
1465.70897	0.92706
1463.78040	0.93709
1461.85184	0.94295
1459.92327	0.94614
1457.99471	0.95237
1456.06614	0.96136
1454.13758	0.96382
1452.20902	0.96323
1450.28045	0.96172
1448.35189	0.95898
1446.42332	0.95508
1444.49476	0.95037
1442.56619	0.94436
1440.63763	0.93765
1438.70906	0.93040
1436.78050	0.92102
1434.85194	0.91161
1432.92337	0.90419
1430.99481	0.89641
1429.06624	0.88824
1427.13768	0.88220
1425.20911	0.87875
1423.28055	0.87749
1421.35198	0.87808
1419.42342	0.88075
1417.49486	0.88385
1415.56629	0.88476
1413.63773	0.88462
1411.70916	0.88410
1409.78060	0.88361
1407.85203	0.88406
1405.92347	0.88633
1403.99490	0.88984
1402.06634	0.89283
1400.13778	0.89572
1398.20921	0.89890
1396.28065	0.90180
1394.35208	0.90539
1392.42352	0.91028
1390.49495	0.91648
1388.56639	0.92696
1386.63782	0.94436
1384.70926	0.96298
1382.78070	0.97842
1380.85213	0.98970
1378.92357	0.99436
1376.99500	0.99119
1375.06644	0.97978
1373.13787	0.96203
1371.20931	0.94284
1369.28074	0.92110
1367.35218	0.89725
1365.42362	0.87597
1363.49505	0.85658
1361.56649	0.83945
1359.63792	0.82777
1357.70936	0.82030
1355.78079	0.81557
1353.85223	0.81313
1351.92366	0.81242
1349.99510	0.81293
1348.06654	0.81423
1346.13797	0.81600
1344.20941	0.81815
1342.28084	0.82081
1340.35228	0.82510
1338.42371	0.83156
1336.49515	0.83867
1334.56659	0.84667
1332.63802	0.85662
1330.70946	0.86725
1328.78089	0.87544
1326.85233	0.87963
1324.92376	0.88099
1322.99520	0.88121
1321.06663	0.88117
1319.13807	0.88100
1317.20951	0.88091
1315.28094	0.88117
1313.35238	0.88160
1311.42381	0.88126
1309.49525	0.87968
1307.56668	0.87737
1305.63812	0.87502
1303.70955	0.87278
1301.78099	0.87030
1299.85243	0.86712
1297.92386	0.86350
1295.99530	0.86057
1294.06673	0.85936
1292.13817	0.86027
1290.20960	0.86306
1288.28104	0.86698
1286.35247	0.87131
1284.42391	0.87575
1282.49535	0.88016
1280.56678	0.88434
1278.63822	0.88856
1276.70965	0.89352
1274.78109	0.89937
1272.85252	0.90613
1270.92396	0.91384
1268.99539	0.92152
1267.06683	0.92750
1265.13827	0.93090
1263.20970	0.93194
1261.28114	0.93099
1259.35257	0.92829
1257.42401	0.92469
1255.49544	0.92135
1253.56688	0.91890
1251.63831	0.91750
1249.70975	0.91687
1247.78119	0.91633
1245.85262	0.91567
1243.92406	0.91539
1241.99549	0.91581
1240.06693	0.91657
1238.13836	0.91717
1236.20980	0.91755
1234.28123	0.91742
1232.35267	0.91612
1230.42411	0.91381
1228.49554	0.91114
1226.56698	0.90812
1224.63841	0.90451
1222.70985	0.90071
1220.78128	0.89710
1218.85272	0.89357
1216.92415	0.89067
1214.99559	0.88984
1213.06703	0.89173
1211.13846	0.89540
1209.20990	0.89853
1207.28133	0.89844
1205.35277	0.89392
1203.42420	0.88533
1201.49564	0.87386
1199.56708	0.86142
1197.63851	0.84943
1195.70995	0.83830
1193.78138	0.82917
1191.85282	0.82331
1189.92425	0.82070
1187.99569	0.82091
1186.06712	0.82365
1184.13856	0.82877
1182.21000	0.83665
1180.28143	0.84775
1178.35287	0.86184
1176.42430	0.87817
1174.49574	0.89641
1172.56717	0.91653
1170.63861	0.93822
1168.71004	0.96104
1166.78148	0.98433
1164.85292	1.00667
1162.92435	1.02587
1160.99579	1.03962
1159.06722	1.04686
1157.13866	1.04801
1155.21009	1.04342
1153.28153	1.03329
1151.35296	1.01927
1149.42440	1.00377
1147.49584	0.98858
1145.56727	0.97480
1143.63871	0.96362
1141.71014	0.95580
1139.78158	0.95138
1137.85301	0.95005
1135.92445	0.95106
1133.99588	0.95430
1132.06732	0.96102
1130.13876	0.97198
1128.21019	0.98603
1126.28163	1.00102
1124.35306	1.01513
1122.42450	1.02710
1120.49593	1.03631
1118.56737	1.04264
1116.63880	1.04640
1114.71024	1.04762
1112.78168	1.04694
1110.85311	1.04608
1108.92455	1.04617
1106.99598	1.04760
1105.06742	1.05035
1103.13885	1.05436
1101.21029	1.06059
1099.28172	1.07002
1097.35316	1.08252
1095.42460	1.09642
1093.49603	1.11039
1091.56747	1.12527
1089.63890	1.14088
1087.71034	1.15551
1085.78177	1.16917
1083.85321	1.18168
1081.92464	1.19065
1079.99608	1.19509
1078.06752	1.19663
1076.13895	1.19582
1074.21039	1.19172
1072.28182	1.18348
1070.35326	1.17115
1068.42469	1.15659
1066.49613	1.14136
1064.56756	1.12607
1062.63900	1.11141
1060.71044	1.09735
1058.78187	1.08427
1056.85331	1.07361
1054.92474	1.06666
1052.99618	1.06348
1051.06761	1.06308
1049.13905	1.06525
1047.21049	1.07071
1045.28192	1.07962
1043.35336	1.09115
1041.42479	1.10334
1039.49623	1.11447
1037.56766	1.12455
1035.63910	1.13328
1033.71053	1.13934
1031.78197	1.14206
1029.85341	1.14154
1027.92484	1.13886
1025.99628	1.13453
1024.06771	1.12778
1022.13915	1.11920
1020.21058	1.10989
1018.28202	1.09945
1016.35345	1.08700
1014.42489	1.07110
1012.49633	1.05057
1010.56776	1.02603
1008.63920	0.99849
1006.71063	0.96932
1004.78207	0.94072
1002.85350	0.91458
1000.92494	0.89182
998.99637	0.87248
997.06781	0.85608
995.13925	0.84206
993.21068	0.82977
991.28212	0.81858
989.35355	0.80842
987.42499	0.79980
985.49642	0.79339
983.56786	0.79006
981.63929	0.79026
979.71073	0.79331
977.78217	0.79785
975.85360	0.80244
973.92504	0.80607
971.99647	0.80869
970.06791	0.81076
968.13934	0.81299
966.21078	0.81649
964.28221	0.82229
962.35365	0.83147
960.42509	0.84497
958.49652	0.86141
956.56796	0.87595
954.63939	0.88358
952.71083	0.88314
950.78226	0.87639
948.85370	0.86636
946.92513	0.85629
944.99657	0.84773
943.06801	0.84093
941.13944	0.83525
939.21088	0.82963
937.28231	0.82443
935.35375	0.82044
933.42518	0.81757
931.49662	0.81591
929.56805	0.81602
927.63949	0.81790
925.71093	0.82125
923.78236	0.82566
921.85380	0.83067
919.92523	0.83579
917.99667	0.84038
916.06810	0.84485
914.13954	0.85044
912.21098	0.85746
910.28241	0.86530
908.35385	0.87373
906.42528	0.88290
904.49672	0.89192
902.56815	0.89937
900.63959	0.90489
898.71102	0.90797
896.78246	0.90776
894.85390	0.90485
892.92533	0.90021
890.99677	0.89379
889.06820	0.88578
887.13964	0.87718
885.21107	0.86875
883.28251	0.86068
881.35394	0.85278
879.42538	0.84494
877.49682	0.83717
875.56825	0.82951
873.63969	0.82236
871.71112	0.81575
869.78256	0.80942
867.85399	0.80361
865.92543	0.79860
863.99686	0.79463
862.06830	0.79180
860.13974	0.79029
858.21117	0.79057
856.28261	0.79259
854.35404	0.79532
852.42548	0.79797
850.49691	0.80136
848.56835	0.80625
846.63978	0.81204
844.71122	0.81800
842.78266	0.82389
840.85409	0.82983
838.92553	0.83596
836.99696	0.84210
835.06840	0.84773
833.13983	0.85244
831.21127	0.85690
829.28270	0.86158
827.35414	0.86572
825.42558	0.86877
823.49701	0.87124
821.56845	0.87425
819.63988	0.87818
817.71132	0.88250
815.78275	0.88697
813.85419	0.89133
811.92562	0.89480
809.99706	0.89776
808.06850	0.90098
806.13993	0.90417
804.21137	0.90777
802.28280	0.91199
800.35424	0.91563
798.42567	0.91867
796.49711	0.92186
794.56854	0.92453
792.63998	0.92610
790.71142	0.92775
788.78285	0.93059
786.85429	0.93387
784.92572	0.93587
782.99716	0.93584
781.06859	0.93448
779.14003	0.93296
777.21147	0.93138
775.28290	0.92964
773.35434	0.92807
771.42577	0.92638
769.49721	0.92426
767.56864	0.92228
765.64008	0.92114
763.71151	0.92115
761.78295	0.92202
759.85439	0.92335
757.92582	0.92508
755.99726	0.92703
754.06869	0.92920
752.14013	0.93176
750.21156	0.93427
748.28300	0.93606
746.35443	0.93703
744.42587	0.93736
742.49731	0.93685
740.56874	0.93520
738.64018	0.93246
736.71161	0.92854
734.78305	0.92288
732.85448	0.91585
730.92592	0.90898
728.99735	0.90206
727.06879	0.89365
725.14023	0.88454
723.21166	0.87655
721.28310	0.86906
719.35453	0.86069
717.42597	0.85228
715.49740	0.84520
713.56884	0.83957
711.64027	0.83530
709.71171	0.83280
707.78315	0.83212
705.85458	0.83263
703.92602	0.83425
701.99745	0.83738
700.06889	0.84212
698.14032	0.84835
696.21176	0.85643
694.28319	0.86666
692.35463	0.87835
690.42607	0.89094
688.49750	0.90373
686.56894	0.91603
684.64037	0.92854
682.71181	0.94186
680.78324	0.95444
678.85468	0.96563
676.92611	0.97675
674.99755	0.98775
673.06899	0.99707
671.14042	1.00380
669.21186	1.00871
667.28329	1.01088
665.35473	1.00917
663.42616	1.00437
661.49760	0.99612
659.56903	0.98657
657.64047	0.97779
655.71191	0.96877
653.78334	0.95803
651.85478	0.94580
649.92621	0.93378
647.99765	0.92311
646.06908	0.91422
644.14052	0.90800
642.21195	0.90556
640.28339	0.90644
638.35483	0.90912
636.42626	0.91366
634.49770	0.92041
632.56913	0.92732
630.64057	0.93271
628.71200	0.93765
626.78344	0.94450
624.85488	0.95431
622.92631	0.96421
620.99775	0.97084
619.06918	0.97619
617.14062	0.98259
615.21205	0.98637
613.28349	0.98476
611.35492	0.97962
609.42636	0.97216
607.49780	0.96202
605.56923	0.94928
603.64067	0.93317
601.71210	0.91339
599.78354	0.89261
