3997.91406	0.78132
3995.98550	0.78218
3994.05693	0.78195
3992.12837	0.77950
3990.19980	0.77713
3988.27124	0.77644
3986.34268	0.77647
3984.41411	0.77667
3982.48555	0.77689
3980.55698	0.77628
3978.62842	0.77568
3976.69985	0.77628
3974.77129	0.77704
3972.84272	0.77698
3970.91416	0.77632
3968.98560	0.77463
3967.05703	0.77215
3965.12847	0.77063
3963.19990	0.77105
3961.27134	0.77228
3959.34277	0.77216
3957.41421	0.77076
3955.48564	0.76997
3953.55708	0.76972
3951.62852	0.76870
3949.69995	0.76779
3947.77139	0.76779
3945.84282	0.76731
3943.91426	0.76707
3941.98569	0.76764
3940.05713	0.76723
3938.12856	0.76583
3936.20000	0.76386
3934.27144	0.76245
3932.34287	0.76411
3930.41431	0.76658
3928.48574	0.76550
3926.55718	0.76307
3924.62861	0.76312
3922.70005	0.76438
3920.77148	0.76434
3918.84292	0.76395
3916.91436	0.76353
3914.98579	0.76253
3913.05723	0.76169
3911.12866	0.76099
3909.20010	0.75932
3907.27153	0.75750
3905.34297	0.75829
3903.41440	0.76107
3901.48584	0.76156
3899.55728	0.76088
3897.62871	0.75971
3895.70015	0.75755
3893.77158	0.75725
3891.84302	0.75917
3889.91445	0.75669
3887.98589	0.75151
3886.05733	0.75046
3884.12876	0.75325
3882.20020	0.75484
3880.27163	0.75493
3878.34307	0.75338
3876.41450	0.75206
3874.48594	0.75203
3872.55737	0.75102
3870.62881	0.75017
3868.70025	0.75051
3866.77168	0.74964
3864.84312	0.74990
3862.91455	0.75107
3860.98599	0.74973
3859.05742	0.74752
3857.12886	0.74600
3855.20029	0.74646
3853.27173	0.75069
3851.34317	0.75066
3849.41460	0.74743
3847.48604	0.74526
3845.55747	0.74388
3843.62891	0.74231
3841.70034	0.74164
3839.77178	0.74375
3837.84321	0.74621
3835.91465	0.74436
3833.98609	0.74049
3832.05752	0.73868
3830.12896	0.73914
3828.20039	0.73945
3826.27183	0.73786
3824.34326	0.73450
3822.41470	0.73352
3820.48613	0.73617
3818.55757	0.73602
3816.62901	0.73643
3814.70044	0.73686
3812.77188	0.73325
3810.84331	0.72895
3808.91475	0.72742
3806.98618	0.72894
3805.05762	0.72896
3803.12905	0.72844
3801.20049	0.73031
3799.27193	0.73029
3797.34336	0.73001
3795.41480	0.73015
3793.48623	0.72809
3791.55767	0.72546
3789.62910	0.72409
3787.70054	0.72430
3785.77197	0.72634
3783.84341	0.72803
3781.91485	0.72776
3779.98628	0.72763
3778.05772	0.72705
3776.12915	0.72416
3774.20059	0.72079
3772.27202	0.71949
3770.34346	0.72131
3768.41489	0.72240
3766.48633	0.72135
3764.55777	0.72092
3762.62920	0.72016
3760.70064	0.71930
3758.77207	0.71964
3756.84351	0.71864
3754.91494	0.71596
3752.98638	0.71414
3751.05781	0.71712
3749.12925	0.72160
3747.20069	0.72230
3745.27212	0.72298
3743.34356	0.72276
3741.41499	0.71975
3739.48643	0.71762
3737.55786	0.71899
3735.62930	0.72247
3733.70074	0.72281
3731.77217	0.72036
3729.84361	0.71730
3727.91504	0.71468
3725.98648	0.71297
3724.05791	0.71141
3722.12935	0.71023
3720.20078	0.70974
3718.27222	0.70856
3716.34366	0.70654
3714.41509	0.70560
3712.48653	0.70959
3710.55796	0.71665
3708.62940	0.71613
3706.70083	0.71156
3704.77227	0.70863
3702.84370	0.70900
3700.91514	0.71051
3698.98658	0.71027
3697.05801	0.70927
3695.12945	0.70840
3693.20088	0.70839
3691.27232	0.71209
3689.34375	0.71907
3687.41519	0.72020
3685.48662	0.71786
3683.55806	0.71688
3681.62950	0.71783
3679.70093	0.71969
3677.77237	0.72147
3675.84380	0.72542
3673.91524	0.72782
3671.98667	0.72632
3670.05811	0.72948
3668.12954	0.73644
3666.20098	0.73969
3664.27242	0.74135
3662.34385	0.74373
3660.41529	0.74658
3658.48672	0.74999
3656.55816	0.75655
3654.62959	0.76207
3652.70103	0.76297
3650.77246	0.76727
3648.84390	0.78238
3646.91534	0.78992
3644.98677	0.78937
3643.05821	0.78946
3641.12964	0.79207
3639.20108	0.79653
3637.27251	0.80165
3635.34395	0.80662
3633.41538	0.81112
3631.48682	0.81558
3629.55826	0.82422
3627.62969	0.83436
3625.70113	0.83794
3623.77256	0.83926
3621.84400	0.84083
3619.91543	0.84521
3617.98687	0.85285
3616.05830	0.85965
3614.12974	0.86652
3612.20118	0.87357
3610.27261	0.87943
3608.34405	0.88556
3606.41548	0.89155
3604.48692	0.89594
3602.55835	0.90006
3600.62979	0.90518
3598.70123	0.91084
3596.77266	0.91645
3594.84410	0.92278
3592.91553	0.92960
3590.98697	0.93573
3589.05840	0.94382
3587.12984	0.95550
3585.20127	0.96374
3583.27271	0.96728
3581.34415	0.96967
3579.41558	0.97265
3577.48702	0.97634
3575.55845	0.98152
3573.62989	0.98899
3571.70132	0.99625
3569.77276	1.00192
3567.84419	1.01064
3565.91563	1.02257
3563.98707	1.02939
3562.05850	1.03381
3560.12994	1.03942
3558.20137	1.04661
3556.27281	1.05479
3554.34424	1.06311
3552.41568	1.06923
3550.48711	1.07230
3548.55855	1.07745
3546.62999	1.08653
3544.70142	1.09375
3542.77286	1.09705
3540.84429	1.10040
3538.91573	1.10668
3536.98716	1.11529
3535.05860	1.12280
3533.13003	1.12850
3531.20147	1.13407
3529.27291	1.14159
3527.34434	1.15301
3525.41578	1.16417
3523.48721	1.17017
3521.55865	1.17362
3519.63008	1.17929
3517.70152	1.18868
3515.77295	1.19846
3513.84439	1.20672
3511.91583	1.21660
3509.98726	1.22663
3508.05870	1.23239
3506.13013	1.23696
3504.20157	1.24535
3502.27300	1.25700
3500.34444	1.26817
3498.41587	1.27707
3496.48731	1.28533
3494.55875	1.29759
3492.63018	1.31210
3490.70162	1.32105
3488.77305	1.32383
3486.84449	1.32441
3484.91592	1.32453
3482.98736	1.32968
3481.05879	1.34080
3479.13023	1.34830
3477.20167	1.34908
3475.27310	1.34721
3473.34454	1.34801
3471.41597	1.35463
3469.48741	1.36282
3467.55884	1.36759
3465.63028	1.37119
3463.70171	1.37627
3461.77315	1.38042
3459.84459	1.38148
3457.91602	1.38010
3455.98746	1.37895
3454.05889	1.38067
3452.13033	1.38622
3450.20176	1.39455
3448.27320	1.40162
3446.34464	1.40638
3444.41607	1.41205
3442.48751	1.41685
3440.55894	1.41975
3438.63038	1.42657
3436.70181	1.43427
3434.77325	1.43160
3432.84468	1.42368
3430.91612	1.42209
3428.98756	1.42254
3427.05899	1.41860
3425.13043	1.41615
3423.20186	1.42057
3421.27330	1.42843
3419.34473	1.43268
3417.41617	1.43111
3415.48760	1.42913
3413.55904	1.42803
3411.63048	1.42477
3409.70191	1.42216
3407.77335	1.42194
3405.84478	1.42327
3403.91622	1.42628
3401.98765	1.42831
3400.05909	1.42784
3398.13052	1.42595
3396.20196	1.42251
3394.27340	1.41841
3392.34483	1.41537
3390.41627	1.41416
3388.48770	1.41690
3386.55914	1.42367
3384.63057	1.43155
3382.70201	1.43849
3380.77344	1.44037
3378.84488	1.43672
3376.91632	1.43419
3374.98775	1.43465
3373.05919	1.43609
3371.13062	1.43797
3369.20206	1.43756
3367.27349	1.43376
3365.34493	1.43127
3363.41636	1.43335
3361.48780	1.43789
3359.55924	1.44237
3357.63067	1.44742
3355.70211	1.45400
3353.77354	1.45875
3351.84498	1.45930
3349.91641	1.46033
3347.98785	1.46527
3346.05928	1.47032
3344.13072	1.47097
3342.20216	1.46835
3340.27359	1.46618
3338.34503	1.46644
3336.41646	1.47196
3334.48790	1.48252
3332.55933	1.49193
3330.63077	1.49874
3328.70220	1.50594
3326.77364	1.51219
3324.84508	1.51348
3322.91651	1.51233
3320.98795	1.51606
3319.05938	1.52305
3317.13082	1.52690
3315.20225	1.52896
3313.27369	1.53508
3311.34513	1.54529
3309.41656	1.55121
3307.48800	1.55038
3305.55943	1.55054
3303.63087	1.55531
3301.70230	1.56013
3299.77374	1.56006
3297.84517	1.55946
3295.91661	1.56432
3293.98805	1.57068
3292.05948	1.57477
3290.13092	1.57757
3288.20235	1.57834
3286.27379	1.57782
3284.34522	1.57700
3282.41666	1.57502
3280.48809	1.57251
3278.55953	1.56788
3276.63097	1.56246
3274.70240	1.56170
3272.77384	1.56201
3270.84527	1.55762
3268.91671	1.55334
3266.98814	1.55361
3265.05958	1.55176
3263.13101	1.54207
3261.20245	1.53153
3259.27389	1.52599
3257.34532	1.52181
3255.41676	1.51369
3253.48819	1.50014
3251.55963	1.48591
3249.63106	1.47580
3247.70250	1.46698
3245.77393	1.45681
3243.84537	1.44711
3241.91681	1.43735
3239.98824	1.42912
3238.05968	1.42506
3236.13111	1.41975
3234.20255	1.41014
3232.27398	1.40151
3230.34542	1.39384
3228.41685	1.38595
3226.48829	1.38381
3224.55973	1.38625
3222.63116	1.38407
3220.70260	1.37437
3218.77403	1.36040
3216.84547	1.34842
3214.91690	1.34205
3212.98834	1.33845
3211.05977	1.33548
3209.13121	1.33260
3207.20265	1.32904
3205.27408	1.32581
3203.34552	1.32312
3201.41695	1.31990
3199.48839	1.31578
3197.55982	1.30937
3195.63126	1.29844
3193.70269	1.28706
3191.77413	1.28297
3189.84557	1.28339
3187.91700	1.27954
3185.98844	1.27242
3184.05987	1.26665
3182.13131	1.26293
3180.20274	1.26064
3178.27418	1.25559
3176.34562	1.24585
3174.41705	1.23747
3172.48849	1.23325
3170.55992	1.22940
3168.63136	1.22489
3166.70279	1.22102
3164.77423	1.21709
3162.84566	1.21236
3160.91710	1.20746
3158.98854	1.20413
3157.05997	1.20257
3155.13141	1.20008
3153.20284	1.19591
3151.27428	1.19201
3149.34571	1.18812
3147.41715	1.18346
3145.48858	1.18018
3143.56002	1.17878
3141.63146	1.17615
3139.70289	1.17130
3137.77433	1.16732
3135.84576	1.16671
3133.91720	1.16838
3131.98863	1.16967
3130.06007	1.16989
3128.13150	1.17005
3126.20294	1.17013
3124.27438	1.16895
3122.34581	1.16652
3120.41725	1.16539
3118.48868	1.16654
3116.56012	1.16767
3114.63155	1.16824
3112.70299	1.16850
3110.77442	1.16819
3108.84586	1.16865
3106.91730	1.16924
3104.98873	1.16760
3103.06017	1.16391
3101.13160	1.16054
3099.20304	1.15961
3097.27447	1.16034
3095.34591	1.16002
3093.41734	1.15791
3091.48878	1.15565
3089.56022	1.15388
3087.63165	1.15111
3085.70309	1.14734
3083.77452	1.14529
3081.84596	1.14485
3079.91739	1.14280
3077.98883	1.13911
3076.06026	1.13663
3074.13170	1.13604
3072.20314	1.13457
3070.27457	1.13018
3068.34601	1.12482
3066.41744	1.12022
3064.48888	1.11632
3062.56031	1.11299
3060.63175	1.10930
3058.70318	1.10474
3056.77462	1.09984
3054.84606	1.09525
3052.91749	1.09139
3050.98893	1.08757
3049.06036	1.08300
3047.13180	1.07830
3045.20323	1.07431
3043.27467	1.07125
3041.34610	1.06832
3039.41754	1.06392
3037.48898	1.05880
3035.56041	1.05510
3033.63185	1.05266
3031.70328	1.05061
3029.77472	1.04824
3027.84615	1.04449
3025.91759	1.04014
3023.98903	1.03653
3022.06046	1.03353
3020.13190	1.03109
3018.20333	1.02898
3016.27477	1.02681
3014.34620	1.02494
3012.41764	1.02342
3010.48907	1.02191
3008.56051	1.01983
3006.63195	1.01698
3004.70338	1.01469
3002.77482	1.01406
3000.84625	1.01434
2998.91769	1.01432
2996.98912	1.01462
2995.06056	1.01694
2993.13199	1.02067
2991.20343	1.02414
2989.27487	1.02730
2987.34630	1.03096
2985.41774	1.03578
2983.48917	1.04204
2981.56061	1.04885
2979.63204	1.05480
2977.70348	1.05995
2975.77491	1.06504
2973.84635	1.07111
2971.91779	1.07945
2969.98922	1.08825
2968.06066	1.09536
2966.13209	1.10222
2964.20353	1.10860
2962.27496	1.11131
2960.34640	1.10931
2958.41783	1.10434
2956.48927	1.09870
2954.56071	1.09361
2952.63214	1.08807
2950.70358	1.08124
2948.77501	1.07578
2946.84645	1.07534
2944.91788	1.07970
2942.98932	1.08509
2941.06075	1.08984
2939.13219	1.09617
2937.20363	1.10543
2935.27506	1.11488
2933.34650	1.12231
2931.41793	1.12926
2929.48937	1.13581
2927.56080	1.13979
2925.63224	1.14209
2923.70367	1.14503
2921.77511	1.14745
2919.84655	1.14614
2917.91798	1.13980
2915.98942	1.12776
2914.06085	1.10937
2912.13229	1.08870
2910.20372	1.07196
2908.27516	1.05949
2906.34659	1.04877
2904.41803	1.03980
2902.48947	1.03301
2900.56090	1.02842
2898.63234	1.02542
2896.70377	1.02270
2894.77521	1.01978
2892.84664	1.01662
2890.91808	1.01377
2888.98952	1.01135
2887.06095	1.00829
2885.13239	1.00518
2883.20382	1.00419
2881.27526	1.00564
2879.34669	1.00754
2877.41813	1.00805
2875.48956	1.00657
2873.56100	1.00265
2871.63244	0.99609
2869.70387	0.98802
2867.77531	0.98030
2865.84674	0.97428
2863.91818	0.97052
2861.98961	0.96813
2860.06105	0.96664
2858.13248	0.96781
2856.20392	0.97230
2854.27536	0.97780
2852.34679	0.98216
2850.41823	0.98211
2848.48966	0.97155
2846.56110	0.95033
2844.63253	0.92707
2842.70397	0.90853
2840.77540	0.89555
2838.84684	0.88675
2836.91828	0.88012
2834.98971	0.87408
2833.06115	0.86816
2831.13258	0.86286
2829.20402	0.85864
2827.27545	0.85527
2825.34689	0.85262
2823.41832	0.85053
2821.48976	0.84822
2819.56120	0.84534
2817.63263	0.84206
2815.70407	0.83878
2813.77550	0.83600
2811.84694	0.83377
2809.91837	0.83156
2807.98981	0.82882
2806.06124	0.82580
2804.13268	0.82296
2802.20412	0.82002
2800.27555	0.81694
2798.34699	0.81423
2796.41842	0.81174
2794.48986	0.80892
2792.56129	0.80613
2790.63273	0.80388
2788.70416	0.80170
2786.77560	0.79891
2784.84704	0.79607
2782.91847	0.79421
2780.98991	0.79305
2779.06134	0.79163
2777.13278	0.79000
2775.20421	0.78859
2773.27565	0.78703
2771.34708	0.78484
2769.41852	0.78236
2767.48996	0.77980
2765.56139	0.77720
2763.63283	0.77498
2761.70426	0.77331
2759.77570	0.77187
2757.84713	0.77031
2755.91857	0.76810
2753.99001	0.76527
2752.06144	0.76267
2750.13288	0.76064
2748.20431	0.75863
2746.27575	0.75644
2744.34718	0.75461
2742.41862	0.75366
2740.49005	0.75303
2738.56149	0.75169
2736.63293	0.74971
2734.70436	0.74774
2732.77580	0.74605
2730.84723	0.74434
2728.91867	0.74225
2726.99010	0.74038
2725.06154	0.73907
2723.13297	0.73730
2721.20441	0.73487
2719.27585	0.73306
2717.34728	0.73218
2715.41872	0.73112
2713.49015	0.72922
2711.56159	0.72693
2709.63302	0.72496
2707.70446	0.72333
2705.77589	0.72168
2703.84733	0.72021
2701.91877	0.71897
2699.99020	0.71773
2698.06164	0.71654
2696.13307	0.71507
2694.20451	0.71330
2692.27594	0.71186
2690.34738	0.71100
2688.41881	0.71013
2686.49025	0.70910
2684.56169	0.70845
2682.63312	0.70797
2680.70456	0.70691
2678.77599	0.70537
2676.84743	0.70406
2674.91886	0.70308
2672.99030	0.70190
2671.06173	0.70036
2669.13317	0.69915
2667.20461	0.69830
2665.27604	0.69703
2663.34748	0.69547
2661.41891	0.69413
2659.49035	0.69264
2657.56178	0.69103
2655.63322	0.68988
2653.70465	0.68881
2651.77609	0.68736
2649.84753	0.68599
2647.91896	0.68501
2645.99040	0.68419
2644.06183	0.68353
2642.13327	0.68298
2640.20470	0.68208
2638.27614	0.68079
2636.34757	0.67953
2634.41901	0.67837
2632.49045	0.67732
2630.56188	0.67639
2628.63332	0.67529
2626.70475	0.67392
2624.77619	0.67253
2622.84762	0.67125
2620.91906	0.66984
2618.99049	0.66825
2617.06193	0.66666
2615.13337	0.66501
2613.20480	0.66337
2611.27624	0.66210
2609.34767	0.66080
2607.41911	0.65889
2605.49054	0.65683
2603.56198	0.65506
2601.63342	0.65356
2599.70485	0.65245
2597.77629	0.65159
2595.84772	0.65065
2593.91916	0.64948
2591.99059	0.64799
2590.06203	0.64637
2588.13346	0.64488
2586.20490	0.64353
2584.27634	0.64211
2582.34777	0.64051
2580.41921	0.63862
2578.49064	0.63660
2576.56208	0.63516
2574.63351	0.63449
2572.70495	0.63389
2570.77638	0.63284
2568.84782	0.63151
2566.91926	0.63020
2564.99069	0.62915
2563.06213	0.62848
2561.13356	0.62791
2559.20500	0.62740
2557.27643	0.62717
2555.34787	0.62681
2553.41930	0.62591
2551.49074	0.62498
2549.56218	0.62428
2547.63361	0.62359
2545.70505	0.62316
2543.77648	0.62296
2541.84792	0.62251
2539.91935	0.62182
2537.99079	0.62098
2536.06222	0.61977
2534.13366	0.61835
2532.20510	0.61710
2530.27653	0.61605
2528.34797	0.61490
2526.41940	0.61343
2524.49084	0.61187
2522.56227	0.61054
2520.63371	0.60941
2518.70514	0.60829
2516.77658	0.60714
2514.84802	0.60589
2512.91945	0.60446
2510.99089	0.60317
2509.06232	0.60219
2507.13376	0.60124
2505.20519	0.60014
2503.27663	0.59888
2501.34806	0.59734
2499.41950	0.59550
2497.49094	0.59371
2495.56237	0.59226
2493.63381	0.59091
2491.70524	0.58931
2489.77668	0.58723
2487.84811	0.58503
2485.91955	0.58332
2483.99098	0.58202
2482.06242	0.58074
2480.13386	0.57941
2478.20529	0.57807
2476.27673	0.57678
2474.34816	0.57548
2472.41960	0.57396
2470.49103	0.57227
2468.56247	0.57075
2466.63391	0.56959
2464.70534	0.56870
2462.77678	0.56775
2460.84821	0.56672
2458.91965	0.56581
2456.99108	0.56510
2455.06252	0.56441
2453.13395	0.56345
2451.20539	0.56252
2449.27683	0.56187
2447.34826	0.56103
2445.41970	0.55986
2443.49113	0.55895
2441.56257	0.55845
2439.63400	0.55809
2437.70544	0.55768
2435.77687	0.55710
2433.84831	0.55634
2431.91975	0.55559
2429.99118	0.55502
2428.06262	0.55444
2426.13405	0.55374
2424.20549	0.55336
2422.27692	0.55345
2420.34836	0.55337
2418.41979	0.55261
2416.49123	0.55158
2414.56267	0.55096
2412.63410	0.55077
2410.70554	0.55061
2408.77697	0.55009
2406.84841	0.54921
2404.91984	0.54800
2402.99128	0.54654
2401.06271	0.54521
2399.13415	0.54412
2397.20559	0.54299
2395.27702	0.54166
2393.34846	0.53994
2391.41989	0.53781
2389.49133	0.53575
2387.56276	0.53399
2385.63420	0.53238
2383.70563	0.53077
2381.77707	0.52916
2379.84851	0.52754
2377.91994	0.52590
2375.99138	0.52432
2374.06281	0.52280
2372.13425	0.52131
2370.20568	0.51972
2368.27712	0.51819
2366.34855	0.51768
2364.41999	0.51837
2362.49143	0.51827
2360.56286	0.51599
2358.63430	0.51338
2356.70573	0.51215
2354.77717	0.51167
2352.84860	0.51193
2350.92004	0.51223
2348.99147	0.51141
2347.06291	0.50965
2345.13435	0.50782
2343.20578	0.50710
2341.27722	0.50756
2339.34865	0.50819
2337.42009	0.50861
2335.49152	0.50894
2333.56296	0.50907
2331.63440	0.50900
2329.70583	0.50922
2327.77727	0.50981
2325.84870	0.51008
2323.92014	0.50986
2321.99157	0.50968
2320.06301	0.50984
2318.13444	0.51025
2316.20588	0.51032
2314.27732	0.50987
2312.34875	0.50953
2310.42019	0.50950
2308.49162	0.50930
2306.56306	0.50872
2304.63449	0.50775
2302.70593	0.50658
2300.77736	0.50566
2298.84880	0.50499
2296.92024	0.50417
2294.99167	0.50326
2293.06311	0.50260
2291.13454	0.50220
2289.20598	0.50176
2287.27741	0.50128
2285.34885	0.50089
2283.42028	0.50033
2281.49172	0.49938
2279.56316	0.49836
2277.63459	0.49745
2275.70603	0.49661
2273.77746	0.49575
2271.84890	0.49470
2269.92033	0.49339
2267.99177	0.49195
2266.06320	0.49049
2264.13464	0.48908
2262.20608	0.48769
2260.27751	0.48624
2258.34895	0.48472
2256.42038	0.48320
2254.49182	0.48173
2252.56325	0.48042
2250.63469	0.47941
2248.70612	0.47852
2246.77756	0.47761
2244.84900	0.47676
2242.92043	0.47593
2240.99187	0.47517
2239.06330	0.47478
2237.13474	0.47468
2235.20617	0.47456
2233.27761	0.47441
2231.34904	0.47432
2229.42048	0.47419
2227.49192	0.47392
2225.56335	0.47354
2223.63479	0.47325
2221.70622	0.47310
2219.77766	0.47296
2217.84909	0.47271
2215.92053	0.47234
2213.99196	0.47208
2212.06340	0.47209
2210.13484	0.47215
2208.20627	0.47216
2206.27771	0.47227
2204.34914	0.47256
2202.42058	0.47289
2200.49201	0.47310
2198.56345	0.47327
2196.63488	0.47354
2194.70632	0.47396
2192.77776	0.47433
2190.84919	0.47438
2188.92063	0.47416
2186.99206	0.47390
2185.06350	0.47362
2183.13493	0.47318
2181.20637	0.47253
2179.27781	0.47169
2177.34924	0.47075
2175.42068	0.46968
2173.49211	0.46854
2171.56355	0.46752
2169.63498	0.46654
2167.70642	0.46554
2165.77785	0.46474
2163.84929	0.46417
2161.92073	0.46356
2159.99216	0.46293
2158.06360	0.46242
2156.13503	0.46200
2154.20647	0.46161
2152.27790	0.46127
2150.34934	0.46102
2148.42077	0.46070
2146.49221	0.46016
2144.56365	0.45959
2142.63508	0.45913
2140.70652	0.45859
2138.77795	0.45777
2136.84939	0.45669
2134.92082	0.45557
2132.99226	0.45460
2131.06369	0.45367
2129.13513	0.45266
2127.20657	0.45154
2125.27800	0.45045
2123.34944	0.44956
2121.42087	0.44895
2119.49231	0.44844
2117.56374	0.44792
2115.63518	0.44758
2113.70661	0.44742
2111.77805	0.44722
2109.84949	0.44706
2107.92092	0.44704
2105.99236	0.44703
2104.06379	0.44678
2102.13523	0.44632
2100.20666	0.44594
2098.27810	0.44573
2096.34953	0.44543
2094.42097	0.44490
2092.49241	0.44442
2090.56384	0.44409
2088.63528	0.44364
2086.70671	0.44307
2084.77815	0.44265
2082.84958	0.44239
2080.92102	0.44218
2078.99245	0.44202
2077.06389	0.44192
2075.13533	0.44189
2073.20676	0.44191
2071.27820	0.44203
2069.34963	0.44225
2067.42107	0.44255
2065.49250	0.44278
2063.56394	0.44267
2061.63537	0.44229
2059.70681	0.44185
2057.77825	0.44129
2055.84968	0.44050
2053.92112	0.43955
2051.99255	0.43842
2050.06399	0.43717
2048.13542	0.43582
2046.20686	0.43434
2044.27830	0.43283
2042.34973	0.43153
2040.42117	0.43039
2038.49260	0.42910
2036.56404	0.42758
2034.63547	0.42600
2032.70691	0.42448
2030.77834	0.42323
2028.84978	0.42229
2026.92122	0.42144
2024.99265	0.42051
2023.06409	0.41956
2021.13552	0.41871
2019.20696	0.41787
2017.27839	0.41686
2015.34983	0.41578
2013.42126	0.41487
2011.49270	0.41408
2009.56414	0.41312
2007.63557	0.41194
2005.70701	0.41080
2003.77844	0.40980
2001.84988	0.40893
1999.92131	0.40819
1997.99275	0.40757
1996.06418	0.40689
1994.13562	0.40619
1992.20706	0.40584
1990.27849	0.40564
1988.34993	0.40526
1986.42136	0.40489
1984.49280	0.40469
1982.56423	0.40461
1980.63567	0.40445
1978.70710	0.40424
1976.77854	0.40404
1974.84998	0.40373
1972.92141	0.40321
1970.99285	0.40248
1969.06428	0.40172
1967.13572	0.40111
1965.20715	0.40027
1963.27859	0.39909
1961.35002	0.39797
1959.42146	0.39706
1957.49290	0.39621
1955.56433	0.39541
1953.63577	0.39470
1951.70720	0.39408
1949.77864	0.39345
1947.85007	0.39268
1945.92151	0.39185
1943.99294	0.39132
1942.06438	0.39122
1940.13582	0.39095
1938.20725	0.39041
1936.27869	0.38996
1934.35012	0.38956
1932.42156	0.38900
1930.49299	0.38815
1928.56443	0.38713
1926.63586	0.38610
1924.70730	0.38522
1922.77874	0.38444
1920.85017	0.38346
1918.92161	0.38260
1916.99304	0.38221
1915.06448	0.38164
1913.13591	0.38071
1911.20735	0.37985
1909.27878	0.37924
1907.35022	0.37864
1905.42166	0.37798
1903.49309	0.37751
1901.56453	0.37712
1899.63596	0.37655
1897.70740	0.37592
1895.77883	0.37542
1893.85027	0.37484
1891.92171	0.37416
1889.99314	0.37383
1888.06458	0.37364
1886.13601	0.37311
1884.20745	0.37237
1882.27888	0.37167
1880.35032	0.37110
1878.42175	0.37059
1876.49319	0.37002
1874.56463	0.36941
1872.63606	0.36876
1870.70750	0.36837
1868.77893	0.36876
1866.85037	0.36914
1864.92180	0.36868
1862.99324	0.36817
1861.06467	0.36809
1859.13611	0.36819
1857.20755	0.36813
1855.27898	0.36794
1853.35042	0.36772
1851.42185	0.36744
1849.49329	0.36701
1847.56472	0.36637
1845.63616	0.36613
1843.70759	0.36671
1841.77903	0.36668
1839.85047	0.36590
1837.92190	0.36528
1835.99334	0.36487
1834.06477	0.36408
1832.13621	0.36325
1830.20764	0.36323
1828.27908	0.36359
1826.35051	0.36346
1824.42195	0.36344
1822.49339	0.36344
1820.56482	0.36314
1818.63626	0.36293
1816.70769	0.36288
1814.77913	0.36277
1812.85056	0.36260
1810.92200	0.36270
1808.99343	0.36289
1807.06487	0.36272
1805.13631	0.36237
1803.20774	0.36214
1801.27918	0.36245
1799.35061	0.36290
1797.42205	0.36274
1795.49348	0.36226
1793.56492	0.36241
1791.63635	0.36370
1789.70779	0.36421
1787.77923	0.36378
1785.85066	0.36356
1783.92210	0.36360
1781.99353	0.36372
1780.06497	0.36415
1778.13640	0.36449
1776.20784	0.36419
1774.27927	0.36397
1772.35071	0.36500
1770.42215	0.36643
1768.49358	0.36722
1766.56502	0.36772
1764.63645	0.36807
1762.70789	0.36913
1760.77932	0.37128
1758.85076	0.37363
1756.92220	0.37691
1754.99363	0.38049
1753.06507	0.38391
1751.13650	0.38980
1749.20794	0.39884
1747.27937	0.40706
1745.35081	0.41344
1743.42224	0.41890
1741.49368	0.42376
1739.56512	0.42812
1737.63655	0.43086
1735.70799	0.43288
1733.77942	0.43748
1731.85086	0.44141
1729.92229	0.44322
1727.99373	0.44545
1726.06516	0.44839
1724.13660	0.45274
1722.20804	0.45743
1720.27947	0.46154
1718.35091	0.46896
1716.42234	0.48389
1714.49378	0.49737
1712.56521	0.50802
1710.63665	0.52016
1708.70808	0.53505
1706.77952	0.55701
1704.85096	0.58603
1702.92239	0.61204
1700.99383	0.64776
1699.06526	0.70503
1697.13670	0.75940
1695.20813	0.81168
1693.27957	0.85017
1691.35100	0.88084
1689.42244	0.91844
1687.49388	0.95403
1685.56531	0.99128
1683.63675	1.05218
1681.70818	1.09941
1679.77962	1.12774
1677.85105	1.15412
1675.92249	1.18625
1673.99392	1.22245
1672.06536	1.25024
1670.13680	1.27741
1668.20823	1.30708
1666.27967	1.32517
1664.35110	1.34050
1662.42254	1.35976
1660.49397	1.37417
1658.56541	1.38130
1656.63684	1.38431
1654.70828	1.38781
1652.77972	1.39322
1650.85115	1.39297
1648.92259	1.39220
1646.99402	1.39411
1645.06546	1.39451
1643.13689	1.39143
1641.20833	1.38953
1639.27976	1.38814
1637.35120	1.38596
1635.42264	1.38322
1633.49407	1.37893
1631.56551	1.37339
1629.63694	1.36523
1627.70838	1.35345
1625.77981	1.33792
1623.85125	1.31693
1621.92269	1.29193
1619.99412	1.26973
1618.06556	1.24198
1616.13699	1.19922
1614.20843	1.16250
1612.27986	1.13319
1610.35130	1.10198
1608.42273	1.06948
1606.49417	1.04153
1604.56561	1.02012
1602.63704	1.00333
1600.70848	0.99086
1598.77991	0.98242
1596.85135	0.97685
1594.92278	0.97316
1592.99422	0.97107
1591.06565	0.97084
1589.13709	0.97294
1587.20853	0.97797
1585.27996	0.98585
1583.35140	0.99603
1581.42283	1.00678
1579.49427	1.01636
1577.56570	1.02916
1575.63714	1.05090
1573.70857	1.06710
1571.78001	1.07749
1569.85145	1.09380
1567.92288	1.11227
1565.99432	1.12561
1564.06575	1.13799
1562.13719	1.14806
1560.20862	1.15939
1558.28006	1.18242
1556.35149	1.19591
1554.42293	1.20232
1552.49437	1.20634
1550.56580	1.20810
1548.63724	1.20804
1546.70867	1.20673
1544.78011	1.20547
1542.85154	1.20446
1540.92298	1.19918
1538.99441	1.19109
1537.06585	1.18816
1535.13729	1.18533
1533.20872	1.18057
1531.28016	1.17527
1529.35159	1.17031
1527.42303	1.16492
1525.49446	1.15948
1523.56590	1.15595
1521.63733	1.15457
1519.70877	1.15382
1517.78021	1.14850
1515.85164	1.13615
1513.92308	1.11975
1511.99451	1.10130
1510.06595	1.08231
1508.13738	1.05487
1506.20882	1.01019
1504.28025	0.98457
1502.35169	0.96751
1500.42313	0.94853
1498.49456	0.92510
1496.56600	0.89759
1494.63743	0.87524
1492.70887	0.85905
1490.78030	0.84101
1488.85174	0.81917
1486.92317	0.80310
1484.99461	0.79249
1483.06605	0.78461
1481.13748	0.77958
1479.20892	0.77796
1477.28035	0.77994
1475.35179	0.78670
1473.42322	0.80180
1471.49466	0.81999
1469.56610	0.82998
1467.63753	0.83645
1465.70897	0.84529
1463.78040	0.85521
1461.85184	0.86059
1459.92327	0.86354
1457.99471	0.87166
1456.06614	0.88484
1454.13758	0.88885
1452.20902	0.88824
1450.28045	0.88679
1448.35189	0.88488
1446.42332	0.88186
1444.49476	0.87779
1442.56619	0.87273
1440.63763	0.86703
1438.70906	0.86042
1436.78050	0.85097
1434.85194	0.84034
1432.92337	0.83129
1430.99481	0.82234
1429.06624	0.81415
1427.13768	0.80863
1425.20911	0.80556
1423.28055	0.80436
1421.35198	0.80431
1419.42342	0.80624
1417.49486	0.80978
1415.56629	0.81120
1413.63773	0.81087
1411.70916	0.81030
1409.78060	0.81055
1407.85203	0.81190
1405.92347	0.81473
1403.99490	0.81889
1402.06634	0.82234
1400.13778	0.82516
1398.20921	0.82845
1396.28065	0.83218
1394.35208	0.83628
1392.42352	0.83996
1390.49495	0.84357
1388.56639	0.85040
1386.63782	0.86248
1384.70926	0.87521
1382.78070	0.88576
1380.85213	0.89349
1378.92357	0.89612
1376.99500	0.89253
1375.06644	0.88225
1373.13787	0.86649
1371.20931	0.84953
1369.28074	0.83098
1367.35218	0.81120
1365.42362	0.79360
1363.49505	0.77768
1361.56649	0.76395
1359.63792	0.75471
1357.70936	0.74881
1355.78079	0.74508
1353.85223	0.74273
1351.92366	0.74074
1349.99510	0.73895
1348.06654	0.73778
1346.13797	0.73705
1344.20941	0.73657
1342.28084	0.73664
1340.35228	0.73789
1338.42371	0.74062
1336.49515	0.74467
1334.56659	0.75010
1332.63802	0.75681
1330.70946	0.76427
1328.78089	0.77120
1326.85233	0.77606
1324.92376	0.77855
1322.99520	0.77994
1321.06663	0.78161
1319.13807	0.78371
1317.20951	0.78562
1315.28094	0.78704
1313.35238	0.78823
1311.42381	0.78879
1309.49525	0.78810
1307.56668	0.78622
1305.63812	0.78363
1303.70955	0.78074
1301.78099	0.77727
1299.85243	0.77268
1297.92386	0.76679
1295.99530	0.76040
1294.06673	0.75514
1292.13817	0.75176
1290.20960	0.74988
1288.28104	0.74908
1286.35247	0.74910
1284.42391	0.74955
1282.49535	0.75014
1280.56678	0.75118
1278.63822	0.75341
1276.70965	0.75704
1274.78109	0.76181
1272.85252	0.76775
1270.92396	0.77480
1268.99539	0.78228
1267.06683	0.78947
1265.13827	0.79577
1263.20970	0.80060
1261.28114	0.80362
1259.35257	0.80537
1257.42401	0.80702
1255.49544	0.80879
1253.56688	0.81013
1251.63831	0.81118
1249.70975	0.81240
1247.78119	0.81343
1245.85262	0.81394
1243.92406	0.81422
1241.99549	0.81444
1240.06693	0.81422
1238.13836	0.81314
1236.20980	0.81118
1234.28123	0.80829
1232.35267	0.80440
1230.42411	0.79961
1228.49554	0.79384
1226.56698	0.78703
1224.63841	0.77963
1222.70985	0.77241
1220.78128	0.76565
1218.85272	0.75900
1216.92415	0.75272
1214.99559	0.74820
1213.06703	0.74627
1211.13846	0.74619
1209.20990	0.74654
1207.28133	0.74556
1205.35277	0.74147
1203.42420	0.73413
1201.49564	0.72509
1199.56708	0.71577
1197.63851	0.70695
1195.70995	0.69901
1193.78138	0.69241
1191.85282	0.68788
1189.92425	0.68557
1187.99569	0.68492
1186.06712	0.68565
1184.13856	0.68766
1182.21000	0.69102
1180.28143	0.69650
1178.35287	0.70462
1176.42430	0.71469
1174.49574	0.72568
1172.56717	0.73725
1170.63861	0.74958
1168.71004	0.76297
1166.78148	0.77761
1164.85292	0.79266
1162.92435	0.80550
1160.99579	0.81340
1159.06722	0.81548
1157.13866	0.81159
1155.21009	0.80204
1153.28153	0.78861
1151.35296	0.77338
1149.42440	0.75795
1147.49584	0.74415
1145.56727	0.73343
1143.63871	0.72660
1141.71014	0.72415
1139.78158	0.72584
1137.85301	0.73064
1135.92445	0.73790
1133.99588	0.74776
1132.06732	0.76044
1130.13876	0.77569
1128.21019	0.79279
1126.28163	0.81037
1124.35306	0.82662
1122.42450	0.84071
1120.49593	0.85286
1118.56737	0.86192
1116.63880	0.86600
1114.71024	0.86464
1112.78168	0.85925
1110.85311	0.85253
1108.92455	0.84655
1106.99598	0.84140
1105.06742	0.83663
1103.13885	0.83300
1101.21029	0.83169
1099.28172	0.83333
1097.35316	0.83813
1095.42460	0.84585
1093.49603	0.85625
1091.56747	0.86943
1089.63890	0.88524
1087.71034	0.90306
1085.78177	0.92199
1083.85321	0.94051
1081.92464	0.95581
1079.99608	0.96491
1078.06752	0.96688
1076.13895	0.96305
1074.21039	0.95458
1072.28182	0.94112
1070.35326	0.92385
1068.42469	0.90597
1066.49613	0.88912
1064.56756	0.87362
1062.63900	0.85958
1060.71044	0.84699
1058.78187	0.83687
1056.85331	0.82992
1054.92474	0.82501
1052.99618	0.82196
1051.06761	0.82182
1049.13905	0.82447
1047.21049	0.82966
1045.28192	0.83767
1043.35336	0.84775
1041.42479	0.85827
1039.49623	0.86756
1037.56766	0.87451
1035.63910	0.87908
1033.71053	0.88133
1031.78197	0.88083
1029.85341	0.87732
1027.92484	0.87086
1025.99628	0.86146
1024.06771	0.84964
1022.13915	0.83732
1020.21058	0.82618
1018.28202	0.81617
1016.35345	0.80647
1014.42489	0.79584
1012.49633	0.78301
1010.56776	0.76810
1008.63920	0.75210
1006.71063	0.73596
1004.78207	0.72093
1002.85350	0.70799
1000.92494	0.69727
998.99637	0.68867
997.06781	0.68169
995.13925	0.67530
993.21068	0.66872
991.28212	0.66146
989.35355	0.65342
987.42499	0.64501
985.49642	0.63668
983.56786	0.62905
981.63929	0.62288
979.71073	0.61813
977.78217	0.61406
975.85360	0.60986
973.92504	0.60479
971.99647	0.59857
970.06791	0.59169
968.13934	0.58528
966.21078	0.58028
964.28221	0.57728
962.35365	0.57716
960.42509	0.58082
958.49652	0.58792
956.56796	0.59555
954.63939	0.59943
952.71083	0.59752
950.78226	0.59085
948.85370	0.58164
946.92513	0.57214
944.99657	0.56374
943.06801	0.55686
941.13944	0.55129
939.21088	0.54636
937.28231	0.54165
935.35375	0.53775
933.42518	0.53536
931.49662	0.53432
929.56805	0.53447
927.63949	0.53601
925.71093	0.53881
923.78236	0.54254
921.85380	0.54685
919.92523	0.55107
917.99667	0.55470
916.06810	0.55788
914.13954	0.56095
912.21098	0.56406
910.28241	0.56754
908.35385	0.57167
906.42528	0.57608
904.49672	0.58034
902.56815	0.58435
900.63959	0.58769
898.71102	0.58973
896.78246	0.59022
894.85390	0.58931
892.92533	0.58743
890.99677	0.58506
889.06820	0.58261
887.13964	0.58045
885.21107	0.57914
883.28251	0.57902
881.35394	0.57964
879.42538	0.58050
877.49682	0.58162
875.56825	0.58307
873.63969	0.58447
871.71112	0.58519
869.78256	0.58517
867.85399	0.58476
865.92543	0.58390
863.99686	0.58243
862.06830	0.58065
860.13974	0.57894
858.21117	0.57745
856.28261	0.57602
854.35404	0.57454
852.42548	0.57337
850.49691	0.57299
848.56835	0.57344
846.63978	0.57447
844.71122	0.57628
842.78266	0.57923
840.85409	0.58322
838.92553	0.58817
836.99696	0.59383
835.06840	0.59962
833.13983	0.60499
831.21127	0.60947
829.28270	0.61325
827.35414	0.61651
825.42558	0.61881
823.49701	0.62000
821.56845	0.62049
819.63988	0.62053
817.71132	0.62037
815.78275	0.62010
813.85419	0.61926
811.92562	0.61809
809.99706	0.61745
808.06850	0.61728
806.13993	0.61744
804.21137	0.61841
802.28280	0.62060
800.35424	0.62406
798.42567	0.62852
796.49711	0.63355
794.56854	0.63890
792.63998	0.64483
790.71142	0.65158
788.78285	0.65875
786.85429	0.66564
784.92572	0.67208
782.99716	0.67826
781.06859	0.68384
779.14003	0.68808
777.21147	0.69087
775.28290	0.69249
773.35434	0.69308
771.42577	0.69313
769.49721	0.69307
767.56864	0.69290
765.64008	0.69286
763.71151	0.69350
761.78295	0.69481
759.85439	0.69642
757.92582	0.69840
755.99726	0.70096
754.06869	0.70426
752.14013	0.70804
750.21156	0.71157
748.28300	0.71446
746.35443	0.71667
744.42587	0.71761
742.49731	0.71685
740.56874	0.71524
738.64018	0.71369
736.71161	0.71217
734.78305	0.71024
732.85448	0.70779
730.92592	0.70559
728.99735	0.70404
727.06879	0.70302
725.14023	0.70295
723.21166	0.70432
721.28310	0.70746
719.35453	0.71176
717.42597	0.71588
715.49740	0.72006
713.56884	0.72573
711.64027	0.73281
709.71171	0.73998
707.78315	0.74681
705.85458	0.75348
703.92602	0.75957
701.99745	0.76517
700.06889	0.77081
698.14032	0.77547
696.21176	0.77767
694.28319	0.77834
692.35463	0.77917
690.42607	0.78004
688.49750	0.78025
686.56894	0.78017
684.64037	0.78037
682.71181	0.78060
680.78324	0.78041
678.85468	0.78036
676.92611	0.78186
674.99755	0.78534
673.06899	0.78943
671.14042	0.79281
669.21186	0.79754
667.28329	0.80472
665.35473	0.80867
663.42616	0.81085
661.49760	0.81330
659.56903	0.81550
657.64047	0.81690
655.71191	0.81764
653.78334	0.81727
651.85478	0.81494
649.92621	0.81142
647.99765	0.80888
646.06908	0.80805
644.14052	0.80755
642.21195	0.80656
640.28339	0.80586
638.35483	0.80574
636.42626	0.80501
634.49770	0.80313
632.56913	0.80136
630.64057	0.79991
628.71200	0.79853
626.78344	0.79763
624.85488	0.79566
622.92631	0.79233
620.99775	0.78985
619.06918	0.78817
617.14062	0.78554
615.21205	0.78168
613.28349	0.77827
611.35492	0.77683
609.42636	0.77643
607.49780	0.77576
605.56923	0.77465
603.64067	0.77291
601.71210	0.77222
599.78354	0.77545
