3997.91406	0.74141
3995.98550	0.73964
3994.05693	0.73822
3992.12837	0.73715
3990.19980	0.73519
3988.27124	0.73291
3986.34268	0.73098
3984.41411	0.72969
3982.48555	0.73038
3980.55698	0.73249
3978.62842	0.73301
3976.69985	0.73164
3974.77129	0.73046
3972.84272	0.72945
3970.91416	0.72822
3968.98560	0.72785
3967.05703	0.72800
3965.12847	0.72789
3963.19990	0.72916
3961.27134	0.73158
3959.34277	0.73159
3957.41421	0.72964
3955.48564	0.72784
3953.55708	0.72588
3951.62852	0.72406
3949.69995	0.72355
3947.77139	0.72292
3945.84282	0.72053
3943.91426	0.71984
3941.98569	0.72207
3940.05713	0.72255
3938.12856	0.72076
3936.20000	0.71867
3934.27144	0.71748
3932.34287	0.71818
3930.41431	0.71848
3928.48574	0.71619
3926.55718	0.71520
3924.62861	0.71868
3922.70005	0.72107
3920.77148	0.71901
3918.84292	0.71767
3916.91436	0.71980
3914.98579	0.72100
3913.05723	0.71924
3911.12866	0.71625
3909.20010	0.71159
3907.27153	0.70661
3905.34297	0.70740
3903.41440	0.71437
3901.48584	0.71897
3899.55728	0.72126
3897.62871	0.72050
3895.70015	0.71487
3893.77158	0.70986
3891.84302	0.71189
3889.91445	0.71266
3887.98589	0.70702
3886.05733	0.70567
3884.12876	0.71000
3882.20020	0.71186
3880.27163	0.71335
3878.34307	0.71086
3876.41450	0.70520
3874.48594	0.70225
3872.55737	0.70047
3870.62881	0.70088
3868.70025	0.70412
3866.77168	0.70379
3864.84312	0.70480
3862.91455	0.70856
3860.98599	0.70708
3859.05742	0.70101
3857.12886	0.69325
3855.20029	0.68974
3853.27173	0.70307
3851.34317	0.71165
3849.41460	0.70728
3847.48604	0.70129
3845.55747	0.69650
3843.62891	0.69382
3841.70034	0.69334
3839.77178	0.69575
3837.84321	0.69863
3835.91465	0.69668
3833.98609	0.69407
3832.05752	0.69426
3830.12896	0.69444
3828.20039	0.69328
3826.27183	0.69175
3824.34326	0.68774
3822.41470	0.68513
3820.48613	0.69019
3818.55757	0.69191
3816.62901	0.69337
3814.70044	0.69754
3812.77188	0.69618
3810.84331	0.69152
3808.91475	0.68920
3806.98618	0.69226
3805.05762	0.69238
3803.12905	0.69017
3801.20049	0.69678
3799.27193	0.70108
3797.34336	0.69920
3795.41480	0.69784
3793.48623	0.69603
3791.55767	0.69417
3789.62910	0.69243
3787.70054	0.68991
3785.77197	0.68895
3783.84341	0.68936
3781.91485	0.68860
3779.98628	0.69027
3778.05772	0.69375
3776.12915	0.69297
3774.20059	0.68908
3772.27202	0.68535
3770.34346	0.68530
3768.41489	0.68768
3766.48633	0.68879
3764.55777	0.68788
3762.62920	0.68308
3760.70064	0.67868
3758.77207	0.68115
3756.84351	0.68380
3754.91494	0.68010
3752.98638	0.67592
3751.05781	0.68164
3749.12925	0.68648
3747.20069	0.68351
3745.27212	0.68785
3743.34356	0.69424
3741.41499	0.68884
3739.48643	0.67952
3737.55786	0.67383
3735.62930	0.67769
3733.70074	0.68615
3731.77217	0.68724
3729.84361	0.68261
3727.91504	0.67767
3725.98648	0.67704
3724.05791	0.67945
3722.12935	0.68024
3720.20078	0.67972
3718.27222	0.67792
3716.34366	0.67366
3714.41509	0.66840
3712.48653	0.66884
3710.55796	0.67779
3708.62940	0.68200
3706.70083	0.68037
3704.77227	0.67744
3702.84370	0.67731
3700.91514	0.67952
3698.98658	0.67849
3697.05801	0.67541
3695.12945	0.67239
3693.20088	0.66990
3691.27232	0.67202
3689.34375	0.68298
3687.41519	0.68990
3685.48662	0.68802
3683.55806	0.68381
3681.62950	0.68033
3679.70093	0.67789
3677.77237	0.67761
3675.84380	0.68624
3673.91524	0.69156
3671.98667	0.68749
3670.05811	0.69166
3668.12954	0.69914
3666.20098	0.69844
3664.27242	0.69626
3662.34385	0.69623
3660.41529	0.69760
3658.48672	0.70002
3656.55816	0.70580
3654.62959	0.70922
3652.70103	0.70545
3650.77246	0.70555
3648.84390	0.72504
3646.91534	0.73759
3644.98677	0.73528
3643.05821	0.73167
3641.12964	0.73110
3639.20108	0.73271
3637.27251	0.73500
3635.34395	0.73802
3633.41538	0.73929
3631.48682	0.73708
3629.55826	0.74290
3627.62969	0.75865
3625.70113	0.76152
3623.77256	0.75670
3621.84400	0.75345
3619.91543	0.75871
3617.98687	0.76849
3616.05830	0.77247
3614.12974	0.77566
3612.20118	0.77931
3610.27261	0.78156
3608.34405	0.78708
3606.41548	0.79208
3604.48692	0.79105
3602.55835	0.78978
3600.62979	0.79313
3598.70123	0.79910
3596.77266	0.80583
3594.84410	0.81241
3592.91553	0.81451
3590.98697	0.81262
3589.05840	0.81446
3587.12984	0.82520
3585.20127	0.83299
3583.27271	0.83372
3581.34415	0.83441
3579.41558	0.83848
3577.48702	0.84487
3575.55845	0.85159
3573.62989	0.85670
3571.70132	0.85769
3569.77276	0.85571
3567.84419	0.86005
3565.91563	0.87315
3563.98707	0.87888
3562.05850	0.87861
3560.12994	0.87938
3558.20137	0.88168
3556.27281	0.88376
3554.34424	0.88630
3552.41568	0.89106
3550.48711	0.89521
3548.55855	0.89741
3546.62999	0.90262
3544.70142	0.91163
3542.77286	0.91822
3540.84429	0.92207
3538.91573	0.92703
3536.98716	0.93358
3535.05860	0.93931
3533.13003	0.94401
3531.20147	0.94892
3529.27291	0.95435
3527.34434	0.95953
3525.41578	0.96449
3523.48721	0.97077
3521.55865	0.97626
3519.63008	0.97966
3517.70152	0.98475
3515.77295	0.99162
3513.84439	0.99691
3511.91583	1.00154
3509.98726	1.00834
3508.05870	1.01609
3506.13013	1.02380
3504.20157	1.03384
3502.27300	1.04373
3500.34444	1.04989
3498.41587	1.05631
3496.48731	1.06589
3494.55875	1.07496
3492.63018	1.07979
3490.70162	1.08293
3488.77305	1.08840
3486.84449	1.09583
3484.91592	1.10076
3482.98736	1.10297
3481.05879	1.10728
3479.13023	1.11314
3477.20167	1.11735
3475.27310	1.12044
3473.34454	1.12281
3471.41597	1.12417
3469.48741	1.12590
3467.55884	1.12919
3465.63028	1.13232
3463.70171	1.13491
3461.77315	1.13955
3459.84459	1.14473
3457.91602	1.14661
3455.98746	1.14773
3454.05889	1.15213
3452.13033	1.15797
3450.20176	1.16199
3448.27320	1.16485
3446.34464	1.16764
3444.41607	1.16825
3442.48751	1.16757
3440.55894	1.16960
3438.63038	1.17307
3436.70181	1.17381
3434.77325	1.17318
3432.84468	1.17486
3430.91612	1.17783
3428.98756	1.17955
3427.05899	1.17917
3425.13043	1.17698
3423.20186	1.17564
3421.27330	1.17669
3419.34473	1.17727
3417.41617	1.17632
3415.48760	1.17697
3413.55904	1.17851
3411.63048	1.17642
3409.70191	1.17168
3407.77335	1.16980
3405.84478	1.17215
3403.91622	1.17493
3401.98765	1.17533
3400.05909	1.17452
3398.13052	1.17397
3396.20196	1.17290
3394.27340	1.17178
3392.34483	1.17293
3390.41627	1.17434
3388.48770	1.17303
3386.55914	1.17240
3384.63057	1.17596
3382.70201	1.18045
3380.77344	1.18226
3378.84488	1.18270
3376.91632	1.18303
3374.98775	1.18301
3373.05919	1.18281
3371.13062	1.18339
3369.20206	1.18585
3367.27349	1.18885
3365.34493	1.19051
3363.41636	1.19127
3361.48780	1.19175
3359.55924	1.19222
3357.63067	1.19329
3355.70211	1.19464
3353.77354	1.19561
3351.84498	1.19754
3349.91641	1.20125
3347.98785	1.20275
3346.05928	1.20017
3344.13072	1.19987
3342.20216	1.20487
3340.27359	1.20981
3338.34503	1.21281
3336.41646	1.21693
3334.48790	1.22267
3332.55933	1.22776
3330.63077	1.22993
3328.70220	1.22993
3326.77364	1.23066
3324.84508	1.23341
3322.91651	1.23831
3320.98795	1.24464
3319.05938	1.25046
3317.13082	1.25413
3315.20225	1.25627
3313.27369	1.25924
3311.34513	1.26356
3309.41656	1.26738
3307.48800	1.26928
3305.55943	1.27030
3303.63087	1.27217
3301.70230	1.27500
3299.77374	1.27911
3297.84517	1.28394
3295.91661	1.28642
3293.98805	1.28610
3292.05948	1.28683
3290.13092	1.29034
3288.20235	1.29322
3286.27379	1.29433
3284.34522	1.29647
3282.41666	1.29891
3280.48809	1.29980
3278.55953	1.29965
3276.63097	1.29712
3274.70240	1.29160
3272.77384	1.28716
3270.84527	1.28604
3268.91671	1.28436
3266.98814	1.27896
3265.05958	1.27187
3263.13101	1.26580
3261.20245	1.26153
3259.27389	1.25809
3257.34532	1.25218
3255.41676	1.24144
3253.48819	1.23027
3251.55963	1.22365
3249.63106	1.21707
3247.70250	1.20639
3245.77393	1.19634
3243.84537	1.18978
3241.91681	1.18434
3239.98824	1.17904
3238.05968	1.17208
3236.13111	1.16106
3234.20255	1.15040
3232.27398	1.14609
3230.34542	1.14595
3228.41685	1.14392
3226.48829	1.13910
3224.55973	1.13528
3222.63116	1.13276
3220.70260	1.12812
3218.77403	1.12212
3216.84547	1.11730
3214.91690	1.11296
3212.98834	1.10847
3211.05977	1.10390
3209.13121	1.09948
3207.20265	1.09563
3205.27408	1.09083
3203.34552	1.08431
3201.41695	1.07814
3199.48839	1.07327
3197.55982	1.06864
3195.63126	1.06375
3193.70269	1.05954
3191.77413	1.05605
3189.84557	1.05229
3187.91700	1.04776
3185.98844	1.04196
3184.05987	1.03564
3182.13131	1.03033
3180.20274	1.02582
3178.27418	1.02256
3176.34562	1.02034
3174.41705	1.01626
3172.48849	1.01128
3170.55992	1.00906
3168.63136	1.00741
3166.70279	1.00266
3164.77423	0.99635
3162.84566	0.99133
3160.91710	0.98863
3158.98854	0.98730
3157.05997	0.98551
3155.13141	0.98254
3153.20284	0.97884
3151.27428	0.97529
3149.34571	0.97279
3147.41715	0.97181
3145.48858	0.97081
3143.56002	0.96843
3141.63146	0.96630
3139.70289	0.96500
3137.77433	0.96356
3135.84576	0.96284
3133.91720	0.96330
3131.98863	0.96376
3130.06007	0.96357
3128.13150	0.96305
3126.20294	0.96283
3124.27438	0.96312
3122.34581	0.96297
3120.41725	0.96215
3118.48868	0.96250
3116.56012	0.96475
3114.63155	0.96683
3112.70299	0.96756
3110.77442	0.96786
3108.84586	0.96751
3106.91730	0.96574
3104.98873	0.96337
3103.06017	0.96155
3101.13160	0.96009
3099.20304	0.95858
3097.27447	0.95776
3095.34591	0.95750
3093.41734	0.95603
3091.48878	0.95388
3089.56022	0.95317
3087.63165	0.95304
3085.70309	0.95105
3083.77452	0.94775
3081.84596	0.94496
3079.91739	0.94253
3077.98883	0.93982
3076.06026	0.93732
3074.13170	0.93522
3072.20314	0.93312
3070.27457	0.93091
3068.34601	0.92829
3066.41744	0.92521
3064.48888	0.92176
3062.56031	0.91788
3060.63175	0.91401
3058.70318	0.91028
3056.77462	0.90689
3054.84606	0.90381
3052.91749	0.89953
3050.98893	0.89445
3049.06036	0.89044
3047.13180	0.88721
3045.20323	0.88453
3043.27467	0.88245
3041.34610	0.87934
3039.41754	0.87484
3037.48898	0.87055
3035.56041	0.86734
3033.63185	0.86504
3031.70328	0.86321
3029.77472	0.86152
3027.84615	0.85975
3025.91759	0.85808
3023.98903	0.85647
3022.06046	0.85431
3020.13190	0.85169
3018.20333	0.84896
3016.27477	0.84613
3014.34620	0.84375
3012.41764	0.84227
3010.48907	0.84110
3008.56051	0.83964
3006.63195	0.83830
3004.70338	0.83740
3002.77482	0.83669
3000.84625	0.83612
2998.91769	0.83578
2996.98912	0.83584
2995.06056	0.83681
2993.13199	0.83884
2991.20343	0.84175
2989.27487	0.84568
2987.34630	0.85046
2985.41774	0.85499
2983.48917	0.85909
2981.56061	0.86418
2979.63204	0.87073
2977.70348	0.87779
2975.77491	0.88499
2973.84635	0.89208
2971.91779	0.89858
2969.98922	0.90462
2968.06066	0.91023
2966.13209	0.91493
2964.20353	0.91859
2962.27496	0.92069
2960.34640	0.92028
2958.41783	0.91793
2956.48927	0.91498
2954.56071	0.91129
2952.63214	0.90645
2950.70358	0.90140
2948.77501	0.89793
2946.84645	0.89778
2944.91788	0.90172
2942.98932	0.90873
2941.06075	0.91736
2939.13219	0.92688
2937.20363	0.93674
2935.27506	0.94712
2933.34650	0.95824
2931.41793	0.96866
2929.48937	0.97824
2927.56080	0.98862
2925.63224	0.99888
2923.70367	1.00685
2921.77511	1.01245
2919.84655	1.01526
2917.91798	1.01234
2915.98942	1.00032
2914.06085	0.98020
2912.13229	0.95801
2910.20372	0.93912
2908.27516	0.92476
2906.34659	0.91393
2904.41803	0.90590
2902.48947	0.90031
2900.56090	0.89615
2898.63234	0.89236
2896.70377	0.88903
2894.77521	0.88645
2892.84664	0.88384
2890.91808	0.88027
2888.98952	0.87568
2887.06095	0.87104
2885.13239	0.86745
2883.20382	0.86534
2881.27526	0.86460
2879.34669	0.86436
2877.41813	0.86340
2875.48956	0.86121
2873.56100	0.85769
2871.63244	0.85306
2869.70387	0.84775
2867.77531	0.84198
2865.84674	0.83672
2863.91818	0.83375
2861.98961	0.83379
2860.06105	0.83643
2858.13248	0.84175
2856.20392	0.85033
2854.27536	0.86148
2852.34679	0.87264
2850.41823	0.87865
2848.48966	0.87187
2846.56110	0.85081
2844.63253	0.82481
2842.70397	0.80325
2840.77540	0.78808
2838.84684	0.77732
2836.91828	0.76925
2834.98971	0.76307
2833.06115	0.75830
2831.13258	0.75445
2829.20402	0.75083
2827.27545	0.74731
2825.34689	0.74436
2823.41832	0.74206
2821.48976	0.73989
2819.56120	0.73743
2817.63263	0.73471
2815.70407	0.73197
2813.77550	0.72930
2811.84694	0.72661
2809.91837	0.72419
2807.98981	0.72228
2806.06124	0.72043
2804.13268	0.71821
2802.20412	0.71568
2800.27555	0.71294
2798.34699	0.71001
2796.41842	0.70715
2794.48986	0.70504
2792.56129	0.70384
2790.63273	0.70266
2788.70416	0.70077
2786.77560	0.69878
2784.84704	0.69769
2782.91847	0.69704
2780.98991	0.69601
2779.06134	0.69485
2777.13278	0.69364
2775.20421	0.69181
2773.27565	0.68977
2771.34708	0.68852
2769.41852	0.68803
2767.48996	0.68735
2765.56139	0.68584
2763.63283	0.68384
2761.70426	0.68192
2759.77570	0.68023
2757.84713	0.67877
2755.91857	0.67748
2753.99001	0.67601
2752.06144	0.67416
2750.13288	0.67229
2748.20431	0.67083
2746.27575	0.66990
2744.34718	0.66936
2742.41862	0.66858
2740.49005	0.66709
2738.56149	0.66566
2736.63293	0.66512
2734.70436	0.66485
2732.77580	0.66431
2730.84723	0.66367
2728.91867	0.66273
2726.99010	0.66130
2725.06154	0.65980
2723.13297	0.65859
2721.20441	0.65758
2719.27585	0.65656
2717.34728	0.65540
2715.41872	0.65395
2713.49015	0.65224
2711.56159	0.65065
2709.63302	0.64946
2707.70446	0.64847
2705.77589	0.64752
2703.84733	0.64668
2701.91877	0.64555
2699.99020	0.64413
2698.06164	0.64316
2696.13307	0.64263
2694.20451	0.64208
2692.27594	0.64133
2690.34738	0.64048
2688.41881	0.63974
2686.49025	0.63912
2684.56169	0.63847
2682.63312	0.63760
2680.70456	0.63642
2678.77599	0.63512
2676.84743	0.63417
2674.91886	0.63340
2672.99030	0.63254
2671.06173	0.63176
2669.13317	0.63091
2667.20461	0.62982
2665.27604	0.62863
2663.34748	0.62742
2661.41891	0.62648
2659.49035	0.62593
2657.56178	0.62523
2655.63322	0.62410
2653.70465	0.62296
2651.77609	0.62231
2649.84753	0.62197
2647.91896	0.62162
2645.99040	0.62147
2644.06183	0.62137
2642.13327	0.62088
2640.20470	0.62032
2638.27614	0.62004
2636.34757	0.61972
2634.41901	0.61889
2632.49045	0.61739
2630.56188	0.61593
2628.63332	0.61505
2626.70475	0.61428
2624.77619	0.61340
2622.84762	0.61279
2620.91906	0.61251
2618.99049	0.61226
2617.06193	0.61191
2615.13337	0.61126
2613.20480	0.61031
2611.27624	0.60952
2609.34767	0.60901
2607.41911	0.60848
2605.49054	0.60781
2603.56198	0.60693
2601.63342	0.60597
2599.70485	0.60522
2597.77629	0.60473
2595.84772	0.60434
2593.91916	0.60381
2591.99059	0.60308
2590.06203	0.60238
2588.13346	0.60153
2586.20490	0.60053
2584.27634	0.59985
2582.34777	0.59942
2580.41921	0.59868
2578.49064	0.59742
2576.56208	0.59614
2574.63351	0.59534
2572.70495	0.59507
2570.77638	0.59488
2568.84782	0.59418
2566.91926	0.59292
2564.99069	0.59175
2563.06213	0.59095
2561.13356	0.59011
2559.20500	0.58910
2557.27643	0.58807
2555.34787	0.58697
2553.41930	0.58588
2551.49074	0.58496
2549.56218	0.58429
2547.63361	0.58381
2545.70505	0.58324
2543.77648	0.58247
2541.84792	0.58173
2539.91935	0.58119
2537.99079	0.58076
2536.06222	0.58024
2534.13366	0.57977
2532.20510	0.57949
2530.27653	0.57929
2528.34797	0.57911
2526.41940	0.57888
2524.49084	0.57848
2522.56227	0.57803
2520.63371	0.57758
2518.70514	0.57691
2516.77658	0.57601
2514.84802	0.57511
2512.91945	0.57431
2510.99089	0.57370
2509.06232	0.57304
2507.13376	0.57199
2505.20519	0.57079
2503.27663	0.56996
2501.34806	0.56945
2499.41950	0.56880
2497.49094	0.56803
2495.56237	0.56736
2493.63381	0.56680
2491.70524	0.56647
2489.77668	0.56634
2487.84811	0.56608
2485.91955	0.56571
2483.99098	0.56565
2482.06242	0.56601
2480.13386	0.56626
2478.20529	0.56598
2476.27673	0.56529
2474.34816	0.56445
2472.41960	0.56366
2470.49103	0.56300
2468.56247	0.56246
2466.63391	0.56201
2464.70534	0.56155
2462.77678	0.56082
2460.84821	0.55966
2458.91965	0.55830
2456.99108	0.55718
2455.06252	0.55638
2453.13395	0.55544
2451.20539	0.55409
2449.27683	0.55292
2447.34826	0.55229
2445.41970	0.55188
2443.49113	0.55153
2441.56257	0.55114
2439.63400	0.55059
2437.70544	0.55011
2435.77687	0.55002
2433.84831	0.55019
2431.91975	0.55018
2429.99118	0.54989
2428.06262	0.54946
2426.13405	0.54897
2424.20549	0.54854
2422.27692	0.54833
2420.34836	0.54820
2418.41979	0.54796
2416.49123	0.54756
2414.56267	0.54697
2412.63410	0.54621
2410.70554	0.54533
2408.77697	0.54448
2406.84841	0.54371
2404.91984	0.54287
2402.99128	0.54181
2401.06271	0.54069
2399.13415	0.53982
2397.20559	0.53906
2395.27702	0.53814
2393.34846	0.53706
2391.41989	0.53605
2389.49133	0.53519
2387.56276	0.53422
2385.63420	0.53305
2383.70563	0.53197
2381.77707	0.53115
2379.84851	0.53061
2377.91994	0.53016
2375.99138	0.52937
2374.06281	0.52825
2372.13425	0.52741
2370.20568	0.52762
2368.27712	0.52837
2366.34855	0.52758
2364.41999	0.52607
2362.49143	0.52629
2360.56286	0.52660
2358.63430	0.52647
2356.70573	0.52777
2354.77717	0.52966
2352.84860	0.53041
2350.92004	0.52880
2348.99147	0.52520
2347.06291	0.52148
2345.13435	0.51989
2343.20578	0.52093
2341.27722	0.52259
2339.34865	0.52305
2337.42009	0.52198
2335.49152	0.52113
2333.56296	0.52146
2331.63440	0.52213
2329.70583	0.52278
2327.77727	0.52367
2325.84870	0.52455
2323.92014	0.52520
2321.99157	0.52585
2320.06301	0.52633
2318.13444	0.52615
2316.20588	0.52557
2314.27732	0.52547
2312.34875	0.52586
2310.42019	0.52584
2308.49162	0.52529
2306.56306	0.52475
2304.63449	0.52417
2302.70593	0.52342
2300.77736	0.52271
2298.84880	0.52205
2296.92024	0.52145
2294.99167	0.52113
2293.06311	0.52101
2291.13454	0.52086
2289.20598	0.52087
2287.27741	0.52115
2285.34885	0.52148
2283.42028	0.52150
2281.49172	0.52119
2279.56316	0.52098
2277.63459	0.52117
2275.70603	0.52152
2273.77746	0.52166
2271.84890	0.52148
2269.92033	0.52113
2267.99177	0.52098
2266.06320	0.52122
2264.13464	0.52135
2262.20608	0.52084
2260.27751	0.52006
2258.34895	0.51962
2256.42038	0.51938
2254.49182	0.51892
2252.56325	0.51819
2250.63469	0.51735
2248.70612	0.51645
2246.77756	0.51549
2244.84900	0.51455
2242.92043	0.51373
2240.99187	0.51291
2239.06330	0.51198
2237.13474	0.51113
2235.20617	0.51043
2233.27761	0.50966
2231.34904	0.50896
2229.42048	0.50849
2227.49192	0.50807
2225.56335	0.50780
2223.63479	0.50795
2221.70622	0.50825
2219.77766	0.50829
2217.84909	0.50817
2215.92053	0.50819
2213.99196	0.50830
2212.06340	0.50818
2210.13484	0.50787
2208.20627	0.50747
2206.27771	0.50676
2204.34914	0.50573
2202.42058	0.50483
2200.49201	0.50416
2198.56345	0.50340
2196.63488	0.50257
2194.70632	0.50190
2192.77776	0.50127
2190.84919	0.50051
2188.92063	0.49989
2186.99206	0.49976
2185.06350	0.49995
2183.13493	0.50015
2181.20637	0.50041
2179.27781	0.50083
2177.34924	0.50138
2175.42068	0.50187
2173.49211	0.50215
2171.56355	0.50237
2169.63498	0.50276
2167.70642	0.50313
2165.77785	0.50322
2163.84929	0.50324
2161.92073	0.50330
2159.99216	0.50330
2158.06360	0.50322
2156.13503	0.50303
2154.20647	0.50266
2152.27790	0.50218
2150.34934	0.50171
2148.42077	0.50144
2146.49221	0.50145
2144.56365	0.50161
2142.63508	0.50172
2140.70652	0.50183
2138.77795	0.50184
2136.84939	0.50181
2134.92082	0.50215
2132.99226	0.50268
2131.06369	0.50286
2129.13513	0.50272
2127.20657	0.50250
2125.27800	0.50229
2123.34944	0.50220
2121.42087	0.50221
2119.49231	0.50220
2117.56374	0.50213
2115.63518	0.50202
2113.70661	0.50185
2111.77805	0.50169
2109.84949	0.50158
2107.92092	0.50137
2105.99236	0.50107
2104.06379	0.50072
2102.13523	0.50032
2100.20666	0.50006
2098.27810	0.49996
2096.34953	0.49946
2094.42097	0.49831
2092.49241	0.49703
2090.56384	0.49619
2088.63528	0.49567
2086.70671	0.49485
2084.77815	0.49359
2082.84958	0.49236
2080.92102	0.49146
2078.99245	0.49070
2077.06389	0.48999
2075.13533	0.48947
2073.20676	0.48904
2071.27820	0.48865
2069.34963	0.48829
2067.42107	0.48803
2065.49250	0.48792
2063.56394	0.48774
2061.63537	0.48735
2059.70681	0.48676
2057.77825	0.48592
2055.84968	0.48497
2053.92112	0.48404
2051.99255	0.48300
2050.06399	0.48175
2048.13542	0.48055
2046.20686	0.47956
2044.27830	0.47857
2042.34973	0.47751
2040.42117	0.47657
2038.49260	0.47577
2036.56404	0.47506
2034.63547	0.47459
2032.70691	0.47441
2030.77834	0.47442
2028.84978	0.47448
2026.92122	0.47459
2024.99265	0.47469
2023.06409	0.47467
2021.13552	0.47454
2019.20696	0.47456
2017.27839	0.47490
2015.34983	0.47505
2013.42126	0.47467
2011.49270	0.47399
2009.56414	0.47316
2007.63557	0.47226
2005.70701	0.47131
2003.77844	0.47038
2001.84988	0.46975
1999.92131	0.46941
1997.99275	0.46906
1996.06418	0.46849
1994.13562	0.46790
1992.20706	0.46783
1990.27849	0.46802
1988.34993	0.46808
1986.42136	0.46830
1984.49280	0.46861
1982.56423	0.46872
1980.63567	0.46852
1978.70710	0.46809
1976.77854	0.46773
1974.84998	0.46756
1972.92141	0.46731
1970.99285	0.46677
1969.06428	0.46633
1967.13572	0.46649
1965.20715	0.46673
1963.27859	0.46637
1961.35002	0.46580
1959.42146	0.46541
1957.49290	0.46515
1955.56433	0.46497
1953.63577	0.46468
1951.70720	0.46427
1949.77864	0.46383
1947.85007	0.46326
1945.92151	0.46243
1943.99294	0.46177
1942.06438	0.46146
1940.13582	0.46063
1938.20725	0.45934
1936.27869	0.45826
1934.35012	0.45729
1932.42156	0.45621
1930.49299	0.45520
1928.56443	0.45429
1926.63586	0.45304
1924.70730	0.45172
1922.77874	0.45100
1920.85017	0.45029
1918.92161	0.44973
1916.99304	0.44975
1915.06448	0.44921
1913.13591	0.44806
1911.20735	0.44723
1909.27878	0.44671
1907.35022	0.44587
1905.42166	0.44462
1903.49309	0.44338
1901.56453	0.44211
1899.63596	0.44066
1897.70740	0.43922
1895.77883	0.43802
1893.85027	0.43669
1891.92171	0.43527
1889.99314	0.43473
1888.06458	0.43456
1886.13601	0.43353
1884.20745	0.43233
1882.27888	0.43146
1880.35032	0.43066
1878.42175	0.42992
1876.49319	0.42935
1874.56463	0.42855
1872.63606	0.42710
1870.70750	0.42595
1868.77893	0.42667
1866.85037	0.42759
1864.92180	0.42669
1862.99324	0.42523
1861.06467	0.42419
1859.13611	0.42350
1857.20755	0.42282
1855.27898	0.42202
1853.35042	0.42120
1851.42185	0.42033
1849.49329	0.41936
1847.56472	0.41837
1845.63616	0.41828
1843.70759	0.41958
1841.77903	0.41973
1839.85047	0.41869
1837.92190	0.41826
1835.99334	0.41845
1834.06477	0.41799
1832.13621	0.41728
1830.20764	0.41795
1828.27908	0.41881
1826.35051	0.41856
1824.42195	0.41849
1822.49339	0.41814
1820.56482	0.41724
1818.63626	0.41672
1816.70769	0.41632
1814.77913	0.41546
1812.85056	0.41475
1810.92200	0.41488
1808.99343	0.41505
1807.06487	0.41453
1805.13631	0.41379
1803.20774	0.41342
1801.27918	0.41402
1799.35061	0.41467
1797.42205	0.41400
1795.49348	0.41266
1793.56492	0.41258
1791.63635	0.41464
1789.70779	0.41515
1787.77923	0.41367
1785.85066	0.41254
1783.92210	0.41217
1781.99353	0.41222
1780.06497	0.41273
1778.13640	0.41270
1776.20784	0.41166
1774.27927	0.41120
1772.35071	0.41326
1770.42215	0.41529
1768.49358	0.41532
1766.56502	0.41462
1764.63645	0.41369
1762.70789	0.41392
1760.77932	0.41531
1758.85076	0.41592
1756.92220	0.41682
1754.99363	0.41758
1753.06507	0.41752
1751.13650	0.41970
1749.20794	0.42517
1747.27937	0.42969
1745.35081	0.43249
1743.42224	0.43502
1741.49368	0.43828
1739.56512	0.44228
1737.63655	0.44438
1735.70799	0.44576
1733.77942	0.45229
1731.85086	0.45901
1729.92229	0.46237
1727.99373	0.46583
1726.06516	0.46955
1724.13660	0.47469
1722.20804	0.47988
1720.27947	0.48383
1718.35091	0.49210
1716.42234	0.50950
1714.49378	0.52270
1712.56521	0.53064
1710.63665	0.53893
1708.70808	0.54903
1706.77952	0.56506
1704.85096	0.58691
1702.92239	0.60577
1700.99383	0.63257
1699.06526	0.67622
1697.13670	0.71589
1695.20813	0.75301
1693.27957	0.77869
1691.35100	0.79821
1689.42244	0.82386
1687.49388	0.84835
1685.56531	0.87432
1683.63675	0.92120
1681.70818	0.95717
1679.77962	0.97672
1677.85105	0.99472
1675.92249	1.01786
1673.99392	1.04418
1672.06536	1.06411
1670.13680	1.08688
1668.20823	1.11263
1666.27967	1.12601
1664.35110	1.13723
1662.42254	1.15458
1660.49397	1.16850
1658.56541	1.17483
1656.63684	1.17781
1654.70828	1.18321
1652.77972	1.19750
1650.85115	1.20151
1648.92259	1.19826
1646.99402	1.19759
1645.06546	1.19967
1643.13689	1.19977
1641.20833	1.19983
1639.27976	1.19995
1637.35120	1.20080
1635.42264	1.20324
1633.49407	1.20236
1631.56551	1.19869
1629.63694	1.19293
1627.70838	1.18550
1625.77981	1.17666
1623.85125	1.16388
1621.92269	1.14693
1619.99412	1.13037
1618.06556	1.10989
1616.13699	1.08046
1614.20843	1.05557
1612.27986	1.03547
1610.35130	1.01401
1608.42273	0.99170
1606.49417	0.97213
1604.56561	0.95662
1602.63704	0.94391
1600.70848	0.93372
1598.77991	0.92613
1596.85135	0.92054
1594.92278	0.91624
1592.99422	0.91271
1591.06565	0.91009
1589.13709	0.90927
1587.20853	0.91116
1585.27996	0.91553
1583.35140	0.92205
1581.42283	0.92955
1579.49427	0.93649
1577.56570	0.94709
1575.63714	0.96608
1573.70857	0.97865
1571.78001	0.98612
1569.85145	1.00094
1567.92288	1.01840
1565.99432	1.02985
1564.06575	1.03935
1562.13719	1.04549
1560.20862	1.05369
1558.28006	1.07855
1556.35149	1.08980
1554.42293	1.09178
1552.49437	1.09408
1550.56580	1.09561
1548.63724	1.09503
1546.70867	1.09286
1544.78011	1.09050
1542.85154	1.08864
1540.92298	1.08706
1538.99441	1.08109
1537.06585	1.07447
1535.13729	1.06956
1533.20872	1.06611
1531.28016	1.06275
1529.35159	1.05888
1527.42303	1.05458
1525.49446	1.05011
1523.56590	1.04738
1521.63733	1.04775
1519.70877	1.04903
1517.78021	1.04642
1515.85164	1.03845
1513.92308	1.02646
1511.99451	1.01168
1510.06595	0.99542
1508.13738	0.97258
1506.20882	0.93871
1504.28025	0.91893
1502.35169	0.90461
1500.42313	0.88842
1498.49456	0.86932
1496.56600	0.84872
1494.63743	0.83207
1492.70887	0.81951
1490.78030	0.80680
1488.85174	0.79300
1486.92317	0.78192
1484.99461	0.77343
1483.06605	0.76684
1481.13748	0.76208
1479.20892	0.75932
1477.28035	0.75936
1475.35179	0.76374
1473.42322	0.77560
1471.49466	0.78975
1469.56610	0.79624
1467.63753	0.79983
1465.70897	0.80643
1463.78040	0.81475
1461.85184	0.81842
1459.92327	0.81962
1457.99471	0.82731
1456.06614	0.84244
1454.13758	0.84812
1452.20902	0.84914
1450.28045	0.84955
1448.35189	0.84998
1446.42332	0.84997
1444.49476	0.84853
1442.56619	0.84544
1440.63763	0.84083
1438.70906	0.83496
1436.78050	0.82762
1434.85194	0.81888
1432.92337	0.80965
1430.99481	0.79979
1429.06624	0.79032
1427.13768	0.78301
1425.20911	0.77777
1423.28055	0.77440
1421.35198	0.77289
1419.42342	0.77429
1417.49486	0.77731
1415.56629	0.77767
1413.63773	0.77633
1411.70916	0.77484
1409.78060	0.77369
1407.85203	0.77303
1405.92347	0.77337
1403.99490	0.77431
1402.06634	0.77431
1400.13778	0.77390
1398.20921	0.77409
1396.28065	0.77481
1394.35208	0.77584
1392.42352	0.77654
1390.49495	0.77783
1388.56639	0.78350
1386.63782	0.79597
1384.70926	0.80992
1382.78070	0.82213
1380.85213	0.83272
1378.92357	0.83959
1376.99500	0.84096
1375.06644	0.83646
1373.13787	0.82681
1371.20931	0.81444
1369.28074	0.79910
1367.35218	0.78119
1365.42362	0.76401
1363.49505	0.74768
1361.56649	0.73280
1359.63792	0.72184
1357.70936	0.71401
1355.78079	0.70831
1353.85223	0.70430
1351.92366	0.70142
1349.99510	0.69958
1348.06654	0.69863
1346.13797	0.69821
1344.20941	0.69843
1342.28084	0.69978
1340.35228	0.70341
1338.42371	0.70898
1336.49515	0.71457
1334.56659	0.72075
1332.63802	0.72833
1330.70946	0.73636
1328.78089	0.74313
1326.85233	0.74733
1324.92376	0.74899
1322.99520	0.74927
1321.06663	0.74936
1319.13807	0.74994
1317.20951	0.75079
1315.28094	0.75138
1313.35238	0.75203
1311.42381	0.75280
1309.49525	0.75322
1307.56668	0.75316
1305.63812	0.75281
1303.70955	0.75249
1301.78099	0.75213
1299.85243	0.75091
1297.92386	0.74827
1295.99530	0.74505
1294.06673	0.74261
1292.13817	0.74129
1290.20960	0.74074
1288.28104	0.74067
1286.35247	0.74086
1284.42391	0.74088
1282.49535	0.74085
1280.56678	0.74155
1278.63822	0.74344
1276.70965	0.74627
1274.78109	0.74991
1272.85252	0.75494
1270.92396	0.76158
1268.99539	0.76890
1267.06683	0.77600
1265.13827	0.78216
1263.20970	0.78665
1261.28114	0.78963
1259.35257	0.79147
1257.42401	0.79222
1255.49544	0.79235
1253.56688	0.79240
1251.63831	0.79261
1249.70975	0.79291
1247.78119	0.79305
1245.85262	0.79301
1243.92406	0.79291
1241.99549	0.79286
1240.06693	0.79290
1238.13836	0.79272
1236.20980	0.79212
1234.28123	0.79105
1232.35267	0.78903
1230.42411	0.78578
1228.49554	0.78167
1226.56698	0.77693
1224.63841	0.77142
1222.70985	0.76512
1220.78128	0.75810
1218.85272	0.75106
1216.92415	0.74489
1214.99559	0.74011
1213.06703	0.73716
1211.13846	0.73647
1209.20990	0.73744
1207.28133	0.73799
1205.35277	0.73603
1203.42420	0.73127
1201.49564	0.72508
1199.56708	0.71865
1197.63851	0.71242
1195.70995	0.70678
1193.78138	0.70217
1191.85282	0.69898
1189.92425	0.69739
1187.99569	0.69710
1186.06712	0.69762
1184.13856	0.69872
1182.21000	0.70048
1180.28143	0.70323
1178.35287	0.70735
1176.42430	0.71283
1174.49574	0.71930
1172.56717	0.72657
1170.63861	0.73511
1168.71004	0.74566
1166.78148	0.75849
1164.85292	0.77289
1162.92435	0.78710
1160.99579	0.79887
1159.06722	0.80610
1157.13866	0.80798
1155.21009	0.80475
1153.28153	0.79712
1151.35296	0.78659
1149.42440	0.77463
1147.49584	0.76237
1145.56727	0.75126
1143.63871	0.74273
1141.71014	0.73741
1139.78158	0.73494
1137.85301	0.73494
1135.92445	0.73713
1133.99588	0.74122
1132.06732	0.74774
1130.13876	0.75743
1128.21019	0.76969
1126.28163	0.78300
1124.35306	0.79629
1122.42450	0.80895
1120.49593	0.82040
1118.56737	0.82998
1116.63880	0.83690
1114.71024	0.84020
1112.78168	0.83947
1110.85311	0.83601
1108.92455	0.83202
1106.99598	0.82815
1105.06742	0.82387
1103.13885	0.81951
1101.21029	0.81600
1099.28172	0.81387
1097.35316	0.81369
1095.42460	0.81665
1093.49603	0.82324
1091.56747	0.83214
1089.63890	0.84254
1087.71034	0.85524
1085.78177	0.87040
1083.85321	0.88718
1081.92464	0.90414
1079.99608	0.91903
1078.06752	0.92971
1076.13895	0.93515
1074.21039	0.93537
1072.28182	0.93064
1070.35326	0.92175
1068.42469	0.91055
1066.49613	0.89857
1064.56756	0.88636
1062.63900	0.87443
1060.71044	0.86294
1058.78187	0.85142
1056.85331	0.84042
1054.92474	0.83137
1052.99618	0.82471
1051.06761	0.82067
1049.13905	0.81973
1047.21049	0.82148
1045.28192	0.82567
1043.35336	0.83244
1041.42479	0.84069
1039.49623	0.84881
1037.56766	0.85604
1035.63910	0.86188
1033.71053	0.86536
1031.78197	0.86554
1029.85341	0.86256
1027.92484	0.85717
1025.99628	0.84968
1024.06771	0.84064
1022.13915	0.83139
1020.21058	0.82302
1018.28202	0.81604
1016.35345	0.80996
1014.42489	0.80317
1012.49633	0.79487
1010.56776	0.78531
1008.63920	0.77465
1006.71063	0.76327
1004.78207	0.75217
1002.85350	0.74237
1000.92494	0.73443
998.99637	0.72828
997.06781	0.72309
995.13925	0.71762
993.21068	0.71097
991.28212	0.70296
989.35355	0.69401
987.42499	0.68472
985.49642	0.67599
983.56786	0.66906
981.63929	0.66473
979.71073	0.66288
977.78217	0.66256
975.85360	0.66273
973.92504	0.66247
971.99647	0.66105
970.06791	0.65852
968.13934	0.65579
966.21078	0.65390
964.28221	0.65356
962.35365	0.65555
960.42509	0.66080
958.49652	0.66916
956.56796	0.67785
954.63939	0.68250
952.71083	0.68112
950.78226	0.67530
948.85370	0.66796
946.92513	0.66114
944.99657	0.65567
943.06801	0.65199
941.13944	0.64995
939.21088	0.64885
937.28231	0.64826
935.35375	0.64837
933.42518	0.64927
931.49662	0.65066
929.56805	0.65222
927.63949	0.65394
925.71093	0.65615
923.78236	0.65888
921.85380	0.66155
919.92523	0.66317
917.99667	0.66351
916.06810	0.66319
914.13954	0.66255
912.21098	0.66185
910.28241	0.66166
908.35385	0.66227
906.42528	0.66343
904.49672	0.66475
902.56815	0.66611
900.63959	0.66769
898.71102	0.66954
896.78246	0.67139
894.85390	0.67323
892.92533	0.67524
890.99677	0.67708
889.06820	0.67855
887.13964	0.68010
885.21107	0.68166
883.28251	0.68257
881.35394	0.68260
879.42538	0.68169
877.49682	0.67958
875.56825	0.67624
873.63969	0.67190
871.71112	0.66701
869.78256	0.66223
867.85399	0.65807
865.92543	0.65457
863.99686	0.65205
862.06830	0.65112
860.13974	0.65184
858.21117	0.65372
856.28261	0.65638
854.35404	0.65956
852.42548	0.66316
850.49691	0.66754
848.56835	0.67277
846.63978	0.67808
844.71122	0.68297
842.78266	0.68717
840.85409	0.69008
838.92553	0.69151
836.99696	0.69189
835.06840	0.69150
833.13983	0.69001
831.21127	0.68729
829.28270	0.68379
827.35414	0.68021
825.42558	0.67721
823.49701	0.67507
821.56845	0.67375
819.63988	0.67317
817.71132	0.67336
815.78275	0.67488
813.85419	0.67813
811.92562	0.68245
809.99706	0.68698
808.06850	0.69164
806.13993	0.69668
804.21137	0.70175
802.28280	0.70603
800.35424	0.70929
798.42567	0.71132
796.49711	0.71153
794.56854	0.71039
792.63998	0.70893
790.71142	0.70708
788.78285	0.70455
786.85429	0.70186
784.92572	0.69942
782.99716	0.69711
781.06859	0.69547
779.14003	0.69530
777.21147	0.69626
775.28290	0.69774
773.35434	0.70003
771.42577	0.70326
769.49721	0.70696
767.56864	0.71092
765.64008	0.71484
763.71151	0.71748
761.78295	0.71825
759.85439	0.71783
757.92582	0.71677
755.99726	0.71507
754.06869	0.71263
752.14013	0.70950
750.21156	0.70601
748.28300	0.70261
746.35443	0.69965
744.42587	0.69722
742.49731	0.69527
740.56874	0.69366
738.64018	0.69263
736.71161	0.69291
734.78305	0.69483
732.85448	0.69801
730.92592	0.70176
728.99735	0.70524
727.06879	0.70777
725.14023	0.70955
723.21166	0.71126
721.28310	0.71301
719.35453	0.71390
717.42597	0.71328
715.49740	0.71163
713.56884	0.70971
711.64027	0.70821
709.71171	0.70748
707.78315	0.70724
705.85458	0.70735
703.92602	0.70784
701.99745	0.70832
700.06889	0.70880
698.14032	0.70953
696.21176	0.71034
694.28319	0.71111
692.35463	0.71186
690.42607	0.71284
688.49750	0.71428
686.56894	0.71521
684.64037	0.71506
682.71181	0.71446
680.78324	0.71338
678.85468	0.71128
676.92611	0.70891
674.99755	0.70747
673.06899	0.70686
671.14042	0.70663
669.21186	0.70748
667.28329	0.70835
665.35473	0.70752
663.42616	0.70702
661.49760	0.70727
659.56903	0.70787
657.64047	0.70918
655.71191	0.71034
653.78334	0.71074
651.85478	0.71123
649.92621	0.71161
647.99765	0.71195
646.06908	0.71347
644.14052	0.71602
642.21195	0.71835
640.28339	0.72037
638.35483	0.72221
636.42626	0.72294
634.49770	0.72174
632.56913	0.71895
630.64057	0.71585
628.71200	0.71327
626.78344	0.71127
624.85488	0.71025
622.92631	0.71018
620.99775	0.70942
619.06918	0.70733
617.14062	0.70576
615.21205	0.70543
613.28349	0.70507
611.35492	0.70456
609.42636	0.70360
607.49780	0.70089
605.56923	0.69752
603.64067	0.69638
601.71210	0.69754
599.78354	0.69806
