3997.91406	0.59219
3995.98550	0.59151
3994.05693	0.59086
3992.12837	0.59128
3990.19980	0.59250
3988.27124	0.59324
3986.34268	0.59298
3984.41411	0.59257
3982.48555	0.59263
3980.55698	0.59236
3978.62842	0.59129
3976.69985	0.59055
3974.77129	0.59035
3972.84272	0.58989
3970.91416	0.58998
3968.98560	0.59084
3967.05703	0.59074
3965.12847	0.58931
3963.19990	0.58842
3961.27134	0.58891
3959.34277	0.58882
3957.41421	0.58770
3955.48564	0.58664
3953.55708	0.58531
3951.62852	0.58430
3949.69995	0.58528
3947.77139	0.58670
3945.84282	0.58593
3943.91426	0.58510
3941.98569	0.58576
3940.05713	0.58533
3938.12856	0.58380
3936.20000	0.58232
3934.27144	0.58134
3932.34287	0.58277
3930.41431	0.58510
3928.48574	0.58393
3926.55718	0.58121
3924.62861	0.58151
3922.70005	0.58291
3920.77148	0.58224
3918.84292	0.58256
3916.91436	0.58538
3914.98579	0.58584
3913.05723	0.58286
3911.12866	0.57964
3909.20010	0.57632
3907.27153	0.57253
3905.34297	0.57166
3903.41440	0.57518
3901.48584	0.57892
3899.55728	0.58200
3897.62871	0.58164
3895.70015	0.57624
3893.77158	0.57148
3891.84302	0.57379
3889.91445	0.57535
3887.98589	0.57096
3886.05733	0.57034
3884.12876	0.57410
3882.20020	0.57521
3880.27163	0.57712
3878.34307	0.57551
3876.41450	0.56922
3874.48594	0.56485
3872.55737	0.56433
3870.62881	0.56792
3868.70025	0.57072
3866.77168	0.56766
3864.84312	0.56717
3862.91455	0.57171
3860.98599	0.57203
3859.05742	0.56713
3857.12886	0.55958
3855.20029	0.55559
3853.27173	0.56988
3851.34317	0.58052
3849.41460	0.57560
3847.48604	0.56790
3845.55747	0.56227
3843.62891	0.56024
3841.70034	0.56069
3839.77178	0.56366
3837.84321	0.56878
3835.91465	0.56923
3833.98609	0.56699
3832.05752	0.56665
3830.12896	0.56576
3828.20039	0.56323
3826.27183	0.56123
3824.34326	0.55865
3822.41470	0.55925
3820.48613	0.56574
3818.55757	0.56505
3816.62901	0.56368
3814.70044	0.56579
3812.77188	0.56285
3810.84331	0.55666
3808.91475	0.55331
3806.98618	0.55645
3805.05762	0.55767
3803.12905	0.55635
3801.20049	0.56144
3799.27193	0.56366
3797.34336	0.56257
3795.41480	0.56283
3793.48623	0.56018
3791.55767	0.55630
3789.62910	0.55470
3787.70054	0.55494
3785.77197	0.55632
3783.84341	0.55663
3781.91485	0.55473
3779.98628	0.55489
3778.05772	0.55650
3776.12915	0.55484
3774.20059	0.55133
3772.27202	0.54851
3770.34346	0.54843
3768.41489	0.54964
3766.48633	0.55063
3764.55777	0.55109
3762.62920	0.54778
3760.70064	0.54396
3758.77207	0.54490
3756.84351	0.54513
3754.91494	0.54015
3752.98638	0.53493
3751.05781	0.54035
3749.12925	0.54787
3747.20069	0.54602
3745.27212	0.54739
3743.34356	0.55129
3741.41499	0.54667
3739.48643	0.53831
3737.55786	0.53244
3735.62930	0.53456
3733.70074	0.54347
3731.77217	0.54741
3729.84361	0.54426
3727.91504	0.54015
3725.98648	0.54040
3724.05791	0.54299
3722.12935	0.54374
3720.20078	0.54323
3718.27222	0.54166
3716.34366	0.53836
3714.41509	0.53451
3712.48653	0.53649
3710.55796	0.54631
3708.62940	0.54918
3706.70083	0.54498
3704.77227	0.53985
3702.84370	0.53889
3700.91514	0.54224
3698.98658	0.54310
3697.05801	0.54171
3695.12945	0.54002
3693.20088	0.53757
3691.27232	0.53801
3689.34375	0.54664
3687.41519	0.55158
3685.48662	0.54874
3683.55806	0.54519
3681.62950	0.54340
3679.70093	0.54245
3677.77237	0.54270
3675.84380	0.55149
3673.91524	0.55839
3671.98667	0.55625
3670.05811	0.56140
3668.12954	0.56858
3666.20098	0.56755
3664.27242	0.56566
3662.34385	0.56617
3660.41529	0.56728
3658.48672	0.56878
3656.55816	0.57361
3654.62959	0.57605
3652.70103	0.57219
3650.77246	0.57282
3648.84390	0.58995
3646.91534	0.59944
3644.98677	0.59695
3643.05821	0.59507
3641.12964	0.59717
3639.20108	0.60084
3637.27251	0.60375
3635.34395	0.60635
3633.41538	0.60805
3631.48682	0.60880
3629.55826	0.61792
3627.62969	0.63286
3625.70113	0.63472
3623.77256	0.63110
3621.84400	0.62957
3619.91543	0.63551
3617.98687	0.64484
3616.05830	0.64850
3614.12974	0.65270
3612.20118	0.65890
3610.27261	0.66328
3608.34405	0.66989
3606.41548	0.67679
3604.48692	0.67823
3602.55835	0.67835
3600.62979	0.68252
3598.70123	0.68917
3596.77266	0.69481
3594.84410	0.70034
3592.91553	0.70409
3590.98697	0.70429
3589.05840	0.70740
3587.12984	0.71830
3585.20127	0.72525
3583.27271	0.72681
3581.34415	0.72990
3579.41558	0.73417
3577.48702	0.73716
3575.55845	0.74032
3573.62989	0.74417
3571.70132	0.74632
3569.77276	0.74796
3567.84419	0.75601
3565.91563	0.76798
3563.98707	0.77223
3562.05850	0.77426
3560.12994	0.77873
3558.20137	0.78412
3556.27281	0.78860
3554.34424	0.79252
3552.41568	0.79751
3550.48711	0.80244
3548.55855	0.80651
3546.62999	0.81262
3544.70142	0.82066
3542.77286	0.82587
3540.84429	0.82849
3538.91573	0.83229
3536.98716	0.83794
3535.05860	0.84332
3533.13003	0.84798
3531.20147	0.85289
3529.27291	0.85825
3527.34434	0.86388
3525.41578	0.86976
3523.48721	0.87530
3521.55865	0.88027
3519.63008	0.88595
3517.70152	0.89263
3515.77295	0.89898
3513.84439	0.90467
3511.91583	0.91103
3509.98726	0.91953
3508.05870	0.92763
3506.13013	0.93254
3504.20157	0.93816
3502.27300	0.94705
3500.34444	0.95556
3498.41587	0.96323
3496.48731	0.97175
3494.55875	0.97951
3492.63018	0.98553
3490.70162	0.99145
3488.77305	0.99798
3486.84449	1.00468
3484.91592	1.00991
3482.98736	1.01315
3481.05879	1.01626
3479.13023	1.01932
3477.20167	1.02251
3475.27310	1.02669
3473.34454	1.03055
3471.41597	1.03276
3469.48741	1.03457
3467.55884	1.03761
3465.63028	1.04157
3463.70171	1.04584
3461.77315	1.04957
3459.84459	1.05097
3457.91602	1.05095
3455.98746	1.05297
3454.05889	1.05847
3452.13033	1.06473
3450.20176	1.06863
3448.27320	1.07093
3446.34464	1.07336
3444.41607	1.07441
3442.48751	1.07420
3440.55894	1.07585
3438.63038	1.07936
3436.70181	1.08140
3434.77325	1.08159
3432.84468	1.08231
3430.91612	1.08265
3428.98756	1.08139
3427.05899	1.08128
3425.13043	1.08339
3423.20186	1.08500
3421.27330	1.08488
3419.34473	1.08475
3417.41617	1.08508
3415.48760	1.08584
3413.55904	1.08803
3411.63048	1.08988
3409.70191	1.08997
3407.77335	1.09006
3405.84478	1.08999
3403.91622	1.08942
3401.98765	1.09037
3400.05909	1.09299
3398.13052	1.09497
3396.20196	1.09497
3394.27340	1.09463
3392.34483	1.09517
3390.41627	1.09542
3388.48770	1.09578
3386.55914	1.09714
3384.63057	1.09875
3382.70201	1.09983
3380.77344	1.09952
3378.84488	1.09767
3376.91632	1.09650
3374.98775	1.09900
3373.05919	1.10451
3371.13062	1.10830
3369.20206	1.10920
3367.27349	1.11081
3365.34493	1.11399
3363.41636	1.11667
3361.48780	1.11756
3359.55924	1.11781
3357.63067	1.11957
3355.70211	1.12232
3353.77354	1.12503
3351.84498	1.12785
3349.91641	1.12972
3347.98785	1.13004
3346.05928	1.13042
3344.13072	1.13255
3342.20216	1.13532
3340.27359	1.13663
3338.34503	1.13802
3336.41646	1.14144
3334.48790	1.14514
3332.55933	1.14825
3330.63077	1.15154
3328.70220	1.15461
3326.77364	1.15720
3324.84508	1.15866
3322.91651	1.15976
3320.98795	1.16341
3319.05938	1.16967
3317.13082	1.17612
3315.20225	1.18232
3313.27369	1.18843
3311.34513	1.19259
3309.41656	1.19376
3307.48800	1.19504
3305.55943	1.20006
3303.63087	1.20712
3301.70230	1.21225
3299.77374	1.21536
3297.84517	1.21775
3295.91661	1.21939
3293.98805	1.22051
3292.05948	1.22166
3290.13092	1.22274
3288.20235	1.22409
3286.27379	1.22612
3284.34522	1.22709
3282.41666	1.22743
3280.48809	1.22962
3278.55953	1.23171
3276.63097	1.23013
3274.70240	1.22571
3272.77384	1.22227
3270.84527	1.22002
3268.91671	1.21600
3266.98814	1.21161
3265.05958	1.20972
3263.13101	1.20810
3261.20245	1.20434
3259.27389	1.19880
3257.34532	1.19235
3255.41676	1.18766
3253.48819	1.18443
3251.55963	1.17899
3249.63106	1.17212
3247.70250	1.16510
3245.77393	1.15677
3243.84537	1.14882
3241.91681	1.14385
3239.98824	1.14040
3238.05968	1.13571
3236.13111	1.13025
3234.20255	1.12580
3232.27398	1.12227
3230.34542	1.11919
3228.41685	1.11725
3226.48829	1.11515
3224.55973	1.11044
3222.63116	1.10320
3220.70260	1.09410
3218.77403	1.08541
3216.84547	1.08085
3214.91690	1.08021
3212.98834	1.07976
3211.05977	1.07667
3209.13121	1.07046
3207.20265	1.06247
3205.27408	1.05583
3203.34552	1.05215
3201.41695	1.04957
3199.48839	1.04654
3197.55982	1.04205
3195.63126	1.03560
3193.70269	1.02968
3191.77413	1.02592
3189.84557	1.02239
3187.91700	1.01812
3185.98844	1.01423
3184.05987	1.01041
3182.13131	1.00584
3180.20274	1.00177
3178.27418	0.99909
3176.34562	0.99593
3174.41705	0.99093
3172.48849	0.98557
3170.55992	0.98140
3168.63136	0.97762
3166.70279	0.97314
3164.77423	0.96838
3162.84566	0.96406
3160.91710	0.96080
3158.98854	0.95729
3157.05997	0.95194
3155.13141	0.94626
3153.20284	0.94169
3151.27428	0.93837
3149.34571	0.93606
3147.41715	0.93392
3145.48858	0.93185
3143.56002	0.92934
3141.63146	0.92538
3139.70289	0.92128
3137.77433	0.91897
3135.84576	0.91787
3133.91720	0.91693
3131.98863	0.91587
3130.06007	0.91501
3128.13150	0.91565
3126.20294	0.91721
3124.27438	0.91822
3122.34581	0.91879
3120.41725	0.91877
3118.48868	0.91833
3116.56012	0.91835
3114.63155	0.91884
3112.70299	0.91959
3110.77442	0.92082
3108.84586	0.92197
3106.91730	0.92227
3104.98873	0.92206
3103.06017	0.92130
3101.13160	0.91970
3099.20304	0.91764
3097.27447	0.91526
3095.34591	0.91289
3093.41734	0.91129
3091.48878	0.90982
3089.56022	0.90737
3087.63165	0.90475
3085.70309	0.90307
3083.77452	0.90196
3081.84596	0.90054
3079.91739	0.89807
3077.98883	0.89474
3076.06026	0.89142
3074.13170	0.88840
3072.20314	0.88537
3070.27457	0.88241
3068.34601	0.88010
3066.41744	0.87815
3064.48888	0.87566
3062.56031	0.87282
3060.63175	0.86979
3058.70318	0.86549
3056.77462	0.86011
3054.84606	0.85576
3052.91749	0.85288
3050.98893	0.84951
3049.06036	0.84524
3047.13180	0.84128
3045.20323	0.83726
3043.27467	0.83225
3041.34610	0.82671
3039.41754	0.82186
3037.48898	0.81780
3035.56041	0.81357
3033.63185	0.80918
3031.70328	0.80559
3029.77472	0.80285
3027.84615	0.79996
3025.91759	0.79669
3023.98903	0.79362
3022.06046	0.79075
3020.13190	0.78789
3018.20333	0.78541
3016.27477	0.78319
3014.34620	0.78121
3012.41764	0.78012
3010.48907	0.77952
3008.56051	0.77842
3006.63195	0.77703
3004.70338	0.77614
3002.77482	0.77594
3000.84625	0.77567
2998.91769	0.77488
2996.98912	0.77446
2995.06056	0.77557
2993.13199	0.77810
2991.20343	0.78134
2989.27487	0.78512
2987.34630	0.78914
2985.41774	0.79304
2983.48917	0.79715
2981.56061	0.80202
2979.63204	0.80800
2977.70348	0.81446
2975.77491	0.82030
2973.84635	0.82550
2971.91779	0.83147
2969.98922	0.83916
2968.06066	0.84738
2966.13209	0.85457
2964.20353	0.86012
2962.27496	0.86326
2960.34640	0.86352
2958.41783	0.86132
2956.48927	0.85730
2954.56071	0.85194
2952.63214	0.84629
2950.70358	0.84164
2948.77501	0.83875
2946.84645	0.83841
2944.91788	0.84092
2942.98932	0.84590
2941.06075	0.85309
2939.13219	0.86204
2937.20363	0.87209
2935.27506	0.88217
2933.34650	0.89134
2931.41793	0.90029
2929.48937	0.90975
2927.56080	0.91845
2925.63224	0.92519
2923.70367	0.93040
2921.77511	0.93358
2919.84655	0.93305
2917.91798	0.92775
2915.98942	0.91634
2914.06085	0.89899
2912.13229	0.88005
2910.20372	0.86347
2908.27516	0.84972
2906.34659	0.83840
2904.41803	0.82964
2902.48947	0.82343
2900.56090	0.81901
2898.63234	0.81536
2896.70377	0.81232
2894.77521	0.80986
2892.84664	0.80736
2890.91808	0.80412
2888.98952	0.80021
2887.06095	0.79655
2885.13239	0.79382
2883.20382	0.79238
2881.27526	0.79250
2879.34669	0.79354
2877.41813	0.79415
2875.48956	0.79371
2873.56100	0.79196
2871.63244	0.78832
2869.70387	0.78289
2867.77531	0.77659
2865.84674	0.77055
2863.91818	0.76605
2861.98961	0.76413
2860.06105	0.76529
2858.13248	0.76966
2856.20392	0.77670
2854.27536	0.78468
2852.34679	0.79086
2850.41823	0.79143
2848.48966	0.78174
2846.56110	0.76203
2844.63253	0.73968
2842.70397	0.72078
2840.77540	0.70612
2838.84684	0.69476
2836.91828	0.68608
2834.98971	0.67917
2833.06115	0.67302
2831.13258	0.66749
2829.20402	0.66304
2827.27545	0.65954
2825.34689	0.65627
2823.41832	0.65290
2821.48976	0.64942
2819.56120	0.64583
2817.63263	0.64244
2815.70407	0.63961
2813.77550	0.63700
2811.84694	0.63423
2809.91837	0.63162
2807.98981	0.62926
2806.06124	0.62684
2804.13268	0.62441
2802.20412	0.62213
2800.27555	0.61993
2798.34699	0.61766
2796.41842	0.61533
2794.48986	0.61313
2792.56129	0.61092
2790.63273	0.60880
2788.70416	0.60737
2786.77560	0.60632
2784.84704	0.60476
2782.91847	0.60265
2780.98991	0.60051
2779.06134	0.59878
2777.13278	0.59735
2775.20421	0.59572
2773.27565	0.59369
2771.34708	0.59143
2769.41852	0.58933
2767.48996	0.58761
2765.56139	0.58589
2763.63283	0.58407
2761.70426	0.58241
2759.77570	0.58093
2757.84713	0.57975
2755.91857	0.57875
2753.99001	0.57734
2752.06144	0.57550
2750.13288	0.57391
2748.20431	0.57301
2746.27575	0.57248
2744.34718	0.57196
2742.41862	0.57130
2740.49005	0.57021
2738.56149	0.56885
2736.63293	0.56779
2734.70436	0.56708
2732.77580	0.56662
2730.84723	0.56617
2728.91867	0.56513
2726.99010	0.56350
2725.06154	0.56187
2723.13297	0.56035
2721.20441	0.55885
2719.27585	0.55758
2717.34728	0.55636
2715.41872	0.55480
2713.49015	0.55325
2711.56159	0.55187
2709.63302	0.55034
2707.70446	0.54880
2705.77589	0.54726
2703.84733	0.54541
2701.91877	0.54347
2699.99020	0.54208
2698.06164	0.54085
2696.13307	0.53905
2694.20451	0.53723
2692.27594	0.53631
2690.34738	0.53605
2688.41881	0.53571
2686.49025	0.53514
2684.56169	0.53449
2682.63312	0.53362
2680.70456	0.53274
2678.77599	0.53227
2676.84743	0.53199
2674.91886	0.53163
2672.99030	0.53128
2671.06173	0.53090
2669.13317	0.53039
2667.20461	0.52977
2665.27604	0.52914
2663.34748	0.52858
2661.41891	0.52805
2659.49035	0.52750
2657.56178	0.52692
2655.63322	0.52631
2653.70465	0.52562
2651.77609	0.52465
2649.84753	0.52337
2647.91896	0.52203
2645.99040	0.52099
2644.06183	0.52022
2642.13327	0.51946
2640.20470	0.51881
2638.27614	0.51830
2636.34757	0.51777
2634.41901	0.51728
2632.49045	0.51702
2630.56188	0.51690
2628.63332	0.51662
2626.70475	0.51624
2624.77619	0.51615
2622.84762	0.51634
2620.91906	0.51634
2618.99049	0.51608
2617.06193	0.51608
2615.13337	0.51640
2613.20480	0.51672
2611.27624	0.51670
2609.34767	0.51634
2607.41911	0.51595
2605.49054	0.51583
2603.56198	0.51584
2601.63342	0.51543
2599.70485	0.51465
2597.77629	0.51386
2595.84772	0.51308
2593.91916	0.51226
2591.99059	0.51131
2590.06203	0.51001
2588.13346	0.50861
2586.20490	0.50750
2584.27634	0.50652
2582.34777	0.50531
2580.41921	0.50388
2578.49064	0.50242
2576.56208	0.50117
2574.63351	0.50036
2572.70495	0.49974
2570.77638	0.49902
2568.84782	0.49841
2566.91926	0.49812
2564.99069	0.49809
2563.06213	0.49826
2561.13356	0.49840
2559.20500	0.49834
2557.27643	0.49832
2555.34787	0.49840
2553.41930	0.49839
2551.49074	0.49840
2549.56218	0.49836
2547.63361	0.49797
2545.70505	0.49751
2543.77648	0.49745
2541.84792	0.49756
2539.91935	0.49745
2537.99079	0.49704
2536.06222	0.49638
2534.13366	0.49569
2532.20510	0.49529
2530.27653	0.49504
2528.34797	0.49436
2526.41940	0.49314
2524.49084	0.49191
2522.56227	0.49098
2520.63371	0.49022
2518.70514	0.48945
2516.77658	0.48881
2514.84802	0.48832
2512.91945	0.48772
2510.99089	0.48698
2509.06232	0.48642
2507.13376	0.48599
2505.20519	0.48556
2503.27663	0.48535
2501.34806	0.48544
2499.41950	0.48559
2497.49094	0.48568
2495.56237	0.48582
2493.63381	0.48602
2491.70524	0.48628
2489.77668	0.48639
2487.84811	0.48628
2485.91955	0.48628
2483.99098	0.48639
2482.06242	0.48616
2480.13386	0.48553
2478.20529	0.48479
2476.27673	0.48415
2474.34816	0.48355
2472.41960	0.48285
2470.49103	0.48203
2468.56247	0.48114
2466.63391	0.48005
2464.70534	0.47886
2462.77678	0.47796
2460.84821	0.47727
2458.91965	0.47654
2456.99108	0.47596
2455.06252	0.47537
2453.13395	0.47450
2451.20539	0.47382
2449.27683	0.47370
2447.34826	0.47374
2445.41970	0.47379
2443.49113	0.47398
2441.56257	0.47400
2439.63400	0.47381
2437.70544	0.47379
2435.77687	0.47414
2433.84831	0.47455
2431.91975	0.47466
2429.99118	0.47452
2428.06262	0.47445
2426.13405	0.47457
2424.20549	0.47465
2422.27692	0.47454
2420.34836	0.47433
2418.41979	0.47417
2416.49123	0.47400
2414.56267	0.47361
2412.63410	0.47298
2410.70554	0.47225
2408.77697	0.47169
2406.84841	0.47126
2404.91984	0.47065
2402.99128	0.46992
2401.06271	0.46931
2399.13415	0.46887
2397.20559	0.46846
2395.27702	0.46816
2393.34846	0.46815
2391.41989	0.46834
2389.49133	0.46848
2387.56276	0.46838
2385.63420	0.46787
2383.70563	0.46714
2381.77707	0.46674
2379.84851	0.46675
2377.91994	0.46653
2375.99138	0.46606
2374.06281	0.46621
2372.13425	0.46699
2370.20568	0.46806
2368.27712	0.46901
2366.34855	0.46905
2364.41999	0.46901
2362.49143	0.46988
2360.56286	0.47122
2358.63430	0.47247
2356.70573	0.47242
2354.77717	0.47163
2352.84860	0.47165
2350.92004	0.47037
2348.99147	0.46692
2347.06291	0.46369
2345.13435	0.46313
2343.20578	0.46414
2341.27722	0.46444
2339.34865	0.46509
2337.42009	0.46604
2335.49152	0.46608
2333.56296	0.46569
2331.63440	0.46616
2329.70583	0.46765
2327.77727	0.46960
2325.84870	0.47148
2323.92014	0.47287
2321.99157	0.47413
2320.06301	0.47561
2318.13444	0.47648
2316.20588	0.47627
2314.27732	0.47570
2312.34875	0.47549
2310.42019	0.47558
2308.49162	0.47560
2306.56306	0.47552
2304.63449	0.47524
2302.70593	0.47445
2300.77736	0.47327
2298.84880	0.47229
2296.92024	0.47179
2294.99167	0.47138
2293.06311	0.47053
2291.13454	0.46937
2289.20598	0.46849
2287.27741	0.46801
2285.34885	0.46762
2283.42028	0.46720
2281.49172	0.46691
2279.56316	0.46693
2277.63459	0.46724
2275.70603	0.46770
2273.77746	0.46820
2271.84890	0.46871
2269.92033	0.46940
2267.99177	0.47042
2266.06320	0.47154
2264.13464	0.47246
2262.20608	0.47325
2260.27751	0.47417
2258.34895	0.47514
2256.42038	0.47591
2254.49182	0.47646
2252.56325	0.47684
2250.63469	0.47697
2248.70612	0.47686
2246.77756	0.47674
2244.84900	0.47663
2242.92043	0.47637
2240.99187	0.47603
2239.06330	0.47569
2237.13474	0.47519
2235.20617	0.47441
2233.27761	0.47359
2231.34904	0.47306
2229.42048	0.47271
2227.49192	0.47234
2225.56335	0.47199
2223.63479	0.47176
2221.70622	0.47168
2219.77766	0.47185
2217.84909	0.47222
2215.92053	0.47279
2213.99196	0.47363
2212.06340	0.47447
2210.13484	0.47510
2208.20627	0.47578
2206.27771	0.47652
2204.34914	0.47720
2202.42058	0.47789
2200.49201	0.47851
2198.56345	0.47908
2196.63488	0.47951
2194.70632	0.47984
2192.77776	0.48027
2190.84919	0.48058
2188.92063	0.48047
2186.99206	0.48014
2185.06350	0.47994
2183.13493	0.47994
2181.20637	0.47979
2179.27781	0.47918
2177.34924	0.47840
2175.42068	0.47780
2173.49211	0.47740
2171.56355	0.47717
2169.63498	0.47689
2167.70642	0.47638
2165.77785	0.47590
2163.84929	0.47579
2161.92073	0.47598
2159.99216	0.47611
2158.06360	0.47633
2156.13503	0.47676
2154.20647	0.47716
2152.27790	0.47744
2150.34934	0.47773
2148.42077	0.47812
2146.49221	0.47844
2144.56365	0.47855
2142.63508	0.47862
2140.70652	0.47879
2138.77795	0.47881
2136.84939	0.47860
2134.92082	0.47845
2132.99226	0.47841
2131.06369	0.47824
2129.13513	0.47779
2127.20657	0.47703
2125.27800	0.47629
2123.34944	0.47591
2121.42087	0.47553
2119.49231	0.47478
2117.56374	0.47405
2115.63518	0.47368
2113.70661	0.47333
2111.77805	0.47278
2109.84949	0.47228
2107.92092	0.47196
2105.99236	0.47172
2104.06379	0.47136
2102.13523	0.47086
2100.20666	0.47052
2098.27810	0.47051
2096.34953	0.47049
2094.42097	0.47018
2092.49241	0.46987
2090.56384	0.46994
2088.63528	0.47018
2086.70671	0.47021
2084.77815	0.47007
2082.84958	0.47008
2080.92102	0.47025
2078.99245	0.47031
2077.06389	0.47017
2075.13533	0.47009
2073.20676	0.47022
2071.27820	0.47037
2069.34963	0.47031
2067.42107	0.47023
2065.49250	0.47051
2063.56394	0.47099
2061.63537	0.47120
2059.70681	0.47120
2057.77825	0.47114
2055.84968	0.47109
2053.92112	0.47107
2051.99255	0.47098
2050.06399	0.47080
2048.13542	0.47059
2046.20686	0.47032
2044.27830	0.46987
2042.34973	0.46928
2040.42117	0.46869
2038.49260	0.46805
2036.56404	0.46739
2034.63547	0.46667
2032.70691	0.46575
2030.77834	0.46481
2028.84978	0.46411
2026.92122	0.46355
2024.99265	0.46292
2023.06409	0.46222
2021.13552	0.46160
2019.20696	0.46121
2017.27839	0.46099
2015.34983	0.46060
2013.42126	0.45994
2011.49270	0.45928
2009.56414	0.45880
2007.63557	0.45853
2005.70701	0.45840
2003.77844	0.45828
2001.84988	0.45819
1999.92131	0.45825
1997.99275	0.45820
1996.06418	0.45770
1994.13562	0.45709
1992.20706	0.45698
1990.27849	0.45687
1988.34993	0.45628
1986.42136	0.45540
1984.49280	0.45432
1982.56423	0.45317
1980.63567	0.45203
1978.70710	0.45090
1976.77854	0.44993
1974.84998	0.44894
1972.92141	0.44760
1970.99285	0.44589
1969.06428	0.44437
1967.13572	0.44348
1965.20715	0.44251
1963.27859	0.44099
1961.35002	0.43946
1959.42146	0.43816
1957.49290	0.43700
1955.56433	0.43607
1953.63577	0.43542
1951.70720	0.43497
1949.77864	0.43452
1947.85007	0.43406
1945.92151	0.43369
1943.99294	0.43390
1942.06438	0.43483
1940.13582	0.43523
1938.20725	0.43481
1936.27869	0.43453
1934.35012	0.43466
1932.42156	0.43497
1930.49299	0.43520
1928.56443	0.43517
1926.63586	0.43487
1924.70730	0.43488
1922.77874	0.43550
1920.85017	0.43561
1918.92161	0.43551
1916.99304	0.43585
1915.06448	0.43546
1913.13591	0.43448
1911.20735	0.43393
1909.27878	0.43382
1907.35022	0.43345
1905.42166	0.43269
1903.49309	0.43205
1901.56453	0.43159
1899.63596	0.43099
1897.70740	0.43040
1895.77883	0.43019
1893.85027	0.42981
1891.92171	0.42897
1889.99314	0.42886
1888.06458	0.42917
1886.13601	0.42868
1884.20745	0.42779
1882.27888	0.42690
1880.35032	0.42610
1878.42175	0.42549
1876.49319	0.42490
1874.56463	0.42404
1872.63606	0.42270
1870.70750	0.42165
1868.77893	0.42231
1866.85037	0.42297
1864.92180	0.42160
1862.99324	0.41964
1861.06467	0.41817
1859.13611	0.41710
1857.20755	0.41611
1855.27898	0.41507
1853.35042	0.41394
1851.42185	0.41273
1849.49329	0.41154
1847.56472	0.41034
1845.63616	0.40995
1843.70759	0.41111
1841.77903	0.41118
1839.85047	0.40980
1837.92190	0.40893
1835.99334	0.40869
1834.06477	0.40796
1832.13621	0.40748
1830.20764	0.40910
1828.27908	0.41122
1826.35051	0.41216
1824.42195	0.41358
1822.49339	0.41479
1820.56482	0.41519
1818.63626	0.41586
1816.70769	0.41677
1814.77913	0.41726
1812.85056	0.41769
1810.92200	0.41888
1808.99343	0.42007
1807.06487	0.42033
1805.13631	0.41997
1803.20774	0.41956
1801.27918	0.41987
1799.35061	0.42013
1797.42205	0.41888
1795.49348	0.41672
1793.56492	0.41557
1791.63635	0.41621
1789.70779	0.41541
1787.77923	0.41306
1785.85066	0.41138
1783.92210	0.41064
1781.99353	0.41033
1780.06497	0.41048
1778.13640	0.41009
1776.20784	0.40861
1774.27927	0.40782
1772.35071	0.40991
1770.42215	0.41245
1768.49358	0.41349
1766.56502	0.41404
1764.63645	0.41420
1762.70789	0.41596
1760.77932	0.41977
1758.85076	0.42292
1756.92220	0.42676
1754.99363	0.43062
1753.06507	0.43355
1751.13650	0.43949
1749.20794	0.44976
1747.27937	0.45853
1745.35081	0.46460
1743.42224	0.46984
1741.49368	0.47508
1739.56512	0.48017
1737.63655	0.48258
1735.70799	0.48381
1733.77942	0.48994
1731.85086	0.49616
1729.92229	0.49883
1727.99373	0.50123
1726.06516	0.50380
1724.13660	0.50803
1722.20804	0.51263
1720.27947	0.51600
1718.35091	0.52342
1716.42234	0.54010
1714.49378	0.55309
1712.56521	0.56108
1710.63665	0.56989
1708.70808	0.58118
1706.77952	0.59893
1704.85096	0.62256
1702.92239	0.64263
1700.99383	0.67058
1699.06526	0.71588
1697.13670	0.75639
1695.20813	0.79268
1693.27957	0.81660
1691.35100	0.83398
1689.42244	0.85634
1687.49388	0.87685
1685.56531	0.89810
1683.63675	0.93644
1681.70818	0.96414
1679.77962	0.97739
1677.85105	0.98922
1675.92249	1.00482
1673.99392	1.02209
1672.06536	1.03467
1670.13680	1.05000
1668.20823	1.06722
1666.27967	1.07457
1664.35110	1.08018
1662.42254	1.09153
1660.49397	1.10115
1658.56541	1.10383
1656.63684	1.10274
1654.70828	1.10406
1652.77972	1.11633
1650.85115	1.12068
1648.92259	1.11876
1646.99402	1.12050
1645.06546	1.12153
1643.13689	1.11842
1641.20833	1.11569
1639.27976	1.11403
1637.35120	1.11454
1635.42264	1.11937
1633.49407	1.12115
1631.56551	1.11917
1629.63694	1.11635
1627.70838	1.11307
1625.77981	1.10872
1623.85125	1.10373
1621.92269	1.09764
1619.99412	1.08960
1618.06556	1.07862
1616.13699	1.06356
1614.20843	1.04884
1612.27986	1.03417
1610.35130	1.01764
1608.42273	0.99985
1606.49417	0.98292
1604.56561	0.96870
1602.63704	0.95754
1600.70848	0.94897
1598.77991	0.94193
1596.85135	0.93630
1594.92278	0.93247
1592.99422	0.93036
1591.06565	0.92995
1589.13709	0.93152
1587.20853	0.93500
1585.27996	0.94005
1583.35140	0.94675
1581.42283	0.95415
1579.49427	0.96035
1577.56570	0.96890
1575.63714	0.98497
1573.70857	0.99565
1571.78001	1.00077
1569.85145	1.01108
1567.92288	1.02394
1565.99432	1.03193
1564.06575	1.03771
1562.13719	1.04046
1560.20862	1.04404
1558.28006	1.06135
1556.35149	1.07062
1554.42293	1.07152
1552.49437	1.07205
1550.56580	1.07341
1548.63724	1.07438
1546.70867	1.07287
1544.78011	1.06904
1542.85154	1.06419
1540.92298	1.06277
1538.99441	1.06229
1537.06585	1.05742
1535.13729	1.05207
1533.20872	1.04825
1531.28016	1.04458
1529.35159	1.04003
1527.42303	1.03604
1525.49446	1.03313
1523.56590	1.03083
1521.63733	1.03065
1519.70877	1.03190
1517.78021	1.03117
1515.85164	1.02783
1513.92308	1.02119
1511.99451	1.01175
1510.06595	1.00093
1508.13738	0.98696
1506.20882	0.96895
1504.28025	0.95661
1502.35169	0.94533
1500.42313	0.93179
1498.49456	0.91544
1496.56600	0.89728
1494.63743	0.88145
1492.70887	0.86818
1490.78030	0.85280
1488.85174	0.83435
1486.92317	0.82013
1484.99461	0.80983
1483.06605	0.80126
1481.13748	0.79458
1479.20892	0.79047
1477.28035	0.78919
1475.35179	0.79234
1473.42322	0.80422
1471.49466	0.81932
1469.56610	0.82608
1467.63753	0.82957
1465.70897	0.83617
1463.78040	0.84486
1461.85184	0.84925
1459.92327	0.85143
1457.99471	0.86009
1456.06614	0.87450
1454.13758	0.87839
1452.20902	0.87817
1450.28045	0.87845
1448.35189	0.87962
1446.42332	0.88002
1444.49476	0.87838
1442.56619	0.87527
1440.63763	0.87128
1438.70906	0.86679
1436.78050	0.86197
1434.85194	0.85602
1432.92337	0.84867
1430.99481	0.84061
1429.06624	0.83306
1427.13768	0.82684
1425.20911	0.82174
1423.28055	0.81807
1421.35198	0.81614
1419.42342	0.81694
1417.49486	0.81940
1415.56629	0.81926
1413.63773	0.81741
1411.70916	0.81567
1409.78060	0.81463
1407.85203	0.81423
1405.92347	0.81495
1403.99490	0.81633
1402.06634	0.81672
1400.13778	0.81713
1398.20921	0.81854
1396.28065	0.82030
1394.35208	0.82268
1392.42352	0.82467
1390.49495	0.82634
1388.56639	0.83127
1386.63782	0.84154
1384.70926	0.85240
1382.78070	0.86151
1380.85213	0.86891
1378.92357	0.87205
1376.99500	0.86964
1375.06644	0.86207
1373.13787	0.84994
1371.20931	0.83525
1369.28074	0.81806
1367.35218	0.79942
1365.42362	0.78200
1363.49505	0.76502
1361.56649	0.74929
1359.63792	0.73756
1357.70936	0.72877
1355.78079	0.72203
1353.85223	0.71765
1351.92366	0.71514
1349.99510	0.71381
1348.06654	0.71346
1346.13797	0.71394
1344.20941	0.71505
1342.28084	0.71703
1340.35228	0.72133
1338.42371	0.72820
1336.49515	0.73570
1334.56659	0.74416
1332.63802	0.75466
1330.70946	0.76657
1328.78089	0.77790
1326.85233	0.78692
1324.92376	0.79351
1322.99520	0.79867
1321.06663	0.80355
1319.13807	0.80883
1317.20951	0.81393
1315.28094	0.81807
1313.35238	0.82163
1311.42381	0.82463
1309.49525	0.82638
1307.56668	0.82655
1305.63812	0.82559
1303.70955	0.82454
1301.78099	0.82353
1299.85243	0.82172
1297.92386	0.81875
1295.99530	0.81524
1294.06673	0.81228
1292.13817	0.81056
1290.20960	0.80982
1288.28104	0.80964
1286.35247	0.80987
1284.42391	0.81022
1282.49535	0.81078
1280.56678	0.81190
1278.63822	0.81350
1276.70965	0.81572
1274.78109	0.81893
1272.85252	0.82340
1270.92396	0.82910
1268.99539	0.83541
1267.06683	0.84157
1265.13827	0.84713
1263.20970	0.85141
1261.28114	0.85379
1259.35257	0.85445
1257.42401	0.85406
1255.49544	0.85318
1253.56688	0.85199
1251.63831	0.85028
1249.70975	0.84780
1247.78119	0.84470
1245.85262	0.84145
1243.92406	0.83795
1241.99549	0.83371
1240.06693	0.82906
1238.13836	0.82461
1236.20980	0.81995
1234.28123	0.81437
1232.35267	0.80786
1230.42411	0.80069
1228.49554	0.79317
1226.56698	0.78561
1224.63841	0.77801
1222.70985	0.77054
1220.78128	0.76357
1218.85272	0.75754
1216.92415	0.75315
1214.99559	0.75139
1213.06703	0.75292
1211.13846	0.75734
1209.20990	0.76316
1207.28133	0.76840
1205.35277	0.77148
1203.42420	0.77217
1201.49564	0.77150
1199.56708	0.77011
1197.63851	0.76812
1195.70995	0.76650
1193.78138	0.76635
1191.85282	0.76760
1189.92425	0.76982
1187.99569	0.77228
1186.06712	0.77405
1184.13856	0.77511
1182.21000	0.77623
1180.28143	0.77797
1178.35287	0.78019
1176.42430	0.78258
1174.49574	0.78551
1172.56717	0.78914
1170.63861	0.79345
1168.71004	0.79927
1166.78148	0.80672
1164.85292	0.81483
1162.92435	0.82252
1160.99579	0.82843
1159.06722	0.83103
1157.13866	0.82957
1155.21009	0.82435
1153.28153	0.81647
1151.35296	0.80722
1149.42440	0.79772
1147.49584	0.78888
1145.56727	0.78174
1143.63871	0.77755
1141.71014	0.77704
1139.78158	0.78004
1137.85301	0.78572
1135.92445	0.79313
1133.99588	0.80202
1132.06732	0.81282
1130.13876	0.82585
1128.21019	0.84057
1126.28163	0.85539
1124.35306	0.86835
1122.42450	0.87871
1120.49593	0.88688
1118.56737	0.89280
1116.63880	0.89615
1114.71024	0.89682
1112.78168	0.89462
1110.85311	0.89001
1108.92455	0.88423
1106.99598	0.87846
1105.06742	0.87357
1103.13885	0.87050
1101.21029	0.86931
1099.28172	0.86950
1097.35316	0.87208
1095.42460	0.87823
1093.49603	0.88724
1091.56747	0.89784
1089.63890	0.90945
1087.71034	0.92221
1085.78177	0.93600
1083.85321	0.94898
1081.92464	0.95942
1079.99608	0.96790
1078.06752	0.97486
1076.13895	0.97894
1074.21039	0.97929
1072.28182	0.97657
1070.35326	0.97222
1068.42469	0.96705
1066.49613	0.96073
1064.56756	0.95288
1062.63900	0.94349
1060.71044	0.93312
1058.78187	0.92234
1056.85331	0.91112
1054.92474	0.90027
1052.99618	0.89146
1051.06761	0.88504
1049.13905	0.88041
1047.21049	0.87813
1045.28192	0.87887
1043.35336	0.88180
1041.42479	0.88575
1039.49623	0.89013
1037.56766	0.89432
1035.63910	0.89758
1033.71053	0.89935
1031.78197	0.89963
1029.85341	0.89882
1027.92484	0.89686
1025.99628	0.89349
1024.06771	0.88944
1022.13915	0.88604
1020.21058	0.88416
1018.28202	0.88334
1016.35345	0.88199
1014.42489	0.87879
1012.49633	0.87315
1010.56776	0.86512
1008.63920	0.85527
1006.71063	0.84413
1004.78207	0.83199
1002.85350	0.81962
1000.92494	0.80827
998.99637	0.79853
997.06781	0.78986
995.13925	0.78154
993.21068	0.77327
991.28212	0.76472
989.35355	0.75563
987.42499	0.74640
985.49642	0.73781
983.56786	0.73069
981.63929	0.72545
979.71073	0.72184
977.78217	0.71920
975.85360	0.71665
973.92504	0.71323
971.99647	0.70848
970.06791	0.70295
968.13934	0.69769
966.21078	0.69353
964.28221	0.69156
962.35365	0.69332
960.42509	0.69983
958.49652	0.71021
956.56796	0.72081
954.63939	0.72727
952.71083	0.72778
950.78226	0.72336
948.85370	0.71618
946.92513	0.70880
944.99657	0.70304
943.06801	0.69910
941.13944	0.69603
939.21088	0.69333
937.28231	0.69108
935.35375	0.68927
933.42518	0.68821
931.49662	0.68838
929.56805	0.68948
927.63949	0.69126
925.71093	0.69422
923.78236	0.69843
921.85380	0.70306
919.92523	0.70748
917.99667	0.71189
916.06810	0.71675
914.13954	0.72232
912.21098	0.72869
910.28241	0.73559
908.35385	0.74249
906.42528	0.74930
904.49672	0.75594
902.56815	0.76195
900.63959	0.76683
898.71102	0.77013
896.78246	0.77161
894.85390	0.77151
892.92533	0.77017
890.99677	0.76776
889.06820	0.76435
887.13964	0.76052
885.21107	0.75686
883.28251	0.75334
881.35394	0.75000
879.42538	0.74709
877.49682	0.74441
875.56825	0.74180
873.63969	0.73956
871.71112	0.73774
869.78256	0.73614
867.85399	0.73498
865.92543	0.73454
863.99686	0.73481
862.06830	0.73607
860.13974	0.73828
858.21117	0.74046
856.28261	0.74257
854.35404	0.74497
852.42548	0.74702
850.49691	0.74834
848.56835	0.74941
846.63978	0.75045
844.71122	0.75175
842.78266	0.75372
840.85409	0.75588
838.92553	0.75783
836.99696	0.76008
835.06840	0.76272
833.13983	0.76486
831.21127	0.76597
829.28270	0.76653
827.35414	0.76720
825.42558	0.76853
823.49701	0.77048
821.56845	0.77194
819.63988	0.77250
817.71132	0.77272
815.78275	0.77295
813.85419	0.77339
811.92562	0.77391
809.99706	0.77360
808.06850	0.77198
806.13993	0.76978
804.21137	0.76821
802.28280	0.76749
800.35424	0.76648
798.42567	0.76402
796.49711	0.76052
794.56854	0.75723
792.63998	0.75435
790.71142	0.75134
788.78285	0.74816
786.85429	0.74532
784.92572	0.74306
782.99716	0.74094
781.06859	0.73891
779.14003	0.73752
777.21147	0.73666
775.28290	0.73602
773.35434	0.73595
771.42577	0.73702
769.49721	0.73914
767.56864	0.74182
765.64008	0.74497
763.71151	0.74864
761.78295	0.75272
759.85439	0.75713
757.92582	0.76186
755.99726	0.76672
754.06869	0.77147
752.14013	0.77597
750.21156	0.77984
748.28300	0.78276
746.35443	0.78471
744.42587	0.78564
742.49731	0.78549
740.56874	0.78476
738.64018	0.78394
736.71161	0.78257
734.78305	0.78046
732.85448	0.77839
730.92592	0.77653
728.99735	0.77418
727.06879	0.77159
725.14023	0.76997
723.21166	0.76974
721.28310	0.77024
719.35453	0.77083
717.42597	0.77123
715.49740	0.77178
713.56884	0.77333
711.64027	0.77610
709.71171	0.77991
707.78315	0.78460
705.85458	0.78998
703.92602	0.79572
701.99745	0.80101
700.06889	0.80506
698.14032	0.80791
696.21176	0.81008
694.28319	0.81177
692.35463	0.81249
690.42607	0.81175
688.49750	0.80986
686.56894	0.80694
684.64037	0.80281
682.71181	0.79736
680.78324	0.79042
678.85468	0.78255
676.92611	0.77448
674.99755	0.76632
673.06899	0.75869
671.14042	0.75209
669.21186	0.74587
667.28329	0.74126
665.35473	0.73918
663.42616	0.73753
661.49760	0.73584
659.56903	0.73479
657.64047	0.73557
655.71191	0.73807
653.78334	0.74128
651.85478	0.74550
649.92621	0.75085
647.99765	0.75632
646.06908	0.76231
644.14052	0.76964
642.21195	0.77701
640.28339	0.78328
638.35483	0.78864
636.42626	0.79249
634.49770	0.79341
632.56913	0.79067
630.64057	0.78488
628.71200	0.77743
626.78344	0.76954
624.85488	0.76217
622.92631	0.75528
620.99775	0.74764
619.06918	0.73936
617.14062	0.73134
615.21205	0.72343
613.28349	0.71608
611.35492	0.71015
609.42636	0.70543
607.49780	0.70182
605.56923	0.69998
603.64067	0.70021
601.71210	0.70184
599.78354	0.70496
