3997.91406	0.62741
3995.98550	0.62672
3994.05693	0.62618
3992.12837	0.62514
3990.19980	0.62348
3988.27124	0.62226
3986.34268	0.62155
3984.41411	0.62122
3982.48555	0.62150
3980.55698	0.62176
3978.62842	0.62123
3976.69985	0.62066
3974.77129	0.62067
3972.84272	0.62040
3970.91416	0.61994
3968.98560	0.62014
3967.05703	0.62065
3965.12847	0.62053
3963.19990	0.61989
3961.27134	0.61976
3959.34277	0.62001
3957.41421	0.61942
3955.48564	0.61743
3953.55708	0.61517
3951.62852	0.61416
3949.69995	0.61474
3947.77139	0.61581
3945.84282	0.61579
3943.91426	0.61508
3941.98569	0.61432
3940.05713	0.61284
3938.12856	0.61088
3936.20000	0.60911
3934.27144	0.60813
3932.34287	0.60854
3930.41431	0.60932
3928.48574	0.60867
3926.55718	0.60722
3924.62861	0.60685
3922.70005	0.60724
3920.77148	0.60723
3918.84292	0.60764
3916.91436	0.60899
3914.98579	0.60988
3913.05723	0.60992
3911.12866	0.60995
3909.20010	0.60919
3907.27153	0.60726
3905.34297	0.60678
3903.41440	0.60918
3901.48584	0.61080
3899.55728	0.61063
3897.62871	0.60933
3895.70015	0.60700
3893.77158	0.60531
3891.84302	0.60562
3889.91445	0.60453
3887.98589	0.60119
3886.05733	0.60009
3884.12876	0.60141
3882.20020	0.60134
3880.27163	0.60153
3878.34307	0.60090
3876.41450	0.59870
3874.48594	0.59747
3872.55737	0.59717
3870.62881	0.59788
3868.70025	0.59995
3866.77168	0.60088
3864.84312	0.60100
3862.91455	0.60065
3860.98599	0.59966
3859.05742	0.59778
3857.12886	0.59419
3855.20029	0.59098
3853.27173	0.59552
3851.34317	0.59989
3849.41460	0.59811
3847.48604	0.59554
3845.55747	0.59458
3843.62891	0.59474
3841.70034	0.59326
3839.77178	0.59096
3837.84321	0.59201
3835.91465	0.59363
3833.98609	0.59349
3832.05752	0.59378
3830.12896	0.59405
3828.20039	0.59333
3826.27183	0.59224
3824.34326	0.59010
3822.41470	0.58876
3820.48613	0.59105
3818.55757	0.59171
3816.62901	0.59280
3814.70044	0.59573
3812.77188	0.59556
3810.84331	0.59287
3808.91475	0.59057
3806.98618	0.59106
3805.05762	0.59088
3803.12905	0.58885
3801.20049	0.58949
3799.27193	0.59108
3797.34336	0.59269
3795.41480	0.59431
3793.48623	0.59296
3791.55767	0.58965
3789.62910	0.58653
3787.70054	0.58444
3785.77197	0.58409
3783.84341	0.58467
3781.91485	0.58472
3779.98628	0.58517
3778.05772	0.58541
3776.12915	0.58399
3774.20059	0.58223
3772.27202	0.58160
3770.34346	0.58264
3768.41489	0.58356
3766.48633	0.58373
3764.55777	0.58386
3762.62920	0.58275
3760.70064	0.58163
3758.77207	0.58262
3756.84351	0.58355
3754.91494	0.58244
3752.98638	0.58040
3751.05781	0.58178
3749.12925	0.58421
3747.20069	0.58217
3745.27212	0.58231
3743.34356	0.58629
3741.41499	0.58596
3739.48643	0.58226
3737.55786	0.57894
3735.62930	0.57966
3733.70074	0.58454
3731.77217	0.58695
3729.84361	0.58557
3727.91504	0.58320
3725.98648	0.58245
3724.05791	0.58388
3722.12935	0.58577
3720.20078	0.58628
3718.27222	0.58496
3716.34366	0.58250
3714.41509	0.58002
3712.48653	0.58071
3710.55796	0.58574
3708.62940	0.58760
3706.70083	0.58598
3704.77227	0.58429
3702.84370	0.58445
3700.91514	0.58495
3698.98658	0.58388
3697.05801	0.58357
3695.12945	0.58432
3693.20088	0.58412
3691.27232	0.58443
3689.34375	0.58922
3687.41519	0.59289
3685.48662	0.59218
3683.55806	0.59096
3681.62950	0.59121
3679.70093	0.59234
3677.77237	0.59400
3675.84380	0.59965
3673.91524	0.60418
3671.98667	0.60464
3670.05811	0.60911
3668.12954	0.61408
3666.20098	0.61477
3664.27242	0.61513
3662.34385	0.61665
3660.41529	0.61869
3658.48672	0.62167
3656.55816	0.62751
3654.62959	0.63123
3652.70103	0.62929
3650.77246	0.62962
3648.84390	0.64398
3646.91534	0.65495
3644.98677	0.65549
3643.05821	0.65495
3641.12964	0.65673
3639.20108	0.66055
3637.27251	0.66474
3635.34395	0.66829
3633.41538	0.67117
3631.48682	0.67382
3629.55826	0.68123
3627.62969	0.69214
3625.70113	0.69547
3623.77256	0.69535
3621.84400	0.69651
3619.91543	0.70251
3617.98687	0.71104
3616.05830	0.71573
3614.12974	0.71931
3612.20118	0.72350
3610.27261	0.72720
3608.34405	0.73284
3606.41548	0.73957
3604.48692	0.74373
3602.55835	0.74752
3600.62979	0.75372
3598.70123	0.76077
3596.77266	0.76655
3594.84410	0.77111
3592.91553	0.77458
3590.98697	0.77816
3589.05840	0.78455
3587.12984	0.79334
3585.20127	0.79904
3583.27271	0.80249
3581.34415	0.80614
3579.41558	0.81044
3577.48702	0.81563
3575.55845	0.82174
3573.62989	0.82723
3571.70132	0.83059
3569.77276	0.83291
3567.84419	0.83866
3565.91563	0.84939
3563.98707	0.85813
3562.05850	0.86445
3560.12994	0.86963
3558.20137	0.87393
3556.27281	0.87834
3554.34424	0.88346
3552.41568	0.88954
3550.48711	0.89553
3548.55855	0.90168
3546.62999	0.90926
3544.70142	0.91636
3542.77286	0.92144
3540.84429	0.92596
3538.91573	0.93044
3536.98716	0.93507
3535.05860	0.94007
3533.13003	0.94476
3531.20147	0.95006
3529.27291	0.95776
3527.34434	0.96669
3525.41578	0.97465
3523.48721	0.98244
3521.55865	0.99022
3519.63008	0.99705
3517.70152	1.00363
3515.77295	1.01036
3513.84439	1.01786
3511.91583	1.02630
3509.98726	1.03530
3508.05870	1.04550
3506.13013	1.05671
3504.20157	1.06899
3502.27300	1.08112
3500.34444	1.09058
3498.41587	1.09914
3496.48731	1.10999
3494.55875	1.12109
3492.63018	1.12755
3490.70162	1.13173
3488.77305	1.13855
3486.84449	1.14545
3484.91592	1.14771
3482.98736	1.14746
3481.05879	1.14922
3479.13023	1.15402
3477.20167	1.16103
3475.27310	1.16784
3473.34454	1.17193
3471.41597	1.17460
3469.48741	1.17920
3467.55884	1.18625
3465.63028	1.19191
3463.70171	1.19486
3461.77315	1.19798
3459.84459	1.20321
3457.91602	1.21061
3455.98746	1.21734
3454.05889	1.21915
3452.13033	1.21785
3450.20176	1.21933
3448.27320	1.22505
3446.34464	1.23129
3444.41607	1.23412
3442.48751	1.23476
3440.55894	1.23615
3438.63038	1.23886
3436.70181	1.24177
3434.77325	1.24232
3432.84468	1.24087
3430.91612	1.24187
3428.98756	1.24632
3427.05899	1.24976
3425.13043	1.24868
3423.20186	1.24512
3421.27330	1.24329
3419.34473	1.24435
3417.41617	1.24595
3415.48760	1.24632
3413.55904	1.24604
3411.63048	1.24589
3409.70191	1.24531
3407.77335	1.24433
3405.84478	1.24551
3403.91622	1.24963
3401.98765	1.25183
3400.05909	1.24866
3398.13052	1.24385
3396.20196	1.24220
3394.27340	1.24447
3392.34483	1.24908
3390.41627	1.25246
3388.48770	1.25079
3386.55914	1.24586
3384.63057	1.24299
3382.70201	1.24404
3380.77344	1.24799
3378.84488	1.25325
3376.91632	1.25700
3374.98775	1.25860
3373.05919	1.26052
3371.13062	1.26357
3369.20206	1.26559
3367.27349	1.26595
3365.34493	1.26649
3363.41636	1.26809
3361.48780	1.27124
3359.55924	1.27478
3357.63067	1.27709
3355.70211	1.27971
3353.77354	1.28253
3351.84498	1.28476
3349.91641	1.28669
3347.98785	1.28665
3346.05928	1.28762
3344.13072	1.29432
3342.20216	1.30192
3340.27359	1.30401
3338.34503	1.30400
3336.41646	1.30739
3334.48790	1.31246
3332.55933	1.31571
3330.63077	1.31823
3328.70220	1.32144
3326.77364	1.32366
3324.84508	1.32527
3322.91651	1.32999
3320.98795	1.33695
3319.05938	1.34168
3317.13082	1.34535
3315.20225	1.35120
3313.27369	1.35692
3311.34513	1.36148
3309.41656	1.36804
3307.48800	1.37482
3305.55943	1.37842
3303.63087	1.38022
3301.70230	1.38217
3299.77374	1.38575
3297.84517	1.39193
3295.91661	1.39854
3293.98805	1.40049
3292.05948	1.39746
3290.13092	1.39682
3288.20235	1.40054
3286.27379	1.40335
3284.34522	1.40439
3282.41666	1.40492
3280.48809	1.40339
3278.55953	1.39980
3276.63097	1.39485
3274.70240	1.38929
3272.77384	1.38603
3270.84527	1.38520
3268.91671	1.38245
3266.98814	1.37681
3265.05958	1.37241
3263.13101	1.36898
3261.20245	1.36282
3259.27389	1.35629
3257.34532	1.35160
3255.41676	1.34410
3253.48819	1.33282
3251.55963	1.32256
3249.63106	1.31357
3247.70250	1.30414
3245.77393	1.29473
3243.84537	1.28580
3241.91681	1.27863
3239.98824	1.27230
3238.05968	1.26353
3236.13111	1.25442
3234.20255	1.24859
3232.27398	1.24302
3230.34542	1.23535
3228.41685	1.22773
3226.48829	1.22146
3224.55973	1.21636
3222.63116	1.21074
3220.70260	1.20430
3218.77403	1.19827
3216.84547	1.19214
3214.91690	1.18619
3212.98834	1.18027
3211.05977	1.17333
3209.13121	1.16638
3207.20265	1.16078
3205.27408	1.15702
3203.34552	1.15327
3201.41695	1.14713
3199.48839	1.14040
3197.55982	1.13542
3195.63126	1.13062
3193.70269	1.12556
3191.77413	1.12160
3189.84557	1.11690
3187.91700	1.11085
3185.98844	1.10546
3184.05987	1.09978
3182.13131	1.09296
3180.20274	1.08695
3178.27418	1.08270
3176.34562	1.07836
3174.41705	1.07204
3172.48849	1.06477
3170.55992	1.05859
3168.63136	1.05409
3166.70279	1.05063
3164.77423	1.04746
3162.84566	1.04403
3160.91710	1.03950
3158.98854	1.03372
3157.05997	1.02810
3155.13141	1.02425
3153.20284	1.02245
3151.27428	1.02144
3149.34571	1.01987
3147.41715	1.01771
3145.48858	1.01545
3143.56002	1.01299
3141.63146	1.01079
3139.70289	1.00937
3137.77433	1.00790
3135.84576	1.00581
3133.91720	1.00421
3131.98863	1.00419
3130.06007	1.00475
3128.13150	1.00495
3126.20294	1.00536
3124.27438	1.00564
3122.34581	1.00477
3120.41725	1.00373
3118.48868	1.00395
3116.56012	1.00444
3114.63155	1.00464
3112.70299	1.00571
3110.77442	1.00725
3108.84586	1.00837
3106.91730	1.00934
3104.98873	1.00996
3103.06017	1.00992
3101.13160	1.00977
3099.20304	1.00944
3097.27447	1.00834
3095.34591	1.00742
3093.41734	1.00764
3091.48878	1.00740
3089.56022	1.00539
3087.63165	1.00284
3085.70309	1.00028
3083.77452	0.99682
3081.84596	0.99262
3079.91739	0.98832
3077.98883	0.98431
3076.06026	0.98089
3074.13170	0.97769
3072.20314	0.97353
3070.27457	0.96795
3068.34601	0.96218
3066.41744	0.95763
3064.48888	0.95423
3062.56031	0.95086
3060.63175	0.94667
3058.70318	0.94240
3056.77462	0.93876
3054.84606	0.93453
3052.91749	0.93003
3050.98893	0.92707
3049.06036	0.92456
3047.13180	0.92062
3045.20323	0.91569
3043.27467	0.91113
3041.34610	0.90791
3039.41754	0.90543
3037.48898	0.90242
3035.56041	0.89879
3033.63185	0.89539
3031.70328	0.89249
3029.77472	0.88947
3027.84615	0.88634
3025.91759	0.88375
3023.98903	0.88184
3022.06046	0.88029
3020.13190	0.87887
3018.20333	0.87699
3016.27477	0.87452
3014.34620	0.87248
3012.41764	0.87082
3010.48907	0.86856
3008.56051	0.86627
3006.63195	0.86528
3004.70338	0.86591
3002.77482	0.86727
3000.84625	0.86813
2998.91769	0.86852
2996.98912	0.86977
2995.06056	0.87187
2993.13199	0.87354
2991.20343	0.87549
2989.27487	0.87898
2987.34630	0.88352
2985.41774	0.88859
2983.48917	0.89388
2981.56061	0.89908
2979.63204	0.90503
2977.70348	0.91215
2975.77491	0.91897
2973.84635	0.92512
2971.91779	0.93187
2969.98922	0.93899
2968.06066	0.94580
2966.13209	0.95215
2964.20353	0.95719
2962.27496	0.96055
2960.34640	0.96161
2958.41783	0.95939
2956.48927	0.95442
2954.56071	0.94791
2952.63214	0.94153
2950.70358	0.93680
2948.77501	0.93395
2946.84645	0.93390
2944.91788	0.93785
2942.98932	0.94482
2941.06075	0.95319
2939.13219	0.96210
2937.20363	0.97053
2935.27506	0.97797
2933.34650	0.98493
2931.41793	0.99181
2929.48937	0.99866
2927.56080	1.00476
2925.63224	1.00876
2923.70367	1.01117
2921.77511	1.01343
2919.84655	1.01364
2917.91798	1.00778
2915.98942	0.99409
2914.06085	0.97476
2912.13229	0.95498
2910.20372	0.93870
2908.27516	0.92617
2906.34659	0.91668
2904.41803	0.90989
2902.48947	0.90475
2900.56090	0.90055
2898.63234	0.89746
2896.70377	0.89559
2894.77521	0.89419
2892.84664	0.89234
2890.91808	0.89022
2888.98952	0.88788
2887.06095	0.88488
2885.13239	0.88229
2883.20382	0.88108
2881.27526	0.88084
2879.34669	0.88103
2877.41813	0.88067
2875.48956	0.87902
2873.56100	0.87633
2871.63244	0.87268
2869.70387	0.86748
2867.77531	0.86069
2865.84674	0.85411
2863.91818	0.84983
2861.98961	0.84825
2860.06105	0.84920
2858.13248	0.85250
2856.20392	0.85780
2854.27536	0.86494
2852.34679	0.87249
2850.41823	0.87528
2848.48966	0.86672
2846.56110	0.84727
2844.63253	0.82530
2842.70397	0.80708
2840.77540	0.79355
2838.84684	0.78387
2836.91828	0.77658
2834.98971	0.77033
2833.06115	0.76500
2831.13258	0.76045
2829.20402	0.75589
2827.27545	0.75131
2825.34689	0.74717
2823.41832	0.74299
2821.48976	0.73867
2819.56120	0.73526
2817.63263	0.73283
2815.70407	0.73037
2813.77550	0.72785
2811.84694	0.72578
2809.91837	0.72401
2807.98981	0.72224
2806.06124	0.72019
2804.13268	0.71791
2802.20412	0.71534
2800.27555	0.71234
2798.34699	0.70943
2796.41842	0.70711
2794.48986	0.70528
2792.56129	0.70348
2790.63273	0.70121
2788.70416	0.69857
2786.77560	0.69620
2784.84704	0.69400
2782.91847	0.69140
2780.98991	0.68868
2779.06134	0.68652
2777.13278	0.68486
2775.20421	0.68323
2773.27565	0.68169
2771.34708	0.68032
2769.41852	0.67907
2767.48996	0.67784
2765.56139	0.67641
2763.63283	0.67507
2761.70426	0.67387
2759.77570	0.67248
2757.84713	0.67144
2755.91857	0.67088
2753.99001	0.67004
2752.06144	0.66894
2750.13288	0.66799
2748.20431	0.66717
2746.27575	0.66643
2744.34718	0.66538
2742.41862	0.66370
2740.49005	0.66171
2738.56149	0.65992
2736.63293	0.65842
2734.70436	0.65682
2732.77580	0.65483
2730.84723	0.65253
2728.91867	0.65034
2726.99010	0.64859
2725.06154	0.64711
2723.13297	0.64556
2721.20441	0.64400
2719.27585	0.64262
2717.34728	0.64161
2715.41872	0.64102
2713.49015	0.64040
2711.56159	0.63918
2709.63302	0.63778
2707.70446	0.63696
2705.77589	0.63668
2703.84733	0.63637
2701.91877	0.63566
2699.99020	0.63476
2698.06164	0.63365
2696.13307	0.63224
2694.20451	0.63121
2692.27594	0.63092
2690.34738	0.63056
2688.41881	0.62933
2686.49025	0.62777
2684.56169	0.62665
2682.63312	0.62582
2680.70456	0.62468
2678.77599	0.62313
2676.84743	0.62171
2674.91886	0.62057
2672.99030	0.61950
2671.06173	0.61864
2669.13317	0.61819
2667.20461	0.61799
2665.27604	0.61762
2663.34748	0.61709
2661.41891	0.61676
2659.49035	0.61661
2657.56178	0.61659
2655.63322	0.61673
2653.70465	0.61682
2651.77609	0.61672
2649.84753	0.61635
2647.91896	0.61534
2645.99040	0.61414
2644.06183	0.61379
2642.13327	0.61399
2640.20470	0.61378
2638.27614	0.61316
2636.34757	0.61254
2634.41901	0.61181
2632.49045	0.61087
2630.56188	0.61008
2628.63332	0.60940
2626.70475	0.60850
2624.77619	0.60758
2622.84762	0.60682
2620.91906	0.60614
2618.99049	0.60554
2617.06193	0.60496
2615.13337	0.60449
2613.20480	0.60412
2611.27624	0.60364
2609.34767	0.60285
2607.41911	0.60185
2605.49054	0.60108
2603.56198	0.60041
2601.63342	0.59956
2599.70485	0.59876
2597.77629	0.59789
2595.84772	0.59665
2593.91916	0.59538
2591.99059	0.59444
2590.06203	0.59351
2588.13346	0.59225
2586.20490	0.59099
2584.27634	0.59006
2582.34777	0.58910
2580.41921	0.58778
2578.49064	0.58647
2576.56208	0.58558
2574.63351	0.58502
2572.70495	0.58441
2570.77638	0.58371
2568.84782	0.58320
2566.91926	0.58296
2564.99069	0.58291
2563.06213	0.58294
2561.13356	0.58286
2559.20500	0.58260
2557.27643	0.58246
2555.34787	0.58254
2553.41930	0.58254
2551.49074	0.58248
2549.56218	0.58260
2547.63361	0.58272
2545.70505	0.58265
2543.77648	0.58244
2541.84792	0.58221
2539.91935	0.58195
2537.99079	0.58141
2536.06222	0.58069
2534.13366	0.58009
2532.20510	0.57945
2530.27653	0.57869
2528.34797	0.57803
2526.41940	0.57744
2524.49084	0.57669
2522.56227	0.57586
2520.63371	0.57511
2518.70514	0.57446
2516.77658	0.57387
2514.84802	0.57335
2512.91945	0.57292
2510.99089	0.57264
2509.06232	0.57263
2507.13376	0.57273
2505.20519	0.57265
2503.27663	0.57262
2501.34806	0.57288
2499.41950	0.57317
2497.49094	0.57345
2495.56237	0.57370
2493.63381	0.57374
2491.70524	0.57375
2489.77668	0.57378
2487.84811	0.57373
2485.91955	0.57374
2483.99098	0.57373
2482.06242	0.57336
2480.13386	0.57252
2478.20529	0.57137
2476.27673	0.57034
2474.34816	0.56979
2472.41960	0.56951
2470.49103	0.56908
2468.56247	0.56851
2466.63391	0.56789
2464.70534	0.56742
2462.77678	0.56735
2460.84821	0.56730
2458.91965	0.56688
2456.99108	0.56637
2455.06252	0.56586
2453.13395	0.56500
2451.20539	0.56422
2449.27683	0.56393
2447.34826	0.56359
2445.41970	0.56294
2443.49113	0.56245
2441.56257	0.56223
2439.63400	0.56185
2437.70544	0.56146
2435.77687	0.56136
2433.84831	0.56106
2431.91975	0.56030
2429.99118	0.55949
2428.06262	0.55870
2426.13405	0.55780
2424.20549	0.55696
2422.27692	0.55633
2420.34836	0.55586
2418.41979	0.55531
2416.49123	0.55448
2414.56267	0.55362
2412.63410	0.55314
2410.70554	0.55300
2408.77697	0.55293
2406.84841	0.55292
2404.91984	0.55307
2402.99128	0.55327
2401.06271	0.55340
2399.13415	0.55362
2397.20559	0.55403
2395.27702	0.55445
2393.34846	0.55478
2391.41989	0.55509
2389.49133	0.55546
2387.56276	0.55581
2385.63420	0.55581
2383.70563	0.55573
2381.77707	0.55582
2379.84851	0.55580
2377.91994	0.55552
2375.99138	0.55486
2374.06281	0.55378
2372.13425	0.55271
2370.20568	0.55229
2368.27712	0.55325
2366.34855	0.55437
2364.41999	0.55297
2362.49143	0.54926
2360.56286	0.54558
2358.63430	0.54393
2356.70573	0.54546
2354.77717	0.54840
2352.84860	0.54991
2350.92004	0.54922
2348.99147	0.54760
2347.06291	0.54673
2345.13435	0.54751
2343.20578	0.54861
2341.27722	0.54846
2339.34865	0.54805
2337.42009	0.54861
2335.49152	0.54940
2333.56296	0.54953
2331.63440	0.54991
2329.70583	0.55084
2327.77727	0.55152
2325.84870	0.55193
2323.92014	0.55217
2321.99157	0.55240
2320.06301	0.55298
2318.13444	0.55339
2316.20588	0.55315
2314.27732	0.55268
2312.34875	0.55243
2310.42019	0.55234
2308.49162	0.55234
2306.56306	0.55253
2304.63449	0.55269
2302.70593	0.55271
2300.77736	0.55303
2298.84880	0.55384
2296.92024	0.55473
2294.99167	0.55543
2293.06311	0.55614
2291.13454	0.55694
2289.20598	0.55775
2287.27741	0.55869
2285.34885	0.55968
2283.42028	0.56032
2281.49172	0.56048
2279.56316	0.56049
2277.63459	0.56061
2275.70603	0.56060
2273.77746	0.56035
2271.84890	0.56008
2269.92033	0.55966
2267.99177	0.55877
2266.06320	0.55753
2264.13464	0.55614
2262.20608	0.55454
2260.27751	0.55280
2258.34895	0.55116
2256.42038	0.54977
2254.49182	0.54857
2252.56325	0.54749
2250.63469	0.54663
2248.70612	0.54602
2246.77756	0.54579
2244.84900	0.54583
2242.92043	0.54565
2240.99187	0.54535
2239.06330	0.54539
2237.13474	0.54571
2235.20617	0.54613
2233.27761	0.54675
2231.34904	0.54754
2229.42048	0.54837
2227.49192	0.54914
2225.56335	0.54972
2223.63479	0.55009
2221.70622	0.55058
2219.77766	0.55139
2217.84909	0.55218
2215.92053	0.55241
2213.99196	0.55212
2212.06340	0.55177
2210.13484	0.55170
2208.20627	0.55173
2206.27771	0.55156
2204.34914	0.55129
2202.42058	0.55127
2200.49201	0.55156
2198.56345	0.55176
2196.63488	0.55163
2194.70632	0.55155
2192.77776	0.55174
2190.84919	0.55190
2188.92063	0.55208
2186.99206	0.55267
2185.06350	0.55365
2183.13493	0.55446
2181.20637	0.55490
2179.27781	0.55536
2177.34924	0.55598
2175.42068	0.55647
2173.49211	0.55681
2171.56355	0.55725
2169.63498	0.55761
2167.70642	0.55772
2165.77785	0.55800
2163.84929	0.55864
2161.92073	0.55917
2159.99216	0.55942
2158.06360	0.55970
2156.13503	0.56014
2154.20647	0.56055
2152.27790	0.56082
2150.34934	0.56112
2148.42077	0.56147
2146.49221	0.56172
2144.56365	0.56204
2142.63508	0.56250
2140.70652	0.56293
2138.77795	0.56326
2136.84939	0.56344
2134.92082	0.56346
2132.99226	0.56365
2131.06369	0.56412
2129.13513	0.56451
2127.20657	0.56462
2125.27800	0.56445
2123.34944	0.56408
2121.42087	0.56362
2119.49231	0.56304
2117.56374	0.56233
2115.63518	0.56153
2113.70661	0.56057
2111.77805	0.55947
2109.84949	0.55832
2107.92092	0.55728
2105.99236	0.55635
2104.06379	0.55548
2102.13523	0.55471
2100.20666	0.55404
2098.27810	0.55334
2096.34953	0.55262
2094.42097	0.55195
2092.49241	0.55121
2090.56384	0.55034
2088.63528	0.54952
2086.70671	0.54878
2084.77815	0.54799
2082.84958	0.54728
2080.92102	0.54655
2078.99245	0.54547
2077.06389	0.54419
2075.13533	0.54308
2073.20676	0.54235
2071.27820	0.54189
2069.34963	0.54137
2067.42107	0.54071
2065.49250	0.54024
2063.56394	0.54015
2061.63537	0.54015
2059.70681	0.54002
2057.77825	0.53991
2055.84968	0.54008
2053.92112	0.54065
2051.99255	0.54143
2050.06399	0.54228
2048.13542	0.54312
2046.20686	0.54389
2044.27830	0.54461
2042.34973	0.54538
2040.42117	0.54602
2038.49260	0.54628
2036.56404	0.54634
2034.63547	0.54634
2032.70691	0.54624
2030.77834	0.54603
2028.84978	0.54585
2026.92122	0.54575
2024.99265	0.54552
2023.06409	0.54503
2021.13552	0.54442
2019.20696	0.54395
2017.27839	0.54387
2015.34983	0.54418
2013.42126	0.54454
2011.49270	0.54469
2009.56414	0.54480
2007.63557	0.54492
2005.70701	0.54484
2003.77844	0.54469
2001.84988	0.54474
1999.92131	0.54490
1997.99275	0.54488
1996.06418	0.54451
1994.13562	0.54387
1992.20706	0.54321
1990.27849	0.54242
1988.34993	0.54127
1986.42136	0.53993
1984.49280	0.53858
1982.56423	0.53723
1980.63567	0.53562
1978.70710	0.53379
1976.77854	0.53204
1974.84998	0.53042
1972.92141	0.52877
1970.99285	0.52713
1969.06428	0.52573
1967.13572	0.52460
1965.20715	0.52339
1963.27859	0.52216
1961.35002	0.52138
1959.42146	0.52104
1957.49290	0.52094
1955.56433	0.52093
1953.63577	0.52087
1951.70720	0.52075
1949.77864	0.52055
1947.85007	0.52017
1945.92151	0.51960
1943.99294	0.51914
1942.06438	0.51880
1940.13582	0.51807
1938.20725	0.51704
1936.27869	0.51590
1934.35012	0.51445
1932.42156	0.51274
1930.49299	0.51100
1928.56443	0.50925
1926.63586	0.50748
1924.70730	0.50579
1922.77874	0.50423
1920.85017	0.50271
1918.92161	0.50151
1916.99304	0.50075
1915.06448	0.49988
1913.13591	0.49886
1911.20735	0.49811
1909.27878	0.49772
1907.35022	0.49736
1905.42166	0.49687
1903.49309	0.49657
1901.56453	0.49649
1899.63596	0.49642
1897.70740	0.49639
1895.77883	0.49656
1893.85027	0.49672
1891.92171	0.49684
1889.99314	0.49730
1888.06458	0.49754
1886.13601	0.49700
1884.20745	0.49622
1882.27888	0.49559
1880.35032	0.49510
1878.42175	0.49456
1876.49319	0.49385
1874.56463	0.49303
1872.63606	0.49204
1870.70750	0.49120
1868.77893	0.49115
1866.85037	0.49107
1864.92180	0.49029
1862.99324	0.48962
1861.06467	0.48937
1859.13611	0.48930
1857.20755	0.48916
1855.27898	0.48899
1853.35042	0.48887
1851.42185	0.48858
1849.49329	0.48811
1847.56472	0.48765
1845.63616	0.48780
1843.70759	0.48853
1841.77903	0.48798
1839.85047	0.48622
1837.92190	0.48456
1835.99334	0.48321
1834.06477	0.48143
1832.13621	0.47941
1830.20764	0.47801
1828.27908	0.47693
1826.35051	0.47550
1824.42195	0.47412
1822.49339	0.47279
1820.56482	0.47138
1818.63626	0.47029
1816.70769	0.46950
1814.77913	0.46871
1812.85056	0.46802
1810.92200	0.46769
1808.99343	0.46737
1807.06487	0.46676
1805.13631	0.46610
1803.20774	0.46550
1801.27918	0.46532
1799.35061	0.46542
1797.42205	0.46499
1795.49348	0.46409
1793.56492	0.46363
1791.63635	0.46410
1789.70779	0.46376
1787.77923	0.46262
1785.85066	0.46187
1783.92210	0.46162
1781.99353	0.46153
1780.06497	0.46163
1778.13640	0.46159
1776.20784	0.46115
1774.27927	0.46119
1772.35071	0.46266
1770.42215	0.46413
1768.49358	0.46472
1766.56502	0.46508
1764.63645	0.46545
1762.70789	0.46681
1760.77932	0.46924
1758.85076	0.47142
1756.92220	0.47424
1754.99363	0.47706
1753.06507	0.47933
1751.13650	0.48374
1749.20794	0.49091
1747.27937	0.49701
1745.35081	0.50139
1743.42224	0.50520
1741.49368	0.50887
1739.56512	0.51219
1737.63655	0.51389
1735.70799	0.51487
1733.77942	0.51835
1731.85086	0.52138
1729.92229	0.52239
1727.99373	0.52367
1726.06516	0.52554
1724.13660	0.52861
1722.20804	0.53183
1720.27947	0.53438
1718.35091	0.53978
1716.42234	0.55212
1714.49378	0.56328
1712.56521	0.57158
1710.63665	0.58091
1708.70808	0.59257
1706.77952	0.61044
1704.85096	0.63446
1702.92239	0.65633
1700.99383	0.68810
1699.06526	0.73927
1697.13670	0.78670
1695.20813	0.83201
1693.27957	0.86553
1691.35100	0.89296
1689.42244	0.92733
1687.49388	0.95950
1685.56531	0.99321
1683.63675	1.05170
1681.70818	1.09830
1679.77962	1.12681
1677.85105	1.15470
1675.92249	1.18933
1673.99392	1.22698
1672.06536	1.25538
1670.13680	1.28710
1668.20823	1.32276
1666.27967	1.34270
1664.35110	1.35950
1662.42254	1.38353
1660.49397	1.40419
1658.56541	1.41585
1656.63684	1.42226
1654.70828	1.42757
1652.77972	1.43463
1650.85115	1.43773
1648.92259	1.43790
1646.99402	1.43728
1645.06546	1.43548
1643.13689	1.43260
1641.20833	1.43161
1639.27976	1.43179
1637.35120	1.43088
1635.42264	1.42839
1633.49407	1.42726
1631.56551	1.42650
1629.63694	1.42215
1627.70838	1.41235
1625.77981	1.39787
1623.85125	1.37788
1621.92269	1.35456
1619.99412	1.33425
1618.06556	1.30745
1616.13699	1.26453
1614.20843	1.22733
1612.27986	1.19710
1610.35130	1.16494
1608.42273	1.13260
1606.49417	1.10549
1604.56561	1.08477
1602.63704	1.06860
1600.70848	1.05652
1598.77991	1.04829
1596.85135	1.04311
1594.92278	1.03961
1592.99422	1.03693
1591.06565	1.03593
1589.13709	1.03737
1587.20853	1.04120
1585.27996	1.04764
1583.35140	1.05685
1581.42283	1.06705
1579.49427	1.07658
1577.56570	1.08936
1575.63714	1.11010
1573.70857	1.12622
1571.78001	1.13835
1569.85145	1.15766
1567.92288	1.17878
1565.99432	1.19385
1564.06575	1.20772
1562.13719	1.21866
1560.20862	1.23215
1558.28006	1.26341
1556.35149	1.28169
1554.42293	1.29125
1552.49437	1.29900
1550.56580	1.30380
1548.63724	1.30699
1546.70867	1.30936
1544.78011	1.31151
1542.85154	1.31286
1540.92298	1.31353
1538.99441	1.31269
1537.06585	1.30932
1535.13729	1.30461
1533.20872	1.29917
1531.28016	1.29337
1529.35159	1.28787
1527.42303	1.28217
1525.49446	1.27543
1523.56590	1.26948
1521.63733	1.26683
1519.70877	1.26730
1517.78021	1.26383
1515.85164	1.25339
1513.92308	1.23843
1511.99451	1.22076
1510.06595	1.20213
1508.13738	1.17248
1506.20882	1.12260
1504.28025	1.09537
1502.35169	1.07706
1500.42313	1.05546
1498.49456	1.02807
1496.56600	0.99681
1494.63743	0.97277
1492.70887	0.95618
1490.78030	0.93829
1488.85174	0.91672
1486.92317	0.90096
1484.99461	0.89108
1483.06605	0.88361
1481.13748	0.87798
1479.20892	0.87527
1477.28035	0.87616
1475.35179	0.88130
1473.42322	0.89432
1471.49466	0.91119
1469.56610	0.92063
1467.63753	0.92634
1465.70897	0.93347
1463.78040	0.94126
1461.85184	0.94553
1459.92327	0.94815
1457.99471	0.95573
1456.06614	0.96765
1454.13758	0.97171
1452.20902	0.97251
1450.28045	0.97293
1448.35189	0.97289
1446.42332	0.97191
1444.49476	0.96979
1442.56619	0.96672
1440.63763	0.96304
1438.70906	0.95842
1436.78050	0.95185
1434.85194	0.94471
1432.92337	0.93822
1430.99481	0.93070
1429.06624	0.92239
1427.13768	0.91550
1425.20911	0.91025
1423.28055	0.90656
1421.35198	0.90469
1419.42342	0.90469
1417.49486	0.90478
1415.56629	0.90254
1413.63773	0.89888
1411.70916	0.89443
1409.78060	0.88958
1407.85203	0.88541
1405.92347	0.88299
1403.99490	0.88211
1402.06634	0.88166
1400.13778	0.88197
1398.20921	0.88326
1396.28065	0.88499
1394.35208	0.88792
1392.42352	0.89194
1390.49495	0.89728
1388.56639	0.90798
1386.63782	0.92714
1384.70926	0.94844
1382.78070	0.96781
1380.85213	0.98515
1378.92357	0.99737
1376.99500	1.00198
1375.06644	0.99807
1373.13787	0.98597
1371.20931	0.96933
1369.28074	0.94866
1367.35218	0.92521
1365.42362	0.90284
1363.49505	0.88031
1361.56649	0.85875
1359.63792	0.84302
1357.70936	0.83157
1355.78079	0.82212
1353.85223	0.81431
1351.92366	0.80770
1349.99510	0.80173
1348.06654	0.79660
1346.13797	0.79271
1344.20941	0.79009
1342.28084	0.78870
1340.35228	0.78912
1338.42371	0.79183
1336.49515	0.79646
1334.56659	0.80334
1332.63802	0.81273
1330.70946	0.82371
1328.78089	0.83443
1326.85233	0.84303
1324.92376	0.84884
1322.99520	0.85281
1321.06663	0.85649
1319.13807	0.86063
1317.20951	0.86484
1315.28094	0.86839
1313.35238	0.87093
1311.42381	0.87228
1309.49525	0.87234
1307.56668	0.87071
1305.63812	0.86727
1303.70955	0.86274
1301.78099	0.85763
1299.85243	0.85172
1297.92386	0.84461
1295.99530	0.83666
1294.06673	0.82922
1292.13817	0.82359
1290.20960	0.82007
1288.28104	0.81821
1286.35247	0.81743
1284.42391	0.81712
1282.49535	0.81710
1280.56678	0.81777
1278.63822	0.81960
1276.70965	0.82296
1274.78109	0.82797
1272.85252	0.83482
1270.92396	0.84349
1268.99539	0.85312
1267.06683	0.86274
1265.13827	0.87132
1263.20970	0.87741
1261.28114	0.88056
1259.35257	0.88173
1257.42401	0.88173
1255.49544	0.88112
1253.56688	0.88011
1251.63831	0.87863
1249.70975	0.87677
1247.78119	0.87470
1245.85262	0.87268
1243.92406	0.87079
1241.99549	0.86891
1240.06693	0.86693
1238.13836	0.86451
1236.20980	0.86115
1234.28123	0.85688
1232.35267	0.85209
1230.42411	0.84667
1228.49554	0.84039
1226.56698	0.83352
1224.63841	0.82651
1222.70985	0.81966
1220.78128	0.81325
1218.85272	0.80752
1216.92415	0.80289
1214.99559	0.80037
1213.06703	0.80101
1211.13846	0.80433
1209.20990	0.80842
1207.28133	0.81093
1205.35277	0.80929
1203.42420	0.80226
1201.49564	0.79130
1199.56708	0.77847
1197.63851	0.76484
1195.70995	0.75137
1193.78138	0.73944
1191.85282	0.73009
1189.92425	0.72319
1187.99569	0.71818
1186.06712	0.71498
1184.13856	0.71355
1182.21000	0.71424
1180.28143	0.71794
1178.35287	0.72498
1176.42430	0.73502
1174.49574	0.74771
1172.56717	0.76232
1170.63861	0.77842
1168.71004	0.79690
1166.78148	0.81820
1164.85292	0.84072
1162.92435	0.86113
1160.99579	0.87634
1159.06722	0.88468
1157.13866	0.88537
1155.21009	0.87851
1153.28153	0.86530
1151.35296	0.84778
1149.42440	0.82842
1147.49584	0.80933
1145.56727	0.79208
1143.63871	0.77836
1141.71014	0.76959
1139.78158	0.76551
1137.85301	0.76492
1135.92445	0.76739
1133.99588	0.77345
1132.06732	0.78380
1130.13876	0.79900
1128.21019	0.81848
1126.28163	0.83960
1124.35306	0.86004
1122.42450	0.87901
1120.49593	0.89550
1118.56737	0.90884
1116.63880	0.91874
1114.71024	0.92361
1112.78168	0.92253
1110.85311	0.91782
1108.92455	0.91261
1106.99598	0.90783
1105.06742	0.90349
1103.13885	0.90035
1101.21029	0.89925
1099.28172	0.90087
1097.35316	0.90584
1095.42460	0.91441
1093.49603	0.92643
1091.56747	0.94158
1089.63890	0.95944
1087.71034	0.97984
1085.78177	1.00273
1083.85321	1.02660
1081.92464	1.04830
1079.99608	1.06523
1078.06752	1.07642
1076.13895	1.08189
1074.21039	1.08158
1072.28182	1.07563
1070.35326	1.06528
1068.42469	1.05222
1066.49613	1.03749
1064.56756	1.02220
1062.63900	1.00730
1060.71044	0.99234
1058.78187	0.97708
1056.85331	0.96249
1054.92474	0.94947
1052.99618	0.93850
1051.06761	0.92994
1049.13905	0.92453
1047.21049	0.92322
1045.28192	0.92636
1043.35336	0.93336
1041.42479	0.94268
1039.49623	0.95246
1037.56766	0.96110
1035.63910	0.96716
1033.71053	0.97017
1031.78197	0.97060
1029.85341	0.96875
1027.92484	0.96431
1025.99628	0.95708
1024.06771	0.94791
1022.13915	0.93877
1020.21058	0.93112
1018.28202	0.92493
1016.35345	0.91917
1014.42489	0.91188
1012.49633	0.90062
1010.56776	0.88447
1008.63920	0.86486
1006.71063	0.84427
1004.78207	0.82425
1002.85350	0.80534
1000.92494	0.78799
998.99637	0.77262
997.06781	0.75948
995.13925	0.74797
993.21068	0.73675
991.28212	0.72518
989.35355	0.71351
987.42499	0.70227
985.49642	0.69248
983.56786	0.68537
981.63929	0.68139
979.71073	0.68001
977.78217	0.68013
975.85360	0.68036
973.92504	0.67930
971.99647	0.67618
970.06791	0.67135
968.13934	0.66602
966.21078	0.66161
964.28221	0.65932
962.35365	0.66061
960.42509	0.66715
958.49652	0.67877
956.56796	0.69113
954.63939	0.69784
952.71083	0.69571
950.78226	0.68638
948.85370	0.67361
946.92513	0.66062
944.99657	0.64902
943.06801	0.63915
941.13944	0.63066
939.21088	0.62297
937.28231	0.61591
935.35375	0.60991
933.42518	0.60522
931.49662	0.60151
929.56805	0.59872
927.63949	0.59730
925.71093	0.59710
923.78236	0.59767
921.85380	0.59904
919.92523	0.60091
917.99667	0.60275
916.06810	0.60490
914.13954	0.60797
912.21098	0.61208
910.28241	0.61722
908.35385	0.62358
906.42528	0.63109
904.49672	0.63895
902.56815	0.64589
900.63959	0.65122
898.71102	0.65487
896.78246	0.65678
894.85390	0.65707
892.92533	0.65586
890.99677	0.65356
889.06820	0.65098
887.13964	0.64863
885.21107	0.64677
883.28251	0.64590
881.35394	0.64617
879.42538	0.64745
877.49682	0.64969
875.56825	0.65247
873.63969	0.65549
871.71112	0.65896
869.78256	0.66281
867.85399	0.66662
865.92543	0.67013
863.99686	0.67339
862.06830	0.67677
860.13974	0.68055
858.21117	0.68459
856.28261	0.68890
854.35404	0.69351
852.42548	0.69791
850.49691	0.70212
848.56835	0.70676
846.63978	0.71180
844.71122	0.71699
842.78266	0.72261
840.85409	0.72874
838.92553	0.73504
836.99696	0.74068
835.06840	0.74518
833.13983	0.74927
831.21127	0.75343
829.28270	0.75710
827.35414	0.75966
825.42558	0.76129
823.49701	0.76302
821.56845	0.76552
819.63988	0.76869
817.71132	0.77234
815.78275	0.77656
813.85419	0.78106
811.92562	0.78527
809.99706	0.78935
808.06850	0.79339
806.13993	0.79689
804.21137	0.79998
802.28280	0.80350
800.35424	0.80723
798.42567	0.81002
796.49711	0.81182
794.56854	0.81326
792.63998	0.81408
790.71142	0.81450
788.78285	0.81570
786.85429	0.81759
784.92572	0.81889
782.99716	0.81932
781.06859	0.81947
779.14003	0.81967
777.21147	0.81945
775.28290	0.81862
773.35434	0.81782
771.42577	0.81704
769.49721	0.81569
767.56864	0.81357
765.64008	0.81106
763.71151	0.80871
761.78295	0.80655
759.85439	0.80466
757.92582	0.80327
755.99726	0.80220
754.06869	0.80119
752.14013	0.80062
750.21156	0.80090
748.28300	0.80141
746.35443	0.80152
744.42587	0.80197
742.49731	0.80322
740.56874	0.80459
738.64018	0.80577
736.71161	0.80743
734.78305	0.81067
732.85448	0.81632
730.92592	0.82394
728.99735	0.83236
727.06879	0.84142
725.14023	0.85182
723.21166	0.86334
721.28310	0.87520
719.35453	0.88665
717.42597	0.89696
715.49740	0.90611
713.56884	0.91449
711.64027	0.92221
709.71171	0.92907
707.78315	0.93504
705.85458	0.93977
703.92602	0.94261
701.99745	0.94362
700.06889	0.94350
698.14032	0.94263
696.21176	0.94117
694.28319	0.93949
692.35463	0.93774
690.42607	0.93602
688.49750	0.93452
686.56894	0.93253
684.64037	0.93030
682.71181	0.92954
680.78324	0.92967
678.85468	0.92872
676.92611	0.92733
674.99755	0.92688
673.06899	0.92682
671.14042	0.92569
669.21186	0.92209
667.28329	0.91732
665.35473	0.91357
663.42616	0.90834
661.49760	0.90059
659.56903	0.89134
657.64047	0.88224
655.71191	0.87378
653.78334	0.86512
651.85478	0.85540
649.92621	0.84480
647.99765	0.83541
646.06908	0.82875
644.14052	0.82491
642.21195	0.82429
640.28339	0.82648
638.35483	0.83004
636.42626	0.83377
634.49770	0.83791
632.56913	0.84392
630.64057	0.85315
628.71200	0.86488
626.78344	0.87776
624.85488	0.89217
622.92631	0.90782
620.99775	0.92293
619.06918	0.93615
617.14062	0.94767
615.21205	0.95872
613.28349	0.96888
611.35492	0.97490
609.42636	0.97424
607.49780	0.96759
605.56923	0.95624
603.64067	0.94129
601.71210	0.92434
599.78354	0.90647
