3997.91406	0.70527
3995.98550	0.70546
3994.05693	0.70622
3992.12837	0.70729
3990.19980	0.70791
3988.27124	0.70747
3986.34268	0.70595
3984.41411	0.70457
3982.48555	0.70425
3980.55698	0.70443
3978.62842	0.70427
3976.69985	0.70368
3974.77129	0.70317
3972.84272	0.70279
3970.91416	0.70189
3968.98560	0.70115
3967.05703	0.70185
3965.12847	0.70295
3963.19990	0.70338
3961.27134	0.70338
3959.34277	0.70256
3957.41421	0.70060
3955.48564	0.69856
3953.55708	0.69735
3951.62852	0.69639
3949.69995	0.69603
3947.77139	0.69633
3945.84282	0.69496
3943.91426	0.69329
3941.98569	0.69414
3940.05713	0.69540
3938.12856	0.69536
3936.20000	0.69441
3934.27144	0.69309
3932.34287	0.69254
3930.41431	0.69214
3928.48574	0.69029
3926.55718	0.68847
3924.62861	0.68951
3922.70005	0.69216
3920.77148	0.69297
3918.84292	0.69300
3916.91436	0.69364
3914.98579	0.69241
3913.05723	0.68961
3911.12866	0.68785
3909.20010	0.68645
3907.27153	0.68478
3905.34297	0.68585
3903.41440	0.68961
3901.48584	0.69148
3899.55728	0.69189
3897.62871	0.69021
3895.70015	0.68652
3893.77158	0.68454
3891.84302	0.68691
3889.91445	0.68781
3887.98589	0.68450
3886.05733	0.68248
3884.12876	0.68280
3882.20020	0.68276
3880.27163	0.68376
3878.34307	0.68263
3876.41450	0.67917
3874.48594	0.67647
3872.55737	0.67447
3870.62881	0.67567
3868.70025	0.67916
3866.77168	0.67911
3864.84312	0.67898
3862.91455	0.68001
3860.98599	0.67858
3859.05742	0.67518
3857.12886	0.67028
3855.20029	0.66682
3853.27173	0.67505
3851.34317	0.68265
3849.41460	0.68093
3847.48604	0.67750
3845.55747	0.67519
3843.62891	0.67369
3841.70034	0.67129
3839.77178	0.67001
3837.84321	0.67312
3835.91465	0.67516
3833.98609	0.67449
3832.05752	0.67448
3830.12896	0.67428
3828.20039	0.67288
3826.27183	0.67110
3824.34326	0.66789
3822.41470	0.66587
3820.48613	0.66850
3818.55757	0.66855
3816.62901	0.66926
3814.70044	0.67258
3812.77188	0.67147
3810.84331	0.66732
3808.91475	0.66432
3806.98618	0.66481
3805.05762	0.66517
3803.12905	0.66527
3801.20049	0.66805
3799.27193	0.66749
3797.34336	0.66641
3795.41480	0.66792
3793.48623	0.66765
3791.55767	0.66578
3789.62910	0.66418
3787.70054	0.66271
3785.77197	0.66257
3783.84341	0.66364
3781.91485	0.66390
3779.98628	0.66492
3778.05772	0.66597
3776.12915	0.66382
3774.20059	0.66046
3772.27202	0.65893
3770.34346	0.66023
3768.41489	0.66111
3766.48633	0.66042
3764.55777	0.65994
3762.62920	0.65786
3760.70064	0.65578
3758.77207	0.65796
3756.84351	0.65997
3754.91494	0.65740
3752.98638	0.65391
3751.05781	0.65698
3749.12925	0.66124
3747.20069	0.65943
3745.27212	0.66063
3743.34356	0.66430
3741.41499	0.66163
3739.48643	0.65662
3737.55786	0.65450
3735.62930	0.65820
3733.70074	0.66319
3731.77217	0.66348
3729.84361	0.66065
3727.91504	0.65730
3725.98648	0.65609
3724.05791	0.65693
3722.12935	0.65738
3720.20078	0.65745
3718.27222	0.65711
3716.34366	0.65509
3714.41509	0.65181
3712.48653	0.65241
3710.55796	0.65967
3708.62940	0.66226
3706.70083	0.65947
3704.77227	0.65625
3702.84370	0.65587
3700.91514	0.65794
3698.98658	0.65831
3697.05801	0.65738
3695.12945	0.65648
3693.20088	0.65543
3691.27232	0.65716
3689.34375	0.66442
3687.41519	0.66776
3685.48662	0.66649
3683.55806	0.66554
3681.62950	0.66467
3679.70093	0.66239
3677.77237	0.66116
3675.84380	0.66863
3673.91524	0.67574
3671.98667	0.67604
3670.05811	0.68019
3668.12954	0.68304
3666.20098	0.68049
3664.27242	0.67896
3662.34385	0.68006
3660.41529	0.68212
3658.48672	0.68543
3656.55816	0.69137
3654.62959	0.69439
3652.70103	0.69241
3650.77246	0.69376
3648.84390	0.70858
3646.91534	0.71955
3644.98677	0.72086
3643.05821	0.72184
3641.12964	0.72549
3639.20108	0.72976
3637.27251	0.73238
3635.34395	0.73492
3633.41538	0.73773
3631.48682	0.73890
3629.55826	0.74667
3627.62969	0.76193
3625.70113	0.76633
3623.77256	0.76536
3621.84400	0.76631
3619.91543	0.77378
3617.98687	0.78418
3616.05830	0.78891
3614.12974	0.79159
3612.20118	0.79571
3610.27261	0.80158
3608.34405	0.81080
3606.41548	0.81856
3604.48692	0.82066
3602.55835	0.82246
3600.62979	0.82836
3598.70123	0.83553
3596.77266	0.84173
3594.84410	0.84921
3592.91553	0.85578
3590.98697	0.85879
3589.05840	0.86433
3587.12984	0.87754
3585.20127	0.88684
3583.27271	0.88978
3581.34415	0.89382
3579.41558	0.90059
3577.48702	0.90752
3575.55845	0.91400
3573.62989	0.92011
3571.70132	0.92424
3569.77276	0.92662
3567.84419	0.93309
3565.91563	0.94598
3563.98707	0.95537
3562.05850	0.96170
3560.12994	0.96848
3558.20137	0.97569
3556.27281	0.98208
3554.34424	0.98806
3552.41568	0.99496
3550.48711	1.00009
3548.55855	1.00360
3546.62999	1.01053
3544.70142	1.02105
3542.77286	1.03002
3540.84429	1.03640
3538.91573	1.04303
3536.98716	1.05200
3535.05860	1.06052
3533.13003	1.06586
3531.20147	1.07134
3529.27291	1.07953
3527.34434	1.08949
3525.41578	1.10008
3523.48721	1.10865
3521.55865	1.11415
3519.63008	1.12065
3517.70152	1.12949
3515.77295	1.13744
3513.84439	1.14599
3511.91583	1.15887
3509.98726	1.17215
3508.05870	1.17943
3506.13013	1.18324
3504.20157	1.19245
3502.27300	1.20953
3500.34444	1.22666
3498.41587	1.23952
3496.48731	1.24906
3494.55875	1.25670
3492.63018	1.26369
3490.70162	1.27176
3488.77305	1.28029
3486.84449	1.28600
3484.91592	1.29078
3482.98736	1.29982
3481.05879	1.30966
3479.13023	1.31313
3477.20167	1.31517
3475.27310	1.32120
3473.34454	1.32900
3471.41597	1.33673
3469.48741	1.34287
3467.55884	1.34645
3465.63028	1.34977
3463.70171	1.35462
3461.77315	1.36061
3459.84459	1.36722
3457.91602	1.37271
3455.98746	1.37518
3454.05889	1.37775
3452.13033	1.38272
3450.20176	1.38666
3448.27320	1.38786
3446.34464	1.38776
3444.41607	1.38863
3442.48751	1.39295
3440.55894	1.40055
3438.63038	1.40881
3436.70181	1.41462
3434.77325	1.41766
3432.84468	1.42028
3430.91612	1.42229
3428.98756	1.42397
3427.05899	1.42554
3425.13043	1.42466
3423.20186	1.42309
3421.27330	1.42300
3419.34473	1.42393
3417.41617	1.42622
3415.48760	1.42730
3413.55904	1.42455
3411.63048	1.42221
3409.70191	1.42583
3407.77335	1.43209
3405.84478	1.43212
3403.91622	1.42626
3401.98765	1.42231
3400.05909	1.42159
3398.13052	1.42214
3396.20196	1.42448
3394.27340	1.42671
3392.34483	1.42921
3390.41627	1.43578
3388.48770	1.44358
3386.55914	1.44883
3384.63057	1.45138
3382.70201	1.44919
3380.77344	1.44527
3378.84488	1.44632
3376.91632	1.45079
3374.98775	1.45206
3373.05919	1.44914
3371.13062	1.44658
3369.20206	1.44612
3367.27349	1.44691
3365.34493	1.44978
3363.41636	1.45401
3361.48780	1.45829
3359.55924	1.46235
3357.63067	1.46275
3355.70211	1.46092
3353.77354	1.46471
3351.84498	1.47124
3349.91641	1.47287
3347.98785	1.47261
3346.05928	1.47390
3344.13072	1.47444
3342.20216	1.47442
3340.27359	1.47646
3338.34503	1.47994
3336.41646	1.48288
3334.48790	1.48636
3332.55933	1.49185
3330.63077	1.49613
3328.70220	1.49552
3326.77364	1.49433
3324.84508	1.49769
3322.91651	1.50395
3320.98795	1.51140
3319.05938	1.51987
3317.13082	1.52553
3315.20225	1.52702
3313.27369	1.53059
3311.34513	1.53531
3309.41656	1.53496
3307.48800	1.53414
3305.55943	1.53621
3303.63087	1.53884
3301.70230	1.54373
3299.77374	1.54953
3297.84517	1.55188
3295.91661	1.55319
3293.98805	1.55386
3292.05948	1.54824
3290.13092	1.54069
3288.20235	1.54249
3286.27379	1.55005
3284.34522	1.55115
3282.41666	1.54663
3280.48809	1.54281
3278.55953	1.53948
3276.63097	1.53657
3274.70240	1.53598
3272.77384	1.53703
3270.84527	1.53515
3268.91671	1.52800
3266.98814	1.52015
3265.05958	1.51729
3263.13101	1.51799
3261.20245	1.51460
3259.27389	1.50380
3257.34532	1.49103
3255.41676	1.48400
3253.48819	1.48239
3251.55963	1.47791
3249.63106	1.46788
3247.70250	1.45761
3245.77393	1.45255
3243.84537	1.44990
3241.91681	1.44214
3239.98824	1.43229
3238.05968	1.42727
3236.13111	1.42484
3234.20255	1.41771
3232.27398	1.40432
3230.34542	1.39264
3228.41685	1.38866
3226.48829	1.38947
3224.55973	1.39049
3222.63116	1.38750
3220.70260	1.37826
3218.77403	1.36734
3216.84547	1.35929
3214.91690	1.35412
3212.98834	1.35093
3211.05977	1.34838
3209.13121	1.34655
3207.20265	1.34388
3205.27408	1.33670
3203.34552	1.32823
3201.41695	1.32385
3199.48839	1.32283
3197.55982	1.32204
3195.63126	1.31970
3193.70269	1.31483
3191.77413	1.30798
3189.84557	1.30252
3187.91700	1.29971
3185.98844	1.29537
3184.05987	1.28716
3182.13131	1.27893
3180.20274	1.27398
3178.27418	1.27124
3176.34562	1.26797
3174.41705	1.26122
3172.48849	1.25214
3170.55992	1.24626
3168.63136	1.24290
3166.70279	1.23726
3164.77423	1.23162
3162.84566	1.22921
3160.91710	1.22658
3158.98854	1.22091
3157.05997	1.21430
3155.13141	1.20863
3153.20284	1.20454
3151.27428	1.20247
3149.34571	1.20116
3147.41715	1.19924
3145.48858	1.19713
3143.56002	1.19485
3141.63146	1.19080
3139.70289	1.18526
3137.77433	1.18096
3135.84576	1.17955
3133.91720	1.18115
3131.98863	1.18320
3130.06007	1.18175
3128.13150	1.17848
3126.20294	1.17780
3124.27438	1.17903
3122.34581	1.17903
3120.41725	1.17737
3118.48868	1.17521
3116.56012	1.17401
3114.63155	1.17481
3112.70299	1.17613
3110.77442	1.17531
3108.84586	1.17116
3106.91730	1.16549
3104.98873	1.16216
3103.06017	1.16164
3101.13160	1.16060
3099.20304	1.15856
3097.27447	1.15754
3095.34591	1.15664
3093.41734	1.15398
3091.48878	1.15137
3089.56022	1.15078
3087.63165	1.14970
3085.70309	1.14614
3083.77452	1.14245
3081.84596	1.14036
3079.91739	1.13932
3077.98883	1.13802
3076.06026	1.13587
3074.13170	1.13468
3072.20314	1.13410
3070.27457	1.13115
3068.34601	1.12642
3066.41744	1.12191
3064.48888	1.11780
3062.56031	1.11450
3060.63175	1.11102
3058.70318	1.10537
3056.77462	1.09859
3054.84606	1.09274
3052.91749	1.08797
3050.98893	1.08378
3049.06036	1.07868
3047.13180	1.07183
3045.20323	1.06576
3043.27467	1.06199
3041.34610	1.05828
3039.41754	1.05262
3037.48898	1.04628
3035.56041	1.04204
3033.63185	1.04030
3031.70328	1.03867
3029.77472	1.03579
3027.84615	1.03262
3025.91759	1.03005
3023.98903	1.02828
3022.06046	1.02703
3020.13190	1.02477
3018.20333	1.02084
3016.27477	1.01729
3014.34620	1.01576
3012.41764	1.01529
3010.48907	1.01412
3008.56051	1.01198
3006.63195	1.00996
3004.70338	1.00843
3002.77482	1.00633
3000.84625	1.00319
2998.91769	1.00046
2996.98912	0.99971
2995.06056	1.00124
2993.13199	1.00470
2991.20343	1.00909
2989.27487	1.01342
2987.34630	1.01772
2985.41774	1.02273
2983.48917	1.02873
2981.56061	1.03579
2979.63204	1.04410
2977.70348	1.05217
2975.77491	1.05902
2973.84635	1.06661
2971.91779	1.07541
2969.98922	1.08363
2968.06066	1.09066
2966.13209	1.09714
2964.20353	1.10351
2962.27496	1.10779
2960.34640	1.10796
2958.41783	1.10596
2956.48927	1.10393
2954.56071	1.10087
2952.63214	1.09694
2950.70358	1.09486
2948.77501	1.09432
2946.84645	1.09347
2944.91788	1.09497
2942.98932	1.10217
2941.06075	1.11297
2939.13219	1.12258
2937.20363	1.13092
2935.27506	1.14095
2933.34650	1.15136
2931.41793	1.15953
2929.48937	1.16647
2927.56080	1.17293
2925.63224	1.17786
2923.70367	1.18141
2921.77511	1.18379
2919.84655	1.18370
2917.91798	1.17919
2915.98942	1.16821
2914.06085	1.15126
2912.13229	1.13179
2910.20372	1.11344
2908.27516	1.09861
2906.34659	1.08734
2904.41803	1.07926
2902.48947	1.07436
2900.56090	1.07101
2898.63234	1.06795
2896.70377	1.06534
2894.77521	1.06318
2892.84664	1.06147
2890.91808	1.05900
2888.98952	1.05414
2887.06095	1.04904
2885.13239	1.04671
2883.20382	1.04651
2881.27526	1.04627
2879.34669	1.04524
2877.41813	1.04384
2875.48956	1.04192
2873.56100	1.03816
2871.63244	1.03239
2869.70387	1.02610
2867.77531	1.02007
2865.84674	1.01409
2863.91818	1.00919
2861.98961	1.00684
2860.06105	1.00684
2858.13248	1.00914
2856.20392	1.01471
2854.27536	1.02267
2852.34679	1.03068
2850.41823	1.03432
2848.48966	1.02600
2846.56110	1.00501
2844.63253	0.98078
2842.70397	0.96063
2840.77540	0.94640
2838.84684	0.93735
2836.91828	0.93054
2834.98971	0.92369
2833.06115	0.91713
2831.13258	0.91186
2829.20402	0.90773
2827.27545	0.90385
2825.34689	0.90002
2823.41832	0.89669
2821.48976	0.89367
2819.56120	0.89022
2817.63263	0.88643
2815.70407	0.88265
2813.77550	0.87924
2811.84694	0.87688
2809.91837	0.87487
2807.98981	0.87204
2806.06124	0.86872
2804.13268	0.86545
2802.20412	0.86218
2800.27555	0.85894
2798.34699	0.85613
2796.41842	0.85395
2794.48986	0.85196
2792.56129	0.84977
2790.63273	0.84728
2788.70416	0.84438
2786.77560	0.84140
2784.84704	0.83888
2782.91847	0.83636
2780.98991	0.83348
2779.06134	0.83089
2777.13278	0.82891
2775.20421	0.82691
2773.27565	0.82437
2771.34708	0.82152
2769.41852	0.81875
2767.48996	0.81625
2765.56139	0.81439
2763.63283	0.81349
2761.70426	0.81274
2759.77570	0.81108
2757.84713	0.80886
2755.91857	0.80690
2753.99001	0.80542
2752.06144	0.80400
2750.13288	0.80237
2748.20431	0.80108
2746.27575	0.80033
2744.34718	0.79939
2742.41862	0.79796
2740.49005	0.79632
2738.56149	0.79451
2736.63293	0.79269
2734.70436	0.79105
2732.77580	0.78951
2730.84723	0.78824
2728.91867	0.78704
2726.99010	0.78546
2725.06154	0.78378
2723.13297	0.78235
2721.20441	0.78086
2719.27585	0.77929
2717.34728	0.77830
2715.41872	0.77801
2713.49015	0.77776
2711.56159	0.77673
2709.63302	0.77480
2707.70446	0.77311
2705.77589	0.77235
2703.84733	0.77165
2701.91877	0.77050
2699.99020	0.76955
2698.06164	0.76893
2696.13307	0.76780
2694.20451	0.76624
2692.27594	0.76507
2690.34738	0.76441
2688.41881	0.76385
2686.49025	0.76299
2684.56169	0.76159
2682.63312	0.75981
2680.70456	0.75793
2678.77599	0.75623
2676.84743	0.75484
2674.91886	0.75346
2672.99030	0.75197
2671.06173	0.75078
2669.13317	0.74995
2667.20461	0.74898
2665.27604	0.74743
2663.34748	0.74541
2661.41891	0.74340
2659.49035	0.74162
2657.56178	0.73983
2655.63322	0.73797
2653.70465	0.73625
2651.77609	0.73496
2649.84753	0.73414
2647.91896	0.73324
2645.99040	0.73183
2644.06183	0.73040
2642.13327	0.72940
2640.20470	0.72855
2638.27614	0.72761
2636.34757	0.72677
2634.41901	0.72620
2632.49045	0.72555
2630.56188	0.72427
2628.63332	0.72250
2626.70475	0.72080
2624.77619	0.71945
2622.84762	0.71847
2620.91906	0.71759
2618.99049	0.71651
2617.06193	0.71549
2615.13337	0.71473
2613.20480	0.71382
2611.27624	0.71254
2609.34767	0.71112
2607.41911	0.70959
2605.49054	0.70822
2603.56198	0.70728
2601.63342	0.70638
2599.70485	0.70536
2597.77629	0.70464
2595.84772	0.70425
2593.91916	0.70379
2591.99059	0.70306
2590.06203	0.70202
2588.13346	0.70097
2586.20490	0.70005
2584.27634	0.69902
2582.34777	0.69811
2580.41921	0.69740
2578.49064	0.69676
2576.56208	0.69623
2574.63351	0.69574
2572.70495	0.69552
2570.77638	0.69563
2568.84782	0.69528
2566.91926	0.69442
2564.99069	0.69384
2563.06213	0.69347
2561.13356	0.69279
2559.20500	0.69196
2557.27643	0.69103
2555.34787	0.68998
2553.41930	0.68911
2551.49074	0.68853
2549.56218	0.68789
2547.63361	0.68713
2545.70505	0.68631
2543.77648	0.68517
2541.84792	0.68370
2539.91935	0.68234
2537.99079	0.68127
2536.06222	0.68018
2534.13366	0.67873
2532.20510	0.67728
2530.27653	0.67635
2528.34797	0.67549
2526.41940	0.67389
2524.49084	0.67204
2522.56227	0.67094
2520.63371	0.67034
2518.70514	0.66961
2516.77658	0.66847
2514.84802	0.66703
2512.91945	0.66573
2510.99089	0.66467
2509.06232	0.66372
2507.13376	0.66308
2505.20519	0.66274
2503.27663	0.66239
2501.34806	0.66207
2499.41950	0.66196
2497.49094	0.66173
2495.56237	0.66123
2493.63381	0.66097
2491.70524	0.66089
2489.77668	0.66040
2487.84811	0.65961
2485.91955	0.65925
2483.99098	0.65929
2482.06242	0.65901
2480.13386	0.65827
2478.20529	0.65748
2476.27673	0.65684
2474.34816	0.65636
2472.41960	0.65589
2470.49103	0.65501
2468.56247	0.65386
2466.63391	0.65306
2464.70534	0.65262
2462.77678	0.65222
2460.84821	0.65185
2458.91965	0.65144
2456.99108	0.65091
2455.06252	0.65035
2453.13395	0.64958
2451.20539	0.64865
2449.27683	0.64810
2447.34826	0.64805
2445.41970	0.64812
2443.49113	0.64816
2441.56257	0.64799
2439.63400	0.64745
2437.70544	0.64699
2435.77687	0.64673
2433.84831	0.64603
2431.91975	0.64491
2429.99118	0.64380
2428.06262	0.64282
2426.13405	0.64202
2424.20549	0.64130
2422.27692	0.64041
2420.34836	0.63927
2418.41979	0.63770
2416.49123	0.63601
2414.56267	0.63462
2412.63410	0.63331
2410.70554	0.63196
2408.77697	0.63058
2406.84841	0.62901
2404.91984	0.62723
2402.99128	0.62554
2401.06271	0.62425
2399.13415	0.62326
2397.20559	0.62198
2395.27702	0.62040
2393.34846	0.61918
2391.41989	0.61860
2389.49133	0.61830
2387.56276	0.61790
2385.63420	0.61723
2383.70563	0.61654
2381.77707	0.61644
2379.84851	0.61712
2377.91994	0.61787
2375.99138	0.61800
2374.06281	0.61773
2372.13425	0.61728
2370.20568	0.61695
2368.27712	0.61698
2366.34855	0.61684
2364.41999	0.61734
2362.49143	0.61843
2360.56286	0.61704
2358.63430	0.61528
2356.70573	0.61742
2354.77717	0.62074
2352.84860	0.62168
2350.92004	0.62034
2348.99147	0.61822
2347.06291	0.61662
2345.13435	0.61637
2343.20578	0.61719
2341.27722	0.61821
2339.34865	0.61919
2337.42009	0.61926
2335.49152	0.61811
2333.56296	0.61700
2331.63440	0.61669
2329.70583	0.61702
2327.77727	0.61806
2325.84870	0.61946
2323.92014	0.62047
2321.99157	0.62090
2320.06301	0.62065
2318.13444	0.61946
2316.20588	0.61815
2314.27732	0.61797
2312.34875	0.61878
2310.42019	0.61970
2308.49162	0.62057
2306.56306	0.62132
2304.63449	0.62150
2302.70593	0.62116
2300.77736	0.62062
2298.84880	0.62001
2296.92024	0.61955
2294.99167	0.61930
2293.06311	0.61899
2291.13454	0.61835
2289.20598	0.61745
2287.27741	0.61657
2285.34885	0.61582
2283.42028	0.61489
2281.49172	0.61360
2279.56316	0.61244
2277.63459	0.61177
2275.70603	0.61121
2273.77746	0.61054
2271.84890	0.60998
2269.92033	0.60949
2267.99177	0.60895
2266.06320	0.60857
2264.13464	0.60849
2262.20608	0.60849
2260.27751	0.60835
2258.34895	0.60829
2256.42038	0.60847
2254.49182	0.60861
2252.56325	0.60858
2250.63469	0.60862
2248.70612	0.60876
2246.77756	0.60892
2244.84900	0.60910
2242.92043	0.60907
2240.99187	0.60867
2239.06330	0.60811
2237.13474	0.60774
2235.20617	0.60735
2233.27761	0.60677
2231.34904	0.60617
2229.42048	0.60536
2227.49192	0.60432
2225.56335	0.60340
2223.63479	0.60268
2221.70622	0.60210
2219.77766	0.60151
2217.84909	0.60085
2215.92053	0.60032
2213.99196	0.59995
2212.06340	0.59981
2210.13484	0.59997
2208.20627	0.60034
2206.27771	0.60077
2204.34914	0.60133
2202.42058	0.60201
2200.49201	0.60265
2198.56345	0.60316
2196.63488	0.60397
2194.70632	0.60525
2192.77776	0.60642
2190.84919	0.60720
2188.92063	0.60810
2186.99206	0.60906
2185.06350	0.60961
2183.13493	0.60991
2181.20637	0.61029
2179.27781	0.61070
2177.34924	0.61114
2175.42068	0.61151
2173.49211	0.61150
2171.56355	0.61111
2169.63498	0.61060
2167.70642	0.60997
2165.77785	0.60940
2163.84929	0.60913
2161.92073	0.60881
2159.99216	0.60827
2158.06360	0.60774
2156.13503	0.60713
2154.20647	0.60627
2152.27790	0.60533
2150.34934	0.60456
2148.42077	0.60416
2146.49221	0.60401
2144.56365	0.60383
2142.63508	0.60349
2140.70652	0.60305
2138.77795	0.60263
2136.84939	0.60228
2134.92082	0.60200
2132.99226	0.60178
2131.06369	0.60154
2129.13513	0.60129
2127.20657	0.60108
2125.27800	0.60087
2123.34944	0.60064
2121.42087	0.60041
2119.49231	0.60022
2117.56374	0.60013
2115.63518	0.60002
2113.70661	0.59971
2111.77805	0.59922
2109.84949	0.59873
2107.92092	0.59833
2105.99236	0.59790
2104.06379	0.59720
2102.13523	0.59627
2100.20666	0.59535
2098.27810	0.59468
2096.34953	0.59433
2094.42097	0.59399
2092.49241	0.59352
2090.56384	0.59317
2088.63528	0.59294
2086.70671	0.59267
2084.77815	0.59237
2082.84958	0.59215
2080.92102	0.59220
2078.99245	0.59264
2077.06389	0.59318
2075.13533	0.59353
2073.20676	0.59380
2071.27820	0.59421
2069.34963	0.59476
2067.42107	0.59540
2065.49250	0.59601
2063.56394	0.59644
2061.63537	0.59664
2059.70681	0.59682
2057.77825	0.59722
2055.84968	0.59781
2053.92112	0.59830
2051.99255	0.59848
2050.06399	0.59848
2048.13542	0.59840
2046.20686	0.59800
2044.27830	0.59727
2042.34973	0.59653
2040.42117	0.59590
2038.49260	0.59502
2036.56404	0.59367
2034.63547	0.59206
2032.70691	0.59062
2030.77834	0.58937
2028.84978	0.58802
2026.92122	0.58661
2024.99265	0.58531
2023.06409	0.58414
2021.13552	0.58317
2019.20696	0.58246
2017.27839	0.58196
2015.34983	0.58152
2013.42126	0.58105
2011.49270	0.58076
2009.56414	0.58088
2007.63557	0.58128
2005.70701	0.58167
2003.77844	0.58184
2001.84988	0.58203
1999.92131	0.58258
1997.99275	0.58315
1996.06418	0.58322
1994.13562	0.58309
1992.20706	0.58321
1990.27849	0.58318
1988.34993	0.58277
1986.42136	0.58226
1984.49280	0.58164
1982.56423	0.58078
1980.63567	0.57965
1978.70710	0.57835
1976.77854	0.57710
1974.84998	0.57586
1972.92141	0.57454
1970.99285	0.57334
1969.06428	0.57257
1967.13572	0.57219
1965.20715	0.57165
1963.27859	0.57085
1961.35002	0.57041
1959.42146	0.57058
1957.49290	0.57092
1955.56433	0.57125
1953.63577	0.57172
1951.70720	0.57237
1949.77864	0.57308
1947.85007	0.57382
1945.92151	0.57455
1943.99294	0.57547
1942.06438	0.57664
1940.13582	0.57734
1938.20725	0.57774
1936.27869	0.57845
1934.35012	0.57894
1932.42156	0.57877
1930.49299	0.57837
1928.56443	0.57815
1926.63586	0.57773
1924.70730	0.57698
1922.77874	0.57613
1920.85017	0.57483
1918.92161	0.57338
1916.99304	0.57231
1915.06448	0.57105
1913.13591	0.56955
1911.20735	0.56824
1909.27878	0.56714
1907.35022	0.56607
1905.42166	0.56512
1903.49309	0.56448
1901.56453	0.56407
1899.63596	0.56378
1897.70740	0.56368
1895.77883	0.56390
1893.85027	0.56415
1891.92171	0.56423
1889.99314	0.56489
1888.06458	0.56598
1886.13601	0.56643
1884.20745	0.56638
1882.27888	0.56634
1880.35032	0.56647
1878.42175	0.56644
1876.49319	0.56600
1874.56463	0.56526
1872.63606	0.56421
1870.70750	0.56324
1868.77893	0.56311
1866.85037	0.56296
1864.92180	0.56180
1862.99324	0.56034
1861.06467	0.55920
1859.13611	0.55858
1857.20755	0.55819
1855.27898	0.55769
1853.35042	0.55717
1851.42185	0.55680
1849.49329	0.55657
1847.56472	0.55644
1845.63616	0.55715
1843.70759	0.55914
1841.77903	0.56018
1839.85047	0.56013
1837.92190	0.56048
1835.99334	0.56123
1834.06477	0.56158
1832.13621	0.56206
1830.20764	0.56375
1828.27908	0.56541
1826.35051	0.56611
1824.42195	0.56699
1822.49339	0.56756
1820.56482	0.56759
1818.63626	0.56793
1816.70769	0.56846
1814.77913	0.56861
1812.85056	0.56859
1810.92200	0.56876
1808.99343	0.56865
1807.06487	0.56783
1805.13631	0.56673
1803.20774	0.56584
1801.27918	0.56539
1799.35061	0.56489
1797.42205	0.56381
1795.49348	0.56241
1793.56492	0.56152
1791.63635	0.56162
1789.70779	0.56108
1787.77923	0.55981
1785.85066	0.55890
1783.92210	0.55835
1781.99353	0.55790
1780.06497	0.55770
1778.13640	0.55735
1776.20784	0.55654
1774.27927	0.55635
1772.35071	0.55799
1770.42215	0.55954
1768.49358	0.55970
1766.56502	0.55956
1764.63645	0.55972
1762.70789	0.56128
1760.77932	0.56404
1758.85076	0.56622
1756.92220	0.56900
1754.99363	0.57208
1753.06507	0.57488
1751.13650	0.58029
1749.20794	0.58875
1747.27937	0.59555
1745.35081	0.60032
1743.42224	0.60472
1741.49368	0.60935
1739.56512	0.61401
1737.63655	0.61694
1735.70799	0.61928
1733.77942	0.62528
1731.85086	0.63110
1729.92229	0.63471
1727.99373	0.63894
1726.06516	0.64387
1724.13660	0.65036
1722.20804	0.65704
1720.27947	0.66291
1718.35091	0.67338
1716.42234	0.69343
1714.49378	0.71027
1712.56521	0.72225
1710.63665	0.73470
1708.70808	0.74918
1706.77952	0.77065
1704.85096	0.79963
1702.92239	0.82565
1700.99383	0.86113
1699.06526	0.91748
1697.13670	0.96942
1695.20813	1.01901
1693.27957	1.05579
1691.35100	1.08525
1689.42244	1.12145
1687.49388	1.15477
1685.56531	1.18930
1683.63675	1.24920
1681.70818	1.29699
1679.77962	1.32485
1677.85105	1.34962
1675.92249	1.37916
1673.99392	1.41121
1672.06536	1.43413
1670.13680	1.45724
1668.20823	1.48354
1666.27967	1.49781
1664.35110	1.50835
1662.42254	1.52282
1660.49397	1.53395
1658.56541	1.53837
1656.63684	1.53931
1654.70828	1.54292
1652.77972	1.55061
1650.85115	1.54830
1648.92259	1.54161
1646.99402	1.53425
1645.06546	1.53139
1643.13689	1.53007
1641.20833	1.52837
1639.27976	1.52649
1637.35120	1.52497
1635.42264	1.52027
1633.49407	1.51171
1631.56551	1.50410
1629.63694	1.49634
1627.70838	1.48780
1625.77981	1.47623
1623.85125	1.45855
1621.92269	1.43753
1619.99412	1.41864
1618.06556	1.39411
1616.13699	1.35719
1614.20843	1.32594
1612.27986	1.30016
1610.35130	1.27223
1608.42273	1.24412
1606.49417	1.22098
1604.56561	1.20360
1602.63704	1.19005
1600.70848	1.17998
1598.77991	1.17336
1596.85135	1.16958
1594.92278	1.16766
1592.99422	1.16747
1591.06565	1.17002
1589.13709	1.17567
1587.20853	1.18403
1585.27996	1.19447
1583.35140	1.20683
1581.42283	1.22031
1579.49427	1.23290
1577.56570	1.24831
1575.63714	1.27216
1573.70857	1.28871
1571.78001	1.29813
1569.85145	1.31309
1567.92288	1.32962
1565.99432	1.34046
1564.06575	1.35020
1562.13719	1.35619
1560.20862	1.36014
1558.28006	1.38064
1556.35149	1.39806
1554.42293	1.40284
1552.49437	1.40392
1550.56580	1.40378
1548.63724	1.40272
1546.70867	1.40082
1544.78011	1.39749
1542.85154	1.39119
1540.92298	1.38012
1538.99441	1.36997
1537.06585	1.36624
1535.13729	1.36268
1533.20872	1.35742
1531.28016	1.35215
1529.35159	1.34791
1527.42303	1.34348
1525.49446	1.33798
1523.56590	1.33333
1521.63733	1.33162
1519.70877	1.33176
1517.78021	1.32876
1515.85164	1.31942
1513.92308	1.30422
1511.99451	1.28610
1510.06595	1.26738
1508.13738	1.24029
1506.20882	1.19808
1504.28025	1.17394
1502.35169	1.15692
1500.42313	1.13748
1498.49456	1.11263
1496.56600	1.08294
1494.63743	1.06009
1492.70887	1.04492
1490.78030	1.02880
1488.85174	1.00963
1486.92317	0.99579
1484.99461	0.98694
1483.06605	0.98123
1481.13748	0.97928
1479.20892	0.98110
1477.28035	0.98687
1475.35179	0.99833
1473.42322	1.01900
1471.49466	1.04231
1469.56610	1.05541
1467.63753	1.06414
1465.70897	1.07534
1463.78040	1.08771
1461.85184	1.09505
1459.92327	1.09981
1457.99471	1.11123
1456.06614	1.12769
1454.13758	1.13202
1452.20902	1.13153
1450.28045	1.13074
1448.35189	1.12995
1446.42332	1.12796
1444.49476	1.12383
1442.56619	1.11829
1440.63763	1.11251
1438.70906	1.10612
1436.78050	1.09780
1434.85194	1.08921
1432.92337	1.08166
1430.99481	1.07393
1429.06624	1.06709
1427.13768	1.06259
1425.20911	1.05965
1423.28055	1.05821
1421.35198	1.05881
1419.42342	1.06201
1417.49486	1.06558
1415.56629	1.06631
1413.63773	1.06567
1411.70916	1.06449
1409.78060	1.06311
1407.85203	1.06220
1405.92347	1.06270
1403.99490	1.06450
1402.06634	1.06601
1400.13778	1.06790
1398.20921	1.07117
1396.28065	1.07490
1394.35208	1.07855
1392.42352	1.08168
1390.49495	1.08513
1388.56639	1.09229
1386.63782	1.10522
1384.70926	1.11880
1382.78070	1.12962
1380.85213	1.13747
1378.92357	1.14053
1376.99500	1.13701
1375.06644	1.12619
1373.13787	1.11029
1371.20931	1.09369
1369.28074	1.07614
1367.35218	1.05837
1365.42362	1.04297
1363.49505	1.02865
1361.56649	1.01595
1359.63792	1.00777
1357.70936	1.00308
1355.78079	1.00035
1353.85223	0.99883
1351.92366	0.99791
1349.99510	0.99727
1348.06654	0.99741
1346.13797	0.99880
1344.20941	1.00089
1342.28084	1.00346
1340.35228	1.00793
1338.42371	1.01482
1336.49515	1.02225
1334.56659	1.03015
1332.63802	1.03931
1330.70946	1.04905
1328.78089	1.05772
1326.85233	1.06379
1324.92376	1.06694
1322.99520	1.06838
1321.06663	1.06937
1319.13807	1.07011
1317.20951	1.07031
1315.28094	1.06990
1313.35238	1.06878
1311.42381	1.06701
1309.49525	1.06512
1307.56668	1.06275
1305.63812	1.05938
1303.70955	1.05562
1301.78099	1.05178
1299.85243	1.04738
1297.92386	1.04212
1295.99530	1.03706
1294.06673	1.03368
1292.13817	1.03231
1290.20960	1.03256
1288.28104	1.03426
1286.35247	1.03693
1284.42391	1.03968
1282.49535	1.04224
1280.56678	1.04499
1278.63822	1.04838
1276.70965	1.05251
1274.78109	1.05712
1272.85252	1.06228
1270.92396	1.06793
1268.99539	1.07332
1267.06683	1.07818
1265.13827	1.08204
1263.20970	1.08340
1261.28114	1.08213
1259.35257	1.07968
1257.42401	1.07681
1255.49544	1.07365
1253.56688	1.07078
1251.63831	1.06877
1249.70975	1.06704
1247.78119	1.06504
1245.85262	1.06329
1243.92406	1.06190
1241.99549	1.06067
1240.06693	1.05977
1238.13836	1.05914
1236.20980	1.05841
1234.28123	1.05723
1232.35267	1.05571
1230.42411	1.05432
1228.49554	1.05265
1226.56698	1.04999
1224.63841	1.04650
1222.70985	1.04285
1220.78128	1.03988
1218.85272	1.03841
1216.92415	1.03854
1214.99559	1.04012
1213.06703	1.04380
1211.13846	1.04974
1209.20990	1.05570
1207.28133	1.05892
1205.35277	1.05812
1203.42420	1.05310
1201.49564	1.04521
1199.56708	1.03647
1197.63851	1.02763
1195.70995	1.01895
1193.78138	1.01130
1191.85282	1.00544
1189.92425	1.00144
1187.99569	0.99903
1186.06712	0.99841
1184.13856	1.00035
1182.21000	1.00494
1180.28143	1.01211
1178.35287	1.02230
1176.42430	1.03537
1174.49574	1.05095
1172.56717	1.06833
1170.63861	1.08646
1168.71004	1.10575
1166.78148	1.12768
1164.85292	1.15155
1162.92435	1.17342
1160.99579	1.18933
1159.06722	1.19703
1157.13866	1.19611
1155.21009	1.18824
1153.28153	1.17521
1151.35296	1.15876
1149.42440	1.14056
1147.49584	1.12182
1145.56727	1.10441
1143.63871	1.09058
1141.71014	1.08120
1139.78158	1.07607
1137.85301	1.07535
1135.92445	1.07857
1133.99588	1.08491
1132.06732	1.09556
1130.13876	1.11224
1128.21019	1.13352
1126.28163	1.15584
1124.35306	1.17726
1122.42450	1.19690
1120.49593	1.21416
1118.56737	1.22989
1116.63880	1.24331
1114.71024	1.25152
1112.78168	1.25638
1110.85311	1.26211
1108.92455	1.26767
1106.99598	1.26987
1105.06742	1.26863
1103.13885	1.26708
1101.21029	1.26779
1099.28172	1.26963
1097.35316	1.27134
1095.42460	1.27386
1093.49603	1.27830
1091.56747	1.28545
1089.63890	1.29612
1087.71034	1.31038
1085.78177	1.32621
1083.85321	1.34109
1081.92464	1.35400
1079.99608	1.36315
1078.06752	1.36648
1076.13895	1.36477
1074.21039	1.35910
1072.28182	1.34932
1070.35326	1.33685
1068.42469	1.32432
1066.49613	1.31407
1064.56756	1.30786
1062.63900	1.30543
1060.71044	1.30424
1058.78187	1.30267
1056.85331	1.30181
1054.92474	1.30262
1052.99618	1.30468
1051.06761	1.30760
1049.13905	1.31098
1047.21049	1.31462
1045.28192	1.31885
1043.35336	1.32389
1041.42479	1.32918
1039.49623	1.33276
1037.56766	1.33307
1035.63910	1.33053
1033.71053	1.32567
1031.78197	1.31942
1029.85341	1.31342
1027.92484	1.30629
1025.99628	1.29555
1024.06771	1.28224
1022.13915	1.26794
1020.21058	1.25304
1018.28202	1.23836
1016.35345	1.22386
1014.42489	1.20868
1012.49633	1.19274
1010.56776	1.17586
1008.63920	1.15693
1006.71063	1.13657
1004.78207	1.11808
1002.85350	1.10357
1000.92494	1.09266
998.99637	1.08518
997.06781	1.08117
995.13925	1.07905
993.21068	1.07635
991.28212	1.07121
989.35355	1.06267
987.42499	1.05116
985.49642	1.03824
983.56786	1.02492
981.63929	1.01209
979.71073	1.00033
977.78217	0.98901
975.85360	0.97780
973.92504	0.96615
971.99647	0.95296
970.06791	0.93898
968.13934	0.92620
966.21078	0.91576
964.28221	0.90875
962.35365	0.90669
960.42509	0.91016
958.49652	0.91780
956.56796	0.92585
954.63939	0.92978
952.71083	0.92843
950.78226	0.92479
948.85370	0.92211
946.92513	0.92167
944.99657	0.92361
943.06801	0.92785
941.13944	0.93352
939.21088	0.93953
937.28231	0.94558
935.35375	0.95143
933.42518	0.95651
931.49662	0.96065
929.56805	0.96371
927.63949	0.96540
925.71093	0.96600
923.78236	0.96564
921.85380	0.96360
919.92523	0.95978
917.99667	0.95493
916.06810	0.94966
914.13954	0.94460
912.21098	0.94044
910.28241	0.93756
908.35385	0.93613
906.42528	0.93638
904.49672	0.93866
902.56815	0.94246
900.63959	0.94618
898.71102	0.94891
896.78246	0.95064
894.85390	0.95084
892.92533	0.94937
890.99677	0.94682
889.06820	0.94351
887.13964	0.93984
885.21107	0.93563
883.28251	0.93020
881.35394	0.92425
879.42538	0.91885
877.49682	0.91362
875.56825	0.90771
873.63969	0.90106
871.71112	0.89424
869.78256	0.88800
867.85399	0.88245
865.92543	0.87711
863.99686	0.87225
862.06830	0.86897
860.13974	0.86795
858.21117	0.86903
856.28261	0.87177
854.35404	0.87570
852.42548	0.88013
850.49691	0.88439
848.56835	0.88860
846.63978	0.89390
844.71122	0.90057
842.78266	0.90722
840.85409	0.91326
838.92553	0.91945
836.99696	0.92616
835.06840	0.93323
833.13983	0.94010
831.21127	0.94623
829.28270	0.95184
827.35414	0.95746
825.42558	0.96292
823.49701	0.96790
821.56845	0.97247
819.63988	0.97588
817.71132	0.97775
815.78275	0.97959
813.85419	0.98232
811.92562	0.98467
809.99706	0.98536
808.06850	0.98523
806.13993	0.98572
804.21137	0.98663
802.28280	0.98744
800.35424	0.98869
798.42567	0.99088
796.49711	0.99414
794.56854	0.99826
792.63998	1.00286
790.71142	1.00749
788.78285	1.01138
786.85429	1.01429
784.92572	1.01672
782.99716	1.01898
781.06859	1.02106
779.14003	1.02218
777.21147	1.02151
775.28290	1.01925
773.35434	1.01556
771.42577	1.01046
769.49721	1.00403
767.56864	0.99538
765.64008	0.98496
763.71151	0.97545
761.78295	0.96800
759.85439	0.96164
757.92582	0.95586
755.99726	0.95087
754.06869	0.94720
752.14013	0.94535
750.21156	0.94518
748.28300	0.94664
746.35443	0.94980
744.42587	0.95453
742.49731	0.96083
740.56874	0.96913
738.64018	0.97914
736.71161	0.98949
734.78305	0.99968
732.85448	1.01028
730.92592	1.02218
728.99735	1.03523
727.06879	1.04763
725.14023	1.05824
723.21166	1.06773
721.28310	1.07720
719.35453	1.08593
717.42597	1.09268
715.49740	1.09837
713.56884	1.10315
711.64027	1.10551
709.71171	1.10572
707.78315	1.10543
705.85458	1.10491
703.92602	1.10275
701.99745	1.09812
700.06889	1.09194
698.14032	1.08614
696.21176	1.08203
694.28319	1.07938
692.35463	1.07824
690.42607	1.07896
688.49750	1.08056
686.56894	1.08265
684.64037	1.08583
682.71181	1.08961
680.78324	1.09349
678.85468	1.09767
676.92611	1.10181
674.99755	1.10582
673.06899	1.10815
671.14042	1.10652
669.21186	1.10110
667.28329	1.09533
665.35473	1.08977
663.42616	1.08024
661.49760	1.06545
659.56903	1.04757
657.64047	1.02952
655.71191	1.01314
653.78334	0.99833
651.85478	0.98411
649.92621	0.96957
647.99765	0.95526
646.06908	0.94364
644.14052	0.93617
642.21195	0.93217
640.28339	0.93105
638.35483	0.93401
636.42626	0.94045
634.49770	0.94666
632.56913	0.95112
630.64057	0.95700
628.71200	0.96682
626.78344	0.98010
624.85488	0.99536
622.92631	1.01142
620.99775	1.02871
619.06918	1.04897
617.14062	1.07202
615.21205	1.09321
613.28349	1.11087
611.35492	1.12817
609.42636	1.14443
607.49780	1.15733
605.56923	1.16786
603.64067	1.17716
601.71210	1.18428
599.78354	1.18476
