3997.91406	0.85690
3995.98550	0.85616
3994.05693	0.85545
3992.12837	0.85470
3990.19980	0.85380
3988.27124	0.85268
3986.34268	0.85135
3984.41411	0.85057
3982.48555	0.85104
3980.55698	0.85214
3978.62842	0.85254
3976.69985	0.85216
3974.77129	0.85181
3972.84272	0.85198
3970.91416	0.85295
3968.98560	0.85333
3967.05703	0.85127
3965.12847	0.84890
3963.19990	0.84878
3961.27134	0.84905
3959.34277	0.84809
3957.41421	0.84683
3955.48564	0.84529
3953.55708	0.84383
3951.62852	0.84361
3949.69995	0.84451
3947.77139	0.84482
3945.84282	0.84333
3943.91426	0.84196
3941.98569	0.84285
3940.05713	0.84451
3938.12856	0.84532
3936.20000	0.84511
3934.27144	0.84379
3932.34287	0.84285
3930.41431	0.84412
3928.48574	0.84534
3926.55718	0.84440
3924.62861	0.84217
3922.70005	0.83953
3920.77148	0.83646
3918.84292	0.83448
3916.91436	0.83594
3914.98579	0.83843
3913.05723	0.83835
3911.12866	0.83654
3909.20010	0.83401
3907.27153	0.83064
3905.34297	0.82874
3903.41440	0.83127
3901.48584	0.83518
3899.55728	0.83642
3897.62871	0.83395
3895.70015	0.82934
3893.77158	0.82620
3891.84302	0.82728
3889.91445	0.82769
3887.98589	0.82521
3886.05733	0.82515
3884.12876	0.82700
3882.20020	0.82697
3880.27163	0.82763
3878.34307	0.82736
3876.41450	0.82565
3874.48594	0.82599
3872.55737	0.82752
3870.62881	0.82773
3868.70025	0.82606
3866.77168	0.82340
3864.84312	0.82325
3862.91455	0.82482
3860.98599	0.82375
3859.05742	0.82063
3857.12886	0.81556
3855.20029	0.81072
3853.27173	0.81722
3851.34317	0.82469
3849.41460	0.82281
3847.48604	0.81876
3845.55747	0.81616
3843.62891	0.81664
3841.70034	0.81852
3839.77178	0.81882
3837.84321	0.81791
3835.91465	0.81697
3833.98609	0.81692
3832.05752	0.81913
3830.12896	0.82097
3828.20039	0.81953
3826.27183	0.81645
3824.34326	0.81337
3822.41470	0.81297
3820.48613	0.81776
3818.55757	0.81900
3816.62901	0.81710
3814.70044	0.81631
3812.77188	0.81510
3810.84331	0.81270
3808.91475	0.81037
3806.98618	0.81093
3805.05762	0.81154
3803.12905	0.81003
3801.20049	0.81144
3799.27193	0.81469
3797.34336	0.81722
3795.41480	0.81780
3793.48623	0.81597
3791.55767	0.81509
3789.62910	0.81500
3787.70054	0.81408
3785.77197	0.81412
3783.84341	0.81429
3781.91485	0.81232
3779.98628	0.81125
3778.05772	0.81228
3776.12915	0.81113
3774.20059	0.80795
3772.27202	0.80656
3770.34346	0.80917
3768.41489	0.81173
3766.48633	0.81141
3764.55777	0.81003
3762.62920	0.80779
3760.70064	0.80628
3758.77207	0.80654
3756.84351	0.80468
3754.91494	0.79965
3752.98638	0.79466
3751.05781	0.79722
3749.12925	0.80297
3747.20069	0.80147
3745.27212	0.80052
3743.34356	0.80347
3741.41499	0.80355
3739.48643	0.80187
3737.55786	0.80174
3735.62930	0.80330
3733.70074	0.80418
3731.77217	0.80462
3729.84361	0.80357
3727.91504	0.80124
3725.98648	0.80074
3724.05791	0.80245
3722.12935	0.80323
3720.20078	0.80345
3718.27222	0.80388
3716.34366	0.80312
3714.41509	0.80136
3712.48653	0.80239
3710.55796	0.80735
3708.62940	0.80875
3706.70083	0.80653
3704.77227	0.80371
3702.84370	0.80305
3700.91514	0.80416
3698.98658	0.80382
3697.05801	0.80346
3695.12945	0.80395
3693.20088	0.80412
3691.27232	0.80530
3689.34375	0.80907
3687.41519	0.81104
3685.48662	0.81070
3683.55806	0.81011
3681.62950	0.80912
3679.70093	0.80663
3677.77237	0.80450
3675.84380	0.81095
3673.91524	0.81962
3671.98667	0.82128
3670.05811	0.82519
3668.12954	0.83033
3666.20098	0.83211
3664.27242	0.83426
3662.34385	0.83801
3660.41529	0.84123
3658.48672	0.84369
3656.55816	0.84846
3654.62959	0.85177
3652.70103	0.85035
3650.77246	0.85206
3648.84390	0.86688
3646.91534	0.87778
3644.98677	0.88043
3643.05821	0.88337
3641.12964	0.88769
3639.20108	0.89099
3637.27251	0.89331
3635.34395	0.89682
3633.41538	0.90048
3631.48682	0.90255
3629.55826	0.91207
3627.62969	0.92987
3625.70113	0.93650
3623.77256	0.93727
3621.84400	0.93925
3619.91543	0.94599
3617.98687	0.95555
3616.05830	0.96275
3614.12974	0.97031
3612.20118	0.97798
3610.27261	0.98233
3608.34405	0.98640
3606.41548	0.99264
3604.48692	0.99883
3602.55835	1.00556
3600.62979	1.01286
3598.70123	1.02022
3596.77266	1.02976
3594.84410	1.03960
3592.91553	1.04496
3590.98697	1.04767
3589.05840	1.05365
3587.12984	1.06605
3585.20127	1.07777
3583.27271	1.08446
3581.34415	1.08922
3579.41558	1.09638
3577.48702	1.10665
3575.55845	1.11718
3573.62989	1.12572
3571.70132	1.13099
3569.77276	1.13507
3567.84419	1.14543
3565.91563	1.16231
3563.98707	1.17447
3562.05850	1.18378
3560.12994	1.19207
3558.20137	1.19859
3556.27281	1.20419
3554.34424	1.21077
3552.41568	1.22084
3550.48711	1.22980
3548.55855	1.23318
3546.62999	1.23808
3544.70142	1.24982
3542.77286	1.25913
3540.84429	1.26184
3538.91573	1.26449
3536.98716	1.27211
3535.05860	1.28224
3533.13003	1.28922
3531.20147	1.29391
3529.27291	1.30119
3527.34434	1.31048
3525.41578	1.31698
3523.48721	1.32315
3521.55865	1.33320
3519.63008	1.34360
3517.70152	1.35268
3515.77295	1.36377
3513.84439	1.37538
3511.91583	1.38249
3509.98726	1.38642
3508.05870	1.39011
3506.13013	1.39418
3504.20157	1.40047
3502.27300	1.40833
3500.34444	1.41834
3498.41587	1.43102
3496.48731	1.44157
3494.55875	1.44693
3492.63018	1.44999
3490.70162	1.45471
3488.77305	1.46067
3486.84449	1.46661
3484.91592	1.47204
3482.98736	1.47574
3481.05879	1.48020
3479.13023	1.48814
3477.20167	1.49685
3475.27310	1.50066
3473.34454	1.49982
3471.41597	1.50122
3469.48741	1.50673
3467.55884	1.51305
3465.63028	1.51871
3463.70171	1.52186
3461.77315	1.51943
3459.84459	1.51362
3457.91602	1.50824
3455.98746	1.50810
3454.05889	1.51686
3452.13033	1.52832
3450.20176	1.53481
3448.27320	1.53437
3446.34464	1.52841
3444.41607	1.52399
3442.48751	1.52667
3440.55894	1.53340
3438.63038	1.53950
3436.70181	1.54545
3434.77325	1.54880
3432.84468	1.54737
3430.91612	1.54593
3428.98756	1.54549
3427.05899	1.54393
3425.13043	1.54506
3423.20186	1.55003
3421.27330	1.55310
3419.34473	1.55286
3417.41617	1.55255
3415.48760	1.55494
3413.55904	1.56012
3411.63048	1.56183
3409.70191	1.55594
3407.77335	1.54810
3405.84478	1.54641
3403.91622	1.55119
3401.98765	1.55608
3400.05909	1.55852
3398.13052	1.56028
3396.20196	1.56110
3394.27340	1.56138
3392.34483	1.56347
3390.41627	1.56465
3388.48770	1.56450
3386.55914	1.56644
3384.63057	1.56489
3382.70201	1.55984
3380.77344	1.56059
3378.84488	1.56490
3376.91632	1.56809
3374.98775	1.57301
3373.05919	1.57902
3371.13062	1.58123
3369.20206	1.57766
3367.27349	1.57251
3365.34493	1.57181
3363.41636	1.57496
3361.48780	1.57850
3359.55924	1.58101
3357.63067	1.57910
3355.70211	1.57352
3353.77354	1.57059
3351.84498	1.57253
3349.91641	1.57806
3347.98785	1.58220
3346.05928	1.58049
3344.13072	1.58018
3342.20216	1.58801
3340.27359	1.59604
3338.34503	1.59776
3336.41646	1.59874
3334.48790	1.60178
3332.55933	1.60386
3330.63077	1.60266
3328.70220	1.59649
3326.77364	1.58895
3324.84508	1.58885
3322.91651	1.59627
3320.98795	1.60074
3319.05938	1.59818
3317.13082	1.59234
3315.20225	1.58998
3313.27369	1.59708
3311.34513	1.60685
3309.41656	1.60790
3307.48800	1.59999
3305.55943	1.59341
3303.63087	1.59611
3301.70230	1.60230
3299.77374	1.60622
3297.84517	1.61080
3295.91661	1.61441
3293.98805	1.61301
3292.05948	1.61144
3290.13092	1.61322
3288.20235	1.60916
3286.27379	1.59887
3284.34522	1.59632
3282.41666	1.60087
3280.48809	1.59776
3278.55953	1.58688
3276.63097	1.58095
3274.70240	1.58127
3272.77384	1.58132
3270.84527	1.58153
3268.91671	1.58311
3266.98814	1.58193
3265.05958	1.57411
3263.13101	1.56243
3261.20245	1.55645
3259.27389	1.56221
3257.34532	1.57179
3255.41676	1.57250
3253.48819	1.56564
3251.55963	1.56190
3249.63106	1.56487
3247.70250	1.56688
3245.77393	1.56209
3243.84537	1.55616
3241.91681	1.55139
3239.98824	1.54503
3238.05968	1.54008
3236.13111	1.53753
3234.20255	1.53517
3232.27398	1.53512
3230.34542	1.53666
3228.41685	1.53549
3226.48829	1.53247
3224.55973	1.52930
3222.63116	1.52715
3220.70260	1.52724
3218.77403	1.52668
3216.84547	1.52597
3214.91690	1.52843
3212.98834	1.53004
3211.05977	1.52584
3209.13121	1.51978
3207.20265	1.51661
3205.27408	1.51401
3203.34552	1.51104
3201.41695	1.50908
3199.48839	1.50701
3197.55982	1.50604
3195.63126	1.50762
3193.70269	1.50923
3191.77413	1.50827
3189.84557	1.50496
3187.91700	1.50216
3185.98844	1.50146
3184.05987	1.50104
3182.13131	1.49818
3180.20274	1.49180
3178.27418	1.48543
3176.34562	1.48452
3174.41705	1.48936
3172.48849	1.49618
3170.55992	1.49874
3168.63136	1.49355
3166.70279	1.48696
3164.77423	1.48221
3162.84566	1.47558
3160.91710	1.46944
3158.98854	1.46834
3157.05997	1.47056
3155.13141	1.47123
3153.20284	1.46910
3151.27428	1.46562
3149.34571	1.46140
3147.41715	1.45949
3145.48858	1.46153
3143.56002	1.46343
3141.63146	1.46135
3139.70289	1.45624
3137.77433	1.45191
3135.84576	1.44950
3133.91720	1.44678
3131.98863	1.44363
3130.06007	1.44227
3128.13150	1.44253
3126.20294	1.44250
3124.27438	1.44171
3122.34581	1.44085
3120.41725	1.44091
3118.48868	1.44184
3116.56012	1.44316
3114.63155	1.44384
3112.70299	1.44229
3110.77442	1.44107
3108.84586	1.44163
3106.91730	1.43905
3104.98873	1.43310
3103.06017	1.42953
3101.13160	1.42933
3099.20304	1.42931
3097.27447	1.42847
3095.34591	1.42749
3093.41734	1.42589
3091.48878	1.42299
3089.56022	1.42043
3087.63165	1.42001
3085.70309	1.42034
3083.77452	1.41990
3081.84596	1.42061
3079.91739	1.42377
3077.98883	1.42650
3076.06026	1.42605
3074.13170	1.42254
3072.20314	1.41691
3070.27457	1.41135
3068.34601	1.40781
3066.41744	1.40502
3064.48888	1.40109
3062.56031	1.39683
3060.63175	1.39397
3058.70318	1.39275
3056.77462	1.39175
3054.84606	1.38903
3052.91749	1.38465
3050.98893	1.38062
3049.06036	1.37753
3047.13180	1.37353
3045.20323	1.36853
3043.27467	1.36516
3041.34610	1.36307
3039.41754	1.35986
3037.48898	1.35541
3035.56041	1.35013
3033.63185	1.34531
3031.70328	1.34313
3029.77472	1.34341
3027.84615	1.34364
3025.91759	1.34140
3023.98903	1.33654
3022.06046	1.33070
3020.13190	1.32503
3018.20333	1.32020
3016.27477	1.31751
3014.34620	1.31720
3012.41764	1.31639
3010.48907	1.31296
3008.56051	1.30846
3006.63195	1.30598
3004.70338	1.30715
3002.77482	1.30922
3000.84625	1.30819
2998.91769	1.30508
2996.98912	1.30352
2995.06056	1.30423
2993.13199	1.30591
2991.20343	1.30844
2989.27487	1.31182
2987.34630	1.31558
2985.41774	1.32018
2983.48917	1.32579
2981.56061	1.33140
2979.63204	1.33566
2977.70348	1.33812
2975.77491	1.34072
2973.84635	1.34554
2971.91779	1.35219
2969.98922	1.35914
2968.06066	1.36594
2966.13209	1.37265
2964.20353	1.37782
2962.27496	1.37917
2960.34640	1.37743
2958.41783	1.37631
2956.48927	1.37649
2954.56071	1.37564
2952.63214	1.37339
2950.70358	1.37103
2948.77501	1.37007
2946.84645	1.37227
2944.91788	1.37745
2942.98932	1.38292
2941.06075	1.38766
2939.13219	1.39446
2937.20363	1.40343
2935.27506	1.40987
2933.34650	1.41285
2931.41793	1.41477
2929.48937	1.41678
2927.56080	1.42046
2925.63224	1.42545
2923.70367	1.42963
2921.77511	1.43029
2919.84655	1.42543
2917.91798	1.41738
2915.98942	1.40770
2914.06085	1.39554
2912.13229	1.38120
2910.20372	1.36712
2908.27516	1.35725
2906.34659	1.35229
2904.41803	1.34863
2902.48947	1.34331
2900.56090	1.33765
2898.63234	1.33375
2896.70377	1.33053
2894.77521	1.32713
2892.84664	1.32294
2890.91808	1.31784
2888.98952	1.31511
2887.06095	1.31549
2885.13239	1.31473
2883.20382	1.31220
2881.27526	1.31134
2879.34669	1.31225
2877.41813	1.31301
2875.48956	1.31261
2873.56100	1.30995
2871.63244	1.30611
2869.70387	1.30265
2867.77531	1.29818
2865.84674	1.29279
2863.91818	1.28929
2861.98961	1.28860
2860.06105	1.28968
2858.13248	1.29077
2856.20392	1.29055
2854.27536	1.29056
2852.34679	1.29132
2850.41823	1.28848
2848.48966	1.27809
2846.56110	1.26217
2844.63253	1.24609
2842.70397	1.23311
2840.77540	1.22299
2838.84684	1.21440
2836.91828	1.20622
2834.98971	1.19801
2833.06115	1.19094
2831.13258	1.18579
2829.20402	1.18182
2827.27545	1.17928
2825.34689	1.17792
2823.41832	1.17561
2821.48976	1.17130
2819.56120	1.16619
2817.63263	1.16224
2815.70407	1.15982
2813.77550	1.15748
2811.84694	1.15397
2809.91837	1.14937
2807.98981	1.14522
2806.06124	1.14232
2804.13268	1.13966
2802.20412	1.13674
2800.27555	1.13380
2798.34699	1.13098
2796.41842	1.12859
2794.48986	1.12691
2792.56129	1.12526
2790.63273	1.12202
2788.70416	1.11691
2786.77560	1.11241
2784.84704	1.11031
2782.91847	1.10926
2780.98991	1.10732
2779.06134	1.10436
2777.13278	1.10102
2775.20421	1.09808
2773.27565	1.09629
2771.34708	1.09499
2769.41852	1.09283
2767.48996	1.08962
2765.56139	1.08600
2763.63283	1.08315
2761.70426	1.08178
2759.77570	1.08065
2757.84713	1.07893
2755.91857	1.07717
2753.99001	1.07549
2752.06144	1.07430
2750.13288	1.07359
2748.20431	1.07195
2746.27575	1.06986
2744.34718	1.06864
2742.41862	1.06737
2740.49005	1.06550
2738.56149	1.06396
2736.63293	1.06327
2734.70436	1.06264
2732.77580	1.06086
2730.84723	1.05817
2728.91867	1.05556
2726.99010	1.05302
2725.06154	1.05048
2723.13297	1.04865
2721.20441	1.04792
2719.27585	1.04724
2717.34728	1.04530
2715.41872	1.04255
2713.49015	1.03997
2711.56159	1.03789
2709.63302	1.03638
2707.70446	1.03504
2705.77589	1.03371
2703.84733	1.03253
2701.91877	1.03107
2699.99020	1.02904
2698.06164	1.02692
2696.13307	1.02553
2694.20451	1.02487
2692.27594	1.02400
2690.34738	1.02258
2688.41881	1.02091
2686.49025	1.01915
2684.56169	1.01700
2682.63312	1.01446
2680.70456	1.01215
2678.77599	1.01025
2676.84743	1.00855
2674.91886	1.00687
2672.99030	1.00517
2671.06173	1.00336
2669.13317	1.00114
2667.20461	0.99873
2665.27604	0.99630
2663.34748	0.99359
2661.41891	0.99103
2659.49035	0.98870
2657.56178	0.98638
2655.63322	0.98444
2653.70465	0.98235
2651.77609	0.97944
2649.84753	0.97655
2647.91896	0.97397
2645.99040	0.97104
2644.06183	0.96810
2642.13327	0.96604
2640.20470	0.96517
2638.27614	0.96472
2636.34757	0.96337
2634.41901	0.96079
2632.49045	0.95799
2630.56188	0.95594
2628.63332	0.95449
2626.70475	0.95288
2624.77619	0.95107
2622.84762	0.94980
2620.91906	0.94909
2618.99049	0.94794
2617.06193	0.94604
2615.13337	0.94440
2613.20480	0.94311
2611.27624	0.94169
2609.34767	0.94023
2607.41911	0.93845
2605.49054	0.93636
2603.56198	0.93432
2601.63342	0.93240
2599.70485	0.93078
2597.77629	0.92904
2595.84772	0.92681
2593.91916	0.92473
2591.99059	0.92340
2590.06203	0.92255
2588.13346	0.92146
2586.20490	0.91986
2584.27634	0.91812
2582.34777	0.91673
2580.41921	0.91612
2578.49064	0.91596
2576.56208	0.91487
2574.63351	0.91247
2572.70495	0.91003
2570.77638	0.90813
2568.84782	0.90648
2566.91926	0.90495
2564.99069	0.90311
2563.06213	0.90078
2561.13356	0.89862
2559.20500	0.89681
2557.27643	0.89492
2555.34787	0.89302
2553.41930	0.89117
2551.49074	0.88904
2549.56218	0.88693
2547.63361	0.88518
2545.70505	0.88355
2543.77648	0.88221
2541.84792	0.88129
2539.91935	0.88032
2537.99079	0.87915
2536.06222	0.87788
2534.13366	0.87636
2532.20510	0.87471
2530.27653	0.87311
2528.34797	0.87179
2526.41940	0.87122
2524.49084	0.87084
2522.56227	0.86950
2520.63371	0.86739
2518.70514	0.86525
2516.77658	0.86329
2514.84802	0.86148
2512.91945	0.85990
2510.99089	0.85841
2509.06232	0.85639
2507.13376	0.85424
2505.20519	0.85302
2503.27663	0.85240
2501.34806	0.85143
2499.41950	0.85001
2497.49094	0.84859
2495.56237	0.84762
2493.63381	0.84703
2491.70524	0.84613
2489.77668	0.84445
2487.84811	0.84230
2485.91955	0.84032
2483.99098	0.83873
2482.06242	0.83692
2480.13386	0.83470
2478.20529	0.83247
2476.27673	0.83004
2474.34816	0.82723
2472.41960	0.82461
2470.49103	0.82250
2468.56247	0.82052
2466.63391	0.81845
2464.70534	0.81622
2462.77678	0.81400
2460.84821	0.81211
2458.91965	0.81049
2456.99108	0.80899
2455.06252	0.80738
2453.13395	0.80532
2451.20539	0.80334
2449.27683	0.80205
2447.34826	0.80098
2445.41970	0.79953
2443.49113	0.79792
2441.56257	0.79639
2439.63400	0.79475
2437.70544	0.79271
2435.77687	0.79047
2433.84831	0.78838
2431.91975	0.78623
2429.99118	0.78406
2428.06262	0.78232
2426.13405	0.78073
2424.20549	0.77904
2422.27692	0.77772
2420.34836	0.77685
2418.41979	0.77580
2416.49123	0.77469
2414.56267	0.77390
2412.63410	0.77309
2410.70554	0.77190
2408.77697	0.77053
2406.84841	0.76944
2404.91984	0.76870
2402.99128	0.76777
2401.06271	0.76645
2399.13415	0.76500
2397.20559	0.76346
2395.27702	0.76186
2393.34846	0.76040
2391.41989	0.75885
2389.49133	0.75681
2387.56276	0.75434
2385.63420	0.75182
2383.70563	0.74964
2381.77707	0.74775
2379.84851	0.74574
2377.91994	0.74363
2375.99138	0.74212
2374.06281	0.74150
2372.13425	0.74075
2370.20568	0.73863
2368.27712	0.73543
2366.34855	0.73236
2364.41999	0.73015
2362.49143	0.72951
2360.56286	0.73098
2358.63430	0.73369
2356.70573	0.73528
2354.77717	0.73472
2352.84860	0.73377
2350.92004	0.73268
2348.99147	0.73060
2347.06291	0.72821
2345.13435	0.72709
2343.20578	0.72726
2341.27722	0.72720
2339.34865	0.72665
2337.42009	0.72532
2335.49152	0.72346
2333.56296	0.72280
2331.63440	0.72394
2329.70583	0.72479
2327.77727	0.72405
2325.84870	0.72296
2323.92014	0.72270
2321.99157	0.72295
2320.06301	0.72256
2318.13444	0.72183
2316.20588	0.72153
2314.27732	0.72102
2312.34875	0.71990
2310.42019	0.71872
2308.49162	0.71786
2306.56306	0.71740
2304.63449	0.71678
2302.70593	0.71560
2300.77736	0.71456
2298.84880	0.71409
2296.92024	0.71369
2294.99167	0.71300
2293.06311	0.71217
2291.13454	0.71149
2289.20598	0.71101
2287.27741	0.71058
2285.34885	0.71001
2283.42028	0.70930
2281.49172	0.70851
2279.56316	0.70752
2277.63459	0.70647
2275.70603	0.70568
2273.77746	0.70509
2271.84890	0.70448
2269.92033	0.70390
2267.99177	0.70334
2266.06320	0.70288
2264.13464	0.70259
2262.20608	0.70210
2260.27751	0.70136
2258.34895	0.70095
2256.42038	0.70103
2254.49182	0.70123
2252.56325	0.70138
2250.63469	0.70158
2248.70612	0.70161
2246.77756	0.70114
2244.84900	0.70036
2242.92043	0.69978
2240.99187	0.69962
2239.06330	0.69968
2237.13474	0.69978
2235.20617	0.69994
2233.27761	0.69997
2231.34904	0.69974
2229.42048	0.69942
2227.49192	0.69892
2225.56335	0.69810
2223.63479	0.69715
2221.70622	0.69618
2219.77766	0.69527
2217.84909	0.69459
2215.92053	0.69413
2213.99196	0.69375
2212.06340	0.69343
2210.13484	0.69301
2208.20627	0.69242
2206.27771	0.69190
2204.34914	0.69165
2202.42058	0.69149
2200.49201	0.69113
2198.56345	0.69100
2196.63488	0.69127
2194.70632	0.69150
2192.77776	0.69161
2190.84919	0.69166
2188.92063	0.69178
2186.99206	0.69226
2185.06350	0.69296
2183.13493	0.69351
2181.20637	0.69365
2179.27781	0.69345
2177.34924	0.69339
2175.42068	0.69356
2173.49211	0.69363
2171.56355	0.69341
2169.63498	0.69284
2167.70642	0.69203
2165.77785	0.69126
2163.84929	0.69063
2161.92073	0.68996
2159.99216	0.68927
2158.06360	0.68870
2156.13503	0.68821
2154.20647	0.68794
2152.27790	0.68794
2150.34934	0.68797
2148.42077	0.68789
2146.49221	0.68775
2144.56365	0.68775
2142.63508	0.68812
2140.70652	0.68882
2138.77795	0.68959
2136.84939	0.69034
2134.92082	0.69103
2132.99226	0.69164
2131.06369	0.69214
2129.13513	0.69250
2127.20657	0.69255
2125.27800	0.69231
2123.34944	0.69217
2121.42087	0.69222
2119.49231	0.69202
2117.56374	0.69155
2115.63518	0.69115
2113.70661	0.69066
2111.77805	0.68975
2109.84949	0.68861
2107.92092	0.68757
2105.99236	0.68664
2104.06379	0.68582
2102.13523	0.68513
2100.20666	0.68441
2098.27810	0.68382
2096.34953	0.68366
2094.42097	0.68363
2092.49241	0.68341
2090.56384	0.68309
2088.63528	0.68279
2086.70671	0.68247
2084.77815	0.68175
2082.84958	0.68057
2080.92102	0.67961
2078.99245	0.67907
2077.06389	0.67858
2075.13533	0.67798
2073.20676	0.67727
2071.27820	0.67658
2069.34963	0.67596
2067.42107	0.67529
2065.49250	0.67459
2063.56394	0.67400
2061.63537	0.67362
2059.70681	0.67339
2057.77825	0.67322
2055.84968	0.67314
2053.92112	0.67310
2051.99255	0.67311
2050.06399	0.67318
2048.13542	0.67314
2046.20686	0.67308
2044.27830	0.67297
2042.34973	0.67263
2040.42117	0.67220
2038.49260	0.67177
2036.56404	0.67116
2034.63547	0.67026
2032.70691	0.66909
2030.77834	0.66776
2028.84978	0.66637
2026.92122	0.66504
2024.99265	0.66386
2023.06409	0.66276
2021.13552	0.66161
2019.20696	0.66061
2017.27839	0.65985
2015.34983	0.65898
2013.42126	0.65796
2011.49270	0.65694
2009.56414	0.65590
2007.63557	0.65490
2005.70701	0.65418
2003.77844	0.65368
2001.84988	0.65312
1999.92131	0.65246
1997.99275	0.65180
1996.06418	0.65108
1994.13562	0.65017
1992.20706	0.64923
1990.27849	0.64839
1988.34993	0.64755
1986.42136	0.64672
1984.49280	0.64583
1982.56423	0.64481
1980.63567	0.64360
1978.70710	0.64224
1976.77854	0.64091
1974.84998	0.63964
1972.92141	0.63829
1970.99285	0.63686
1969.06428	0.63584
1967.13572	0.63555
1965.20715	0.63535
1963.27859	0.63487
1961.35002	0.63455
1959.42146	0.63435
1957.49290	0.63411
1955.56433	0.63410
1953.63577	0.63432
1951.70720	0.63437
1949.77864	0.63408
1947.85007	0.63361
1945.92151	0.63295
1943.99294	0.63230
1942.06438	0.63183
1940.13582	0.63099
1938.20725	0.62962
1936.27869	0.62819
1934.35012	0.62688
1932.42156	0.62542
1930.49299	0.62366
1928.56443	0.62189
1926.63586	0.62023
1924.70730	0.61886
1922.77874	0.61790
1920.85017	0.61699
1918.92161	0.61640
1916.99304	0.61639
1915.06448	0.61606
1913.13591	0.61549
1911.20735	0.61528
1909.27878	0.61526
1907.35022	0.61512
1905.42166	0.61489
1903.49309	0.61451
1901.56453	0.61381
1899.63596	0.61290
1897.70740	0.61196
1895.77883	0.61112
1893.85027	0.61018
1891.92171	0.60894
1889.99314	0.60789
1888.06458	0.60689
1886.13601	0.60530
1884.20745	0.60338
1882.27888	0.60167
1880.35032	0.60041
1878.42175	0.59941
1876.49319	0.59834
1874.56463	0.59707
1872.63606	0.59583
1870.70750	0.59527
1868.77893	0.59609
1866.85037	0.59696
1864.92180	0.59667
1862.99324	0.59614
1861.06467	0.59596
1859.13611	0.59602
1857.20755	0.59593
1855.27898	0.59544
1853.35042	0.59469
1851.42185	0.59374
1849.49329	0.59243
1847.56472	0.59075
1845.63616	0.58955
1843.70759	0.58916
1841.77903	0.58790
1839.85047	0.58595
1837.92190	0.58448
1835.99334	0.58327
1834.06477	0.58148
1832.13621	0.57972
1830.20764	0.57937
1828.27908	0.57964
1826.35051	0.57933
1824.42195	0.57936
1822.49339	0.57941
1820.56482	0.57901
1818.63626	0.57883
1816.70769	0.57877
1814.77913	0.57825
1812.85056	0.57764
1810.92200	0.57756
1808.99343	0.57744
1807.06487	0.57687
1805.13631	0.57623
1803.20774	0.57566
1801.27918	0.57548
1799.35061	0.57555
1797.42205	0.57516
1795.49348	0.57430
1793.56492	0.57416
1791.63635	0.57587
1789.70779	0.57704
1787.77923	0.57705
1785.85066	0.57743
1783.92210	0.57835
1781.99353	0.57942
1780.06497	0.58108
1778.13640	0.58263
1776.20784	0.58326
1774.27927	0.58421
1772.35071	0.58713
1770.42215	0.59012
1768.49358	0.59175
1766.56502	0.59310
1764.63645	0.59451
1762.70789	0.59721
1760.77932	0.60107
1758.85076	0.60431
1756.92220	0.60875
1754.99363	0.61382
1753.06507	0.61836
1751.13650	0.62574
1749.20794	0.63697
1747.27937	0.64667
1745.35081	0.65393
1743.42224	0.66056
1741.49368	0.66727
1739.56512	0.67387
1737.63655	0.67809
1735.70799	0.68114
1733.77942	0.68828
1731.85086	0.69531
1729.92229	0.69930
1727.99373	0.70348
1726.06516	0.70822
1724.13660	0.71449
1722.20804	0.72115
1720.27947	0.72715
1718.35091	0.73712
1716.42234	0.75544
1714.49378	0.77142
1712.56521	0.78391
1710.63665	0.79754
1708.70808	0.81372
1706.77952	0.83684
1704.85096	0.86634
1702.92239	0.89215
1700.99383	0.92841
1699.06526	0.98735
1697.13670	1.04307
1695.20813	1.09662
1693.27957	1.13543
1691.35100	1.16602
1689.42244	1.20357
1687.49388	1.23747
1685.56531	1.27017
1683.63675	1.32310
1681.70818	1.36108
1679.77962	1.37965
1677.85105	1.39575
1675.92249	1.41367
1673.99392	1.43138
1672.06536	1.44491
1670.13680	1.45873
1668.20823	1.47314
1666.27967	1.48052
1664.35110	1.48612
1662.42254	1.49344
1660.49397	1.49820
1658.56541	1.49937
1656.63684	1.49782
1654.70828	1.49644
1652.77972	1.49860
1650.85115	1.49841
1648.92259	1.49467
1646.99402	1.48871
1645.06546	1.48376
1643.13689	1.47887
1641.20833	1.47451
1639.27976	1.47127
1637.35120	1.46760
1635.42264	1.46080
1633.49407	1.45388
1631.56551	1.44780
1629.63694	1.44012
1627.70838	1.43166
1625.77981	1.42316
1623.85125	1.41327
1621.92269	1.40302
1619.99412	1.39457
1618.06556	1.38409
1616.13699	1.36729
1614.20843	1.35182
1612.27986	1.33871
1610.35130	1.32475
1608.42273	1.31097
1606.49417	1.29993
1604.56561	1.29148
1602.63704	1.28435
1600.70848	1.27906
1598.77991	1.27538
1596.85135	1.27255
1594.92278	1.27007
1592.99422	1.26824
1591.06565	1.26784
1589.13709	1.26902
1587.20853	1.27192
1585.27996	1.27611
1583.35140	1.28130
1581.42283	1.28681
1579.49427	1.29208
1577.56570	1.30005
1575.63714	1.31248
1573.70857	1.32055
1571.78001	1.32628
1569.85145	1.33780
1567.92288	1.35201
1565.99432	1.36206
1564.06575	1.37050
1562.13719	1.37722
1560.20862	1.38664
1558.28006	1.40381
1556.35149	1.40703
1554.42293	1.40576
1552.49437	1.40543
1550.56580	1.40471
1548.63724	1.40316
1546.70867	1.40121
1544.78011	1.39776
1542.85154	1.39299
1540.92298	1.38926
1538.99441	1.38265
1537.06585	1.37643
1535.13729	1.37046
1533.20872	1.36183
1531.28016	1.35369
1529.35159	1.34843
1527.42303	1.34209
1525.49446	1.33356
1523.56590	1.32685
1521.63733	1.32299
1519.70877	1.32089
1517.78021	1.31513
1515.85164	1.30373
1513.92308	1.29002
1511.99451	1.27523
1510.06595	1.26126
1508.13738	1.24437
1506.20882	1.21402
1504.28025	1.19374
1502.35169	1.18003
1500.42313	1.16511
1498.49456	1.14696
1496.56600	1.12641
1494.63743	1.11031
1492.70887	1.09916
1490.78030	1.08758
1488.85174	1.07377
1486.92317	1.06412
1484.99461	1.05940
1483.06605	1.05795
1481.13748	1.05967
1479.20892	1.06399
1477.28035	1.07105
1475.35179	1.08254
1473.42322	1.10176
1471.49466	1.12318
1469.56610	1.13513
1467.63753	1.14280
1465.70897	1.15227
1463.78040	1.16176
1461.85184	1.16618
1459.92327	1.16840
1457.99471	1.17479
1456.06614	1.18434
1454.13758	1.18711
1452.20902	1.18660
1450.28045	1.18489
1448.35189	1.18190
1446.42332	1.17800
1444.49476	1.17466
1442.56619	1.17206
1440.63763	1.16931
1438.70906	1.16597
1436.78050	1.16198
1434.85194	1.15787
1432.92337	1.15466
1430.99481	1.15239
1429.06624	1.15115
1427.13768	1.15125
1425.20911	1.15323
1423.28055	1.15690
1421.35198	1.16080
1419.42342	1.16640
1417.49486	1.17281
1415.56629	1.17567
1413.63773	1.17709
1411.70916	1.17888
1409.78060	1.18048
1407.85203	1.18116
1405.92347	1.18165
1403.99490	1.18166
1402.06634	1.18026
1400.13778	1.17801
1398.20921	1.17523
1396.28065	1.17260
1394.35208	1.17053
1392.42352	1.16893
1390.49495	1.16851
1388.56639	1.17083
1386.63782	1.17591
1384.70926	1.18070
1382.78070	1.18417
1380.85213	1.18588
1378.92357	1.18500
1376.99500	1.18211
1375.06644	1.17685
1373.13787	1.16782
1371.20931	1.15681
1369.28074	1.14481
1367.35218	1.13213
1365.42362	1.12091
1363.49505	1.11172
1361.56649	1.10495
1359.63792	1.10091
1357.70936	1.09841
1355.78079	1.09698
1353.85223	1.09673
1351.92366	1.09676
1349.99510	1.09599
1348.06654	1.09443
1346.13797	1.09224
1344.20941	1.08958
1342.28084	1.08708
1340.35228	1.08532
1338.42371	1.08391
1336.49515	1.08287
1334.56659	1.08350
1332.63802	1.08591
1330.70946	1.08903
1328.78089	1.09217
1326.85233	1.09482
1324.92376	1.09686
1322.99520	1.09891
1321.06663	1.10155
1319.13807	1.10505
1317.20951	1.10904
1315.28094	1.11291
1313.35238	1.11662
1311.42381	1.11957
1309.49525	1.12137
1307.56668	1.12280
1305.63812	1.12347
1303.70955	1.12206
1301.78099	1.11880
1299.85243	1.11443
1297.92386	1.10887
1295.99530	1.10255
1294.06673	1.09665
1292.13817	1.09183
1290.20960	1.08800
1288.28104	1.08505
1286.35247	1.08313
1284.42391	1.08230
1282.49535	1.08266
1280.56678	1.08408
1278.63822	1.08614
1276.70965	1.08862
1274.78109	1.09165
1272.85252	1.09601
1270.92396	1.10178
1268.99539	1.10776
1267.06683	1.11308
1265.13827	1.11727
1263.20970	1.11957
1261.28114	1.12003
1259.35257	1.11971
1257.42401	1.11934
1255.49544	1.11886
1253.56688	1.11805
1251.63831	1.11725
1249.70975	1.11682
1247.78119	1.11637
1245.85262	1.11586
1243.92406	1.11584
1241.99549	1.11637
1240.06693	1.11721
1238.13836	1.11817
1236.20980	1.11931
1234.28123	1.12077
1232.35267	1.12205
1230.42411	1.12193
1228.49554	1.12012
1226.56698	1.11760
1224.63841	1.11487
1222.70985	1.11122
1220.78128	1.10618
1218.85272	1.10087
1216.92415	1.09629
1214.99559	1.09248
1213.06703	1.08974
1211.13846	1.08763
1209.20990	1.08536
1207.28133	1.08264
1205.35277	1.07851
1203.42420	1.07208
1201.49564	1.06388
1199.56708	1.05510
1197.63851	1.04613
1195.70995	1.03705
1193.78138	1.02861
1191.85282	1.02174
1189.92425	1.01701
1187.99569	1.01466
1186.06712	1.01430
1184.13856	1.01562
1182.21000	1.01916
1180.28143	1.02508
1178.35287	1.03238
1176.42430	1.04077
1174.49574	1.05069
1172.56717	1.06143
1170.63861	1.07259
1168.71004	1.08542
1166.78148	1.10096
1164.85292	1.11811
1162.92435	1.13435
1160.99579	1.14824
1159.06722	1.15948
1157.13866	1.16698
1155.21009	1.16989
1153.28153	1.16909
1151.35296	1.16613
1149.42440	1.16235
1147.49584	1.15826
1145.56727	1.15396
1143.63871	1.15070
1141.71014	1.14993
1139.78158	1.15178
1137.85301	1.15640
1135.92445	1.16418
1133.99588	1.17382
1132.06732	1.18341
1130.13876	1.19358
1128.21019	1.20546
1126.28163	1.21726
1124.35306	1.22700
1122.42450	1.23500
1120.49593	1.24113
1118.56737	1.24558
1116.63880	1.24960
1114.71024	1.25230
1112.78168	1.25239
1110.85311	1.25118
1108.92455	1.25149
1106.99598	1.25406
1105.06742	1.25619
1103.13885	1.25711
1101.21029	1.25892
1099.28172	1.26170
1097.35316	1.26485
1095.42460	1.26936
1093.49603	1.27587
1091.56747	1.28448
1089.63890	1.29571
1087.71034	1.30986
1085.78177	1.32562
1083.85321	1.33886
1081.92464	1.34659
1079.99608	1.34964
1078.06752	1.34847
1076.13895	1.34259
1074.21039	1.33347
1072.28182	1.32357
1070.35326	1.31424
1068.42469	1.30640
1066.49613	1.30055
1064.56756	1.29607
1062.63900	1.29332
1060.71044	1.29345
1058.78187	1.29577
1056.85331	1.29791
1054.92474	1.29895
1052.99618	1.30088
1051.06761	1.30509
1049.13905	1.31073
1047.21049	1.31633
1045.28192	1.32115
1043.35336	1.32526
1041.42479	1.32852
1039.49623	1.33068
1037.56766	1.33181
1035.63910	1.33156
1033.71053	1.32819
1031.78197	1.32094
1029.85341	1.31192
1027.92484	1.30237
1025.99628	1.29155
1024.06771	1.27935
1022.13915	1.26697
1020.21058	1.25645
1018.28202	1.24858
1016.35345	1.24061
1014.42489	1.22962
1012.49633	1.21650
1010.56776	1.20351
1008.63920	1.19062
1006.71063	1.17696
1004.78207	1.16298
1002.85350	1.15074
1000.92494	1.14309
998.99637	1.13996
997.06781	1.13824
995.13925	1.13582
993.21068	1.13092
991.28212	1.12160
989.35355	1.10813
987.42499	1.09166
985.49642	1.07277
983.56786	1.05245
981.63929	1.03184
979.71073	1.01206
977.78217	0.99402
975.85360	0.97745
973.92504	0.96092
971.99647	0.94361
970.06791	0.92631
968.13934	0.91040
966.21078	0.89696
964.28221	0.88686
962.35365	0.88130
960.42509	0.88127
958.49652	0.88546
956.56796	0.89030
954.63939	0.89274
952.71083	0.89177
950.78226	0.88766
948.85370	0.88143
946.92513	0.87504
944.99657	0.87015
943.06801	0.86671
941.13944	0.86383
939.21088	0.86098
937.28231	0.85805
935.35375	0.85524
933.42518	0.85303
931.49662	0.85193
929.56805	0.85201
927.63949	0.85276
925.71093	0.85405
923.78236	0.85607
921.85380	0.85819
919.92523	0.85935
917.99667	0.85938
916.06810	0.85867
914.13954	0.85751
912.21098	0.85635
910.28241	0.85576
908.35385	0.85606
906.42528	0.85729
904.49672	0.85890
902.56815	0.86013
900.63959	0.86068
898.71102	0.86009
896.78246	0.85777
894.85390	0.85385
892.92533	0.84851
890.99677	0.84153
889.06820	0.83382
887.13964	0.82699
885.21107	0.82101
883.28251	0.81504
881.35394	0.80952
879.42538	0.80556
877.49682	0.80316
875.56825	0.80136
873.63969	0.79979
871.71112	0.79847
869.78256	0.79761
867.85399	0.79760
865.92543	0.79829
863.99686	0.79965
862.06830	0.80200
860.13974	0.80522
858.21117	0.80895
856.28261	0.81271
854.35404	0.81587
852.42548	0.81820
850.49691	0.82000
848.56835	0.82118
846.63978	0.82134
844.71122	0.82070
842.78266	0.81919
840.85409	0.81661
838.92553	0.81369
836.99696	0.81114
835.06840	0.80921
833.13983	0.80818
831.21127	0.80804
829.28270	0.80814
827.35414	0.80821
825.42558	0.80915
823.49701	0.81165
821.56845	0.81511
819.63988	0.81890
817.71132	0.82326
815.78275	0.82830
813.85419	0.83327
811.92562	0.83726
809.99706	0.84015
808.06850	0.84236
806.13993	0.84396
804.21137	0.84451
802.28280	0.84393
800.35424	0.84253
798.42567	0.84080
796.49711	0.83950
794.56854	0.83885
792.63998	0.83884
790.71142	0.83974
788.78285	0.84191
786.85429	0.84515
784.92572	0.84901
782.99716	0.85417
781.06859	0.86117
779.14003	0.86890
777.21147	0.87651
775.28290	0.88340
773.35434	0.88888
771.42577	0.89319
769.49721	0.89612
767.56864	0.89663
765.64008	0.89452
763.71151	0.89088
761.78295	0.88726
759.85439	0.88439
757.92582	0.88195
755.99726	0.88013
754.06869	0.87924
752.14013	0.87898
750.21156	0.88000
748.28300	0.88286
746.35443	0.88657
744.42587	0.89022
742.49731	0.89378
740.56874	0.89745
738.64018	0.90138
736.71161	0.90571
734.78305	0.91054
732.85448	0.91585
730.92592	0.92139
728.99735	0.92582
727.06879	0.92853
725.14023	0.93118
723.21166	0.93417
721.28310	0.93604
719.35453	0.93679
717.42597	0.93755
715.49740	0.93891
713.56884	0.94095
711.64027	0.94336
709.71171	0.94603
707.78315	0.94863
705.85458	0.95076
703.92602	0.95304
701.99745	0.95564
700.06889	0.95815
698.14032	0.96038
696.21176	0.96205
694.28319	0.96351
692.35463	0.96556
690.42607	0.96860
688.49750	0.97213
686.56894	0.97472
684.64037	0.97564
682.71181	0.97647
680.78324	0.97829
678.85468	0.97914
676.92611	0.97767
674.99755	0.97563
673.06899	0.97511
671.14042	0.97585
669.21186	0.97697
667.28329	0.97882
665.35473	0.98021
663.42616	0.98117
661.49760	0.98335
659.56903	0.98750
657.64047	0.99175
655.71191	0.99417
653.78334	0.99583
651.85478	0.99873
649.92621	1.00319
647.99765	1.00723
646.06908	1.00876
644.14052	1.00987
642.21195	1.01293
640.28339	1.01549
638.35483	1.01496
636.42626	1.01269
634.49770	1.00885
632.56913	1.00248
630.64057	0.99638
628.71200	0.99262
626.78344	0.98972
624.85488	0.98751
622.92631	0.98693
620.99775	0.98816
619.06918	0.99131
617.14062	0.99639
615.21205	1.00241
613.28349	1.00765
611.35492	1.01105
609.42636	1.01410
607.49780	1.01986
605.56923	1.02695
603.64067	1.03056
601.71210	1.03128
599.78354	1.03235
